timestamp,value
00.000,28.67
00.015,31.01
00.031,32.64
00.046,33.6
00.062,33.9
00.078,33.55
00.093,32.47
00.109,30.6
00.125,27.99
00.140,24.81
00.156,21.33
00.171,17.78
00.187,14.26
00.203,10.7
00.218,6.98
00.234,3.01
00.250,-1.25
00.265,-5.93
00.281,-11.14
00.296,-16.92
00.312,-23.16
00.328,-29.43
00.343,-35.0
00.359,-39.02
00.375,-40.78
00.390,-39.97
00.406,-36.9
00.421,-32.26
00.437,-26.88
00.453,-21.48
00.468,-16.47
00.484,-11.96
00.500,-7.95
00.515,-4.49
00.531,-1.59
00.546,0.67
00.562,2.31
00.578,3.44
00.593,4.25
00.609,4.9
00.625,5.46
00.640,5.88
00.656,6.0
00.671,5.79
00.687,5.27
00.703,4.54
00.718,3.67
00.734,2.68
00.750,1.53
00.765,0.16
00.781,-1.56
00.796,-3.64
00.812,-6.01
00.828,-8.57
00.843,-11.15
00.859,-13.61
00.875,-15.89
00.890,-18.04
00.906,-20.13
00.921,-22.34
00.937,-24.75
00.953,-27.32
00.968,-29.82
00.984,-31.75
01.000,-32.52
01.015,-31.63
01.031,-28.83
01.046,-24.25
01.062,-18.43
01.078,-12.1
01.093,-6.04
01.109,-0.81
01.125,3.28
01.140,6.13
01.156,7.74
01.171,8.14
01.187,7.41
01.203,5.75
01.218,3.53
01.234,1.19
01.250,-0.83
01.265,-2.22
01.281,-3.0
01.296,-3.3
01.312,-3.36
01.328,-3.36
01.343,-3.41
01.359,-3.5
01.375,-3.66
01.390,-4.02
01.406,-4.69
01.421,-5.88
01.437,-7.56
01.453,-9.59
01.468,-11.67
01.484,-13.56
01.500,-15.13
01.515,-16.49
01.531,-17.99
01.546,-19.95
01.562,-22.56
01.578,-25.62
01.593,-28.66
01.609,-30.94
01.625,-31.83
01.640,-30.97
01.656,-28.34
01.671,-24.25
01.687,-19.16
01.703,-13.62
01.718,-8.0
01.734,-2.63
01.750,2.25
01.765,6.51
01.781,10.0
01.796,12.61
01.812,14.35
01.828,15.21
01.843,15.34
01.859,14.96
01.875,14.34
01.890,13.71
01.906,13.31
01.921,13.24
01.937,13.48
01.953,13.86
01.968,14.22
01.984,14.35
02.000,14.18
02.015,13.68
02.031,12.8
02.046,11.54
02.062,9.83
02.078,7.72
02.093,5.17
02.109,2.33
02.125,-0.67
02.140,-3.68
02.156,-6.57
02.171,-9.31
02.187,-11.84
02.203,-14.18
02.218,-16.2
02.234,-17.75
02.250,-18.49
02.265,-17.97
02.281,-15.75
02.296,-11.55
02.312,-5.35
02.328,2.52
02.343,11.5
02.359,20.93
02.375,30.24
02.390,39.06
02.406,47.25
02.421,54.75
02.437,61.55
02.453,67.58
02.468,72.65
02.484,76.52
02.500,78.96
02.515,79.87
02.531,79.28
02.546,77.45
02.562,74.79
02.578,71.86
02.593,69.16
02.609,67.08
02.625,65.6
02.640,64.38
02.656,62.8
02.671,60.16
02.687,56.08
02.703,50.59
02.718,44.18
02.734,37.47
02.750,31.08
02.765,25.32
02.781,20.13
02.796,15.3
02.812,10.47
02.828,5.39
02.843,-0.05
02.859,-5.78
02.875,-11.62
02.890,-17.18
02.906,-21.93
02.921,-25.39
02.937,-27.2
02.953,-27.25
02.968,-25.74
02.984,-23.03
03.000,-19.59
03.015,-15.85
03.031,-12.16
03.046,-8.88
03.062,-6.27
03.078,-4.53
03.093,-3.71
03.109,-3.67
03.125,-4.11
03.140,-4.64
03.156,-4.77
03.171,-4.13
03.187,-2.48
03.203,0.31
03.218,4.27
03.234,9.3
03.250,15.18
03.265,21.58
03.281,27.87
03.296,33.41
03.312,37.43
03.328,39.29
03.343,38.62
03.359,35.46
03.375,30.16
03.390,23.36
03.406,15.8
03.421,8.06
03.437,0.54
03.453,-6.67
03.468,-13.79
03.484,-21.17
03.500,-29.12
03.515,-37.66
03.531,-46.38
03.546,-54.4
03.562,-60.83
03.578,-64.9
03.593,-66.55
03.609,-66.33
03.625,-65.31
03.640,-64.73
03.656,-65.57
03.671,-68.49
03.687,-73.6
03.703,-80.79
03.718,-89.55
03.734,-99.09
03.750,-108.27
03.765,-115.79
03.781,-120.48
03.796,-121.62
03.812,-119.23
03.828,-114.01
03.843,-107.16
03.859,-99.9
03.875,-93.16
03.890,-87.35
03.906,-82.49
03.921,-78.38
03.937,-74.74
03.953,-71.33
03.968,-68.01
03.984,-64.69
04.000,-61.32
04.015,-57.88
04.031,-54.49
04.046,-51.28
04.062,-48.5
04.078,-46.38
04.093,-45.05
04.109,-44.46
04.125,-44.28
04.140,-43.89
04.156,-42.52
04.171,-39.45
04.187,-34.17
04.203,-26.61
04.218,-17.13
04.234,-6.47
04.250,4.44
04.265,14.7
04.281,23.55
04.296,30.58
04.312,35.63
04.328,38.92
04.343,40.76
04.359,41.62
04.375,41.78
04.390,41.54
04.406,41.02
04.421,40.39
04.437,39.85
04.453,39.66
04.468,40.05
04.484,40.99
04.500,42.25
04.515,43.42
04.531,44.1
04.546,44.02
04.562,43.23
04.578,41.96
04.593,40.48
04.609,39.05
04.625,37.76
04.640,36.51
04.656,35.17
04.671,33.47
04.687,31.23
04.703,28.36
04.718,24.93
04.734,21.21
04.750,17.72
04.765,15.08
04.781,13.85
04.796,14.36
04.812,16.56
04.828,20.03
04.843,24.13
04.859,28.25
04.875,31.91
04.890,34.99
04.906,37.63
04.921,40.03
04.937,42.3
04.953,44.34
04.968,45.88
04.984,46.63
05.000,46.44
05.015,45.4
05.031,43.8
05.046,42.05
05.062,40.47
05.078,39.22
05.093,38.18
05.109,37.14
05.125,35.85
05.140,34.18
05.156,32.23
05.171,30.27
05.187,28.69
05.203,27.92
05.218,28.24
05.234,29.68
05.250,31.93
05.265,34.41
05.281,36.38
05.296,37.14
05.312,36.33
05.328,34.01
05.343,30.74
05.359,27.38
05.375,24.87
05.390,23.97
05.406,25.07
05.421,28.12
05.437,32.74
05.453,38.39
05.468,44.52
05.484,50.69
05.500,56.57
05.515,61.86
05.531,66.19
05.546,69.1
05.562,70.04
05.578,68.59
05.593,64.59
05.609,58.19
05.625,49.86
05.640,40.28
05.656,30.18
05.671,20.27
05.687,11.06
05.703,2.91
05.718,-4.12
05.734,-10.15
05.750,-15.5
05.765,-20.64
05.781,-26.07
05.796,-32.21
05.812,-39.24
05.828,-47.03
05.843,-55.13
05.859,-63.0
05.875,-70.14
05.890,-76.46
05.906,-82.24
05.921,-88.04
05.937,-94.35
05.953,-101.14
05.968,-107.79
05.984,-113.2
06.000,-116.33
06.015,-116.5
06.031,-113.77
06.046,-108.74
06.062,-102.26
06.078,-95.14
06.093,-87.83
06.109,-80.59
06.125,-73.45
06.140,-66.46
06.156,-59.67
06.171,-53.0
06.187,-46.29
06.203,-39.24
06.218,-31.68
06.234,-23.66
06.250,-15.48
06.265,-7.66
06.281,-0.67
06.296,5.16
06.312,9.79
06.328,13.34
06.343,16.08
06.359,18.16
06.375,19.68
06.390,20.69
06.406,21.27
06.421,21.52
06.437,21.51
06.453,21.22
06.468,20.49
06.484,19.17
06.500,17.08
06.515,14.13
06.531,10.42
06.546,6.18
06.562,1.81
06.578,-2.17
06.593,-5.22
06.609,-6.93
06.625,-7.02
06.640,-5.56
06.656,-2.88
06.671,0.56
06.687,4.26
06.703,7.9
06.718,11.31
06.734,14.3
06.750,16.73
06.765,18.37
06.781,19.09
06.796,18.85
06.812,17.86
06.828,16.39
06.843,14.74
06.859,13.18
06.875,11.82
06.890,10.67
06.906,9.64
06.921,8.65
06.937,7.63
06.953,6.66
06.968,5.79
06.984,5.12
07.000,4.71
07.015,4.47
07.031,4.3
07.046,4.01
07.062,3.45
07.078,2.61
07.093,1.58
07.109,0.44
07.125,-0.84
07.140,-2.33
07.156,-4.13
07.171,-6.17
07.187,-8.1
07.203,-9.33
07.218,-9.2
07.234,-7.23
07.250,-3.36
07.265,2.03
07.281,8.25
07.296,14.56
07.312,20.35
07.328,25.27
07.343,29.16
07.359,32.0
07.375,33.8
07.390,34.6
07.406,34.55
07.421,33.85
07.437,32.8
07.453,31.72
07.468,30.89
07.484,30.43
07.500,30.34
07.515,30.47
07.531,30.57
07.546,30.46
07.562,29.96
07.578,29.04
07.593,27.7
07.609,25.98
07.625,23.81
07.640,21.14
07.656,17.88
07.671,14.05
07.687,9.76
07.703,5.19
07.718,0.54
07.734,-4.01
07.750,-8.26
07.765,-11.97
07.781,-14.84
07.796,-16.4
07.812,-16.38
07.828,-14.67
07.843,-11.58
07.859,-7.66
07.875,-3.57
07.890,0.15
07.906,3.29
07.921,5.85
07.937,8.04
07.953,9.93
07.968,11.52
07.984,12.71
08.000,13.31
08.015,13.24
08.031,12.55
08.046,11.41
08.062,10.13
08.078,9.03
08.093,8.26
08.109,7.85
08.125,7.67
08.140,7.38
08.156,6.7
08.171,5.49
08.187,3.8
08.203,1.9
08.218,0.05
08.234,-1.63
08.250,-3.23
08.265,-4.97
08.281,-7.21
08.296,-10.12
08.312,-13.69
08.328,-17.72
08.343,-21.84
08.359,-25.6
08.375,-28.56
08.390,-30.32
08.406,-30.46
08.421,-28.8
08.437,-25.33
08.453,-20.33
08.468,-14.41
08.484,-8.28
08.500,-2.61
08.515,2.14
08.531,5.8
08.546,8.43
08.562,10.14
08.578,11.08
08.593,11.34
08.609,10.93
08.625,10.05
08.640,9.01
08.656,8.17
08.671,7.77
08.687,7.81
08.703,8.01
08.718,7.99
08.734,7.39
08.750,5.98
08.765,3.82
08.781,1.14
08.796,-1.88
08.812,-5.07
08.828,-8.31
08.843,-11.56
08.859,-14.81
08.875,-18.08
08.890,-21.51
08.906,-25.31
08.921,-29.73
08.937,-34.83
08.953,-40.3
08.968,-45.4
08.984,-49.13
09.000,-50.61
09.015,-49.29
09.031,-45.26
09.046,-39.12
09.062,-31.8
09.078,-24.21
09.093,-17.03
09.109,-10.67
09.125,-5.37
09.140,-1.29
09.156,1.49
09.171,2.98
09.187,3.34
09.203,2.91
09.218,2.09
09.234,1.31
09.250,0.91
09.265,1.02
09.281,1.61
09.296,2.57
09.312,3.71
09.328,4.81
09.343,5.63
09.359,5.94
09.375,5.56
09.390,4.47
09.406,2.74
09.421,0.52
09.437,-1.92
09.453,-4.34
09.468,-6.66
09.484,-8.9
09.500,-11.24
09.515,-13.91
09.531,-17.04
09.546,-20.54
09.562,-24.06
09.578,-26.97
09.593,-28.54
09.609,-28.26
09.625,-25.88
09.640,-21.56
09.656,-15.79
09.671,-9.32
09.687,-2.82
09.703,3.11
09.718,8.15
09.734,12.25
09.750,15.55
09.765,18.38
09.781,21.15
09.796,24.25
09.812,28.03
09.828,32.72
09.843,38.36
09.859,44.9
09.875,52.03
09.890,59.33
09.906,66.29
09.921,72.36
09.937,77.11
09.953,80.25
09.968,81.57
09.984,80.93
10.000,78.22
10.015,73.41
10.031,66.61
10.046,58.2
10.062,48.8
10.078,39.15
10.093,29.96
10.109,21.62
10.125,14.19
10.140,7.53
10.156,1.57
10.171,-3.54
10.187,-7.3
10.203,-9.18
10.218,-8.84
10.234,-6.5
10.250,-2.88
10.265,1.07
10.281,4.51
10.296,7.05
10.312,8.74
10.328,9.85
10.343,10.51
10.359,10.58
10.375,9.71
10.390,7.65
10.406,4.49
10.421,0.71
10.437,-2.89
10.453,-5.63
10.468,-7.1
10.484,-7.38
10.500,-6.94
10.515,-6.32
10.531,-5.91
10.546,-5.79
10.562,-5.84
10.578,-5.75
10.593,-5.43
10.609,-4.95
10.625,-4.64
10.640,-4.91
10.656,-6.08
10.671,-8.34
10.687,-11.63
10.703,-15.78
10.718,-20.38
10.734,-24.89
10.750,-28.66
10.765,-31.0
10.781,-31.35
10.796,-29.41
10.812,-25.34
10.828,-19.66
10.843,-13.15
10.859,-6.65
10.875,-0.88
10.890,3.74
10.906,7.01
10.921,8.98
10.937,9.84
10.953,9.81
10.968,9.16
10.984,8.17
11.000,7.07
11.015,5.98
11.031,4.91
11.046,3.78
11.062,2.37
11.078,0.55
11.093,-1.84
11.109,-4.76
11.125,-8.02
11.140,-11.3
11.156,-14.17
11.171,-16.4
11.187,-17.85
11.203,-18.73
11.218,-19.38
11.234,-20.31
11.250,-21.94
11.265,-24.54
11.281,-28.1
11.296,-32.38
11.312,-36.96
11.328,-41.32
11.343,-44.94
11.359,-47.25
11.375,-47.81
11.390,-46.31
11.406,-42.81
11.421,-37.59
11.437,-31.23
11.453,-24.46
11.468,-17.89
11.484,-11.99
11.500,-6.93
11.515,-2.78
11.531,0.49
11.546,2.89
11.562,4.39
11.578,4.99
11.593,4.78
11.609,4.09
11.625,3.39
11.640,3.28
11.656,4.27
11.671,6.47
11.687,9.58
11.703,12.91
11.718,15.67
11.734,17.17
11.750,17.13
11.765,15.51
11.781,12.43
11.796,7.98
11.812,2.12
11.828,-5.24
11.843,-14.09
11.859,-24.14
11.875,-34.79
11.890,-45.29
11.906,-54.85
11.921,-62.75
11.937,-68.41
11.953,-71.41
11.968,-71.53
11.984,-68.79
12.000,-63.54
12.015,-56.34
12.031,-47.98
12.046,-39.26
12.062,-30.82
12.078,-23.03
12.093,-16.13
12.109,-10.2
12.125,-5.36
12.140,-1.73
12.156,0.74
12.171,2.22
12.187,3.12
12.203,3.94
12.218,5.15
12.234,6.89
12.250,9.06
12.265,11.28
12.281,13.13
12.296,14.27
12.312,14.65
12.328,14.41
12.343,13.81
12.359,13.04
12.375,12.24
12.390,11.27
12.406,9.9
12.421,7.82
12.437,4.9
12.453,1.19
12.468,-2.97
12.484,-6.98
12.500,-10.16
12.515,-11.9
12.531,-11.81
12.546,-9.86
12.562,-6.25
12.578,-1.32
12.593,4.49
12.609,10.71
12.625,16.89
12.640,22.49
12.656,27.07
12.671,30.29
12.687,32.03
12.703,32.41
12.718,31.73
12.734,30.42
12.750,28.85
12.765,27.35
12.781,26.08
12.796,25.1
12.812,24.38
12.828,23.83
12.843,23.28
12.859,22.54
12.875,21.53
12.890,20.2
12.906,18.67
12.921,17.03
12.937,15.39
12.953,13.77
12.968,12.07
12.984,10.03
13.000,7.45
13.015,4.22
13.031,0.46
13.046,-3.4
13.062,-6.73
13.078,-8.79
13.093,-8.95
13.109,-6.93
13.125,-2.91
13.140,2.64
13.156,9.08
13.171,15.82
13.187,22.48
13.203,28.89
13.218,34.9
13.234,40.37
13.250,45.0
13.265,48.45
13.281,50.54
13.296,51.32
13.312,51.2
13.328,50.69
13.343,50.31
13.359,50.35
13.375,50.84
13.390,51.65
13.406,52.55
13.421,53.39
13.437,54.12
13.453,54.85
13.468,55.73
13.484,56.82
13.500,58.09
13.515,59.46
13.531,60.78
13.546,61.89
13.562,62.72
13.578,63.21
13.593,63.46
13.609,63.64
13.625,63.96
13.640,64.55
13.656,65.47
13.671,66.66
13.687,67.89
13.703,68.78
13.718,68.8
13.734,67.27
13.750,63.53
13.765,57.12
13.781,47.86
13.796,35.99
13.812,22.24
13.828,7.5
13.843,-7.19
13.859,-20.94
13.875,-33.04
13.890,-42.91
13.906,-50.14
13.921,-54.61
13.937,-56.54
13.953,-56.55
13.968,-55.57
13.984,-54.57
14.000,-54.27
14.015,-54.95
14.031,-56.43
14.046,-58.22
14.062,-59.75
14.078,-60.65
14.093,-60.81
14.109,-60.48
14.125,-59.99
14.140,-59.8
14.156,-60.26
14.171,-61.57
14.187,-63.66
14.203,-66.19
14.218,-68.51
14.234,-69.87
14.250,-69.54
14.265,-67.05
14.281,-62.4
14.296,-56.08
14.312,-48.82
14.328,-41.48
14.343,-34.75
14.359,-28.99
14.375,-24.32
14.390,-20.7
14.406,-18.05
14.421,-16.38
14.437,-15.61
14.453,-15.57
14.468,-15.96
14.484,-16.48
14.500,-16.9
14.515,-17.14
14.531,-17.34
14.546,-17.7
14.562,-18.41
14.578,-19.48
14.593,-20.78
14.609,-22.09
14.625,-23.23
14.640,-24.18
14.656,-25.03
14.671,-25.95
14.687,-27.12
14.703,-28.67
14.718,-30.62
14.734,-32.98
14.750,-35.71
14.765,-38.72
14.781,-41.75
14.796,-44.37
14.812,-45.96
14.828,-45.86
14.843,-43.59
14.859,-39.05
14.875,-32.56
14.890,-24.76
14.906,-16.38
14.921,-8.12
14.937,-0.52
14.953,6.08
14.968,11.45
14.984,15.55
15.000,18.39
15.015,20.09
15.031,20.81
15.046,20.74
15.062,20.09
15.078,19.06
15.093,17.83
15.109,16.48
15.125,15.15
15.140,13.88
15.156,12.77
15.171,11.79
15.187,11.04
15.203,10.6
15.218,10.51
15.234,10.71
15.250,11.03
15.265,11.17
15.281,10.74
15.296,9.48
15.312,7.35
15.328,4.62
15.343,1.92
15.359,0.01
15.375,-0.41
15.390,1.02
15.406,4.24
15.421,8.79
15.437,13.99
15.453,19.15
15.468,23.7
15.484,27.29
15.500,29.66
15.515,30.72
15.531,30.38
15.546,28.75
15.562,26.04
15.578,22.68
15.593,19.17
15.609,15.92
15.625,13.26
15.640,11.29
15.656,9.94
15.671,8.99
15.687,8.21
15.703,7.33
15.718,6.13
15.734,4.5
15.750,2.35
15.765,-0.25
15.781,-3.19
15.796,-6.35
15.812,-9.68
15.828,-13.19
15.843,-16.92
15.859,-20.84
15.875,-24.66
15.890,-27.92
15.906,-29.95
15.921,-30.15
15.937,-28.13
15.953,-23.88
15.968,-17.82
15.984,-10.75
16.000,-3.53
16.015,3.11
16.031,8.6
16.046,12.67
16.062,15.17
16.078,16.06
16.093,15.27
16.109,12.83
16.125,8.89
16.140,3.82
16.156,-1.8
16.171,-7.34
16.187,-12.24
16.203,-16.18
16.218,-19.12
16.234,-21.25
16.250,-22.74
16.265,-23.75
16.281,-24.27
16.296,-24.28
16.312,-23.84
16.328,-23.15
16.343,-22.53
16.359,-22.34
16.375,-22.86
16.390,-24.28
16.406,-26.71
16.421,-30.13
16.437,-34.24
16.453,-38.53
16.468,-42.12
16.484,-43.99
16.500,-43.44
16.515,-40.25
16.531,-34.76
16.546,-27.82
16.562,-20.33
16.578,-12.94
16.593,-6.05
16.609,0.15
16.625,5.5
16.640,9.65
16.656,12.35
16.671,13.5
16.687,13.39
16.703,12.66
16.718,12.06
16.734,12.2
16.750,13.35
16.765,15.39
16.781,17.93
16.796,20.56
16.812,23.01
16.828,25.11
16.843,26.86
16.859,28.25
16.875,29.16
16.890,29.56
16.906,29.3
16.921,28.29
16.937,26.56
16.953,24.23
16.968,21.34
16.984,17.95
17.000,14.05
17.015,9.73
17.031,5.37
17.046,1.55
17.062,-1.02
17.078,-1.74
17.093,-0.4
17.109,2.73
17.125,7.11
17.140,12.02
17.156,16.82
17.171,21.16
17.187,24.83
17.203,27.68
17.218,29.52
17.234,30.04
17.250,28.99
17.265,26.39
17.281,22.62
17.296,18.24
17.312,13.99
17.328,10.38
17.343,7.66
17.359,5.73
17.375,4.34
17.390,3.19
17.406,2.13
17.421,1.12
17.437,0.1
17.453,-0.96
17.468,-2.2
17.484,-3.73
17.500,-5.53
17.515,-7.48
17.531,-9.48
17.546,-11.42
17.562,-13.4
17.578,-15.67
17.593,-18.42
17.609,-21.71
17.625,-25.31
17.640,-28.51
17.656,-30.45
17.671,-30.35
17.687,-27.64
17.703,-22.35
17.718,-15.02
17.734,-6.47
17.750,2.3
17.765,10.43
17.781,17.31
17.796,22.53
17.812,25.93
17.828,27.5
17.843,27.36
17.859,25.84
17.875,23.43
17.890,20.69
17.906,18.16
17.921,16.2
17.937,14.92
17.953,14.24
17.968,13.9
17.984,13.55
18.000,12.79
18.015,11.3
18.031,8.83
18.046,5.36
18.062,1.05
18.078,-3.8
18.093,-8.79
18.109,-13.56
18.125,-17.85
18.140,-21.66
18.156,-25.11
18.171,-28.53
18.187,-32.26
18.203,-36.53
18.218,-41.36
18.234,-46.43
18.250,-51.09
18.265,-54.49
18.281,-55.78
18.296,-54.38
18.312,-50.15
18.328,-43.43
18.343,-34.96
18.359,-25.66
18.375,-16.51
18.390,-8.26
18.406,-1.43
18.421,3.76
18.437,7.26
18.453,9.15
18.468,9.56
18.484,8.73
18.500,7.0
18.515,4.77
18.531,2.52
18.546,0.64
18.562,-0.57
18.578,-1.06
18.593,-0.87
18.609,-0.24
18.625,0.58
18.640,1.38
18.656,1.93
18.671,2.05
18.687,1.59
18.703,0.5
18.718,-1.11
18.734,-2.96
18.750,-4.71
18.765,-6.03
18.781,-6.82
18.796,-7.22
18.812,-7.62
18.828,-8.47
18.843,-10.17
18.859,-12.73
18.875,-15.79
18.890,-18.57
18.906,-20.15
18.921,-19.75
18.937,-16.93
18.953,-11.74
18.968,-4.75
18.984,3.22
19.000,11.31
19.015,18.82
19.031,25.25
19.046,30.42
19.062,34.24
19.078,36.74
19.093,38.07
19.109,38.46
19.125,38.2
19.140,37.64
19.156,37.07
19.171,36.63
19.187,36.36
19.203,36.15
19.218,35.8
19.234,35.21
19.250,34.3
19.265,33.09
19.281,31.7
19.296,30.16
19.312,28.47
19.328,26.59
19.343,24.43
19.359,21.92
19.375,19.07
19.390,16.03
19.406,12.99
19.421,10.09
19.437,7.45
19.453,5.04
19.468,2.72
19.484,0.2
19.500,-2.82
19.515,-6.52
19.531,-10.84
19.546,-15.27
19.562,-19.04
19.578,-21.22
19.593,-21.0
19.609,-18.01
19.625,-12.43
19.640,-4.92
19.656,3.56
19.671,12.01
19.687,19.61
19.703,25.82
19.718,30.37
19.734,33.25
19.750,34.66
19.765,34.94
19.781,34.54
19.796,33.91
19.812,33.37
19.828,33.11
19.843,33.14
19.859,33.33
19.875,33.5
19.890,33.63
19.906,33.77
19.921,34.1
19.937,34.75
19.953,35.7
19.968,36.77
19.984,37.62
20.000,37.79
20.015,36.91
20.031,34.8
20.046,31.53
20.062,27.48
20.078,23.18
20.093,19.11
20.109,15.61
20.125,12.64
20.140,9.8
20.156,6.58
20.171,2.5
20.187,-2.52
20.203,-8.07
20.218,-13.34
20.234,-17.24
20.250,-18.81
20.265,-17.43
20.281,-13.11
20.296,-6.36
20.312,1.86
20.328,10.48
20.343,18.64
20.359,25.84
20.375,31.99
20.390,37.31
20.406,41.97
20.421,46.07
20.437,49.35
20.453,51.42
20.468,51.76
20.484,50.05
20.500,46.26
20.515,40.63
20.531,33.61
20.546,25.73
20.562,17.55
20.578,9.47
20.593,1.83
20.609,-5.13
20.625,-11.25
20.640,-16.47
20.656,-20.88
20.671,-24.74
20.687,-28.42
20.703,-32.25
20.718,-36.43
20.734,-40.94
20.750,-45.56
20.765,-50.05
20.781,-54.25
20.796,-58.17
20.812,-62.05
20.828,-66.1
20.843,-70.31
20.859,-74.35
20.875,-77.51
20.890,-78.94
20.906,-77.98
20.921,-74.35
20.937,-68.34
20.953,-60.65
20.968,-52.26
20.984,-44.03
21.000,-36.63
21.015,-30.42
21.031,-25.52
21.046,-21.92
21.062,-19.58
21.078,-18.37
21.093,-18.04
21.109,-18.24
21.125,-18.46
21.140,-18.29
21.156,-17.43
21.171,-15.86
21.187,-13.84
21.203,-11.72
21.218,-10.0
21.234,-9.05
21.250,-9.19
21.265,-10.55
21.281,-13.22
21.296,-17.05
21.312,-21.63
21.328,-26.36
21.343,-30.41
21.359,-33.08
21.375,-33.99
21.390,-33.18
21.406,-31.23
21.421,-28.95
21.437,-27.11
21.453,-26.12
21.468,-25.87
21.484,-25.75
21.500,-24.93
21.515,-22.61
21.531,-18.31
21.546,-12.04
21.562,-4.19
21.578,4.56
21.593,13.46
21.609,21.82
21.625,29.22
21.640,35.43
21.656,40.44
21.671,44.25
21.687,46.92
21.703,48.46
21.718,48.94
21.734,48.53
21.750,47.46
21.765,46.07
21.781,44.69
21.796,43.43
21.812,42.29
21.828,41.12
21.843,39.8
21.859,38.26
21.875,36.61
21.890,35.12
21.906,33.98
21.921,33.22
21.937,32.66
21.953,31.93
21.968,30.65
21.984,28.61
22.000,25.84
22.015,22.62
22.031,19.33
22.046,16.24
22.062,13.5
22.078,11.12
22.093,9.07
22.109,7.38
22.125,6.14
22.140,5.45
22.156,5.25
22.171,5.38
22.187,5.57
22.203,5.57
22.218,5.24
22.234,4.55
22.250,3.56
22.265,2.39
22.281,1.08
22.296,-0.33
22.312,-1.77
22.328,-3.19
22.343,-4.46
22.359,-5.5
22.375,-6.3
22.390,-6.97
22.406,-7.61
22.421,-8.26
22.437,-8.89
22.453,-9.36
22.468,-9.57
22.484,-9.58
22.500,-9.56
22.515,-9.8
22.531,-10.53
22.546,-11.86
22.562,-13.75
22.578,-16.14
22.593,-19.02
22.609,-22.43
22.625,-26.47
22.640,-31.1
22.656,-36.26
22.671,-41.84
22.687,-47.76
22.703,-53.83
22.718,-59.68
22.734,-64.71
22.750,-68.07
22.765,-68.93
22.781,-66.75
22.796,-61.57
22.812,-53.98
22.828,-45.02
22.843,-35.76
22.859,-27.08
22.875,-19.49
22.890,-13.21
22.906,-8.27
22.921,-4.64
22.937,-2.33
22.953,-1.25
22.968,-1.24
22.984,-1.97
23.000,-3.03
23.015,-3.98
23.031,-4.49
23.046,-4.38
23.062,-3.73
23.078,-2.75
23.093,-1.73
23.109,-0.88
23.125,-0.34
23.140,-0.07
23.156,-0.04
23.171,-0.15
23.187,-0.43
23.203,-0.99
23.218,-1.96
23.234,-3.45
23.250,-5.56
23.265,-8.26
23.281,-11.56
23.296,-15.43
23.312,-19.67
23.328,-23.84
23.343,-27.31
23.359,-29.28
23.375,-29.08
23.390,-26.45
23.406,-21.58
23.421,-15.13
23.437,-8.05
23.453,-1.17
23.468,4.93
23.484,9.99
23.500,14.09
23.515,17.3
23.531,19.71
23.546,21.29
23.562,22.02
23.578,21.94
23.593,21.31
23.609,20.41
23.625,19.55
23.640,18.98
23.656,18.65
23.671,18.31
23.687,17.64
23.703,16.37
23.718,14.4
23.734,11.87
23.750,8.99
23.765,6.02
23.781,3.22
23.796,0.65
23.812,-1.71
23.828,-3.98
23.843,-6.3
23.859,-8.87
23.875,-11.68
23.890,-14.65
23.906,-17.38
23.921,-19.23
23.937,-19.52
23.953,-17.74
23.968,-13.79
23.984,-8.02
24.000,-1.21
24.015,5.85
24.031,12.38
24.046,17.93
24.062,22.36
24.078,25.68
24.093,27.93
24.109,29.14
24.125,29.34
24.140,28.63
24.156,27.31
24.171,25.72
24.187,24.17
24.203,22.88
24.218,21.79
24.234,20.71
24.250,19.4
24.265,17.71
24.281,15.59
24.296,13.18
24.312,10.66
24.328,8.13
24.343,5.69
24.359,3.2
24.375,0.5
24.390,-2.57
24.406,-6.23
24.421,-10.61
24.437,-15.69
24.453,-21.23
24.468,-26.72
24.484,-31.27
24.500,-33.99
24.515,-34.19
24.531,-31.63
24.546,-26.72
24.562,-20.27
24.578,-13.2
24.593,-6.3
24.609,-0.08
24.625,5.35
24.640,9.87
24.656,13.37
24.671,15.69
24.687,16.7
24.703,16.48
24.718,15.35
24.734,13.77
24.750,12.18
24.765,10.92
24.781,10.1
24.796,9.56
24.812,9.12
24.828,8.51
24.843,7.55
24.859,6.2
24.875,4.5
24.890,2.56
24.906,0.5
24.921,-1.65
24.937,-3.98
24.953,-6.62
24.968,-9.76
24.984,-13.59
25.000,-18.18
25.015,-23.41
25.031,-28.9
25.046,-33.98
25.062,-37.81
25.078,-39.54
25.093,-38.51
25.109,-34.53
25.125,-27.94
25.140,-19.47
25.156,-10.03
25.171,-0.48
25.187,8.59
25.203,16.81
25.218,23.88
25.234,29.57
25.250,33.62
25.265,35.86
25.281,36.41
25.296,35.73
25.312,34.56
25.328,33.76
25.343,33.98
25.359,35.36
25.375,37.54
25.390,39.71
25.406,41.03
25.421,40.98
25.437,39.45
25.453,36.74
25.468,33.36
25.484,29.75
25.500,26.04
25.515,22.15
25.531,17.79
25.546,12.64
25.562,6.58
25.578,-0.48
25.593,-8.41
25.609,-16.81
25.625,-24.9
25.640,-31.47
25.656,-35.05
25.671,-34.52
25.687,-29.62
25.703,-21.22
25.718,-11.19
25.734,-1.67
25.750,5.77
25.765,10.54
25.781,13.12
25.796,14.46
25.812,15.29
25.828,15.73
25.843,15.47
25.859,14.08
25.875,11.56
25.890,8.42
25.906,5.42
25.921,3.18
25.937,2.0
25.953,1.69
25.968,1.78
25.984,1.86
26.000,1.56
26.015,0.8
26.031,-0.29
26.046,-1.59
26.062,-2.94
26.078,-4.31
26.093,-5.84
26.109,-7.79
26.125,-10.3
26.140,-13.49
26.156,-17.22
26.171,-21.26
26.187,-25.47
26.203,-29.7
26.218,-33.78
26.234,-37.38
26.250,-39.87
26.265,-40.39
26.281,-38.25
26.296,-33.18
26.312,-25.5
26.328,-16.27
26.343,-6.7
26.359,2.03
26.375,9.16
26.390,14.44
26.406,17.93
26.421,19.84
26.437,20.39
26.453,19.82
26.468,18.43
26.484,16.69
26.500,15.05
26.515,13.93
26.531,13.52
26.546,13.72
26.562,14.21
26.578,14.6
26.593,14.55
26.609,13.86
26.625,12.51
26.640,10.66
26.656,8.45
26.671,6.13
26.687,3.8
26.703,1.54
26.718,-0.69
26.734,-2.99
26.750,-5.58
26.765,-8.66
26.781,-12.39
26.796,-16.83
26.812,-21.64
26.828,-26.22
26.843,-29.68
26.859,-31.11
26.875,-29.87
26.890,-25.85
26.906,-19.48
26.921,-11.64
26.937,-3.35
26.953,4.53
26.968,11.37
26.984,16.86
27.000,20.9
27.015,23.47
27.031,24.62
27.046,24.55
27.062,23.55
27.078,22.09
27.093,20.73
27.109,19.92
27.125,20.0
27.140,20.94
27.156,22.45
27.171,24.02
27.187,25.16
27.203,25.52
27.218,25.03
27.234,23.89
27.250,22.39
27.265,20.8
27.281,19.2
27.296,17.49
27.312,15.52
27.328,13.15
27.343,10.32
27.359,7.06
27.375,3.45
27.390,-0.36
27.406,-3.98
27.421,-6.87
27.437,-8.34
27.453,-7.67
27.468,-4.5
27.484,1.07
27.500,8.41
27.515,16.51
27.531,24.36
27.546,31.12
27.562,36.43
27.578,40.17
27.593,42.51
27.609,43.63
27.625,43.8
27.640,43.29
27.656,42.46
27.671,41.69
27.687,41.22
27.703,41.22
27.718,41.5
27.734,41.76
27.750,41.6
27.765,40.88
27.781,39.58
27.796,37.89
27.812,36.09
27.828,34.36
27.843,32.81
27.859,31.4
27.875,30.1
27.890,28.84
27.906,27.63
27.921,26.55
27.937,25.56
27.953,24.65
27.968,23.71
27.984,22.63
28.000,21.33
28.015,19.81
28.031,18.17
28.046,16.47
28.062,14.78
28.078,13.08
28.093,11.39
28.109,9.68
28.125,8.07
28.140,6.7
28.156,5.79
28.171,5.47
28.187,5.67
28.203,6.15
28.218,6.55
28.234,6.52
28.250,5.83
28.265,4.42
28.281,2.38
28.296,-0.03
28.312,-2.6
28.328,-5.15
28.343,-7.58
28.359,-9.9
28.375,-12.13
28.390,-14.39
28.406,-16.71
28.421,-19.17
28.437,-21.73
28.453,-24.35
28.468,-26.93
28.484,-29.43
28.500,-31.88
28.515,-34.42
28.531,-37.38
28.546,-41.07
28.562,-45.79
28.578,-51.56
28.593,-58.02
28.609,-64.31
28.625,-69.2
28.640,-71.5
28.656,-70.34
28.671,-65.58
28.687,-57.77
28.703,-48.02
28.718,-37.63
28.734,-27.71
28.750,-19.0
28.765,-11.78
28.781,-6.18
28.796,-2.22
28.812,0.09
28.828,0.82
28.843,0.24
28.859,-1.22
28.875,-2.94
28.890,-4.4
28.906,-5.31
28.921,-5.66
28.937,-5.72
28.953,-5.88
28.968,-6.45
28.984,-7.51
29.000,-9.01
29.015,-10.68
29.031,-12.32
29.046,-13.89
29.062,-15.42
29.078,-17.07
29.093,-18.98
29.109,-21.17
29.125,-23.63
29.140,-26.34
29.156,-29.25
29.171,-32.32
29.187,-35.42
29.203,-38.17
29.218,-39.99
29.234,-40.3
29.250,-38.68
29.265,-35.13
29.281,-30.1
29.296,-24.3
29.312,-18.52
29.328,-13.34
29.343,-9.04
29.359,-5.72
29.375,-3.39
29.390,-2.01
29.406,-1.62
29.421,-2.1
29.437,-3.17
29.453,-4.46
29.468,-5.58
29.484,-6.19
29.500,-6.24
29.515,-5.89
29.531,-5.49
29.546,-5.46
29.562,-6.09
29.578,-7.42
29.593,-9.32
29.609,-11.47
29.625,-13.53
29.640,-15.27
29.656,-16.74
29.671,-18.15
29.687,-19.94
29.703,-22.41
29.718,-25.7
29.734,-29.65
29.750,-33.75
29.765,-37.29
29.781,-39.48
29.796,-39.66
29.812,-37.5
29.828,-33.13
29.843,-26.99
29.859,-19.74
29.875,-12.1
29.890,-4.68
29.906,2.02
29.921,7.72
29.937,12.25
29.953,15.52
29.968,17.5
29.984,18.34
30.000,18.26
30.015,17.68
30.031,16.99
30.046,16.46
30.062,16.22
30.078,16.16
30.093,16.09
30.109,15.74
30.125,15.01
30.140,13.9
30.156,12.6
30.171,11.3
30.187,10.1
30.203,9.0
30.218,7.88
30.234,6.52
30.250,4.72
30.265,2.38
30.281,-0.45
30.296,-3.49
30.312,-6.24
30.328,-8.08
30.343,-8.44
30.359,-6.96
30.375,-3.61
30.390,1.25
30.406,7.1
30.421,13.29
30.437,19.36
30.453,24.88
30.468,29.57
30.484,33.2
30.500,35.52
30.515,36.42
30.531,35.94
30.546,34.36
30.562,32.05
30.578,29.53
30.593,27.23
30.609,25.39
30.625,23.98
30.640,22.79
30.656,21.49
30.671,19.85
30.687,17.78
30.703,15.31
30.718,12.7
30.734,10.17
30.750,7.87
30.765,5.81
30.781,3.83
30.796,1.66
30.812,-1.01
30.828,-4.4
30.843,-8.53
30.859,-13.03
30.875,-17.19
30.890,-20.07
30.906,-20.79
30.921,-18.84
30.937,-14.25
30.953,-7.56
30.968,0.35
30.984,8.54
31.000,16.34
31.015,23.34
31.031,29.37
31.046,34.34
31.062,38.07
31.078,40.4
31.093,41.19
31.109,40.55
31.125,38.74
31.140,36.24
31.156,33.48
31.171,30.8
31.187,28.38
31.203,26.13
31.218,23.82
31.234,21.23
31.250,18.2
31.265,14.78
31.281,11.2
31.296,7.74
31.312,4.63
31.328,1.95
31.343,-0.47
31.359,-3.01
31.375,-6.02
31.390,-9.79
31.406,-14.37
31.421,-19.58
31.437,-25.09
31.453,-30.38
31.468,-34.67
31.484,-37.15
31.500,-37.09
31.515,-34.07
31.531,-28.21
31.546,-20.09
31.562,-10.69
31.578,-1.07
31.593,7.79
31.609,15.27
31.625,21.03
31.640,24.96
31.656,27.18
31.671,27.94
31.687,27.6
31.703,26.66
31.718,25.6
31.734,24.84
31.750,24.7
31.765,25.29
31.781,26.49
31.796,28.05
31.812,29.59
31.828,30.79
31.843,31.46
31.859,31.54
31.875,31.11
31.890,30.32
31.906,29.31
31.921,28.12
31.937,26.8
31.953,25.34
31.968,23.74
31.984,22.06
32.000,20.32
32.015,18.62
32.031,16.93
32.046,15.27
32.062,13.54
32.078,11.73
32.093,9.86
32.109,7.97
32.125,6.16
32.140,4.53
32.156,3.18
32.171,2.13
32.187,1.28
32.203,0.49
32.218,-0.38
32.234,-1.5
32.250,-2.96
32.265,-4.84
32.281,-7.18
32.296,-9.95
32.312,-13.03
32.328,-16.13
32.343,-18.93
32.359,-21.03
32.375,-22.22
32.390,-22.53
32.406,-22.27
32.421,-21.96
32.437,-22.12
32.453,-23.17
32.468,-25.22
32.484,-28.26
32.500,-32.04
32.515,-36.32
32.531,-40.82
32.546,-45.22
32.562,-49.29
32.578,-52.87
32.593,-55.92
32.609,-58.53
32.625,-60.9
32.640,-63.3
32.656,-65.91
32.671,-68.67
32.687,-71.1
32.703,-72.43
32.718,-71.64
32.734,-67.92
32.750,-60.97
32.765,-51.18
32.781,-39.54
32.796,-27.42
32.812,-16.11
32.828,-6.43
32.843,1.17
32.859,6.73
32.875,10.38
32.890,12.29
32.906,12.63
32.921,11.74
32.937,10.06
32.953,8.2
32.968,6.79
32.984,6.17
33.000,6.45
33.015,7.41
33.031,8.57
33.046,9.42
33.062,9.61
33.078,8.91
33.093,7.39
33.109,5.2
33.125,2.54
33.140,-0.34
33.156,-3.22
33.171,-6.02
33.187,-8.67
33.203,-11.15
33.218,-13.62
33.234,-16.17
33.250,-18.84
33.265,-21.53
33.281,-23.77
33.296,-24.96
33.312,-24.42
33.328,-21.63
33.343,-16.52
33.359,-9.53
33.375,-1.43
33.390,6.94
33.406,14.82
33.421,21.8
33.437,27.62
33.453,32.23
33.468,35.57
33.484,37.63
33.500,38.5
33.515,38.39
33.531,37.63
33.546,36.54
33.562,35.42
33.578,34.34
33.593,33.29
33.609,32.11
33.625,30.64
33.640,28.77
33.656,26.49
33.671,23.88
33.687,21.01
33.703,18.04
33.718,15.02
33.734,11.95
33.750,8.8
33.765,5.52
33.781,2.03
33.796,-1.73
33.812,-5.83
33.828,-10.29
33.843,-14.8
33.859,-18.77
33.875,-21.33
33.890,-21.65
33.906,-19.31
33.921,-14.38
33.937,-7.52
33.953,0.29
33.968,8.06
33.984,15.01
34.000,20.76
34.015,25.21
34.031,28.32
34.046,30.0
34.062,30.19
34.078,28.87
34.093,26.28
34.109,22.84
34.125,19.1
34.140,15.61
34.156,12.77
34.171,10.68
34.187,9.25
34.203,8.21
34.218,7.3
34.234,6.32
34.250,5.2
34.265,3.98
34.281,2.74
34.296,1.54
34.312,0.32
34.328,-1.05
34.343,-2.82
34.359,-5.19
34.375,-8.29
34.390,-12.09
34.406,-16.52
34.421,-21.36
34.437,-26.3
34.453,-30.82
34.468,-34.2
34.484,-35.62
34.500,-34.46
34.515,-30.5
34.531,-24.11
34.546,-16.25
34.562,-8.04
34.578,-0.52
34.593,5.77
34.609,10.76
34.625,14.67
34.640,17.68
34.656,19.85
34.671,21.04
34.687,21.18
34.703,20.42
34.718,19.11
34.734,17.77
34.750,16.8
34.765,16.28
34.781,16.05
34.796,15.81
34.812,15.33
34.828,14.53
34.843,13.43
34.859,12.04
34.875,10.29
34.890,8.04
34.906,5.13
34.921,1.51
34.937,-2.66
34.953,-7.11
34.968,-11.48
34.984,-15.49
35.000,-18.99
35.015,-22.08
35.031,-25.0
35.046,-28.11
35.062,-31.62
35.078,-35.44
35.093,-39.17
35.109,-42.01
35.125,-43.14
35.140,-41.86
35.156,-37.9
35.171,-31.51
35.187,-23.43
35.203,-14.55
35.218,-5.84
35.234,1.96
35.250,8.44
35.265,13.35
35.281,16.76
35.296,18.75
35.312,19.48
35.328,19.26
35.343,18.47
35.359,17.49
35.375,16.64
35.390,16.12
35.406,15.93
35.421,15.92
35.437,15.82
35.453,15.38
35.468,14.47
35.484,13.07
35.500,11.27
35.515,9.18
35.531,6.84
35.546,4.22
35.562,1.31
35.578,-1.89
35.593,-5.29
35.609,-8.62
35.625,-11.62
35.640,-14.1
35.656,-16.05
35.671,-17.7
35.687,-19.51
35.703,-21.88
35.718,-25.1
35.734,-29.07
35.750,-33.25
35.765,-36.86
35.781,-39.01
35.796,-38.95
35.812,-36.35
35.828,-31.39
35.843,-24.63
35.859,-16.88
35.875,-9.03
35.890,-1.81
35.906,4.22
35.921,8.72
35.937,11.54
35.953,12.74
35.968,12.58
35.984,11.51
36.000,10.21
36.015,9.24
36.031,9.07
36.046,9.8
36.062,11.24
36.078,13.01
36.093,14.71
36.109,16.07
36.125,17.0
36.140,17.54
36.156,17.75
36.171,17.65
36.187,17.13
36.203,16.11
36.218,14.53
36.234,12.41
36.250,9.86
36.265,7.1
36.281,4.31
36.296,1.63
36.312,-0.82
36.328,-3.09
36.343,-5.35
36.359,-7.87
36.375,-10.89
36.390,-14.47
36.406,-18.37
36.421,-21.95
36.437,-24.47
36.453,-25.04
36.468,-23.13
36.484,-18.58
36.500,-11.7
36.515,-3.11
36.531,6.43
36.546,16.15
36.562,25.4
36.578,33.65
36.593,40.56
36.609,45.91
36.625,49.63
36.640,51.84
36.656,52.82
36.671,53.04
36.687,53.08
36.703,53.54
36.718,54.91
36.734,57.42
36.750,60.77
36.765,64.15
36.781,66.25
36.796,65.7
36.812,61.37
36.828,52.86
36.843,40.5
36.859,25.38
36.875,8.89
36.890,-7.55
36.906,-22.78
36.921,-35.95
36.937,-46.53
36.953,-54.23
36.968,-59.04
36.984,-61.28
37.000,-61.52
37.015,-60.63
37.031,-59.56
37.046,-59.05
37.062,-59.39
37.078,-60.37
37.093,-61.19
37.109,-60.83
37.125,-58.33
37.140,-53.17
37.156,-45.49
37.171,-36.08
37.187,-26.01
37.203,-16.4
37.218,-8.05
37.234,-1.32
37.250,3.72
37.265,7.32
37.281,9.74
37.296,11.3
37.312,12.23
37.328,12.84
37.343,13.31
37.359,13.77
37.375,14.25
37.390,14.6
37.406,14.67
37.421,14.28
37.437,13.37
37.453,11.99
37.468,10.35
37.484,8.55
37.500,6.72
37.515,4.94
37.531,3.24
37.546,1.66
37.562,0.26
37.578,-0.93
37.593,-1.96
37.609,-2.86
37.625,-3.82
37.640,-5.05
37.656,-6.71
37.671,-8.95
37.687,-11.88
37.703,-15.48
37.718,-19.6
37.734,-23.77
37.750,-27.33
37.765,-29.46
37.781,-29.41
37.796,-26.85
37.812,-21.92
37.828,-15.29
37.843,-7.89
37.859,-0.63
37.875,5.86
37.890,11.3
37.906,15.71
37.921,19.17
37.937,21.71
37.953,23.27
37.968,23.83
37.984,23.5
38.000,22.6
38.015,21.49
38.031,20.59
38.046,20.08
38.062,19.98
38.078,20.15
38.093,20.36
38.109,20.34
38.125,19.96
38.140,19.12
38.156,17.79
38.171,16.01
38.187,13.81
38.203,11.3
38.218,8.6
38.234,5.95
38.250,3.5
38.265,1.4
38.281,-0.32
38.296,-1.71
38.312,-2.93
38.328,-4.26
38.343,-5.93
38.359,-8.19
38.375,-11.14
38.390,-14.77
38.406,-18.76
38.421,-22.54
38.437,-25.29
38.453,-26.18
38.468,-24.64
38.484,-20.63
38.500,-14.65
38.515,-7.53
38.531,-0.23
38.546,6.54
38.562,12.35
38.578,17.07
38.593,20.73
38.609,23.39
38.625,25.08
38.640,25.9
38.656,26.03
38.671,25.74
38.687,25.36
38.703,25.15
38.718,25.18
38.734,25.4
38.750,25.59
38.765,25.47
38.781,24.79
38.796,23.48
38.812,21.63
38.828,19.4
38.843,16.94
38.859,14.26
38.875,11.26
38.890,7.82
38.906,3.96
38.921,-0.14
38.937,-4.23
38.953,-8.02
38.968,-11.47
38.984,-14.69
39.000,-17.97
39.015,-21.61
39.031,-25.89
39.046,-30.83
39.062,-36.26
39.078,-41.79
39.093,-46.83
39.109,-50.6
39.125,-52.32
39.140,-51.47
39.156,-47.81
39.171,-41.62
39.187,-33.52
39.203,-24.42
39.218,-15.31
39.234,-7.14
39.250,-0.58
39.265,4.01
39.281,6.62
39.296,7.58
39.312,7.35
39.328,6.46
39.343,5.3
39.359,4.12
39.375,3.0
39.390,2.02
39.406,1.12
39.421,0.26
39.437,-0.64
39.453,-1.68
39.468,-2.93
39.484,-4.36
39.500,-5.91
39.515,-7.6
39.531,-9.43
39.546,-11.51
39.562,-13.85
39.578,-16.33
39.593,-18.74
39.609,-20.76
39.625,-22.18
39.640,-23.0
39.656,-23.48
39.671,-24.03
39.687,-25.16
39.703,-27.23
39.718,-30.35
39.734,-34.39
39.750,-38.87
39.765,-43.11
39.781,-46.36
39.796,-47.89
39.812,-47.25
39.828,-44.35
39.843,-39.53
39.859,-33.39
39.875,-26.75
39.890,-20.34
39.906,-14.73
39.921,-10.31
39.937,-7.21
39.953,-5.32
39.968,-4.39
39.984,-4.04
40.000,-3.85
40.015,-3.54
40.031,-2.94
40.046,-2.12
40.062,-1.19
40.078,-0.24
40.093,0.77
40.109,1.88
40.125,3.07
40.140,4.18
40.156,4.95
40.171,5.11
40.187,4.43
40.203,2.91
40.218,0.65
40.234,-2.15
40.250,-5.29
40.265,-8.58
40.281,-11.87
40.296,-14.99
40.312,-17.92
40.328,-20.73
40.343,-23.62
40.359,-26.85
40.375,-30.51
40.390,-34.35
40.406,-37.62
40.421,-39.35
40.437,-38.59
40.453,-34.84
40.468,-28.21
40.484,-19.37
40.500,-9.41
40.515,0.57
40.531,9.7
40.546,17.43
40.562,23.49
40.578,27.77
40.593,30.32
40.609,31.29
40.625,31.05
40.640,29.97
40.656,28.48
40.671,26.94
40.687,25.53
40.703,24.35
40.718,23.4
40.734,22.67
40.750,22.13
40.765,21.75
40.781,21.38
40.796,20.87
40.812,20.02
40.828,18.7
40.843,16.84
40.859,14.49
40.875,11.78
40.890,8.81
40.906,5.74
40.921,2.6
40.937,-0.59
40.953,-3.88
40.968,-7.41
40.984,-11.21
41.000,-15.26
41.015,-19.26
41.031,-22.69
41.046,-24.76
41.062,-24.72
41.078,-22.03
41.093,-16.66
41.109,-9.2
41.125,-0.64
41.140,7.85
41.156,15.34
41.171,21.26
41.187,25.51
41.203,28.23
41.218,29.72
41.234,30.23
41.250,29.98
41.265,29.19
41.281,28.06
41.296,26.92
41.312,25.96
41.328,25.4
41.343,25.29
41.359,25.64
41.375,26.37
41.390,27.21
41.406,27.84
41.421,27.89
41.437,27.14
41.453,25.58
41.468,23.42
41.484,20.95
41.500,18.43
41.515,16.01
41.531,13.68
41.546,11.44
41.562,9.18
41.578,6.86
41.593,4.24
41.609,1.08
41.625,-2.83
41.640,-7.43
41.656,-12.19
41.671,-16.18
41.687,-18.31
41.703,-17.8
41.718,-14.38
41.734,-8.55
41.750,-1.3
41.765,6.28
41.781,13.27
41.796,19.17
41.812,23.85
41.828,27.4
41.843,29.89
41.859,31.37
41.875,31.83
41.890,31.32
41.906,30.08
41.921,28.38
41.937,26.61
41.953,25.1
41.968,24.01
41.984,23.3
42.000,22.79
42.015,22.24
42.031,21.41
42.046,20.19
42.062,18.5
42.078,16.46
42.093,14.21
42.109,11.86
42.125,9.48
42.140,7.11
42.156,4.74
42.171,2.28
42.187,-0.36
42.203,-3.36
42.218,-6.88
42.234,-10.98
42.250,-15.6
42.265,-20.35
42.281,-24.49
42.296,-27.12
42.312,-27.38
42.328,-24.76
42.343,-19.36
42.359,-11.91
42.375,-3.52
42.390,4.66
42.406,11.81
42.421,17.48
42.437,21.64
42.453,24.4
42.468,25.93
42.484,26.32
42.500,25.63
42.515,23.98
42.531,21.62
42.546,18.93
42.562,16.27
42.578,13.96
42.593,12.16
42.609,10.85
42.625,9.82
42.640,8.76
42.656,7.38
42.671,5.5
42.687,3.11
42.703,0.38
42.718,-2.53
42.734,-5.51
42.750,-8.54
42.765,-11.71
42.781,-15.11
42.796,-18.84
42.812,-22.99
42.828,-27.62
42.843,-32.78
42.859,-38.35
42.875,-44.0
42.890,-49.11
42.906,-52.76
42.921,-54.08
42.937,-52.48
42.953,-47.91
42.968,-40.97
42.984,-32.65
43.000,-24.12
43.015,-16.34
43.031,-9.92
43.046,-5.06
43.062,-1.7
43.078,0.36
43.093,1.35
43.109,1.51
43.125,1.08
43.140,0.37
43.156,-0.29
43.171,-0.63
43.187,-0.47
43.203,0.16
43.218,1.11
43.234,2.03
43.250,2.57
43.265,2.43
43.281,1.54
43.296,0.11
43.312,-1.59
43.328,-3.25
43.343,-4.69
43.359,-5.94
43.375,-7.14
43.390,-8.49
43.406,-10.18
43.421,-12.27
43.437,-14.76
43.453,-17.59
43.468,-20.53
43.484,-23.25
43.500,-25.16
43.515,-25.62
43.531,-24.05
43.546,-20.17
43.562,-14.08
43.578,-6.28
43.593,2.47
43.609,11.37
43.625,19.71
43.640,27.0
43.656,32.93
43.671,37.36
43.687,40.33
43.703,41.96
43.718,42.61
43.734,42.66
43.750,42.55
43.765,42.58
43.781,42.88
43.796,43.32
43.812,43.68
43.828,43.75
43.843,43.39
43.859,42.63
43.875,41.6
43.890,40.54
43.906,39.62
43.921,38.95
43.937,38.57
43.953,38.42
43.968,38.51
43.984,38.73
44.000,39.04
44.015,39.4
44.031,39.74
44.046,39.95
44.062,39.96
44.078,39.73
44.093,39.24
44.109,38.54
44.125,37.69
44.140,36.74
44.156,35.71
44.171,34.58
44.187,33.32
44.203,31.92
44.218,30.38
44.234,28.71
44.250,26.91
44.265,24.91
44.281,22.6
44.296,19.87
44.312,16.57
44.328,12.74
44.343,8.53
44.359,4.22
44.375,0.11
44.390,-3.59
44.406,-6.84
44.421,-9.81
44.437,-12.6
44.453,-15.36
44.468,-18.05
44.484,-20.54
44.500,-22.74
44.515,-24.65
44.531,-26.35
44.546,-28.05
44.562,-29.96
44.578,-32.27
44.593,-35.16
44.609,-38.78
44.625,-43.13
44.640,-47.96
44.656,-52.75
44.671,-56.58
44.687,-58.47
44.703,-57.61
44.718,-53.67
44.734,-47.02
44.750,-38.56
44.765,-29.4
44.781,-20.61
44.796,-12.97
44.812,-6.95
44.828,-2.79
44.843,-0.63
44.859,-0.45
44.875,-2.09
44.890,-5.12
44.906,-8.77
44.921,-12.29
44.937,-14.89
44.953,-16.14
44.968,-15.99
44.984,-14.75
45.000,-12.97
45.015,-11.23
45.031,-9.96
45.046,-9.32
45.062,-9.33
45.078,-9.85
45.093,-10.72
45.109,-11.9
45.125,-13.35
45.140,-15.06
45.156,-17.04
45.171,-19.26
45.187,-21.7
45.203,-24.35
45.218,-27.14
45.234,-29.8
45.250,-31.85
45.265,-32.59
45.281,-31.33
45.296,-27.71
45.312,-21.86
45.328,-14.45
45.343,-6.44
45.359,1.25
45.375,7.95
45.390,13.27
45.406,17.23
45.421,19.86
45.437,21.22
45.453,21.41
45.468,20.61
45.484,19.1
45.500,17.24
45.515,15.39
45.531,13.73
45.546,12.33
45.562,11.05
45.578,9.69
45.593,8.07
45.609,6.07
45.625,3.67
45.640,1.0
45.656,-1.76
45.671,-4.53
45.687,-7.27
45.703,-10.12
45.718,-13.32
45.734,-17.12
45.750,-21.68
45.765,-26.91
45.781,-32.38
45.796,-37.37
45.812,-41.07
45.828,-42.69
45.843,-41.83
45.859,-38.49
45.875,-33.12
45.890,-26.46
45.906,-19.26
45.921,-12.2
45.937,-5.74
45.953,-0.3
45.968,3.76
45.984,6.09
46.000,6.51
46.015,5.17
46.031,2.57
46.046,-0.54
46.062,-3.35
46.078,-5.29
46.093,-6.14
46.109,-6.08
46.125,-5.59
46.140,-5.16
46.156,-5.16
46.171,-5.72
46.187,-6.71
46.203,-7.89
46.218,-9.08
46.234,-10.29
46.250,-11.75
46.265,-13.87
46.281,-16.95
46.296,-21.04
46.312,-25.92
46.328,-31.01
46.343,-35.63
46.359,-39.05
46.375,-40.7
46.390,-40.26
46.406,-37.62
46.421,-32.99
46.437,-26.76
46.453,-19.54
46.468,-12.02
46.484,-4.97
46.500,0.98
46.515,5.4
46.531,8.17
46.546,9.44
46.562,9.6
46.578,9.15
46.593,8.55
46.609,8.21
46.625,8.35
46.640,8.97
46.656,9.96
46.671,11.08
46.687,12.04
46.703,12.54
46.718,12.34
46.734,11.37
46.750,9.7
46.765,7.6
46.781,5.31
46.796,2.98
46.812,0.51
46.828,-2.42
46.843,-6.2
46.859,-11.15
46.875,-17.18
46.890,-23.72
46.906,-29.8
46.921,-34.25
46.937,-36.07
46.953,-34.66
46.968,-30.1
46.984,-23.0
47.000,-14.35
47.015,-5.24
47.031,3.42
47.046,11.01
47.062,17.2
47.078,21.9
47.093,25.08
47.109,26.84
47.125,27.4
47.140,27.18
47.156,26.65
47.171,26.3
47.187,26.38
47.203,26.84
47.218,27.33
47.234,27.4
47.250,26.67
47.265,25.05
47.281,22.69
47.296,19.93
47.312,17.09
47.328,14.31
47.343,11.55
47.359,8.63
47.375,5.32
47.390,1.46
47.406,-3.01
47.421,-7.95
47.437,-13.0
47.453,-17.51
47.468,-20.71
47.484,-21.79
47.500,-20.19
47.515,-15.81
47.531,-9.04
47.546,-0.67
47.562,8.26
47.578,16.81
47.593,24.28
47.609,30.23
47.625,34.48
47.640,36.99
47.656,37.8
47.671,37.08
47.687,35.15
47.703,32.46
47.718,29.57
47.734,26.89
47.750,24.76
47.765,23.19
47.781,22.01
47.796,20.9
47.812,19.54
47.828,17.76
47.843,15.62
47.859,13.29
47.875,10.96
47.890,8.78
47.906,6.72
47.921,4.68
47.937,2.55
47.953,0.11
47.968,-2.84
47.984,-6.46
48.000,-10.8
48.015,-15.6
48.031,-20.16
48.046,-23.5
48.062,-24.61
48.078,-22.83
48.093,-18.17
48.109,-11.33
48.125,-3.41
48.140,4.49
48.156,11.64
48.171,17.75
48.187,22.8
48.203,26.84
48.218,29.93
48.234,32.01
48.250,33.13
48.265,33.41
48.281,33.08
48.296,32.4
48.312,31.59
48.328,30.73
48.343,29.77
48.359,28.71
48.375,27.45
48.390,25.96
48.406,24.18
48.421,21.97
48.437,19.23
48.453,15.98
48.468,12.31
48.484,8.45
48.500,4.66
48.515,1.1
48.531,-2.14
48.546,-5.16
48.562,-8.11
48.578,-11.18
48.593,-14.45
48.609,-18.03
48.625,-21.82
48.640,-25.47
48.656,-28.46
48.671,-29.99
48.687,-29.38
48.703,-26.25
48.718,-20.72
48.734,-13.49
48.750,-5.52
48.765,2.14
48.781,8.73
48.796,13.76
48.812,17.12
48.828,18.95
48.843,19.55
48.859,19.35
48.875,18.83
48.890,18.43
48.906,18.39
48.921,18.74
48.937,19.26
48.953,19.74
48.968,20.04
48.984,20.13
49.000,20.0
49.015,19.55
49.031,18.59
49.046,16.85
49.062,14.17
49.078,10.56
49.093,6.39
49.109,2.19
49.125,-1.52
49.140,-4.45
49.156,-6.61
49.171,-8.28
49.187,-9.87
49.203,-11.74
49.218,-14.21
49.234,-17.44
49.250,-21.41
49.265,-25.9
49.281,-30.37
49.296,-34.07
49.312,-36.07
49.328,-35.57
49.343,-32.15
49.359,-26.02
49.375,-17.99
49.390,-9.23
49.406,-0.95
49.421,5.94
49.437,10.94
49.453,13.97
49.468,15.24
49.484,15.16
49.500,14.11
49.515,12.41
49.531,10.36
49.546,8.21
49.562,6.24
49.578,4.58
49.593,3.34
49.609,2.53
49.625,2.05
49.640,1.68
49.656,1.23
49.671,0.47
49.687,-0.7
49.703,-2.28
49.718,-4.24
49.734,-6.55
49.750,-9.16
49.765,-12.07
49.781,-15.24
49.796,-18.51
49.812,-21.72
49.828,-24.68
49.843,-27.25
49.859,-29.43
49.875,-31.38
49.890,-33.23
49.906,-34.98
49.921,-36.35
49.937,-36.79
49.953,-35.64
49.968,-32.47
49.984,-27.12
50.000,-19.91
50.015,-11.57
50.031,-3.03
50.046,4.86
50.062,11.46
50.078,16.39
50.093,19.58
50.109,21.07
50.125,21.13
50.140,20.1
50.156,18.36
50.171,16.33
50.187,14.35
50.203,12.67
50.218,11.43
50.234,10.67
50.250,10.31
50.265,10.34
50.281,10.59
50.296,10.89
50.312,11.09
50.328,11.07
50.343,10.77
50.359,10.2
50.375,9.47
50.390,8.58
50.406,7.56
50.421,6.35
50.437,4.88
50.453,3.13
50.468,1.11
50.484,-1.29
50.500,-4.18
50.515,-7.57
50.531,-11.33
50.546,-14.87
50.562,-17.39
50.578,-18.0
50.593,-16.13
50.609,-11.71
50.625,-5.36
50.640,1.96
50.656,9.15
50.671,15.33
50.687,20.06
50.703,23.2
50.718,24.88
50.734,25.34
50.750,24.82
50.765,23.61
50.781,22.01
50.796,20.31
50.812,18.77
50.828,17.6
50.843,16.9
50.859,16.66
50.875,16.77
50.890,17.02
50.906,17.07
50.921,16.64
50.937,15.51
50.953,13.6
50.968,11.11
50.984,8.35
51.000,5.63
51.015,3.22
51.031,1.18
51.046,-0.54
51.062,-2.1
51.078,-3.76
51.093,-5.74
51.109,-8.16
51.125,-10.97
51.140,-13.82
51.156,-16.07
51.171,-16.95
51.187,-15.8
51.203,-12.33
51.218,-6.71
51.234,0.4
51.250,8.18
51.265,15.85
51.281,22.84
51.296,28.73
51.312,33.33
51.328,36.49
51.343,38.13
51.359,38.35
51.375,37.42
51.390,35.8
51.406,33.97
51.421,32.31
51.437,31.04
51.453,30.21
51.468,29.79
51.484,29.67
51.500,29.75
51.515,29.91
51.531,30.0
51.546,29.87
51.562,29.42
51.578,28.61
51.593,27.54
51.609,26.36
51.625,25.12
51.640,23.79
51.656,22.21
51.671,20.13
51.687,17.32
51.703,13.64
51.718,9.12
51.734,3.98
51.750,-1.42
51.765,-6.6
51.781,-10.97
51.796,-14.02
51.812,-15.47
51.828,-15.34
51.843,-14.05
51.859,-12.25
51.875,-10.63
51.890,-9.66
51.906,-9.53
51.921,-10.12
51.937,-11.25
51.953,-12.85
51.968,-14.87
51.984,-17.46
52.000,-20.62
52.015,-24.17
52.031,-27.81
52.046,-31.18
52.062,-34.02
52.078,-36.29
52.093,-38.08
52.109,-39.62
52.125,-41.04
52.140,-42.44
52.156,-43.69
52.171,-44.68
52.187,-45.31
52.203,-45.51
52.218,-45.36
52.234,-44.93
52.250,-44.35
52.265,-43.75
52.281,-43.27
52.296,-43.03
52.312,-43.19
52.328,-43.78
52.343,-44.85
52.359,-46.27
52.375,-47.84
52.390,-49.12
52.406,-49.53
52.421,-48.41
52.437,-45.24
52.453,-39.86
52.468,-32.54
52.484,-23.97
52.500,-15.07
52.515,-6.64
52.531,0.76
52.546,6.89
52.562,11.72
52.578,15.25
52.593,17.47
52.609,18.31
52.625,17.8
52.640,16.18
52.656,13.91
52.671,11.55
52.687,9.58
52.703,8.31
52.718,7.66
52.734,7.42
52.750,7.09
52.765,6.28
52.781,4.68
52.796,2.11
52.812,-1.44
52.828,-5.81
52.843,-10.69
52.859,-15.72
52.875,-20.44
52.890,-24.52
52.906,-27.71
52.921,-29.99
52.937,-31.56
52.953,-32.85
52.968,-34.35
52.984,-36.44
53.000,-39.22
53.015,-42.32
53.031,-45.06
53.046,-46.51
53.062,-45.85
53.078,-42.65
53.093,-36.97
53.109,-29.46
53.125,-21.07
53.140,-12.87
53.156,-5.67
53.171,0.06
53.187,4.27
53.203,7.14
53.218,8.92
53.234,9.9
53.250,10.19
53.265,9.92
53.281,9.18
53.296,8.11
53.312,6.96
53.328,5.98
53.343,5.46
53.359,5.54
53.375,6.25
53.390,7.37
53.406,8.52
53.421,9.2
53.437,9.04
53.453,7.88
53.468,5.77
53.484,3.02
53.500,-0.04
53.515,-3.09
53.531,-5.94
53.546,-8.57
53.562,-11.13
53.578,-13.8
53.593,-16.77
53.609,-20.06
53.625,-23.38
53.640,-26.1
53.656,-27.44
53.671,-26.66
53.687,-23.34
53.703,-17.65
53.718,-10.28
53.734,-2.18
53.750,5.64
53.765,12.51
53.781,18.08
53.796,22.28
53.812,25.26
53.828,27.12
53.843,28.03
53.859,28.08
53.875,27.56
53.890,26.76
53.906,26.0
53.921,25.54
53.937,25.39
53.953,25.45
53.968,25.39
53.984,24.9
54.000,23.75
54.015,21.84
54.031,19.2
54.046,15.97
54.062,12.38
54.078,8.62
54.093,4.97
54.109,1.58
54.125,-1.45
54.140,-4.16
54.156,-6.7
54.171,-9.3
54.187,-12.25
54.203,-15.71
54.218,-19.63
54.234,-23.54
54.250,-26.74
54.265,-28.25
54.281,-27.18
54.296,-23.09
54.312,-16.07
54.328,-6.84
54.343,3.51
54.359,13.71
54.375,22.77
54.390,30.09
54.406,35.48
54.421,39.14
54.437,41.26
54.453,42.05
54.468,41.69
54.484,40.42
54.500,38.59
54.515,36.63
54.531,35.11
54.546,34.39
54.562,34.65
54.578,35.67
54.593,37.06
54.609,38.3
54.625,39.0
54.640,38.94
54.656,38.06
54.671,36.52
54.687,34.47
54.703,32.08
54.718,29.41
54.734,26.45
54.750,23.03
54.765,18.88
54.781,13.71
54.796,7.2
54.812,-0.65
54.828,-9.62
54.843,-18.99
54.859,-27.72
54.875,-34.58
54.890,-38.55
54.906,-39.15
54.921,-36.57
54.937,-31.67
54.953,-25.66
54.968,-19.76
54.984,-14.74
55.000,-10.94
55.015,-8.34
55.031,-6.73
55.046,-5.98
55.062,-6.01
55.078,-6.65
55.093,-7.68
55.109,-8.74
55.125,-9.43
55.140,-9.5
55.156,-8.98
55.171,-8.08
55.187,-7.15
55.203,-6.53
55.218,-6.41
55.234,-6.85
55.250,-7.87
55.265,-9.44
55.281,-11.49
55.296,-13.96
55.312,-16.65
55.328,-19.32
55.343,-21.72
55.359,-23.71
55.375,-25.35
55.390,-26.96
55.406,-28.97
55.421,-31.75
55.437,-35.35
55.453,-39.36
55.468,-42.93
55.484,-44.93
55.500,-44.36
55.515,-40.72
55.531,-34.17
55.546,-25.53
55.562,-16.05
55.578,-6.94
55.593,0.9
55.609,6.98
55.625,11.16
55.640,13.51
55.656,14.21
55.671,13.52
55.687,11.79
55.703,9.55
55.718,7.36
55.734,5.71
55.750,4.85
55.765,4.73
55.781,5.08
55.796,5.59
55.812,6.11
55.828,6.64
55.843,7.46
55.859,8.82
55.875,10.87
55.890,13.48
55.906,16.3
55.921,18.85
55.937,20.76
55.953,21.79
55.968,21.88
55.984,21.2
56.000,19.89
56.015,18.14
56.031,16.12
56.046,14.04
56.062,12.18
56.078,10.89
56.093,10.43
56.109,10.91
56.125,12.25
56.140,14.05
56.156,15.9
56.171,17.51
56.187,18.75
56.203,19.63
56.218,20.3
56.234,20.82
56.250,21.1
56.265,21.04
56.281,20.46
56.296,19.35
56.312,17.87
56.328,16.21
56.343,14.59
56.359,13.11
56.375,11.73
56.390,10.28
56.406,8.63
56.421,6.67
56.437,4.43
56.453,2.03
56.468,-0.46
56.484,-2.98
56.500,-5.54
56.515,-8.27
56.531,-11.33
56.546,-14.79
56.562,-18.75
56.578,-23.21
56.593,-28.07
56.609,-33.14
56.625,-37.97
56.640,-41.92
56.656,-44.28
56.671,-44.41
56.687,-41.93
56.703,-37.0
56.718,-30.22
56.734,-22.55
56.750,-14.97
56.765,-8.28
56.781,-2.97
56.796,0.77
56.812,2.97
56.828,3.75
56.843,3.29
56.859,1.84
56.875,-0.15
56.890,-2.26
56.906,-4.02
56.921,-5.2
56.937,-5.74
56.953,-5.83
56.968,-5.76
56.984,-5.83
57.000,-6.16
57.015,-6.7
57.031,-7.29
57.046,-7.69
57.062,-7.79
57.078,-7.62
57.093,-7.44
57.109,-7.6
57.125,-8.54
57.140,-10.58
57.156,-13.8
57.171,-17.96
57.187,-22.46
57.203,-26.4
57.218,-28.86
57.234,-29.15
57.250,-26.88
57.265,-22.17
57.281,-15.54
57.296,-7.87
57.312,-0.02
57.328,7.16
57.343,13.17
57.359,17.72
57.375,20.8
57.390,22.55
57.406,23.21
57.421,23.09
57.437,22.52
57.453,21.86
57.468,21.38
57.484,21.26
57.500,21.52
57.515,21.87
57.531,22.03
57.546,21.76
57.562,20.99
57.578,19.73
57.593,18.07
57.609,16.05
57.625,13.69
57.640,11.0
57.656,7.91
57.671,4.31
57.687,0.14
57.703,-4.57
57.718,-9.57
57.734,-14.25
57.750,-17.72
57.765,-18.97
57.781,-17.15
57.796,-12.14
57.812,-4.49
57.828,4.63
57.843,13.82
57.859,21.89
57.875,28.16
57.890,32.4
57.906,34.78
57.921,35.58
57.937,34.97
57.953,33.11
57.968,30.15
57.984,26.34
58.000,22.15
58.015,17.95
58.031,14.04
58.046,10.36
58.062,6.72
58.078,2.8
58.093,-1.55
58.109,-6.23
58.125,-10.98
58.140,-15.44
58.156,-19.42
58.171,-22.96
58.187,-26.43
58.203,-30.23
58.218,-34.72
58.234,-39.95
58.250,-45.46
58.265,-50.36
58.281,-53.51
58.296,-53.9
58.312,-51.01
58.328,-44.97
58.343,-36.46
58.359,-26.5
58.375,-16.13
58.390,-6.11
58.406,2.99
58.421,10.79
58.437,16.94
58.453,21.19
58.468,23.48
58.484,24.05
58.500,23.45
58.515,22.31
58.531,21.19
58.546,20.28
58.562,19.47
58.578,18.39
58.593,16.71
58.609,14.36
58.625,11.52
58.640,8.58
58.656,5.84
58.671,3.45
58.687,1.24
58.703,-1.12
58.718,-4.06
58.734,-7.91
58.750,-12.8
58.765,-18.66
58.781,-25.08
58.796,-31.32
58.812,-36.4
58.828,-39.28
58.843,-39.16
58.859,-35.76
58.875,-29.48
58.890,-21.23
58.906,-12.07
58.921,-2.81
58.937,6.06
58.953,14.28
58.968,21.62
58.984,27.76
59.000,32.25
59.015,34.77
59.031,35.35
59.046,34.45
59.062,32.84
59.078,31.24
59.093,30.01
59.109,29.16
59.125,28.42
59.140,27.38
59.156,25.8
59.171,23.58
59.187,20.77
59.203,17.5
59.218,13.89
59.234,10.01
59.250,5.84
59.265,1.37
59.281,-3.49
59.296,-8.89
59.312,-14.94
59.328,-21.7
59.343,-29.04
59.359,-36.5
59.375,-43.25
59.390,-48.24
59.406,-50.42
59.421,-49.11
59.437,-44.14
59.453,-36.06
59.468,-25.99
59.484,-15.21
59.500,-4.85
59.515,4.28
59.531,11.84
59.546,17.78
59.562,22.18
59.578,25.17
59.593,26.91
59.609,27.57
59.625,27.47
59.640,27.06
59.656,26.81
59.671,27.01
59.687,27.78
59.703,28.95
59.718,30.25
59.734,31.45
59.750,32.43
59.765,33.17
59.781,33.78
59.796,34.3
59.812,34.75
59.828,35.14
59.843,35.38
59.859,35.48
59.875,35.43
59.890,35.27
59.906,35.0
59.921,34.6
59.937,34.06
59.953,33.38
59.968,32.63
59.984,31.8
