timestamp,value
00.000,-38.26
00.015,-37.2
00.031,-34.0
00.046,-27.83
00.062,-18.25
00.078,-5.37
00.093,10.16
00.109,27.25
00.125,44.73
00.140,61.63
00.156,77.26
00.171,91.27
00.187,103.55
00.203,114.1
00.218,122.98
00.234,130.36
00.250,136.46
00.265,141.61
00.281,146.15
00.296,150.42
00.312,154.63
00.328,158.87
00.343,162.95
00.359,166.41
00.375,168.52
00.390,168.42
00.406,165.32
00.421,158.73
00.437,148.66
00.453,135.59
00.468,120.31
00.484,103.73
00.500,86.7
00.515,69.97
00.531,54.34
00.546,40.61
00.562,29.56
00.578,21.64
00.593,16.8
00.609,14.39
00.625,13.28
00.640,12.19
00.656,9.95
00.671,5.63
00.687,-1.4
00.703,-11.52
00.718,-24.76
00.734,-40.61
00.750,-57.81
00.765,-74.56
00.781,-88.86
00.796,-99.23
00.812,-105.03
00.828,-106.63
00.843,-105.02
00.859,-101.31
00.875,-96.26
00.890,-90.25
00.906,-83.6
00.921,-76.84
00.937,-71.0
00.953,-67.32
00.968,-66.87
00.984,-70.09
01.000,-76.56
01.015,-85.1
01.031,-94.11
01.046,-102.02
01.062,-107.6
01.078,-110.19
01.093,-109.72
01.109,-106.56
01.125,-101.42
01.140,-95.04
01.156,-88.11
01.171,-81.12
01.187,-74.28
01.203,-67.63
01.218,-61.08
01.234,-54.71
01.250,-48.94
01.265,-44.81
01.281,-43.84
01.296,-47.75
01.312,-57.92
01.328,-74.7
01.343,-97.19
01.359,-123.19
01.375,-149.84
01.390,-174.19
01.406,-193.9
01.421,-207.54
01.437,-214.51
01.453,-214.75
01.468,-208.44
01.484,-195.94
01.500,-177.87
01.515,-155.36
01.531,-130.12
01.546,-104.24
01.562,-79.81
01.578,-58.3
01.593,-40.27
01.609,-25.33
01.625,-12.55
01.640,-0.98
01.656,9.89
01.671,19.89
01.687,28.49
01.703,35.09
01.718,39.47
01.734,41.84
01.750,42.78
01.765,42.91
01.781,42.64
01.796,42.13
01.812,41.36
01.828,40.33
01.843,39.06
01.859,37.74
01.875,36.57
01.890,35.63
01.906,34.92
01.921,34.13
01.937,32.85
01.953,30.62
01.968,27.08
01.984,22.1
02.000,15.85
02.015,8.72
02.031,1.2
02.046,-6.23
02.062,-13.34
02.078,-20.17
02.093,-26.99
02.109,-34.19
02.125,-42.08
02.140,-50.66
02.156,-59.45
02.171,-67.55
02.187,-73.71
02.203,-76.78
02.218,-75.99
02.234,-71.28
02.250,-63.33
02.265,-53.35
02.281,-42.77
02.296,-32.84
02.312,-24.39
02.328,-17.79
02.343,-13.04
02.359,-9.87
02.375,-7.94
02.390,-6.83
02.406,-6.17
02.421,-5.58
02.437,-4.78
02.453,-3.6
02.468,-2.0
02.484,-0.14
02.500,1.68
02.515,3.03
02.531,3.48
02.546,2.67
02.562,0.49
02.578,-2.85
02.593,-6.92
02.609,-11.23
02.625,-15.43
02.640,-19.43
02.656,-23.37
02.671,-27.56
02.687,-32.22
02.703,-37.45
02.718,-43.15
02.734,-49.11
02.750,-55.11
02.765,-61.02
02.781,-66.84
02.796,-72.72
02.812,-78.91
02.828,-85.58
02.843,-92.67
02.859,-99.72
02.875,-105.8
02.890,-109.53
02.906,-109.47
02.921,-104.49
02.937,-94.18
02.953,-78.99
02.968,-60.08
02.984,-39.05
03.000,-17.59
03.015,2.86
03.031,21.33
03.046,37.26
03.062,50.41
03.078,60.79
03.093,68.51
03.109,73.81
03.125,76.99
03.140,78.37
03.156,78.37
03.171,77.39
03.187,75.85
03.203,74.07
03.218,72.28
03.234,70.5
03.250,68.61
03.265,66.45
03.281,63.91
03.296,60.98
03.312,57.74
03.328,54.27
03.343,50.56
03.359,46.46
03.375,41.79
03.390,36.39
03.406,30.31
03.421,23.7
03.437,16.85
03.453,10.01
03.468,3.37
03.484,-3.0
03.500,-9.07
03.515,-14.88
03.531,-20.53
03.546,-26.23
03.562,-32.36
03.578,-39.31
03.593,-47.25
03.609,-55.81
03.625,-64.01
03.640,-70.27
03.656,-72.81
03.671,-70.22
03.687,-61.85
03.703,-48.04
03.718,-30.0
03.734,-9.39
03.750,12.08
03.765,32.9
03.781,51.92
03.796,68.4
03.812,81.9
03.828,92.31
03.843,99.85
03.859,104.99
03.875,108.4
03.890,110.71
03.906,112.38
03.921,113.65
03.937,114.58
03.953,115.21
03.968,115.7
03.984,116.34
04.000,117.46
04.015,119.34
04.031,121.96
04.046,125.06
04.062,128.16
04.078,130.76
04.093,132.51
04.109,133.35
04.125,133.49
04.140,133.33
04.156,133.34
04.171,133.98
04.187,135.59
04.203,138.24
04.218,141.55
04.234,144.47
04.250,145.41
04.265,142.64
04.281,134.75
04.296,121.34
04.312,103.12
04.328,81.79
04.343,59.46
04.359,38.0
04.375,18.54
04.390,1.53
04.406,-13.08
04.421,-25.49
04.437,-35.83
04.453,-44.12
04.468,-50.44
04.484,-55.07
04.500,-58.44
04.515,-61.15
04.531,-63.65
04.546,-66.23
04.562,-68.94
04.578,-71.63
04.593,-74.22
04.609,-76.77
04.625,-79.49
04.640,-82.68
04.656,-86.55
04.671,-91.01
04.687,-95.72
04.703,-100.05
04.718,-103.34
04.734,-105.06
04.750,-104.99
04.765,-103.19
04.781,-100.0
04.796,-95.85
04.812,-91.26
04.828,-86.69
04.843,-82.54
04.859,-79.03
04.875,-76.19
04.890,-73.86
04.906,-71.8
04.921,-69.8
04.937,-67.76
04.953,-65.77
04.968,-64.02
04.984,-62.81
05.000,-62.37
05.015,-62.81
05.031,-64.04
05.046,-65.86
05.062,-67.98
05.078,-70.08
05.093,-72.0
05.109,-73.79
05.125,-75.8
05.140,-78.55
05.156,-82.52
05.171,-87.81
05.187,-93.89
05.203,-99.45
05.218,-102.73
05.234,-101.86
05.250,-95.49
05.265,-83.18
05.281,-65.6
05.296,-44.32
05.312,-21.41
05.328,1.03
05.343,21.27
05.359,38.08
05.375,50.86
05.390,59.47
05.406,64.19
05.421,65.65
05.437,64.7
05.453,62.34
05.468,59.51
05.484,56.97
05.500,55.15
05.515,54.16
05.531,53.87
05.546,54.0
05.562,54.32
05.578,54.65
05.593,54.88
05.609,55.0
05.625,54.93
05.640,54.63
05.656,53.97
05.671,52.88
05.687,51.21
05.703,48.81
05.718,45.53
05.734,41.25
05.750,35.99
05.765,30.0
05.781,23.65
05.796,17.35
05.812,11.42
05.828,5.85
05.843,0.43
05.859,-5.23
05.875,-11.42
05.890,-18.26
05.906,-25.56
05.921,-32.77
05.937,-39.13
05.953,-43.61
05.968,-45.19
05.984,-43.04
06.000,-36.77
06.015,-26.58
06.031,-13.28
06.046,1.83
06.062,17.26
06.078,31.62
06.093,43.91
06.109,53.52
06.125,60.29
06.140,64.35
06.156,66.0
06.171,65.61
06.187,63.64
06.203,60.6
06.218,56.97
06.234,53.3
06.250,49.93
06.265,47.07
06.281,44.72
06.296,42.7
06.312,40.82
06.328,38.91
06.343,36.94
06.359,34.93
06.375,32.89
06.390,30.75
06.406,28.3
06.421,25.35
06.437,21.7
06.453,17.34
06.468,12.38
06.484,7.1
06.500,1.77
06.515,-3.46
06.531,-8.54
06.546,-13.61
06.562,-18.87
06.578,-24.6
06.593,-31.01
06.609,-38.21
06.625,-46.05
06.640,-54.02
06.656,-61.2
06.671,-66.3
06.687,-67.94
06.703,-65.06
06.718,-57.27
06.734,-45.04
06.750,-29.59
06.765,-12.56
06.781,4.46
06.796,20.2
06.812,33.88
06.828,45.14
06.843,53.89
06.859,60.19
06.875,64.15
06.890,65.96
06.906,65.87
06.921,64.31
06.937,61.74
06.953,58.69
06.968,55.57
06.984,52.62
07.000,49.85
07.015,47.09
07.031,44.15
07.046,40.9
07.062,37.41
07.078,33.86
07.093,30.47
07.109,27.34
07.125,24.4
07.140,21.4
07.156,18.06
07.171,14.12
07.187,9.5
07.203,4.33
07.218,-1.11
07.234,-6.49
07.250,-11.55
07.265,-16.18
07.281,-20.44
07.296,-24.56
07.312,-28.9
07.328,-33.8
07.343,-39.47
07.359,-45.89
07.375,-52.62
07.390,-58.83
07.406,-63.32
07.421,-64.73
07.437,-61.98
07.453,-54.57
07.468,-42.76
07.484,-27.48
07.500,-10.08
07.515,8.01
07.531,25.59
07.546,41.72
07.562,55.77
07.578,67.28
07.593,76.03
07.609,82.0
07.625,85.5
07.640,87.06
07.656,87.32
07.671,86.99
07.687,86.54
07.703,86.32
07.718,86.46
07.734,86.97
07.750,87.76
07.765,88.69
07.781,89.6
07.796,90.4
07.812,91.07
07.828,91.71
07.843,92.42
07.859,93.23
07.875,93.99
07.890,94.31
07.906,93.61
07.921,91.21
07.937,86.57
07.953,79.34
07.968,69.51
07.984,57.46
08.000,43.92
08.015,29.79
08.031,16.01
08.046,3.2
08.062,-8.48
08.078,-19.34
08.093,-30.11
08.109,-41.54
08.125,-54.13
08.140,-67.84
08.156,-82.02
08.171,-95.43
08.187,-106.58
08.203,-113.98
08.218,-116.58
08.234,-114.0
08.250,-106.6
08.265,-95.33
08.281,-81.58
08.296,-66.73
08.312,-51.96
08.328,-38.02
08.343,-25.36
08.359,-14.16
08.375,-4.55
08.390,3.37
08.406,9.52
08.421,13.91
08.437,16.72
08.453,18.35
08.468,19.33
08.484,20.14
08.500,21.18
08.515,22.58
08.531,24.24
08.546,25.94
08.562,27.56
08.578,29.19
08.593,31.07
08.609,33.54
08.625,36.81
08.640,40.87
08.656,45.47
08.671,50.23
08.687,54.73
08.703,58.69
08.718,62.0
08.734,64.54
08.750,66.2
08.765,66.77
08.781,66.1
08.796,64.17
08.812,61.07
08.828,56.93
08.843,51.72
08.859,45.21
08.875,37.06
08.890,27.34
08.906,16.75
08.921,6.64
08.937,-1.45
08.953,-6.55
08.968,-8.74
08.984,-9.08
09.000,-8.83
09.015,-8.63
09.031,-8.05
09.046,-5.98
09.062,-1.63
09.078,4.58
09.093,10.68
09.109,13.82
09.125,11.45
09.140,2.41
09.156,-12.55
09.171,-31.09
09.187,-50.1
09.203,-66.58
09.218,-78.28
09.234,-84.12
09.250,-84.33
09.265,-80.41
09.281,-74.74
09.296,-69.91
09.312,-67.73
09.328,-68.44
09.343,-70.52
09.359,-71.23
09.375,-67.68
09.390,-58.1
09.406,-42.47
09.421,-22.42
09.437,-0.53
09.453,20.59
09.468,38.9
09.484,53.18
09.500,62.86
09.515,67.83
09.531,68.35
09.546,65.26
09.562,59.68
09.578,52.72
09.593,44.99
09.609,36.46
09.625,26.72
09.640,15.59
09.656,3.66
09.671,-7.77
09.687,-17.22
09.703,-23.79
09.718,-27.69
09.734,-29.99
09.750,-31.97
09.765,-34.35
09.781,-37.09
09.796,-39.77
09.812,-42.41
09.828,-45.68
09.843,-50.4
09.859,-56.3
09.875,-61.03
09.890,-60.27
09.906,-49.39
09.921,-26.11
09.937,7.26
09.953,43.19
09.968,71.08
09.984,81.22
10.000,68.84
10.015,36.19
10.031,-8.48
10.046,-54.25
10.062,-91.54
10.078,-114.64
10.093,-122.33
10.109,-116.8
10.125,-101.96
10.140,-82.42
10.156,-62.8
10.171,-47.32
10.187,-38.96
10.203,-38.52
10.218,-44.11
10.234,-51.68
10.250,-56.58
10.265,-55.53
10.281,-47.99
10.296,-36.26
10.312,-24.53
10.328,-17.28
10.343,-17.88
10.359,-27.86
10.375,-46.59
10.390,-71.58
10.406,-99.01
10.421,-124.54
10.437,-144.09
10.453,-154.64
10.468,-154.62
10.484,-144.01
10.500,-124.02
10.515,-96.74
10.531,-64.83
10.546,-31.25
10.562,0.99
10.578,29.44
10.593,52.65
10.609,70.62
10.625,84.68
10.640,96.92
10.656,109.26
10.671,122.71
10.687,137.03
10.703,151.01
10.718,162.98
10.734,171.3
10.750,174.65
10.765,172.36
10.781,164.72
10.796,153.23
10.812,140.35
10.828,128.59
10.843,119.21
10.859,111.16
10.875,101.36
10.890,86.21
10.906,63.78
10.921,35.24
10.937,4.69
10.953,-22.66
10.968,-42.75
10.984,-54.06
11.000,-57.51
11.015,-55.27
11.031,-49.65
11.046,-42.8
11.062,-37.16
11.078,-35.85
11.093,-41.94
11.109,-57.06
11.125,-79.83
11.140,-105.81
11.156,-129.1
11.171,-144.78
11.187,-151.15
11.203,-150.06
11.218,-145.71
11.234,-142.6
11.250,-143.99
11.265,-151.15
11.281,-163.36
11.296,-178.09
11.312,-191.23
11.328,-197.7
11.343,-192.84
11.359,-174.33
11.375,-143.85
11.390,-107.33
11.406,-73.17
11.421,-49.18
11.437,-39.58
11.453,-43.66
11.468,-56.67
11.484,-72.22
11.500,-84.9
11.515,-91.65
11.531,-91.8
11.546,-86.02
11.562,-75.22
11.578,-60.07
11.593,-41.15
11.609,-19.41
11.625,3.51
11.640,25.37
11.656,43.93
11.671,57.73
11.687,66.65
11.703,72.04
11.718,76.36
11.734,82.31
11.750,91.74
11.765,104.96
11.781,120.48
11.796,135.67
11.812,147.86
11.828,155.44
11.843,158.55
11.859,158.92
11.875,158.96
11.890,160.68
11.906,164.69
11.921,169.98
11.937,174.41
11.953,175.56
11.968,171.49
11.984,160.98
12.000,143.31
12.015,118.15
12.031,85.71
12.046,47.22
12.062,5.29
12.078,-36.61
12.093,-75.37
12.109,-109.79
12.125,-140.97
12.140,-171.16
12.156,-201.41
12.171,-229.52
12.187,-250.05
12.203,-256.57
12.218,-245.18
12.234,-217.03
12.250,-178.51
12.265,-138.5
12.281,-104.7
12.296,-80.72
12.312,-65.78
12.328,-56.52
12.343,-49.64
12.359,-43.62
12.375,-38.75
12.390,-35.89
12.406,-35.1
12.421,-35.08
12.437,-33.63
12.453,-28.84
12.468,-20.01
12.484,-8.02
12.500,5.11
12.515,17.16
12.531,26.74
12.546,33.66
12.562,38.92
12.578,43.91
12.593,49.83
12.609,56.93
12.625,64.63
12.640,71.79
12.656,77.39
12.671,81.06
12.687,83.28
12.703,85.12
12.718,87.68
12.734,91.69
12.750,97.07
12.765,103.18
12.781,109.05
12.796,113.82
12.812,117.18
12.828,119.3
12.843,120.73
12.859,121.93
12.875,123.07
12.890,123.87
12.906,123.78
12.921,122.31
12.937,119.3
12.953,114.96
12.968,109.73
12.984,103.93
13.000,97.72
13.015,91.27
13.031,84.96
13.046,79.48
13.062,75.48
13.078,73.11
13.093,71.88
13.109,70.88
13.125,69.49
13.140,67.98
13.156,67.51
13.171,69.48
13.187,74.64
13.203,82.61
13.218,92.05
13.234,101.57
13.250,110.39
13.265,118.42
13.281,125.61
13.296,130.92
13.312,131.99
13.328,125.65
13.343,109.22
13.359,81.71
13.375,44.48
13.390,0.77
13.406,-45.37
13.421,-90.16
13.437,-130.82
13.453,-165.44
13.468,-192.49
13.484,-210.56
13.500,-218.67
13.515,-217.08
13.531,-208.21
13.546,-196.6
13.562,-187.89
13.578,-187.17
13.593,-197.05
13.609,-216.8
13.625,-242.72
13.640,-269.56
13.656,-292.27
13.671,-307.21
13.687,-312.3
13.703,-306.51
13.718,-289.12
13.734,-259.5
13.750,-217.44
13.765,-164.04
13.781,-102.34
13.796,-37.37
13.812,24.81
13.828,78.6
13.843,120.57
13.859,150.19
13.875,169.4
13.890,181.01
13.906,186.91
13.921,187.31
13.937,181.24
13.953,168.31
13.968,150.26
13.984,131.24
14.000,116.41
14.015,109.66
14.031,111.89
14.046,120.72
14.062,132.27
14.078,143.0
14.093,151.05
14.109,155.85
14.125,156.71
14.140,151.64
14.156,137.31
14.171,110.4
14.187,69.34
14.203,15.61
14.218,-46.35
14.234,-110.46
14.250,-170.34
14.265,-220.51
14.281,-256.81
14.296,-276.52
14.312,-278.84
14.328,-265.59
14.343,-241.51
14.359,-213.71
14.375,-189.94
14.390,-176.3
14.406,-175.55
14.421,-186.67
14.437,-205.96
14.453,-228.5
14.468,-249.59
14.484,-265.18
14.500,-271.72
14.515,-265.98
14.531,-245.48
14.546,-209.45
14.562,-159.83
14.578,-101.53
14.593,-41.32
14.609,13.97
14.625,59.46
14.640,93.45
14.656,117.43
14.671,134.99
14.687,150.12
14.703,165.6
14.718,182.19
14.734,198.93
14.750,214.12
14.765,226.47
14.781,235.58
14.796,241.57
14.812,244.32
14.828,242.85
14.843,235.65
14.859,221.57
14.875,200.78
14.890,174.71
14.906,145.25
14.921,113.79
14.937,80.75
14.953,46.19
14.968,10.98
14.984,-22.68
15.000,-51.92
15.015,-74.63
15.031,-91.01
15.046,-103.61
15.062,-115.98
15.078,-130.65
15.093,-147.61
15.109,-164.49
15.125,-178.05
15.140,-186.11
15.156,-188.56
15.171,-187.2
15.187,-184.33
15.203,-181.54
15.218,-179.25
15.234,-177.05
15.250,-174.73
15.265,-172.77
15.281,-172.32
15.296,-174.29
15.312,-178.51
15.328,-183.22
15.343,-185.4
15.359,-181.91
15.375,-170.56
15.390,-150.92
15.406,-124.33
15.421,-93.3
15.437,-60.54
15.453,-28.31
15.468,1.93
15.484,29.41
15.500,53.77
15.515,74.83
15.531,92.43
15.546,106.55
15.562,117.32
15.578,125.15
15.593,130.66
15.609,134.62
15.625,137.85
15.640,141.08
15.656,144.84
15.671,149.42
15.687,154.87
15.703,161.04
15.718,167.58
15.734,174.05
15.750,179.89
15.765,184.44
15.781,187.06
15.796,187.29
15.812,184.94
15.828,180.13
15.843,173.22
15.859,164.57
15.875,154.51
15.890,143.31
15.906,131.24
15.921,118.58
15.937,105.62
15.953,92.5
15.968,79.18
15.984,65.46
16.000,51.1
16.015,36.14
16.031,20.72
16.046,5.05
16.062,-10.89
16.078,-27.45
16.093,-45.03
16.109,-63.68
16.125,-82.81
16.140,-101.0
16.156,-116.4
16.171,-127.3
16.187,-132.65
16.203,-132.33
16.218,-126.97
16.234,-117.73
16.250,-105.89
16.265,-92.66
16.281,-79.12
16.296,-66.13
16.312,-54.5
16.328,-44.73
16.343,-36.98
16.359,-30.99
16.375,-26.06
16.390,-21.23
16.406,-15.51
16.421,-8.2
16.437,0.92
16.453,11.36
16.468,22.18
16.484,32.19
16.500,40.35
16.515,46.07
16.531,49.33
16.546,50.56
16.562,50.43
16.578,49.49
16.593,48.07
16.609,46.22
16.625,43.8
16.640,40.65
16.656,36.73
16.671,32.07
16.687,26.9
16.703,21.43
16.718,15.89
16.734,10.43
16.750,5.17
16.765,0.05
16.781,-5.18
16.796,-10.89
16.812,-17.54
16.828,-25.28
16.843,-33.8
16.859,-42.05
16.875,-48.42
16.890,-50.95
16.906,-47.99
16.921,-38.71
16.937,-23.42
16.953,-3.57
16.968,18.73
16.984,41.21
17.000,62.09
17.015,80.21
17.031,95.06
17.046,106.63
17.062,114.97
17.078,120.21
17.093,122.48
17.109,122.07
17.125,119.53
17.140,115.59
17.156,111.09
17.171,106.71
17.187,102.93
17.203,99.84
17.218,97.33
17.234,95.09
17.250,92.76
17.265,89.99
17.281,86.55
17.296,82.32
17.312,77.29
17.328,71.57
17.343,65.21
17.359,58.22
17.375,50.53
17.390,42.07
17.406,32.83
17.421,22.98
17.437,12.86
17.453,2.89
17.468,-6.53
17.484,-15.22
17.500,-23.23
17.515,-30.79
17.531,-38.25
17.546,-45.95
17.562,-54.1
17.578,-62.75
17.593,-71.69
17.609,-80.26
17.625,-87.42
17.640,-91.74
17.656,-91.75
17.671,-86.39
17.687,-75.32
17.703,-59.25
17.718,-39.75
17.734,-18.84
17.750,1.5
17.765,19.82
17.781,35.33
17.796,47.85
17.812,57.45
17.828,64.28
17.843,68.4
17.859,69.94
17.875,69.19
17.890,66.69
17.906,63.13
17.921,59.19
17.937,55.4
17.953,52.0
17.968,49.04
17.984,46.49
18.000,44.3
18.015,42.45
18.031,40.86
18.046,39.37
18.062,37.66
18.078,35.42
18.093,32.32
18.109,28.27
18.125,23.34
18.140,17.74
18.156,11.74
18.171,5.57
18.187,-0.62
18.203,-6.79
18.218,-12.98
18.234,-19.25
18.250,-25.59
18.265,-31.86
18.281,-37.86
18.296,-43.38
18.312,-48.41
18.328,-53.14
18.343,-58.03
18.359,-63.56
18.375,-70.01
18.390,-77.19
18.406,-84.27
18.421,-89.95
18.437,-92.65
18.453,-91.07
18.468,-84.37
18.484,-72.61
18.500,-56.58
18.515,-37.68
18.531,-17.6
18.546,2.04
18.562,19.88
18.578,35.08
18.593,47.28
18.609,56.49
18.625,62.93
18.640,66.89
18.656,68.68
18.671,68.61
18.687,67.03
18.703,64.33
18.718,61.0
18.734,57.48
18.750,54.14
18.765,51.17
18.781,48.62
18.796,46.44
18.812,44.48
18.828,42.61
18.843,40.61
18.859,38.3
18.875,35.48
18.890,32.06
18.906,28.0
18.921,23.29
18.937,18.04
18.953,12.35
18.968,6.37
18.984,0.25
19.000,-5.87
19.015,-11.9
19.031,-17.78
19.046,-23.45
19.062,-28.92
19.078,-34.2
19.093,-39.35
19.109,-44.43
19.125,-49.49
19.140,-54.64
19.156,-59.94
19.171,-65.36
19.187,-70.65
19.203,-75.26
19.218,-78.28
19.234,-78.52
19.250,-74.85
19.265,-66.46
19.281,-53.26
19.296,-35.88
19.312,-15.6
19.328,6.03
19.343,27.54
19.359,47.79
19.375,66.03
19.390,81.85
19.406,95.08
19.421,105.75
19.437,114.13
19.453,120.69
19.468,126.11
19.484,131.09
19.500,136.18
19.515,141.62
19.531,147.34
19.546,153.12
19.562,158.72
19.578,164.12
19.593,169.45
19.609,174.87
19.625,180.38
19.640,185.67
19.656,190.2
19.671,193.27
19.687,194.33
19.703,193.06
19.718,189.48
19.734,183.9
19.750,176.85
19.765,168.98
19.781,161.03
19.796,153.5
19.812,146.25
19.828,138.31
19.843,127.96
19.859,113.26
19.875,92.86
19.890,66.7
19.906,36.02
19.921,2.7
19.937,-31.6
19.953,-66.34
19.968,-101.89
19.984,-138.52
20.000,-175.28
20.015,-209.44
20.031,-237.19
20.046,-255.12
20.062,-261.7
20.078,-257.63
20.093,-245.3
20.109,-227.22
20.125,-205.09
20.140,-179.73
20.156,-151.72
20.171,-122.3
20.187,-93.6
20.203,-68.0
20.218,-47.08
20.234,-31.08
20.250,-18.92
20.265,-9.12
20.281,-0.64
20.296,6.89
20.312,13.55
20.328,19.81
20.343,26.99
20.359,36.81
20.375,50.43
20.390,67.22
20.406,84.32
20.421,96.95
20.437,100.07
20.453,90.03
20.468,66.2
20.484,31.31
20.500,-9.42
20.515,-50.02
20.531,-85.77
20.546,-114.41
20.562,-136.12
20.578,-152.51
20.593,-165.37
20.609,-175.75
20.625,-184.08
20.640,-190.83
20.656,-197.14
20.671,-204.6
20.687,-214.21
20.703,-225.03
20.718,-233.69
20.734,-235.31
20.750,-225.56
20.765,-203.05
20.781,-170.4
20.796,-133.51
20.812,-99.33
20.828,-73.19
20.843,-57.19
20.859,-50.12
20.875,-48.81
20.890,-49.8
20.906,-50.63
20.921,-50.15
20.937,-48.11
20.953,-44.56
20.968,-39.55
20.984,-33.14
21.000,-25.56
21.015,-17.3
21.031,-8.99
21.046,-1.25
21.062,5.63
21.078,11.85
21.093,17.89
21.109,24.39
21.125,31.9
21.140,40.61
21.156,50.28
21.171,60.25
21.187,69.61
21.203,77.58
21.218,83.73
21.234,88.13
21.250,91.29
21.265,93.84
21.281,96.15
21.296,97.94
21.312,98.33
21.328,96.01
21.343,89.95
21.359,79.82
21.375,66.27
21.390,50.96
21.406,35.96
21.421,23.21
21.437,14.0
21.453,8.81
21.468,7.37
21.484,9.06
21.500,13.15
21.515,19.13
21.531,26.82
21.546,36.28
21.562,47.84
21.578,61.91
21.593,78.83
21.609,98.61
21.625,120.49
21.640,142.68
21.656,162.12
21.671,174.95
21.687,177.2
21.703,165.8
21.718,139.67
21.734,100.41
21.750,52.3
21.765,1.51
21.781,-45.35
21.796,-82.86
21.812,-107.86
21.828,-119.61
21.843,-119.09
21.859,-107.95
21.875,-87.65
21.890,-59.49
21.906,-25.04
21.921,13.18
21.937,51.62
21.953,86.25
21.968,113.45
21.984,130.69
22.000,136.8
22.015,131.63
22.031,115.57
22.046,89.3
22.062,53.88
22.078,10.83
22.093,-37.86
22.109,-89.91
22.125,-142.98
22.140,-194.71
22.156,-242.51
22.171,-283.54
22.187,-315.03
22.203,-335.01
22.218,-343.22
22.234,-341.57
22.250,-333.89
22.265,-324.52
22.281,-316.54
22.296,-310.28
22.312,-303.04
22.328,-290.29
22.343,-267.92
22.359,-234.54
22.375,-192.31
22.390,-145.96
22.406,-100.62
22.421,-59.63
22.437,-23.71
22.453,8.29
22.468,37.51
22.484,63.65
22.500,84.81
22.515,98.84
22.531,105.15
22.546,105.69
22.562,104.42
22.578,105.35
22.593,110.47
22.609,118.76
22.625,126.95
22.640,131.44
22.656,130.28
22.671,124.14
22.687,115.68
22.703,107.85
22.718,102.27
22.734,98.52
22.750,94.82
22.765,89.39
22.781,81.77
22.796,73.11
22.812,65.53
22.828,60.85
22.843,59.66
22.859,61.02
22.875,62.97
22.890,63.24
22.906,59.88
22.921,51.51
22.937,37.41
22.953,17.66
22.968,-6.55
22.984,-32.54
23.000,-56.18
23.015,-72.48
23.031,-76.92
23.046,-66.8
23.062,-42.22
23.078,-6.18
23.093,36.1
23.109,78.37
23.125,114.46
23.140,139.2
23.156,149.01
23.171,142.39
23.187,120.46
23.203,87.27
23.218,49.4
23.234,14.52
23.250,-10.85
23.265,-23.52
23.281,-24.63
23.296,-18.74
23.312,-11.57
23.328,-7.22
23.343,-6.48
23.359,-7.03
23.375,-5.18
23.390,1.98
23.406,15.09
23.421,32.61
23.437,52.06
23.453,71.22
23.468,88.54
23.484,102.43
23.500,110.45
23.515,109.2
23.531,95.52
23.546,68.32
23.562,30.0
23.578,-13.95
23.593,-56.98
23.609,-94.33
23.625,-125.0
23.640,-151.58
23.656,-178.33
23.671,-208.27
23.687,-241.55
23.703,-275.35
23.718,-305.34
23.734,-327.44
23.750,-338.92
23.765,-338.32
23.781,-324.95
23.796,-298.49
23.812,-259.31
23.828,-209.27
23.843,-152.12
23.859,-93.18
23.875,-38.07
23.890,8.92
23.906,45.89
23.921,73.42
23.937,93.7
23.953,109.33
23.968,122.11
23.984,132.59
24.000,140.25
24.015,144.16
24.031,143.71
24.046,139.04
24.062,131.1
24.078,121.3
24.093,110.99
24.109,101.11
24.125,92.03
24.140,83.78
24.156,76.26
24.171,69.53
24.187,63.8
24.203,59.32
24.218,56.1
24.234,53.82
24.250,51.75
24.265,49.04
24.281,44.93
24.296,39.11
24.312,31.8
24.328,23.7
24.343,15.63
24.359,8.3
24.375,1.98
24.390,-3.57
24.406,-9.0
24.421,-15.1
24.437,-22.52
24.453,-31.58
24.468,-42.05
24.484,-53.03
24.500,-62.95
24.515,-69.82
24.531,-71.62
24.546,-66.88
24.562,-55.1
24.578,-36.83
24.593,-13.42
24.609,13.46
24.625,42.26
24.640,71.62
24.656,100.38
24.671,127.23
24.687,150.74
24.703,169.59
24.718,182.95
24.734,190.9
24.750,194.42
24.765,195.07
24.781,194.72
24.796,195.16
24.812,197.96
24.828,204.17
24.843,213.82
24.859,225.38
24.875,235.61
24.890,240.1
24.906,234.54
24.921,216.23
24.937,184.94
24.953,142.62
24.968,92.31
24.984,36.8
25.000,-21.82
25.015,-81.58
25.031,-139.72
25.046,-192.19
25.062,-234.27
25.078,-262.01
25.093,-273.53
25.109,-269.55
25.125,-252.79
25.140,-226.9
25.156,-195.45
25.171,-161.39
25.187,-126.92
25.203,-93.44
25.218,-61.45
25.234,-30.7
25.250,-0.69
25.265,28.62
25.281,56.26
25.296,80.32
25.312,98.85
25.328,110.85
25.343,116.93
25.359,118.87
25.375,118.39
25.390,115.79
25.406,109.3
25.421,95.87
25.437,73.02
25.453,40.95
25.468,3.55
25.484,-32.36
25.500,-59.6
25.515,-73.85
25.531,-75.73
25.546,-70.61
25.562,-66.26
25.578,-69.1
25.593,-81.65
25.609,-101.9
25.625,-124.88
25.640,-145.35
25.656,-159.97
25.671,-168.01
25.687,-170.77
25.703,-170.53
25.718,-169.66
25.734,-170.15
25.750,-173.48
25.765,-180.33
25.781,-190.25
25.796,-201.77
25.812,-212.78
25.828,-221.39
25.843,-226.8
25.859,-229.55
25.875,-231.02
25.890,-232.58
25.906,-234.61
25.921,-236.09
25.937,-234.88
25.953,-228.44
25.968,-214.78
25.984,-193.08
26.000,-163.94
26.015,-128.93
26.031,-90.12
26.046,-49.49
26.062,-8.77
26.078,30.53
26.093,67.03
26.109,99.42
26.125,126.69
26.140,148.47
26.156,165.2
26.171,178.05
26.187,188.43
26.203,197.56
26.218,206.1
26.234,214.18
26.250,221.61
26.265,228.14
26.281,233.72
26.296,238.5
26.312,242.73
26.328,246.73
26.343,250.63
26.359,254.35
26.375,257.52
26.390,259.5
26.406,259.6
26.421,257.43
26.437,253.18
26.453,247.62
26.468,241.6
26.484,235.25
26.500,227.37
26.515,215.48
26.531,196.49
26.546,168.03
26.562,129.27
26.578,81.15
26.593,25.96
26.609,-33.46
26.625,-94.13
26.640,-152.97
26.656,-206.41
26.671,-250.52
26.687,-281.5
26.703,-296.58
26.718,-294.92
26.734,-277.86
26.750,-248.83
26.765,-212.59
26.781,-174.47
26.796,-139.44
26.812,-111.18
26.828,-91.29
26.843,-79.05
26.859,-71.87
26.875,-66.4
26.890,-59.95
26.906,-51.23
26.921,-40.34
26.937,-28.04
26.953,-14.84
26.968,-0.69
26.984,14.77
27.000,31.43
27.015,48.34
27.031,63.83
27.046,76.33
27.062,85.27
27.078,91.36
27.093,96.44
27.109,102.6
27.125,111.25
27.140,122.46
27.156,134.79
27.171,145.75
27.187,152.79
27.203,154.39
27.218,150.65
27.234,143.4
27.250,135.2
27.265,128.01
27.281,121.97
27.296,114.96
27.312,103.27
27.328,82.97
27.343,51.42
27.359,8.09
27.375,-45.42
27.390,-105.75
27.406,-168.11
27.421,-226.36
27.437,-273.3
27.453,-301.77
27.468,-306.59
27.484,-286.65
27.500,-245.97
27.515,-192.74
27.531,-136.75
27.546,-86.24
27.562,-45.65
27.578,-15.47
27.593,6.45
27.609,22.95
27.625,36.17
27.640,47.33
27.656,57.22
27.671,66.81
27.687,77.33
27.703,89.83
27.718,104.52
27.734,120.39
27.750,135.51
27.765,147.71
27.781,155.41
27.796,158.31
27.812,157.57
27.828,155.3
27.843,153.55
27.859,153.35
27.875,154.12
27.890,154.07
27.906,151.21
27.921,144.62
27.937,135.03
27.953,124.42
27.968,114.85
27.984,107.01
28.000,99.58
28.015,89.69
28.031,74.21
28.046,51.25
28.062,20.97
28.078,-14.4
28.093,-51.48
28.109,-86.59
28.125,-116.45
28.140,-138.25
28.156,-149.7
28.171,-149.26
28.187,-136.8
28.203,-114.24
28.218,-85.67
28.234,-56.63
28.250,-32.66
28.265,-17.72
28.281,-13.23
28.296,-18.11
28.312,-29.53
28.328,-43.98
28.343,-58.32
28.359,-70.26
28.375,-78.61
28.390,-83.05
28.406,-84.07
28.421,-82.56
28.437,-79.55
28.453,-75.79
28.468,-71.54
28.484,-66.46
28.500,-59.8
28.515,-50.77
28.531,-38.73
28.546,-23.35
28.562,-4.51
28.578,17.54
28.593,41.94
28.609,66.9
28.625,89.65
28.640,107.06
28.656,116.83
28.671,118.87
28.687,115.85
28.703,112.28
28.718,112.31
28.734,117.15
28.750,123.7
28.765,125.27
28.781,114.04
28.796,84.27
28.812,34.78
28.828,-30.08
28.843,-101.2
28.859,-166.74
28.875,-214.91
28.890,-236.95
28.906,-229.84
28.921,-197.67
28.937,-151.02
28.953,-104.03
28.968,-69.89
28.984,-56.62
29.000,-64.66
29.015,-87.77
29.031,-116.08
29.046,-140.15
29.062,-153.74
29.078,-154.56
29.093,-143.2
29.109,-121.46
29.125,-91.08
29.140,-53.51
29.156,-10.39
29.171,35.77
29.187,81.53
29.203,122.92
29.218,156.29
29.234,179.13
29.250,190.38
29.265,190.48
29.281,180.99
29.296,164.19
29.312,142.61
29.328,118.61
29.343,93.76
29.359,68.29
29.375,41.09
29.390,10.02
29.406,-26.92
29.421,-70.4
29.437,-119.03
29.453,-169.46
29.468,-217.25
29.484,-258.23
29.500,-289.44
29.515,-309.61
29.531,-318.99
29.546,-318.94
29.562,-311.6
29.578,-299.62
29.593,-285.89
29.609,-272.99
29.625,-262.55
29.640,-254.68
29.656,-247.8
29.671,-239.04
29.687,-225.29
29.703,-204.27
29.718,-175.36
29.734,-139.92
29.750,-100.68
29.765,-61.0
29.781,-23.91
29.796,8.58
29.812,35.53
29.828,56.84
29.843,72.76
29.859,83.53
29.875,89.33
29.890,90.46
29.906,87.48
29.921,81.45
29.937,73.8
29.953,66.09
29.968,59.63
29.984,55.25
30.000,53.13
30.015,52.92
30.031,53.94
30.046,55.37
30.062,56.61
30.078,57.24
30.093,57.16
30.109,56.47
30.125,55.29
30.140,53.73
30.156,51.74
30.171,49.12
30.187,45.6
30.203,40.92
30.218,34.98
30.234,27.93
30.250,20.08
30.265,11.87
30.281,3.64
30.296,-4.54
30.312,-12.83
30.328,-21.6
30.343,-31.16
30.359,-41.59
30.375,-52.44
30.390,-62.66
30.406,-70.67
30.421,-74.62
30.437,-72.75
30.453,-63.95
30.468,-48.05
30.484,-26.05
30.500,-0.03
30.515,27.42
30.531,53.74
30.546,76.91
30.562,95.8
30.578,110.08
30.593,119.95
30.609,125.9
30.625,128.44
30.640,128.19
30.656,125.8
30.671,122.09
30.687,117.94
30.703,114.1
30.718,111.04
30.734,108.79
30.750,107.14
30.765,105.73
30.781,104.29
30.796,102.72
30.812,101.08
30.828,99.48
30.843,97.89
30.859,96.08
30.875,93.61
30.890,90.07
30.906,85.1
30.921,78.64
30.937,70.88
30.953,62.25
30.968,53.34
30.984,44.72
31.000,36.76
31.015,29.59
31.031,22.99
31.046,16.48
31.062,9.45
31.078,1.41
31.093,-7.78
31.109,-17.69
31.125,-27.32
31.140,-35.19
31.156,-39.66
31.171,-39.36
31.187,-33.52
31.203,-22.26
31.218,-6.47
31.234,12.32
31.250,32.4
31.265,52.23
31.281,70.67
31.296,86.98
31.312,100.69
31.328,111.37
31.343,118.71
31.359,122.48
31.375,122.66
31.390,119.64
31.406,114.11
31.421,106.99
31.437,99.16
31.453,91.35
31.468,84.01
31.484,77.34
31.500,71.4
31.515,66.14
31.531,61.53
31.546,57.55
31.562,54.18
31.578,51.31
31.593,48.62
31.609,45.68
31.625,41.9
31.640,36.85
31.656,30.34
31.671,22.63
31.687,14.3
31.703,6.12
31.718,-1.37
31.734,-8.0
31.750,-14.01
31.765,-19.94
31.781,-26.34
31.796,-33.6
31.812,-41.78
31.828,-50.59
31.843,-59.37
31.859,-67.1
31.875,-72.51
31.890,-74.26
31.906,-71.32
31.921,-63.29
31.937,-50.58
31.953,-34.41
31.968,-16.47
31.984,1.47
32.000,17.91
32.015,31.85
32.031,42.83
32.046,50.66
32.062,55.43
32.078,57.39
32.093,56.91
32.109,54.54
32.125,50.92
32.140,46.7
32.156,42.47
32.171,38.66
32.187,35.38
32.203,32.57
32.218,30.01
32.234,27.45
32.250,24.77
32.265,21.98
32.281,19.24
32.296,16.73
32.312,14.53
32.328,12.48
32.343,10.21
32.359,7.28
32.375,3.27
32.390,-1.96
32.406,-8.19
32.421,-15.03
32.437,-21.97
32.453,-28.67
32.468,-34.98
32.484,-41.02
32.500,-46.99
32.515,-53.18
32.531,-59.79
32.546,-66.84
32.562,-74.14
32.578,-81.13
32.593,-86.86
32.609,-90.05
32.625,-89.38
32.640,-83.88
32.656,-73.31
32.671,-58.33
32.687,-40.34
32.703,-21.13
32.718,-2.44
32.734,14.38
32.750,28.47
32.765,39.4
32.781,47.06
32.796,51.55
32.812,53.16
32.828,52.37
32.843,49.89
32.859,46.5
32.875,42.9
32.890,39.59
32.906,36.77
32.921,34.39
32.937,32.18
32.953,29.84
32.968,27.15
32.984,24.03
33.000,20.6
33.015,17.12
33.031,13.89
33.046,11.12
33.062,8.8
33.078,6.73
33.093,4.48
33.109,1.64
33.125,-2.11
33.140,-6.8
33.156,-12.19
33.171,-17.81
33.187,-23.15
33.203,-27.81
33.218,-31.65
33.234,-34.84
33.250,-37.82
33.265,-41.2
33.281,-45.52
33.296,-51.06
33.312,-57.6
33.328,-64.33
33.343,-69.85
33.359,-72.54
33.375,-70.96
33.390,-64.32
33.406,-52.82
33.421,-37.55
33.437,-20.29
33.453,-2.96
33.468,12.87
33.484,26.26
33.500,36.95
33.515,45.14
33.531,51.19
33.546,55.35
33.562,57.69
33.578,58.16
33.593,56.78
33.609,53.78
33.625,49.68
33.640,45.18
33.656,41.06
33.671,37.85
33.687,35.79
33.703,34.73
33.718,34.23
33.734,33.77
33.750,32.84
33.765,31.11
33.781,28.43
33.796,24.86
33.812,20.59
33.828,15.92
33.843,11.2
33.859,6.74
33.875,2.76
33.890,-0.79
33.906,-4.2
33.921,-7.91
33.937,-12.4
33.953,-17.99
33.968,-24.73
33.984,-32.45
34.000,-40.7
34.015,-48.8
34.031,-55.9
34.046,-61.1
34.062,-63.48
34.078,-62.33
34.093,-57.38
34.109,-48.81
34.125,-37.3
34.140,-23.82
34.156,-9.45
34.171,4.81
34.187,18.11
34.203,29.85
34.218,39.59
34.234,47.03
34.250,51.96
34.265,54.29
34.281,54.17
34.296,52.07
34.312,48.82
34.328,45.5
34.343,43.13
34.359,42.31
34.375,43.0
34.390,44.6
34.406,46.17
34.421,46.85
34.437,46.15
34.453,43.96
34.468,40.42
34.484,35.68
34.500,29.8
34.515,22.74
34.531,14.62
34.546,5.69
34.562,-3.53
34.578,-12.47
34.593,-20.64
34.609,-27.74
34.625,-33.68
34.640,-38.47
34.656,-42.21
34.671,-45.06
34.687,-47.28
34.703,-49.25
34.718,-51.25
34.734,-53.38
34.750,-55.32
34.765,-56.4
34.781,-55.75
34.796,-52.69
34.812,-46.89
34.828,-38.56
34.843,-28.32
34.859,-17.01
34.875,-5.53
34.890,5.4
34.906,15.2
34.921,23.49
34.937,30.11
34.953,35.13
34.968,38.85
34.984,41.68
35.000,44.08
35.015,46.41
35.031,48.94
35.046,51.74
35.062,54.74
35.078,57.77
35.093,60.54
35.109,62.86
35.125,64.68
35.140,66.23
35.156,67.81
35.171,69.8
35.187,72.32
35.203,75.29
35.218,78.37
35.234,81.17
35.250,83.46
35.265,85.25
35.281,86.78
35.296,88.37
35.312,90.33
35.328,92.79
35.343,95.83
35.359,99.41
35.375,103.43
35.390,107.78
35.406,112.32
35.421,117.03
35.437,121.92
35.453,127.06
35.468,132.37
35.484,137.52
35.500,141.97
35.515,145.05
35.531,146.25
35.546,145.49
35.562,143.01
35.578,139.03
35.593,133.69
35.609,126.88
35.625,118.53
35.640,108.85
35.656,98.31
35.671,87.46
35.687,76.37
35.703,64.33
35.718,49.84
35.734,31.27
35.750,7.58
35.765,-21.04
35.781,-53.2
35.796,-86.79
35.812,-119.93
35.828,-151.61
35.843,-182.09
35.859,-212.58
35.875,-244.65
35.890,-279.43
35.906,-316.92
35.921,-355.64
35.937,-392.75
35.953,-424.68
35.968,-447.8
35.984,-459.31
36.000,-457.85
36.015,-443.85
36.031,-419.69
36.046,-389.43
36.062,-358.09
36.078,-330.66
36.093,-310.89
36.109,-300.12
36.125,-296.85
36.140,-297.21
36.156,-296.1
36.171,-288.95
36.187,-273.13
36.203,-248.51
36.218,-217.21
36.234,-182.55
36.250,-147.77
36.265,-115.24
36.281,-86.19
36.296,-60.86
36.312,-39.01
36.328,-20.29
36.343,-4.47
36.359,8.66
36.375,19.29
36.390,27.77
36.406,34.56
36.421,40.1
36.437,44.71
36.453,48.52
36.468,51.5
36.484,53.68
36.500,55.24
36.515,56.52
36.531,57.98
36.546,59.9
36.562,62.2
36.578,64.39
36.593,65.71
36.609,65.48
36.625,63.41
36.640,59.74
36.656,55.16
36.671,50.47
36.687,46.24
36.703,42.55
36.718,38.96
36.734,34.77
36.750,29.35
36.765,22.44
36.781,14.37
36.796,6.01
36.812,-1.33
36.828,-6.21
36.843,-7.41
36.859,-4.23
36.875,3.25
36.890,14.23
36.906,27.37
36.921,41.17
36.937,54.3
36.953,65.82
36.968,75.31
36.984,82.56
37.000,87.55
37.015,90.32
37.031,90.93
37.046,89.62
37.062,86.79
37.078,83.0
37.093,78.82
37.109,74.75
37.125,71.1
37.140,67.95
37.156,65.21
37.171,62.69
37.187,60.21
37.203,57.67
37.218,55.01
37.234,52.24
37.250,49.3
37.265,46.13
37.281,42.63
37.296,38.73
37.312,34.45
37.328,29.83
37.343,24.98
37.359,19.96
37.375,14.81
37.390,9.4
37.406,3.54
37.421,-2.99
37.437,-10.22
37.453,-17.9
37.468,-25.24
37.484,-31.04
37.500,-33.9
37.515,-32.66
37.531,-26.83
37.546,-16.85
37.562,-4.02
37.578,10.01
37.593,23.61
37.609,35.66
37.625,45.77
37.640,54.02
37.656,60.74
37.671,66.16
37.687,70.29
37.703,72.93
37.718,73.87
37.734,73.0
37.750,70.5
37.765,66.78
37.781,62.43
37.796,57.98
37.812,53.88
37.828,50.34
37.843,47.34
37.859,44.71
37.875,42.23
37.890,39.67
37.906,36.76
37.921,33.25
37.937,28.94
37.953,23.76
37.968,17.85
37.984,11.63
38.000,5.59
38.015,0.12
38.031,-4.65
38.046,-8.97
38.062,-13.31
38.078,-18.21
38.093,-24.0
38.109,-30.76
38.125,-38.22
38.140,-45.77
38.156,-52.55
38.171,-57.45
38.187,-59.35
38.203,-57.4
38.218,-51.25
38.234,-41.29
38.250,-28.58
38.265,-14.5
38.281,-0.43
38.296,12.61
38.312,24.03
38.328,33.55
38.343,41.04
38.359,46.3
38.375,49.16
38.390,49.54
38.406,47.65
38.421,44.01
38.437,39.35
38.453,34.44
38.468,29.87
38.484,25.96
38.500,22.78
38.515,20.19
38.531,17.96
38.546,15.87
38.562,13.75
38.578,11.52
38.593,9.2
38.609,6.85
38.625,4.53
38.640,2.22
38.656,-0.32
38.671,-3.34
38.687,-7.06
38.703,-11.49
38.718,-16.44
38.734,-21.53
38.750,-26.4
38.765,-30.8
38.781,-34.6
38.796,-37.88
38.812,-40.79
38.828,-43.43
38.843,-45.77
38.859,-47.52
38.875,-48.04
38.890,-46.48
38.906,-41.95
38.921,-33.83
38.937,-22.12
38.953,-7.45
38.968,8.93
38.984,25.47
39.000,40.67
39.015,53.35
39.031,62.74
39.046,68.5
39.062,70.64
39.078,69.54
39.093,65.91
39.109,60.69
39.125,54.84
39.140,49.14
39.156,44.06
39.171,39.66
39.187,35.72
39.203,31.96
39.218,28.17
39.234,24.34
39.250,20.69
39.265,17.47
39.281,14.84
39.296,12.76
39.312,10.92
39.328,8.94
39.343,6.45
39.359,3.18
39.375,-0.82
39.390,-5.33
39.406,-9.99
39.421,-14.41
39.437,-18.29
39.453,-21.5
39.468,-24.1
39.484,-26.34
39.500,-28.68
39.515,-31.56
39.531,-35.19
39.546,-39.26
39.562,-42.84
39.578,-44.59
39.593,-43.19
39.609,-37.8
39.625,-28.47
39.640,-16.15
39.656,-2.37
39.671,11.18
39.687,23.19
39.703,32.87
39.718,39.93
39.734,44.37
39.750,46.31
39.765,46.02
39.781,43.91
39.796,40.59
39.812,36.78
39.828,33.14
39.843,30.05
39.859,27.51
39.875,25.19
39.890,22.66
39.906,19.63
39.921,16.17
39.937,12.67
39.953,9.68
39.968,7.63
39.984,6.58
40.000,6.13
40.015,5.58
40.031,4.15
40.046,1.35
40.062,-2.8
40.078,-7.81
40.093,-12.89
40.109,-17.25
40.125,-20.48
40.140,-22.58
40.156,-23.99
40.171,-25.4
40.187,-27.42
40.203,-30.49
40.218,-34.59
40.234,-39.26
40.250,-43.6
40.265,-46.45
40.281,-46.63
40.296,-43.3
40.312,-36.22
40.328,-25.88
40.343,-13.4
40.359,-0.18
40.375,12.42
40.390,23.45
40.406,32.42
40.421,39.22
40.437,43.98
40.453,46.82
40.468,47.79
40.484,47.0
40.500,44.64
40.515,41.11
40.531,36.95
40.546,32.75
40.562,28.99
40.578,25.92
40.593,23.55
40.609,21.68
40.625,20.09
40.640,18.57
40.656,16.99
40.671,15.27
40.687,13.37
40.703,11.15
40.718,8.49
40.734,5.3
40.750,1.6
40.765,-2.47
40.781,-6.66
40.796,-10.71
40.812,-14.46
40.828,-17.84
40.843,-21.0
40.859,-24.11
40.875,-27.35
40.890,-30.84
40.906,-34.6
40.921,-38.56
40.937,-42.59
40.953,-46.44
40.968,-49.64
40.984,-51.59
41.000,-51.55
41.015,-48.88
41.031,-43.26
41.046,-34.9
41.062,-24.5
41.078,-13.08
41.093,-1.66
41.109,8.91
41.125,18.12
41.140,25.7
41.156,31.57
41.171,35.66
41.187,37.95
41.203,38.53
41.218,37.58
41.234,35.46
41.250,32.62
41.265,29.5
41.281,26.44
41.296,23.62
41.312,21.05
41.328,18.66
41.343,16.36
41.359,14.04
41.375,11.67
41.390,9.29
41.406,6.96
41.421,4.73
41.437,2.64
41.453,0.64
41.468,-1.4
41.484,-3.7
41.500,-6.48
41.515,-9.92
41.531,-14.07
41.546,-18.84
41.562,-23.99
41.578,-29.24
41.593,-34.33
41.609,-39.1
41.625,-43.52
41.640,-47.66
41.656,-51.64
41.671,-55.59
41.687,-59.62
41.703,-63.66
41.718,-67.38
41.734,-70.15
41.750,-71.13
41.765,-69.49
41.781,-64.7
41.796,-56.71
41.812,-46.12
41.828,-33.96
41.843,-21.46
41.859,-9.75
41.875,0.44
41.890,8.79
41.906,15.27
41.921,20.04
41.937,23.2
41.953,24.81
41.968,24.92
41.984,23.72
42.000,21.59
42.015,19.11
42.031,16.89
42.046,15.34
42.062,14.6
42.078,14.48
42.093,14.62
42.109,14.68
42.125,14.45
42.140,13.84
42.156,12.86
42.171,11.56
42.187,9.97
42.203,8.11
42.218,6.0
42.234,3.64
42.250,1.01
42.265,-1.88
42.281,-5.02
42.296,-8.28
42.312,-11.49
42.328,-14.46
42.343,-17.07
42.359,-19.35
42.375,-21.41
42.390,-23.49
42.406,-25.79
42.421,-28.48
42.437,-31.59
42.453,-34.89
42.468,-37.92
42.484,-39.98
42.500,-40.24
42.515,-37.98
42.531,-32.8
42.546,-24.81
42.562,-14.65
42.578,-3.37
42.593,7.87
42.609,18.03
42.625,26.4
42.640,32.67
42.656,36.85
42.671,39.16
42.687,39.89
42.703,39.31
42.718,37.67
42.734,35.26
42.750,32.41
42.765,29.55
42.781,27.05
42.796,25.17
42.812,23.96
42.828,23.24
42.843,22.76
42.859,22.24
42.875,21.54
42.890,20.62
42.906,19.51
42.921,18.23
42.937,16.72
42.953,14.87
42.968,12.53
42.984,9.66
43.000,6.29
43.015,2.57
43.031,-1.27
43.046,-4.98
43.062,-8.36
43.078,-11.32
43.093,-13.86
43.109,-16.2
43.125,-18.6
43.140,-21.34
43.156,-24.55
43.171,-28.12
43.187,-31.63
43.203,-34.43
43.218,-35.75
43.234,-34.9
43.250,-31.41
43.265,-25.22
43.281,-16.72
43.296,-6.66
43.312,3.9
43.328,13.92
43.343,22.56
43.359,29.32
43.375,34.03
43.390,36.79
43.406,37.8
43.421,37.31
43.437,35.6
43.453,33.02
43.468,30.01
43.484,27.04
43.500,24.47
43.515,22.47
43.531,20.99
43.546,19.79
43.562,18.59
43.578,17.18
43.593,15.53
43.609,13.73
43.625,11.97
43.640,10.32
43.656,8.79
43.671,7.22
43.687,5.36
43.703,2.96
43.718,-0.09
43.734,-3.68
43.750,-7.61
43.765,-11.55
43.781,-15.27
43.796,-18.65
43.812,-21.75
43.828,-24.72
43.843,-27.77
43.859,-31.07
43.875,-34.71
43.890,-38.61
43.906,-42.4
43.921,-45.39
43.937,-46.67
43.953,-45.37
43.968,-40.9
43.984,-33.25
44.000,-23.03
44.015,-11.25
44.031,0.87
44.046,12.23
44.062,22.07
44.078,29.98
44.093,35.86
44.109,39.83
44.125,42.02
44.140,42.57
44.156,41.71
44.171,39.68
44.187,36.88
44.203,33.84
44.218,31.05
44.234,28.91
44.250,27.56
44.265,26.9
44.281,26.71
44.296,26.74
44.312,26.83
44.328,26.91
44.343,26.93
44.359,26.79
44.375,26.34
44.390,25.48
44.406,24.18
44.421,22.56
44.437,20.79
44.453,19.06
44.468,17.44
44.484,15.91
44.500,14.36
44.515,12.69
44.531,10.87
44.546,8.96
44.562,7.09
44.578,5.4
44.593,3.99
44.609,2.88
44.625,2.04
44.640,1.35
44.656,0.74
44.671,0.15
44.687,-0.47
44.703,-1.12
44.718,-1.81
44.734,-2.49
44.750,-3.12
44.765,-3.65
44.781,-4.04
44.796,-4.29
44.812,-4.44
44.828,-4.58
44.843,-4.86
44.859,-5.33
44.875,-6.03
44.890,-6.91
44.906,-8.01
44.921,-9.3
44.937,-10.79
44.953,-12.39
44.968,-13.96
44.984,-15.29
45.000,-16.27
45.015,-16.88
45.031,-17.33
45.046,-17.97
45.062,-19.1
45.078,-20.85
45.093,-23.08
45.109,-25.43
45.125,-27.56
45.140,-29.29
45.156,-30.73
45.171,-32.22
45.187,-34.22
45.203,-37.01
45.218,-40.64
45.234,-44.85
45.250,-49.25
45.265,-53.44
45.281,-57.21
45.296,-60.6
45.312,-63.75
45.328,-66.88
45.343,-70.15
45.359,-73.75
45.375,-77.77
45.390,-82.17
45.406,-86.7
45.421,-90.64
45.437,-92.92
45.453,-92.31
45.468,-87.74
45.484,-78.81
45.500,-65.94
45.515,-50.3
45.531,-33.47
45.546,-17.01
45.562,-2.14
45.578,10.42
45.593,20.34
45.609,27.58
45.625,32.26
45.640,34.61
45.656,35.01
45.671,33.98
45.687,32.07
45.703,29.84
45.718,27.72
45.734,25.93
45.750,24.51
45.765,23.35
45.781,22.3
45.796,21.27
45.812,20.23
45.828,19.24
45.843,18.34
45.859,17.57
45.875,16.83
45.890,15.92
45.906,14.61
45.921,12.61
45.937,9.74
45.953,5.94
45.968,1.38
45.984,-3.57
46.000,-8.42
46.015,-12.7
46.031,-16.16
46.046,-18.85
46.062,-21.09
46.078,-23.33
46.093,-26.0
46.109,-29.22
46.125,-32.83
46.140,-36.31
46.156,-38.91
46.171,-39.77
46.187,-38.22
46.203,-33.81
46.218,-26.54
46.234,-16.85
46.250,-5.57
46.265,6.22
46.281,17.43
46.296,27.19
46.312,34.88
46.328,40.27
46.343,43.42
46.359,44.6
46.375,44.26
46.390,42.88
46.406,40.93
46.421,38.82
46.437,36.92
46.453,35.41
46.468,34.34
46.484,33.58
46.500,32.92
46.515,32.08
46.531,30.86
46.546,29.14
46.562,26.99
46.578,24.55
46.593,21.91
46.609,19.04
46.625,15.76
46.640,11.89
46.656,7.32
46.671,2.24
46.687,-2.97
46.703,-7.83
46.718,-11.98
46.734,-15.39
46.750,-18.26
46.765,-21.02
46.781,-24.1
46.796,-27.7
46.812,-31.76
46.828,-35.87
46.843,-39.22
46.859,-40.85
46.875,-39.86
46.890,-35.59
46.906,-27.99
46.921,-17.62
46.937,-5.55
46.953,6.94
46.968,18.68
46.984,28.82
47.000,36.9
47.015,42.73
47.031,46.32
47.046,47.79
47.062,47.33
47.078,45.36
47.093,42.42
47.109,39.1
47.125,35.8
47.140,32.75
47.156,29.98
47.171,27.38
47.187,24.92
47.203,22.62
47.218,20.57
47.234,18.81
47.250,17.23
47.265,15.59
47.281,13.59
47.296,10.96
47.312,7.55
47.328,3.39
47.343,-1.33
47.359,-6.31
47.375,-11.24
47.390,-15.81
47.406,-19.85
47.421,-23.36
47.437,-26.5
47.453,-29.64
47.468,-33.11
47.484,-37.13
47.500,-41.54
47.515,-45.84
47.531,-49.1
47.546,-50.31
47.562,-48.58
47.578,-43.47
47.593,-35.14
47.609,-24.26
47.625,-11.95
47.640,0.63
47.656,12.52
47.671,23.01
47.687,31.74
47.703,38.5
47.718,43.16
47.734,45.66
47.750,46.1
47.765,44.71
47.781,42.03
47.796,38.7
47.812,35.38
47.828,32.49
47.843,30.16
47.859,28.18
47.875,26.26
47.890,24.13
47.906,21.69
47.921,19.06
47.937,16.43
47.953,13.95
47.968,11.61
47.984,9.2
48.000,6.43
48.015,3.01
48.031,-1.14
48.046,-5.86
48.062,-10.77
48.078,-15.46
48.093,-19.65
48.109,-23.28
48.125,-26.58
48.140,-29.89
48.156,-33.57
48.171,-37.82
48.187,-42.61
48.203,-47.69
48.218,-52.55
48.234,-56.52
48.250,-58.67
48.265,-58.12
48.281,-54.13
48.296,-46.5
48.312,-35.59
48.328,-22.35
48.343,-8.1
48.359,5.87
48.375,18.46
48.390,29.1
48.406,37.53
48.421,43.85
48.437,48.19
48.453,50.73
48.468,51.6
48.484,50.93
48.500,48.93
48.515,45.93
48.531,42.41
48.546,38.87
48.562,35.69
48.578,33.03
48.593,30.77
48.609,28.68
48.625,26.55
48.640,24.33
48.656,22.07
48.671,19.89
48.687,17.79
48.703,15.65
48.718,13.26
48.734,10.4
48.750,6.96
48.765,2.99
48.781,-1.38
48.796,-5.98
48.812,-10.67
48.828,-15.33
48.843,-19.86
48.859,-24.14
48.875,-28.1
48.890,-31.73
48.906,-35.1
48.921,-38.36
48.937,-41.77
48.953,-45.53
48.968,-49.68
48.984,-54.01
49.000,-57.91
49.015,-60.48
49.031,-60.66
49.046,-57.57
49.062,-50.85
49.078,-40.8
49.093,-28.39
49.109,-14.98
49.125,-1.92
49.140,9.8
49.156,19.67
49.171,27.62
49.187,33.77
49.203,38.25
49.218,41.09
49.234,42.33
49.250,42.09
49.265,40.64
49.281,38.44
49.296,35.86
49.312,33.18
49.328,30.51
49.343,27.84
49.359,25.16
49.375,22.56
49.390,20.18
49.406,18.1
49.421,16.3
49.437,14.59
49.453,12.69
49.468,10.4
49.484,7.65
49.500,4.53
49.515,1.3
49.531,-1.76
49.546,-4.52
49.562,-6.97
49.578,-9.26
49.593,-11.58
49.609,-14.12
49.625,-16.98
49.640,-20.14
49.656,-23.47
49.671,-26.81
49.687,-30.0
49.703,-32.97
49.718,-35.69
49.734,-38.21
49.750,-40.62
49.765,-43.05
49.781,-45.57
49.796,-48.11
49.812,-50.4
49.828,-51.88
49.843,-51.81
49.859,-49.36
49.875,-43.97
49.890,-35.52
49.906,-24.46
49.921,-11.74
49.937,1.42
49.953,13.85
49.968,24.65
49.984,33.35
50.000,39.8
50.015,44.08
50.031,46.44
50.046,47.16
50.062,46.6
50.078,45.17
50.093,43.32
50.109,41.43
50.125,39.72
50.140,38.23
50.156,36.86
50.171,35.54
50.187,34.27
50.203,33.12
50.218,32.16
50.234,31.4
50.250,30.61
50.265,29.54
50.281,27.97
50.296,25.85
50.312,23.31
50.328,20.54
50.343,17.66
50.359,14.73
50.375,11.69
50.390,8.48
50.406,5.05
50.421,1.46
50.437,-2.22
50.453,-5.89
50.468,-9.46
50.484,-12.78
50.500,-15.72
50.515,-18.19
50.531,-20.27
50.546,-22.2
50.562,-24.39
50.578,-27.17
50.593,-30.61
50.609,-34.28
50.625,-37.31
50.640,-38.62
50.656,-37.24
50.671,-32.72
50.687,-25.23
50.703,-15.52
50.718,-4.65
50.734,6.35
50.750,16.62
50.765,25.63
50.781,33.04
50.796,38.7
50.812,42.58
50.828,44.69
50.843,45.18
50.859,44.31
50.875,42.47
50.890,40.1
50.906,37.63
50.921,35.36
50.937,33.4
50.953,31.66
50.968,29.93
50.984,28.04
51.000,25.97
51.015,23.86
51.031,21.89
51.046,20.12
51.062,18.44
51.078,16.6
51.093,14.34
51.109,11.54
51.125,8.26
51.140,4.74
51.156,1.2
51.171,-2.19
51.187,-5.43
51.203,-8.56
51.218,-11.69
51.234,-14.85
51.250,-18.02
51.265,-21.12
51.281,-24.08
51.296,-26.85
51.312,-29.47
51.328,-32.02
51.343,-34.61
51.359,-37.39
51.375,-40.46
51.390,-43.82
51.406,-47.35
51.421,-50.67
51.437,-53.17
51.453,-54.09
51.468,-52.68
51.484,-48.37
51.500,-41.11
51.515,-31.41
51.531,-20.18
51.546,-8.57
51.562,2.43
51.578,12.21
51.593,20.54
51.609,27.43
51.625,32.97
51.640,37.12
51.656,39.79
51.671,40.95
51.687,40.73
51.703,39.41
51.718,37.43
51.734,35.13
51.750,32.75
51.765,30.36
51.781,27.9
51.796,25.35
51.812,22.73
51.828,20.15
51.843,17.77
51.859,15.69
51.875,13.95
51.890,12.43
51.906,10.96
51.921,9.31
51.937,7.35
51.953,5.04
51.968,2.46
51.984,-0.25
52.000,-2.95
52.015,-5.58
52.031,-8.12
52.046,-10.65
52.062,-13.22
52.078,-15.9
52.093,-18.66
52.109,-21.49
52.125,-24.32
52.140,-27.11
52.156,-29.85
52.171,-32.59
52.187,-35.42
52.203,-38.46
52.218,-41.84
52.234,-45.62
52.250,-49.73
52.265,-53.91
52.281,-57.67
52.296,-60.29
52.312,-60.97
52.328,-59.01
52.343,-54.04
52.359,-46.21
52.375,-36.14
52.390,-24.76
52.406,-13.1
52.421,-2.0
52.437,7.97
52.453,16.56
52.468,23.69
52.484,29.36
52.500,33.59
52.515,36.3
52.531,37.52
52.546,37.29
52.562,35.83
52.578,33.48
52.593,30.63
52.609,27.63
52.625,24.7
52.640,21.92
52.656,19.26
52.671,16.7
52.687,14.26
52.703,12.04
52.718,10.16
52.734,8.58
52.750,7.2
52.765,5.83
52.781,4.22
52.796,2.15
52.812,-0.45
52.828,-3.5
52.843,-6.8
52.859,-10.03
52.875,-12.98
52.890,-15.56
52.906,-17.86
52.921,-20.08
52.937,-22.43
52.953,-24.95
52.968,-27.56
52.984,-30.12
53.000,-32.49
53.015,-34.63
53.031,-36.63
53.046,-38.6
53.062,-40.67
53.078,-42.91
53.093,-45.38
53.109,-48.12
53.125,-51.07
53.140,-53.99
53.156,-56.4
53.171,-57.59
53.187,-56.79
53.203,-53.44
53.218,-47.32
53.234,-38.74
53.250,-28.48
53.265,-17.52
53.281,-6.82
53.296,2.91
53.312,11.33
53.328,18.34
53.343,24.01
53.359,28.4
53.375,31.56
53.390,33.48
53.406,34.27
53.421,34.15
53.437,33.44
53.453,32.5
53.468,31.55
53.484,30.66
53.500,29.76
53.515,28.78
53.531,27.68
53.546,26.56
53.562,25.56
53.578,24.69
53.593,23.83
53.609,22.66
53.625,20.8
53.640,17.94
53.656,14.08
53.671,9.49
53.687,4.68
53.703,0.2
53.718,-3.58
53.734,-6.56
53.750,-8.89
53.765,-10.91
53.781,-12.95
53.796,-15.27
53.812,-17.93
53.828,-20.83
53.843,-23.81
53.859,-26.67
53.875,-29.31
53.890,-31.76
53.906,-34.18
53.921,-36.78
53.937,-39.68
53.953,-42.73
53.968,-45.41
53.984,-46.87
54.000,-46.13
54.015,-42.42
54.031,-35.46
54.046,-25.53
54.062,-13.37
54.078,0.02
54.093,13.64
54.109,26.73
54.125,38.75
54.140,49.33
54.156,58.17
54.171,64.98
54.187,69.48
54.203,71.5
54.218,71.17
54.234,68.82
54.250,65.07
54.265,60.64
54.281,56.14
54.296,51.96
54.312,48.16
54.328,44.6
54.343,41.03
54.359,37.27
54.375,33.33
54.390,29.33
54.406,25.48
54.421,21.98
54.437,18.98
54.453,16.56
54.468,14.77
54.484,13.57
54.500,12.86
54.515,12.39
54.531,11.8
54.546,10.68
54.562,8.76
54.578,6.01
54.593,2.74
54.609,-0.45
54.625,-2.88
54.640,-3.99
54.656,-3.61
54.671,-1.94
54.687,0.4
54.703,2.62
54.718,3.94
54.734,3.7
54.750,1.51
54.765,-2.72
54.781,-8.69
54.796,-15.67
54.812,-22.64
54.828,-28.42
54.843,-31.91
54.859,-32.35
54.875,-29.55
54.890,-23.9
54.906,-16.28
54.921,-7.81
54.937,0.53
54.953,8.06
54.968,14.45
54.984,19.77
55.000,24.18
55.015,27.8
55.031,30.62
55.046,32.48
55.062,33.19
55.078,32.7
55.093,31.07
55.109,28.53
55.125,25.37
55.140,21.91
55.156,18.39
55.171,15.09
55.187,12.23
55.203,9.94
55.218,8.22
55.234,6.86
55.250,5.46
55.265,3.56
55.281,0.77
55.296,-3.08
55.312,-7.9
55.328,-13.39
55.343,-19.19
55.359,-24.96
55.375,-30.47
55.390,-35.57
55.406,-40.05
55.421,-43.75
55.437,-46.49
55.453,-48.16
55.468,-48.85
55.484,-48.81
55.500,-48.38
55.515,-47.9
55.531,-47.53
55.546,-47.28
55.562,-47.13
55.578,-47.08
55.593,-47.28
55.609,-48.04
55.625,-49.55
55.640,-51.75
55.656,-54.09
55.671,-55.65
55.687,-55.34
55.703,-52.27
55.718,-46.07
55.734,-36.98
55.750,-25.76
55.765,-13.5
55.781,-1.22
55.796,10.23
55.812,20.28
55.828,28.59
55.843,35.04
55.859,39.59
55.875,42.34
55.890,43.43
55.906,43.11
55.921,41.72
55.937,39.61
55.953,37.18
55.968,34.72
55.984,32.45
56.000,30.42
56.015,28.59
56.031,26.89
56.046,25.32
56.062,23.89
56.078,22.62
56.093,21.48
56.109,20.33
56.125,18.96
56.140,17.14
56.156,14.74
56.171,11.73
56.187,8.23
56.203,4.45
56.218,0.57
56.234,-3.24
56.250,-6.85
56.265,-10.17
56.281,-13.17
56.296,-15.88
56.312,-18.39
56.328,-20.84
56.343,-23.34
56.359,-25.94
56.375,-28.59
56.390,-31.15
56.406,-33.54
56.421,-35.72
56.437,-37.74
56.453,-39.75
56.468,-41.94
56.484,-44.48
56.500,-47.49
56.515,-50.87
56.531,-54.24
56.546,-56.92
56.562,-57.98
56.578,-56.53
56.593,-51.98
56.609,-44.25
56.625,-33.93
56.640,-22.1
56.656,-9.96
56.671,1.49
56.687,11.58
56.703,20.11
56.718,27.14
56.734,32.78
56.750,37.07
56.765,39.92
56.781,41.28
56.796,41.23
56.812,40.09
56.828,38.32
56.843,36.45
56.859,34.86
56.875,33.73
56.890,33.09
56.906,32.82
56.921,32.85
56.937,33.12
56.953,33.58
56.968,34.04
56.984,34.23
57.000,33.81
57.015,32.52
57.031,30.34
57.046,27.42
57.062,24.12
57.078,20.78
57.093,17.59
57.109,14.59
57.125,11.7
57.140,8.82
57.156,5.86
57.171,2.87
57.187,-0.07
57.203,-2.79
57.218,-5.14
57.234,-7.02
57.250,-8.51
57.265,-9.8
57.281,-11.31
57.296,-13.44
57.312,-16.45
57.328,-20.26
57.343,-24.41
57.359,-28.06
57.375,-30.25
57.390,-30.1
57.406,-27.17
57.421,-21.48
57.437,-13.55
57.453,-4.21
57.468,5.58
57.484,14.94
57.500,23.27
57.515,30.19
57.531,35.54
57.546,39.29
57.562,41.47
57.578,42.21
57.593,41.75
57.609,40.39
57.625,38.48
57.640,36.36
57.656,34.22
57.671,32.18
57.687,30.23
57.703,28.35
57.718,26.51
57.734,24.74
57.750,23.09
57.765,21.55
57.781,20.03
57.796,18.34
57.812,16.23
57.828,13.49
57.843,10.1
57.859,6.18
57.875,2.02
57.890,-2.05
57.906,-5.82
57.921,-9.21
57.937,-12.31
57.953,-15.28
57.968,-18.19
57.984,-21.02
58.000,-23.64
58.015,-25.94
58.031,-27.9
58.046,-29.7
58.062,-31.63
58.078,-34.0
58.093,-37.01
58.109,-40.59
58.125,-44.33
58.140,-47.53
58.156,-49.35
58.171,-49.01
58.187,-46.03
58.203,-40.31
58.218,-32.18
58.234,-22.3
58.250,-11.53
58.265,-0.75
58.281,9.33
58.296,18.17
58.312,25.5
58.328,31.21
58.343,35.28
58.359,37.78
58.375,38.78
58.390,38.46
58.406,37.06
58.421,34.94
58.437,32.48
58.453,30.04
58.468,27.84
58.484,25.98
58.500,24.4
58.515,23.03
58.531,21.79
58.546,20.61
58.562,19.45
58.578,18.22
58.593,16.77
58.609,14.98
58.625,12.72
58.640,9.97
58.656,6.79
58.671,3.32
58.687,-0.27
58.703,-3.86
58.718,-7.37
58.734,-10.79
58.750,-14.15
58.765,-17.51
58.781,-20.9
58.796,-24.35
58.812,-27.77
58.828,-31.06
58.843,-34.18
58.859,-37.11
58.875,-39.97
58.890,-42.89
58.906,-45.99
58.921,-49.21
58.937,-52.24
58.953,-54.45
58.968,-55.05
58.984,-53.31
59.000,-48.75
59.015,-41.42
59.031,-31.83
59.046,-20.86
59.062,-9.46
59.078,1.5
59.093,11.41
59.109,19.88
59.125,26.62
59.140,31.51
59.156,34.51
59.171,35.78
59.187,35.62
59.203,34.49
59.218,32.75
59.234,30.65
59.250,28.32
59.265,25.74
59.281,22.97
59.296,20.11
59.312,17.38
59.328,14.94
59.343,12.87
59.359,11.13
59.375,9.57
59.390,7.99
59.406,6.2
59.421,4.15
59.437,1.91
59.453,-0.25
59.468,-2.05
59.484,-3.22
59.500,-3.74
59.515,-3.85
59.531,-4.0
59.546,-4.6
59.562,-5.87
59.578,-7.68
59.593,-9.55
59.609,-10.9
59.625,-11.26
59.640,-10.56
59.656,-9.03
59.671,-7.19
59.687,-5.63
59.703,-4.74
59.718,-4.49
59.734,-4.35
59.750,-3.26
59.765,0.08
59.781,6.78
59.796,17.38
59.812,31.65
59.828,48.63
59.843,67.0
59.859,85.43
59.875,102.81
59.890,118.34
59.906,131.46
59.921,141.95
59.937,150.0
59.953,156.09
59.968,160.46
59.984,162.49
