timestamp,value
00.000,64.83
00.015,64.89
00.031,65.35
00.046,65.79
00.062,65.9
00.078,65.55
00.093,64.71
00.109,63.38
00.125,61.59
00.140,59.35
00.156,56.7
00.171,53.8
00.187,50.81
00.203,47.91
00.218,45.2
00.234,42.75
00.250,40.51
00.265,38.43
00.281,36.39
00.296,34.24
00.312,31.85
00.328,29.1
00.343,25.98
00.359,22.58
00.375,19.07
00.390,15.61
00.406,12.33
00.421,9.27
00.437,6.43
00.453,3.81
00.468,1.33
00.484,-1.04
00.500,-3.39
00.515,-5.74
00.531,-8.1
00.546,-10.47
00.562,-12.83
00.578,-15.23
00.593,-17.8
00.609,-20.74
00.625,-24.15
00.640,-28.0
00.656,-32.08
00.671,-36.06
00.687,-39.57
00.703,-42.43
00.718,-44.71
00.734,-46.76
00.750,-49.08
00.765,-52.14
00.781,-56.19
00.796,-61.16
00.812,-66.71
00.828,-72.33
00.843,-77.63
00.859,-82.48
00.875,-87.04
00.890,-91.76
00.906,-97.14
00.921,-103.67
00.937,-111.54
00.953,-120.44
00.968,-129.35
00.984,-136.64
01.000,-140.23
01.015,-138.21
01.031,-129.48
01.046,-114.13
01.062,-93.57
01.078,-70.05
01.093,-46.0
01.109,-23.49
01.125,-3.81
01.140,12.46
01.156,25.2
01.171,34.52
01.187,40.68
01.203,44.09
01.218,45.29
01.234,44.99
01.250,43.87
01.265,42.46
01.281,41.06
01.296,39.74
01.312,38.51
01.328,37.39
01.343,36.39
01.359,35.58
01.375,34.89
01.390,34.13
01.406,32.97
01.421,31.0
01.437,27.91
01.453,23.6
01.468,18.25
01.484,12.2
01.500,5.99
01.515,0.08
01.531,-5.24
01.546,-9.97
01.562,-14.44
01.578,-19.19
01.593,-24.76
01.609,-31.35
01.625,-38.58
01.640,-45.37
01.656,-50.14
01.671,-51.29
01.687,-47.74
01.703,-39.31
01.718,-26.84
01.734,-11.87
01.750,3.82
01.765,18.68
01.781,31.62
01.796,42.02
01.812,49.71
01.828,54.75
01.843,57.36
01.859,57.87
01.875,56.74
01.890,54.43
01.906,51.45
01.921,48.21
01.937,44.97
01.953,41.9
01.968,39.01
01.984,36.15
02.000,33.08
02.015,29.56
02.031,25.41
02.046,20.62
02.062,15.31
02.078,9.68
02.093,3.91
02.109,-1.89
02.125,-7.69
02.140,-13.51
02.156,-19.4
02.171,-25.43
02.187,-31.76
02.203,-38.64
02.218,-46.34
02.234,-54.91
02.250,-63.94
02.265,-72.38
02.281,-78.76
02.296,-81.48
02.312,-79.37
02.328,-72.09
02.343,-60.19
02.359,-45.05
02.375,-28.37
02.390,-11.86
02.406,3.11
02.421,15.64
02.437,25.26
02.453,31.9
02.468,35.76
02.484,37.26
02.500,36.91
02.515,35.3
02.531,32.94
02.546,30.28
02.562,27.65
02.578,25.21
02.593,23.05
02.609,21.15
02.625,19.43
02.640,17.81
02.656,16.17
02.671,14.38
02.687,12.33
02.703,9.89
02.718,7.02
02.734,3.73
02.750,0.08
02.765,-3.83
02.781,-8.02
02.796,-12.56
02.812,-17.63
02.828,-23.48
02.843,-30.33
02.859,-38.23
02.875,-46.99
02.890,-55.97
02.906,-64.05
02.921,-69.85
02.937,-71.94
02.953,-69.34
02.968,-61.75
02.984,-49.8
03.000,-34.85
03.015,-18.62
03.031,-2.74
03.046,11.58
03.062,23.72
03.078,33.47
03.093,40.79
03.109,45.73
03.125,48.29
03.140,48.62
03.156,47.07
03.171,44.24
03.187,40.89
03.203,37.76
03.218,35.28
03.234,33.57
03.250,32.5
03.265,31.74
03.281,30.97
03.296,29.92
03.312,28.42
03.328,26.3
03.343,23.4
03.359,19.62
03.375,14.88
03.390,9.32
03.406,3.17
03.421,-3.21
03.437,-9.42
03.453,-15.27
03.468,-20.69
03.484,-25.88
03.500,-31.18
03.515,-36.94
03.531,-43.27
03.546,-49.96
03.562,-56.28
03.578,-61.07
03.593,-62.96
03.609,-60.78
03.625,-53.91
03.640,-42.59
03.656,-27.92
03.671,-11.58
03.687,4.6
03.703,19.11
03.718,31.01
03.734,39.94
03.750,45.96
03.765,49.41
03.781,50.77
03.796,50.6
03.812,49.65
03.828,48.67
03.843,48.27
03.859,48.77
03.875,50.05
03.890,51.65
03.906,52.99
03.921,53.6
03.937,53.25
03.953,52.02
03.968,50.1
03.984,47.65
04.000,44.68
04.015,41.02
04.031,36.5
04.046,31.02
04.062,24.67
04.078,17.69
04.093,10.43
04.109,3.14
04.125,-4.08
04.140,-11.34
04.156,-18.93
04.171,-27.23
04.187,-36.49
04.203,-46.62
04.218,-56.97
04.234,-66.37
04.250,-73.28
04.265,-76.21
04.281,-74.21
04.296,-67.22
04.312,-56.08
04.328,-42.3
04.343,-27.52
04.359,-13.17
04.375,-0.18
04.390,10.94
04.406,19.97
04.421,26.72
04.437,31.09
04.453,33.05
04.468,32.86
04.484,31.09
04.500,28.53
04.515,26.02
04.531,24.28
04.546,23.68
04.562,24.26
04.578,25.74
04.593,27.64
04.609,29.45
04.625,30.71
04.640,31.07
04.656,30.28
04.671,28.19
04.687,24.69
04.703,19.81
04.718,13.72
04.734,6.72
04.750,-0.66
04.765,-7.84
04.781,-14.23
04.796,-19.41
04.812,-23.23
04.828,-25.87
04.843,-27.8
04.859,-29.66
04.875,-32.05
04.890,-35.21
04.906,-38.91
04.921,-42.26
04.937,-43.9
04.953,-42.38
04.968,-36.51
04.984,-25.89
05.000,-10.99
05.015,6.94
05.031,26.21
05.046,45.13
05.062,62.31
05.078,76.8
05.093,88.01
05.109,95.68
05.125,99.78
05.140,100.49
05.156,98.3
05.171,93.93
05.187,88.25
05.203,82.08
05.218,76.08
05.234,70.61
05.250,65.79
05.265,61.57
05.281,57.76
05.296,54.19
05.312,50.69
05.328,47.14
05.343,43.37
05.359,39.26
05.375,34.66
05.390,29.49
05.406,23.79
05.421,17.67
05.437,11.34
05.453,5.04
05.468,-0.99
05.484,-6.58
05.500,-11.72
05.515,-16.66
05.531,-21.82
05.546,-27.71
05.562,-34.67
05.578,-42.66
05.593,-51.07
05.609,-58.71
05.625,-64.13
05.640,-65.95
05.656,-63.37
05.671,-56.31
05.687,-45.43
05.703,-31.86
05.718,-16.89
05.734,-1.78
05.750,12.47
05.765,25.04
05.781,35.33
05.796,42.88
05.812,47.49
05.828,49.19
05.843,48.37
05.859,45.69
05.875,41.99
05.890,38.15
05.906,34.81
05.921,32.33
05.937,30.69
05.953,29.63
05.968,28.78
05.984,27.83
06.000,26.58
06.015,24.97
06.031,22.98
06.046,20.55
06.062,17.56
06.078,13.87
06.093,9.39
06.109,4.12
06.125,-1.81
06.140,-8.12
06.156,-14.49
06.171,-20.63
06.187,-26.42
06.203,-32.04
06.218,-37.88
06.234,-44.43
06.250,-51.95
06.265,-60.18
06.281,-68.16
06.296,-74.42
06.312,-77.42
06.328,-76.06
06.343,-70.1
06.359,-60.21
06.375,-47.71
06.390,-34.08
06.406,-20.56
06.421,-7.87
06.437,3.63
06.453,13.71
06.468,22.16
06.484,28.64
06.500,32.87
06.515,34.83
06.531,34.84
06.546,33.52
06.562,31.58
06.578,29.6
06.593,27.87
06.609,26.43
06.625,25.11
06.640,23.71
06.656,22.08
06.671,20.16
06.687,17.91
06.703,15.3
06.718,12.24
06.734,8.54
06.750,4.01
06.765,-1.44
06.781,-7.8
06.796,-14.83
06.812,-22.17
06.828,-29.39
06.843,-36.18
06.859,-42.41
06.875,-48.27
06.890,-54.13
06.906,-60.47
06.921,-67.71
06.937,-75.95
06.953,-84.93
06.968,-93.76
06.984,-101.18
07.000,-105.59
07.015,-105.49
07.031,-99.92
07.046,-88.75
07.062,-72.83
07.078,-53.81
07.093,-33.73
07.109,-14.45
07.125,2.7
07.140,17.04
07.156,28.48
07.171,37.18
07.187,43.44
07.203,47.57
07.218,49.93
07.234,50.99
07.250,51.34
07.265,51.49
07.281,51.82
07.296,52.35
07.312,52.84
07.328,52.86
07.343,51.99
07.359,50.0
07.375,46.86
07.390,42.78
07.406,38.13
07.421,33.31
07.437,28.64
07.453,24.3
07.468,20.24
07.484,16.28
07.500,12.2
07.515,7.9
07.531,3.46
07.546,-0.9
07.562,-4.93
07.578,-8.48
07.593,-11.66
07.609,-14.73
07.625,-18.11
07.640,-22.14
07.656,-27.0
07.671,-32.8
07.687,-39.33
07.703,-46.21
07.718,-52.72
07.734,-57.85
07.750,-60.45
07.765,-59.48
07.781,-54.44
07.796,-45.55
07.812,-33.79
07.828,-20.59
07.843,-7.42
07.859,4.6
07.875,14.89
07.890,23.27
07.906,29.75
07.921,34.33
07.937,36.97
07.953,37.76
07.968,37.06
07.984,35.52
08.000,33.85
08.015,32.59
08.031,31.88
08.046,31.46
08.062,30.79
08.078,29.4
08.093,27.06
08.109,23.87
08.125,20.19
08.140,16.37
08.156,12.65
08.171,9.08
08.187,5.57
08.203,1.95
08.218,-1.86
08.234,-5.86
08.250,-9.94
08.265,-13.99
08.281,-17.96
08.296,-21.93
08.312,-26.09
08.328,-30.7
08.343,-35.98
08.359,-42.08
08.375,-49.03
08.390,-56.64
08.406,-64.47
08.421,-71.73
08.437,-77.28
08.453,-79.88
08.468,-78.48
08.484,-72.64
08.500,-62.69
08.515,-49.76
08.531,-35.44
08.546,-21.25
08.562,-8.33
08.578,2.66
08.593,11.52
08.609,18.21
08.625,22.81
08.640,25.43
08.656,26.35
08.671,26.02
08.687,25.13
08.703,24.34
08.718,24.11
08.734,24.6
08.750,25.66
08.765,26.93
08.781,28.06
08.796,28.82
08.812,29.15
08.828,29.09
08.843,28.68
08.859,27.81
08.875,26.24
08.890,23.73
08.906,20.1
08.921,15.39
08.937,9.9
08.953,4.04
08.968,-1.79
08.984,-7.39
09.000,-12.81
09.015,-18.29
09.031,-24.2
09.046,-30.79
09.062,-38.1
09.078,-45.84
09.093,-53.35
09.109,-59.65
09.125,-63.63
09.140,-64.33
09.156,-61.22
09.171,-54.33
09.187,-44.36
09.203,-32.39
09.218,-19.68
09.234,-7.35
09.250,3.81
09.265,13.36
09.281,21.13
09.296,27.03
09.312,31.09
09.328,33.38
09.343,34.18
09.359,33.92
09.375,33.11
09.390,32.16
09.406,31.26
09.421,30.3
09.437,29.04
09.453,27.24
09.468,24.83
09.484,22.0
09.500,19.04
09.515,16.14
09.531,13.27
09.546,10.14
09.562,6.3
09.578,1.41
09.593,-4.57
09.609,-11.34
09.625,-18.32
09.640,-24.93
09.656,-30.74
09.671,-35.75
09.687,-40.25
09.703,-44.76
09.718,-49.78
09.734,-55.6
09.750,-62.17
09.765,-69.06
09.781,-75.44
09.796,-80.21
09.812,-82.22
09.828,-80.51
09.843,-74.66
09.859,-64.92
09.875,-52.18
09.890,-37.72
09.906,-22.88
09.921,-8.77
09.937,3.88
09.953,14.72
09.968,23.54
09.984,30.16
10.000,34.45
10.015,36.39
10.031,36.21
10.046,34.42
10.062,31.72
10.078,28.79
10.093,26.13
10.109,23.91
10.125,22.05
10.140,20.35
10.156,18.67
10.171,17.04
10.187,15.64
10.203,14.64
10.218,14.08
10.234,13.78
10.250,13.32
10.265,12.26
10.281,10.3
10.296,7.36
10.312,3.68
10.328,-0.31
10.343,-4.16
10.359,-7.61
10.375,-10.66
10.390,-13.61
10.406,-16.82
10.421,-20.67
10.437,-25.34
10.453,-30.84
10.468,-36.86
10.484,-42.89
10.500,-48.09
10.515,-51.4
10.531,-51.69
10.546,-48.06
10.562,-40.17
10.578,-28.42
10.593,-13.91
10.609,1.84
10.625,17.36
10.640,31.49
10.656,43.64
10.671,53.61
10.687,61.49
10.703,67.43
10.718,71.59
10.734,74.24
10.750,75.77
10.765,76.71
10.781,77.59
10.796,78.78
10.812,80.36
10.828,82.11
10.843,83.68
10.859,84.79
10.875,85.43
10.890,85.83
10.906,86.43
10.921,87.6
10.937,89.47
10.953,91.87
10.968,94.36
10.984,96.35
11.000,97.34
11.015,97.0
11.031,95.21
11.046,92.04
11.062,87.59
11.078,81.95
11.093,75.06
11.109,66.78
11.125,56.9
11.140,45.32
11.156,32.21
11.171,18.06
11.187,3.88
11.203,-8.94
11.218,-18.78
11.234,-24.2
11.250,-24.33
11.265,-19.16
11.281,-9.54
11.296,3.05
11.312,16.99
11.328,31.06
11.343,44.51
11.359,57.12
11.375,68.88
11.390,79.75
11.406,89.55
11.421,97.92
11.437,104.37
11.453,108.34
11.468,109.18
11.484,106.2
11.500,98.9
11.515,87.18
11.531,71.52
11.546,53.13
11.562,33.63
11.578,14.74
11.593,-2.2
11.609,-16.42
11.625,-27.86
11.640,-36.85
11.656,-43.79
11.671,-48.98
11.687,-52.42
11.703,-53.94
11.718,-53.4
11.734,-50.95
11.750,-47.27
11.765,-43.6
11.781,-41.57
11.796,-42.89
11.812,-49.02
11.828,-60.71
11.843,-77.66
11.859,-98.48
11.875,-120.82
11.890,-141.8
11.906,-158.71
11.921,-169.55
11.937,-173.43
11.953,-170.53
11.968,-161.86
11.984,-148.85
12.000,-132.96
12.015,-115.51
12.031,-97.66
12.046,-80.48
12.062,-64.87
12.078,-51.45
12.093,-40.43
12.109,-31.58
12.125,-24.35
12.140,-18.21
12.156,-12.81
12.171,-8.09
12.187,-4.18
12.203,-1.16
12.218,1.04
12.234,2.67
12.250,4.02
12.265,5.25
12.281,6.29
12.296,6.91
12.312,6.78
12.328,5.66
12.343,3.42
12.359,0.16
12.375,-3.87
12.390,-8.14
12.406,-12.02
12.421,-14.94
12.437,-16.69
12.453,-17.57
12.468,-18.38
12.484,-20.12
12.500,-23.5
12.515,-28.5
12.531,-34.17
12.546,-38.83
12.562,-40.66
12.578,-38.25
12.593,-31.12
12.609,-19.83
12.625,-5.81
12.640,9.02
12.656,22.82
12.671,34.13
12.687,42.1
12.703,46.48
12.718,47.47
12.734,45.56
12.750,41.33
12.765,35.39
12.781,28.3
12.796,20.52
12.812,12.43
12.828,4.26
12.843,-3.76
12.859,-11.47
12.875,-18.68
12.890,-25.19
12.906,-30.85
12.921,-35.62
12.937,-39.59
12.953,-42.97
12.968,-46.05
12.984,-49.04
13.000,-52.08
13.015,-55.17
13.031,-58.28
13.046,-61.36
13.062,-64.45
13.078,-67.63
13.093,-70.94
13.109,-74.41
13.125,-77.94
13.140,-81.43
13.156,-84.82
13.171,-88.0
13.187,-90.74
13.203,-92.49
13.218,-92.36
13.234,-89.3
13.250,-82.45
13.265,-71.57
13.281,-57.24
13.296,-40.72
13.312,-23.6
13.328,-7.31
13.343,7.15
13.359,19.35
13.375,29.24
13.390,36.92
13.406,42.5
13.421,46.08
13.437,47.83
13.453,48.1
13.468,47.42
13.484,46.46
13.500,45.82
13.515,45.83
13.531,46.51
13.546,47.58
13.562,48.57
13.578,49.07
13.593,48.78
13.609,47.59
13.625,45.43
13.640,42.27
13.656,38.08
13.671,32.93
13.687,27.06
13.703,20.9
13.718,14.9
13.734,9.42
13.750,4.56
13.765,0.17
13.781,-4.13
13.796,-8.82
13.812,-14.34
13.828,-20.91
13.843,-28.42
13.859,-36.28
13.875,-43.34
13.890,-48.18
13.906,-49.36
13.921,-45.98
13.937,-37.92
13.953,-26.0
13.968,-11.68
13.984,3.37
14.000,17.68
14.015,30.28
14.031,40.63
14.046,48.52
14.062,53.86
14.078,56.65
14.093,56.99
14.109,55.25
14.125,52.04
14.140,48.15
14.156,44.33
14.171,41.1
14.187,38.66
14.203,36.98
14.218,35.88
14.234,35.22
14.250,34.89
14.265,34.71
14.281,34.47
14.296,33.85
14.312,32.51
14.328,30.22
14.343,26.89
14.359,22.66
14.375,17.74
14.390,12.42
14.406,6.92
14.421,1.35
14.437,-4.3
14.453,-10.14
14.468,-16.38
14.484,-23.16
14.500,-30.49
14.515,-38.04
14.531,-45.04
14.546,-50.34
14.562,-52.59
14.578,-50.61
14.593,-43.85
14.609,-32.57
14.625,-17.92
14.640,-1.55
14.656,14.81
14.671,29.84
14.687,42.83
14.703,53.62
14.718,62.33
14.734,69.08
14.750,73.84
14.765,76.55
14.781,77.31
14.796,76.59
14.812,75.2
14.828,74.08
14.843,73.99
14.859,75.2
14.875,77.48
14.890,80.17
14.906,82.59
14.921,84.28
14.937,85.15
14.953,85.44
14.968,85.52
14.984,85.71
15.000,86.17
15.015,86.99
15.031,88.17
15.046,89.71
15.062,91.47
15.078,93.01
15.093,93.58
15.109,92.22
15.125,88.16
15.140,81.04
15.156,71.31
15.171,60.05
15.187,48.77
15.203,38.9
15.218,31.42
15.234,26.72
15.250,24.61
15.265,24.62
15.281,26.15
15.296,28.64
15.312,31.54
15.328,34.38
15.343,36.74
15.359,38.39
15.375,39.44
15.390,40.24
15.406,41.34
15.421,43.06
15.437,45.31
15.453,47.38
15.468,48.16
15.484,46.51
15.500,41.62
15.515,33.4
15.531,22.42
15.546,9.74
15.562,-3.48
15.578,-16.27
15.593,-28.05
15.609,-38.61
15.625,-47.99
15.640,-56.29
15.656,-63.53
15.671,-69.57
15.687,-74.11
15.703,-76.8
15.718,-77.46
15.734,-76.17
15.750,-73.36
15.765,-69.79
15.781,-66.26
15.796,-63.25
15.812,-60.6
15.828,-57.23
15.843,-51.23
15.859,-40.33
15.875,-22.84
15.890,1.51
15.906,30.94
15.921,61.52
15.937,88.05
15.953,105.34
15.968,109.72
15.984,100.11
16.000,78.23
16.015,47.97
16.031,14.06
16.046,-19.18
16.062,-48.78
16.078,-73.24
16.093,-92.18
16.109,-105.65
16.125,-113.82
16.140,-116.95
16.156,-115.75
16.171,-111.6
16.187,-106.39
16.203,-102.06
16.218,-99.89
16.234,-100.15
16.250,-102.08
16.265,-104.43
16.281,-106.04
16.296,-106.38
16.312,-105.68
16.328,-104.61
16.343,-104.04
16.359,-104.61
16.375,-106.69
16.390,-110.33
16.406,-115.36
16.421,-121.26
16.437,-127.33
16.453,-132.66
16.468,-136.33
16.484,-137.69
16.500,-136.59
16.515,-133.37
16.531,-128.79
16.546,-123.71
16.562,-118.8
16.578,-114.49
16.593,-110.96
16.609,-108.21
16.625,-106.17
16.640,-104.53
16.656,-102.67
16.671,-99.66
16.687,-94.43
16.703,-86.02
16.718,-73.89
16.734,-58.1
16.750,-39.22
16.765,-18.2
16.781,3.79
16.796,25.53
16.812,45.85
16.828,63.67
16.843,78.13
16.859,88.72
16.875,95.34
16.890,98.37
16.906,98.48
16.921,96.52
16.937,93.37
16.953,89.77
16.968,86.22
16.984,82.97
17.000,80.0
17.015,77.13
17.031,74.11
17.046,70.65
17.062,66.57
17.078,61.73
17.093,56.08
17.109,49.71
17.125,42.79
17.140,35.58
17.156,28.44
17.171,21.7
17.187,15.69
17.203,10.66
17.218,6.76
17.234,4.0
17.250,2.3
17.265,1.48
17.281,1.34
17.296,1.7
17.312,2.39
17.328,3.26
17.343,4.12
17.359,4.68
17.375,4.61
17.390,3.64
17.406,1.68
17.421,-1.18
17.437,-4.62
17.453,-8.26
17.468,-11.75
17.484,-14.85
17.500,-17.57
17.515,-20.07
17.531,-22.7
17.546,-25.85
17.562,-29.84
17.578,-34.8
17.593,-40.65
17.609,-47.06
17.625,-53.6
17.640,-59.93
17.656,-65.88
17.671,-71.6
17.687,-77.46
17.703,-83.99
17.718,-91.67
17.734,-100.72
17.750,-110.87
17.765,-121.2
17.781,-130.18
17.796,-135.85
17.812,-136.33
17.828,-130.26
17.843,-117.29
17.859,-98.3
17.875,-75.24
17.890,-50.76
17.906,-27.53
17.921,-7.63
17.937,7.77
17.953,18.52
17.968,25.17
17.984,28.63
18.000,29.83
18.015,29.52
18.031,28.31
18.046,26.71
18.062,25.15
18.078,23.94
18.093,23.15
18.109,22.56
18.125,21.75
18.140,20.35
18.156,18.15
18.171,15.25
18.187,11.83
18.203,8.1
18.218,4.12
18.234,-0.18
18.250,-4.86
18.265,-9.88
18.281,-15.07
18.296,-20.2
18.312,-25.19
18.328,-30.16
18.343,-35.53
18.359,-41.81
18.375,-49.44
18.390,-58.52
18.406,-68.56
18.421,-78.47
18.437,-86.69
18.453,-91.48
18.468,-91.47
18.484,-86.01
18.500,-75.38
18.515,-60.75
18.531,-43.76
18.546,-26.11
18.562,-9.17
18.578,6.16
18.593,19.4
18.609,30.36
18.625,38.96
18.640,45.34
18.656,49.87
18.671,53.27
18.687,56.51
18.703,60.55
18.718,66.01
18.734,72.9
18.750,80.72
18.765,88.64
18.781,95.89
18.796,101.95
18.812,106.7
18.828,110.28
18.843,112.89
18.859,114.7
18.875,115.79
18.890,116.21
18.906,116.0
18.921,115.19
18.937,113.87
18.953,112.12
18.968,110.08
18.984,107.9
19.000,105.73
19.015,103.58
19.031,101.3
19.046,98.66
19.062,95.5
19.078,91.83
19.093,87.94
19.109,84.21
19.125,80.95
19.140,78.21
19.156,75.73
19.171,73.14
19.187,70.13
19.203,66.69
19.218,63.04
19.234,59.53
19.250,56.31
19.265,53.24
19.281,49.91
19.296,45.78
19.312,40.5
19.328,34.09
19.343,26.93
19.359,19.64
19.375,12.8
19.390,6.73
19.406,1.4
19.421,-3.5
19.437,-8.41
19.453,-13.73
19.468,-19.67
19.484,-26.25
19.500,-33.35
19.515,-40.77
19.531,-48.4
19.546,-56.19
19.562,-64.22
19.578,-72.63
19.593,-81.59
19.609,-91.28
19.625,-101.85
19.640,-113.21
19.656,-124.86
19.671,-135.61
19.687,-143.62
19.703,-146.72
19.718,-143.04
19.734,-131.68
19.750,-113.18
19.765,-89.42
19.781,-63.16
19.796,-37.2
19.812,-13.78
19.828,5.81
19.843,21.08
19.859,32.14
19.875,39.36
19.890,43.29
19.906,44.63
19.921,44.26
19.937,43.13
19.953,42.12
19.968,41.83
19.984,42.43
20.000,43.63
20.015,44.93
20.031,45.75
20.046,45.72
20.062,44.68
20.078,42.72
20.093,39.97
20.109,36.54
20.125,32.39
20.140,27.47
20.156,21.79
20.171,15.52
20.187,8.94
20.203,2.3
20.218,-4.35
20.234,-11.25
20.250,-18.8
20.265,-27.31
20.281,-36.66
20.296,-46.05
20.312,-54.07
20.328,-58.9
20.343,-58.92
20.359,-53.19
20.375,-41.82
20.390,-26.01
20.406,-7.73
20.421,10.85
20.437,27.92
20.453,42.36
20.468,53.81
20.484,62.48
20.500,68.74
20.515,72.87
20.531,75.02
20.546,75.27
20.562,73.8
20.578,71.04
20.593,67.6
20.609,64.13
20.625,61.08
20.640,58.56
20.656,56.33
20.671,53.95
20.687,50.96
20.703,47.11
20.718,42.38
20.734,36.94
20.750,31.06
20.765,24.97
20.781,18.79
20.796,12.5
20.812,5.98
20.828,-0.93
20.843,-8.47
20.859,-16.88
20.875,-26.32
20.890,-36.75
20.906,-47.7
20.921,-58.2
20.937,-66.83
20.953,-71.96
20.968,-72.21
20.984,-66.8
21.000,-55.87
21.015,-40.42
21.031,-22.1
21.046,-2.82
21.062,15.73
21.078,32.27
21.093,46.03
21.109,56.69
21.125,64.26
21.140,68.92
21.156,71.02
21.171,71.02
21.187,69.5
21.203,67.09
21.218,64.41
21.234,61.83
21.250,59.43
21.265,57.01
21.281,54.2
21.296,50.72
21.312,46.53
21.328,41.83
21.343,36.88
21.359,31.83
21.375,26.58
21.390,20.82
21.406,14.24
21.421,6.77
21.437,-1.38
21.453,-9.71
21.468,-17.74
21.484,-25.18
21.500,-32.02
21.515,-38.56
21.531,-45.22
21.546,-52.46
21.562,-60.61
21.578,-69.68
21.593,-79.23
21.609,-88.24
21.625,-95.18
21.640,-98.38
21.656,-96.47
21.671,-88.84
21.687,-75.92
21.703,-59.09
21.718,-40.26
21.734,-21.36
21.750,-3.92
21.765,11.17
21.781,23.56
21.796,33.31
21.812,40.62
21.828,45.69
21.843,48.72
21.859,50.0
21.875,49.92
21.890,49.01
21.906,47.83
21.921,46.73
21.937,45.83
21.953,44.95
21.968,43.74
21.984,41.84
22.000,39.1
22.015,35.52
22.031,31.25
22.046,26.46
22.062,21.24
22.078,15.68
22.093,9.86
22.109,3.94
22.125,-1.92
22.140,-7.54
22.156,-12.92
22.171,-18.13
22.187,-23.35
22.203,-28.73
22.218,-34.38
22.234,-40.31
22.250,-46.52
22.265,-52.95
22.281,-59.57
22.296,-66.32
22.312,-73.15
22.328,-79.97
22.343,-86.63
22.359,-92.83
22.375,-97.96
22.390,-101.12
22.406,-101.17
22.421,-97.0
22.437,-87.99
22.453,-74.21
22.468,-56.62
22.484,-36.76
22.500,-16.44
22.515,2.83
22.531,20.04
22.546,34.74
22.562,46.87
22.578,56.44
22.593,63.47
22.609,68.0
22.625,70.22
22.640,70.6
22.656,69.77
22.671,68.42
22.687,67.01
22.703,65.72
22.718,64.43
22.734,62.94
22.750,61.1
22.765,58.92
22.781,56.49
22.796,53.94
22.812,51.32
22.828,48.6
22.843,45.72
22.859,42.68
22.875,39.57
22.890,36.53
22.906,33.61
22.921,30.78
22.937,27.92
22.953,24.88
22.968,21.63
22.984,18.38
23.000,15.44
23.015,13.15
23.031,11.68
23.046,10.9
23.062,10.52
23.078,10.16
23.093,9.45
23.109,8.15
23.125,6.08
23.140,3.21
23.156,-0.26
23.171,-3.77
23.187,-6.34
23.203,-6.77
23.218,-3.97
23.234,2.6
23.250,12.63
23.265,25.11
23.281,38.59
23.296,51.66
23.312,63.31
23.328,72.89
23.343,79.99
23.359,84.24
23.375,85.24
23.390,82.75
23.406,76.96
23.421,68.59
23.437,58.9
23.453,49.26
23.468,40.79
23.484,34.04
23.500,28.97
23.515,25.18
23.531,22.21
23.546,19.75
23.562,17.72
23.578,16.14
23.593,14.92
23.609,13.78
23.625,12.23
23.640,9.84
23.656,6.39
23.671,2.07
23.687,-2.61
23.703,-7.03
23.718,-10.75
23.734,-13.69
23.750,-16.17
23.765,-18.65
23.781,-21.51
23.796,-24.76
23.812,-28.16
23.828,-31.33
23.843,-34.12
23.859,-36.72
23.875,-39.6
23.890,-43.32
23.906,-48.26
23.921,-54.37
23.937,-61.13
23.953,-67.61
23.968,-72.63
23.984,-75.05
24.000,-73.97
24.015,-68.98
24.031,-60.28
24.046,-48.67
24.062,-35.29
24.078,-21.3
24.093,-7.67
24.109,5.01
24.125,16.46
24.140,26.48
24.156,34.88
24.171,41.41
24.187,45.86
24.203,48.17
24.218,48.51
24.234,47.25
24.250,44.89
24.265,41.93
24.281,38.82
24.296,35.81
24.312,33.03
24.328,30.51
24.343,28.1
24.359,25.65
24.375,22.99
24.390,20.0
24.406,16.63
24.421,12.9
24.437,8.9
24.453,4.67
24.468,0.19
24.484,-4.67
24.500,-10.23
24.515,-16.89
24.531,-25.03
24.546,-34.79
24.562,-45.94
24.578,-57.81
24.593,-69.5
24.609,-80.07
24.625,-88.83
24.640,-95.47
24.656,-100.14
24.671,-103.33
24.687,-105.65
24.703,-107.63
24.718,-109.51
24.734,-111.15
24.750,-111.94
24.765,-110.99
24.781,-107.38
24.796,-100.47
24.812,-90.18
24.828,-77.1
24.843,-62.29
24.859,-47.02
24.875,-32.4
24.890,-19.14
24.906,-7.55
24.921,2.38
24.937,10.72
24.953,17.55
24.968,22.9
24.984,26.83
25.000,29.46
25.015,31.04
25.031,31.87
25.046,32.27
25.062,32.43
25.078,32.4
25.093,32.14
25.109,31.57
25.125,30.67
25.140,29.45
25.156,28.02
25.171,26.45
25.187,24.79
25.203,23.05
25.218,21.24
25.234,19.45
25.250,17.74
25.265,16.12
25.281,14.42
25.296,12.43
25.312,9.84
25.328,6.53
25.343,2.57
25.359,-1.79
25.375,-6.26
25.390,-10.64
25.406,-14.94
25.421,-19.31
25.437,-23.97
25.453,-29.13
25.468,-34.88
25.484,-41.17
25.500,-47.81
25.515,-54.31
25.531,-59.92
25.546,-63.68
25.562,-64.57
25.578,-61.98
25.593,-55.83
25.609,-46.75
25.625,-35.8
25.640,-24.17
25.656,-12.82
25.671,-2.33
25.687,7.1
25.703,15.33
25.718,22.24
25.734,27.62
25.750,31.26
25.765,33.17
25.781,33.59
25.796,32.97
25.812,31.86
25.828,30.77
25.843,30.04
25.859,29.85
25.875,30.18
25.890,30.86
25.906,31.67
25.921,32.36
25.937,32.76
25.953,32.83
25.968,32.66
25.984,32.39
26.000,32.11
26.015,31.72
26.031,31.02
26.046,29.66
26.062,27.41
26.078,24.25
26.093,20.42
26.109,16.36
26.125,12.5
26.140,9.11
26.156,6.17
26.171,3.4
26.187,0.41
26.203,-3.15
26.218,-7.52
26.234,-12.77
26.250,-18.81
26.265,-25.38
26.281,-32.01
26.296,-37.95
26.312,-42.23
26.328,-43.82
26.343,-41.99
26.359,-36.58
26.375,-28.13
26.390,-17.76
26.406,-6.78
26.421,3.65
26.437,12.79
26.453,20.45
26.468,26.74
26.484,31.84
26.500,35.87
26.515,38.74
26.531,40.34
26.546,40.65
26.562,39.88
26.578,38.44
26.593,36.84
26.609,35.48
26.625,34.55
26.640,33.95
26.656,33.42
26.671,32.67
26.687,31.51
26.703,29.88
26.718,27.82
26.734,25.31
26.750,22.29
26.765,18.63
26.781,14.17
26.796,8.89
26.812,2.94
26.828,-3.43
26.843,-9.86
26.859,-16.0
26.875,-21.62
26.890,-26.65
26.906,-31.21
26.921,-35.56
26.937,-40.05
26.953,-44.91
26.968,-50.29
26.984,-56.22
27.000,-62.61
27.015,-69.24
27.031,-75.69
27.046,-81.24
27.062,-84.94
27.078,-85.73
27.093,-82.77
27.109,-75.79
27.125,-65.2
27.140,-52.08
27.156,-37.82
27.171,-23.72
27.187,-10.7
27.203,0.78
27.218,10.59
27.234,18.77
27.250,25.27
27.265,30.06
27.281,33.14
27.296,34.66
27.312,34.94
27.328,34.44
27.343,33.62
27.359,32.82
27.375,32.21
27.390,31.79
27.406,31.46
27.421,31.04
27.437,30.36
27.453,29.32
27.468,27.88
27.484,26.07
27.500,23.95
27.515,21.56
27.531,18.9
27.546,15.91
27.562,12.55
27.578,8.79
27.593,4.7
27.609,0.4
27.625,-3.98
27.640,-8.35
27.656,-12.69
27.671,-17.07
27.687,-21.55
27.703,-26.18
27.718,-31.07
27.734,-36.29
27.750,-42.02
27.765,-48.41
27.781,-55.48
27.796,-62.88
27.812,-69.81
27.828,-75.01
27.843,-77.18
27.859,-75.27
27.875,-68.99
27.890,-58.89
27.906,-46.18
27.921,-32.4
27.937,-18.87
27.953,-6.46
27.968,4.53
27.984,14.07
28.000,22.21
28.015,28.91
28.031,34.02
28.046,37.42
28.062,39.21
28.078,39.73
28.093,39.51
28.109,39.1
28.125,38.85
28.140,38.89
28.156,39.08
28.171,39.16
28.187,38.86
28.203,38.05
28.218,36.67
28.234,34.76
28.250,32.37
28.265,29.49
28.281,26.07
28.296,22.11
28.312,17.63
28.328,12.73
28.343,7.57
28.359,2.22
28.375,-3.2
28.390,-8.62
28.406,-14.02
28.421,-19.38
28.437,-24.7
28.453,-30.06
28.468,-35.6
28.484,-41.52
28.500,-48.0
28.515,-55.14
28.531,-62.75
28.546,-70.27
28.562,-76.74
28.578,-80.84
28.593,-81.32
28.609,-77.31
28.625,-68.72
28.640,-56.29
28.656,-41.41
28.671,-25.64
28.687,-10.32
28.703,3.76
28.718,16.23
28.734,26.94
28.750,35.72
28.765,42.38
28.781,46.81
28.796,49.17
28.812,49.93
28.828,49.76
28.843,49.29
28.859,48.88
28.875,48.57
28.890,48.16
28.906,47.4
28.921,46.13
28.937,44.36
28.953,42.22
28.968,39.91
28.984,37.56
29.000,35.19
29.015,32.69
29.031,29.84
29.046,26.39
29.062,22.17
29.078,17.19
29.093,11.67
29.109,6.02
29.125,0.63
29.140,-4.27
29.156,-8.69
29.171,-12.92
29.187,-17.38
29.203,-22.52
29.218,-28.66
29.234,-35.96
29.250,-44.31
29.265,-53.26
29.281,-61.92
29.296,-69.02
29.312,-73.12
29.328,-73.06
29.343,-68.29
29.359,-59.14
29.375,-46.74
29.390,-32.65
29.406,-18.36
29.421,-5.0
29.437,6.89
29.453,17.12
29.468,25.71
29.484,32.61
29.500,37.7
29.515,40.87
29.531,42.23
29.546,42.15
29.562,41.27
29.578,40.24
29.593,39.53
29.609,39.29
29.625,39.3
29.640,39.16
29.656,38.52
29.671,37.26
29.687,35.48
29.703,33.42
29.718,31.26
29.734,29.0
29.750,26.41
29.765,23.14
29.781,18.93
29.796,13.69
29.812,7.6
29.828,1.08
29.843,-5.42
29.859,-11.52
29.875,-17.05
29.890,-22.06
29.906,-26.83
29.921,-31.75
29.937,-37.29
29.953,-43.87
29.968,-51.66
29.984,-60.49
30.000,-69.61
30.015,-77.78
30.031,-83.42
30.046,-85.05
30.062,-81.75
30.078,-73.51
30.093,-61.23
30.109,-46.46
30.125,-30.9
30.140,-15.96
30.156,-2.5
30.171,9.15
30.187,18.99
30.203,27.09
30.218,33.44
30.234,38.02
30.250,40.8
30.265,42.01
30.281,42.1
30.296,41.63
30.312,41.08
30.328,40.71
30.343,40.45
30.359,40.04
30.375,39.21
30.390,37.82
30.406,35.95
30.421,33.79
30.437,31.57
30.453,29.35
30.468,27.08
30.484,24.51
30.500,21.4
30.515,17.6
30.531,13.06
30.546,7.89
30.562,2.35
30.578,-3.29
30.593,-8.79
30.609,-13.98
30.625,-18.92
30.640,-23.82
30.656,-29.07
30.671,-35.12
30.687,-42.28
30.703,-50.52
30.718,-59.31
30.734,-67.55
30.750,-73.75
30.765,-76.43
30.781,-74.52
30.796,-67.77
30.812,-56.81
30.828,-42.94
30.843,-27.73
30.859,-12.6
30.875,1.44
30.890,13.76
30.906,24.03
30.921,32.09
30.937,37.86
30.953,41.49
30.968,43.33
30.984,43.91
31.000,43.83
31.015,43.67
31.031,43.76
31.046,44.25
31.062,45.15
31.078,46.33
31.093,47.66
31.109,48.99
31.125,50.19
31.140,51.16
31.156,51.86
31.171,52.28
31.187,52.38
31.203,52.13
31.218,51.44
31.234,50.19
31.250,48.42
31.265,46.32
31.281,44.22
31.296,42.48
31.312,41.29
31.328,40.53
31.343,39.84
31.359,38.76
31.375,36.97
31.390,34.45
31.406,31.41
31.421,28.24
31.437,25.27
31.453,22.68
31.468,20.47
31.484,18.52
31.500,16.72
31.515,15.01
31.531,13.41
31.546,11.98
31.562,10.84
31.578,10.07
31.593,9.78
31.609,10.11
31.625,11.17
31.640,12.96
31.656,15.28
31.671,17.82
31.687,20.11
31.703,21.68
31.718,22.13
31.734,21.14
31.750,18.56
31.765,14.37
31.781,8.7
31.796,1.91
31.812,-5.49
31.828,-12.96
31.843,-19.98
31.859,-26.38
31.875,-32.29
31.890,-38.09
31.906,-44.23
31.921,-51.03
31.937,-58.48
31.953,-66.28
31.968,-74.02
31.984,-81.31
32.000,-88.01
32.015,-94.27
32.031,-100.54
32.046,-107.42
32.062,-115.51
32.078,-125.08
32.093,-135.8
32.109,-146.59
32.125,-155.57
32.140,-160.65
32.156,-160.05
32.171,-152.96
32.187,-139.79
32.203,-122.06
32.218,-101.83
32.234,-81.11
32.250,-61.41
32.265,-43.64
32.281,-28.23
32.296,-15.41
32.312,-5.24
32.328,2.28
32.343,7.43
32.359,10.72
32.375,12.93
32.390,14.76
32.406,16.74
32.421,19.08
32.437,21.68
32.453,24.33
32.468,26.72
32.484,28.71
32.500,30.26
32.515,31.47
32.531,32.36
32.546,32.88
32.562,32.82
32.578,31.88
32.593,29.86
32.609,26.68
32.625,22.61
32.640,18.1
32.656,13.72
32.671,9.93
32.687,7.0
32.703,4.81
32.718,2.88
32.734,0.56
32.750,-2.89
32.765,-7.95
32.781,-14.64
32.796,-22.37
32.812,-29.93
32.828,-35.72
32.843,-38.19
32.859,-36.3
32.875,-29.88
32.890,-19.65
32.906,-6.99
32.921,6.54
32.937,19.56
32.953,31.22
32.968,41.13
32.984,49.16
33.000,55.24
33.015,59.27
33.031,61.17
33.046,61.08
33.062,59.41
33.078,56.83
33.093,54.04
33.109,51.6
33.125,49.77
33.140,48.46
33.156,47.47
33.171,46.57
33.187,45.68
33.203,44.75
33.218,43.74
33.234,42.45
33.250,40.51
33.265,37.52
33.281,33.18
33.296,27.5
33.312,20.82
33.328,13.72
33.343,6.85
33.359,0.61
33.375,-4.94
33.390,-10.13
33.406,-15.58
33.421,-21.93
33.437,-29.61
33.453,-38.57
33.468,-48.2
33.484,-57.29
33.500,-64.29
33.515,-67.64
33.531,-66.24
33.546,-59.77
33.562,-48.86
33.578,-34.87
33.593,-19.58
33.609,-4.69
33.625,8.61
33.640,19.68
33.656,28.42
33.671,34.97
33.687,39.6
33.703,42.54
33.718,44.05
33.734,44.42
33.750,44.03
33.765,43.31
33.781,42.56
33.796,41.93
33.812,41.4
33.828,40.86
33.843,40.19
33.859,39.37
33.875,38.47
33.890,37.5
33.906,36.36
33.921,34.74
33.937,32.21
33.953,28.43
33.968,23.32
33.984,17.11
34.000,10.27
34.015,3.39
34.031,-3.14
34.046,-9.21
34.062,-15.05
34.078,-21.1
34.093,-27.8
34.109,-35.4
34.125,-43.7
34.140,-52.01
34.156,-59.16
34.171,-63.73
34.187,-64.45
34.203,-60.57
34.218,-52.1
34.234,-39.91
34.250,-25.49
34.265,-10.54
34.281,3.45
34.296,15.45
34.312,25.07
34.328,32.36
34.343,37.6
34.359,41.11
34.375,43.11
34.390,43.78
34.406,43.37
34.421,42.26
34.437,40.92
34.453,39.79
34.468,39.1
34.484,38.81
34.500,38.68
34.515,38.39
34.531,37.73
34.546,36.64
34.562,35.13
34.578,33.19
34.593,30.71
34.609,27.51
34.625,23.51
34.640,18.81
34.656,13.75
34.671,8.77
34.687,4.2
34.703,0.11
34.718,-3.79
34.734,-8.02
34.750,-13.15
34.765,-19.6
34.781,-27.27
34.796,-35.51
34.812,-43.05
34.828,-48.29
34.843,-49.72
34.859,-46.4
34.875,-38.29
34.890,-26.32
34.906,-12.04
34.921,2.87
34.937,17.1
34.953,29.84
34.968,40.84
34.984,50.03
35.000,57.39
35.015,62.8
35.031,66.21
35.046,67.75
35.062,67.87
35.078,67.23
35.093,66.51
35.109,66.2
35.125,66.41
35.140,66.92
35.156,67.37
35.171,67.38
35.187,66.78
35.203,65.57
35.218,63.87
35.234,61.8
35.250,59.44
35.265,56.81
35.281,53.98
35.296,51.06
35.312,48.21
35.328,45.59
35.343,43.23
35.359,41.12
35.375,39.21
35.390,37.47
35.406,35.9
35.421,34.51
35.437,33.26
35.453,32.07
35.468,30.88
35.484,29.7
35.500,28.59
35.515,27.63
35.531,26.88
35.546,26.27
35.562,25.59
35.578,24.6
35.593,23.03
35.609,20.75
35.625,17.69
35.640,13.87
35.656,9.36
35.671,4.22
35.687,-1.42
35.703,-7.41
35.718,-13.5
35.734,-19.4
35.750,-24.85
35.765,-29.68
35.781,-33.82
35.796,-37.31
35.812,-40.22
35.828,-42.62
35.843,-44.57
35.859,-46.17
35.875,-47.67
35.890,-49.44
35.906,-51.92
35.921,-55.47
35.937,-60.14
35.953,-65.69
35.968,-71.64
35.984,-77.49
36.000,-82.92
36.015,-87.93
36.031,-92.8
36.046,-98.01
36.062,-104.1
36.078,-111.44
36.093,-120.16
36.109,-130.0
36.125,-140.12
36.140,-149.12
36.156,-155.15
36.171,-156.33
36.187,-151.28
36.203,-139.64
36.218,-122.28
36.234,-101.07
36.250,-78.35
36.265,-56.33
36.281,-36.53
36.296,-19.72
36.312,-5.98
36.328,4.96
36.343,13.5
36.359,19.95
36.375,24.64
36.390,27.99
36.406,30.49
36.421,32.62
36.437,34.7
36.453,36.73
36.468,38.5
36.484,39.68
36.500,40.07
36.515,39.76
36.531,39.1
36.546,38.47
36.562,38.1
36.578,37.89
36.593,37.52
36.609,36.51
36.625,34.56
36.640,31.63
36.656,28.03
36.671,24.21
36.687,20.6
36.703,17.46
36.718,14.77
36.734,12.23
36.750,9.42
36.765,5.93
36.781,1.52
36.796,-3.74
36.812,-9.37
36.828,-14.45
36.843,-17.79
36.859,-18.18
36.875,-14.78
36.890,-7.36
36.906,3.56
36.921,16.84
36.937,31.08
36.953,44.99
36.968,57.65
36.984,68.56
37.000,77.46
37.015,84.22
37.031,88.71
37.046,90.82
37.062,90.52
37.078,87.99
37.093,83.54
37.109,77.6
37.125,70.51
37.140,62.55
37.156,53.86
37.171,44.5
37.187,34.6
37.203,24.34
37.218,13.98
37.234,3.78
37.250,-6.15
37.265,-15.88
37.281,-25.58
37.296,-35.42
37.312,-45.33
37.328,-54.98
37.343,-63.78
37.359,-71.18
37.375,-76.79
37.390,-80.65
37.406,-83.16
37.421,-84.98
37.437,-86.7
37.453,-88.74
37.468,-91.13
37.484,-93.41
37.500,-94.81
37.515,-94.26
37.531,-90.73
37.546,-83.54
37.562,-72.6
37.578,-58.52
37.593,-42.55
37.609,-26.14
37.625,-10.64
37.640,3.05
37.656,14.53
37.671,23.78
37.687,30.89
37.703,35.95
37.718,39.02
37.734,40.25
37.750,39.99
37.765,38.82
37.781,37.43
37.796,36.33
37.812,35.73
37.828,35.41
37.843,34.96
37.859,34.0
37.875,32.39
37.890,30.32
37.906,28.11
37.921,26.0
37.937,23.97
37.953,21.72
37.968,18.88
37.984,15.21
38.000,10.77
38.015,5.87
38.031,0.96
38.046,-3.64
38.062,-7.82
38.078,-11.73
38.093,-15.69
38.109,-20.12
38.125,-25.33
38.140,-31.44
38.156,-38.19
38.171,-44.89
38.187,-50.43
38.203,-53.59
38.218,-53.36
38.234,-49.28
38.250,-41.69
38.265,-31.57
38.281,-20.25
38.296,-8.96
38.312,1.4
38.328,10.4
38.343,17.91
38.359,24.0
38.375,28.71
38.390,32.03
38.406,33.93
38.421,34.5
38.437,33.99
38.453,32.78
38.468,31.3
38.484,29.88
38.500,28.65
38.515,27.54
38.531,26.33
38.546,24.8
38.562,22.86
38.578,20.56
38.593,18.03
38.609,15.37
38.625,12.52
38.640,9.28
38.656,5.39
38.671,0.7
38.687,-4.65
38.703,-10.25
38.718,-15.5
38.734,-19.88
38.750,-23.2
38.765,-25.64
38.781,-27.85
38.796,-30.63
38.812,-34.67
38.828,-40.29
38.843,-47.21
38.859,-54.5
38.875,-60.84
38.890,-64.74
38.906,-65.02
38.921,-61.11
38.937,-53.23
38.953,-42.27
38.968,-29.56
38.984,-16.45
39.000,-4.0
39.015,7.14
39.031,16.67
39.046,24.53
39.062,30.66
39.078,35.03
39.093,37.63
39.109,38.58
39.125,38.25
39.140,37.15
39.156,35.89
39.171,34.89
39.187,34.36
39.203,34.17
39.218,34.02
39.234,33.54
39.250,32.47
39.265,30.78
39.281,28.63
39.296,26.23
39.312,23.79
39.328,21.29
39.343,18.54
39.359,15.32
39.375,11.51
39.390,7.21
39.406,2.78
39.421,-1.37
39.437,-4.94
39.453,-7.89
39.468,-10.49
39.484,-13.22
39.500,-16.56
39.515,-20.87
39.531,-26.25
39.546,-32.53
39.562,-39.32
39.578,-45.98
39.593,-51.67
39.609,-55.43
39.625,-56.37
39.640,-53.86
39.656,-47.76
39.671,-38.57
39.687,-27.26
39.703,-15.06
39.718,-3.16
39.734,7.58
39.750,16.71
39.765,24.13
39.781,29.93
39.796,34.28
39.812,37.34
39.828,39.32
39.843,40.48
39.859,41.17
39.875,41.79
39.890,42.67
39.906,43.98
39.921,45.68
39.937,47.51
39.953,49.13
39.968,50.21
39.984,50.58
40.000,50.23
40.015,49.25
40.031,47.81
40.046,46.04
40.062,43.99
40.078,41.72
40.093,39.25
40.109,36.64
40.125,34.0
40.140,31.43
40.156,29.03
40.171,26.86
40.187,24.98
40.203,23.4
40.218,22.09
40.234,20.94
40.250,19.87
40.265,18.79
40.281,17.74
40.296,16.86
40.312,16.3
40.328,16.13
40.343,16.28
40.359,16.55
40.375,16.62
40.390,16.31
40.406,15.53
40.421,14.38
40.437,13.1
40.453,11.9
40.468,10.93
40.484,10.23
40.500,9.67
40.515,9.12
40.531,8.4
40.546,7.45
40.562,6.27
40.578,4.95
40.593,3.63
40.609,2.4
40.625,1.31
40.640,0.33
40.656,-0.62
40.671,-1.7
40.687,-3.04
40.703,-4.76
40.718,-6.84
40.734,-9.22
40.750,-11.76
40.765,-14.34
40.781,-17.03
40.796,-19.97
40.812,-23.39
40.828,-27.49
40.843,-32.26
40.859,-37.52
40.875,-42.99
40.890,-48.36
40.906,-53.42
40.921,-58.18
40.937,-62.84
40.953,-67.79
40.968,-73.46
40.984,-80.19
41.000,-87.94
41.015,-96.02
41.031,-103.07
41.046,-107.23
41.062,-106.71
41.078,-100.31
41.093,-87.96
41.109,-70.75
41.125,-50.62
41.140,-29.72
41.156,-9.83
41.171,8.04
41.187,23.64
41.203,37.17
41.218,48.96
41.234,59.23
41.250,68.03
41.265,75.4
41.281,81.35
41.296,85.91
41.312,89.0
41.328,90.42
41.343,89.84
41.359,87.01
41.375,81.88
41.390,74.75
41.406,66.23
41.421,57.06
41.437,47.88
41.453,39.11
41.468,30.96
41.484,23.49
41.500,16.7
41.515,10.58
41.531,5.03
41.546,-0.16
41.562,-5.34
41.578,-10.95
41.593,-17.35
41.609,-24.76
41.625,-33.17
41.640,-42.47
41.656,-52.53
41.671,-63.31
41.687,-74.8
41.703,-86.94
41.718,-99.4
41.734,-111.4
41.750,-121.78
41.765,-129.18
41.781,-132.37
41.796,-130.64
41.812,-124.02
41.828,-113.22
41.843,-99.46
41.859,-84.1
41.875,-68.35
41.890,-53.08
41.906,-38.81
41.921,-25.81
41.937,-14.33
41.953,-4.66
41.968,2.96
41.984,8.42
42.000,11.99
42.015,14.26
42.031,16.01
42.046,17.94
42.062,20.39
42.078,23.23
42.093,26.07
42.109,28.45
42.125,30.17
42.140,31.3
42.156,32.12
42.171,32.79
42.187,33.24
42.203,33.05
42.218,31.62
42.234,28.55
42.250,23.79
42.265,17.77
42.281,11.29
42.296,5.15
42.312,-0.14
42.328,-4.52
42.343,-8.4
42.359,-12.48
42.375,-17.41
42.390,-23.65
42.406,-31.26
42.421,-39.82
42.437,-48.47
42.453,-56.04
42.468,-61.16
42.484,-62.66
42.500,-59.89
42.515,-52.89
42.531,-42.46
42.546,-29.88
42.562,-16.58
42.578,-3.77
42.593,7.81
42.609,17.83
42.625,26.29
42.640,33.28
42.656,38.87
42.671,43.06
42.687,45.85
42.703,47.37
42.718,47.89
42.734,47.85
42.750,47.7
42.765,47.77
42.781,48.07
42.796,48.37
42.812,48.33
42.828,47.7
42.843,46.46
42.859,44.72
42.875,42.58
42.890,40.0
42.906,36.68
42.921,32.27
42.937,26.6
42.953,19.82
42.968,12.43
42.984,5.07
43.000,-1.73
43.015,-7.76
43.031,-13.14
43.046,-18.27
43.062,-23.65
43.078,-29.72
43.093,-36.78
43.109,-44.85
43.125,-53.56
43.140,-62.13
43.156,-69.38
43.171,-73.98
43.187,-74.79
43.203,-71.17
43.218,-63.25
43.234,-51.86
43.250,-38.29
43.265,-23.96
43.281,-10.04
43.296,2.71
43.312,13.99
43.328,23.78
43.343,32.09
43.359,38.9
43.375,44.11
43.390,47.65
43.406,49.68
43.421,50.61
43.437,50.96
43.453,51.16
43.468,51.32
43.484,51.26
43.500,50.64
43.515,49.18
43.531,46.95
43.546,44.24
43.562,41.48
43.578,38.91
43.593,36.47
43.609,33.8
43.625,30.45
43.640,26.11
43.656,20.77
43.671,14.75
43.687,8.54
43.703,2.61
43.718,-2.71
43.734,-7.41
43.750,-11.72
43.765,-16.06
43.781,-20.86
43.796,-26.54
43.812,-33.28
43.828,-41.03
43.843,-49.35
43.859,-57.35
43.875,-63.76
43.890,-67.14
43.906,-66.27
43.921,-60.55
43.937,-50.35
43.953,-36.92
43.968,-22.09
43.984,-7.67
44.000,5.01
44.015,15.46
44.031,23.8
44.046,30.5
44.062,35.9
44.078,40.08
44.093,42.92
44.109,44.35
44.125,44.53
44.140,43.9
44.156,42.94
44.171,41.97
44.187,40.99
44.203,39.74
44.218,37.88
44.234,35.26
44.250,31.98
44.265,28.43
44.281,24.99
44.296,21.91
44.312,19.17
44.328,16.57
44.343,13.84
44.359,10.78
44.375,7.38
44.390,3.82
44.406,0.41
44.421,-2.59
44.437,-5.09
44.453,-7.2
44.468,-9.26
44.484,-11.72
44.500,-15.05
44.515,-19.58
44.531,-25.49
44.546,-32.64
44.562,-40.61
44.578,-48.61
44.593,-55.51
44.609,-60.05
44.625,-61.09
44.640,-57.95
44.656,-50.6
44.671,-39.78
44.687,-26.66
44.703,-12.65
44.718,1.06
44.734,13.59
44.750,24.45
44.765,33.44
44.781,40.46
44.796,45.54
44.812,48.71
44.828,50.16
44.843,50.24
44.859,49.47
44.875,48.4
44.890,47.48
44.906,46.96
44.921,46.7
44.937,46.26
44.953,45.15
44.968,43.05
44.984,39.99
45.000,36.41
45.015,32.84
45.031,29.58
45.046,26.56
45.062,23.26
45.078,19.09
45.093,13.71
45.109,7.32
45.125,0.49
45.140,-6.04
45.156,-11.77
45.171,-16.62
45.187,-20.89
45.203,-25.03
45.218,-29.44
45.234,-34.36
45.250,-39.86
45.265,-45.88
45.281,-52.13
45.296,-57.98
45.312,-62.45
45.328,-64.34
45.343,-62.59
45.359,-56.69
45.375,-46.92
45.390,-34.33
45.406,-20.38
45.421,-6.53
45.437,6.13
45.453,17.04
45.468,26.07
45.484,33.27
45.500,38.76
45.515,42.57
45.531,44.74
45.546,45.42
45.562,44.97
45.578,43.92
45.593,42.8
45.609,41.96
45.625,41.47
45.640,41.13
45.656,40.56
45.671,39.53
45.687,37.95
45.703,35.98
45.718,33.83
45.734,31.58
45.750,29.1
45.765,26.07
45.781,22.18
45.796,17.29
45.812,11.55
45.828,5.33
45.843,-0.92
45.859,-6.86
45.875,-12.35
45.890,-17.49
45.906,-22.6
45.921,-28.08
45.937,-34.3
45.953,-41.49
45.968,-49.52
45.984,-57.83
46.000,-65.4
46.015,-70.91
46.031,-73.09
46.046,-71.06
46.062,-64.69
46.078,-54.56
46.093,-41.88
46.109,-28.1
46.125,-14.51
46.140,-2.0
46.156,8.99
46.171,18.39
46.187,26.23
46.203,32.56
46.218,37.34
46.234,40.56
46.250,42.38
46.265,43.11
46.281,43.22
46.296,43.15
46.312,43.18
46.328,43.26
46.343,43.17
46.359,42.58
46.375,41.21
46.390,39.04
46.406,36.19
46.421,32.94
46.437,29.51
46.453,25.99
46.468,22.26
46.484,18.09
46.500,13.26
46.515,7.69
46.531,1.57
46.546,-4.7
46.562,-10.63
46.578,-15.88
46.593,-20.37
46.609,-24.4
46.625,-28.45
46.640,-33.1
46.656,-38.77
46.671,-45.6
46.687,-53.35
46.703,-61.38
46.718,-68.65
46.734,-73.9
46.750,-75.87
46.765,-73.7
46.781,-67.11
46.796,-56.64
46.812,-43.43
46.828,-28.96
46.843,-14.61
46.859,-1.41
46.875,10.12
46.890,19.82
46.906,27.78
46.921,34.05
46.937,38.66
46.953,41.67
46.968,43.23
46.984,43.64
47.000,43.35
47.015,42.76
47.031,42.12
47.046,41.43
47.062,40.54
47.078,39.23
47.093,37.4
47.109,35.13
47.125,32.63
47.140,30.12
47.156,27.73
47.171,25.41
47.187,22.95
47.203,20.09
47.218,16.54
47.234,12.21
47.250,7.13
47.265,1.61
47.281,-3.97
47.296,-9.15
47.312,-13.67
47.328,-17.62
47.343,-21.29
47.359,-25.18
47.375,-29.65
47.390,-34.88
47.406,-40.77
47.421,-47.02
47.437,-53.18
47.453,-58.64
47.468,-62.65
47.484,-64.35
47.500,-62.95
47.515,-57.93
47.531,-49.32
47.546,-37.74
47.562,-24.31
47.578,-10.34
47.593,3.0
47.609,14.87
47.625,24.81
47.640,32.57
47.656,38.13
47.671,41.55
47.687,43.08
47.703,43.18
47.718,42.5
47.734,41.74
47.750,41.4
47.765,41.65
47.781,42.16
47.796,42.31
47.812,41.42
47.828,39.13
47.843,35.6
47.859,31.51
47.875,27.8
47.890,25.16
47.906,23.74
47.921,22.97
47.937,21.89
47.953,19.51
47.968,15.37
47.984,9.65
48.000,3.12
48.015,-3.32
48.031,-9.02
48.046,-13.85
48.062,-18.12
48.078,-22.39
48.093,-27.24
48.109,-33.1
48.125,-40.14
48.140,-48.27
48.156,-57.04
48.171,-65.56
48.187,-72.57
48.203,-76.59
48.218,-76.44
48.234,-71.55
48.250,-62.21
48.265,-49.56
48.281,-35.13
48.296,-20.49
48.312,-6.79
48.328,5.29
48.343,15.5
48.359,23.82
48.375,30.29
48.390,35.0
48.406,38.14
48.421,40.03
48.437,41.18
48.453,42.15
48.468,43.38
48.484,45.1
48.500,47.22
48.515,49.45
48.531,51.44
48.546,52.92
48.562,53.77
48.578,54.04
48.593,53.86
48.609,53.32
48.625,52.5
48.640,51.39
48.656,49.98
48.671,48.27
48.687,46.28
48.703,44.07
48.718,41.7
48.734,39.23
48.750,36.73
48.765,34.23
48.781,31.73
48.796,29.12
48.812,26.32
48.828,23.26
48.843,20.02
48.859,16.77
48.875,13.76
48.890,11.2
48.906,9.16
48.921,7.54
48.937,6.11
48.953,4.62
48.968,2.93
48.984,1.04
49.000,-0.96
49.015,-2.94
49.031,-4.83
49.046,-6.65
49.062,-8.43
49.078,-10.16
49.093,-11.83
49.109,-13.42
49.125,-14.91
49.140,-16.32
49.156,-17.64
49.171,-18.83
49.187,-19.87
49.203,-20.75
49.218,-21.59
49.234,-22.67
49.250,-24.23
49.265,-26.38
49.281,-28.93
49.296,-31.54
49.312,-33.84
49.328,-35.66
49.343,-37.13
49.359,-38.63
49.375,-40.62
49.390,-43.4
49.406,-47.01
49.421,-51.3
49.437,-56.0
49.453,-60.86
49.468,-65.69
49.484,-70.42
49.500,-75.11
49.515,-79.91
49.531,-85.12
49.546,-91.1
49.562,-98.14
49.578,-106.13
49.593,-114.44
49.609,-121.74
49.625,-126.28
49.640,-126.3
49.656,-120.67
49.671,-109.28
49.687,-93.19
49.703,-74.31
49.718,-54.84
49.734,-36.64
49.750,-20.84
49.765,-7.85
49.781,2.44
49.796,10.33
49.812,16.1
49.828,19.97
49.843,22.29
49.859,23.58
49.875,24.49
49.890,25.64
49.906,27.4
49.921,29.77
49.937,32.39
49.953,34.76
49.968,36.47
49.984,37.38
50.000,37.62
50.015,37.48
50.031,37.22
50.046,36.85
50.062,36.16
50.078,34.77
50.093,32.32
50.109,28.65
50.125,23.95
50.140,18.64
50.156,13.28
50.171,8.3
50.187,3.88
50.203,-0.09
50.218,-3.92
50.234,-8.03
50.250,-12.8
50.265,-18.53
50.281,-25.26
50.296,-32.62
50.312,-39.84
50.328,-45.67
50.343,-48.77
50.359,-48.09
50.375,-43.24
50.390,-34.66
50.406,-23.5
50.421,-11.23
50.437,0.79
50.453,11.57
50.468,20.63
50.484,27.83
50.500,33.18
50.515,36.8
50.531,38.81
50.546,39.37
50.562,38.8
50.578,37.5
50.593,35.94
50.609,34.56
50.625,33.57
50.640,32.95
50.656,32.49
50.671,31.92
50.687,31.02
50.703,29.74
50.718,28.1
50.734,26.11
50.750,23.7
50.765,20.71
50.781,17.02
50.796,12.63
50.812,7.69
50.828,2.49
50.843,-2.71
50.859,-7.81
50.875,-12.9
50.890,-18.2
50.906,-24.01
50.921,-30.61
50.937,-38.07
50.953,-46.15
50.968,-54.13
50.984,-60.84
51.000,-64.9
51.015,-65.07
51.031,-60.74
51.046,-52.16
51.062,-40.4
51.078,-26.99
51.093,-13.43
51.109,-0.83
51.125,10.24
51.140,19.59
51.156,27.2
51.171,33.06
51.187,37.13
51.203,39.46
51.218,40.27
51.234,39.99
51.250,39.15
51.265,38.21
51.281,37.44
51.296,36.87
51.312,36.3
51.328,35.49
51.343,34.25
51.359,32.49
51.375,30.21
51.390,27.43
51.406,24.12
51.421,20.16
51.437,15.45
51.453,10.0
51.468,3.99
51.484,-2.24
51.500,-8.29
51.515,-13.92
51.531,-19.07
51.546,-23.93
51.562,-28.88
51.578,-34.31
51.593,-40.5
51.609,-47.39
51.625,-54.54
51.640,-61.0
51.656,-65.48
51.671,-66.69
51.687,-63.66
51.703,-56.17
51.718,-44.87
51.734,-31.09
51.750,-16.5
51.765,-2.53
51.781,9.82
51.796,20.18
51.812,28.58
51.828,35.21
51.843,40.2
51.859,43.64
51.875,45.53
51.890,46.02
51.906,45.42
51.921,44.12
51.937,42.6
51.953,41.15
51.968,39.96
51.984,39.01
52.000,38.21
52.015,37.39
52.031,36.32
52.046,34.77
52.062,32.49
52.078,29.29
52.093,25.12
52.109,20.11
52.125,14.55
52.140,8.84
52.156,3.28
52.171,-1.89
52.187,-6.7
52.203,-11.32
52.218,-16.1
52.234,-21.41
52.250,-27.5
52.265,-34.35
52.281,-41.48
52.296,-47.97
52.312,-52.52
52.328,-53.83
52.343,-51.02
52.359,-43.96
52.375,-33.36
52.390,-20.59
52.406,-7.2
52.421,5.45
52.437,16.52
52.453,25.67
52.468,32.92
52.484,38.4
52.500,42.28
52.515,44.64
52.531,45.6
52.546,45.43
52.562,44.45
52.578,43.03
52.593,41.52
52.609,40.07
52.625,38.69
52.640,37.28
52.656,35.68
52.671,33.82
52.687,31.7
52.703,29.45
52.718,27.1
52.734,24.65
52.750,21.88
52.765,18.47
52.781,14.17
52.796,8.95
52.812,3.03
52.828,-3.11
52.843,-9.01
52.859,-14.38
52.875,-19.33
52.890,-24.26
52.906,-29.73
52.921,-36.15
52.937,-43.57
52.953,-51.49
52.968,-58.91
52.984,-64.53
53.000,-67.02
53.015,-65.43
53.031,-59.42
53.046,-49.46
53.062,-36.61
53.078,-22.38
53.093,-8.24
53.109,4.66
53.125,15.63
53.140,24.39
53.156,30.91
53.171,35.33
53.187,37.87
53.203,38.88
53.218,38.83
53.234,38.29
53.250,37.72
53.265,37.36
53.281,37.22
53.296,37.14
53.312,36.97
53.328,36.67
53.343,36.37
53.359,36.18
53.375,36.05
53.390,35.67
53.406,34.52
53.421,32.13
53.437,28.24
53.453,22.95
53.468,16.71
53.484,10.05
53.500,3.45
53.515,-2.81
53.531,-8.69
53.546,-14.32
53.562,-19.95
53.578,-25.88
53.593,-32.39
53.609,-39.62
53.625,-47.31
53.640,-54.7
53.656,-60.58
53.671,-63.55
53.687,-62.48
53.703,-56.94
53.718,-47.27
53.734,-34.51
53.750,-19.98
53.765,-4.87
53.781,10.0
53.796,24.22
53.812,37.48
53.828,49.39
53.843,59.24
53.859,66.14
53.875,69.24
53.890,68.16
53.906,63.27
53.921,55.62
53.937,46.68
53.953,37.81
53.968,29.88
53.984,23.08
54.000,17.1
54.015,11.43
54.031,5.77
54.046,0.18
54.062,-5.12
54.078,-9.9
54.093,-14.25
54.109,-18.53
54.125,-23.22
54.140,-28.59
54.156,-34.51
54.171,-40.47
54.187,-45.76
54.203,-49.88
54.218,-52.76
54.234,-54.83
54.250,-56.86
54.265,-59.66
54.281,-63.8
54.296,-69.38
54.312,-76.01
54.328,-82.82
54.343,-88.62
54.359,-92.03
54.375,-91.87
54.390,-87.39
54.406,-78.52
54.421,-65.96
54.437,-50.92
54.453,-34.82
54.468,-18.89
54.484,-4.0
54.500,9.44
54.515,21.28
54.531,31.46
54.546,39.89
54.562,46.47
54.578,51.17
54.593,54.22
54.609,56.07
54.625,57.29
54.640,58.37
54.656,59.51
54.671,60.55
54.687,61.1
54.703,60.73
54.718,59.23
54.734,56.72
54.750,53.51
54.765,50.0
54.781,46.38
54.796,42.65
54.812,38.63
54.828,34.07
54.843,28.82
54.859,22.89
54.875,16.34
54.890,9.4
54.906,2.32
54.921,-4.59
54.937,-11.08
54.953,-17.05
54.968,-22.65
54.984,-28.25
55.000,-34.36
55.015,-41.4
55.031,-49.44
55.046,-58.07
55.062,-66.31
55.078,-72.85
55.093,-76.25
55.109,-75.43
55.125,-69.92
55.140,-60.06
55.156,-46.88
55.171,-31.82
55.187,-16.35
55.203,-1.58
55.218,11.84
55.234,23.71
55.250,34.04
55.265,42.79
55.281,49.84
55.296,55.0
55.312,58.27
55.328,59.84
55.343,60.16
55.359,59.71
55.375,58.87
55.390,57.77
55.406,56.26
55.421,54.21
55.437,51.52
55.453,48.29
55.468,44.73
55.484,41.09
55.500,37.48
55.515,33.8
55.531,29.84
55.546,25.33
55.562,20.17
55.578,14.36
55.593,8.08
55.609,1.67
55.625,-4.56
55.640,-10.32
55.656,-15.47
55.671,-20.01
55.687,-24.12
55.703,-27.97
55.718,-31.84
55.734,-35.95
55.750,-40.51
55.765,-45.67
55.781,-51.38
55.796,-57.26
55.812,-62.5
55.828,-65.95
55.843,-66.41
55.859,-63.01
55.875,-55.51
55.890,-44.45
55.906,-30.99
55.921,-16.59
55.937,-2.61
55.953,10.0
55.968,20.73
55.984,29.48
56.000,36.39
56.015,41.63
56.031,45.38
56.046,47.71
56.062,48.75
56.078,48.72
56.093,47.92
56.109,46.72
56.125,45.42
56.140,44.15
56.156,42.76
56.171,40.95
56.187,38.42
56.203,35.05
56.218,31.06
56.234,26.83
56.250,22.81
56.265,19.21
56.281,15.99
56.296,12.84
56.312,9.36
56.328,5.34
56.343,0.79
56.359,-4.01
56.375,-8.75
56.390,-13.15
56.406,-17.13
56.421,-20.72
56.437,-24.08
56.453,-27.4
56.468,-30.95
56.484,-35.03
56.500,-39.91
56.515,-45.66
56.531,-51.95
56.546,-57.92
56.562,-62.33
56.578,-63.84
56.593,-61.49
56.609,-55.02
56.625,-45.04
56.640,-32.77
56.656,-19.66
56.671,-6.95
56.687,4.61
56.703,14.76
56.718,23.53
56.734,31.04
56.750,37.32
56.765,42.33
56.781,46.1
56.796,48.8
56.812,50.8
56.828,52.54
56.843,54.36
56.859,56.42
56.875,58.59
56.890,60.62
56.906,62.19
56.921,63.1
56.937,63.28
56.953,62.8
56.968,61.76
56.984,60.27
57.000,58.37
57.015,56.04
57.031,53.26
57.046,50.02
57.062,46.4
57.078,42.48
57.093,38.44
57.109,34.46
57.125,30.66
57.140,27.17
57.156,24.03
57.171,21.22
57.187,18.65
57.203,16.24
57.218,13.89
57.234,11.57
57.250,9.3
57.265,7.17
57.281,5.29
57.296,3.75
57.312,2.57
57.328,1.65
57.343,0.83
57.359,-0.12
57.375,-1.37
57.390,-2.98
57.406,-4.88
57.421,-6.88
57.437,-8.77
57.453,-10.41
57.468,-11.79
57.484,-13.02
57.500,-14.25
57.515,-15.62
57.531,-17.14
57.546,-18.75
57.562,-20.33
57.578,-21.78
57.593,-23.09
57.609,-24.31
57.625,-25.56
57.640,-26.97
57.656,-28.61
57.671,-30.48
57.687,-32.49
57.703,-34.52
57.718,-36.44
57.734,-38.18
57.750,-39.76
57.765,-41.37
57.781,-43.28
57.796,-45.75
57.812,-48.95
57.828,-52.88
57.843,-57.37
57.859,-62.15
57.875,-66.96
57.890,-71.58
57.906,-75.94
57.921,-80.08
57.937,-84.19
57.953,-88.57
57.968,-93.68
57.984,-99.92
58.000,-107.46
58.015,-115.83
58.031,-123.8
58.046,-129.47
58.062,-130.87
58.078,-126.54
58.093,-116.23
58.109,-100.91
58.125,-82.47
58.140,-63.03
58.156,-44.28
58.171,-27.19
58.187,-12.08
58.203,1.09
58.218,12.37
58.234,21.69
58.250,28.97
58.265,34.26
58.281,37.92
58.296,40.55
58.312,42.78
58.328,45.09
58.343,47.61
58.359,50.13
58.375,52.19
58.390,53.39
58.406,53.52
58.421,52.71
58.437,51.31
58.453,49.73
58.468,48.23
58.484,46.79
58.500,45.14
58.515,42.88
58.531,39.68
58.546,35.38
58.562,30.04
58.578,23.88
58.593,17.3
58.609,10.64
58.625,4.23
58.640,-1.8
58.656,-7.5
58.671,-13.13
58.687,-19.06
58.703,-25.66
58.718,-33.09
58.734,-41.16
58.750,-49.23
58.765,-56.21
58.781,-60.87
58.796,-62.12
58.812,-59.4
58.828,-52.78
58.843,-43.02
58.859,-31.24
58.875,-18.63
58.890,-6.24
58.906,5.19
58.921,15.14
58.937,23.29
58.953,29.41
58.968,33.48
58.984,35.71
59.000,36.53
59.015,36.55
59.031,36.34
59.046,36.3
59.062,36.5
59.078,36.79
59.093,36.83
59.109,36.32
59.125,35.19
59.140,33.56
59.156,31.68
59.171,29.75
59.187,27.84
59.203,25.78
59.218,23.24
59.234,19.85
59.250,15.39
59.265,9.93
59.281,3.76
59.296,-2.63
59.312,-8.77
59.328,-14.36
59.343,-19.37
59.359,-24.0
59.375,-28.71
59.390,-34.04
59.406,-40.4
59.421,-47.92
59.437,-56.22
59.453,-64.33
59.468,-70.82
59.484,-74.14
59.500,-73.12
59.515,-67.39
59.531,-57.54
59.546,-44.9
59.562,-31.12
59.578,-17.63
59.593,-5.31
59.609,5.46
59.625,14.68
59.640,22.38
59.656,28.54
59.671,33.09
59.687,36.05
59.703,37.62
59.718,38.2
59.734,38.25
59.750,38.13
59.765,37.99
59.781,37.69
59.796,36.98
59.812,35.68
59.828,33.85
59.843,31.75
59.859,29.75
59.875,28.09
59.890,26.66
59.906,25.02
59.921,22.53
59.937,18.65
59.953,13.25
59.968,6.71
59.984,-0.27
