timestamp,value
00.000,63.37
00.015,62.63
00.031,59.86
00.046,55.45
00.062,49.76
00.078,43.08
00.093,35.61
00.109,27.61
00.125,19.41
00.140,11.42
00.156,4.03
00.171,-2.5
00.187,-8.1
00.203,-12.9
00.218,-16.99
00.234,-20.45
00.250,-23.28
00.265,-25.53
00.281,-27.37
00.296,-29.11
00.312,-31.12
00.328,-33.67
00.343,-36.79
00.359,-40.29
00.375,-43.92
00.390,-47.64
00.406,-51.67
00.421,-56.52
00.437,-62.6
00.453,-70.0
00.468,-78.08
00.484,-85.53
00.500,-90.63
00.515,-91.79
00.531,-88.08
00.546,-79.49
00.562,-66.99
00.578,-52.12
00.593,-36.47
00.609,-21.26
00.625,-7.21
00.640,5.45
00.656,16.8
00.671,27.02
00.687,36.35
00.703,44.98
00.718,53.12
00.734,60.97
00.750,68.57
00.765,75.74
00.781,82.01
00.796,86.67
00.812,88.96
00.828,88.27
00.843,84.38
00.859,77.56
00.875,68.62
00.890,58.64
00.906,48.68
00.921,39.51
00.937,31.41
00.953,24.24
00.968,17.56
00.984,11.0
01.000,4.38
01.015,-2.2
01.031,-8.48
01.046,-14.19
01.062,-19.16
01.078,-23.37
01.093,-26.78
01.109,-29.32
01.125,-30.97
01.140,-31.76
01.156,-31.98
01.171,-32.06
01.187,-32.27
01.203,-32.39
01.218,-31.46
01.234,-27.92
01.250,-20.21
01.265,-7.43
01.281,10.05
01.296,30.55
01.312,51.54
01.328,70.48
01.343,85.51
01.359,95.85
01.375,101.7
01.390,103.87
01.406,103.26
01.421,100.66
01.437,96.56
01.453,91.45
01.468,85.86
01.484,80.47
01.500,75.87
01.515,72.41
01.531,70.08
01.546,68.43
01.562,66.74
01.578,64.19
01.593,60.1
01.609,54.12
01.625,46.26
01.640,36.81
01.656,26.26
01.671,15.1
01.687,3.79
01.703,-7.28
01.718,-17.75
01.734,-27.28
01.750,-35.55
01.765,-42.4
01.781,-47.82
01.796,-52.08
01.812,-55.6
01.828,-58.81
01.843,-62.0
01.859,-65.36
01.875,-68.89
01.890,-72.55
01.906,-76.21
01.921,-79.37
01.937,-81.13
01.953,-80.12
01.968,-74.89
01.984,-64.34
02.000,-48.29
02.015,-27.68
02.031,-4.49
02.046,18.73
02.062,39.49
02.078,55.84
02.093,66.73
02.109,72.05
02.125,72.46
02.140,69.11
02.156,63.31
02.171,56.24
02.187,48.8
02.203,41.76
02.218,35.66
02.234,30.97
02.250,28.05
02.265,26.9
02.281,27.08
02.296,27.78
02.312,28.13
02.328,27.43
02.343,25.63
02.359,23.08
02.375,20.42
02.390,18.15
02.406,16.27
02.421,14.39
02.437,11.87
02.453,8.12
02.468,2.82
02.484,-4.01
02.500,-12.19
02.515,-21.52
02.531,-31.8
02.546,-42.95
02.562,-54.86
02.578,-67.42
02.593,-80.43
02.609,-93.59
02.625,-106.27
02.640,-117.54
02.656,-126.14
02.671,-130.75
02.687,-130.41
02.703,-125.0
02.718,-115.3
02.734,-102.97
02.750,-89.9
02.765,-77.7
02.781,-67.28
02.796,-58.74
02.812,-51.6
02.828,-45.31
02.843,-39.53
02.859,-34.17
02.875,-29.32
02.890,-24.92
02.906,-20.74
02.921,-16.38
02.937,-11.58
02.953,-6.38
02.968,-1.33
02.984,2.74
03.000,5.11
03.015,5.52
03.031,4.37
03.046,2.67
03.062,1.59
03.078,1.98
03.093,4.18
03.109,7.76
03.125,11.93
03.140,15.76
03.156,18.51
03.171,19.86
03.187,19.84
03.203,18.71
03.218,16.87
03.234,14.71
03.250,12.5
03.265,10.5
03.281,8.81
03.296,7.36
03.312,5.82
03.328,3.63
03.343,0.24
03.359,-4.55
03.375,-10.07
03.390,-14.78
03.406,-16.58
03.421,-13.61
03.437,-5.06
03.453,8.33
03.468,24.49
03.484,40.82
03.500,55.12
03.515,66.27
03.531,74.1
03.546,78.94
03.562,80.97
03.578,79.91
03.593,75.37
03.609,67.26
03.625,56.28
03.640,43.88
03.656,31.86
03.671,21.71
03.687,14.11
03.703,8.88
03.718,5.07
03.734,1.58
03.750,-2.49
03.765,-7.55
03.781,-13.51
03.796,-19.94
03.812,-26.23
03.828,-31.88
03.843,-36.53
03.859,-40.11
03.875,-42.72
03.890,-44.68
03.906,-46.42
03.921,-48.54
03.937,-51.57
03.953,-55.74
03.968,-60.82
03.984,-66.05
04.000,-70.47
04.015,-73.29
04.031,-74.32
04.046,-73.99
04.062,-73.11
04.078,-72.31
04.093,-71.63
04.109,-70.42
04.125,-67.54
04.140,-61.94
04.156,-52.98
04.171,-40.65
04.187,-25.49
04.203,-8.47
04.218,9.23
04.234,26.25
04.250,41.3
04.265,53.41
04.281,62.08
04.296,67.51
04.312,70.44
04.328,71.87
04.343,72.63
04.359,73.23
04.375,73.87
04.390,74.56
04.406,75.32
04.421,76.19
04.437,77.03
04.453,77.28
04.468,76.05
04.484,72.3
04.500,65.3
04.515,55.15
04.531,42.77
04.546,29.66
04.562,17.39
04.578,7.03
04.593,-1.19
04.609,-7.74
04.625,-13.36
04.640,-18.68
04.656,-23.97
04.671,-29.24
04.687,-34.5
04.703,-40.0
04.718,-46.27
04.734,-53.8
04.750,-62.83
04.765,-73.22
04.781,-84.47
04.796,-95.98
04.812,-107.17
04.828,-117.3
04.843,-125.34
04.859,-129.9
04.875,-129.51
04.890,-123.17
04.906,-110.99
04.921,-94.48
04.937,-76.03
04.953,-58.32
04.968,-43.41
04.984,-32.24
05.000,-24.73
05.015,-20.2
05.031,-17.84
05.046,-17.18
05.062,-18.04
05.078,-20.17
05.093,-23.23
05.109,-26.5
05.125,-29.12
05.140,-30.41
05.156,-30.04
05.171,-28.24
05.187,-25.6
05.203,-22.76
05.218,-20.17
05.234,-17.95
05.250,-15.85
05.265,-13.57
05.281,-10.94
05.296,-8.08
05.312,-5.36
05.328,-3.3
05.343,-2.31
05.359,-2.57
05.375,-4.0
05.390,-6.32
05.406,-9.19
05.421,-12.44
05.437,-16.01
05.453,-19.94
05.468,-24.37
05.484,-29.35
05.500,-35.01
05.515,-41.52
05.531,-48.96
05.546,-57.08
05.562,-65.06
05.578,-71.31
05.593,-73.91
05.609,-71.17
05.625,-62.26
05.640,-47.75
05.656,-29.4
05.671,-9.62
05.687,9.3
05.703,25.76
05.718,39.15
05.734,49.42
05.750,56.89
05.765,61.86
05.781,64.49
05.796,64.96
05.812,63.62
05.828,61.1
05.843,58.16
05.859,55.53
05.875,53.65
05.890,52.58
05.906,52.05
05.921,51.65
05.937,50.96
05.953,49.74
05.968,47.93
05.984,45.53
06.000,42.62
06.015,39.26
06.031,35.52
06.046,31.55
06.062,27.54
06.078,23.77
06.093,20.53
06.109,18.04
06.125,16.43
06.140,15.65
06.156,15.48
06.171,15.49
06.187,15.15
06.203,13.9
06.218,11.35
06.234,7.34
06.250,2.16
06.265,-3.52
06.281,-8.69
06.296,-12.25
06.312,-13.27
06.328,-11.2
06.343,-6.0
06.359,1.86
06.375,11.61
06.390,22.33
06.406,33.17
06.421,43.51
06.437,52.94
06.453,61.22
06.468,68.28
06.484,74.0
06.500,78.33
06.515,81.18
06.531,82.56
06.546,82.59
06.562,81.6
06.578,80.05
06.593,78.41
06.609,76.99
06.625,75.77
06.640,74.45
06.656,72.65
06.671,70.06
06.687,66.6
06.703,62.52
06.718,58.19
06.734,53.92
06.750,49.8
06.765,45.56
06.781,40.67
06.796,34.58
06.812,26.93
06.828,17.69
06.843,7.32
06.859,-3.51
06.875,-14.15
06.890,-24.16
06.906,-33.47
06.921,-42.26
06.937,-50.94
06.953,-59.96
06.968,-69.76
06.984,-80.55
07.000,-92.19
07.015,-103.91
07.031,-114.13
07.046,-120.72
07.062,-121.71
07.078,-116.07
07.093,-104.32
07.109,-88.47
07.125,-71.26
07.140,-55.13
07.156,-41.43
07.171,-30.13
07.187,-20.34
07.203,-11.11
07.218,-2.05
07.234,6.62
07.250,14.32
07.265,20.7
07.281,25.99
07.296,30.87
07.312,36.21
07.328,42.49
07.343,49.51
07.359,56.51
07.375,62.41
07.390,66.35
07.406,67.98
07.421,67.48
07.437,65.4
07.453,62.27
07.468,58.33
07.484,53.45
07.500,47.42
07.515,40.21
07.531,32.09
07.546,23.77
07.562,16.0
07.578,9.4
07.593,4.12
07.609,-0.04
07.625,-3.65
07.640,-7.34
07.656,-11.75
07.671,-17.37
07.687,-24.43
07.703,-32.83
07.718,-42.11
07.734,-51.29
07.750,-59.03
07.765,-63.84
07.781,-64.34
07.796,-59.77
07.812,-50.2
07.828,-36.55
07.843,-20.43
07.859,-3.65
07.875,12.19
07.890,26.02
07.906,37.38
07.921,46.25
07.937,52.74
07.953,56.98
07.968,58.96
07.984,58.65
08.000,56.21
08.015,52.03
08.031,46.75
08.046,41.11
08.062,35.78
08.078,31.23
08.093,27.64
08.109,25.03
08.125,23.3
08.140,22.29
08.156,21.93
08.171,22.02
08.187,22.33
08.203,22.45
08.218,21.83
08.234,20.0
08.250,16.65
08.265,11.8
08.281,5.75
08.296,-0.97
08.312,-7.83
08.328,-14.46
08.343,-20.69
08.359,-26.58
08.375,-32.3
08.390,-38.04
08.406,-44.07
08.421,-50.67
08.437,-58.14
08.453,-66.5
08.468,-75.25
08.484,-83.27
08.500,-88.85
08.515,-90.14
08.531,-85.87
08.546,-75.88
08.562,-61.22
08.578,-43.92
08.593,-26.38
08.609,-10.81
08.625,1.12
08.640,8.37
08.656,10.61
08.671,8.14
08.687,1.99
08.703,-6.19
08.718,-14.49
08.734,-21.18
08.750,-25.14
08.765,-26.11
08.781,-24.55
08.796,-21.32
08.812,-17.28
08.828,-13.06
08.843,-8.99
08.859,-5.21
08.875,-1.74
08.890,1.49
08.906,4.63
08.921,7.77
08.937,10.9
08.953,13.89
08.968,16.46
08.984,18.32
09.000,19.17
09.015,18.88
09.031,17.5
09.046,15.18
09.062,12.06
09.078,8.15
09.093,3.31
09.109,-2.71
09.125,-10.17
09.140,-19.27
09.156,-29.85
09.171,-41.3
09.187,-52.39
09.203,-61.38
09.218,-66.37
09.234,-65.87
09.250,-59.24
09.265,-47.0
09.281,-30.67
09.296,-12.32
09.312,6.04
09.328,22.94
09.343,37.59
09.359,49.73
09.375,59.32
09.390,66.26
09.406,70.45
09.421,71.89
09.437,70.88
09.453,68.08
09.468,64.41
09.484,60.89
09.500,58.31
09.515,57.11
09.531,57.19
09.546,58.14
09.562,59.44
09.578,60.64
09.593,61.63
09.609,62.48
09.625,63.53
09.640,65.06
09.656,67.13
09.671,69.41
09.687,71.2
09.703,71.49
09.718,69.25
09.734,63.76
09.750,54.83
09.765,43.01
09.781,29.44
09.796,15.57
09.812,2.55
09.828,-9.04
09.843,-19.44
09.859,-29.42
09.875,-39.71
09.890,-50.57
09.906,-61.32
09.921,-70.46
09.937,-76.07
09.953,-76.5
09.968,-71.03
09.984,-60.18
10.000,-45.59
10.015,-29.51
10.031,-14.13
10.046,-0.91
10.062,9.62
10.078,17.66
10.093,23.78
10.109,28.43
10.125,31.76
10.140,33.56
10.156,33.33
10.171,30.48
10.187,24.62
10.203,15.87
10.218,5.07
10.234,-6.29
10.250,-16.5
10.265,-24.07
10.281,-28.38
10.296,-29.73
10.312,-29.15
10.328,-27.7
10.343,-26.06
10.359,-24.45
10.375,-22.92
10.390,-21.75
10.406,-21.55
10.421,-23.06
10.437,-26.64
10.453,-31.97
10.468,-38.03
10.484,-43.6
10.500,-47.65
10.515,-49.64
10.531,-49.53
10.546,-47.59
10.562,-44.2
10.578,-39.86
10.593,-35.26
10.609,-31.17
10.625,-28.29
10.640,-26.71
10.656,-25.63
10.671,-23.36
10.687,-17.89
10.703,-7.72
10.718,7.48
10.734,26.57
10.750,47.19
10.765,66.61
10.781,82.47
10.796,93.47
10.812,99.31
10.828,100.64
10.843,98.4
10.859,93.54
10.875,86.92
10.890,79.3
10.906,71.44
10.921,64.22
10.937,58.51
10.953,54.83
10.968,53.16
10.984,52.77
11.000,52.44
11.015,50.83
11.031,46.96
11.046,40.47
11.062,31.65
11.078,21.27
11.093,10.15
11.109,-1.11
11.125,-12.2
11.140,-23.18
11.156,-34.25
11.171,-45.59
11.187,-57.21
11.203,-68.82
11.218,-79.93
11.234,-89.86
11.250,-98.11
11.265,-104.48
11.281,-109.23
11.296,-113.08
11.312,-117.01
11.328,-121.9
11.343,-128.18
11.359,-135.48
11.375,-142.54
11.390,-147.43
11.406,-148.11
11.421,-143.08
11.437,-131.93
11.453,-115.52
11.468,-95.67
11.484,-74.59
11.500,-54.16
11.515,-35.5
11.531,-19.04
11.546,-4.73
11.562,7.5
11.578,17.55
11.593,25.25
11.609,30.64
11.625,34.13
11.640,36.48
11.656,38.57
11.671,40.98
11.687,43.81
11.703,46.69
11.718,49.05
11.734,50.53
11.750,51.13
11.765,51.2
11.781,51.22
11.796,51.45
11.812,51.82
11.828,51.87
11.843,50.91
11.859,48.23
11.875,43.43
11.890,36.49
11.906,27.89
11.921,18.54
11.937,9.47
11.953,1.55
11.968,-4.72
11.984,-9.4
12.000,-13.03
12.015,-16.33
12.031,-20.09
12.046,-24.9
12.062,-30.93
12.078,-37.72
12.093,-44.09
12.109,-48.21
12.125,-48.05
12.140,-42.03
12.156,-29.72
12.171,-12.18
12.187,8.18
12.203,28.29
12.218,45.3
12.234,57.43
12.250,64.12
12.265,65.9
12.281,63.92
12.296,59.39
12.312,53.37
12.328,46.78
12.343,40.4
12.359,34.92
12.375,30.97
12.390,28.9
12.406,28.66
12.421,29.86
12.437,31.78
12.453,33.57
12.468,34.49
12.484,34.0
12.500,31.94
12.515,28.58
12.531,24.57
12.546,20.68
12.562,17.58
12.578,15.59
12.593,14.55
12.609,13.94
12.625,13.21
12.640,11.96
12.656,10.21
12.671,8.26
12.687,6.54
12.703,5.34
12.718,4.69
12.734,4.45
12.750,4.53
12.765,4.89
12.781,5.7
12.796,7.12
12.812,9.11
12.828,11.39
12.843,13.46
12.859,14.89
12.875,15.52
12.890,15.6
12.906,15.62
12.921,16.17
12.937,17.64
12.953,20.09
12.968,23.22
12.984,26.55
13.000,29.6
13.015,32.07
13.031,33.88
13.046,35.08
13.062,35.74
13.078,35.83
13.093,35.29
13.109,33.95
13.125,31.79
13.140,28.89
13.156,25.56
13.171,22.2
13.187,19.24
13.203,16.99
13.218,15.56
13.234,14.76
13.250,14.13
13.265,13.0
13.281,10.71
13.296,6.9
13.312,1.63
13.328,-4.57
13.343,-10.98
13.359,-16.89
13.375,-22.01
13.390,-26.43
13.406,-30.68
13.421,-35.51
13.437,-41.61
13.453,-49.36
13.468,-58.5
13.484,-68.07
13.500,-76.3
13.515,-81.02
13.531,-80.29
13.546,-73.07
13.562,-59.7
13.578,-41.89
13.593,-22.1
13.609,-2.81
13.625,14.12
13.640,27.65
13.656,37.48
13.671,43.7
13.687,46.6
13.703,46.54
13.718,44.15
13.734,40.33
13.750,36.14
13.765,32.52
13.781,29.92
13.796,28.24
13.812,26.84
13.828,24.88
13.843,21.73
13.859,17.2
13.875,11.62
13.890,5.69
13.906,0.14
13.921,-4.61
13.937,-8.61
13.953,-12.44
13.968,-16.91
13.984,-22.94
14.000,-31.18
14.015,-41.76
14.031,-54.18
14.046,-67.35
14.062,-79.84
14.078,-90.36
14.093,-98.29
14.109,-103.79
14.125,-107.76
14.140,-111.27
14.156,-114.92
14.171,-118.45
14.187,-120.65
14.203,-119.82
14.218,-114.43
14.234,-103.78
14.250,-88.33
14.265,-69.47
14.281,-49.1
14.296,-28.96
14.312,-10.28
14.328,6.38
14.343,20.97
14.359,33.65
14.375,44.44
14.390,53.22
14.406,59.83
14.421,64.33
14.437,67.12
14.453,68.9
14.468,70.44
14.484,72.24
14.500,74.5
14.515,77.1
14.531,79.87
14.546,82.83
14.562,86.25
14.578,90.52
14.593,95.75
14.609,101.56
14.625,107.0
14.640,110.77
14.656,111.89
14.671,110.02
14.687,105.67
14.703,100.01
14.718,94.38
14.734,89.82
14.750,86.83
14.765,85.34
14.781,84.92
14.796,84.94
14.812,84.91
14.828,84.43
14.843,83.21
14.859,81.06
14.875,77.96
14.890,73.96
14.906,69.35
14.921,64.44
14.937,59.53
14.953,54.8
14.968,50.32
14.984,45.94
15.000,41.38
15.015,36.37
15.031,30.75
15.046,24.59
15.062,18.2
15.078,11.99
15.093,6.24
15.109,1.03
15.125,-3.93
15.140,-9.11
15.156,-14.91
15.171,-21.46
15.187,-28.52
15.203,-35.56
15.218,-42.09
15.234,-47.88
15.250,-53.2
15.265,-58.74
15.281,-65.4
15.296,-73.86
15.312,-84.33
15.328,-96.39
15.343,-109.12
15.359,-121.42
15.375,-132.33
15.390,-141.36
15.406,-148.47
15.421,-154.0
15.437,-158.41
15.453,-162.2
15.468,-165.76
15.484,-169.14
15.500,-171.93
15.515,-173.02
15.531,-170.79
15.546,-163.7
15.562,-150.95
15.578,-132.94
15.593,-111.51
15.609,-89.14
15.625,-68.22
15.640,-50.21
15.656,-35.52
15.671,-23.8
15.687,-14.58
15.703,-7.61
15.718,-2.87
15.734,-0.21
15.750,0.87
15.765,1.28
15.781,1.99
15.796,3.61
15.812,6.27
15.828,9.61
15.843,13.04
15.859,16.09
15.875,18.5
15.890,20.22
15.906,21.24
15.921,21.39
15.937,20.3
15.953,17.55
15.968,12.89
15.984,6.41
16.000,-1.34
16.015,-9.52
16.031,-17.2
16.046,-23.73
16.062,-28.93
16.078,-33.08
16.093,-36.75
16.109,-40.57
16.125,-44.85
16.140,-49.38
16.156,-53.2
16.171,-54.88
16.187,-52.81
16.203,-45.85
16.218,-33.81
16.234,-17.53
16.250,1.25
16.265,20.43
16.281,38.24
16.296,53.55
16.312,65.94
16.328,75.52
16.343,82.6
16.359,87.48
16.375,90.41
16.390,91.57
16.406,91.14
16.421,89.23
16.437,86.0
16.453,81.6
16.468,76.24
16.484,70.21
16.500,63.88
16.515,57.59
16.531,51.57
16.546,45.9
16.562,40.38
16.578,34.72
16.593,28.6
16.609,21.74
16.625,14.06
16.640,5.64
16.656,-3.31
16.671,-12.5
16.687,-21.6
16.703,-30.38
16.718,-38.75
16.734,-46.83
16.750,-54.92
16.765,-63.34
16.781,-72.19
16.796,-81.07
16.812,-88.88
16.828,-94.01
16.843,-94.78
16.859,-90.0
16.875,-79.56
16.890,-64.42
16.906,-46.39
16.921,-27.47
16.937,-9.28
16.953,7.22
16.968,21.73
16.984,34.29
17.000,44.98
17.015,53.75
17.031,60.4
17.046,64.8
17.062,67.0
17.078,67.2
17.093,65.8
17.109,63.27
17.125,59.92
17.140,56.0
17.156,51.67
17.171,47.08
17.187,42.51
17.203,38.29
17.218,34.68
17.234,31.7
17.250,28.95
17.265,25.68
17.281,21.15
17.296,14.91
17.312,7.12
17.328,-1.56
17.343,-10.16
17.359,-17.88
17.375,-24.39
17.390,-29.85
17.406,-34.9
17.421,-40.32
17.437,-46.86
17.453,-54.94
17.468,-64.54
17.484,-74.96
17.500,-84.67
17.515,-91.63
17.531,-93.74
17.546,-89.53
17.562,-78.71
17.578,-62.43
17.593,-42.74
17.609,-22.07
17.625,-2.47
17.640,14.77
17.656,29.2
17.671,40.85
17.687,49.94
17.703,56.68
17.718,61.04
17.734,63.07
17.750,62.94
17.765,61.04
17.781,57.93
17.796,54.24
17.812,50.47
17.828,46.81
17.843,43.19
17.859,39.34
17.875,35.11
17.890,30.53
17.906,25.92
17.921,21.71
17.937,18.2
17.953,15.39
17.968,12.91
17.984,10.17
18.000,6.59
18.015,1.85
18.031,-4.0
18.046,-10.52
18.062,-17.13
18.078,-23.35
18.093,-28.89
18.109,-33.83
18.125,-38.43
18.140,-43.14
18.156,-48.29
18.171,-54.08
18.187,-60.61
18.203,-67.64
18.218,-74.67
18.234,-80.7
18.250,-84.41
18.265,-84.24
18.281,-79.11
18.296,-68.6
18.312,-53.32
18.328,-34.75
18.343,-14.75
18.359,4.88
18.375,22.81
18.390,38.28
18.406,51.02
18.421,60.91
18.437,68.01
18.453,72.4
18.468,74.24
18.484,73.9
18.500,71.97
18.515,69.13
18.531,66.04
18.546,63.17
18.562,60.68
18.578,58.49
18.593,56.28
18.609,53.7
18.625,50.58
18.640,46.92
18.656,42.93
18.671,38.83
18.687,34.72
18.703,30.55
18.718,26.08
18.734,21.1
18.750,15.43
18.765,9.15
18.781,2.41
18.796,-4.48
18.812,-11.23
18.828,-17.65
18.843,-23.6
18.859,-29.09
18.875,-34.17
18.890,-39.05
18.906,-43.93
18.921,-49.07
18.937,-54.64
18.953,-60.47
18.968,-66.03
18.984,-70.33
19.000,-72.04
19.015,-69.85
19.031,-62.93
19.046,-51.22
19.062,-35.57
19.078,-17.53
19.093,1.18
19.109,18.96
19.125,34.84
19.140,48.36
19.156,59.42
19.171,68.01
19.187,74.15
19.203,77.78
19.218,78.94
19.234,77.92
19.250,75.16
19.265,71.31
19.281,67.11
19.296,63.15
19.312,59.85
19.328,57.32
19.343,55.47
19.359,54.06
19.375,52.87
19.390,51.72
19.406,50.5
19.421,49.2
19.437,47.73
19.453,46.06
19.468,44.05
19.484,41.56
19.500,38.46
19.515,34.77
19.531,30.7
19.546,26.66
19.562,23.24
19.578,20.92
19.593,19.98
19.609,20.3
19.625,21.28
19.640,22.07
19.656,21.81
19.671,19.82
19.687,15.82
19.703,10.03
19.718,3.11
19.734,-3.8
19.750,-9.29
19.765,-12.06
19.781,-11.2
19.796,-6.65
19.812,0.81
19.828,9.78
19.843,18.77
19.859,26.63
19.875,32.8
19.890,37.29
19.906,40.35
19.921,42.07
19.937,42.17
19.953,40.07
19.968,35.12
19.984,27.1
20.000,16.38
20.015,4.11
20.031,-8.09
20.046,-18.58
20.062,-26.17
20.078,-30.43
20.093,-31.74
20.109,-30.93
20.125,-28.87
20.140,-26.25
20.156,-23.45
20.171,-20.73
20.187,-18.38
20.203,-16.75
20.218,-16.11
20.234,-16.6
20.250,-18.15
20.265,-20.47
20.281,-23.35
20.296,-26.63
20.312,-30.16
20.328,-33.74
20.343,-36.99
20.359,-39.38
20.375,-40.45
20.390,-40.04
20.406,-38.31
20.421,-35.79
20.437,-33.12
20.453,-30.84
20.468,-29.28
20.484,-28.48
20.500,-28.05
20.515,-27.21
20.531,-24.83
20.546,-19.7
20.562,-10.87
20.578,1.95
20.593,18.2
20.609,36.54
20.625,55.31
20.640,73.0
20.656,88.79
20.671,102.61
20.687,114.89
20.703,126.08
20.718,136.28
20.734,144.94
20.750,151.0
20.765,153.38
20.781,151.25
20.796,144.46
20.812,133.51
20.828,119.38
20.843,103.08
20.859,85.47
20.875,67.08
20.890,48.23
20.906,29.35
20.921,11.03
20.937,-6.07
20.953,-21.37
20.968,-34.66
20.984,-46.17
21.000,-56.51
21.015,-66.46
21.031,-76.82
21.046,-88.19
21.062,-100.88
21.078,-114.68
21.093,-128.84
21.109,-142.13
21.125,-153.13
21.140,-160.79
21.156,-164.83
21.171,-165.87
21.187,-165.18
21.203,-164.17
21.218,-163.82
21.234,-164.47
21.250,-165.85
21.265,-167.24
21.281,-167.59
21.296,-165.68
21.312,-160.27
21.328,-150.26
21.343,-135.18
21.359,-115.41
21.375,-92.23
21.390,-67.57
21.406,-43.48
21.421,-21.6
21.437,-2.81
21.453,12.59
21.468,24.76
21.484,33.95
21.500,40.36
21.515,44.27
21.531,45.99
21.546,46.01
21.562,44.95
21.578,43.47
21.593,42.03
21.609,40.81
21.625,39.68
21.640,38.33
21.656,36.53
21.671,34.19
21.687,31.51
21.703,28.79
21.718,26.29
21.734,24.09
21.750,22.0
21.765,19.75
21.781,17.0
21.796,13.63
21.812,9.66
21.828,5.3
21.843,0.79
21.859,-3.7
21.875,-8.1
21.890,-12.34
21.906,-16.38
21.921,-20.2
21.937,-23.86
21.953,-27.53
21.968,-31.43
21.984,-35.77
22.000,-40.5
22.015,-45.19
22.031,-49.03
22.046,-50.94
22.062,-49.87
22.078,-45.02
22.093,-36.21
22.109,-23.91
22.125,-9.21
22.140,6.52
22.156,21.92
22.171,35.95
22.187,48.03
22.203,57.91
22.218,65.56
22.234,70.97
22.250,74.2
22.265,75.39
22.281,74.96
22.296,73.52
22.312,71.75
22.328,70.26
22.343,69.39
22.359,69.17
22.375,69.42
22.390,69.86
22.406,70.24
22.421,70.37
22.437,70.12
22.453,69.31
22.468,67.81
22.484,65.49
22.500,62.33
22.515,58.51
22.531,54.32
22.546,50.13
22.562,46.27
22.578,42.98
22.593,40.3
22.609,38.16
22.625,36.36
22.640,34.66
22.656,32.86
22.671,30.84
22.687,28.53
22.703,25.97
22.718,23.27
22.734,20.58
22.750,18.06
22.765,15.86
22.781,13.98
22.796,12.37
22.812,10.88
22.828,9.37
22.843,7.75
22.859,6.02
22.875,4.24
22.890,2.45
22.906,0.74
22.921,-0.88
22.937,-2.38
22.953,-3.77
22.968,-5.05
22.984,-6.19
23.000,-7.21
23.015,-8.15
23.031,-9.09
23.046,-10.16
23.062,-11.51
23.078,-13.24
23.093,-15.43
23.109,-18.05
23.125,-21.0
23.140,-24.16
23.156,-27.41
23.171,-30.66
23.187,-33.79
23.203,-36.61
23.218,-39.01
23.234,-40.95
23.250,-42.65
23.265,-44.52
23.281,-47.07
23.296,-50.65
23.312,-55.34
23.328,-60.83
23.343,-66.55
23.359,-71.92
23.375,-76.52
23.390,-80.34
23.406,-83.66
23.421,-87.05
23.437,-91.1
23.453,-96.22
23.468,-102.38
23.484,-108.99
23.500,-114.73
23.515,-117.83
23.531,-116.47
23.546,-109.43
23.562,-96.5
23.578,-78.69
23.593,-57.96
23.609,-36.59
23.625,-16.59
23.640,0.75
23.656,14.88
23.671,25.76
23.687,33.51
23.703,38.36
23.718,40.66
23.734,41.0
23.750,40.21
23.765,39.15
23.781,38.52
23.796,38.56
23.812,39.1
23.828,39.66
23.843,39.7
23.859,38.93
23.875,37.3
23.890,35.0
23.906,32.21
23.921,29.15
23.937,25.89
23.953,22.41
23.968,18.69
23.984,14.66
24.000,10.3
24.015,5.62
24.031,0.72
24.046,-4.29
24.062,-9.25
24.078,-14.11
24.093,-18.94
24.109,-23.89
24.125,-29.29
24.140,-35.45
24.156,-42.43
24.171,-49.81
24.187,-56.66
24.203,-61.63
24.218,-63.29
24.234,-60.6
24.250,-53.29
24.265,-41.95
24.281,-27.91
24.296,-12.77
24.312,2.02
24.328,15.41
24.343,26.93
24.359,36.41
24.375,43.9
24.390,49.5
24.406,53.34
24.421,55.61
24.437,56.54
24.453,56.5
24.468,55.8
24.484,54.77
24.500,53.66
24.515,52.6
24.531,51.69
24.546,50.97
24.562,50.47
24.578,50.16
24.593,50.01
24.609,49.91
24.625,49.76
24.640,49.4
24.656,48.71
24.671,47.56
24.687,45.82
24.703,43.43
24.718,40.43
24.734,37.08
24.750,33.69
24.765,30.61
24.781,28.09
24.796,26.18
24.812,24.8
24.828,23.67
24.843,22.55
24.859,21.2
24.875,19.51
24.890,17.43
24.906,15.0
24.921,12.33
24.937,9.64
24.953,7.14
24.968,4.99
24.984,3.26
25.000,1.9
25.015,0.77
25.031,-0.25
25.046,-1.22
25.062,-2.15
25.078,-3.02
25.093,-3.88
25.109,-4.86
25.125,-6.19
25.140,-8.08
25.156,-10.63
25.171,-13.74
25.187,-17.09
25.203,-20.28
25.218,-23.05
25.234,-25.37
25.250,-27.51
25.265,-29.98
25.281,-33.26
25.296,-37.61
25.312,-42.91
25.328,-48.73
25.343,-54.51
25.359,-59.77
25.375,-64.28
25.390,-68.13
25.406,-71.61
25.421,-75.12
25.437,-79.1
25.453,-83.86
25.468,-89.45
25.484,-95.42
25.500,-100.69
25.515,-103.64
25.531,-102.49
25.546,-95.91
25.562,-83.52
25.578,-66.18
25.593,-45.73
25.609,-24.47
25.625,-4.49
25.640,12.75
25.656,26.55
25.671,36.73
25.687,43.48
25.703,47.04
25.718,47.83
25.734,46.38
25.750,43.41
25.765,39.73
25.781,36.08
25.796,33.0
25.812,30.68
25.828,29.06
25.843,27.88
25.859,26.82
25.875,25.57
25.890,23.83
25.906,21.4
25.921,18.16
25.937,14.1
25.953,9.36
25.968,4.27
25.984,-0.86
26.000,-5.74
26.015,-10.24
26.031,-14.45
26.046,-18.68
26.062,-23.32
26.078,-28.77
26.093,-35.29
26.109,-42.72
26.125,-50.4
26.140,-57.04
26.156,-60.99
26.171,-60.71
26.187,-55.28
26.203,-44.76
26.218,-30.27
26.234,-13.69
26.250,2.94
26.265,18.0
26.281,30.56
26.296,40.35
26.312,47.53
26.328,52.4
26.343,55.21
26.359,56.27
26.375,55.87
26.390,54.34
26.406,52.11
26.421,49.47
26.437,46.62
26.453,43.54
26.468,40.15
26.484,36.27
26.500,31.8
26.515,26.69
26.531,21.04
26.546,14.99
26.562,8.77
26.578,2.59
26.593,-3.34
26.609,-8.92
26.625,-14.09
26.640,-18.86
26.656,-23.41
26.671,-28.02
26.687,-33.16
26.703,-39.3
26.718,-46.73
26.734,-55.19
26.750,-63.8
26.765,-71.04
26.781,-75.16
26.796,-74.77
26.812,-69.18
26.828,-58.72
26.843,-44.56
26.859,-28.28
26.875,-11.51
26.890,4.45
26.906,18.71
26.921,30.8
26.937,40.52
26.953,47.87
26.968,52.98
26.984,56.04
27.000,57.33
27.015,57.16
27.031,55.79
27.046,53.37
27.062,50.04
27.078,45.95
27.093,41.4
27.109,36.72
27.125,32.26
27.140,28.24
27.156,24.62
27.171,21.18
27.187,17.56
27.203,13.46
27.218,8.78
27.234,3.6
27.250,-1.9
27.265,-7.55
27.281,-13.28
27.296,-19.1
27.312,-25.08
27.328,-31.35
27.343,-37.97
27.359,-44.95
27.375,-52.02
27.390,-58.47
27.406,-63.19
27.421,-64.82
27.437,-62.12
27.453,-54.48
27.468,-42.26
27.484,-26.71
27.500,-9.64
27.515,7.08
27.531,22.09
27.546,34.65
27.562,44.63
27.578,52.21
27.593,57.6
27.609,60.93
27.625,62.3
27.640,61.8
27.656,59.64
27.671,56.18
27.687,51.87
27.703,47.11
27.718,42.24
27.734,37.5
27.750,32.98
27.765,28.81
27.781,25.01
27.796,21.55
27.812,18.34
27.828,15.24
27.843,12.04
27.859,8.57
27.875,4.67
27.890,0.25
27.906,-4.71
27.921,-10.11
27.937,-15.88
27.953,-21.83
27.968,-27.91
27.984,-34.17
28.000,-40.67
28.015,-47.38
28.031,-53.85
28.046,-59.17
28.062,-61.95
28.078,-60.87
28.093,-54.98
28.109,-44.18
28.125,-29.37
28.140,-12.14
28.156,5.75
28.171,22.75
28.187,37.89
28.203,50.75
28.218,61.19
28.234,69.17
28.250,74.58
28.265,77.37
28.281,77.63
28.296,75.75
28.312,72.35
28.328,68.18
28.343,63.75
28.359,59.37
28.375,55.08
28.390,50.8
28.406,46.55
28.421,42.5
28.437,38.9
28.453,35.88
28.468,33.34
28.484,30.83
28.500,27.75
28.515,23.51
28.531,17.79
28.546,10.67
28.562,2.61
28.578,-5.67
28.593,-13.53
28.609,-20.51
28.625,-26.58
28.640,-32.06
28.656,-37.52
28.671,-43.53
28.687,-50.46
28.703,-58.18
28.718,-65.99
28.734,-72.64
28.750,-76.55
28.765,-76.26
28.781,-70.8
28.796,-60.15
28.812,-45.24
28.828,-27.68
28.843,-9.34
28.859,8.15
28.875,23.66
28.890,36.69
28.906,47.12
28.921,55.04
28.937,60.58
28.953,63.9
28.968,65.19
28.984,64.85
29.000,63.32
29.015,61.09
29.031,58.6
29.046,56.1
29.062,53.57
29.078,50.85
29.093,47.71
29.109,43.97
29.125,39.63
29.140,34.91
29.156,30.13
29.171,25.62
29.187,21.5
29.203,17.69
29.218,13.92
29.234,9.84
29.250,5.18
29.265,-0.15
29.281,-6.02
29.296,-12.14
29.312,-18.2
29.328,-24.02
29.343,-29.55
29.359,-34.81
29.375,-39.86
29.390,-44.77
29.406,-49.55
29.421,-54.27
29.437,-59.06
29.453,-63.99
29.468,-68.95
29.484,-73.42
29.500,-76.45
29.515,-76.84
29.531,-73.58
29.546,-66.19
29.562,-54.94
29.578,-40.8
29.593,-25.08
29.609,-9.09
29.625,6.13
29.640,19.9
29.656,31.77
29.671,41.46
29.687,48.76
29.703,53.53
29.718,55.85
29.734,56.03
29.750,54.57
29.765,52.11
29.781,49.25
29.796,46.44
29.812,43.9
29.828,41.66
29.843,39.62
29.859,37.59
29.875,35.39
29.890,32.88
29.906,29.98
29.921,26.72
29.937,23.17
29.953,19.42
29.968,15.59
29.984,11.74
30.000,7.85
30.015,3.84
30.031,-0.39
30.046,-4.9
30.062,-9.66
30.078,-14.65
30.093,-19.78
30.109,-24.97
30.125,-30.2
30.140,-35.42
30.156,-40.59
30.171,-45.68
30.187,-50.65
30.203,-55.61
30.218,-60.74
30.234,-66.19
30.250,-71.79
30.265,-77.01
30.281,-80.73
30.296,-81.61
30.312,-78.51
30.328,-70.85
30.343,-58.99
30.359,-44.05
30.375,-27.6
30.390,-11.14
30.406,4.21
30.421,17.9
30.437,29.79
30.453,39.88
30.468,48.22
30.484,54.75
30.500,59.39
30.515,62.09
30.531,62.93
30.546,62.05
30.562,59.83
30.578,56.72
30.593,53.25
30.609,50.03
30.625,47.61
30.640,46.35
30.656,46.32
30.671,47.2
30.687,48.29
30.703,48.65
30.718,47.38
30.734,43.81
30.750,37.78
30.765,29.6
30.781,19.97
30.796,9.67
30.812,-0.63
30.828,-10.45
30.843,-19.56
30.859,-27.81
30.875,-35.03
30.890,-41.07
30.906,-45.79
30.921,-49.21
30.937,-51.5
30.953,-53.09
30.968,-54.55
30.984,-56.57
31.000,-59.69
31.015,-64.08
31.031,-69.34
31.046,-74.51
31.062,-78.14
31.078,-78.93
31.093,-75.99
31.109,-69.15
31.125,-58.98
31.140,-46.49
31.156,-32.78
31.171,-18.81
31.187,-5.25
31.203,7.43
31.218,18.76
31.234,28.28
31.250,35.48
31.265,39.94
31.281,41.49
31.296,40.38
31.312,37.29
31.328,33.21
31.343,29.2
31.359,26.02
31.375,23.96
31.390,22.87
31.406,22.37
31.421,22.2
31.437,22.27
31.453,22.71
31.468,23.64
31.484,24.91
31.500,26.11
31.515,26.66
31.531,26.12
31.546,24.3
31.562,21.43
31.578,17.97
31.593,14.44
31.609,11.31
31.625,8.83
31.640,7.05
31.656,5.81
31.671,4.84
31.687,3.81
31.703,2.42
31.718,0.5
31.734,-1.89
31.750,-4.42
31.765,-6.41
31.781,-6.96
31.796,-5.1
31.812,-0.06
31.828,8.39
31.843,19.59
31.859,31.97
31.875,43.32
31.890,51.32
31.906,54.23
31.921,51.44
31.937,43.52
31.953,32.02
31.968,18.91
31.984,5.92
32.000,-5.82
32.015,-15.82
32.031,-24.05
32.046,-30.67
32.062,-35.75
32.078,-39.4
32.093,-41.77
32.109,-43.17
32.125,-44.0
32.140,-44.57
32.156,-44.97
32.171,-45.01
32.187,-44.43
32.203,-42.99
32.218,-40.67
32.234,-37.69
32.250,-34.4
32.265,-31.1
32.281,-27.95
32.296,-24.95
32.312,-22.03
32.328,-19.23
32.343,-16.64
32.359,-14.36
32.375,-12.46
32.390,-10.83
32.406,-9.19
32.421,-7.27
32.437,-4.94
32.453,-2.4
32.468,-0.2
32.484,0.83
32.500,-0.13
32.515,-3.66
32.531,-9.91
32.546,-18.45
32.562,-28.3
32.578,-38.09
32.593,-46.28
32.609,-51.52
32.625,-53.02
32.640,-50.8
32.656,-45.58
32.671,-38.45
32.687,-30.51
32.703,-22.46
32.718,-14.57
32.734,-6.87
32.750,0.56
32.765,7.43
32.781,13.3
32.796,17.94
32.812,21.59
32.828,24.9
32.843,28.68
32.859,33.52
32.875,39.57
32.890,46.5
32.906,53.88
32.921,61.33
32.937,68.73
32.953,76.04
32.968,83.04
32.984,89.16
33.000,93.35
33.015,94.36
33.031,90.93
33.046,82.32
33.062,68.54
33.078,50.5
33.093,29.82
33.109,8.42
33.125,-11.93
33.140,-30.1
33.156,-45.65
33.171,-58.77
33.187,-69.76
33.203,-78.89
33.218,-86.21
33.234,-91.82
33.250,-96.11
33.265,-99.76
33.281,-103.49
33.296,-107.62
33.312,-111.71
33.328,-114.54
33.343,-114.55
33.359,-110.52
33.375,-102.01
33.390,-89.62
33.406,-74.7
33.421,-58.92
33.437,-43.72
33.453,-29.94
33.468,-17.89
33.484,-7.49
33.500,1.38
33.515,8.75
33.531,14.44
33.546,18.23
33.562,20.05
33.578,20.19
33.593,19.36
33.609,18.38
33.625,17.97
33.640,18.48
33.656,19.83
33.671,21.59
33.687,23.27
33.703,24.46
33.718,24.96
33.734,24.72
33.750,23.74
33.765,21.99
33.781,19.41
33.796,16.11
33.812,12.23
33.828,8.0
33.843,3.61
33.859,-0.89
33.875,-5.52
33.890,-10.23
33.906,-14.93
33.921,-19.46
33.937,-23.68
33.953,-27.58
33.968,-31.31
33.984,-35.14
34.000,-39.33
34.015,-44.04
34.031,-49.25
34.046,-54.71
34.062,-59.86
34.078,-63.89
34.093,-65.75
34.109,-64.46
34.125,-59.34
34.140,-50.33
34.156,-37.98
34.171,-23.41
34.187,-7.93
34.203,7.22
34.218,21.1
34.234,33.11
34.250,42.94
34.265,50.48
34.281,55.72
34.296,58.78
34.312,59.86
34.328,59.26
34.343,57.38
34.359,54.73
34.375,51.79
34.390,48.97
34.406,46.48
34.421,44.31
34.437,42.34
34.453,40.42
34.468,38.45
34.484,36.5
34.500,34.66
34.515,32.93
34.531,31.18
34.546,29.15
34.562,26.45
34.578,22.79
34.593,18.09
34.609,12.51
34.625,6.39
34.640,0.19
34.656,-5.67
34.671,-10.92
34.687,-15.51
34.703,-19.68
34.718,-23.82
34.734,-28.38
34.750,-33.72
34.765,-39.97
34.781,-46.86
34.796,-53.67
34.812,-59.23
34.828,-62.1
34.843,-60.99
34.859,-55.07
34.875,-44.33
34.890,-29.66
34.906,-12.67
34.921,4.76
34.937,20.94
34.953,34.75
34.968,45.72
34.984,53.88
35.000,59.53
35.015,62.99
35.031,64.48
35.046,64.22
35.062,62.55
35.078,59.97
35.093,57.08
35.109,54.33
35.125,51.86
35.140,49.56
35.156,47.08
35.171,44.18
35.187,40.89
35.203,37.54
35.218,34.63
35.234,32.52
35.250,31.28
35.265,30.6
35.281,29.95
35.296,28.66
35.312,26.26
35.328,22.56
35.343,17.72
35.359,12.21
35.375,6.61
35.390,1.48
35.406,-2.87
35.421,-6.4
35.437,-9.35
35.453,-12.15
35.468,-15.2
35.484,-18.74
35.500,-22.62
35.515,-26.22
35.531,-28.48
35.546,-28.06
35.562,-23.67
35.578,-14.51
35.593,-0.49
35.609,17.57
35.625,38.21
35.640,59.66
35.656,80.32
35.671,99.02
35.687,115.12
35.703,128.51
35.718,139.34
35.734,147.87
35.750,154.3
35.765,158.64
35.781,160.77
35.796,160.45
35.812,157.45
35.828,151.62
35.843,143.13
35.859,132.56
35.875,120.99
35.890,109.84
35.906,100.6
35.921,94.37
35.937,91.46
35.953,91.11
35.968,91.54
35.984,90.48
36.000,85.67
36.015,75.5
36.031,59.39
36.046,38.01
36.062,13.16
36.078,-12.44
36.093,-35.82
36.109,-54.48
36.125,-67.1
36.140,-74.04
36.156,-77.14
36.171,-78.85
36.187,-81.37
36.203,-85.79
36.218,-91.72
36.234,-97.75
36.250,-102.05
36.265,-103.08
36.281,-99.93
36.296,-92.56
36.312,-81.44
36.328,-67.59
36.343,-52.24
36.359,-36.72
36.375,-22.26
36.390,-9.85
36.406,-0.15
36.421,6.56
36.437,10.31
36.453,11.53
36.468,10.82
36.484,9.01
36.500,6.91
36.515,5.15
36.531,4.05
36.546,3.66
36.562,3.81
36.578,4.36
36.593,5.34
36.609,6.74
36.625,8.56
36.640,10.71
36.656,12.9
36.671,14.77
36.687,15.91
36.703,15.95
36.718,14.62
36.734,11.77
36.750,7.4
36.765,1.69
36.781,-4.92
36.796,-11.96
36.812,-18.92
36.828,-25.54
36.843,-31.73
36.859,-37.6
36.875,-43.33
36.890,-49.1
36.906,-55.07
36.921,-61.22
36.937,-67.37
36.953,-72.93
36.968,-76.96
36.984,-78.34
37.000,-76.17
37.015,-70.11
37.031,-60.61
37.046,-48.81
37.062,-36.11
37.078,-23.79
37.093,-12.63
37.109,-3.07
37.125,4.71
37.140,10.51
37.156,14.13
37.171,15.45
37.187,14.62
37.203,12.13
37.218,8.78
37.234,5.34
37.250,2.37
37.265,0.02
37.281,-1.92
37.296,-3.79
37.312,-5.75
37.328,-7.73
37.343,-9.43
37.359,-10.5
37.375,-10.89
37.390,-10.88
37.406,-11.13
37.421,-12.34
37.437,-14.92
37.453,-18.82
37.468,-23.57
37.484,-28.45
37.500,-32.91
37.515,-36.72
37.531,-40.02
37.546,-43.2
37.562,-46.81
37.578,-51.35
37.593,-57.09
37.609,-64.0
37.625,-71.56
37.640,-78.67
37.656,-83.85
37.671,-85.57
37.687,-82.7
37.703,-74.96
37.718,-63.03
37.734,-48.38
37.750,-32.79
37.765,-17.93
37.781,-5.03
37.796,5.1
37.812,12.11
37.828,16.01
37.843,17.06
37.859,15.8
37.875,12.95
37.890,9.34
37.906,5.78
37.921,2.86
37.937,0.9
37.953,-0.08
37.968,-0.35
37.984,-0.21
38.000,0.04
38.015,0.35
38.031,0.85
38.046,1.72
38.062,2.95
38.078,4.23
38.093,4.92
38.109,4.27
38.125,1.81
38.140,-2.39
38.156,-7.72
38.171,-13.26
38.187,-18.24
38.203,-22.28
38.218,-25.53
38.234,-28.61
38.250,-32.28
38.265,-37.25
38.281,-43.94
38.296,-52.17
38.312,-61.1
38.328,-69.32
38.343,-75.01
38.359,-76.5
38.375,-72.84
38.390,-64.09
38.406,-51.34
38.421,-36.3
38.437,-20.65
38.453,-5.65
38.468,8.0
38.484,19.98
38.500,30.08
38.515,38.0
38.531,43.38
38.546,46.04
38.562,46.08
38.578,44.08
38.593,40.89
38.609,37.45
38.625,34.52
38.640,32.6
38.656,31.9
38.671,32.4
38.687,33.94
38.703,36.27
38.718,39.18
38.734,42.4
38.750,45.71
38.765,48.82
38.781,51.26
38.796,52.45
38.812,51.86
38.828,49.12
38.843,44.26
38.859,37.83
38.875,30.72
38.890,23.97
38.906,18.46
38.921,14.67
38.937,12.6
38.953,12.06
38.968,12.67
38.984,14.07
39.000,15.91
39.015,17.75
39.031,19.13
39.046,19.58
39.062,18.73
39.078,16.41
39.093,12.75
39.109,8.19
39.125,3.39
39.140,-0.98
39.156,-4.4
39.171,-6.6
39.187,-7.57
39.203,-7.52
39.218,-6.77
39.234,-5.67
39.250,-4.57
39.265,-3.74
39.281,-3.45
39.296,-3.9
39.312,-5.22
39.328,-7.45
39.343,-10.66
39.359,-14.9
39.375,-20.13
39.390,-26.13
39.406,-32.28
39.421,-37.59
39.437,-41.1
39.453,-42.12
39.468,-40.78
39.484,-38.13
39.500,-35.81
39.515,-35.47
39.531,-38.25
39.546,-44.23
39.562,-52.68
39.578,-62.44
39.593,-72.29
39.609,-81.33
39.625,-89.01
39.640,-95.09
39.656,-99.6
39.671,-103.04
39.687,-106.38
39.703,-110.79
39.718,-117.16
39.734,-125.42
39.750,-134.19
39.765,-141.17
39.781,-143.97
39.796,-141.14
39.812,-132.72
39.828,-120.1
39.843,-105.23
39.859,-89.89
39.875,-75.12
39.890,-61.26
39.906,-48.37
39.921,-36.65
39.937,-26.55
39.953,-18.53
39.968,-12.68
39.984,-8.52
40.000,-5.15
40.015,-1.57
40.031,2.78
40.046,7.8
40.062,12.87
40.078,17.15
40.093,20.19
40.109,22.22
40.125,24.05
40.140,26.61
40.156,30.41
40.171,35.17
40.187,39.94
40.203,43.43
40.218,44.57
40.234,42.72
40.250,37.67
40.265,29.64
40.281,19.08
40.296,6.7
40.312,-6.62
40.328,-19.92
40.343,-32.48
40.359,-43.95
40.375,-54.34
40.390,-63.66
40.406,-71.33
40.421,-75.86
40.437,-75.11
40.453,-67.01
40.468,-50.78
40.484,-27.69
40.500,-1.17
40.515,24.26
40.531,44.56
40.546,57.77
40.562,64.45
40.578,67.25
40.593,69.4
40.609,73.19
40.625,79.16
40.640,86.36
40.656,93.23
40.671,98.59
40.687,101.87
40.703,102.73
40.718,100.41
40.734,93.48
40.750,80.21
40.765,59.46
40.781,31.6
40.796,-1.3
40.812,-35.8
40.828,-68.03
40.843,-94.72
40.859,-114.04
40.875,-125.97
40.890,-131.91
40.906,-134.12
40.921,-134.79
40.937,-135.31
40.953,-136.12
40.968,-136.89
40.984,-137.01
41.000,-136.0
41.015,-133.72
41.031,-130.11
41.046,-125.0
41.062,-118.03
41.078,-108.64
41.093,-96.36
41.109,-81.04
41.125,-62.89
41.140,-42.48
41.156,-20.76
41.171,1.02
41.187,21.5
41.203,39.33
41.218,53.61
41.234,64.0
41.250,70.76
41.265,74.42
41.281,75.48
41.296,74.2
41.312,70.76
41.328,65.53
41.343,59.27
41.359,53.22
41.375,48.58
41.390,46.34
41.406,46.72
41.421,49.19
41.437,52.58
41.453,55.45
41.468,56.54
41.484,55.02
41.500,50.74
41.515,44.06
41.531,35.71
41.546,26.68
41.562,17.76
41.578,9.49
41.593,1.92
41.609,-5.48
41.625,-13.82
41.640,-24.41
41.656,-38.43
41.671,-56.35
41.687,-77.5
41.703,-100.01
41.718,-121.09
41.734,-137.81
41.750,-147.86
41.765,-150.18
41.781,-145.06
41.796,-133.87
41.812,-118.44
41.828,-100.51
41.843,-81.48
41.859,-62.33
41.875,-43.87
41.890,-26.87
41.906,-12.07
41.921,0.06
41.937,9.49
41.953,16.66
41.968,22.35
41.984,27.33
42.000,32.17
42.015,37.06
42.031,41.87
42.046,46.36
42.062,50.26
42.078,53.42
42.093,55.74
42.109,57.03
42.125,56.93
42.140,55.01
42.156,50.86
42.171,44.38
42.187,35.87
42.203,26.02
42.218,15.67
42.234,5.59
42.250,-3.88
42.265,-12.85
42.281,-21.82
42.296,-31.41
42.312,-42.02
42.328,-53.52
42.343,-64.95
42.359,-74.59
42.375,-80.26
42.390,-79.92
42.406,-72.3
42.421,-57.32
42.437,-36.17
42.453,-10.83
42.468,16.38
42.484,43.5
42.500,69.14
42.515,92.5
42.531,113.1
42.546,130.64
42.562,144.79
42.578,155.36
42.593,162.47
42.609,166.56
42.625,168.38
42.640,168.73
42.656,168.25
42.671,167.3
42.687,166.04
42.703,164.57
42.718,163.05
42.734,161.9
42.750,161.59
42.765,162.4
42.781,164.24
42.796,166.44
42.812,168.01
42.828,167.87
42.843,165.27
42.859,160.15
42.875,153.15
42.890,145.42
42.906,138.21
42.921,132.42
42.937,128.15
42.953,124.7
42.968,120.62
42.984,114.33
43.000,104.69
43.015,91.67
43.031,76.57
43.046,61.81
43.062,50.19
43.078,43.86
43.093,43.64
43.109,48.65
43.125,56.58
43.140,64.3
43.156,68.71
43.171,67.41
43.187,59.27
43.203,44.77
43.218,25.73
43.234,4.93
43.250,-14.83
43.265,-31.55
43.281,-44.49
43.296,-54.08
43.312,-61.39
43.328,-67.44
43.343,-72.72
43.359,-77.4
43.375,-81.51
43.390,-85.42
43.406,-89.73
43.421,-94.86
43.437,-100.62
43.453,-106.19
43.468,-110.4
43.484,-112.37
43.500,-111.99
43.515,-109.94
43.531,-107.4
43.546,-105.45
43.562,-104.53
43.578,-104.35
43.593,-104.11
43.609,-102.9
43.625,-100.2
43.640,-96.16
43.656,-91.45
43.671,-87.07
43.687,-84.07
43.703,-83.16
43.718,-84.56
43.734,-87.81
43.750,-91.71
43.765,-94.28
43.781,-93.19
43.796,-86.07
43.812,-71.24
43.828,-48.49
43.843,-19.26
43.859,13.45
43.875,45.81
43.890,74.33
43.906,96.62
43.921,111.93
43.937,120.92
43.953,125.0
43.968,125.61
43.984,123.69
44.000,119.62
44.015,113.46
44.031,105.31
44.046,95.5
44.062,84.54
44.078,73.12
44.093,61.84
44.109,51.23
44.125,41.89
44.140,34.46
44.156,29.72
44.171,28.3
44.187,30.35
44.203,35.2
44.218,41.44
44.234,47.08
44.250,50.2
44.265,49.5
44.281,44.67
44.296,36.39
44.312,25.97
44.328,14.75
44.343,3.67
44.359,-6.85
44.375,-16.85
44.390,-26.48
44.406,-35.87
44.421,-45.06
44.437,-54.04
44.453,-62.75
44.468,-70.89
44.484,-77.7
44.500,-81.92
44.515,-82.13
44.531,-77.13
44.546,-66.46
44.562,-50.84
44.578,-31.89
44.593,-11.64
44.609,7.98
44.625,25.7
44.640,40.99
44.656,53.83
44.671,64.44
44.687,73.03
44.703,79.58
44.718,83.96
44.734,86.12
44.750,86.22
44.765,84.7
44.781,82.18
44.796,79.4
44.812,76.93
44.828,75.2
44.843,74.32
44.859,74.23
44.875,74.74
44.890,75.59
44.906,76.53
44.921,77.32
44.937,77.75
44.953,77.6
44.968,76.71
44.984,74.93
45.000,72.25
45.015,68.75
45.031,64.62
45.046,60.19
45.062,55.83
45.078,51.9
45.093,48.59
45.109,45.94
45.125,43.77
45.140,41.83
45.156,39.85
45.171,37.59
45.187,34.97
45.203,31.91
45.218,28.46
45.234,24.61
45.250,20.43
45.265,15.98
45.281,11.36
45.296,6.72
45.312,2.21
45.328,-1.98
45.343,-5.75
45.359,-8.93
45.375,-11.5
45.390,-13.41
45.406,-14.73
45.421,-15.64
45.437,-16.4
45.453,-17.3
45.468,-18.48
45.484,-20.03
45.500,-21.85
45.515,-23.8
45.531,-25.71
45.546,-27.45
45.562,-28.99
45.578,-30.4
45.593,-31.81
45.609,-33.41
45.625,-35.45
45.640,-38.15
45.656,-41.67
45.671,-45.99
45.687,-50.86
45.703,-55.96
45.718,-61.0
45.734,-65.9
45.750,-70.76
45.765,-75.81
45.781,-81.28
45.796,-87.14
45.812,-93.14
45.828,-98.84
45.843,-103.88
45.859,-108.14
45.875,-111.88
45.890,-115.64
45.906,-120.12
45.921,-125.89
45.937,-133.11
45.953,-141.34
45.968,-149.39
45.984,-155.52
46.000,-157.7
46.015,-154.21
46.031,-144.13
46.046,-127.59
46.062,-105.73
46.078,-80.49
46.093,-54.03
46.109,-28.27
46.125,-4.7
46.140,15.78
46.156,32.67
46.171,45.71
46.187,54.79
46.203,60.04
46.218,61.82
46.234,60.81
46.250,58.04
46.265,54.58
46.281,51.4
46.296,49.08
46.312,47.7
46.328,46.96
46.343,46.46
46.359,45.78
46.375,44.72
46.390,43.21
46.406,41.21
46.421,38.59
46.437,35.08
46.453,30.38
46.468,24.33
46.484,17.05
46.500,8.94
46.515,0.69
46.531,-7.03
46.546,-13.77
46.562,-19.42
46.578,-24.32
46.593,-29.06
46.609,-34.38
46.625,-40.9
46.640,-48.78
46.656,-57.58
46.671,-66.25
46.687,-73.2
46.703,-76.72
46.718,-75.42
46.734,-68.63
46.750,-56.65
46.765,-40.64
46.781,-22.32
46.796,-3.51
46.812,14.12
46.828,29.41
46.843,41.63
46.859,50.51
46.875,55.99
46.890,58.36
46.906,58.1
46.921,55.96
46.937,52.79
46.953,49.39
46.968,46.41
46.984,44.14
47.000,42.49
47.015,41.04
47.031,39.27
47.046,36.79
47.062,33.51
47.078,29.7
47.093,25.8
47.109,22.21
47.125,19.0
47.140,15.9
47.156,12.37
47.171,7.91
47.187,2.34
47.203,-4.2
47.218,-11.26
47.234,-18.34
47.250,-25.15
47.265,-31.72
47.281,-38.37
47.296,-45.49
47.312,-53.36
47.328,-62.01
47.343,-71.12
47.359,-79.88
47.375,-87.09
47.390,-91.18
47.406,-90.66
47.421,-84.48
47.437,-72.4
47.453,-55.27
47.468,-34.77
47.484,-13.04
47.500,7.93
47.515,26.71
47.531,42.51
47.546,55.07
47.562,64.41
47.578,70.57
47.593,73.57
47.609,73.62
47.625,71.09
47.640,66.68
47.656,61.28
47.671,55.77
47.687,50.86
47.703,46.93
47.718,44.03
47.734,41.91
47.750,40.28
47.765,38.81
47.781,37.28
47.796,35.59
47.812,33.64
47.828,31.27
47.843,28.23
47.859,24.24
47.875,19.05
47.890,12.61
47.906,5.1
47.921,-3.07
47.937,-11.36
47.953,-19.29
47.968,-26.56
47.984,-33.21
48.000,-39.44
48.015,-45.62
48.031,-52.1
48.046,-59.28
48.062,-67.4
48.078,-76.49
48.093,-86.24
48.109,-95.72
48.125,-103.42
48.140,-107.45
48.156,-106.04
48.171,-98.1
48.187,-83.68
48.203,-64.01
48.218,-41.21
48.234,-17.68
48.250,4.46
48.265,23.79
48.281,39.62
48.296,51.92
48.312,60.95
48.328,67.14
48.343,70.87
48.359,72.51
48.375,72.41
48.390,70.97
48.406,68.58
48.421,65.64
48.437,62.54
48.453,59.56
48.468,56.91
48.484,54.67
48.500,52.81
48.515,51.2
48.531,49.69
48.546,48.07
48.562,46.08
48.578,43.56
48.593,40.32
48.609,36.24
48.625,31.32
48.640,25.55
48.656,18.98
48.671,11.8
48.687,4.25
48.703,-3.39
48.718,-10.88
48.734,-18.07
48.750,-24.9
48.765,-31.4
48.781,-37.7
48.796,-43.98
48.812,-50.49
48.828,-57.54
48.843,-65.42
48.859,-74.24
48.875,-83.7
48.890,-92.76
48.906,-99.79
48.921,-102.9
48.937,-100.38
48.953,-91.37
48.968,-76.05
48.984,-55.78
49.000,-32.64
49.015,-8.95
49.031,13.29
49.046,32.7
49.062,48.61
49.078,60.88
49.093,69.75
49.109,75.62
49.125,78.98
49.140,80.38
49.156,80.28
49.171,79.18
49.187,77.46
49.203,75.46
49.218,73.33
49.234,71.12
49.250,68.86
49.265,66.59
49.281,64.44
49.296,62.53
49.312,60.95
49.328,59.7
49.343,58.58
49.359,57.23
49.375,55.27
49.390,52.4
49.406,48.54
49.421,43.79
49.437,38.37
49.453,32.42
49.468,26.01
49.484,19.08
49.500,11.61
49.515,3.65
49.531,-4.57
49.546,-12.76
49.562,-20.61
49.578,-27.99
49.593,-34.99
49.609,-41.87
49.625,-49.04
49.640,-56.88
49.656,-65.66
49.671,-75.41
49.687,-85.61
49.703,-95.08
49.718,-102.08
49.734,-104.63
49.750,-101.15
49.765,-91.05
49.781,-75.02
49.796,-54.98
49.812,-33.51
49.828,-13.12
49.843,4.41
49.859,18.28
49.875,28.53
49.890,35.7
49.906,40.4
49.921,43.14
49.937,44.31
49.953,44.22
49.968,43.31
49.984,42.06
50.000,40.88
50.015,40.01
50.031,39.48
50.046,39.05
50.062,38.45
50.078,37.5
50.093,36.18
50.109,34.63
50.125,33.04
50.140,31.49
50.156,29.91
50.171,28.12
50.187,25.77
50.203,22.65
50.218,18.64
50.234,13.8
50.250,8.29
50.265,2.34
50.281,-3.87
50.296,-10.1
50.312,-16.13
50.328,-21.74
50.343,-26.78
50.359,-31.26
50.375,-35.33
50.390,-39.33
50.406,-43.69
50.421,-48.78
50.437,-54.7
50.453,-61.15
50.468,-67.32
50.484,-71.91
50.500,-73.37
50.515,-70.35
50.531,-62.02
50.546,-48.58
50.562,-31.22
50.578,-11.84
50.593,7.46
50.609,24.94
50.625,39.57
50.640,50.99
50.656,59.29
50.671,64.81
50.687,67.84
50.703,68.74
50.718,67.88
50.734,65.8
50.750,62.99
50.765,59.84
50.781,56.55
50.796,53.15
50.812,49.62
50.828,46.02
50.843,42.57
50.859,39.54
50.875,37.13
50.890,35.29
50.906,33.82
50.921,32.43
50.937,30.93
50.953,29.32
50.968,27.72
50.984,26.28
51.000,24.96
51.015,23.56
51.031,21.67
51.046,18.91
51.062,14.92
51.078,9.47
51.093,2.3
51.109,-6.8
51.125,-17.95
51.140,-31.04
51.156,-45.53
51.171,-60.56
51.187,-75.21
51.203,-88.79
51.218,-101.06
51.234,-112.03
51.250,-121.69
51.265,-129.45
51.281,-134.05
51.296,-133.82
51.312,-127.35
51.328,-114.27
51.343,-95.55
51.359,-73.35
51.375,-50.43
51.390,-29.3
51.406,-11.58
51.421,2.11
51.437,12.03
51.453,18.83
51.468,23.12
51.484,25.36
51.500,25.84
51.515,24.95
51.531,23.22
51.546,21.41
51.562,20.21
51.578,20.11
51.593,21.14
51.609,22.87
51.625,24.67
51.640,25.95
51.656,26.43
51.671,26.15
51.687,25.47
51.703,24.7
51.718,24.04
51.734,23.42
51.750,22.59
51.765,21.24
51.781,19.1
51.796,15.98
51.812,11.77
51.828,6.49
51.843,0.2
51.859,-6.87
51.875,-14.33
51.890,-21.73
51.906,-28.56
51.921,-34.56
51.937,-39.64
51.953,-44.04
51.968,-48.22
51.984,-52.77
52.000,-58.16
52.015,-64.62
52.031,-71.89
52.046,-79.06
52.062,-84.68
52.078,-86.96
52.093,-84.19
52.109,-75.43
52.125,-60.87
52.140,-41.87
52.156,-20.65
52.171,0.33
52.187,18.99
52.203,34.09
52.218,45.15
52.234,52.4
52.250,56.4
52.265,57.8
52.281,57.31
52.296,55.55
52.312,53.17
52.328,50.72
52.343,48.63
52.359,47.03
52.375,45.84
52.390,44.72
52.406,43.4
52.421,41.67
52.437,39.57
52.453,37.29
52.468,35.06
52.484,32.99
52.500,31.03
52.515,29.03
52.531,26.81
52.546,24.29
52.562,21.52
52.578,18.49
52.593,15.13
52.609,11.23
52.625,6.53
52.640,0.79
52.656,-6.03
52.671,-13.76
52.687,-21.99
52.703,-30.15
52.718,-37.68
52.734,-44.19
52.750,-49.57
52.765,-54.13
52.781,-58.39
52.796,-62.99
52.812,-68.21
52.828,-73.7
52.843,-78.36
52.859,-80.6
52.875,-78.87
52.890,-72.32
52.906,-61.09
52.921,-46.45
52.937,-30.32
52.953,-14.61
52.968,-0.83
52.984,10.26
53.000,18.5
53.015,24.09
53.031,27.25
53.046,28.17
53.062,27.0
53.078,24.07
53.093,19.95
53.109,15.43
53.125,11.35
53.140,8.39
53.156,6.87
53.171,6.66
53.187,7.33
53.203,8.33
53.218,9.23
53.234,9.8
53.250,9.98
53.265,9.88
53.281,9.62
53.296,9.32
53.312,9.03
53.328,8.74
53.343,8.3
53.359,7.51
53.375,6.14
53.390,4.01
53.406,1.17
53.421,-2.22
53.437,-5.83
53.453,-9.3
53.468,-12.42
53.484,-15.11
53.500,-17.52
53.515,-19.94
53.531,-22.76
53.546,-26.34
53.562,-30.82
53.578,-35.87
53.593,-40.61
53.609,-43.62
53.625,-43.33
53.640,-38.55
53.656,-28.87
53.671,-14.9
53.687,1.83
53.703,19.38
53.718,35.95
53.734,50.28
53.750,61.76
53.765,70.27
53.781,75.86
53.796,78.62
53.812,78.57
53.828,75.91
53.843,70.99
53.859,64.62
53.875,57.82
53.890,51.59
53.906,46.69
53.921,43.42
53.937,41.5
53.953,40.38
53.968,39.38
53.984,37.9
54.000,35.67
54.015,32.68
54.031,29.06
54.046,25.06
54.062,20.85
54.078,16.45
54.093,11.83
54.109,6.94
54.125,1.76
54.140,-3.69
54.156,-9.28
54.171,-14.87
54.187,-20.29
54.203,-25.44
54.218,-30.34
54.234,-35.09
54.250,-39.94
54.265,-45.28
54.281,-51.46
54.296,-58.62
54.312,-66.54
54.328,-74.39
54.343,-80.74
54.359,-83.93
54.375,-82.41
54.390,-75.31
54.406,-62.81
54.421,-45.95
54.437,-26.42
54.453,-6.02
54.468,13.85
54.484,32.29
54.500,48.82
54.515,63.28
54.531,75.56
54.546,85.57
54.562,93.44
54.578,99.41
54.593,103.97
54.609,107.65
54.625,110.8
54.640,113.57
54.656,115.94
54.671,117.87
54.687,119.51
54.703,121.29
54.718,123.73
54.734,127.17
54.750,131.5
54.765,136.01
54.781,139.63
54.796,141.24
54.812,139.83
54.828,134.68
54.843,125.42
54.859,112.13
54.875,95.48
54.890,76.97
54.906,58.79
54.921,43.46
54.937,32.96
54.953,28.19
54.968,28.51
54.984,32.17
55.000,37.04
55.015,41.38
55.031,44.32
55.046,45.71
55.062,45.79
55.078,44.65
55.093,42.17
55.109,38.24
55.125,32.89
55.140,26.55
55.156,19.84
55.171,13.34
55.187,7.33
55.203,1.71
55.218,-3.79
55.234,-9.32
55.250,-14.77
55.265,-19.88
55.281,-24.36
55.296,-28.19
55.312,-31.59
55.328,-34.94
55.343,-38.61
55.359,-42.74
55.375,-47.16
55.390,-51.54
55.406,-55.6
55.421,-59.22
55.437,-62.63
55.453,-66.12
55.468,-69.97
55.484,-74.25
55.500,-78.71
55.515,-82.77
55.531,-85.72
55.546,-86.98
55.562,-86.27
55.578,-83.72
55.593,-79.9
55.609,-75.6
55.625,-71.58
55.640,-68.29
55.656,-65.76
55.671,-63.73
55.687,-61.9
55.703,-60.17
55.718,-58.85
55.734,-58.59
55.750,-60.19
55.765,-64.34
55.781,-71.26
55.796,-80.46
55.812,-90.62
55.828,-99.76
55.843,-105.52
55.859,-105.91
55.875,-99.86
55.890,-87.66
55.906,-70.91
55.921,-52.04
55.937,-33.66
55.953,-17.84
55.968,-5.9
55.984,1.74
56.000,5.2
56.015,5.03
56.031,2.09
56.046,-2.53
56.062,-7.68
56.078,-12.28
56.093,-15.61
56.109,-17.39
56.125,-17.78
56.140,-17.35
56.156,-16.79
56.171,-16.66
56.187,-17.18
56.203,-18.2
56.218,-19.41
56.234,-20.46
56.250,-21.3
56.265,-22.25
56.281,-23.92
56.296,-27.03
56.312,-32.15
56.328,-39.3
56.343,-48.0
56.359,-57.45
56.375,-66.73
56.390,-75.14
56.406,-82.41
56.421,-88.71
56.437,-94.58
56.453,-100.68
56.468,-107.43
56.484,-114.73
56.500,-121.67
56.515,-126.65
56.531,-127.63
56.546,-122.78
56.562,-111.09
56.578,-92.86
56.593,-69.71
56.609,-44.2
56.625,-19.04
56.640,3.48
56.656,21.92
56.671,35.71
56.687,45.0
56.703,50.36
56.718,52.64
56.734,52.75
56.750,51.57
56.765,49.97
56.781,48.63
56.796,48.0
56.812,48.26
56.828,49.38
56.843,51.16
56.859,53.31
56.875,55.48
56.890,57.33
56.906,58.57
56.921,58.92
56.937,58.09
56.953,55.86
56.968,52.12
56.984,47.0
57.000,40.98
57.015,34.75
57.031,29.12
57.046,24.66
57.062,21.7
57.078,20.24
57.093,20.15
57.109,21.27
57.125,23.39
57.140,26.31
57.156,29.61
57.171,32.72
57.187,34.95
57.203,35.75
57.218,34.81
57.234,32.24
57.250,28.44
57.265,23.95
57.281,19.37
57.296,15.14
57.312,11.64
57.328,9.08
57.343,7.56
57.359,7.02
57.375,7.2
57.390,7.64
57.406,7.68
57.421,6.71
57.437,4.28
57.453,0.25
57.468,-5.18
57.484,-11.57
57.500,-18.45
57.515,-25.43
57.531,-32.24
57.546,-38.76
57.562,-44.86
57.578,-50.42
57.593,-55.51
57.609,-60.32
57.625,-65.25
57.640,-70.84
57.656,-77.55
57.671,-85.51
57.687,-94.48
57.703,-103.87
57.718,-112.91
57.734,-121.02
57.750,-127.96
57.765,-134.04
57.781,-139.94
57.796,-146.59
57.812,-154.71
57.828,-164.58
57.843,-175.62
57.859,-186.26
57.875,-194.13
57.890,-196.47
57.906,-190.83
57.921,-175.91
57.937,-152.0
57.953,-120.97
57.968,-85.93
57.984,-50.35
58.000,-17.28
58.015,11.11
58.031,33.72
58.046,50.39
58.062,61.55
58.078,68.05
58.093,70.88
58.109,71.08
58.125,69.64
58.140,67.34
58.156,64.64
58.171,61.74
58.187,58.69
58.203,55.44
58.218,52.11
58.234,48.97
58.250,46.35
58.265,44.62
58.281,43.87
58.296,43.79
58.312,43.8
58.328,43.05
58.343,40.73
58.359,36.32
58.375,29.72
58.390,21.26
58.406,11.52
58.421,1.23
58.437,-9.14
58.453,-19.36
58.468,-29.6
58.484,-40.19
58.500,-51.42
58.515,-63.19
58.531,-74.7
58.546,-84.5
58.562,-90.57
58.578,-91.03
58.593,-84.55
58.609,-71.06
58.625,-51.73
58.640,-28.74
58.656,-4.62
58.671,18.37
58.687,38.75
58.703,55.8
58.718,69.29
58.734,79.28
58.750,85.81
58.765,89.0
58.781,89.17
58.796,86.96
58.812,83.26
58.828,78.96
58.843,74.81
58.859,71.11
58.875,67.88
58.890,65.01
58.906,62.4
58.921,60.1
58.937,58.12
58.953,56.33
58.968,54.28
58.984,51.35
59.000,46.89
59.015,40.58
59.031,32.6
59.046,23.57
59.062,14.32
59.078,5.61
59.093,-2.18
59.109,-9.09
59.125,-15.59
59.140,-22.39
59.156,-30.17
59.171,-39.32
59.187,-49.56
59.203,-59.79
59.218,-68.16
59.234,-72.4
59.250,-70.49
59.265,-61.39
59.281,-45.45
59.296,-24.4
59.312,-0.86
59.328,22.45
59.343,43.34
59.359,60.59
59.375,73.79
59.390,83.07
59.406,88.73
59.421,91.12
59.437,90.62
59.453,87.87
59.468,83.83
59.484,79.59
59.500,76.09
59.515,73.76
59.531,72.45
59.546,71.58
59.562,70.52
59.578,68.87
59.593,66.63
59.609,64.11
59.625,61.53
59.640,58.89
59.656,55.83
59.671,51.81
59.687,46.37
59.703,39.48
59.718,31.51
59.734,23.18
59.750,15.24
59.765,8.21
59.781,2.24
59.796,-3.0
59.812,-8.2
59.828,-14.26
59.843,-21.86
59.859,-31.23
59.875,-41.82
59.890,-52.33
59.906,-60.79
59.921,-65.02
59.937,-63.31
59.953,-54.88
59.968,-40.24
59.984,-21.01
