timestamp,value
00.000,21.46
00.015,19.7
00.031,17.89
00.046,16.05
00.062,14.16
00.078,12.26
00.093,10.44
00.109,8.71
00.125,7.03
00.140,5.33
00.156,3.56
00.171,1.63
00.187,-0.37
00.203,-2.29
00.218,-3.93
00.234,-5.03
00.250,-5.4
00.265,-5.0
00.281,-3.9
00.296,-2.29
00.312,-0.48
00.328,1.24
00.343,2.64
00.359,3.6
00.375,4.08
00.390,4.08
00.406,3.56
00.421,2.44
00.437,0.61
00.453,-2.03
00.468,-5.46
00.484,-9.44
00.500,-13.59
00.515,-17.37
00.531,-20.23
00.546,-21.7
00.562,-21.51
00.578,-19.64
00.593,-16.37
00.609,-12.2
00.625,-7.62
00.640,-3.08
00.656,1.17
00.671,5.05
00.687,8.56
00.703,11.67
00.718,14.3
00.734,16.3
00.750,17.66
00.765,18.49
00.781,19.08
00.796,19.72
00.812,20.6
00.828,21.73
00.843,22.91
00.859,23.97
00.875,24.91
00.890,25.93
00.906,27.46
00.921,29.82
00.937,33.11
00.953,37.08
00.968,41.17
00.984,44.8
01.000,47.59
01.015,49.54
01.031,51.04
01.046,52.68
01.062,54.95
01.078,58.15
01.093,62.16
01.109,66.61
01.125,70.96
01.140,74.88
01.156,78.23
01.171,81.17
01.187,84.14
01.203,87.6
01.218,91.99
01.234,97.53
01.250,104.1
01.265,111.07
01.281,117.28
01.296,121.16
01.312,121.26
01.328,116.84
01.343,108.34
01.359,97.57
01.375,87.25
01.390,80.17
01.406,78.39
01.421,82.78
01.437,93.01
01.453,107.98
01.468,126.23
01.484,146.01
01.500,165.38
01.515,182.17
01.531,194.3
01.546,200.23
01.562,199.58
01.578,193.37
01.593,183.66
01.609,173.07
01.625,163.88
01.640,157.61
01.656,154.64
01.671,154.28
01.687,154.95
01.703,154.71
01.718,151.73
01.734,144.85
01.750,133.86
01.765,119.58
01.781,103.41
01.796,86.6
01.812,69.83
01.828,52.95
01.843,35.19
01.859,15.78
01.875,-5.4
01.890,-27.37
01.906,-48.19
01.921,-65.67
01.937,-78.51
01.953,-87.05
01.968,-93.39
01.984,-100.59
02.000,-111.4
02.015,-127.11
02.031,-147.15
02.046,-169.62
02.062,-192.41
02.078,-214.17
02.093,-234.55
02.109,-253.66
02.125,-271.33
02.140,-286.65
02.156,-298.09
02.171,-304.1
02.187,-303.54
02.203,-295.83
02.218,-280.92
02.234,-259.25
02.250,-232.24
02.265,-202.58
02.281,-174.19
02.296,-151.51
02.312,-138.0
02.328,-134.73
02.343,-139.71
02.359,-148.38
02.375,-155.13
02.390,-155.15
02.406,-145.66
02.421,-126.18
02.437,-98.04
02.453,-63.62
02.468,-26.11
02.484,10.51
02.500,41.67
02.515,62.91
02.531,71.19
02.546,66.22
02.562,51.07
02.578,31.29
02.593,12.99
02.609,0.44
02.625,-5.36
02.640,-6.72
02.656,-7.63
02.671,-11.81
02.687,-21.17
02.703,-35.29
02.718,-52.19
02.734,-69.36
02.750,-84.8
02.765,-97.48
02.781,-107.33
02.796,-114.96
02.812,-121.31
02.828,-127.25
02.843,-133.08
02.859,-138.36
02.875,-142.14
02.890,-143.2
02.906,-140.59
02.921,-133.82
02.937,-123.02
02.953,-108.7
02.968,-91.62
02.984,-72.79
03.000,-53.51
03.015,-35.1
03.031,-18.46
03.046,-3.6
03.062,10.68
03.078,26.38
03.093,45.46
03.109,69.01
03.125,96.6
03.140,126.22
03.156,154.55
03.171,177.49
03.187,190.8
03.203,191.0
03.218,176.3
03.234,147.4
03.250,107.53
03.265,61.37
03.281,13.47
03.296,-33.31
03.312,-78.21
03.328,-121.73
03.343,-164.05
03.359,-203.6
03.375,-237.17
03.390,-261.1
03.406,-273.0
03.421,-272.63
03.437,-261.77
03.453,-243.24
03.468,-220.12
03.484,-195.45
03.500,-172.51
03.515,-154.7
03.531,-144.89
03.546,-144.32
03.562,-151.72
03.578,-163.59
03.593,-175.5
03.609,-183.85
03.625,-187.0
03.640,-185.26
03.656,-179.83
03.671,-171.78
03.687,-161.42
03.703,-148.63
03.718,-133.52
03.734,-116.89
03.750,-100.08
03.765,-84.42
03.781,-70.66
03.796,-58.74
03.812,-47.94
03.828,-37.36
03.843,-26.48
03.859,-15.38
03.875,-4.8
03.890,4.15
03.906,10.53
03.921,13.95
03.937,14.71
03.953,13.66
03.968,11.85
03.984,10.15
04.000,8.96
04.015,8.28
04.031,7.81
04.046,7.29
04.062,6.64
04.078,6.06
04.093,5.85
04.109,6.15
04.125,6.84
04.140,7.51
04.156,7.54
04.171,6.39
04.187,3.73
04.203,-0.36
04.218,-5.52
04.234,-11.11
04.250,-16.49
04.265,-21.19
04.281,-24.98
04.296,-27.93
04.312,-30.34
04.328,-32.69
04.343,-35.56
04.359,-39.38
04.375,-44.27
04.390,-49.92
04.406,-55.4
04.421,-59.39
04.437,-60.39
04.453,-57.13
04.468,-49.04
04.484,-36.3
04.500,-19.89
04.515,-1.23
04.531,18.21
04.546,37.3
04.562,55.39
04.578,72.22
04.593,87.73
04.609,101.79
04.625,114.11
04.640,124.23
04.656,131.79
04.671,136.65
04.687,139.12
04.703,139.86
04.718,139.66
04.734,139.29
04.750,139.09
04.765,138.94
04.781,138.12
04.796,135.49
04.812,129.82
04.828,120.26
04.843,106.69
04.859,89.98
04.875,71.82
04.890,54.31
04.906,39.39
04.921,28.36
04.937,21.59
04.953,18.49
04.968,17.82
04.984,17.9
05.000,17.05
05.015,13.79
05.031,7.09
05.046,-3.42
05.062,-17.33
05.078,-33.45
05.093,-50.0
05.109,-64.95
05.125,-76.54
05.140,-83.69
05.156,-86.31
05.171,-85.19
05.187,-81.53
05.203,-76.37
05.218,-70.13
05.234,-62.51
05.250,-52.94
05.265,-41.01
05.281,-26.92
05.296,-11.49
05.312,4.11
05.328,18.94
05.343,32.46
05.359,44.7
05.375,55.93
05.390,66.42
05.406,76.14
05.421,84.81
05.437,92.06
05.453,97.6
05.468,101.45
05.484,103.93
05.500,105.65
05.515,107.25
05.531,109.28
05.546,111.93
05.562,115.06
05.578,118.28
05.593,121.07
05.609,123.1
05.625,124.31
05.640,124.89
05.656,125.17
05.671,125.42
05.687,125.71
05.703,125.9
05.718,125.73
05.734,124.95
05.750,123.51
05.765,121.58
05.781,119.5
05.796,117.65
05.812,116.4
05.828,115.88
05.843,116.03
05.859,116.57
05.875,116.95
05.890,116.48
05.906,114.4
05.921,110.19
05.937,103.75
05.953,95.56
05.968,86.59
05.984,78.19
06.000,71.64
06.015,67.74
06.031,66.47
06.046,66.93
06.062,67.68
06.078,67.21
06.093,64.54
06.109,59.51
06.125,52.73
06.140,45.25
06.156,38.05
06.171,31.71
06.187,26.28
06.203,21.51
06.218,17.07
06.234,12.83
06.250,8.83
06.265,5.24
06.281,2.13
06.296,-0.61
06.312,-3.19
06.328,-5.92
06.343,-9.01
06.359,-12.48
06.375,-16.13
06.390,-19.75
06.406,-23.14
06.421,-26.27
06.437,-29.19
06.453,-31.85
06.468,-34.13
06.484,-35.72
06.500,-36.33
06.515,-35.77
06.531,-34.12
06.546,-31.73
06.562,-29.05
06.578,-26.58
06.593,-24.62
06.609,-23.26
06.625,-22.29
06.640,-21.3
06.656,-19.83
06.671,-17.53
06.687,-14.43
06.703,-10.96
06.718,-7.84
06.734,-5.72
06.750,-4.84
06.765,-4.8
06.781,-4.54
06.796,-2.7
06.812,2.01
06.828,10.32
06.843,22.28
06.859,37.29
06.875,54.33
06.890,72.28
06.906,90.2
06.921,107.44
06.937,123.72
06.953,138.96
06.968,153.23
06.984,166.63
07.000,179.33
07.015,191.51
07.031,203.54
07.046,215.86
07.062,228.93
07.078,242.9
07.093,257.43
07.109,271.48
07.125,283.38
07.140,291.15
07.156,293.05
07.171,288.1
07.187,276.36
07.203,258.77
07.218,236.94
07.234,212.74
07.250,187.92
07.265,163.86
07.281,141.34
07.296,120.44
07.312,100.61
07.328,81.0
07.343,60.73
07.359,39.34
07.375,16.95
07.390,-5.92
07.406,-28.61
07.421,-50.68
07.437,-72.03
07.453,-92.83
07.468,-113.34
07.484,-133.85
07.500,-154.66
07.515,-176.37
07.531,-199.77
07.546,-225.43
07.562,-253.29
07.578,-282.27
07.593,-310.54
07.609,-335.87
07.625,-356.43
07.640,-371.19
07.656,-380.03
07.671,-383.39
07.687,-381.75
07.703,-375.46
07.718,-364.72
07.734,-349.92
07.750,-331.81
07.765,-311.53
07.781,-290.28
07.796,-268.97
07.812,-247.99
07.828,-227.25
07.843,-206.44
07.859,-185.26
07.875,-163.67
07.890,-141.82
07.906,-120.13
07.921,-99.12
07.937,-79.35
07.953,-61.24
07.968,-45.05
07.984,-30.86
08.000,-18.46
08.015,-7.41
08.031,2.81
08.046,12.71
08.062,22.57
08.078,32.42
08.093,42.07
08.109,51.24
08.125,59.7
08.140,67.5
08.156,74.89
08.171,82.18
08.187,89.58
08.203,96.89
08.218,103.53
08.234,108.67
08.250,111.63
08.265,112.34
08.281,111.58
08.296,110.72
08.312,111.21
08.328,113.77
08.343,117.91
08.359,121.93
08.375,123.45
08.390,120.37
08.406,111.58
08.421,97.47
08.437,79.7
08.453,60.87
08.468,43.82
08.484,30.98
08.500,23.63
08.515,21.52
08.531,22.76
08.546,24.34
08.562,23.2
08.578,17.48
08.593,7.36
08.609,-4.83
08.625,-15.78
08.640,-22.7
08.656,-24.76
08.671,-23.72
08.687,-23.23
08.703,-27.24
08.718,-38.17
08.734,-55.78
08.750,-77.13
08.765,-97.78
08.781,-113.4
08.796,-121.22
08.812,-120.75
08.828,-113.46
08.843,-102.06
08.859,-89.56
08.875,-78.77
08.890,-72.03
08.906,-71.08
08.921,-76.7
08.937,-88.31
08.953,-103.77
08.968,-119.66
08.984,-132.24
09.000,-138.56
09.015,-137.46
09.031,-129.82
09.046,-118.06
09.062,-105.21
09.078,-93.9
09.093,-85.73
09.109,-81.0
09.125,-79.06
09.140,-78.66
09.156,-78.51
09.171,-77.62
09.187,-75.62
09.203,-72.7
09.218,-69.54
09.234,-66.89
09.250,-65.26
09.265,-64.63
09.281,-64.31
09.296,-63.12
09.312,-59.66
09.328,-52.81
09.343,-42.09
09.359,-27.87
09.375,-11.33
09.390,5.94
09.406,22.25
09.421,36.28
09.437,47.4
09.453,55.72
09.468,62.06
09.484,67.6
09.500,73.5
09.515,80.58
09.531,89.11
09.546,98.78
09.562,108.95
09.578,118.9
09.593,128.12
09.609,136.47
09.625,144.08
09.640,151.09
09.656,157.41
09.671,162.66
09.687,166.15
09.703,167.24
09.718,165.72
09.734,162.08
09.750,157.26
09.765,152.28
09.781,147.69
09.796,143.43
09.812,139.06
09.828,134.03
09.843,128.1
09.859,121.24
09.875,113.42
09.890,104.42
09.906,94.04
09.921,82.51
09.937,70.94
09.953,60.98
09.968,54.02
09.984,49.96
10.000,46.68
10.015,40.59
10.031,28.21
10.046,8.04
10.062,-18.34
10.078,-46.68
10.093,-71.43
10.109,-87.74
10.125,-92.72
10.140,-85.95
10.156,-68.99
10.171,-44.76
10.187,-16.74
10.203,11.45
10.218,36.35
10.234,55.42
10.250,67.49
10.265,73.36
10.281,75.61
10.296,77.89
10.312,83.62
10.328,94.58
10.343,109.8
10.359,125.49
10.375,136.28
10.390,137.2
10.406,125.74
10.421,103.02
10.437,73.66
10.453,44.12
10.468,20.44
10.484,6.13
10.500,1.04
10.515,1.87
10.531,3.5
10.546,0.9
10.562,-9.42
10.578,-28.77
10.593,-56.55
10.609,-91.15
10.625,-130.86
10.640,-174.07
10.656,-219.0
10.671,-262.94
10.687,-302.1
10.703,-332.11
10.718,-349.34
10.734,-352.29
10.750,-342.15
10.765,-322.42
10.781,-297.51
10.796,-271.37
10.812,-246.74
10.828,-225.16
10.843,-207.5
10.859,-194.44
10.875,-186.27
10.890,-182.57
10.906,-181.7
10.921,-180.95
10.937,-177.08
10.953,-167.43
10.968,-150.91
10.984,-128.57
11.000,-103.49
11.015,-79.8
11.031,-61.14
11.046,-49.31
11.062,-43.64
11.078,-41.25
11.093,-38.51
11.109,-32.42
11.125,-21.74
11.140,-7.18
11.156,9.32
11.171,25.65
11.187,40.43
11.203,53.28
11.218,64.66
11.234,75.2
11.250,85.31
11.265,94.97
11.281,103.78
11.296,111.3
11.312,117.4
11.328,122.35
11.343,126.85
11.359,131.74
11.375,137.61
11.390,144.33
11.406,150.93
11.421,155.65
11.437,156.49
11.453,152.04
11.468,142.13
11.484,127.97
11.500,111.84
11.515,96.2
11.531,83.06
11.546,73.58
11.562,68.07
11.578,66.26
11.593,67.31
11.609,69.68
11.625,71.12
11.640,69.24
11.656,62.41
11.671,50.89
11.687,37.19
11.703,25.31
11.718,18.92
11.734,19.37
11.750,24.76
11.765,30.61
11.781,32.12
11.796,26.54
11.812,14.39
11.828,-1.11
11.843,-16.11
11.859,-28.25
11.875,-37.66
11.890,-46.22
11.906,-55.88
11.921,-66.86
11.937,-77.3
11.953,-84.17
11.968,-84.97
11.984,-79.26
12.000,-68.76
12.015,-56.47
12.031,-45.11
12.046,-36.03
12.062,-29.1
12.078,-23.35
12.093,-18.02
12.109,-13.05
12.125,-9.18
12.140,-7.32
12.156,-7.95
12.171,-10.65
12.187,-14.25
12.203,-17.32
12.218,-18.83
12.234,-18.58
12.250,-17.15
12.265,-15.56
12.281,-14.74
12.296,-15.15
12.312,-16.71
12.328,-18.9
12.343,-21.03
12.359,-22.49
12.375,-22.82
12.390,-21.76
12.406,-19.27
12.421,-15.62
12.437,-11.27
12.453,-6.75
12.468,-2.35
12.484,2.17
12.500,7.54
12.515,14.84
12.531,24.99
12.546,38.52
12.562,55.34
12.578,75.04
12.593,96.92
12.609,120.15
12.625,143.5
12.640,165.21
12.656,182.79
12.671,193.54
12.687,195.28
12.703,187.43
12.718,171.53
12.734,151.03
12.750,130.1
12.765,112.21
12.781,99.04
12.796,90.46
12.812,85.38
12.828,83.08
12.843,84.0
12.859,89.17
12.875,98.88
12.890,111.13
12.906,121.34
12.921,123.57
12.937,112.82
12.953,86.89
12.968,46.97
12.984,-3.2
13.000,-58.68
13.015,-114.41
13.031,-165.62
13.046,-208.04
13.062,-238.4
13.078,-255.39
13.093,-260.6
13.109,-258.41
13.125,-254.75
13.140,-254.86
13.156,-261.44
13.171,-274.17
13.187,-290.47
13.203,-307.18
13.218,-321.54
13.234,-331.53
13.250,-335.46
13.265,-331.62
13.281,-318.66
13.296,-296.21
13.312,-265.65
13.328,-230.0
13.343,-193.02
13.359,-158.22
13.375,-127.74
13.390,-102.1
13.406,-80.46
13.421,-61.45
13.437,-43.87
13.453,-27.18
13.468,-11.53
13.484,2.6
13.500,14.77
13.515,24.94
13.531,33.46
13.546,40.99
13.562,48.07
13.578,55.01
13.593,61.79
13.609,68.19
13.625,73.96
13.640,78.98
13.656,83.31
13.671,87.06
13.687,90.35
13.703,93.28
13.718,95.91
13.734,98.33
13.750,100.66
13.765,103.02
13.781,105.51
13.796,108.13
13.812,110.72
13.828,112.97
13.843,114.49
13.859,114.89
13.875,113.95
13.890,111.75
13.906,108.68
13.921,105.34
13.937,102.51
13.953,101.04
13.968,101.74
13.984,105.32
14.000,112.22
14.015,122.56
14.031,135.84
14.046,150.94
14.062,166.08
14.078,179.33
14.093,188.92
14.109,193.64
14.125,192.85
14.140,186.35
14.156,174.14
14.171,156.52
14.187,134.26
14.203,108.79
14.218,82.15
14.234,56.34
14.250,32.65
14.265,10.86
14.281,-10.61
14.296,-33.89
14.312,-60.34
14.328,-89.43
14.343,-118.57
14.359,-143.95
14.375,-162.15
14.390,-171.46
14.406,-172.49
14.421,-167.73
14.437,-160.24
14.453,-152.55
14.468,-145.85
14.484,-140.01
14.500,-134.28
14.515,-127.99
14.531,-120.94
14.546,-113.45
14.562,-106.05
14.578,-99.04
14.593,-92.49
14.609,-86.27
14.625,-80.3
14.640,-74.69
14.656,-69.62
14.671,-65.05
14.687,-60.45
14.703,-54.68
14.718,-46.36
14.734,-34.22
14.750,-17.74
14.765,2.7
14.781,26.05
14.796,50.93
14.812,76.19
14.828,101.17
14.843,125.52
14.859,148.93
14.875,170.81
14.890,190.07
14.906,205.24
14.921,214.86
14.937,217.8
14.953,213.77
14.968,203.44
14.984,188.33
15.000,170.27
15.015,150.89
15.031,130.93
15.046,110.26
15.062,88.27
15.078,64.77
15.093,40.88
15.109,19.11
15.125,2.74
15.140,-5.48
15.156,-4.57
15.171,4.2
15.187,17.73
15.203,32.47
15.218,45.76
15.234,56.75
15.250,66.26
15.265,75.97
15.281,87.27
15.296,100.57
15.312,115.06
15.328,129.13
15.343,140.8
15.359,148.04
15.375,148.98
15.390,142.11
15.406,126.63
15.421,103.03
15.437,73.38
15.453,41.11
15.468,10.18
15.484,-16.07
15.500,-35.85
15.515,-49.04
15.531,-56.66
15.546,-59.88
15.562,-59.51
15.578,-55.96
15.593,-49.56
15.609,-40.83
15.625,-30.37
15.640,-18.43
15.656,-4.44
15.671,12.86
15.687,34.61
15.703,60.62
15.718,88.42
15.734,113.27
15.750,129.42
15.765,131.89
15.781,118.3
15.796,89.59
15.812,49.47
15.828,2.79
15.843,-46.14
15.859,-94.43
15.875,-140.53
15.890,-183.13
15.906,-220.39
15.921,-249.74
15.937,-268.6
15.953,-275.46
15.968,-270.71
15.984,-256.53
16.000,-236.09
16.015,-212.58
16.031,-188.41
16.046,-165.14
16.062,-143.86
16.078,-125.46
16.093,-110.82
16.109,-100.51
16.125,-94.51
16.140,-91.96
16.156,-91.29
16.171,-90.61
16.187,-88.18
16.203,-83.03
16.218,-75.29
16.234,-66.2
16.250,-57.67
16.265,-51.67
16.281,-49.57
16.296,-51.72
16.312,-57.26
16.328,-64.35
16.343,-70.61
16.359,-73.44
16.375,-70.61
16.390,-60.71
16.406,-43.72
16.421,-21.27
16.437,3.54
16.453,27.04
16.468,46.06
16.484,59.06
16.500,66.58
16.515,70.72
16.531,74.21
16.546,79.18
16.562,86.49
16.578,95.83
16.593,106.15
16.609,116.57
16.625,126.8
16.640,137.17
16.656,148.41
16.671,161.06
16.687,175.02
16.703,189.34
16.718,202.31
16.734,211.89
16.750,216.19
16.765,213.86
16.781,204.24
16.796,187.3
16.812,163.79
16.828,135.31
16.843,104.4
16.859,74.32
16.875,48.37
16.890,28.95
16.906,16.75
16.921,10.51
16.937,7.62
16.953,5.2
16.968,1.28
16.984,-4.68
17.000,-11.89
17.015,-18.93
17.031,-24.55
17.046,-28.13
17.062,-29.85
17.078,-30.15
17.093,-29.25
17.109,-26.73
17.125,-21.64
17.140,-13.04
17.156,-0.92
17.171,13.13
17.187,25.95
17.203,33.65
17.218,32.97
17.234,22.66
17.250,4.17
17.265,-18.63
17.281,-40.56
17.296,-56.61
17.312,-63.33
17.328,-59.53
17.343,-46.37
17.359,-26.8
17.375,-4.48
17.390,17.19
17.406,35.79
17.421,50.0
17.437,59.22
17.453,62.95
17.468,60.53
17.484,51.1
17.500,34.1
17.515,9.75
17.531,-20.73
17.546,-55.05
17.562,-90.35
17.578,-123.32
17.593,-150.65
17.609,-169.49
17.625,-178.26
17.640,-177.33
17.656,-169.13
17.671,-157.67
17.687,-147.19
17.703,-140.79
17.718,-139.59
17.734,-142.84
17.750,-148.62
17.765,-154.65
17.781,-158.89
17.796,-159.46
17.812,-154.72
17.828,-143.47
17.843,-125.63
17.859,-102.89
17.875,-78.79
17.890,-57.83
17.906,-43.99
17.921,-39.25
17.937,-42.92
17.953,-52.07
17.968,-62.8
17.984,-71.75
18.000,-76.97
18.015,-78.26
18.031,-76.74
18.046,-74.04
18.062,-71.61
18.078,-70.34
18.093,-70.41
18.109,-71.4
18.125,-72.39
18.140,-72.13
18.156,-69.28
18.171,-62.74
18.187,-51.89
18.203,-36.89
18.218,-18.65
18.234,1.42
18.250,21.74
18.265,41.13
18.281,59.08
18.296,75.81
18.312,92.07
18.328,108.66
18.343,126.05
18.359,144.07
18.375,162.08
18.390,179.14
18.406,194.47
18.421,207.64
18.437,218.62
18.453,227.7
18.468,235.26
18.484,241.65
18.500,247.15
18.515,252.14
18.531,257.07
18.546,262.46
18.562,268.52
18.578,274.77
18.593,279.83
18.609,281.75
18.625,278.65
18.640,269.66
18.656,255.15
18.671,236.38
18.687,214.55
18.703,190.08
18.718,162.58
18.734,131.79
18.750,98.7
18.765,65.95
18.781,37.2
18.796,15.44
18.812,1.58
18.828,-5.89
18.843,-9.69
18.859,-11.97
18.875,-12.85
18.890,-10.53
18.906,-2.7
18.921,11.67
18.937,31.3
18.953,52.85
18.968,72.24
18.984,86.11
19.000,92.59
19.015,91.12
19.031,81.87
19.046,65.12
19.062,41.26
19.078,11.23
19.093,-23.23
19.109,-59.64
19.125,-95.51
19.140,-129.16
19.156,-159.95
19.171,-187.86
19.187,-212.58
19.203,-232.7
19.218,-245.8
19.234,-249.33
19.250,-241.71
19.265,-223.22
19.281,-195.79
19.296,-162.18
19.312,-124.97
19.328,-86.45
19.343,-49.15
19.359,-16.63
19.375,6.58
19.390,16.31
19.406,10.77
19.421,-7.8
19.437,-33.17
19.453,-56.9
19.468,-71.46
19.484,-72.78
19.500,-61.54
19.515,-42.5
19.531,-22.32
19.546,-7.03
19.562,-0.21
19.578,-2.35
19.593,-11.32
19.609,-23.61
19.625,-35.8
19.640,-45.61
19.656,-52.61
19.671,-57.93
19.687,-63.47
19.703,-70.86
19.718,-80.73
19.734,-92.54
19.750,-104.88
19.765,-116.32
19.781,-125.87
19.796,-133.48
19.812,-139.79
19.828,-145.7
19.843,-151.71
19.859,-157.64
19.875,-162.6
19.890,-165.5
19.906,-165.59
19.921,-162.68
19.937,-157.27
19.953,-150.21
19.968,-142.28
19.984,-133.94
20.000,-125.26
20.015,-115.97
20.031,-105.8
20.046,-94.5
20.062,-81.94
20.078,-68.06
20.093,-52.86
20.109,-36.47
20.125,-19.24
20.140,-1.69
20.156,15.52
20.171,31.7
20.187,46.21
20.203,58.59
20.218,68.65
20.234,76.45
20.250,82.37
20.265,87.02
20.281,91.13
20.296,95.45
20.312,100.54
20.328,106.65
20.343,113.76
20.359,121.53
20.375,129.5
20.390,137.13
20.406,144.07
20.421,150.16
20.437,155.47
20.453,160.09
20.468,164.05
20.484,167.35
20.500,170.06
20.515,172.32
20.531,174.38
20.546,176.27
20.562,177.68
20.578,177.98
20.593,176.58
20.609,173.29
20.625,168.7
20.640,164.17
20.656,161.48
20.671,162.14
20.687,166.65
20.703,173.92
20.718,181.15
20.734,184.32
20.750,179.31
20.765,163.05
20.781,134.6
20.796,95.38
20.812,48.76
20.828,-0.8
20.843,-48.66
20.859,-90.65
20.875,-123.58
20.890,-145.63
20.906,-156.82
20.921,-159.18
20.937,-156.4
20.953,-152.77
20.968,-151.77
20.984,-154.88
21.000,-161.15
21.015,-167.78
21.031,-171.39
21.046,-169.41
21.062,-160.91
21.078,-146.81
21.093,-129.31
21.109,-111.13
21.125,-94.61
21.140,-80.96
21.156,-69.95
21.171,-60.26
21.187,-50.21
21.203,-38.55
21.218,-25.12
21.234,-10.85
21.250,2.51
21.265,13.03
21.281,19.03
21.296,19.56
21.312,14.6
21.328,5.07
21.343,-7.19
21.359,-19.77
21.375,-30.38
21.390,-37.65
21.406,-41.71
21.421,-44.12
21.437,-47.19
21.453,-52.82
21.468,-61.74
21.484,-73.2
21.500,-85.37
21.515,-96.27
21.531,-104.6
21.546,-110.24
21.562,-113.89
21.578,-116.44
21.593,-118.04
21.609,-117.86
21.625,-114.55
21.640,-107.0
21.656,-95.23
21.671,-80.68
21.687,-65.77
21.703,-52.98
21.718,-44.03
21.734,-39.27
21.750,-37.91
21.765,-38.51
21.781,-39.64
21.796,-40.02
21.812,-38.64
21.828,-34.51
21.843,-26.84
21.859,-15.21
21.890,17.67
21.906,36.15
21.921,53.8
21.937,69.61
21.953,83.47
21.968,96.09
21.984,108.48
22.000,121.38
22.015,134.7
22.031,147.54
22.046,158.57
22.062,166.62
22.078,171.16
22.093,172.36
22.109,170.67
22.125,166.04
22.140,157.59
22.156,143.74
22.171,123.0
22.187,94.66
22.203,59.52
22.218,19.79
22.234,-21.35
22.250,-60.49
22.265,-94.6
22.281,-121.48
22.296,-139.84
22.312,-149.38
22.328,-150.82
22.343,-145.72
22.359,-136.21
22.375,-124.61
22.390,-113.0
22.406,-102.92
22.421,-95.23
22.437,-90.09
22.453,-87.07
22.468,-85.43
22.484,-84.35
22.500,-83.27
22.515,-82.1
22.531,-81.14
22.546,-80.85
22.562,-81.66
22.578,-83.73
22.593,-86.9
22.609,-90.85
22.625,-95.18
22.640,-99.56
22.656,-103.8
22.671,-107.91
22.687,-112.06
22.703,-116.49
22.718,-121.43
22.734,-126.82
22.750,-132.21
22.765,-136.64
22.781,-138.86
22.796,-137.55
22.812,-131.85
22.828,-121.53
22.843,-107.21
22.859,-90.16
22.875,-72.0
22.890,-54.27
22.906,-38.07
22.921,-23.99
22.937,-12.02
22.953,-1.82
22.968,7.16
22.984,15.39
23.000,23.17
23.015,30.58
23.031,37.48
23.046,43.71
23.062,49.1
23.078,53.66
23.093,57.57
23.109,61.13
23.125,64.71
23.140,68.53
23.156,72.66
23.171,77.03
23.187,81.52
23.203,85.93
23.218,90.11
23.234,93.87
23.250,97.0
23.265,99.27
23.281,100.45
23.296,100.46
23.312,99.37
23.328,97.43
23.343,95.08
23.359,92.74
23.375,90.82
23.390,89.51
23.406,88.77
23.421,88.3
23.437,87.75
23.453,86.74
23.468,85.09
23.484,82.85
23.500,80.2
23.515,77.39
23.531,74.59
23.546,71.87
23.562,69.06
23.578,65.84
23.593,61.67
23.609,55.82
23.625,47.68
23.640,36.95
23.656,24.03
23.671,10.09
23.687,-2.91
23.703,-12.91
23.718,-18.2
23.734,-18.01
23.750,-12.71
23.765,-3.5
23.781,8.08
23.796,20.66
23.812,33.26
23.828,45.3
23.843,56.37
23.859,66.14
23.875,74.32
23.890,80.64
23.906,84.95
23.921,87.09
23.937,86.9
23.953,84.21
23.968,79.13
23.984,72.22
24.000,64.47
24.015,56.83
24.031,49.79
24.046,43.18
24.062,36.34
24.078,28.71
24.093,20.23
24.109,11.32
24.125,2.38
24.140,-6.78
24.156,-17.1
24.171,-29.89
24.187,-45.86
24.203,-64.51
24.218,-84.03
24.234,-101.83
24.250,-115.76
24.265,-124.72
24.281,-128.97
24.296,-129.53
24.312,-127.58
24.328,-123.76
24.343,-118.2
24.359,-110.59
24.375,-100.56
24.390,-88.07
24.406,-73.56
24.421,-58.06
24.437,-42.85
24.453,-29.32
24.468,-18.5
24.484,-10.95
24.500,-6.48
24.515,-4.27
24.531,-3.03
24.546,-1.28
24.562,2.26
24.578,8.37
24.593,17.21
24.609,28.36
24.625,40.83
24.640,53.46
24.656,65.14
24.671,75.09
24.687,83.0
24.703,88.88
24.718,92.94
24.734,95.36
24.750,96.16
24.765,95.25
24.781,92.58
24.796,88.37
24.812,83.16
24.828,77.88
24.843,73.62
24.859,71.29
24.875,71.34
24.890,73.62
24.906,77.48
24.921,81.93
24.937,85.98
24.953,88.83
24.968,90.11
24.984,89.74
25.000,88.0
25.015,85.3
25.031,82.2
25.046,79.19
25.062,76.68
25.078,74.98
25.093,74.2
25.109,74.36
25.125,75.3
25.140,76.8
25.156,78.45
25.171,79.79
25.187,80.27
25.203,79.39
25.218,76.9
25.234,72.84
25.250,67.67
25.265,62.07
25.281,56.72
25.296,51.97
25.312,47.76
25.328,43.57
25.343,38.68
25.359,32.57
25.375,25.26
25.390,17.55
25.406,11.08
25.421,8.08
25.437,10.78
25.453,20.71
25.468,38.01
25.484,61.11
25.500,87.05
25.515,112.32
25.531,133.86
25.546,150.06
25.562,160.86
25.578,167.43
25.593,171.4
25.609,174.14
25.625,176.45
25.640,178.71
25.656,181.07
25.671,183.73
25.687,187.01
25.703,191.21
25.718,196.53
25.734,202.92
25.750,210.15
25.765,217.81
25.781,225.57
25.796,233.21
25.812,240.51
25.828,247.14
25.843,252.32
25.859,254.84
25.875,253.25
25.890,246.46
25.906,234.1
25.921,216.7
25.937,195.31
25.953,170.77
25.968,143.31
25.984,112.46
26.000,77.71
26.015,39.15
26.031,-2.08
26.046,-44.08
26.062,-84.99
26.078,-123.77
26.093,-160.6
26.109,-196.41
26.125,-232.02
26.140,-267.2
26.156,-300.25
26.171,-328.45
26.187,-349.02
26.203,-360.3
26.218,-362.41
26.234,-357.13
26.250,-347.16
26.265,-335.17
26.281,-323.21
26.296,-312.52
26.312,-303.94
26.328,-298.15
26.343,-295.54
26.359,-295.78
26.375,-297.56
26.390,-298.59
26.406,-296.31
26.421,-288.75
26.437,-275.13
26.453,-255.95
26.468,-232.49
26.484,-206.27
26.500,-178.78
26.515,-151.45
26.531,-125.72
26.546,-102.86
26.562,-83.68
26.578,-68.08
26.593,-55.21
26.609,-43.81
26.625,-33.06
26.640,-23.0
26.656,-14.54
26.671,-8.79
26.687,-6.36
26.703,-6.9
26.718,-9.16
26.734,-11.62
26.750,-13.03
26.765,-12.83
26.781,-11.14
26.796,-8.49
26.812,-5.54
26.828,-2.92
26.843,-1.13
26.859,-0.5
26.875,-1.16
26.890,-3.1
26.906,-6.09
26.921,-9.78
26.937,-13.65
26.953,-17.19
26.968,-19.96
26.984,-21.69
27.000,-22.49
27.015,-22.8
27.031,-23.3
27.046,-24.61
27.062,-27.08
27.078,-30.64
27.093,-34.99
27.109,-39.72
27.125,-44.5
27.140,-49.05
27.156,-52.92
27.171,-55.43
27.187,-55.63
27.203,-52.75
27.218,-46.45
27.234,-37.1
27.250,-25.65
27.265,-13.16
27.281,-0.37
27.296,12.57
27.312,26.03
27.328,40.47
27.343,55.88
27.359,71.46
27.375,85.58
27.390,96.38
27.406,102.52
27.421,103.78
27.437,101.28
27.453,96.93
27.468,92.54
27.484,89.1
27.500,86.53
27.515,84.04
27.531,80.95
27.546,77.21
27.562,73.4
27.578,70.15
27.593,67.52
27.609,64.66
27.625,60.09
27.640,52.57
27.656,41.76
27.671,28.4
27.687,13.97
27.703,-0.11
27.718,-13.1
27.734,-25.12
27.750,-36.82
27.765,-48.75
27.781,-60.95
27.796,-72.85
27.812,-83.65
27.828,-92.82
27.843,-100.34
27.859,-106.7
27.875,-112.58
27.890,-118.5
27.906,-124.56
27.921,-130.44
27.937,-135.73
27.953,-140.21
27.968,-144.04
27.984,-147.71
28.000,-151.86
28.015,-156.96
28.031,-163.21
28.046,-170.6
28.062,-178.99
28.078,-188.19
28.093,-197.88
28.109,-207.43
28.125,-215.87
28.140,-221.97
28.156,-224.62
28.171,-223.24
28.187,-217.98
28.203,-209.51
28.218,-198.58
28.234,-185.67
28.250,-171.02
28.265,-154.95
28.281,-138.44
28.296,-123.15
28.312,-110.99
28.328,-103.25
28.343,-99.86
28.359,-99.23
28.375,-98.72
28.390,-95.59
28.406,-87.67
28.421,-73.7
28.437,-53.32
28.453,-26.88
28.468,4.76
28.484,40.31
28.500,78.02
28.515,115.78
28.531,151.37
28.546,182.82
28.562,208.64
28.578,228.2
28.593,241.8
28.609,250.75
28.625,257.1
28.640,263.01
28.656,270.06
28.671,278.76
28.687,288.48
28.703,297.94
28.718,305.97
28.734,312.01
28.750,316.24
28.765,319.13
28.781,320.92
28.796,321.35
28.812,319.79
28.828,315.55
28.843,308.21
28.859,297.9
28.875,285.21
28.890,271.01
28.906,256.19
28.921,241.49
28.937,227.43
28.953,214.18
28.968,201.58
28.984,189.26
29.000,176.99
29.015,164.92
29.031,153.67
29.046,144.24
29.062,137.45
29.078,133.55
29.093,131.96
29.109,131.29
29.125,129.75
29.140,125.52
29.156,116.89
29.171,102.38
29.187,80.81
29.203,51.72
29.218,15.85
29.234,-24.51
29.250,-65.78
29.265,-103.99
29.281,-135.97
29.296,-160.33
29.312,-177.5
29.328,-188.96
29.343,-196.07
29.359,-199.22
29.375,-197.76
29.390,-190.73
29.406,-177.75
29.421,-159.66
29.437,-138.46
29.453,-116.58
29.468,-96.05
29.484,-78.0
29.500,-62.58
29.515,-49.57
29.531,-38.92
29.546,-31.04
29.562,-26.72
29.578,-26.63
29.593,-30.71
29.609,-37.83
29.625,-45.88
29.640,-52.41
29.656,-55.47
29.671,-54.25
29.687,-49.22
29.703,-41.73
29.718,-33.31
29.734,-25.01
29.750,-16.96
29.765,-8.52
29.781,1.34
29.796,13.51
29.812,28.22
29.828,44.82
29.843,62.1
29.859,78.59
29.875,92.95
29.890,103.97
29.906,110.25
29.921,110.17
29.937,102.26
29.953,86.17
29.968,63.65
29.984,38.63
30.000,15.93
30.015,-0.87
30.031,-11.31
30.046,-18.2
30.062,-25.81
30.078,-37.13
30.093,-51.8
30.109,-66.41
30.125,-76.69
30.140,-80.41
30.156,-78.86
30.171,-76.23
30.187,-77.12
30.203,-83.9
30.218,-95.75
30.234,-109.31
30.250,-120.76
30.265,-127.42
30.281,-128.44
30.296,-124.15
30.312,-115.13
30.328,-101.8
30.343,-84.62
30.359,-64.71
30.375,-44.18
30.390,-25.88
30.406,-12.53
30.421,-5.73
30.437,-5.29
30.453,-9.52
30.468,-15.93
30.484,-22.46
30.500,-28.24
30.515,-33.67
30.531,-39.77
30.546,-47.19
30.562,-55.6
30.578,-63.62
30.593,-69.35
30.609,-71.14
30.625,-68.5
30.640,-62.29
30.656,-54.49
30.671,-47.38
30.687,-42.57
30.703,-40.44
30.718,-40.14
30.734,-40.31
30.750,-39.79
30.765,-38.19
30.781,-35.98
30.796,-34.0
30.812,-32.93
30.828,-32.82
30.843,-33.14
30.859,-33.2
30.875,-32.74
30.890,-32.17
30.906,-32.36
30.921,-34.12
30.937,-37.53
30.953,-41.98
30.968,-46.24
30.984,-48.97
31.000,-49.34
31.015,-47.25
31.031,-43.33
31.046,-38.59
31.062,-33.8
31.078,-29.28
31.093,-24.88
31.109,-20.21
31.125,-15.02
31.140,-9.46
31.156,-3.99
31.171,0.76
31.187,4.2
31.203,6.14
31.218,6.73
31.234,6.52
31.250,6.29
31.265,6.84
31.281,8.69
31.296,11.9
31.312,15.99
31.328,20.15
31.343,23.58
31.359,25.88
31.375,27.05
31.390,27.49
31.406,27.6
31.421,27.61
31.437,27.48
31.453,26.97
31.468,25.79
31.484,23.77
31.500,20.82
31.515,16.92
31.531,12.14
31.546,6.62
31.562,0.68
31.578,-5.14
31.593,-10.32
31.609,-14.37
31.625,-17.03
31.640,-18.31
31.656,-18.44
31.671,-17.79
31.687,-16.93
31.703,-16.4
31.718,-16.66
31.734,-17.95
31.750,-20.15
31.765,-22.76
31.781,-25.16
31.796,-26.78
31.812,-27.42
31.828,-27.35
31.843,-27.21
31.859,-27.76
31.875,-29.69
31.890,-33.35
31.906,-38.66
31.921,-45.2
31.937,-52.15
31.953,-58.42
31.968,-62.91
31.984,-64.68
32.000,-63.21
32.015,-58.63
32.031,-51.59
32.046,-43.21
32.062,-34.71
32.078,-27.01
32.093,-20.62
32.109,-15.62
32.125,-11.78
32.140,-8.79
32.156,-6.38
32.171,-4.42
32.187,-2.85
32.203,-1.6
32.218,-0.5
32.234,0.6
32.250,1.74
32.265,2.84
32.281,3.73
32.296,4.29
32.312,4.62
32.328,5.05
32.343,5.89
32.359,7.32
32.375,9.15
32.390,10.87
32.406,11.83
32.421,11.51
32.437,9.67
32.453,6.47
32.468,2.37
32.484,-1.96
32.500,-5.81
32.515,-8.63
32.531,-10.1
32.546,-10.44
32.562,-10.39
32.578,-11.04
32.593,-13.53
32.609,-18.63
32.625,-26.24
32.640,-35.24
32.656,-43.76
32.671,-49.77
32.687,-51.92
32.703,-50.06
32.718,-45.18
32.734,-38.9
32.750,-32.53
32.765,-26.55
32.781,-20.56
32.796,-13.82
32.812,-5.85
32.828,3.12
32.843,12.21
32.859,20.38
32.875,26.94
32.890,31.83
32.906,35.41
32.921,38.18
32.937,40.38
32.953,41.97
32.968,42.78
32.984,42.73
33.000,41.93
33.015,40.65
33.031,39.25
33.046,38.03
33.062,37.17
33.078,36.66
33.093,36.32
33.109,35.94
33.125,35.25
33.140,34.11
33.156,32.44
33.171,30.28
33.187,27.64
33.203,24.56
33.218,21.11
33.234,17.29
33.250,13.16
33.265,8.76
33.281,4.14
33.296,-0.69
33.312,-5.68
33.328,-10.89
33.343,-16.4
33.359,-22.24
33.375,-28.32
33.390,-34.23
33.406,-39.2
33.421,-42.15
33.437,-42.04
33.453,-38.19
33.468,-30.63
33.484,-20.17
33.500,-8.14
33.515,4.07
33.531,15.35
33.546,25.16
33.562,33.48
33.578,40.55
33.593,46.58
33.609,51.63
33.625,55.6
33.640,58.34
33.656,59.82
33.671,60.19
33.687,59.67
33.703,58.65
33.718,57.46
33.734,56.42
33.750,55.7
33.765,55.35
33.781,55.34
33.796,55.53
33.812,55.71
33.828,55.66
33.843,55.13
33.859,53.95
33.875,52.01
33.890,49.29
33.906,45.85
33.921,41.83
33.937,37.4
33.953,32.71
33.968,27.87
33.984,22.92
34.000,17.84
34.015,12.61
34.031,7.21
34.046,1.72
34.062,-3.8
34.078,-9.28
34.093,-14.75
34.109,-20.32
34.125,-26.2
34.140,-32.5
34.156,-39.05
34.171,-45.3
34.187,-50.32
34.203,-53.07
34.218,-52.71
34.234,-48.88
34.250,-41.86
34.265,-32.39
34.281,-21.46
34.296,-9.99
34.312,1.29
34.328,11.86
34.343,21.32
34.359,29.37
34.375,35.81
34.390,40.57
34.406,43.77
34.421,45.69
34.437,46.68
34.453,47.03
34.468,46.98
34.484,46.62
34.500,46.05
34.515,45.35
34.531,44.62
34.546,43.96
34.562,43.46
34.578,43.12
34.593,42.9
34.609,42.69
34.625,42.34
34.640,41.61
34.656,40.32
34.671,38.31
34.687,35.57
34.703,32.29
34.718,28.68
34.734,25.02
34.750,21.49
34.765,18.1
34.781,14.7
34.796,11.16
34.812,7.33
34.828,3.27
34.843,-0.78
34.859,-4.61
34.875,-8.05
34.890,-11.19
34.906,-14.37
34.921,-18.04
34.937,-22.61
34.953,-28.34
34.968,-35.06
34.984,-42.14
35.000,-48.62
35.015,-53.3
35.031,-55.16
35.046,-53.59
35.062,-48.63
35.078,-40.92
35.093,-31.48
35.109,-21.34
35.125,-11.27
35.140,-1.77
35.156,6.95
35.171,14.72
35.187,21.36
35.203,26.7
35.218,30.7
35.234,33.47
35.250,35.26
35.265,36.4
35.281,37.12
35.296,37.64
35.312,37.97
35.328,38.15
35.343,38.14
35.359,37.95
35.375,37.63
35.390,37.27
35.406,37.0
35.421,36.89
35.437,36.95
35.453,37.03
35.468,36.88
35.484,36.23
35.500,34.9
35.515,32.88
35.531,30.32
35.546,27.46
35.562,24.49
35.578,21.5
35.593,18.42
35.609,15.12
35.625,11.46
35.640,7.39
35.656,3.02
35.671,-1.49
35.687,-5.92
35.703,-10.11
35.718,-14.05
35.734,-17.87
35.750,-21.83
35.765,-26.25
35.781,-31.41
35.796,-37.31
35.812,-43.71
35.828,-50.01
35.843,-55.37
35.859,-58.86
35.875,-59.66
35.890,-57.32
35.906,-51.84
35.921,-43.75
35.937,-33.86
35.953,-23.17
35.968,-12.57
35.984,-2.75
36.000,5.85
36.015,13.05
36.031,18.8
36.046,23.15
36.062,26.16
36.078,28.04
36.093,29.01
36.109,29.42
36.125,29.59
36.140,29.76
36.156,30.0
36.171,30.21
36.187,30.3
36.203,30.16
36.218,29.91
36.234,29.7
36.250,29.73
36.265,30.04
36.281,30.4
36.296,30.44
36.312,29.8
36.328,28.28
36.343,25.97
36.359,23.2
36.375,20.38
36.390,17.86
36.406,15.79
36.421,14.04
36.437,12.3
36.453,10.19
36.468,7.41
36.484,3.81
36.500,-0.5
36.515,-5.21
36.531,-9.96
36.546,-14.39
36.562,-18.37
36.578,-21.88
36.593,-25.01
36.609,-27.94
36.625,-30.92
36.640,-34.25
36.656,-38.18
36.671,-42.83
36.687,-47.98
36.703,-53.03
36.718,-57.04
36.734,-58.94
36.750,-57.97
36.765,-53.88
36.781,-47.02
36.796,-38.25
36.812,-28.59
36.828,-18.96
36.843,-10.1
36.859,-2.45
36.875,3.82
36.890,8.72
36.906,12.45
36.921,15.23
36.937,17.28
36.953,18.78
36.968,19.8
36.984,20.43
37.000,20.73
37.015,20.86
37.031,20.93
37.046,21.04
37.062,21.18
37.078,21.27
37.093,21.29
37.109,21.31
37.125,21.49
37.140,21.91
37.156,22.57
37.171,23.3
37.187,23.81
37.203,23.88
37.218,23.35
37.234,22.24
37.250,20.64
37.265,18.72
37.281,16.6
37.296,14.32
37.312,11.91
37.328,9.37
37.343,6.74
37.359,4.05
37.375,1.36
37.390,-1.39
37.406,-4.22
37.421,-7.2
37.437,-10.29
37.453,-13.41
37.468,-16.49
37.484,-19.49
37.500,-22.48
37.515,-25.62
37.531,-29.1
37.546,-33.13
37.562,-37.81
37.578,-43.1
37.593,-48.73
37.609,-54.16
37.625,-58.59
37.640,-61.18
37.656,-61.21
37.671,-58.3
37.687,-52.66
37.703,-44.96
37.718,-36.2
37.734,-27.34
37.750,-19.13
37.765,-11.92
37.781,-5.79
37.796,-0.63
37.812,3.69
37.828,7.26
37.843,10.09
37.859,12.21
37.875,13.69
37.890,14.7
37.906,15.42
37.921,16.0
37.937,16.54
37.953,17.07
37.968,17.58
37.984,18.07
38.000,18.52
38.015,18.98
38.031,19.45
38.046,19.87
38.062,20.11
38.078,20.06
38.093,19.6
38.109,18.7
38.125,17.37
38.140,15.67
38.156,13.63
38.171,11.36
38.187,8.92
38.203,6.42
38.218,3.94
38.234,1.47
38.250,-1.13
38.265,-3.98
38.281,-7.24
38.296,-10.98
38.312,-15.06
38.328,-19.26
38.343,-23.21
38.359,-26.67
38.375,-29.51
38.390,-31.82
38.406,-33.84
38.421,-35.84
38.437,-38.14
38.453,-40.99
38.468,-44.61
38.484,-49.11
38.500,-54.49
38.515,-60.49
38.531,-66.46
38.546,-71.35
38.562,-73.87
38.578,-72.9
38.593,-67.82
38.609,-58.87
38.625,-47.02
38.640,-33.75
38.656,-20.56
38.671,-8.55
38.687,1.8
38.703,10.5
38.718,17.96
38.734,24.74
38.750,31.35
38.765,38.23
38.781,45.56
38.796,53.12
38.812,60.35
38.828,66.34
38.843,70.21
38.859,71.32
38.875,69.61
38.890,65.55
38.906,60.03
38.921,53.99
38.937,48.18
38.953,42.97
38.968,38.29
38.984,33.85
39.000,29.34
39.015,24.63
39.031,19.95
39.046,15.75
39.062,12.55
39.078,10.68
39.093,10.11
39.109,10.29
39.125,10.38
39.140,9.45
39.156,6.78
39.171,2.16
39.187,-4.12
39.203,-11.27
39.218,-18.41
39.234,-24.94
39.250,-30.79
39.265,-36.44
39.281,-42.65
39.296,-50.11
39.312,-59.04
39.328,-69.12
39.343,-79.44
39.359,-88.85
39.375,-96.23
39.390,-100.88
39.406,-102.57
39.421,-101.59
39.437,-98.63
39.453,-94.5
39.468,-90.0
39.484,-85.61
39.500,-81.47
39.515,-77.51
39.531,-73.49
39.546,-69.33
39.562,-65.06
39.578,-60.73
39.593,-56.2
39.609,-51.04
39.625,-44.41
39.640,-35.13
39.656,-22.13
39.671,-4.51
39.687,18.11
39.703,45.68
39.718,78.0
39.734,114.75
39.750,155.12
39.765,197.4
39.781,239.03
39.796,277.01
39.812,308.83
39.828,332.82
39.843,348.32
39.859,355.31
39.875,353.82
39.890,343.7
39.906,324.94
39.921,298.23
39.937,265.2
39.953,228.06
39.968,188.6
39.984,147.57
40.000,104.87
40.015,60.56
40.031,16.01
40.046,-25.63
40.062,-60.25
40.078,-84.63
40.093,-97.98
40.109,-102.62
40.125,-103.13
40.140,-104.35
40.156,-109.86
40.171,-120.52
40.187,-134.64
40.203,-149.17
40.218,-161.15
40.234,-168.78
40.250,-171.65
40.265,-170.43
40.281,-166.11
40.296,-159.46
40.312,-150.72
40.328,-139.82
40.343,-127.04
40.359,-113.31
40.375,-100.26
40.390,-89.7
40.406,-82.96
40.421,-80.21
40.437,-80.48
40.453,-81.94
40.468,-82.68
40.484,-81.5
40.500,-78.02
40.515,-72.65
40.531,-66.17
40.546,-59.32
40.562,-52.56
40.578,-46.02
40.593,-39.74
40.609,-33.81
40.625,-28.56
40.640,-24.29
40.656,-21.21
40.671,-19.26
40.687,-18.08
40.703,-17.22
40.718,-16.22
40.734,-14.92
40.750,-13.39
40.765,-11.94
40.781,-10.95
40.796,-10.69
40.812,-11.35
40.828,-12.9
40.843,-15.32
40.859,-18.62
40.875,-22.94
40.890,-28.57
40.906,-35.72
40.921,-44.39
40.937,-54.07
40.953,-63.75
40.968,-72.06
40.984,-77.66
41.000,-79.63
41.015,-77.78
41.031,-72.68
41.046,-65.3
41.062,-56.72
41.078,-47.76
41.093,-38.89
41.109,-30.29
41.125,-22.02
41.140,-14.24
41.156,-7.19
41.171,-1.22
41.187,3.43
41.203,6.73
41.218,8.9
41.234,10.31
41.250,11.35
41.265,12.26
41.281,13.22
41.296,14.32
41.312,15.65
41.328,17.29
41.343,19.26
41.359,21.42
41.375,23.54
41.390,25.24
41.406,26.18
41.421,26.21
41.437,25.31
41.453,23.63
41.468,21.35
41.484,18.6
41.500,15.51
41.515,12.22
41.531,8.79
41.546,5.39
41.562,2.17
41.578,-0.71
41.593,-3.15
41.609,-5.14
41.625,-6.78
41.640,-8.26
41.656,-9.82
41.671,-11.76
41.687,-14.24
41.703,-17.34
41.718,-20.95
41.734,-24.66
41.750,-27.72
41.765,-29.05
41.781,-27.47
41.796,-21.96
41.812,-12.16
41.828,1.49
41.843,17.78
41.859,35.11
41.875,51.98
41.890,67.35
41.906,80.74
41.921,92.11
41.937,101.69
41.953,109.71
41.968,116.45
41.984,122.22
42.000,127.38
42.015,132.34
42.031,137.37
42.046,142.52
42.062,147.67
42.078,152.64
42.093,157.35
42.109,161.91
42.125,166.61
42.140,171.74
42.156,177.37
42.171,183.05
42.187,187.67
42.203,189.63
42.218,187.17
42.234,179.07
42.250,165.01
42.265,145.94
42.281,123.64
42.296,100.19
42.312,77.15
42.328,55.23
42.343,34.37
42.359,14.25
42.375,-5.16
42.390,-23.42
42.406,-39.72
42.421,-53.47
42.437,-64.6
42.453,-73.67
42.468,-81.6
42.484,-89.24
42.500,-97.02
42.515,-104.95
42.531,-112.69
42.546,-119.65
42.562,-125.09
42.578,-128.05
42.593,-127.49
42.609,-122.58
42.625,-113.11
42.640,-99.82
42.656,-84.45
42.671,-69.31
42.687,-56.57
42.703,-47.57
42.718,-42.41
42.734,-40.09
42.750,-38.97
42.765,-37.5
42.781,-34.71
42.796,-30.38
42.812,-24.87
42.828,-18.87
42.843,-13.07
42.859,-7.98
42.875,-3.84
42.890,-0.7
42.906,1.6
42.921,3.42
42.937,5.29
42.953,7.86
42.968,11.72
42.984,17.2
43.000,24.09
43.015,31.37
43.031,37.32
43.046,39.92
43.062,37.6
43.078,29.87
43.093,17.6
43.109,2.69
43.125,-12.68
43.140,-26.87
43.156,-39.24
43.171,-50.09
43.187,-60.16
43.203,-70.1
43.218,-80.22
43.234,-90.53
43.250,-101.09
43.265,-112.01
43.281,-123.38
43.296,-134.91
43.312,-145.61
43.328,-153.84
43.343,-157.7
43.359,-155.69
43.375,-147.27
43.390,-133.25
43.406,-115.48
43.421,-96.31
43.437,-77.89
43.453,-61.58
43.468,-47.83
43.484,-36.43
43.500,-26.96
43.515,-19.07
43.531,-12.7
43.546,-7.98
43.562,-4.92
43.578,-3.31
43.593,-2.66
43.609,-2.32
43.625,-1.7
43.640,-0.46
43.656,1.4
43.671,3.65
43.687,5.92
43.703,8.0
43.718,9.72
43.734,11.13
43.750,12.26
43.765,13.17
43.781,13.82
43.796,14.13
43.812,13.96
43.828,13.17
43.843,11.63
43.859,9.27
43.875,6.07
43.890,2.14
43.906,-2.25
43.921,-6.84
43.937,-11.39
43.953,-15.8
43.968,-20.09
43.984,-24.4
44.000,-28.96
44.015,-33.99
44.031,-39.57
44.046,-45.54
44.062,-51.35
44.078,-56.0
44.093,-58.21
44.109,-56.75
44.125,-50.93
44.140,-40.84
44.156,-27.52
44.171,-12.56
44.187,2.32
44.203,15.78
44.218,27.06
44.234,36.02
44.250,42.76
44.265,47.47
44.281,50.26
44.296,51.31
44.312,50.95
44.328,49.72
44.343,48.33
44.359,47.41
44.375,47.18
44.390,47.41
44.406,47.55
44.421,47.05
44.437,45.68
44.453,43.67
44.468,41.55
44.484,39.85
44.500,38.82
44.515,38.21
44.531,37.38
44.546,35.69
44.562,32.78
44.578,28.69
44.593,23.91
44.609,19.01
44.625,14.42
44.640,10.37
44.656,6.79
44.671,3.43
44.687,-0.05
44.703,-3.96
44.718,-8.52
44.734,-13.9
44.750,-20.08
44.765,-26.78
44.781,-33.37
44.796,-38.85
44.812,-41.99
44.828,-41.67
44.843,-37.31
44.859,-29.1
44.875,-18.02
44.890,-5.55
44.906,6.81
44.921,17.92
44.937,27.14
44.953,34.32
44.968,39.54
44.984,42.93
45.000,44.69
45.015,45.05
45.031,44.36
45.046,43.05
45.062,41.56
45.078,40.11
45.093,38.86
45.109,37.84
45.125,37.03
45.140,36.41
45.156,36.0
45.171,35.74
45.187,35.52
45.203,35.16
45.218,34.53
45.234,33.46
45.250,31.83
45.265,29.52
45.281,26.43
45.296,22.59
45.312,18.13
45.328,13.35
45.343,8.65
45.359,4.39
45.375,0.73
45.390,-2.43
45.406,-5.47
45.421,-8.78
45.437,-12.75
45.453,-17.54
45.468,-23.03
45.484,-28.74
45.500,-33.91
45.515,-37.57
45.531,-38.74
45.546,-36.73
45.562,-31.25
45.578,-22.63
45.593,-11.81
45.609,-0.04
45.625,11.45
45.640,21.64
45.656,30.1
45.671,36.77
45.687,41.91
45.703,45.86
45.718,48.84
45.734,50.92
45.750,52.07
45.765,52.35
45.781,51.89
45.796,51.0
45.812,49.99
45.828,49.05
45.843,48.12
45.859,47.01
45.875,45.48
45.890,43.41
45.906,40.89
45.921,38.16
45.937,35.47
45.953,32.92
45.968,30.41
45.984,27.69
46.000,24.46
46.015,20.62
46.031,16.26
46.046,11.65
46.062,7.1
46.078,2.91
46.093,-0.82
46.109,-4.2
46.125,-7.49
46.140,-11.05
46.156,-15.22
46.171,-20.16
46.187,-25.8
46.203,-31.71
46.218,-37.12
46.234,-41.04
46.250,-42.48
46.265,-40.68
46.281,-35.44
46.296,-27.1
46.312,-16.49
46.328,-4.68
46.343,7.18
46.359,18.21
46.375,27.78
46.390,35.57
46.406,41.56
46.421,45.85
46.437,48.63
46.453,50.06
46.468,50.35
46.484,49.65
46.500,48.2
46.515,46.28
46.531,44.17
46.546,42.09
46.562,40.2
46.578,38.53
46.593,37.02
46.609,35.63
46.625,34.28
46.640,32.87
46.656,31.31
46.671,29.48
46.687,27.27
46.703,24.61
46.718,21.53
46.734,18.06
46.750,14.29
46.765,10.31
46.781,6.23
46.796,2.14
46.812,-1.87
46.828,-5.74
46.843,-9.48
46.859,-13.16
46.875,-16.93
46.890,-20.95
46.906,-25.38
46.921,-30.21
46.937,-35.31
46.953,-40.3
46.968,-44.55
46.984,-47.29
47.000,-47.7
47.015,-45.23
47.031,-39.75
47.046,-31.65
47.062,-21.73
47.078,-11.03
47.093,-0.5
47.109,9.14
47.125,17.46
47.140,24.31
47.156,29.66
47.171,33.56
47.187,36.05
47.203,37.26
47.218,37.37
47.234,36.69
47.250,35.59
47.265,34.44
47.281,33.52
47.296,32.95
47.312,32.71
47.328,32.62
47.343,32.49
47.359,32.16
47.375,31.59
47.390,30.83
47.406,29.88
47.421,28.74
47.437,27.29
47.453,25.4
47.468,23.0
47.484,20.1
47.500,16.82
47.515,13.3
47.531,9.61
47.546,5.72
47.562,1.56
47.578,-2.92
47.593,-7.65
47.609,-12.44
47.625,-17.07
47.640,-21.4
47.656,-25.43
47.671,-29.3
47.687,-33.22
47.703,-37.41
47.718,-41.86
47.734,-46.38
47.750,-50.41
47.765,-53.22
47.781,-54.03
47.796,-52.15
47.812,-47.29
47.828,-39.68
47.843,-30.03
47.859,-19.37
47.875,-8.79
47.890,0.83
47.906,8.97
47.921,15.49
47.937,20.56
47.953,24.4
47.968,27.23
47.984,29.21
48.000,30.45
48.015,31.11
48.031,31.4
48.046,31.56
48.062,31.75
48.078,32.04
48.093,32.35
48.109,32.48
48.125,32.28
48.140,31.68
48.156,30.74
48.171,29.56
48.187,28.28
48.203,26.82
48.218,25.02
48.234,22.69
48.250,19.75
48.265,16.3
48.281,12.57
48.296,8.89
48.312,5.49
48.328,2.46
48.343,-0.35
48.359,-3.16
48.375,-6.15
48.390,-9.36
48.406,-12.64
48.421,-15.78
48.437,-18.63
48.453,-21.2
48.468,-23.63
48.484,-26.17
48.500,-29.07
48.515,-32.47
48.531,-36.39
48.546,-40.7
48.562,-45.05
48.578,-48.88
48.593,-51.44
48.609,-51.98
48.625,-49.93
48.640,-45.17
48.656,-38.06
48.671,-29.44
48.687,-20.29
48.703,-11.49
48.718,-3.63
48.734,3.08
48.750,8.66
48.765,13.22
48.781,16.86
48.796,19.64
48.812,21.55
48.828,22.66
48.843,23.16
48.859,23.23
48.875,23.12
48.890,22.99
48.906,22.88
48.921,22.73
48.937,22.46
48.953,21.97
48.968,21.25
48.984,20.38
49.000,19.42
49.015,18.46
49.031,17.46
49.046,16.34
49.062,14.86
49.078,12.86
49.093,10.27
49.109,7.21
49.125,3.93
49.140,0.66
49.156,-2.45
49.171,-5.4
49.187,-8.3
49.203,-11.2
49.218,-14.11
49.234,-16.94
49.250,-19.58
49.265,-22.02
49.281,-24.37
49.296,-26.84
49.312,-29.66
49.328,-33.0
49.343,-36.77
49.359,-40.75
49.375,-44.44
49.390,-47.27
49.406,-48.58
49.421,-47.88
49.437,-44.93
49.453,-39.83
49.468,-33.07
49.484,-25.29
49.500,-17.22
49.515,-9.46
49.531,-2.36
49.546,3.94
49.562,9.5
49.578,14.38
49.593,18.5
49.609,21.72
49.625,23.8
49.640,24.6
49.656,24.22
49.671,22.99
49.687,21.42
49.703,20.02
49.718,19.11
49.734,18.72
49.750,18.65
49.765,18.58
49.781,18.25
49.796,17.51
49.812,16.39
49.828,14.97
49.843,13.34
49.859,11.53
49.875,9.52
49.890,7.24
49.906,4.64
49.921,1.67
49.937,-1.65
49.953,-5.27
49.968,-9.1
49.984,-12.95
50.000,-16.61
50.015,-19.83
50.031,-22.45
50.046,-24.52
50.062,-26.37
50.078,-28.41
50.093,-31.03
50.109,-34.32
50.125,-37.99
50.140,-41.42
50.156,-43.78
50.171,-44.37
50.187,-42.73
50.203,-38.79
50.218,-32.84
50.234,-25.47
50.250,-17.39
50.265,-9.36
50.281,-1.99
50.296,4.32
50.312,9.46
50.328,13.55
50.343,16.81
50.359,19.49
50.375,21.69
50.390,23.45
50.406,24.71
50.421,25.46
50.437,25.68
50.453,25.51
50.468,25.08
50.484,24.55
50.500,24.0
50.515,23.41
50.531,22.72
50.546,21.89
50.562,20.96
50.578,20.0
50.593,19.06
50.609,18.06
50.625,16.82
50.640,15.01
50.656,12.41
50.671,8.99
50.687,4.95
50.703,0.71
50.718,-3.29
50.734,-6.77
50.750,-9.72
50.765,-12.37
50.781,-15.09
50.796,-18.24
50.812,-22.04
50.828,-26.48
50.843,-31.29
50.859,-35.92
50.875,-39.65
50.890,-41.77
50.906,-41.74
50.921,-39.35
50.937,-34.8
50.953,-28.65
50.968,-21.63
50.984,-14.5
51.000,-7.87
51.015,-2.09
51.031,2.72
51.046,6.65
51.062,9.89
51.078,12.66
51.093,15.13
51.109,17.38
51.125,19.3
51.140,20.75
51.156,21.61
51.171,21.86
51.187,21.67
51.203,21.27
51.218,20.87
51.234,20.58
51.250,20.35
51.265,19.98
51.281,19.31
51.296,18.26
51.312,16.8
51.328,15.06
51.343,13.14
51.359,11.12
51.375,9.03
51.390,6.86
51.406,4.56
51.421,2.11
51.437,-0.49
51.453,-3.26
51.468,-6.13
51.484,-9.09
51.500,-12.09
51.515,-15.11
51.531,-18.13
51.546,-21.22
51.562,-24.45
51.578,-27.87
51.593,-31.44
51.609,-34.91
51.625,-37.86
51.640,-39.68
51.656,-39.85
51.671,-38.0
51.687,-34.1
51.703,-28.45
51.718,-21.65
51.734,-14.38
51.750,-7.23
51.765,-0.69
51.781,5.02
51.796,9.79
51.812,13.65
51.828,16.65
51.843,18.84
51.859,20.29
51.875,21.09
51.890,21.37
51.906,21.31
51.921,21.08
51.937,20.79
51.953,20.49
51.968,20.17
51.984,19.82
52.000,19.46
52.015,19.11
52.031,18.83
52.046,18.6
52.062,18.36
52.078,17.98
52.093,17.35
52.109,16.47
52.125,15.36
52.140,14.09
52.156,12.67
52.171,11.07
52.187,9.13
52.203,6.74
52.218,3.83
52.234,0.47
52.250,-3.19
52.265,-6.92
52.281,-10.56
52.296,-14.0
52.312,-17.26
52.328,-20.41
52.343,-23.54
52.359,-26.77
52.375,-30.1
52.390,-33.44
52.406,-36.62
52.421,-39.39
52.437,-41.37
52.453,-42.12
52.468,-41.24
52.484,-38.39
52.500,-33.58
52.515,-27.14
52.531,-19.76
52.546,-12.23
52.562,-5.29
52.578,0.65
52.593,5.48
52.609,9.35
52.625,12.53
52.640,15.17
52.656,17.35
52.671,19.06
52.687,20.28
52.703,21.12
52.718,21.68
52.734,22.09
52.750,22.42
52.765,22.65
52.781,22.68
52.796,22.42
52.812,21.76
52.828,20.73
52.843,19.54
52.859,18.41
52.875,17.55
52.890,16.99
52.906,16.63
52.921,16.13
52.937,15.21
52.953,13.75
52.968,11.79
52.984,9.61
53.000,7.43
53.015,5.36
53.031,3.3
53.046,1.02
53.062,-1.69
53.078,-4.91
53.093,-8.48
53.109,-12.16
53.125,-15.7
53.140,-19.02
53.156,-22.21
53.171,-25.53
53.187,-29.16
53.203,-33.21
53.218,-37.57
53.234,-41.95
53.250,-45.93
53.265,-49.02
53.281,-50.65
53.296,-50.32
53.312,-47.65
53.328,-42.57
53.343,-35.4
53.359,-26.8
53.375,-17.67
53.390,-8.87
53.406,-1.0
53.421,5.64
53.437,10.97
53.453,15.12
53.468,18.15
53.484,20.16
53.500,21.23
53.515,21.51
53.531,21.22
53.546,20.66
53.562,20.09
53.578,19.63
53.593,19.36
53.609,19.18
53.625,18.98
53.640,18.68
53.656,18.29
53.671,17.85
53.687,17.44
53.703,17.08
53.718,16.65
53.734,15.98
53.750,14.86
53.765,13.15
53.781,10.81
53.796,7.98
53.812,4.75
53.828,1.3
53.843,-2.3
53.859,-6.0
53.875,-9.73
53.890,-13.43
53.906,-16.92
53.921,-19.98
53.937,-22.46
53.953,-24.3
53.968,-25.6
53.984,-26.63
54.000,-27.74
54.015,-29.28
54.031,-31.54
54.046,-34.57
54.062,-38.15
54.078,-41.83
54.093,-44.93
54.109,-46.66
54.125,-46.3
54.140,-43.43
54.156,-38.09
54.171,-30.8
54.187,-22.43
54.203,-13.93
54.218,-6.12
54.234,0.54
54.250,5.99
54.265,10.42
54.281,14.06
54.296,17.08
54.312,19.48
54.328,21.21
54.343,22.25
54.359,22.7
54.375,22.75
54.390,22.64
54.406,22.5
54.421,22.41
54.437,22.33
54.453,22.21
54.468,22.08
54.484,22.01
54.500,22.04
54.515,22.23
54.531,22.43
54.546,22.44
54.562,22.05
54.578,21.02
54.593,19.32
54.609,17.02
54.625,14.26
54.640,11.2
54.656,7.93
54.671,4.47
54.687,0.9
54.703,-2.72
54.718,-6.21
54.734,-9.41
54.750,-12.2
54.765,-14.62
54.781,-16.87
54.796,-19.24
54.812,-22.09
54.828,-25.64
54.843,-29.93
54.859,-34.73
54.875,-39.46
54.890,-43.33
54.906,-45.57
54.921,-45.55
54.937,-43.06
54.953,-38.35
54.968,-31.95
54.984,-24.56
55.000,-16.84
55.015,-9.19
55.031,-1.91
55.046,4.79
55.062,10.81
55.078,15.96
55.093,20.15
55.109,23.39
55.125,25.73
55.140,27.31
55.156,28.31
55.171,28.84
55.187,29.03
55.203,28.99
55.218,28.74
55.234,28.29
55.250,27.73
55.265,27.08
55.281,26.43
55.296,25.85
55.312,25.34
55.328,24.83
55.343,24.2
55.359,23.27
55.375,21.87
55.390,19.95
55.406,17.5
55.421,14.65
55.437,11.53
55.453,8.25
55.468,4.89
55.484,1.49
55.500,-1.97
55.515,-5.53
55.531,-9.13
55.546,-12.72
55.562,-16.18
55.578,-19.44
55.593,-22.47
55.609,-25.32
55.625,-28.08
55.640,-30.9
55.656,-33.91
55.671,-37.22
55.687,-40.75
55.703,-44.14
55.718,-46.74
55.734,-47.71
55.750,-46.26
55.765,-42.02
55.781,-35.22
55.796,-26.64
55.812,-17.37
55.828,-8.45
55.843,-0.53
55.859,6.12
55.875,11.62
55.890,16.15
55.906,19.86
55.921,22.76
55.937,24.83
55.953,26.11
55.968,26.78
55.984,27.14
56.000,27.5
56.015,28.0
56.031,28.59
56.046,29.1
56.062,29.28
56.078,29.0
56.093,28.26
56.109,27.23
56.125,26.18
56.140,25.31
56.156,24.67
56.171,24.14
56.187,23.46
56.203,22.4
56.218,20.83
56.234,18.81
56.250,16.51
56.265,14.16
56.281,11.91
56.296,9.78
56.312,7.65
56.328,5.26
56.343,2.4
56.359,-1.04
56.375,-5.02
56.390,-9.32
56.406,-13.63
56.421,-17.65
56.437,-21.21
56.453,-24.31
56.468,-27.07
56.484,-29.75
56.500,-32.64
56.515,-35.97
56.531,-39.86
56.546,-44.23
56.562,-48.63
56.578,-52.36
56.593,-54.51
56.609,-54.22
56.625,-51.04
56.640,-45.06
56.656,-36.94
56.671,-27.75
56.687,-18.61
56.703,-10.37
56.718,-3.51
56.734,1.93
56.750,6.11
56.765,9.37
56.781,11.97
56.796,14.22
56.812,16.41
56.828,18.84
56.843,21.74
56.859,25.22
56.875,29.15
56.890,33.23
56.906,37.06
56.921,40.24
56.937,42.58
56.953,44.02
56.968,44.71
56.984,44.8
57.000,44.44
57.015,43.64
57.031,42.33
57.046,40.45
57.062,37.96
57.078,34.88
57.093,31.36
57.109,27.52
57.125,23.54
57.140,19.59
57.156,15.79
57.171,12.19
57.187,8.78
57.203,5.49
57.218,2.15
57.234,-1.31
57.250,-4.97
57.265,-8.81
57.281,-12.7
57.296,-16.46
57.312,-19.96
57.328,-23.09
57.343,-25.93
57.359,-28.67
57.375,-31.55
57.390,-34.88
57.406,-38.86
57.421,-43.42
57.437,-48.27
57.453,-52.72
57.468,-55.85
57.484,-56.72
57.500,-54.66
57.515,-49.5
57.531,-41.68
57.546,-32.18
57.562,-22.11
57.578,-12.54
57.593,-4.13
57.609,2.88
57.625,8.54
57.640,13.06
57.656,16.66
57.671,19.47
57.687,21.55
57.703,23.03
57.718,24.04
57.734,24.76
57.750,25.4
57.765,26.03
57.781,26.66
57.796,27.25
57.812,27.77
57.828,28.2
57.843,28.52
57.859,28.74
57.875,28.85
57.890,28.79
57.906,28.43
57.921,27.65
57.937,26.35
57.953,24.43
57.968,21.92
57.984,18.91
58.000,15.62
58.015,12.29
58.031,9.11
58.046,6.16
58.062,3.42
58.078,0.81
58.093,-1.8
58.109,-4.48
58.125,-7.24
58.140,-10.09
58.156,-12.99
58.171,-15.94
58.187,-18.86
58.203,-21.68
58.218,-24.31
58.234,-26.75
58.250,-29.06
58.265,-31.5
58.281,-34.4
58.296,-38.06
58.312,-42.55
58.328,-47.55
58.343,-52.26
58.359,-55.62
58.375,-56.63
58.390,-54.61
58.406,-49.53
58.421,-42.01
58.437,-33.02
58.453,-23.7
58.468,-14.9
58.484,-7.12
58.500,-0.49
58.515,5.12
58.531,9.91
58.546,13.99
58.562,17.36
58.578,19.95
58.593,21.7
58.609,22.7
58.625,23.14
58.640,23.29
58.656,23.4
58.671,23.55
58.687,23.7
58.703,23.7
58.718,23.44
58.734,22.99
58.750,22.53
58.765,22.26
58.781,22.27
58.796,22.43
58.812,22.45
58.828,21.98
58.843,20.84
58.859,19.04
58.875,16.8
58.890,14.37
58.906,11.97
58.921,9.68
58.937,7.44
58.953,5.18
58.968,2.79
58.984,0.22
59.000,-2.58
59.015,-5.58
59.031,-8.76
59.046,-12.01
59.062,-15.17
59.078,-18.14
59.093,-20.87
59.109,-23.44
59.125,-25.96
59.140,-28.62
59.156,-31.51
59.171,-34.71
59.187,-38.21
59.203,-41.83
59.218,-45.3
59.234,-48.0
59.250,-49.2
59.265,-48.15
59.281,-44.4
59.296,-38.08
59.312,-29.84
59.328,-20.7
59.343,-11.66
59.359,-3.41
59.375,3.8
59.390,10.04
59.406,15.48
59.421,20.23
59.437,24.28
59.453,27.51
59.468,29.83
59.484,31.29
59.500,32.0
59.515,32.22
59.531,32.19
59.546,32.08
59.562,31.93
59.578,31.68
59.593,31.12
59.609,30.15
59.625,28.86
59.640,27.44
59.656,26.15
59.671,25.16
59.687,24.44
59.703,23.77
59.718,22.82
59.734,21.37
59.750,19.37
59.765,16.97
59.781,14.44
59.796,12.01
59.812,9.75
59.828,7.66
59.843,5.6
59.859,3.43
59.875,1.01
59.890,-1.71
59.906,-4.72
59.921,-7.97
59.937,-11.33
59.953,-14.74
59.968,-18.13
59.984,-21.52
