timestamp,value
00.000,95.52
00.015,95.64
00.031,99.95
00.046,108.81
00.062,120.95
00.078,133.72
00.093,143.87
00.109,148.57
00.125,146.07
00.140,135.82
00.156,118.32
00.171,94.62
00.187,66.17
00.203,34.81
00.218,2.79
00.234,-27.57
00.250,-54.32
00.265,-76.49
00.281,-94.26
00.296,-108.59
00.312,-120.48
00.328,-130.36
00.343,-137.85
00.359,-142.29
00.375,-143.48
00.390,-142.1
00.406,-139.66
00.421,-138.04
00.437,-138.57
00.453,-141.9
00.468,-147.91
00.484,-156.19
00.500,-166.36
00.515,-178.21
00.531,-191.58
00.546,-206.26
00.562,-221.89
00.578,-237.93
00.593,-253.78
00.609,-268.65
00.625,-281.45
00.640,-290.62
00.656,-294.21
00.671,-290.17
00.687,-277.03
00.703,-254.34
00.718,-222.95
00.734,-185.0
00.750,-143.41
00.765,-101.28
00.781,-61.3
00.796,-25.39
00.812,5.4
00.828,30.89
00.843,51.53
00.859,68.35
00.875,82.66
00.890,95.9
00.906,109.32
00.921,123.69
00.937,139.25
00.953,155.59
00.968,171.84
00.984,186.87
01.000,199.32
01.015,207.78
01.031,210.77
01.046,206.94
01.062,195.31
01.078,175.59
01.093,148.42
01.109,115.36
01.125,78.64
01.140,40.73
01.156,3.92
01.171,-29.75
01.187,-58.53
01.203,-80.96
01.218,-96.07
01.234,-103.87
01.250,-105.75
01.265,-104.35
01.281,-102.94
01.296,-104.28
01.312,-109.63
01.328,-118.46
01.343,-128.95
01.359,-138.83
01.375,-146.21
01.390,-149.71
01.406,-148.28
01.421,-140.9
01.437,-126.78
01.453,-106.06
01.468,-80.59
01.484,-53.99
01.500,-30.79
01.515,-14.84
01.531,-7.98
01.546,-9.39
01.562,-16.26
01.578,-25.28
01.593,-34.0
01.609,-41.49
01.625,-48.03
01.640,-54.2
01.656,-60.04
01.671,-64.76
01.687,-67.01
01.703,-65.41
01.718,-58.98
01.734,-47.46
01.750,-31.23
01.765,-11.32
01.781,10.78
01.796,33.24
01.812,54.19
01.828,72.0
01.843,85.56
01.859,94.31
01.875,98.15
01.890,97.46
01.906,93.03
01.921,86.01
01.937,77.76
01.953,69.41
01.968,61.41
01.984,53.25
02.000,43.72
02.015,31.35
02.031,15.18
02.046,-4.81
02.062,-27.77
02.078,-52.11
02.093,-75.91
02.109,-97.17
02.125,-113.89
02.140,-124.26
02.156,-126.95
02.171,-121.53
02.187,-108.71
02.203,-90.27
02.218,-68.6
02.234,-46.12
02.250,-24.74
02.265,-5.61
02.281,10.88
02.296,24.74
02.312,36.15
02.328,45.09
02.343,51.35
02.359,54.73
02.375,55.28
02.390,53.52
02.406,50.46
02.421,47.28
02.437,44.92
02.453,43.79
02.468,43.77
02.484,44.3
02.500,44.86
02.515,45.03
02.531,44.36
02.546,42.29
02.562,38.04
02.578,30.86
02.593,20.37
02.609,6.95
02.625,-8.34
02.640,-23.97
02.656,-38.4
02.671,-50.57
02.687,-60.0
02.703,-66.79
02.718,-71.4
02.734,-74.57
02.750,-77.19
02.765,-80.24
02.781,-84.69
02.796,-91.38
02.812,-100.81
02.828,-112.9
02.843,-126.94
02.859,-141.52
02.875,-154.76
02.890,-164.65
02.906,-169.48
02.921,-168.32
02.937,-161.19
02.953,-148.98
02.968,-133.12
02.984,-115.15
03.000,-96.29
03.015,-77.28
03.031,-58.45
03.046,-39.91
03.062,-21.82
03.078,-4.45
03.093,11.81
03.109,26.68
03.125,40.13
03.140,52.59
03.156,64.85
03.171,77.9
03.187,92.6
03.203,109.28
03.218,127.64
03.234,146.71
03.250,165.13
03.265,181.49
03.281,194.76
03.296,204.48
03.312,210.87
03.328,214.73
03.343,217.12
03.359,219.11
03.375,221.41
03.390,224.27
03.406,227.54
03.421,230.75
03.437,233.32
03.453,234.76
03.468,234.97
03.484,234.2
03.500,233.15
03.515,232.66
03.531,233.5
03.546,236.02
03.562,239.97
03.578,244.49
03.593,248.36
03.609,250.31
03.625,249.44
03.640,245.54
03.656,239.07
03.671,231.07
03.687,222.83
03.703,215.52
03.718,209.94
03.734,206.44
03.750,204.86
03.765,204.66
03.781,204.97
03.796,204.66
03.812,202.5
03.828,197.37
03.843,188.48
03.859,175.46
03.875,158.43
03.890,137.92
03.906,114.56
03.921,89.06
03.937,62.06
03.953,34.13
03.968,5.8
03.984,-22.58
04.000,-50.87
04.015,-79.21
04.031,-107.89
04.046,-137.02
04.062,-166.19
04.078,-194.31
04.093,-219.85
04.109,-241.41
04.125,-258.28
04.140,-270.77
04.156,-280.19
04.171,-288.24
04.187,-296.45
04.203,-305.66
04.218,-316.1
04.234,-327.62
04.250,-339.98
04.265,-352.96
04.281,-366.25
04.296,-379.25
04.312,-391.01
04.328,-400.43
04.343,-406.54
04.359,-408.71
04.375,-406.7
04.390,-400.41
04.406,-389.84
04.421,-375.04
04.437,-356.38
04.453,-334.88
04.468,-312.12
04.484,-289.96
04.500,-269.74
04.515,-251.56
04.531,-234.08
04.546,-214.82
04.562,-191.15
04.578,-161.23
04.593,-124.65
04.609,-82.45
04.625,-36.72
04.640,10.03
04.656,55.41
04.671,97.3
04.687,133.96
04.703,164.05
04.718,186.88
04.734,202.55
04.750,212.04
04.765,216.94
04.781,218.98
04.796,219.59
04.812,219.49
04.828,218.77
04.843,217.17
04.859,214.36
04.875,210.28
04.890,205.2
04.906,199.72
04.921,194.53
04.937,190.22
04.953,186.89
04.968,184.14
04.984,181.12
05.000,176.85
05.015,170.63
05.031,162.26
05.046,152.16
05.062,141.14
05.078,130.0
05.093,119.26
05.109,109.09
05.125,99.43
05.140,90.18
05.156,81.38
05.171,73.11
05.187,65.42
05.203,58.19
05.218,51.22
05.234,44.24
05.250,37.23
05.265,30.21
05.281,23.25
05.296,16.28
05.312,8.97
05.328,0.86
05.343,-8.51
05.359,-19.3
05.375,-31.15
05.390,-43.11
05.406,-53.73
05.421,-61.32
05.437,-64.37
05.453,-61.97
05.468,-54.2
05.484,-42.13
05.500,-27.57
05.515,-12.51
05.531,1.41
05.546,13.25
05.562,22.86
05.578,30.58
05.593,36.84
05.609,41.82
05.625,45.39
05.640,47.3
05.656,47.42
05.671,45.95
05.687,43.36
05.703,40.31
05.718,37.38
05.734,34.96
05.750,33.15
05.765,31.89
05.781,31.05
05.796,30.53
05.812,30.13
05.828,29.62
05.843,28.68
05.859,27.02
05.875,24.44
05.890,20.97
05.906,16.88
05.921,12.6
05.937,8.56
05.953,5.0
05.968,1.88
05.984,-1.12
06.000,-4.38
06.015,-8.21
06.031,-12.65
06.046,-17.45
06.062,-22.18
06.078,-26.43
06.093,-29.92
06.109,-32.62
06.125,-34.78
06.140,-36.79
06.156,-39.11
06.171,-42.15
06.187,-46.12
06.203,-50.92
06.218,-55.96
06.234,-60.11
06.250,-61.93
06.265,-60.09
06.281,-53.71
06.296,-42.84
06.312,-28.43
06.328,-12.11
06.343,4.24
06.359,19.01
06.375,31.23
06.390,40.58
06.406,47.22
06.421,51.56
06.437,54.01
06.453,54.83
06.468,54.22
06.484,52.38
06.500,49.62
06.515,46.35
06.531,43.1
06.546,40.21
06.562,37.9
06.578,36.12
06.593,34.69
06.609,33.41
06.625,32.09
06.640,30.65
06.656,28.98
06.671,26.98
06.687,24.49
06.703,21.36
06.718,17.58
06.734,13.22
06.750,8.61
06.765,4.06
06.781,-0.13
06.796,-3.86
06.812,-7.18
06.828,-10.27
06.843,-13.31
06.859,-16.36
06.875,-19.4
06.890,-22.37
06.906,-25.31
06.921,-28.39
06.937,-31.98
06.953,-36.44
06.968,-42.06
06.984,-48.71
07.000,-55.86
07.015,-62.54
07.031,-67.44
07.046,-69.3
07.062,-67.2
07.078,-60.9
07.093,-50.87
07.109,-38.16
07.125,-24.11
07.140,-9.99
07.156,3.15
07.171,14.62
07.187,24.01
07.203,31.11
07.218,35.86
07.234,38.34
07.250,38.81
07.265,37.61
07.281,35.25
07.296,32.27
07.312,29.22
07.328,26.54
07.343,24.52
07.359,23.21
07.375,22.4
07.390,21.76
07.406,20.95
07.421,19.8
07.437,18.31
07.453,16.57
07.468,14.67
07.484,12.51
07.500,9.88
07.515,6.47
07.531,2.09
07.546,-3.17
07.562,-8.88
07.578,-14.48
07.593,-19.39
07.609,-23.36
07.625,-26.5
07.640,-29.29
07.656,-32.34
07.671,-36.23
07.687,-41.24
07.703,-47.41
07.718,-54.41
07.734,-61.65
07.750,-68.27
07.765,-73.21
07.781,-75.3
07.796,-73.56
07.812,-67.49
07.828,-57.28
07.843,-43.85
07.859,-28.56
07.875,-12.96
07.890,1.67
07.906,14.5
07.921,25.27
07.937,34.04
07.953,41.01
07.968,46.26
07.984,49.81
08.000,51.65
08.015,51.97
08.031,51.28
08.046,50.24
08.062,49.46
08.078,49.26
08.093,49.51
08.109,49.76
08.125,49.57
08.140,48.66
08.156,47.08
08.171,45.12
08.187,43.03
08.203,40.85
08.218,38.36
08.234,35.21
08.250,31.1
08.265,25.94
08.281,19.81
08.296,12.96
08.312,5.73
08.328,-1.54
08.343,-8.62
08.359,-15.33
08.375,-21.66
08.390,-27.74
08.406,-33.87
08.421,-40.41
08.437,-47.61
08.453,-55.38
08.468,-63.13
08.484,-69.79
08.500,-73.97
08.515,-74.4
08.531,-70.38
08.546,-62.02
08.562,-50.28
08.578,-36.67
08.593,-22.8
08.609,-9.96
08.625,1.09
08.640,10.18
08.656,17.44
08.671,23.06
08.687,27.14
08.703,29.66
08.718,30.62
08.734,30.15
08.750,28.59
08.765,26.45
08.781,24.3
08.796,22.66
08.812,21.82
08.828,21.9
08.843,22.79
08.859,24.25
08.875,25.98
08.890,27.7
08.906,29.19
08.921,30.21
08.937,30.58
08.953,30.03
08.968,28.41
08.984,25.57
09.000,21.53
09.015,16.43
09.031,10.55
09.046,4.16
09.062,-2.46
09.078,-9.05
09.093,-15.43
09.109,-21.41
09.125,-26.82
09.140,-31.53
09.156,-35.56
09.171,-39.16
09.187,-42.77
09.203,-46.94
09.218,-51.98
09.234,-57.72
09.250,-63.36
09.265,-67.62
09.281,-69.04
09.296,-66.52
09.312,-59.67
09.328,-49.01
09.343,-35.73
09.359,-21.36
09.375,-7.36
09.390,5.24
09.406,15.84
09.421,24.19
09.437,30.17
09.453,33.75
09.468,35.0
09.484,34.24
09.500,32.06
09.515,29.31
09.531,26.95
09.546,25.73
09.562,26.0
09.578,27.64
09.593,30.08
09.609,32.57
09.625,34.42
09.640,35.21
09.656,34.87
09.671,33.58
09.687,31.67
09.703,29.4
09.718,26.92
09.734,24.2
09.750,21.04
09.765,17.19
09.781,12.47
09.796,6.86
09.812,0.61
09.828,-5.88
09.843,-12.13
09.859,-17.75
09.875,-22.57
09.890,-26.69
09.906,-30.47
09.921,-34.34
09.937,-38.68
09.953,-43.72
09.968,-49.37
09.984,-55.23
10.000,-60.47
10.015,-63.92
10.031,-64.32
10.046,-60.74
10.062,-52.88
10.078,-41.29
10.093,-27.32
10.109,-12.66
10.125,1.09
10.140,12.83
10.156,22.09
10.171,28.89
10.187,33.47
10.203,36.06
10.218,36.83
10.234,35.96
10.250,33.82
10.265,31.01
10.281,28.23
10.296,26.09
10.312,24.91
10.328,24.57
10.343,24.67
10.359,24.66
10.375,24.16
10.390,23.07
10.406,21.57
10.421,20.0
10.437,18.6
10.453,17.39
10.468,16.11
10.484,14.31
10.500,11.55
10.515,7.57
10.531,2.5
10.546,-3.24
10.562,-9.07
10.578,-14.44
10.593,-19.11
10.609,-23.06
10.625,-26.62
10.640,-30.17
10.656,-34.13
10.671,-38.83
10.687,-44.41
10.703,-50.78
10.718,-57.41
10.734,-63.35
10.750,-67.27
10.765,-67.79
10.781,-63.91
10.796,-55.54
10.812,-43.45
10.828,-29.15
10.843,-14.4
10.859,-0.69
10.875,11.03
10.890,20.46
10.906,27.72
10.921,33.07
10.937,36.79
10.953,39.04
10.968,39.91
10.984,39.62
11.000,38.5
11.015,37.0
11.031,35.6
11.046,34.63
11.062,34.15
11.078,33.94
11.093,33.58
11.109,32.77
11.125,31.35
11.140,29.53
11.156,27.59
11.171,25.78
11.187,24.05
11.203,22.1
11.218,19.55
11.234,16.16
11.250,11.95
11.265,7.12
11.281,1.98
11.296,-3.23
11.312,-8.32
11.328,-13.26
11.343,-18.0
11.359,-22.55
11.375,-26.99
11.390,-31.5
11.406,-36.35
11.421,-41.84
11.437,-48.14
11.453,-55.14
11.468,-62.34
11.484,-68.72
11.500,-73.01
11.515,-73.88
11.531,-70.48
11.546,-62.68
11.562,-51.22
11.578,-37.46
11.593,-23.02
11.609,-9.25
11.625,2.98
11.640,13.29
11.656,21.67
11.671,28.2
11.687,33.05
11.703,36.37
11.718,38.38
11.734,39.35
11.750,39.55
11.765,39.27
11.781,38.71
11.796,38.12
11.812,37.63
11.828,37.28
11.843,37.1
11.859,36.97
11.875,36.82
11.890,36.5
11.906,35.97
11.921,35.06
11.937,33.66
11.953,31.63
11.968,28.83
11.984,25.28
12.000,21.09
12.015,16.44
12.031,11.49
12.046,6.37
12.062,1.11
12.078,-4.24
12.093,-9.67
12.109,-15.11
12.125,-20.45
12.140,-25.63
12.156,-30.54
12.171,-35.21
12.187,-39.67
12.203,-44.14
12.218,-48.85
12.234,-54.1
12.250,-60.04
12.265,-66.51
12.281,-72.89
12.296,-78.01
12.312,-80.42
12.328,-78.79
12.343,-72.43
12.359,-61.61
12.375,-47.53
12.390,-32.0
12.406,-16.79
12.421,-3.24
12.437,8.1
12.453,17.26
12.468,24.6
12.484,30.47
12.500,35.03
12.515,38.29
12.531,40.24
12.546,41.05
12.562,40.98
12.578,40.46
12.593,39.78
12.609,39.12
12.625,38.54
12.640,37.98
12.656,37.43
12.671,36.95
12.687,36.65
12.703,36.59
12.718,36.7
12.734,36.64
12.750,35.97
12.765,34.27
12.781,31.35
12.796,27.35
12.812,22.65
12.828,17.82
12.843,13.21
12.859,8.95
12.875,4.88
12.890,0.65
12.906,-4.01
12.921,-9.16
12.937,-14.54
12.953,-19.79
12.968,-24.48
12.984,-28.43
13.000,-31.75
13.015,-34.83
13.031,-38.17
13.046,-42.31
13.062,-47.58
13.078,-54.04
13.093,-61.3
13.109,-68.49
13.125,-74.35
13.140,-77.48
13.156,-76.69
13.171,-71.4
13.187,-61.91
13.203,-49.25
13.218,-34.9
13.234,-20.36
13.250,-6.74
13.265,5.24
13.281,15.29
13.296,23.34
13.312,29.38
13.328,33.41
13.343,35.56
13.359,36.13
13.375,35.59
13.390,34.56
13.406,33.52
13.421,32.83
13.437,32.63
13.453,32.85
13.468,33.35
13.484,34.03
13.500,34.79
13.515,35.61
13.531,36.41
13.546,37.02
13.562,37.18
13.578,36.5
13.593,34.69
13.609,31.6
13.625,27.42
13.640,22.54
13.656,17.5
13.671,12.82
13.687,8.77
13.703,5.34
13.718,2.23
13.734,-0.97
13.750,-4.58
13.765,-8.64
13.781,-12.98
13.796,-17.28
13.812,-21.3
13.828,-25.06
13.843,-28.8
13.859,-32.88
13.875,-37.69
13.890,-43.42
13.906,-50.09
13.921,-57.46
13.937,-65.0
13.953,-71.78
13.968,-76.55
13.984,-77.92
14.000,-74.8
14.015,-66.87
14.031,-54.77
14.046,-40.06
14.062,-24.6
14.078,-10.09
14.093,2.47
14.109,12.79
14.125,21.1
14.140,27.74
14.156,32.83
14.171,36.32
14.187,38.15
14.203,38.51
14.218,37.88
14.234,36.93
14.250,36.19
14.265,35.9
14.281,35.95
14.296,36.05
14.312,35.9
14.328,35.46
14.343,34.87
14.359,34.33
14.375,33.89
14.390,33.3
14.406,32.19
14.421,30.16
14.437,27.12
14.453,23.25
14.468,19.01
14.484,14.87
14.500,11.11
14.515,7.68
14.531,4.33
14.546,0.68
14.562,-3.46
14.578,-8.06
14.593,-12.86
14.609,-17.56
14.625,-21.95
14.640,-25.97
14.656,-29.74
14.671,-33.47
14.687,-37.43
14.703,-41.87
14.718,-46.98
14.734,-52.77
14.750,-58.93
14.765,-64.72
14.781,-68.96
14.796,-70.34
14.812,-67.79
14.828,-60.94
14.843,-50.24
14.859,-36.98
14.875,-22.76
14.890,-9.17
14.906,2.7
14.921,12.31
14.937,19.62
14.953,24.87
14.968,28.41
14.984,30.57
15.000,31.68
15.015,32.09
15.031,32.09
15.046,31.94
15.062,31.85
15.078,31.86
15.093,31.98
15.109,32.22
15.125,32.54
15.140,32.97
15.156,33.47
15.171,33.94
15.187,34.14
15.203,33.84
15.218,32.78
15.234,30.81
15.250,27.9
15.265,24.2
15.281,19.95
15.296,15.4
15.312,10.77
15.328,6.17
15.343,1.66
15.359,-2.8
15.375,-7.21
15.390,-11.56
15.406,-15.77
15.421,-19.75
15.437,-23.47
15.453,-26.98
15.468,-30.5
15.484,-34.3
15.500,-38.72
15.515,-43.93
15.531,-49.9
15.546,-56.28
15.562,-62.27
15.578,-66.78
15.593,-68.55
15.609,-66.54
15.625,-60.26
15.640,-50.08
15.656,-37.07
15.671,-22.78
15.687,-8.84
15.703,3.57
15.718,13.78
15.734,21.66
15.750,27.33
15.765,31.07
15.781,33.09
15.796,33.64
15.812,33.08
15.828,31.82
15.843,30.4
15.859,29.24
15.875,28.65
15.890,28.68
15.906,29.15
15.921,29.78
15.937,30.24
15.953,30.3
15.968,29.82
15.984,28.85
16.000,27.45
16.015,25.75
16.031,23.74
16.046,21.32
16.062,18.27
16.078,14.4
16.093,9.67
16.109,4.18
16.125,-1.74
16.140,-7.71
16.156,-13.36
16.171,-18.4
16.187,-22.8
16.203,-26.61
16.218,-30.03
16.234,-33.25
16.250,-36.54
16.265,-40.23
16.281,-44.65
16.296,-50.02
16.312,-56.16
16.328,-62.38
16.343,-67.39
16.359,-69.61
16.375,-67.71
16.390,-61.08
16.406,-50.09
16.421,-36.16
16.437,-21.12
16.453,-6.74
16.468,5.73
16.484,15.81
16.500,23.64
16.515,29.53
16.531,33.85
16.546,36.8
16.562,38.42
16.578,38.82
16.593,38.22
16.609,36.98
16.625,35.57
16.640,34.34
16.656,33.47
16.671,32.93
16.687,32.58
16.703,32.27
16.718,31.93
16.734,31.53
16.750,31.05
16.765,30.42
16.781,29.42
16.796,27.79
16.812,25.34
16.828,22.03
16.843,17.98
16.859,13.47
16.875,8.76
16.890,4.0
16.906,-0.8
16.921,-5.71
16.937,-10.82
16.953,-16.09
16.968,-21.36
16.984,-26.42
17.000,-31.14
17.015,-35.59
17.031,-40.11
17.046,-45.14
17.062,-51.06
17.078,-57.95
17.093,-65.33
17.109,-72.15
17.125,-77.02
17.140,-78.41
17.156,-75.3
17.171,-67.45
17.187,-55.59
17.203,-41.18
17.218,-25.95
17.234,-11.39
17.250,1.54
17.265,12.45
17.281,21.4
17.296,28.55
17.312,34.07
17.328,38.06
17.343,40.53
17.359,41.62
17.375,41.59
17.390,40.78
17.406,39.59
17.421,38.38
17.437,37.44
17.453,36.93
17.468,36.88
17.484,37.19
17.500,37.65
17.515,38.02
17.531,38.01
17.546,37.33
17.562,35.77
17.578,33.28
17.593,29.93
17.609,26.0
17.625,21.79
17.640,17.56
17.656,13.46
17.671,9.46
17.687,5.48
17.703,1.43
17.718,-2.74
17.734,-7.06
17.750,-11.47
17.765,-15.97
17.781,-20.56
17.796,-25.26
17.812,-30.2
17.828,-35.6
17.843,-41.85
17.859,-49.26
17.875,-57.72
17.890,-66.46
17.906,-73.97
17.921,-78.33
17.937,-77.83
17.953,-71.66
17.968,-60.23
17.984,-45.13
18.000,-28.51
18.015,-12.39
18.031,1.9
18.046,13.85
18.062,23.48
18.078,31.1
18.093,36.86
18.109,40.84
18.125,43.06
18.140,43.66
18.156,42.96
18.171,41.53
18.187,39.95
18.203,38.7
18.218,38.05
18.234,37.95
18.250,38.19
18.265,38.38
18.281,38.19
18.296,37.42
18.312,36.01
18.328,34.03
18.343,31.49
18.359,28.29
18.375,24.35
18.390,19.65
18.406,14.34
18.421,8.73
18.437,3.21
18.453,-1.92
18.468,-6.51
18.484,-10.5
18.500,-13.88
18.515,-16.57
18.531,-18.44
18.546,-19.45
18.562,-19.76
18.578,-19.71
18.593,-19.8
18.609,-20.54
18.625,-22.34
18.640,-25.34
18.656,-29.39
18.671,-33.94
18.687,-37.98
18.703,-40.27
18.718,-39.6
18.734,-35.25
18.750,-27.25
18.765,-16.51
18.781,-4.61
18.796,6.85
18.812,16.62
18.828,24.19
18.843,29.78
18.859,33.94
18.875,37.24
18.890,39.97
18.906,42.1
18.921,43.36
18.937,43.61
18.953,42.92
18.968,41.62
18.984,40.16
19.000,38.95
19.015,38.11
19.031,37.56
19.046,37.05
19.062,36.36
19.078,35.43
19.093,34.3
19.109,33.07
19.125,31.78
19.140,30.33
19.156,28.48
19.171,25.97
19.187,22.65
19.203,18.48
19.218,13.61
19.234,8.21
19.250,2.48
19.265,-3.4
19.281,-9.3
19.296,-15.07
19.312,-20.59
19.328,-25.8
19.343,-30.74
19.359,-35.58
19.375,-40.64
19.390,-46.27
19.406,-52.66
19.421,-59.62
19.437,-66.42
19.453,-71.82
19.468,-74.37
19.484,-72.85
19.500,-66.7
19.515,-56.3
19.531,-42.88
19.546,-28.09
19.562,-13.59
19.578,-0.55
19.593,10.47
19.609,19.42
19.625,26.45
19.640,31.69
19.656,35.14
19.671,36.79
19.687,36.78
19.703,35.5
19.718,33.58
19.734,31.73
19.750,30.51
19.765,30.11
19.781,30.37
19.796,30.82
19.812,31.02
19.828,30.64
19.843,29.58
19.859,27.98
19.875,26.04
19.890,23.9
19.906,21.59
19.921,18.98
19.937,15.89
19.953,12.21
19.968,7.93
19.984,3.13
20.000,-1.95
20.015,-7.07
20.031,-11.97
20.046,-16.53
20.062,-20.75
20.078,-24.8
20.093,-28.94
20.109,-33.47
20.125,-38.63
20.140,-44.5
20.156,-51.03
20.171,-57.86
20.187,-64.38
20.203,-69.6
20.218,-72.36
20.234,-71.58
20.250,-66.53
20.265,-57.25
20.281,-44.52
20.296,-29.85
20.312,-14.94
20.328,-1.19
20.343,10.53
20.359,20.03
20.375,27.48
20.390,33.16
20.406,37.21
20.421,39.67
20.437,40.55
20.453,40.08
20.468,38.76
20.484,37.2
20.500,36.02
20.515,35.51
20.531,35.69
20.546,36.22
20.562,36.73
20.578,36.83
20.593,36.29
20.609,35.1
20.625,33.33
20.640,31.13
20.656,28.57
20.671,25.67
20.687,22.34
20.703,18.5
20.718,14.06
20.734,9.06
20.750,3.67
20.765,-1.88
20.781,-7.28
20.796,-12.34
20.812,-16.96
20.828,-21.21
20.843,-25.23
20.859,-29.29
20.875,-33.71
20.890,-38.76
20.906,-44.64
20.921,-51.26
20.937,-58.24
20.953,-64.84
20.968,-70.03
20.984,-72.7
21.000,-71.86
21.015,-66.99
21.031,-58.21
21.046,-46.38
21.062,-32.77
21.078,-18.86
21.093,-5.88
21.109,5.52
21.125,15.12
21.140,23.11
21.156,29.75
21.171,35.19
21.187,39.41
21.203,42.38
21.218,44.15
21.234,44.99
21.250,45.28
21.265,45.41
21.281,45.57
21.296,45.79
21.312,45.92
21.328,45.74
21.343,45.14
21.359,44.13
21.375,42.78
21.390,41.15
21.406,39.16
21.421,36.62
21.437,33.34
21.453,29.24
21.468,24.43
21.484,19.27
21.500,14.15
21.515,9.33
21.531,4.85
21.546,0.44
21.562,-4.18
21.578,-9.22
21.593,-14.69
21.609,-20.36
21.625,-25.85
21.640,-30.97
21.656,-35.67
21.671,-40.14
21.687,-44.71
21.703,-49.75
21.718,-55.51
21.734,-61.98
21.750,-68.75
21.765,-74.84
21.781,-78.9
21.796,-79.49
21.812,-75.61
21.828,-67.08
21.843,-54.62
21.859,-39.71
21.875,-24.01
21.890,-8.92
21.906,4.68
21.921,16.42
21.937,26.35
21.953,34.53
21.968,41.0
21.984,45.77
22.000,48.91
22.015,50.65
22.031,51.33
22.046,51.34
22.062,50.96
22.078,50.36
22.093,49.56
22.109,48.6
22.125,47.52
22.140,46.47
22.156,45.63
22.171,45.02
22.187,44.51
22.203,43.75
22.218,42.39
22.234,40.15
22.250,36.93
22.265,32.83
22.281,28.02
22.296,22.76
22.312,17.29
22.328,11.86
22.343,6.67
22.359,1.82
22.375,-2.74
22.390,-7.22
22.406,-11.82
22.421,-16.74
22.437,-21.93
22.453,-27.24
22.468,-32.44
22.484,-37.47
22.500,-42.49
22.515,-47.83
22.531,-53.79
22.546,-60.35
22.562,-67.06
22.578,-72.88
22.593,-76.5
22.609,-76.63
22.625,-72.47
22.640,-64.02
22.656,-52.14
22.671,-38.2
22.687,-23.72
22.703,-9.95
22.718,2.46
22.734,13.31
22.750,22.75
22.765,30.89
22.781,37.68
22.796,42.91
22.812,46.4
22.828,48.22
22.843,48.73
22.859,48.48
22.875,48.04
22.890,47.75
22.906,47.65
22.921,47.5
22.937,46.99
22.953,45.99
22.968,44.56
22.984,42.92
23.000,41.28
23.015,39.67
23.031,37.91
23.046,35.7
23.062,32.8
23.078,29.19
23.093,25.14
23.109,21.04
23.125,17.31
23.140,14.07
23.156,11.15
23.171,8.09
23.187,4.39
23.203,-0.23
23.218,-5.72
23.234,-11.65
23.250,-17.52
23.265,-22.89
23.281,-27.63
23.296,-31.88
23.312,-35.99
23.328,-40.36
23.343,-45.31
23.359,-51.05
23.375,-57.51
23.390,-64.36
23.406,-70.76
23.421,-75.45
23.437,-76.99
23.453,-74.21
23.468,-66.67
23.484,-54.96
23.500,-40.6
23.515,-25.48
23.531,-11.36
23.546,0.72
23.562,10.53
23.578,18.38
23.593,24.75
23.609,29.88
23.625,33.76
23.640,36.21
23.656,37.23
23.671,37.07
23.687,36.26
23.703,35.36
23.718,34.76
23.734,34.51
23.750,34.45
23.765,34.31
23.781,33.9
23.796,33.22
23.812,32.4
23.828,31.57
23.843,30.73
23.859,29.69
23.875,28.2
23.890,26.02
23.906,23.06
23.921,19.37
23.937,15.14
23.953,10.52
23.968,5.67
23.984,0.66
24.000,-4.49
24.015,-9.69
24.031,-14.86
24.046,-19.9
24.062,-24.72
24.078,-29.31
24.093,-33.75
24.109,-38.2
24.125,-42.86
24.140,-47.88
24.156,-53.25
24.171,-58.65
24.187,-63.33
24.203,-66.22
24.218,-66.17
24.234,-62.37
24.250,-54.66
24.265,-43.67
24.281,-30.62
24.296,-17.02
24.312,-4.16
24.328,7.13
24.343,16.52
24.359,24.04
24.375,29.77
24.390,33.76
24.406,36.03
24.421,36.66
24.437,35.91
24.453,34.32
24.468,32.52
24.484,31.06
24.500,30.27
24.515,30.1
24.531,30.25
24.546,30.34
24.562,30.05
24.578,29.29
24.593,28.1
24.609,26.65
24.625,25.06
24.640,23.39
24.656,21.47
24.671,19.1
24.687,16.05
24.703,12.19
24.718,7.57
24.734,2.37
24.750,-3.11
24.765,-8.63
24.781,-13.97
24.796,-18.97
24.812,-23.57
24.828,-27.73
24.843,-31.61
24.859,-35.47
24.875,-39.68
24.890,-44.59
24.906,-50.27
24.921,-56.35
24.937,-61.96
24.953,-65.83
24.968,-66.62
24.984,-63.38
25.000,-55.83
25.015,-44.49
25.031,-30.63
25.046,-15.81
25.062,-1.54
25.078,11.14
25.093,21.69
25.109,30.14
25.125,36.64
25.140,41.48
25.156,44.78
25.171,46.64
25.187,47.26
25.203,46.93
25.218,46.21
25.234,45.59
25.250,45.5
25.265,46.03
25.281,47.04
25.296,48.17
25.312,48.98
25.328,49.2
25.343,48.73
25.359,47.59
25.375,45.93
25.390,43.91
25.406,41.67
25.421,39.33
25.437,36.96
25.453,34.61
25.468,32.36
25.484,30.2
25.500,28.15
25.515,26.27
25.531,24.58
25.546,23.06
25.562,21.64
25.578,20.22
25.593,18.77
25.609,17.36
25.625,16.17
25.640,15.43
25.656,15.21
25.671,15.4
25.687,15.64
25.703,15.56
25.718,14.89
25.734,13.6
25.750,11.89
25.765,10.08
25.781,8.47
25.796,7.24
25.812,6.44
25.828,6.01
25.843,5.85
25.859,5.85
25.875,5.91
25.890,5.99
25.906,6.07
25.921,6.19
25.937,6.29
25.953,6.23
25.968,5.79
25.984,4.75
26.000,3.0
26.015,0.61
26.031,-2.13
26.046,-4.95
26.062,-7.61
26.078,-10.1
26.093,-12.6
26.109,-15.33
26.125,-18.57
26.140,-22.41
26.156,-26.8
26.171,-31.49
26.187,-36.2
26.203,-40.76
26.218,-45.17
26.234,-49.67
26.250,-54.55
26.265,-60.0
26.281,-65.85
26.296,-71.65
26.312,-76.79
26.328,-80.87
26.343,-83.82
26.359,-85.97
26.375,-87.82
26.390,-89.91
26.406,-92.76
26.421,-96.79
26.437,-102.35
26.453,-109.44
26.468,-117.36
26.484,-124.5
26.500,-128.53
26.515,-127.1
26.531,-118.68
26.546,-103.4
26.562,-82.97
26.578,-60.21
26.593,-37.93
26.609,-18.13
26.625,-1.5
26.640,12.27
26.656,23.98
26.671,34.39
26.687,43.77
26.703,51.89
26.718,58.32
26.734,62.69
26.750,64.9
26.765,65.27
26.781,64.49
26.796,63.46
26.812,63.06
26.828,63.91
26.843,66.2
26.859,69.68
26.875,73.73
26.890,77.7
26.906,81.04
26.921,83.52
26.937,85.15
26.953,86.17
26.968,86.79
26.984,87.08
27.000,87.01
27.015,86.45
27.031,85.27
27.046,83.34
27.062,80.56
27.078,76.85
27.093,72.34
27.109,67.48
27.125,63.09
27.140,60.12
27.156,59.17
27.171,60.17
27.187,62.37
27.203,64.76
27.218,66.73
27.234,68.49
27.250,71.05
27.265,75.58
27.281,82.7
27.296,92.03
27.312,102.15
27.328,111.24
27.343,117.74
27.359,120.8
27.375,120.4
27.390,117.25
27.406,112.43
27.421,107.13
27.437,102.29
27.453,98.23
27.468,94.69
27.484,90.78
27.500,85.56
27.515,78.37
27.531,69.2
27.546,58.73
27.562,47.79
27.578,37.06
27.593,26.6
27.609,16.06
27.625,4.85
27.640,-7.36
27.656,-20.5
27.671,-34.23
27.687,-48.19
27.703,-62.21
27.718,-76.32
27.734,-90.59
27.750,-104.72
27.765,-118.02
27.781,-129.44
27.796,-137.92
27.812,-142.98
27.828,-145.07
27.843,-145.55
27.859,-146.25
27.875,-148.83
27.890,-154.02
27.906,-161.26
27.921,-168.82
27.937,-174.32
27.953,-175.51
27.968,-171.08
27.984,-161.06
28.000,-146.72
28.015,-130.15
28.031,-113.52
28.046,-98.48
28.062,-85.81
28.078,-75.5
28.093,-67.1
28.109,-60.12
28.125,-54.32
28.140,-49.66
28.156,-46.15
28.171,-43.55
28.187,-41.27
28.203,-38.54
28.218,-34.66
28.234,-29.33
28.250,-22.84
28.265,-15.89
28.281,-9.34
28.296,-3.89
28.312,0.16
28.328,2.85
28.343,4.32
28.359,4.65
28.375,3.68
28.390,1.12
28.406,-3.24
28.421,-9.22
28.437,-16.27
28.453,-23.45
28.468,-29.91
28.484,-35.14
28.500,-39.26
28.515,-42.98
28.531,-47.27
28.546,-53.04
28.562,-60.81
28.578,-70.46
28.593,-81.29
28.609,-92.0
28.625,-100.94
28.640,-106.41
28.656,-107.0
28.671,-102.08
28.687,-91.89
28.703,-77.64
28.718,-61.02
28.734,-43.76
28.750,-27.16
28.765,-11.95
28.781,1.54
28.796,13.12
28.812,22.44
28.828,29.04
28.843,32.45
28.859,32.59
28.875,29.91
28.890,25.36
28.906,20.04
28.921,14.89
28.937,10.37
28.953,6.45
28.968,2.79
28.984,-0.96
29.000,-4.93
29.015,-8.94
29.031,-12.57
29.046,-15.5
29.062,-17.67
29.078,-19.44
29.093,-21.38
29.109,-24.17
29.125,-28.16
29.140,-33.31
29.156,-39.1
29.171,-44.79
29.187,-49.69
29.203,-53.51
29.218,-56.4
29.234,-58.89
29.250,-61.73
29.265,-65.58
29.281,-70.8
29.296,-77.33
29.312,-84.52
29.328,-91.17
29.343,-95.71
29.359,-96.43
29.375,-91.98
29.390,-81.78
29.406,-66.27
29.421,-46.83
29.437,-25.42
29.453,-3.98
29.468,16.02
29.484,33.84
29.500,49.33
29.515,62.67
29.531,74.04
29.546,83.5
29.562,90.97
29.578,96.45
29.593,100.21
29.609,102.78
29.625,104.84
29.640,107.0
29.656,109.63
29.671,112.83
29.687,116.52
29.703,120.64
29.718,125.06
29.734,129.68
29.750,134.16
29.765,137.91
29.781,140.2
29.796,140.24
29.812,137.53
29.828,132.05
29.843,124.28
29.859,114.97
29.875,105.0
29.890,95.04
29.906,85.5
29.921,76.55
29.937,68.19
29.953,60.34
29.968,52.94
29.984,45.97
30.000,39.35
30.015,33.05
30.031,27.01
30.046,21.23
30.062,15.85
30.078,11.07
30.093,7.1
30.109,4.03
30.125,1.82
30.140,0.28
30.156,-0.82
30.171,-1.65
30.187,-2.3
30.203,-2.74
30.218,-2.92
30.234,-2.86
30.250,-2.74
30.265,-2.78
30.281,-3.16
30.296,-3.91
30.312,-4.93
30.328,-6.1
30.343,-7.35
30.359,-8.78
30.375,-10.43
30.390,-12.29
30.406,-14.22
30.421,-15.97
30.437,-17.39
30.453,-18.48
30.468,-19.48
30.484,-20.7
30.500,-22.38
30.515,-24.47
30.531,-26.67
30.546,-28.58
30.562,-29.86
30.578,-30.54
30.593,-30.93
30.609,-31.59
30.625,-33.0
30.640,-35.33
30.656,-38.29
30.671,-41.35
30.687,-43.96
30.703,-45.97
30.718,-47.76
30.734,-50.13
30.750,-54.17
30.765,-60.77
30.781,-70.37
30.796,-82.66
30.812,-96.45
30.828,-109.65
30.843,-119.58
30.859,-123.68
30.875,-120.14
30.890,-108.67
30.906,-90.61
30.921,-68.54
30.937,-45.49
30.953,-24.13
30.968,-6.16
30.984,7.72
31.000,17.53
31.015,23.66
31.031,26.58
31.046,26.87
31.062,25.32
31.078,22.89
31.093,20.59
31.109,19.2
31.125,19.17
31.140,20.48
31.156,22.83
31.171,25.73
31.187,28.62
31.203,31.02
31.218,32.5
31.234,32.86
31.250,32.08
31.265,30.5
31.281,28.65
31.296,27.13
31.312,26.38
31.328,26.47
31.343,27.13
31.359,27.88
31.375,28.25
31.390,27.99
31.406,27.03
31.421,25.51
31.437,23.5
31.453,20.98
31.468,17.73
31.484,13.5
31.500,8.08
31.515,1.43
31.531,-6.36
31.546,-15.17
31.562,-24.82
31.578,-35.07
31.593,-45.37
31.609,-54.78
31.625,-61.95
31.640,-65.48
31.656,-64.3
31.671,-58.2
31.687,-47.91
31.703,-34.86
31.718,-20.67
31.734,-6.6
31.750,6.65
31.765,18.82
31.781,29.79
31.796,39.25
31.812,46.69
31.828,51.55
31.843,53.65
31.859,53.3
31.875,51.3
31.890,48.69
31.906,46.32
31.921,44.7
31.937,43.93
31.953,43.82
31.968,44.07
31.984,44.46
32.000,44.86
32.015,45.19
32.031,45.42
32.046,45.43
32.062,45.11
32.078,44.33
32.093,43.11
32.109,41.54
32.125,39.94
32.140,38.7
32.156,38.16
32.171,38.5
32.187,39.56
32.203,40.82
32.218,41.55
32.234,40.97
32.250,38.46
32.265,33.68
32.281,26.57
32.296,17.32
32.312,6.42
32.328,-5.33
32.343,-16.75
32.359,-26.53
32.375,-33.51
32.390,-37.13
32.406,-37.59
32.421,-35.82
32.437,-33.06
32.453,-30.37
32.468,-28.46
32.484,-27.54
32.500,-27.58
32.515,-28.5
32.531,-30.16
32.546,-32.3
32.562,-34.45
32.578,-36.0
32.593,-36.18
32.609,-34.53
32.625,-30.96
32.640,-26.0
32.656,-20.65
32.671,-16.08
32.687,-13.27
32.703,-12.67
32.718,-14.04
32.734,-16.51
32.750,-19.0
32.765,-20.54
32.781,-20.61
32.796,-19.33
32.812,-17.15
32.828,-14.75
32.843,-12.6
32.859,-10.95
32.875,-9.77
32.890,-8.94
32.906,-8.29
32.921,-7.69
32.937,-7.15
32.953,-6.73
32.968,-6.66
32.984,-7.22
33.000,-8.68
33.015,-11.17
33.031,-14.58
33.046,-18.25
33.062,-21.04
33.078,-21.56
33.093,-18.47
33.109,-11.09
33.125,0.39
33.140,14.92
33.156,30.73
33.171,45.93
33.187,58.82
33.203,68.21
33.218,73.47
33.234,74.41
33.250,71.2
33.265,64.32
33.281,54.62
33.296,43.27
33.312,31.67
33.328,21.19
33.343,12.88
33.359,7.2
33.375,3.93
33.390,2.38
33.406,1.67
33.421,1.12
33.437,0.4
33.453,-0.41
33.468,-1.12
33.484,-1.62
33.500,-2.02
33.515,-2.68
33.531,-4.04
33.546,-6.43
33.562,-9.91
33.578,-14.27
33.593,-19.04
33.609,-23.75
33.625,-28.08
33.640,-31.97
33.656,-35.65
33.671,-39.59
33.687,-44.26
33.703,-50.0
33.718,-56.83
33.734,-64.32
33.750,-71.56
33.765,-77.25
33.781,-79.94
33.796,-78.44
33.812,-72.2
33.828,-61.62
33.843,-47.88
33.859,-32.7
33.875,-17.72
33.890,-4.24
33.906,7.03
33.921,15.86
33.937,22.32
33.953,26.58
33.968,28.84
33.984,29.44
34.000,28.83
34.015,27.66
34.031,26.52
34.046,25.97
34.062,26.39
34.078,27.84
34.093,30.11
34.109,32.73
34.125,35.11
34.140,36.73
34.156,37.31
34.171,36.83
34.187,35.51
34.203,33.66
34.218,31.44
34.234,28.76
34.250,25.38
34.265,21.03
34.281,15.6
34.296,9.28
34.312,2.52
34.328,-4.17
34.343,-10.39
34.359,-16.07
34.375,-21.38
34.390,-26.73
34.406,-32.57
34.421,-39.31
34.437,-47.18
34.453,-56.14
34.468,-65.74
34.484,-74.97
34.500,-82.37
34.515,-86.2
34.531,-84.99
34.546,-78.05
34.562,-65.74
34.578,-49.47
34.593,-31.2
34.609,-12.88
34.625,4.12
34.640,19.1
34.656,31.97
34.671,42.91
34.687,52.09
34.703,59.57
34.718,65.36
34.734,69.49
34.750,72.14
34.765,73.51
34.781,73.73
34.796,72.85
34.812,70.74
34.828,67.36
34.843,62.81
34.859,57.4
34.875,51.61
34.890,45.86
34.906,40.46
34.921,35.46
34.937,30.84
34.953,26.53
34.968,22.49
34.984,18.65
35.000,14.87
35.015,10.95
35.031,6.72
35.046,2.11
35.062,-2.77
35.078,-7.64
35.093,-12.18
35.109,-16.24
35.125,-19.83
35.140,-23.27
35.156,-26.98
35.171,-31.53
35.187,-37.39
35.203,-44.92
35.218,-54.15
35.234,-64.61
35.250,-75.2
35.265,-84.23
35.281,-89.75
35.296,-90.03
35.312,-84.16
35.328,-72.36
35.343,-55.98
35.359,-37.15
35.375,-18.13
35.390,-0.69
35.406,14.28
35.421,26.69
35.437,36.96
35.453,45.51
35.468,52.56
35.484,58.02
35.500,61.73
35.515,63.69
35.531,64.2
35.546,63.84
35.562,63.23
35.578,62.77
35.593,62.53
35.609,62.37
35.625,62.13
35.640,61.75
35.656,61.36
35.671,61.13
35.687,61.02
35.703,60.73
35.718,59.74
35.734,57.56
35.750,53.92
35.765,48.92
35.781,43.05
35.796,36.79
35.812,30.58
35.828,24.56
35.843,18.64
35.859,12.69
35.875,6.64
35.890,0.57
35.906,-5.31
35.921,-10.81
35.937,-15.84
35.953,-20.5
35.968,-25.12
35.984,-30.15
36.000,-36.01
36.015,-42.93
36.031,-50.62
36.046,-58.26
36.062,-64.47
36.078,-67.62
36.093,-66.33
36.109,-59.96
36.125,-48.9
36.140,-34.35
36.156,-18.11
36.171,-1.98
36.187,12.62
36.203,24.77
36.218,34.08
36.234,40.43
36.250,43.98
36.265,44.94
36.281,43.79
36.296,41.17
36.312,37.86
36.328,34.68
36.343,32.2
36.359,30.72
36.375,30.13
36.390,30.18
36.406,30.52
36.421,30.91
36.437,31.23
36.453,31.42
36.468,31.45
36.484,31.24
36.500,30.78
36.515,30.16
36.531,29.66
36.546,29.57
36.562,30.0
36.578,30.77
36.593,31.34
36.609,31.04
36.625,29.29
36.640,25.96
36.656,21.32
36.671,15.95
36.687,10.41
36.703,5.07
36.734,-5.07
36.750,-10.58
36.765,-17.05
36.781,-24.96
36.796,-34.72
36.812,-46.46
36.828,-59.91
36.843,-74.15
36.859,-87.63
36.875,-98.4
36.890,-104.64
36.906,-105.27
36.921,-100.33
36.937,-91.2
36.953,-80.07
36.968,-69.41
36.984,-61.21
37.000,-56.55
37.015,-55.44
37.031,-57.18
37.046,-60.77
37.062,-65.35
37.078,-70.46
37.093,-75.91
37.109,-81.66
37.125,-87.5
37.140,-92.98
37.156,-97.42
37.171,-100.12
37.187,-100.61
37.203,-98.8
37.218,-94.99
37.234,-89.71
37.250,-83.54
37.265,-77.01
37.281,-70.41
37.296,-63.71
37.312,-56.74
37.328,-49.14
37.343,-40.56
37.359,-30.88
37.375,-20.35
37.390,-9.54
37.406,0.78
37.421,10.01
37.437,17.91
37.453,24.6
37.468,30.36
37.484,35.42
37.500,39.66
37.515,42.74
37.531,44.27
37.546,44.03
37.562,42.14
37.578,39.05
37.593,35.33
37.609,31.65
37.625,28.75
37.640,27.48
37.656,28.72
37.671,33.17
37.687,41.03
37.703,51.76
37.718,64.15
37.734,76.63
37.750,87.8
37.765,96.82
37.781,103.42
37.796,107.68
37.812,109.7
37.828,109.45
37.843,106.86
37.859,102.07
37.875,95.61
37.890,88.39
37.906,81.39
37.921,75.3
37.937,70.28
37.953,66.01
37.968,61.95
37.984,57.65
38.000,53.01
38.015,48.2
38.031,43.57
38.046,39.37
38.062,35.67
38.078,32.41
38.093,29.4
38.109,26.48
38.125,23.47
38.140,20.19
38.156,16.43
38.171,11.98
38.187,6.65
38.203,0.44
38.218,-6.48
38.234,-13.76
38.250,-21.01
38.265,-27.98
38.281,-34.59
38.296,-40.99
38.312,-47.4
38.328,-54.07
38.343,-60.99
38.359,-67.88
38.375,-74.04
38.390,-78.38
38.406,-79.64
38.421,-76.76
38.437,-69.24
38.453,-57.47
38.468,-42.71
38.484,-26.65
38.500,-11.05
38.515,2.84
38.531,14.47
38.546,23.81
38.562,31.1
38.578,36.56
38.593,40.28
38.609,42.26
38.625,42.68
38.640,41.9
38.656,40.46
38.671,38.98
38.687,37.88
38.703,37.27
38.718,36.98
38.734,36.68
38.750,36.07
38.765,35.05
38.781,33.68
38.796,32.13
38.812,30.61
38.828,29.14
38.843,27.63
38.859,25.88
38.875,23.64
38.890,20.73
38.906,17.1
38.921,12.7
38.937,7.6
38.953,1.9
38.968,-4.23
38.984,-10.55
39.000,-16.77
39.015,-22.67
39.031,-28.2
39.046,-33.49
39.062,-38.97
39.078,-45.09
39.093,-52.17
39.109,-60.15
39.125,-68.39
39.140,-75.69
39.156,-80.6
39.171,-81.76
39.187,-78.28
39.203,-70.1
39.218,-57.96
39.234,-43.21
39.250,-27.48
39.265,-12.22
39.281,1.57
39.296,13.36
39.312,23.05
39.328,30.73
39.343,36.57
39.359,40.69
39.375,43.23
39.390,44.37
39.406,44.39
39.421,43.72
39.437,42.8
39.453,41.97
39.468,41.41
39.484,41.07
39.500,40.82
39.515,40.49
39.531,39.98
39.546,39.24
39.562,38.22
39.578,36.86
39.593,35.03
39.609,32.62
39.625,29.59
39.640,26.01
39.656,22.02
39.671,17.67
39.687,12.93
39.703,7.7
39.718,1.9
39.734,-4.32
39.750,-10.64
39.765,-16.7
39.781,-22.24
39.796,-27.27
39.812,-32.13
39.828,-37.32
39.843,-43.26
39.859,-50.17
39.875,-57.77
39.890,-65.42
39.906,-72.05
39.921,-76.37
39.937,-77.12
39.953,-73.49
39.968,-65.31
39.984,-53.27
40.000,-38.73
40.015,-23.35
40.031,-8.69
40.046,4.19
40.062,14.87
40.078,23.36
40.093,29.9
40.109,34.7
40.125,37.92
40.140,39.66
40.156,40.09
40.171,39.55
40.187,38.47
40.203,37.34
40.218,36.5
40.234,36.07
40.250,35.94
40.265,35.89
40.281,35.69
40.296,35.2
40.312,34.43
40.328,33.46
40.343,32.28
40.359,30.83
40.375,28.95
40.390,26.4
40.406,22.99
40.421,18.67
40.437,13.58
40.453,8.0
40.468,2.31
40.484,-3.16
40.500,-8.19
40.515,-12.78
40.531,-17.04
40.546,-21.28
40.562,-25.77
40.578,-30.79
40.593,-36.57
40.609,-43.16
40.625,-50.42
40.640,-57.86
40.656,-64.59
40.671,-69.38
40.687,-70.88
40.703,-68.05
40.718,-60.52
40.734,-48.77
40.750,-34.06
40.765,-18.08
40.781,-2.49
40.796,11.44
40.812,23.02
40.828,32.16
40.843,39.02
40.859,43.84
40.875,46.81
40.890,48.11
40.906,48.01
40.921,46.95
40.937,45.54
40.953,44.41
40.968,44.06
40.984,44.64
41.000,45.98
41.015,47.68
41.031,49.26
41.046,50.42
41.062,51.02
41.078,51.11
41.093,50.75
41.109,49.96
41.125,48.68
41.140,46.87
41.156,44.57
41.171,41.92
41.187,39.19
41.203,36.59
41.218,34.28
41.234,32.26
41.250,30.42
41.265,28.68
41.281,26.95
41.296,25.18
41.312,23.35
41.328,21.43
41.343,19.44
41.359,17.5
41.375,15.71
41.390,14.22
41.406,13.11
41.421,12.31
41.437,11.69
41.453,11.08
41.468,10.35
41.484,9.4
41.500,8.3
41.515,7.08
41.531,5.79
41.546,4.5
41.562,3.24
41.578,2.03
41.593,0.8
41.609,-0.46
41.625,-1.81
41.640,-3.3
41.656,-4.96
41.671,-6.74
41.687,-8.56
41.703,-10.28
41.718,-11.77
41.734,-12.98
41.750,-14.05
41.765,-15.29
41.781,-17.09
41.796,-19.81
41.812,-23.43
41.828,-27.67
41.843,-31.96
41.859,-35.76
41.875,-38.81
41.890,-41.26
41.906,-43.51
41.921,-46.05
41.937,-49.24
41.953,-53.11
41.968,-57.41
41.984,-61.75
42.000,-65.75
42.015,-69.18
42.031,-72.06
42.046,-74.77
42.062,-77.86
42.078,-82.01
42.093,-87.73
42.109,-95.13
42.125,-103.54
42.140,-111.51
42.156,-117.03
42.171,-117.99
42.187,-112.95
42.203,-101.59
42.218,-84.91
42.234,-64.94
42.250,-44.13
42.265,-24.6
42.281,-7.71
42.296,5.97
42.312,16.46
42.328,24.05
42.343,28.99
42.359,31.55
42.375,32.08
42.390,31.15
42.406,29.56
42.421,28.19
42.437,27.73
42.453,28.48
42.468,30.24
42.484,32.39
42.500,34.2
42.515,35.1
42.531,34.94
42.546,33.98
42.562,32.66
42.578,31.34
42.593,30.1
42.609,28.59
42.625,26.26
42.640,22.62
42.656,17.45
42.671,11.01
42.687,3.86
42.703,-3.34
42.718,-10.05
42.734,-15.99
42.750,-21.24
42.765,-26.06
42.781,-30.85
42.796,-36.04
42.812,-41.99
42.828,-48.81
42.843,-56.27
42.859,-63.6
42.875,-69.54
42.890,-72.64
42.906,-71.57
42.921,-65.72
42.937,-55.35
42.953,-41.65
42.968,-26.35
42.984,-11.25
43.000,2.36
43.015,13.79
43.031,22.98
43.046,30.15
43.062,35.47
43.078,39.03
43.093,40.78
43.109,40.9
43.125,39.76
43.140,38.07
43.156,36.51
43.171,35.55
43.187,35.29
43.203,35.41
43.218,35.51
43.234,35.24
43.250,34.55
43.265,33.59
43.281,32.6
43.296,31.68
43.312,30.55
43.328,28.72
43.343,25.58
43.359,20.77
43.375,14.34
43.390,6.88
43.406,-0.85
43.421,-8.12
43.437,-14.58
43.453,-20.33
43.468,-25.84
43.484,-31.72
43.500,-38.43
43.515,-46.18
43.531,-54.78
43.546,-63.62
43.562,-71.61
43.578,-77.3
43.593,-79.21
43.609,-76.2
43.625,-67.93
43.640,-54.99
43.656,-38.82
43.671,-21.27
43.687,-4.15
43.703,11.23
43.718,24.18
43.734,34.42
43.750,42.0
43.765,47.05
43.781,49.81
43.796,50.6
43.812,49.86
43.828,48.2
43.843,46.27
43.859,44.64
43.875,43.58
43.890,43.07
43.906,42.8
43.921,42.36
43.937,41.38
43.953,39.76
43.968,37.64
43.984,35.26
44.000,32.81
44.015,30.25
44.031,27.41
44.046,23.93
44.062,19.53
44.078,14.13
44.093,7.92
44.109,1.3
44.125,-5.29
44.140,-11.47
44.156,-17.11
44.171,-22.25
44.187,-27.21
44.203,-32.41
44.218,-38.33
44.234,-45.23
44.250,-53.03
44.265,-61.09
44.281,-68.19
44.296,-72.76
44.312,-73.28
44.328,-68.79
44.343,-59.27
44.359,-45.74
44.375,-29.93
44.390,-13.74
44.406,1.29
44.421,14.3
44.437,25.04
44.453,33.63
44.468,40.21
44.484,44.85
44.500,47.52
44.515,48.3
44.531,47.58
44.546,45.97
44.562,44.18
44.578,42.79
44.593,42.0
44.609,41.65
44.625,41.35
44.640,40.7
44.656,39.5
44.671,37.84
44.687,36.02
44.703,34.35
44.718,32.97
44.734,31.66
44.750,29.93
44.765,27.21
44.781,23.14
44.796,17.67
44.812,11.23
44.828,4.42
44.843,-2.12
44.859,-8.06
44.875,-13.41
44.890,-18.45
44.906,-23.54
44.921,-28.99
44.937,-35.05
44.953,-41.77
44.968,-49.05
44.984,-56.42
45.000,-62.95
45.015,-67.3
45.031,-68.02
45.046,-64.03
45.062,-55.13
45.078,-42.18
45.093,-26.84
45.109,-11.06
45.125,3.57
45.140,16.13
45.156,26.31
45.171,34.23
45.187,40.01
45.203,43.64
45.218,45.03
45.234,44.36
45.250,42.11
45.265,39.13
45.281,36.37
45.296,34.52
45.312,33.79
45.328,33.88
45.343,34.24
45.359,34.35
45.375,33.96
45.390,33.15
45.406,32.18
45.421,31.33
45.437,30.55
45.453,29.58
45.468,27.91
45.484,25.09
45.500,20.84
45.515,15.25
45.531,8.73
45.546,1.88
45.562,-4.63
45.578,-10.4
45.593,-15.34
45.609,-19.73
45.625,-24.08
45.640,-28.92
45.656,-34.63
45.671,-41.31
45.687,-48.7
45.703,-56.07
45.718,-62.33
45.734,-66.12
45.750,-66.15
45.765,-61.59
45.781,-52.47
45.796,-39.66
45.812,-24.78
45.828,-9.62
45.843,4.41
45.859,16.53
45.875,26.66
45.890,34.99
45.906,41.65
45.921,46.55
45.937,49.39
45.953,50.09
45.968,48.99
45.984,46.83
46.000,44.54
46.015,42.89
46.031,42.2
46.046,42.28
46.062,42.59
46.078,42.51
46.093,41.68
46.109,39.99
46.125,37.59
46.140,34.74
46.156,31.64
46.171,28.39
46.187,24.95
46.203,21.14
46.218,16.81
46.234,11.91
46.250,6.52
46.265,0.87
46.281,-4.76
46.296,-10.14
46.312,-15.2
46.328,-20.03
46.343,-24.78
46.359,-29.7
46.375,-35.0
46.390,-40.89
46.406,-47.51
46.421,-54.79
46.437,-62.41
46.453,-69.56
46.468,-75.02
46.484,-77.38
46.500,-75.48
46.515,-68.8
46.531,-57.76
46.546,-43.58
46.562,-27.89
46.578,-12.37
46.593,1.77
46.609,13.93
46.625,24.01
46.640,32.18
46.656,38.67
46.671,43.59
46.687,46.95
46.703,48.79
46.718,49.25
46.734,48.65
46.750,47.54
46.765,46.41
46.781,45.7
46.796,45.55
46.812,45.84
46.828,46.24
46.843,46.38
46.859,45.99
46.875,44.93
46.890,43.15
46.906,40.64
46.921,37.38
46.937,33.35
46.953,28.56
46.968,23.18
46.984,17.42
47.000,11.51
47.015,5.64
47.031,-0.15
47.046,-5.85
47.062,-11.46
47.078,-16.98
47.093,-22.35
47.109,-27.48
47.125,-32.32
47.140,-36.94
47.156,-41.53
47.171,-46.4
47.187,-51.87
47.203,-58.05
47.218,-64.69
47.234,-71.02
47.250,-75.79
47.265,-77.59
47.281,-75.25
47.296,-68.3
47.312,-57.23
47.328,-43.29
47.343,-28.13
47.359,-13.23
47.375,0.42
47.390,12.41
47.406,22.72
47.421,31.46
47.437,38.67
47.453,44.25
47.468,48.12
47.484,50.33
47.500,51.21
47.515,51.22
47.531,50.9
47.546,50.55
47.562,50.27
47.578,49.9
47.593,49.21
47.609,48.09
47.625,46.63
47.640,45.08
47.656,43.64
47.671,42.32
47.687,40.83
47.703,38.74
47.718,35.71
47.734,31.67
47.750,26.92
47.765,21.89
47.781,16.97
47.796,12.25
47.812,7.56
47.828,2.56
47.843,-2.97
47.859,-8.97
47.875,-15.11
47.890,-20.9
47.906,-25.99
47.921,-30.3
47.937,-34.01
47.953,-37.58
47.968,-41.47
47.984,-46.05
48.000,-51.5
48.015,-57.84
48.031,-64.83
48.046,-71.91
48.062,-78.21
48.078,-82.5
48.093,-83.56
48.109,-80.47
48.125,-72.97
48.140,-61.58
48.156,-47.52
48.171,-32.3
48.187,-17.26
48.203,-3.39
48.218,8.86
48.234,19.44
48.250,28.46
48.265,35.95
48.281,41.88
48.296,46.16
48.312,48.74
48.328,49.8
48.343,49.7
48.359,48.99
48.375,48.17
48.390,47.53
48.406,47.06
48.421,46.47
48.437,45.47
48.453,43.89
48.468,41.93
48.484,39.89
48.500,38.08
48.515,36.57
48.531,35.07
48.546,33.15
48.562,30.48
48.578,26.97
48.593,22.86
48.609,18.6
48.625,14.55
48.640,10.88
48.656,7.5
48.671,4.09
48.687,0.31
48.703,-4.03
48.718,-8.9
48.734,-14.1
48.750,-19.28
48.765,-24.14
48.781,-28.58
48.796,-32.64
48.812,-36.58
48.828,-40.73
48.843,-45.31
48.859,-50.43
48.875,-56.08
48.890,-62.05
48.906,-67.98
48.921,-73.22
48.937,-76.85
48.953,-77.8
48.968,-75.12
48.984,-68.36
49.000,-57.82
49.015,-44.55
49.031,-30.05
49.046,-15.79
49.062,-2.86
49.078,8.28
49.093,17.64
49.109,25.39
49.125,31.65
49.140,36.35
49.156,39.4
49.171,40.87
49.187,41.07
49.203,40.56
49.218,39.96
49.234,39.73
49.250,40.0
49.265,40.63
49.281,41.29
49.296,41.71
49.312,41.74
49.328,41.36
49.343,40.62
49.359,39.53
49.375,38.01
49.390,35.91
49.406,33.08
49.421,29.48
49.437,25.2
49.453,20.48
49.468,15.74
49.484,11.39
49.500,7.74
49.515,4.89
49.531,2.64
49.546,0.61
49.562,-1.66
49.578,-4.52
49.593,-8.11
49.609,-12.28
49.625,-16.7
49.640,-21.0
49.656,-24.9
49.671,-28.31
49.687,-31.43
49.703,-34.62
49.718,-38.32
49.734,-42.8
49.750,-48.14
49.765,-54.02
49.781,-59.73
49.796,-64.26
49.812,-66.45
49.828,-65.25
49.843,-60.08
49.859,-50.98
49.875,-38.63
49.890,-24.19
49.906,-8.96
49.921,5.87
49.937,19.48
49.953,31.41
49.968,41.47
49.984,49.71
50.000,56.37
50.015,61.8
50.031,66.43
50.046,70.64
50.062,74.62
50.078,78.28
50.093,81.36
50.109,83.53
50.125,84.5
50.140,84.13
50.156,82.46
50.171,79.68
50.187,76.18
50.203,72.45
50.218,69.04
50.234,66.34
50.250,64.52
50.265,63.42
50.281,62.64
50.296,61.82
50.312,60.79
50.328,59.69
50.343,58.79
50.359,58.28
50.375,58.0
50.390,57.42
50.406,55.89
50.421,52.88
50.437,48.33
50.453,42.53
50.468,35.92
50.484,28.64
50.500,20.44
50.515,10.73
50.531,-1.05
50.546,-15.0
50.562,-30.5
50.578,-46.18
50.593,-60.37
50.609,-71.47
50.625,-78.5
50.640,-81.31
50.656,-80.56
50.671,-77.45
50.687,-73.44
50.703,-69.89
50.718,-67.71
50.734,-67.17
50.750,-67.77
50.765,-68.3
50.781,-67.03
50.796,-62.14
50.812,-52.19
50.828,-36.7
50.843,-16.68
50.859,5.6
50.875,26.96
50.890,44.53
50.906,56.55
50.921,63.01
50.937,65.24
50.953,65.06
50.968,63.65
50.984,60.92
51.000,55.84
51.015,47.34
51.031,35.41
51.046,21.42
51.062,7.51
51.078,-4.65
51.093,-15.0
51.109,-25.35
51.125,-38.3
51.140,-55.63
51.156,-77.1
51.171,-100.03
51.187,-120.41
51.203,-134.67
51.218,-141.17
51.234,-140.75
51.250,-136.2
51.265,-130.72
51.281,-126.64
51.296,-124.89
51.312,-125.13
51.328,-126.53
51.343,-128.45
51.359,-130.55
51.375,-132.57
51.390,-133.84
51.406,-133.04
51.421,-128.54
51.437,-119.08
51.453,-104.41
51.468,-85.63
51.484,-64.91
51.500,-44.74
51.515,-27.08
51.531,-12.83
51.546,-1.8
51.562,6.82
51.578,13.89
51.593,19.93
51.609,25.0
51.625,28.88
51.640,31.38
51.656,32.57
51.671,32.78
51.687,32.54
51.703,32.3
51.718,32.3
51.734,32.58
51.750,32.99
51.765,33.26
51.781,33.18
51.796,32.61
51.812,31.53
51.828,29.97
51.843,27.92
51.859,25.33
51.875,22.12
51.890,18.24
51.906,13.66
51.921,8.47
51.937,2.8
51.953,-3.2
51.968,-9.37
51.984,-15.61
52.000,-21.81
52.015,-27.92
52.031,-34.0
52.046,-40.28
52.062,-47.07
52.078,-54.74
52.093,-63.41
52.109,-72.77
52.125,-81.92
52.140,-89.39
52.156,-93.54
52.171,-92.95
52.187,-87.02
52.203,-76.07
52.218,-61.38
52.234,-44.74
52.250,-27.95
52.265,-12.38
52.281,1.26
52.296,12.76
52.312,22.31
52.328,30.08
52.343,36.11
52.359,40.32
52.375,42.63
52.390,43.16
52.406,42.25
52.421,40.56
52.437,38.83
52.453,37.72
52.468,37.55
52.484,38.2
52.500,39.18
52.515,39.89
52.531,39.87
52.546,39.02
52.562,37.55
52.578,35.85
52.593,34.11
52.609,32.21
52.625,29.74
52.640,26.17
52.656,21.08
52.671,14.46
52.687,6.68
52.703,-1.62
52.718,-9.74
52.734,-17.21
52.750,-23.83
52.765,-29.74
52.781,-35.29
52.796,-40.87
52.812,-46.9
52.828,-53.63
52.843,-61.16
52.859,-69.22
52.875,-77.13
52.890,-83.67
52.906,-87.31
52.921,-86.65
52.937,-80.83
52.953,-69.98
52.968,-55.2
52.984,-38.3
53.000,-21.2
53.015,-5.41
53.031,8.27
53.046,19.7
53.062,29.09
53.078,36.76
53.093,42.89
53.109,47.43
53.125,50.31
53.140,51.56
53.156,51.38
53.171,50.24
53.187,48.67
53.203,47.23
53.218,46.3
53.234,45.96
53.250,46.01
53.265,46.07
53.281,45.75
53.296,44.84
53.312,43.35
53.328,41.41
53.343,39.22
53.359,36.86
53.375,34.21
53.390,31.0
53.406,27.04
53.421,22.29
53.437,16.92
53.453,11.29
53.468,5.76
53.484,0.53
53.500,-4.33
53.515,-8.91
53.531,-13.35
53.546,-17.78
53.562,-22.32
53.578,-27.1
53.593,-32.25
53.609,-37.83
53.625,-43.69
53.640,-49.33
53.656,-53.82
53.671,-55.89
53.687,-54.34
53.703,-48.4
53.718,-38.14
53.734,-24.49
53.750,-9.11
53.765,6.16
53.781,19.87
53.796,31.2
53.812,40.06
53.828,46.77
53.843,51.75
53.859,55.24
53.875,57.34
53.890,58.08
53.906,57.74
53.921,56.75
53.937,55.72
53.953,55.07
53.968,54.93
53.984,55.1
54.000,55.13
54.015,54.67
54.031,53.57
54.046,52.0
54.062,50.27
54.078,48.6
54.093,46.97
54.109,45.07
54.125,42.46
54.140,38.74
54.156,33.84
54.171,28.0
54.187,21.72
54.203,15.54
54.218,9.8
54.234,4.51
54.250,-0.6
54.265,-6.06
54.281,-12.4
54.296,-19.99
54.312,-29.0
54.328,-39.2
54.343,-50.04
54.359,-60.48
54.375,-69.12
54.390,-74.48
54.406,-75.31
54.421,-70.95
54.437,-61.69
54.453,-48.66
54.468,-33.56
54.484,-18.23
54.500,-4.23
54.515,7.37
54.531,15.99
54.546,21.48
54.562,24.05
54.578,24.07
54.593,22.1
54.609,18.86
54.625,15.09
54.640,11.5
54.656,8.57
54.671,6.5
54.687,5.21
54.703,4.43
54.718,3.85
54.734,3.25
54.750,2.6
54.765,1.94
54.781,1.3
54.796,0.49
54.812,-0.84
54.828,-3.11
54.843,-6.62
54.859,-11.32
54.875,-16.86
54.890,-22.64
54.906,-28.11
54.921,-32.89
54.937,-36.94
54.953,-40.52
54.968,-44.02
54.984,-47.88
55.000,-52.34
55.015,-57.35
55.031,-62.41
55.046,-66.66
55.062,-68.92
55.078,-68.1
55.093,-63.43
55.109,-54.83
55.125,-42.89
55.140,-28.78
55.156,-13.92
55.171,0.34
55.187,12.98
55.203,23.42
55.218,31.44
55.234,37.15
55.250,40.78
55.265,42.67
55.281,43.12
55.296,42.42
55.312,40.87
55.328,38.87
55.343,36.95
55.359,35.66
55.375,35.39
55.390,36.07
55.406,37.19
55.421,37.97
55.437,37.71
55.453,36.09
55.468,33.28
55.484,29.67
55.500,25.55
55.515,20.88
55.531,15.37
55.546,8.8
55.562,1.3
55.578,-6.55
55.593,-13.96
55.609,-20.34
55.625,-25.61
55.640,-30.17
55.656,-34.72
55.671,-39.81
55.687,-45.54
55.703,-51.42
55.718,-56.47
55.734,-59.49
55.750,-59.38
55.765,-55.46
55.781,-47.66
55.796,-36.57
55.812,-23.27
55.828,-9.09
55.843,4.78
55.859,17.45
55.875,28.48
55.890,37.76
55.906,45.31
55.921,51.19
55.937,55.36
55.953,57.82
55.968,58.69
55.984,58.23
56.000,56.85
56.015,54.97
56.031,52.95
56.046,50.92
56.062,48.86
56.078,46.65
56.093,44.24
56.109,41.68
56.125,39.15
56.140,36.86
56.156,34.91
56.171,33.29
56.187,31.78
56.203,30.02
56.218,27.59
56.234,24.23
56.250,19.88
56.265,14.74
56.281,9.18
56.296,3.62
56.312,-1.62
56.328,-6.45
56.343,-10.96
56.359,-15.42
56.375,-20.1
56.390,-25.19
56.406,-30.73
56.421,-36.64
56.437,-42.6
56.453,-48.05
56.468,-52.17
56.484,-53.99
56.500,-52.68
56.515,-47.82
56.531,-39.67
56.546,-29.14
56.562,-17.6
56.578,-6.43
56.593,3.33
56.609,11.21
56.625,17.29
56.640,21.93
56.656,25.54
56.671,28.37
56.687,30.52
56.703,31.99
56.718,32.79
56.734,33.0
56.750,32.76
56.765,32.24
56.781,31.53
56.796,30.72
56.812,29.91
56.828,29.18
56.843,28.63
56.859,28.24
56.875,27.89
56.890,27.35
56.906,26.4
56.921,24.9
56.937,22.82
56.953,20.27
56.968,17.4
56.984,14.28
57.000,10.94
57.015,7.36
57.031,3.59
57.046,-0.27
57.062,-4.03
57.078,-7.52
57.093,-10.63
57.109,-13.43
57.125,-16.09
57.140,-18.92
57.156,-22.22
57.171,-26.22
57.187,-30.93
57.203,-36.06
57.218,-41.0
57.234,-44.84
57.250,-46.68
57.265,-45.68
57.281,-41.52
57.296,-34.43
57.312,-25.16
57.328,-14.79
57.343,-4.41
57.359,5.05
57.375,13.04
57.390,19.31
57.406,23.92
57.421,27.01
57.437,28.77
57.453,29.43
57.468,29.22
57.484,28.41
57.500,27.3
57.515,26.22
57.531,25.43
57.546,25.05
57.562,25.03
57.578,25.18
57.593,25.25
57.609,25.06
57.625,24.56
57.640,23.81
57.656,22.94
57.671,21.96
57.687,20.8
57.703,19.38
57.718,17.58
57.734,15.4
57.750,12.92
57.765,10.29
57.781,7.66
57.796,5.08
57.812,2.55
57.828,0.01
57.843,-2.59
57.859,-5.25
57.875,-7.93
57.890,-10.59
57.906,-13.19
57.921,-15.77
57.937,-18.45
57.953,-21.41
57.968,-24.8
57.984,-28.7
58.000,-32.95
58.015,-37.12
58.031,-40.49
58.046,-42.26
58.062,-41.7
58.078,-38.38
58.093,-32.36
58.109,-24.16
58.125,-14.66
58.140,-4.88
58.156,4.23
58.171,11.97
58.187,17.96
58.203,22.16
58.218,24.8
58.234,26.2
58.250,26.81
58.265,26.92
58.281,26.77
58.296,26.53
58.312,26.26
58.328,26.03
58.343,25.86
58.359,25.81
58.375,25.85
58.390,25.99
58.406,26.13
58.421,26.19
58.437,26.04
58.453,25.51
58.468,24.44
58.484,22.71
58.500,20.33
58.515,17.4
58.531,14.15
58.546,10.86
58.562,7.67
58.578,4.63
58.593,1.65
58.609,-1.38
58.625,-4.46
58.640,-7.48
58.656,-10.32
58.671,-12.83
58.687,-14.93
58.703,-16.71
58.718,-18.3
58.734,-19.89
58.750,-21.73
58.765,-23.97
58.781,-26.72
58.796,-29.99
58.812,-33.5
58.828,-36.64
58.843,-38.64
58.859,-38.69
58.875,-36.3
58.890,-31.48
58.906,-24.73
58.921,-16.92
58.937,-9.0
58.953,-1.78
58.968,4.3
58.984,9.04
59.000,12.49
59.015,14.74
59.031,15.87
59.046,16.01
59.062,15.32
59.078,14.06
59.093,12.62
59.109,11.37
59.125,10.61
59.140,10.51
59.156,11.03
59.171,11.9
59.187,12.85
59.203,13.64
59.218,14.11
59.234,14.25
59.250,14.06
59.265,13.49
59.281,12.54
59.296,11.16
59.312,9.32
59.328,7.11
59.343,4.62
59.359,2.01
59.375,-0.61
59.390,-3.15
59.406,-5.6
59.421,-7.98
59.437,-10.3
59.453,-12.59
59.468,-14.8
59.484,-16.86
59.500,-18.74
59.515,-20.49
59.531,-22.28
59.546,-24.32
59.562,-26.73
59.578,-29.32
59.593,-31.64
59.609,-32.89
59.625,-32.33
59.640,-29.48
59.656,-24.28
59.671,-17.28
59.687,-9.35
59.703,-1.43
59.718,5.71
59.734,11.61
59.750,16.12
59.765,19.24
59.781,21.07
59.796,21.72
59.812,21.37
59.828,20.35
59.843,19.07
59.859,18.03
59.875,17.56
59.890,17.78
59.906,18.54
59.921,19.53
59.937,20.52
59.953,21.35
59.968,22.06
59.984,22.71
