timestamp,value
00.000,-123.63
00.015,-120.99
00.031,-117.32
00.046,-112.54
00.062,-106.85
00.078,-100.71
00.093,-94.38
00.109,-88.08
00.125,-82.13
00.140,-77.17
00.156,-73.64
00.171,-72.41
00.187,-74.43
00.203,-79.55
00.218,-88.45
00.234,-100.88
00.250,-116.08
00.265,-133.06
00.281,-150.92
00.296,-168.87
00.312,-186.41
00.328,-203.29
00.343,-219.71
00.359,-236.41
00.375,-253.97
00.390,-271.91
00.406,-287.74
00.421,-296.47
00.437,-292.12
00.453,-270.39
00.468,-231.14
00.484,-179.46
00.500,-124.46
00.515,-75.82
00.531,-40.49
00.546,-20.52
00.562,-12.9
00.578,-12.17
00.593,-12.92
00.609,-11.77
00.625,-7.68
00.640,-1.15
00.656,7.25
00.671,17.91
00.687,29.89
00.703,43.68
00.718,59.91
00.734,78.89
00.750,100.11
00.765,122.79
00.781,146.24
00.796,170.15
00.812,194.18
00.828,217.17
00.843,236.88
00.859,250.06
00.875,253.97
00.890,248.19
00.906,235.45
00.921,220.5
00.937,207.54
00.953,197.64
00.968,187.58
00.984,171.49
01.000,143.51
01.015,100.9
01.031,45.68
01.046,-15.99
01.062,-76.1
01.078,-127.58
01.093,-166.29
01.109,-191.68
01.125,-205.61
01.140,-210.71
01.156,-208.55
01.171,-198.82
01.187,-180.26
01.203,-152.67
01.218,-118.77
01.234,-84.19
01.250,-55.45
01.265,-36.38
01.281,-25.92
01.296,-18.51
01.312,-7.34
01.328,11.43
01.343,36.2
01.359,60.87
01.375,78.33
01.390,84.64
01.406,81.12
01.421,73.15
01.437,66.81
01.453,65.39
01.468,67.86
01.484,69.85
01.500,66.48
01.515,55.03
01.531,36.39
01.546,14.41
01.562,-6.19
01.578,-21.86
01.593,-31.6
01.609,-36.77
01.625,-40.13
01.640,-44.82
01.656,-53.82
01.671,-70.2
01.687,-96.89
01.703,-135.59
01.718,-184.99
01.734,-239.53
01.750,-289.9
01.765,-325.86
01.781,-339.93
01.796,-330.36
01.812,-301.46
01.828,-261.21
01.843,-217.75
01.859,-176.56
01.875,-139.98
01.890,-108.7
01.906,-83.53
01.921,-66.18
01.937,-58.26
01.953,-59.51
01.968,-66.66
01.984,-74.01
02.000,-75.61
02.015,-67.99
02.031,-51.67
02.046,-30.77
02.062,-10.78
02.078,4.26
02.093,13.77
02.109,21.05
02.125,31.32
02.140,49.43
02.156,77.87
02.171,116.48
02.187,162.9
02.203,213.43
02.218,263.05
02.234,304.84
02.250,330.69
02.265,333.75
02.281,312.29
02.296,272.4
02.312,226.86
02.328,189.47
02.343,167.82
02.359,158.82
02.375,150.37
02.390,129.07
02.406,88.96
02.421,36.17
02.437,-13.67
02.453,-43.74
02.468,-44.67
02.484,-18.13
02.500,26.25
02.515,77.72
02.531,130.05
02.546,182.21
02.562,234.9
02.578,285.73
02.593,327.46
02.609,350.53
02.625,347.89
02.640,319.1
02.656,270.84
02.671,213.91
02.687,158.3
02.703,109.69
02.718,68.71
02.734,32.46
02.750,-2.51
02.765,-38.17
02.781,-74.47
02.796,-110.07
02.812,-143.38
02.828,-173.33
02.843,-199.52
02.859,-222.05
02.875,-241.28
02.890,-257.48
02.906,-270.9
02.921,-281.8
02.937,-290.55
02.953,-297.69
02.968,-303.76
02.984,-309.06
03.000,-313.23
03.015,-315.12
03.031,-312.88
03.046,-304.65
03.062,-289.34
03.078,-267.15
03.093,-239.67
03.109,-209.37
03.125,-178.75
03.140,-149.65
03.156,-122.95
03.171,-98.75
03.187,-76.71
03.203,-56.34
03.218,-37.07
03.234,-18.33
03.250,0.47
03.265,19.79
03.281,39.88
03.296,60.75
03.312,82.19
03.328,104.04
03.343,126.29
03.359,149.14
03.375,173.02
03.390,198.67
03.406,227.05
03.421,259.1
03.437,295.25
03.453,334.62
03.468,374.43
03.484,409.95
03.500,435.18
03.515,444.4
03.531,433.9
03.546,403.03
03.562,354.33
03.578,292.32
03.593,222.05
03.609,148.01
03.625,73.9
03.640,3.17
03.656,-60.61
03.671,-114.05
03.687,-155.23
03.703,-184.97
03.718,-207.18
03.734,-227.49
03.750,-250.65
03.765,-278.03
03.781,-306.57
03.796,-330.09
03.812,-342.28
03.828,-339.75
03.843,-323.64
03.859,-298.85
03.875,-271.72
03.890,-247.36
03.906,-227.99
03.921,-213.1
03.937,-200.76
03.953,-189.13
03.968,-177.43
03.984,-165.84
04.000,-154.65
04.015,-143.52
04.031,-131.13
04.046,-115.64
04.062,-95.46
04.078,-70.01
04.093,-39.87
04.109,-6.48
04.125,28.66
04.140,64.43
04.156,100.21
04.171,135.42
04.187,169.0
04.203,199.13
04.218,223.51
04.234,240.09
04.250,247.84
04.265,247.26
04.281,240.18
04.296,229.2
04.312,216.99
04.328,205.66
04.343,196.6
04.359,190.39
04.375,186.95
04.390,185.47
04.406,184.37
04.421,181.46
04.437,174.36
04.453,161.3
04.468,141.96
04.484,117.9
04.500,92.34
04.515,69.07
04.531,51.08
04.546,39.57
04.562,33.61
04.578,30.74
04.593,28.19
04.609,23.99
04.625,17.73
04.640,10.52
04.656,4.46
04.671,1.62
04.687,3.1
04.703,8.43
04.718,15.57
04.734,21.6
04.750,23.83
04.765,20.78
04.781,12.76
04.796,1.59
04.812,-10.39
04.828,-21.31
04.843,-30.51
04.859,-38.33
04.875,-45.5
04.890,-52.29
04.906,-58.16
04.921,-61.99
04.937,-62.68
04.953,-59.85
04.968,-54.17
04.984,-47.08
05.000,-40.18
05.015,-34.53
05.031,-30.26
05.046,-26.71
05.062,-22.91
05.078,-18.14
05.093,-12.39
05.109,-6.3
05.125,-0.82
05.140,3.25
05.156,5.65
05.171,6.73
05.187,7.26
05.203,8.04
05.218,9.63
05.234,12.09
05.250,15.01
05.265,17.76
05.281,19.77
05.296,20.75
05.312,20.76
05.328,20.12
05.343,19.05
05.359,17.64
05.375,15.63
05.390,12.69
05.406,8.57
05.421,3.35
05.437,-2.53
05.453,-8.34
05.468,-13.32
05.484,-16.99
05.500,-19.22
05.515,-20.38
05.531,-21.03
05.546,-21.76
05.562,-22.92
05.578,-24.6
05.593,-26.59
05.609,-28.62
05.625,-30.44
05.640,-31.93
05.656,-33.04
05.671,-33.74
05.687,-34.0
05.703,-33.78
05.718,-33.09
05.734,-31.95
05.750,-30.35
05.765,-28.18
05.781,-25.09
05.796,-20.66
05.812,-14.51
05.828,-6.65
05.843,2.34
05.859,11.31
05.875,18.91
05.890,24.03
05.906,26.33
05.921,26.38
05.937,25.4
05.953,24.76
05.968,25.36
05.984,27.24
06.000,29.7
06.015,31.72
06.031,32.47
06.046,31.68
06.062,29.62
06.078,26.85
06.093,23.79
06.109,20.54
06.125,16.95
06.140,12.85
06.156,8.23
06.171,3.37
06.187,-1.23
06.203,-5.04
06.218,-7.69
06.234,-9.08
06.250,-9.33
06.265,-8.81
06.281,-7.96
06.296,-7.29
06.312,-7.22
06.328,-7.97
06.343,-9.45
06.359,-11.2
06.375,-12.45
06.390,-12.31
06.406,-10.03
06.421,-5.22
06.437,2.01
06.453,11.11
06.468,21.28
06.484,31.76
06.500,41.98
06.515,51.75
06.531,61.26
06.546,70.8
06.562,80.68
06.578,90.95
06.593,101.18
06.609,110.45
06.625,117.39
06.640,120.6
06.656,119.23
06.671,113.45
06.687,104.63
06.703,94.83
06.718,85.92
06.734,78.67
06.750,72.44
06.765,65.48
06.781,55.97
06.796,42.94
06.812,26.72
06.828,8.76
06.843,-9.03
06.859,-25.09
06.875,-38.64
06.890,-49.72
06.906,-58.85
06.921,-66.52
06.937,-72.79
06.953,-77.17
06.968,-78.76
06.984,-76.71
07.000,-70.83
07.015,-62.11
07.031,-52.51
07.046,-44.29
07.062,-38.91
07.078,-36.28
07.093,-34.6
07.109,-31.13
07.125,-23.12
07.140,-8.64
07.156,13.09
07.171,41.49
07.187,74.53
07.203,108.45
07.218,137.99
07.234,157.21
07.250,161.12
07.265,147.4
07.281,117.58
07.296,76.92
07.312,32.88
07.328,-7.24
07.343,-38.42
07.359,-59.16
07.375,-71.16
07.390,-78.03
07.406,-83.54
07.421,-90.26
07.437,-99.01
07.453,-109.22
07.468,-119.8
07.484,-129.94
07.500,-139.43
07.515,-148.38
07.531,-156.41
07.546,-162.27
07.562,-164.16
07.578,-160.67
07.593,-151.9
07.609,-139.87
07.625,-127.75
07.640,-118.17
07.656,-111.71
07.671,-106.25
07.687,-97.55
07.703,-81.14
07.718,-54.36
07.734,-17.86
07.750,24.16
07.765,65.01
07.781,97.6
07.796,116.89
07.812,121.92
07.828,116.5
07.843,107.91
07.859,103.88
07.875,109.11
07.890,123.22
07.906,140.93
07.921,155.01
07.937,160.0
07.953,154.67
07.968,141.81
07.984,125.8
08.000,110.04
08.015,96.08
08.031,84.57
08.046,76.6
08.062,74.15
08.078,78.62
08.093,88.52
08.109,98.42
08.125,100.66
08.140,89.55
08.156,65.26
08.171,34.63
08.187,8.06
08.203,-5.96
08.218,-5.51
08.234,4.28
08.250,14.51
08.265,17.73
08.281,11.73
08.296,-0.4
08.312,-13.22
08.328,-22.7
08.343,-28.25
08.359,-32.31
08.375,-37.96
08.390,-47.15
08.406,-60.72
08.421,-79.62
08.437,-105.89
08.453,-141.67
08.468,-186.76
08.484,-236.62
08.500,-282.83
08.515,-316.04
08.531,-330.19
08.546,-325.36
08.562,-307.35
08.578,-284.67
08.593,-264.22
08.609,-248.48
08.625,-235.5
08.640,-221.09
08.656,-201.59
08.671,-175.55
08.687,-143.69
08.703,-107.72
08.718,-69.24
08.734,-29.3
08.750,11.21
08.765,51.01
08.781,88.56
08.796,122.47
08.812,152.04
08.828,177.4
08.843,199.03
08.859,216.9
08.875,230.21
08.890,237.74
08.906,238.82
08.921,234.35
08.937,226.93
08.953,219.93
08.968,216.23
08.984,217.15
09.000,222.09
09.015,229.42
09.031,237.33
09.046,244.51
09.062,249.97
09.078,252.42
09.093,249.68
09.109,238.9
09.125,217.6
09.140,185.09
09.156,143.32
09.171,96.71
09.187,50.72
09.203,9.96
09.218,-23.23
09.234,-49.09
09.250,-69.5
09.265,-86.62
09.281,-101.67
09.296,-114.63
09.312,-124.83
09.328,-131.86
09.343,-136.24
09.359,-139.47
09.375,-143.26
09.390,-148.81
09.406,-156.26
09.421,-164.73
09.437,-172.72
09.453,-178.65
09.468,-181.42
09.484,-180.66
09.500,-176.95
09.515,-171.66
09.531,-166.55
09.546,-163.33
09.562,-163.06
09.578,-165.83
09.593,-170.77
09.609,-176.46
09.625,-181.48
09.640,-184.89
09.656,-186.49
09.671,-186.69
09.687,-186.28
09.703,-186.0
09.718,-186.44
09.734,-187.96
09.750,-190.72
09.765,-194.44
09.781,-198.11
09.796,-199.8
09.812,-196.68
09.828,-185.74
09.843,-164.99
09.859,-134.69
09.875,-97.98
09.890,-60.19
09.906,-27.16
09.921,-2.97
09.937,11.62
09.953,19.41
09.968,25.35
09.984,34.24
10.000,48.64
10.015,68.05
10.031,89.73
10.046,110.49
10.062,128.56
10.078,144.38
10.093,160.11
10.109,178.1
10.125,199.41
10.140,223.13
10.156,246.78
10.171,267.39
10.187,282.57
10.203,291.11
10.218,293.03
10.234,289.1
10.250,280.42
10.265,268.34
10.281,254.54
10.296,240.93
10.312,229.43
10.328,221.48
10.343,217.47
10.359,216.49
10.375,216.53
10.390,215.12
10.406,210.13
10.421,200.51
10.437,186.48
10.453,169.28
10.468,150.46
10.484,131.18
10.500,111.87
10.515,92.26
10.531,71.76
10.546,49.95
10.562,26.82
10.578,2.74
10.593,-21.69
10.609,-45.95
10.625,-69.62
10.640,-92.52
10.656,-114.59
10.671,-135.84
10.687,-156.13
10.703,-175.15
10.718,-192.38
10.734,-207.15
10.750,-218.86
10.765,-227.08
10.781,-231.56
10.796,-232.22
10.812,-229.06
10.828,-222.24
10.843,-212.31
10.859,-200.35
10.875,-187.95
10.890,-176.94
10.906,-168.79
10.921,-164.16
10.937,-162.66
10.953,-162.99
10.968,-163.51
10.984,-162.9
11.000,-160.6
11.015,-157.06
11.031,-153.39
11.046,-150.93
11.062,-150.68
11.078,-153.02
11.093,-157.58
11.109,-163.27
11.125,-168.5
11.140,-171.25
11.156,-169.39
11.171,-161.01
11.187,-144.94
11.203,-121.0
11.218,-89.88
11.234,-52.74
11.250,-10.73
11.265,35.17
11.281,83.75
11.296,132.73
11.312,178.34
11.328,215.64
11.343,239.69
11.359,247.23
11.375,237.94
11.390,214.92
11.406,183.9
11.421,151.78
11.437,124.91
11.453,107.71
11.468,101.99
11.484,106.86
11.500,119.27
11.515,134.76
11.531,148.54
11.546,156.55
11.562,156.4
11.578,147.92
11.593,132.96
11.609,114.65
11.625,96.26
11.640,80.04
11.656,66.69
11.671,55.37
11.687,44.44
11.703,32.41
11.718,18.6
11.734,3.3
11.750,-12.65
11.765,-28.4
11.781,-43.34
11.796,-57.13
11.812,-69.36
11.828,-79.48
11.843,-87.09
11.859,-92.18
11.875,-95.37
11.890,-97.63
11.906,-99.83
11.921,-102.41
11.937,-105.32
11.953,-108.16
11.968,-110.48
11.984,-111.83
12.000,-111.73
12.015,-109.75
12.031,-105.85
12.046,-100.71
12.062,-95.75
12.078,-92.48
12.093,-91.52
12.109,-91.88
12.125,-90.93
12.140,-85.45
12.156,-72.87
12.171,-52.29
12.187,-24.65
12.203,7.85
12.218,42.65
12.234,77.37
12.250,110.02
12.265,138.86
12.281,162.31
12.296,179.18
12.312,188.95
12.328,191.99
12.343,189.43
12.359,182.8
12.375,173.53
12.390,162.69
12.406,151.01
12.421,139.05
12.437,127.35
12.453,116.49
12.468,106.97
12.484,98.95
12.500,92.1
12.515,85.67
12.531,78.73
12.546,70.55
12.562,60.94
12.578,50.25
12.593,39.23
12.609,28.69
12.625,19.21
12.640,10.97
12.656,3.85
12.671,-2.39
12.687,-7.98
12.703,-12.95
12.718,-17.21
12.734,-20.72
12.750,-23.6
12.765,-26.19
12.781,-28.87
12.796,-31.79
12.812,-34.77
12.828,-37.37
12.843,-39.1
12.859,-39.84
12.875,-39.83
12.890,-39.59
12.906,-39.58
12.921,-39.94
12.937,-40.49
12.953,-40.9
12.968,-40.92
12.984,-40.53
13.000,-39.93
13.015,-39.48
13.031,-39.5
13.046,-40.25
13.062,-41.72
13.078,-43.59
13.093,-45.35
13.109,-46.45
13.125,-46.62
13.140,-46.05
13.156,-45.24
13.171,-44.71
13.187,-44.65
13.203,-44.71
13.218,-43.97
13.234,-41.09
13.250,-34.38
13.265,-22.06
13.281,-2.56
13.296,24.84
13.312,59.42
13.328,98.77
13.343,139.06
13.359,175.94
13.375,205.75
13.390,226.24
13.406,236.89
13.421,238.45
13.437,232.51
13.453,220.99
13.468,206.0
13.484,189.72
13.500,174.03
13.515,160.06
13.531,147.79
13.546,135.98
13.562,122.75
13.578,106.13
13.593,84.59
13.609,57.11
13.625,23.18
13.640,-16.98
13.656,-61.98
13.671,-108.9
13.687,-153.5
13.703,-191.23
13.718,-218.67
13.734,-234.79
13.750,-241.05
13.765,-240.55
13.781,-236.26
13.796,-229.83
13.812,-221.31
13.828,-209.89
13.843,-195.06
13.859,-177.27
13.875,-157.62
13.890,-137.14
13.906,-116.08
13.921,-93.99
13.937,-70.43
13.953,-45.98
13.968,-22.62
13.984,-3.25
14.000,9.43
14.015,14.23
14.031,12.05
14.046,5.55
14.062,-1.96
14.078,-7.87
14.093,-11.01
14.109,-11.59
14.125,-10.45
14.140,-8.05
14.156,-3.99
14.171,2.79
14.187,13.22
14.203,27.34
14.218,43.91
14.234,60.8
14.250,75.76
14.265,87.16
14.281,94.46
14.296,98.01
14.312,98.65
14.328,97.22
14.343,94.28
14.359,89.99
14.375,84.32
14.390,77.11
14.406,68.3
14.421,57.95
14.437,46.29
14.453,33.65
14.468,20.4
14.484,6.79
14.500,-7.0
14.515,-20.8
14.531,-34.27
14.546,-46.8
14.562,-57.61
14.578,-66.03
14.593,-71.83
14.609,-75.32
14.625,-77.42
14.640,-79.13
14.656,-81.28
14.671,-84.17
14.687,-87.61
14.703,-91.21
14.718,-94.69
14.734,-98.12
14.750,-101.9
14.765,-106.38
14.781,-111.57
14.796,-116.9
14.812,-121.26
14.828,-123.46
14.843,-122.57
14.859,-118.26
14.875,-110.85
14.890,-101.05
14.906,-89.62
14.921,-77.2
14.937,-64.28
14.953,-51.38
14.968,-39.16
14.984,-28.39
15.000,-19.71
15.015,-13.28
15.031,-8.71
15.046,-5.23
15.062,-2.08
15.078,1.11
15.093,4.16
15.109,6.56
15.125,7.86
15.140,7.99
15.156,7.4
15.171,6.82
15.187,6.87
15.203,7.79
15.218,9.37
15.234,11.02
15.250,12.04
15.265,11.87
15.281,10.22
15.296,7.13
15.312,3.06
15.328,-1.28
15.343,-5.13
15.359,-7.92
15.375,-9.51
15.390,-10.33
15.406,-11.14
15.421,-12.8
15.437,-15.8
15.453,-20.15
15.468,-25.27
15.484,-30.15
15.500,-33.53
15.515,-34.19
15.531,-31.09
15.546,-23.66
15.562,-11.94
15.578,3.39
15.593,21.1
15.609,39.7
15.625,57.76
15.640,74.24
15.656,88.48
15.671,100.25
15.687,109.6
15.703,116.63
15.718,121.64
15.734,125.05
15.750,127.41
15.765,129.3
15.781,131.11
15.796,132.92
15.812,134.5
15.828,135.43
15.843,135.33
15.859,134.04
15.875,131.73
15.890,128.75
15.906,125.4
15.921,121.79
15.937,117.82
15.953,113.27
15.968,108.08
15.984,102.4
16.000,96.69
16.015,91.45
16.031,87.07
16.046,83.61
16.062,80.62
16.078,77.17
16.093,72.0
16.109,63.81
16.125,51.61
16.140,35.14
16.156,15.09
16.171,-6.93
16.187,-28.64
16.203,-47.76
16.218,-62.59
16.234,-72.51
16.250,-78.05
16.265,-80.51
16.281,-81.27
16.296,-81.25
16.312,-80.63
16.328,-79.2
16.343,-76.83
16.359,-73.86
16.375,-71.01
16.390,-68.96
16.406,-67.91
16.421,-67.3
16.437,-66.13
16.453,-63.53
16.468,-59.32
16.484,-54.08
16.500,-48.73
16.515,-44.02
16.531,-40.32
16.546,-37.63
16.562,-35.97
16.578,-35.67
16.593,-37.21
16.609,-40.78
16.625,-45.77
16.640,-50.66
16.656,-53.37
16.671,-52.1
16.687,-46.23
16.703,-36.66
16.718,-25.57
16.734,-15.36
16.750,-7.6
16.765,-2.43
16.781,1.28
16.796,5.17
16.812,10.45
16.828,17.58
16.843,26.28
16.859,35.95
16.875,46.0
16.890,55.96
16.906,65.14
16.921,72.56
16.937,77.19
16.953,78.38
16.968,76.63
16.984,73.4
17.000,70.54
17.015,69.59
17.031,71.18
17.046,74.88
17.062,79.5
17.078,83.58
17.093,85.93
17.109,86.63
17.125,86.57
17.140,87.18
17.156,89.76
17.171,94.74
17.187,101.21
17.203,107.16
17.218,110.15
17.234,108.24
17.250,101.88
17.265,93.18
17.281,85.17
17.296,80.59
17.312,80.58
17.328,84.24
17.343,89.17
17.359,92.62
17.375,92.86
17.390,91.44
17.406,92.07
17.421,99.62
17.437,118.17
17.453,149.19
17.468,190.64
17.484,237.7
17.500,284.37
17.515,317.51
17.531,327.45
17.546,309.47
17.562,265.84
17.578,205.14
17.593,138.63
17.609,75.72
17.625,21.81
17.640,-21.58
17.656,-54.94
17.671,-78.12
17.687,-91.17
17.703,-94.77
17.718,-90.77
17.734,-82.25
17.750,-72.9
17.765,-64.78
17.781,-59.85
17.796,-58.66
17.812,-59.88
17.828,-61.84
17.843,-63.23
17.859,-63.37
17.875,-62.27
17.890,-60.66
17.906,-59.15
17.921,-58.21
17.937,-57.96
17.953,-58.07
17.968,-58.44
17.984,-59.51
18.000,-62.61
18.015,-67.09
18.031,-73.56
18.046,-82.25
18.062,-92.32
18.078,-101.61
18.093,-107.2
18.109,-107.09
18.125,-101.21
18.140,-91.61
18.156,-81.53
18.171,-74.23
18.187,-71.19
18.203,-71.92
18.218,-74.74
18.234,-78.05
18.250,-81.33
18.265,-85.06
18.281,-90.02
18.296,-96.43
18.312,-104.09
18.328,-112.49
18.343,-121.66
18.359,-132.73
18.375,-147.83
18.390,-169.26
18.406,-198.3
18.421,-233.99
18.437,-272.64
18.453,-308.65
18.468,-336.1
18.484,-350.61
18.500,-350.93
18.515,-339.27
18.531,-320.34
18.546,-299.66
18.562,-281.8
18.578,-269.43
18.593,-263.04
18.609,-261.15
18.625,-260.87
18.640,-258.77
18.656,-251.93
18.671,-238.92
18.687,-220.51
18.703,-199.34
18.718,-178.74
18.734,-161.04
18.750,-146.24
18.765,-132.08
18.781,-115.23
18.796,-93.03
18.812,-64.84
18.828,-32.14
18.843,2.46
18.859,36.49
18.875,68.51
18.890,98.12
18.906,125.53
18.921,150.97
18.937,174.65
18.953,197.32
18.968,220.5
18.984,246.42
19.000,276.9
19.015,311.92
19.031,348.56
19.046,381.18
19.062,402.87
19.078,407.81
19.093,393.47
19.109,361.6
19.125,317.84
19.140,269.89
19.156,225.14
19.171,188.68
19.187,162.43
19.203,145.33
19.218,134.59
19.234,126.74
19.250,118.38
19.265,106.26
19.281,87.28
19.296,58.88
19.312,20.06
19.328,-27.84
19.343,-80.8
19.359,-133.19
19.375,-179.65
19.390,-216.82
19.406,-243.98
19.421,-262.46
19.437,-274.3
19.453,-281.01
19.468,-283.47
19.484,-282.51
19.500,-279.51
19.515,-276.37
19.531,-274.67
19.546,-274.64
19.562,-274.82
19.578,-272.82
19.593,-266.68
19.609,-255.98
19.625,-242.16
19.640,-227.8
19.656,-215.34
19.671,-205.86
19.687,-198.43
19.703,-190.3
19.718,-177.75
19.734,-157.25
19.750,-126.67
19.765,-85.96
19.781,-37.32
19.796,15.5
19.812,68.32
19.828,117.8
19.843,162.02
19.859,200.26
19.875,232.12
19.890,256.65
19.906,272.33
19.921,277.72
19.937,272.82
19.953,259.63
19.968,241.73
19.984,222.68
20.000,204.45
20.015,186.66
20.031,167.46
20.046,145.55
20.062,121.96
20.078,100.45
20.093,85.83
20.109,81.37
20.125,86.84
20.140,98.55
20.156,111.34
20.171,121.1
20.187,126.09
20.203,126.27
20.218,121.78
20.234,111.89
20.250,95.48
20.265,72.64
20.281,45.73
20.296,19.06
20.312,-2.87
20.328,-17.34
20.343,-24.21
20.359,-25.02
20.375,-21.1
20.390,-12.11
20.406,3.94
20.421,28.85
20.437,62.24
20.453,99.89
20.468,134.06
20.484,155.76
20.500,158.85
20.515,143.28
20.531,116.07
20.546,89.02
20.562,73.08
20.578,72.37
20.593,81.25
20.609,86.79
20.625,75.59
20.640,41.29
20.656,-11.81
20.671,-71.26
20.687,-122.62
20.703,-156.49
20.718,-171.27
20.734,-171.31
20.750,-162.08
20.765,-145.95
20.781,-121.64
20.796,-87.14
20.812,-43.32
20.828,4.35
20.843,47.62
20.859,79.21
20.875,96.28
20.890,101.17
20.906,99.04
20.921,93.97
20.937,86.08
20.953,71.39
20.968,44.61
20.984,3.07
21.000,-49.96
21.015,-105.89
21.031,-154.32
21.046,-187.38
21.062,-202.7
21.078,-202.82
21.093,-191.92
21.109,-172.5
21.125,-144.33
21.140,-105.98
21.156,-58.13
21.171,-5.66
21.187,43.44
21.203,81.6
21.218,106.16
21.234,121.64
21.250,138.11
21.265,166.39
21.281,212.52
21.296,274.21
21.312,341.39
21.328,399.98
21.343,437.22
21.359,446.09
21.375,426.9
21.390,386.01
21.406,332.09
21.421,272.54
21.437,211.44
21.453,150.09
21.468,89.19
21.484,30.94
21.500,-20.22
21.515,-59.34
21.531,-83.8
21.546,-95.21
21.562,-99.11
21.578,-102.54
21.593,-110.68
21.609,-124.74
21.625,-142.03
21.640,-157.73
21.656,-167.83
21.671,-171.02
21.687,-168.94
21.703,-164.84
21.718,-161.72
21.734,-160.85
21.750,-161.7
21.765,-162.65
21.781,-162.36
21.796,-160.5
21.812,-157.81
21.828,-155.31
21.843,-153.36
21.859,-151.2
21.875,-147.33
21.890,-140.28
21.906,-129.54
21.921,-115.82
21.937,-100.7
21.953,-85.88
21.968,-72.44
21.984,-60.63
22.000,-50.12
22.015,-40.54
22.031,-31.87
22.046,-24.53
22.062,-19.13
22.078,-16.02
22.093,-15.04
22.109,-15.37
22.125,-15.91
22.140,-15.72
22.156,-14.34
22.171,-12.1
22.187,-9.76
22.203,-8.12
22.218,-7.63
22.234,-8.15
22.250,-9.21
22.265,-10.4
22.281,-11.7
22.296,-13.36
22.312,-15.64
22.328,-18.49
22.343,-21.47
22.359,-24.07
22.375,-26.15
22.390,-28.18
22.406,-31.06
22.421,-35.41
22.437,-40.94
22.453,-46.22
22.468,-49.04
22.484,-47.4
22.500,-40.52
22.515,-29.33
22.531,-16.18
22.546,-3.86
22.562,5.57
22.578,11.47
22.593,14.61
22.609,16.51
22.625,18.44
22.640,20.86
22.656,23.37
22.671,25.19
22.687,25.77
22.703,25.16
22.718,23.9
22.734,22.58
22.750,21.42
22.765,20.22
22.781,18.41
22.796,15.5
22.812,11.37
22.828,6.31
22.843,0.84
22.859,-4.52
22.875,-9.4
22.890,-13.52
22.906,-16.56
22.921,-18.07
22.937,-17.66
22.953,-15.23
22.968,-11.21
22.984,-6.47
23.000,-1.93
23.015,1.87
23.031,5.04
23.046,8.27
23.062,12.34
23.078,17.6
23.093,23.77
23.109,30.06
23.125,35.63
23.140,40.03
23.156,43.36
23.171,46.02
23.187,48.27
23.203,49.89
23.218,50.21
23.234,48.45
23.250,44.19
23.265,37.65
23.281,29.68
23.296,21.41
23.312,13.8
23.328,7.39
23.343,2.28
23.359,-1.78
23.375,-5.05
23.390,-7.73
23.406,-9.89
23.421,-11.51
23.437,-12.58
23.453,-13.08
23.468,-13.11
23.484,-13.01
23.500,-13.34
23.515,-14.86
23.531,-18.31
23.546,-24.04
23.562,-31.76
23.578,-40.39
23.593,-48.26
23.609,-53.59
23.625,-55.0
23.640,-52.01
23.656,-45.25
23.671,-36.16
23.687,-26.5
23.703,-17.56
23.718,-9.65
23.734,-2.01
23.750,6.73
23.765,17.7
23.781,31.11
23.796,46.05
23.812,60.82
23.828,73.71
23.843,83.63
23.859,90.36
23.875,94.3
23.890,95.94
23.906,95.51
23.921,92.93
23.937,88.03
23.953,80.93
23.968,72.09
23.984,62.24
24.000,51.96
24.015,41.49
24.031,30.8
24.046,19.88
24.062,9.02
24.078,-1.06
24.093,-9.51
24.109,-15.75
24.125,-19.8
24.140,-22.39
24.156,-24.62
24.171,-27.47
24.187,-31.43
24.203,-36.36
24.218,-41.53
24.234,-45.92
24.250,-48.57
24.265,-48.74
24.281,-46.06
24.296,-40.56
24.312,-32.66
24.328,-23.13
24.343,-12.95
24.359,-3.2
24.375,5.15
24.390,11.37
24.406,15.04
24.421,16.14
24.437,15.09
24.453,12.68
24.468,9.87
24.484,7.55
24.500,6.22
24.515,5.85
24.531,5.95
24.546,5.81
24.562,4.89
24.578,3.07
24.593,0.74
24.609,-1.42
24.625,-2.74
24.640,-2.89
24.656,-2.01
24.671,-0.74
24.687,0.12
24.703,-0.11
24.718,-1.76
24.734,-4.68
24.750,-8.35
24.765,-12.14
24.781,-15.5
24.796,-18.21
24.812,-20.39
24.828,-22.42
24.843,-24.67
24.859,-27.21
24.875,-29.57
24.890,-30.8
24.906,-29.76
24.921,-25.61
24.937,-18.24
24.953,-8.39
24.968,2.48
24.984,12.83
25.000,21.48
25.015,27.92
25.031,32.21
25.046,34.67
25.062,35.57
25.078,35.03
25.093,33.1
25.109,30.01
25.125,26.13
25.140,21.84
25.156,17.44
25.171,12.92
25.187,8.1
25.203,2.73
25.218,-3.34
25.234,-10.14
25.250,-17.56
25.265,-25.38
25.281,-33.16
25.296,-40.26
25.312,-45.9
25.328,-49.45
25.343,-50.74
25.359,-50.23
25.375,-48.92
25.390,-47.77
25.406,-47.22
25.421,-46.85
25.437,-45.59
25.453,-42.36
25.468,-36.61
25.484,-28.56
25.500,-18.83
25.515,-7.9
25.531,4.24
25.546,17.97
25.562,33.56
25.578,50.97
25.593,69.65
25.609,88.88
25.625,107.82
25.640,125.56
25.656,140.83
25.671,152.09
25.687,157.85
25.703,157.42
25.718,151.34
25.734,141.25
25.750,129.05
25.765,116.15
25.781,103.11
25.796,89.77
25.812,75.97
25.828,61.88
25.843,47.98
25.859,34.74
25.875,22.24
25.890,10.13
25.906,-2.0
25.921,-14.28
25.937,-26.44
25.953,-37.83
25.968,-47.64
25.984,-55.15
26.000,-59.85
26.015,-61.7
26.031,-61.17
26.046,-59.45
26.062,-58.11
26.078,-58.54
26.093,-61.3
26.109,-65.76
26.125,-70.35
26.140,-73.19
26.156,-72.9
26.171,-69.18
26.187,-62.8
26.203,-55.09
26.218,-47.01
26.234,-38.47
26.250,-28.34
26.265,-15.1
26.281,2.14
26.296,22.75
26.312,44.52
26.328,64.37
26.343,79.35
26.359,87.6
26.375,88.53
26.390,82.68
26.406,71.33
26.421,56.34
26.437,40.23
26.453,25.95
26.468,16.28
26.484,12.75
26.500,14.74
26.515,19.52
26.531,23.36
26.546,23.34
26.562,18.7
26.578,11.03
26.593,3.18
26.609,-2.39
26.625,-4.86
26.640,-5.24
26.656,-5.37
26.671,-6.63
26.687,-9.12
26.703,-11.74
26.718,-13.13
26.734,-12.72
26.750,-11.32
26.765,-10.81
26.781,-13.05
26.796,-18.85
26.812,-27.34
26.828,-36.25
26.843,-42.86
26.859,-45.22
26.875,-42.91
26.890,-37.05
26.906,-29.54
26.921,-22.05
26.937,-15.32
26.953,-9.17
26.968,-3.12
26.984,2.77
27.000,7.59
27.015,9.93
27.031,8.62
27.046,3.6
27.062,-3.95
27.078,-12.01
27.093,-18.64
27.109,-22.73
27.125,-24.32
27.140,-24.22
27.156,-23.46
27.171,-22.87
27.187,-22.9
27.203,-23.71
27.218,-25.43
27.234,-28.18
27.250,-31.97
27.265,-36.58
27.281,-41.55
27.296,-46.43
27.312,-50.96
27.328,-55.16
27.343,-59.26
27.359,-63.35
27.375,-67.29
27.390,-70.56
27.406,-72.43
27.421,-72.23
27.437,-69.49
27.453,-64.17
27.468,-56.62
27.484,-47.6
27.500,-38.02
27.515,-28.68
27.531,-20.07
27.546,-12.19
27.562,-4.66
27.578,2.93
27.593,10.72
27.609,18.39
27.625,25.24
27.640,30.57
27.656,33.92
27.671,35.27
27.687,34.91
27.703,33.19
27.718,30.36
27.734,26.5
27.750,21.64
27.765,15.93
27.781,9.74
27.796,3.53
27.812,-2.13
27.828,-6.78
27.843,-10.14
27.859,-12.14
27.875,-12.91
27.890,-12.7
27.906,-11.77
27.921,-10.34
27.937,-8.61
27.953,-6.72
27.968,-4.96
27.984,-3.73
28.000,-3.57
28.015,-4.86
28.031,-7.71
28.046,-11.68
28.062,-15.72
28.078,-18.5
28.093,-18.78
28.109,-15.86
28.125,-9.87
28.140,-1.66
28.156,7.51
28.171,16.53
28.187,24.65
28.203,31.67
28.218,37.61
28.234,42.48
28.250,45.95
28.265,47.45
28.281,46.35
28.296,42.26
28.312,35.25
28.328,25.76
28.343,14.58
28.359,2.58
28.375,-9.37
28.390,-20.49
28.406,-30.02
28.421,-37.33
28.437,-41.99
28.453,-44.06
28.468,-44.21
28.484,-43.68
28.500,-43.85
28.515,-45.5
28.531,-48.46
28.546,-51.58
28.562,-53.27
28.578,-52.29
28.593,-48.22
28.609,-41.43
28.625,-32.67
28.640,-22.64
28.656,-11.76
28.671,-0.45
28.687,10.78
28.703,21.21
28.718,30.22
28.734,37.56
28.750,43.5
28.765,48.58
28.781,53.15
28.796,57.2
28.812,60.36
28.828,62.22
28.843,62.6
28.859,61.55
28.875,59.24
28.890,55.87
28.906,51.62
28.921,46.95
28.937,42.5
28.953,39.08
28.968,37.31
28.984,37.23
29.000,38.16
29.015,38.92
29.031,38.24
29.046,35.34
29.062,30.16
29.078,23.31
29.093,15.6
29.109,7.54
29.125,-0.83
29.140,-9.76
29.156,-19.34
29.171,-29.04
29.187,-37.65
29.203,-43.73
29.218,-46.17
29.234,-44.74
29.250,-40.02
29.265,-33.02
29.281,-24.65
29.296,-15.41
29.312,-5.51
29.328,4.88
29.343,15.32
29.359,25.21
29.375,33.95
29.390,41.22
29.406,47.06
29.421,51.86
29.437,56.12
29.453,60.37
29.468,64.96
29.484,70.0
29.500,75.24
29.515,80.26
29.531,84.6
29.546,88.21
29.562,91.67
29.578,96.04
29.593,102.22
29.609,110.15
29.625,118.3
29.640,123.79
29.656,123.19
29.671,113.69
29.687,94.29
29.703,66.35
29.718,33.35
29.734,0.03
29.750,-28.87
29.765,-49.86
29.781,-61.56
29.796,-64.85
29.812,-62.32
29.828,-57.21
29.843,-52.26
29.859,-48.98
29.875,-47.63
29.890,-47.79
29.906,-48.95
29.921,-50.89
29.937,-53.64
29.953,-57.04
29.968,-60.64
29.984,-63.81
30.000,-66.13
30.015,-67.61
30.031,-68.73
30.046,-70.14
30.062,-72.3
30.078,-75.33
30.093,-78.89
30.109,-82.32
30.125,-84.65
30.140,-84.87
30.156,-82.07
30.171,-76.03
30.187,-67.38
30.203,-57.6
30.218,-48.51
30.234,-41.41
30.250,-36.55
30.265,-33.15
30.281,-29.97
30.296,-26.12
30.312,-21.58
30.328,-17.05
30.343,-13.37
30.359,-10.97
30.375,-9.57
30.390,-8.44
30.406,-6.91
30.421,-4.75
30.437,-2.37
30.453,-0.39
30.468,0.57
30.484,0.32
30.500,-0.97
30.515,-2.91
30.531,-5.13
30.546,-7.46
30.562,-9.94
30.578,-12.76
30.593,-16.17
30.609,-20.33
30.625,-25.32
30.640,-30.99
30.656,-36.87
30.671,-42.24
30.687,-46.2
30.703,-47.91
30.718,-46.88
30.734,-43.09
30.750,-36.93
30.765,-29.09
30.781,-20.28
30.796,-11.14
30.812,-2.2
30.828,6.04
30.843,13.08
30.859,18.58
30.875,22.46
30.890,25.01
30.906,26.8
30.921,28.4
30.937,30.14
30.953,31.88
30.968,33.12
30.984,33.35
31.000,32.37
31.015,30.42
31.031,28.07
31.046,25.92
31.062,24.18
31.078,22.65
31.093,20.83
31.109,18.25
31.125,14.76
31.140,10.61
31.156,6.26
31.171,2.07
31.187,-1.78
31.203,-5.49
31.218,-9.4
31.234,-13.83
31.250,-18.91
31.265,-24.47
31.281,-30.08
31.296,-35.08
31.312,-38.71
31.328,-40.24
31.343,-39.17
31.359,-35.35
31.375,-29.0
31.390,-20.74
31.406,-11.35
31.421,-1.69
31.437,7.46
31.453,15.44
31.468,21.86
31.484,26.56
31.500,29.67
31.515,31.6
31.531,32.82
31.546,33.77
31.562,34.66
31.578,35.48
31.593,35.99
31.609,35.99
31.625,35.42
31.640,34.41
31.656,33.18
31.671,31.97
31.687,30.87
31.703,29.75
31.718,28.41
31.734,26.57
31.750,24.12
31.765,21.16
31.781,17.92
31.796,14.67
31.812,11.51
31.828,8.25
31.843,4.49
31.859,-0.17
31.875,-5.97
31.890,-12.79
31.906,-20.19
31.921,-27.49
31.937,-33.96
31.953,-38.86
31.968,-41.59
31.984,-41.68
32.000,-38.88
32.015,-33.31
32.031,-25.42
32.046,-16.02
32.062,-6.09
32.078,3.49
32.093,12.05
32.109,19.24
32.125,25.02
32.140,29.44
32.156,32.59
32.171,34.55
32.187,35.38
32.203,35.24
32.218,34.35
32.234,33.05
32.250,31.7
32.265,30.48
32.281,29.39
32.296,28.2
32.312,26.67
32.328,24.61
32.343,22.06
32.359,19.19
32.375,16.31
32.390,13.68
32.406,11.45
32.421,9.66
32.437,8.16
32.453,6.7
32.468,4.9
32.484,2.38
32.500,-1.13
32.515,-5.66
32.531,-11.07
32.546,-17.1
32.562,-23.46
32.578,-29.85
32.593,-35.85
32.609,-40.89
32.625,-44.18
32.640,-44.87
32.656,-42.42
32.671,-36.76
32.687,-28.43
32.703,-18.37
32.718,-7.63
32.734,2.88
32.750,12.53
32.765,20.91
32.781,27.78
32.796,32.86
32.812,35.96
32.828,37.04
32.843,36.35
32.859,34.44
32.875,31.99
32.890,29.62
32.906,27.73
32.921,26.36
32.937,25.31
32.953,24.31
32.968,23.21
32.984,22.0
33.000,20.7
33.015,19.31
33.031,17.77
33.046,15.95
33.062,13.79
33.078,11.32
33.093,8.72
33.109,6.13
33.125,3.65
33.140,1.25
33.156,-1.19
33.171,-3.91
33.187,-7.2
33.203,-11.38
33.218,-16.65
33.234,-22.92
33.250,-29.67
33.265,-35.97
33.281,-40.63
33.296,-42.56
33.312,-41.16
33.328,-36.5
33.343,-29.24
33.359,-20.42
33.375,-11.05
33.390,-1.87
33.406,6.7
33.421,14.49
33.437,21.31
33.453,26.81
33.468,30.58
33.484,32.28
33.500,31.94
33.515,29.99
33.531,27.25
33.546,24.59
33.562,22.61
33.578,21.5
33.593,21.03
33.609,20.79
33.625,20.45
33.640,19.84
33.656,19.03
33.671,18.08
33.687,16.94
33.703,15.41
33.718,13.23
33.734,10.28
33.750,6.71
33.765,3.0
33.781,-0.33
33.796,-2.88
33.812,-4.63
33.828,-5.98
33.843,-7.59
33.859,-10.1
33.875,-13.91
33.890,-18.99
33.906,-24.91
33.921,-30.93
33.937,-36.13
33.953,-39.56
33.968,-40.41
33.984,-38.23
34.000,-33.06
34.015,-25.47
34.031,-16.44
34.046,-7.05
34.062,1.78
34.078,9.5
34.093,15.88
34.109,20.84
34.125,24.36
34.140,26.37
34.156,26.85
34.171,25.98
34.187,24.15
34.203,21.96
34.218,19.97
34.234,18.58
34.250,17.89
34.265,17.81
34.281,18.11
34.296,18.55
34.312,18.9
34.328,18.99
34.343,18.67
34.359,17.78
34.375,16.23
34.390,13.98
34.406,11.09
34.421,7.7
34.437,3.99
34.453,0.13
34.468,-3.74
34.484,-7.56
34.500,-11.36
34.515,-15.21
34.531,-19.26
34.546,-23.6
34.562,-28.13
34.578,-32.53
34.593,-36.22
34.609,-38.51
34.625,-38.74
34.640,-36.51
34.656,-31.76
34.671,-24.89
34.687,-16.57
34.703,-7.64
34.718,1.11
34.734,9.09
34.750,15.99
34.765,21.83
34.781,26.8
34.796,31.11
34.812,34.85
34.828,37.94
34.843,40.21
34.859,41.55
34.875,42.03
34.890,41.82
34.906,41.09
34.921,39.92
34.937,38.23
34.953,35.98
34.968,33.29
34.984,30.51
35.000,28.07
35.015,26.21
35.031,24.7
35.046,22.95
35.062,20.23
35.078,16.13
35.093,10.75
35.109,4.65
35.125,-1.46
35.140,-7.07
35.156,-12.13
35.171,-17.03
35.187,-22.25
35.203,-28.04
35.218,-34.23
35.234,-40.07
35.250,-44.62
35.265,-46.97
35.281,-46.59
35.296,-43.51
35.312,-38.21
35.328,-31.44
35.343,-23.96
35.359,-16.35
35.375,-8.95
35.390,-2.09
35.406,3.92
35.421,8.71
35.437,11.95
35.453,13.57
35.468,13.81
35.484,13.19
35.500,12.31
35.515,11.62
35.531,11.23
35.546,10.92
35.562,10.36
35.578,9.36
35.593,7.95
35.609,6.35
35.625,4.86
35.640,3.57
35.656,2.4
35.671,1.04
35.687,-0.78
35.703,-3.13
35.718,-5.87
35.734,-8.68
35.750,-11.22
35.765,-13.39
35.781,-15.32
35.796,-17.31
35.812,-19.72
35.828,-22.74
35.843,-26.37
35.859,-30.39
35.875,-34.44
35.890,-38.07
35.906,-40.87
35.921,-42.48
35.937,-42.63
35.953,-41.27
35.968,-38.46
35.984,-34.46
36.000,-29.63
36.015,-24.38
36.031,-19.09
36.046,-14.04
36.062,-9.44
36.078,-5.47
36.093,-2.32
36.109,-0.22
36.125,0.69
36.140,0.49
36.156,-0.46
36.171,-1.6
36.187,-2.36
36.203,-2.42
36.218,-1.82
36.234,-0.93
36.250,-0.22
36.265,-0.09
36.281,-0.75
36.296,-2.21
36.312,-4.41
36.328,-7.31
36.343,-10.91
36.359,-15.22
36.375,-20.2
36.390,-25.85
36.406,-32.15
36.421,-39.04
36.437,-46.36
36.453,-53.69
36.468,-60.36
36.484,-65.66
36.500,-69.05
36.515,-70.51
36.531,-70.65
36.546,-70.46
36.562,-70.83
36.578,-72.06
36.593,-73.64
36.609,-74.33
36.625,-72.71
36.640,-67.79
36.656,-59.47
36.671,-48.42
36.687,-35.56
36.703,-21.5
36.718,-6.22
36.734,10.69
36.750,29.4
36.765,49.36
36.781,69.13
36.796,86.85
36.812,100.88
36.828,110.32
36.843,115.0
36.859,115.19
36.875,111.3
36.890,103.96
36.906,94.47
36.921,85.13
36.937,79.01
36.953,78.79
36.968,85.41
36.984,97.19
37.000,110.06
37.015,119.22
37.031,121.05
37.046,114.53
37.062,101.27
37.078,84.35
37.093,66.79
37.109,50.47
37.125,36.09
37.140,23.81
37.156,13.93
37.171,7.16
37.187,4.06
37.203,4.61
37.218,7.95
37.234,12.59
37.250,16.94
37.265,19.6
37.281,19.46
37.296,15.71
37.312,7.96
37.328,-3.29
37.343,-16.25
37.359,-28.11
37.375,-35.86
37.390,-37.58
37.406,-33.52
37.421,-25.91
37.437,-18.06
37.453,-12.78
37.468,-11.37
37.484,-13.44
37.500,-17.49
37.515,-21.8
37.531,-24.88
37.546,-25.57
37.562,-23.02
37.578,-16.94
37.593,-7.87
37.609,2.47
37.625,11.56
37.640,16.94
37.656,17.18
37.671,12.5
37.687,4.42
37.703,-5.01
37.718,-14.26
37.734,-22.79
37.750,-30.91
37.765,-39.18
37.781,-47.81
37.796,-56.5
37.812,-64.52
37.828,-71.11
37.843,-75.81
37.859,-78.63
37.875,-80.09
37.890,-80.95
37.906,-81.79
37.921,-82.66
37.937,-82.87
37.953,-80.97
37.968,-75.3
37.984,-64.6
38.000,-48.5
38.015,-27.81
38.031,-4.34
38.046,19.52
38.062,41.34
38.078,59.05
38.093,71.33
38.109,77.76
38.125,78.87
38.140,75.83
38.156,70.26
38.171,63.78
38.187,57.72
38.203,52.97
38.218,49.85
38.234,48.13
38.250,47.21
38.265,46.19
38.281,44.23
38.296,40.71
38.312,35.52
38.328,29.11
38.343,22.28
38.359,16.0
38.375,10.8
38.390,6.56
38.406,2.42
38.421,-2.97
38.437,-10.83
38.453,-21.57
38.468,-34.36
38.484,-47.16
38.500,-57.42
38.515,-63.01
38.531,-62.96
38.546,-57.81
38.562,-49.08
38.578,-38.65
38.593,-28.03
38.609,-18.05
38.625,-8.92
38.640,-0.42
38.656,7.9
38.671,16.62
38.687,26.19
38.703,36.59
38.718,46.94
38.734,55.51
38.750,60.27
38.765,59.94
38.781,54.75
38.796,46.59
38.812,38.2
38.828,31.8
38.843,28.02
38.859,25.82
38.875,23.08
38.890,17.68
38.906,8.14
38.921,-6.27
38.937,-25.56
38.953,-48.84
38.968,-73.85
38.984,-96.65
39.000,-112.33
39.015,-116.48
39.031,-107.12
39.046,-85.99
39.062,-58.15
39.078,-30.21
39.093,-7.91
39.109,5.63
39.125,10.17
39.140,7.43
39.156,-0.25
39.171,-10.73
39.187,-22.2
39.203,-32.89
39.218,-40.82
39.234,-44.23
39.250,-42.37
39.265,-36.06
39.281,-27.89
39.296,-21.39
39.312,-19.62
39.328,-23.68
39.343,-31.84
39.359,-40.03
39.375,-43.48
39.390,-38.78
39.406,-25.36
39.421,-5.89
39.437,14.46
39.453,29.57
39.468,34.02
39.484,24.81
39.500,2.67
39.515,-27.26
39.531,-55.93
39.546,-72.66
39.562,-68.68
39.578,-40.84
39.593,6.41
39.609,61.99
39.625,112.01
39.640,144.93
39.656,155.41
39.671,145.36
39.687,121.81
39.703,93.11
39.718,65.85
39.734,43.39
39.750,26.41
39.765,14.45
39.781,6.93
39.796,3.44
39.812,3.25
39.828,4.7
39.843,5.3
39.859,2.39
39.875,-5.69
39.890,-18.82
39.906,-34.94
39.921,-50.81
39.937,-63.3
39.953,-70.64
39.968,-73.15
39.984,-72.97
40.000,-73.07
40.015,-75.7
40.031,-81.36
40.046,-88.52
40.062,-94.36
40.078,-96.28
40.093,-93.19
40.109,-86.07
40.125,-77.58
40.140,-70.6
40.156,-66.84
40.171,-65.97
40.187,-65.81
40.203,-63.41
40.218,-56.58
40.234,-44.97
40.250,-30.11
40.265,-14.57
40.281,-0.88
40.296,9.19
40.312,14.92
40.328,16.37
40.343,14.39
40.359,10.67
40.375,8.05
40.390,10.04
40.406,19.79
40.421,38.44
40.437,64.11
40.453,92.17
40.468,116.94
40.484,133.98
40.500,141.64
40.515,141.28
40.531,135.85
40.546,128.28
40.562,120.29
40.578,112.31
40.593,104.21
40.609,96.03
40.625,88.23
40.640,81.36
40.656,75.55
40.671,70.2
40.687,64.18
40.703,56.48
40.718,46.8
40.734,35.7
40.750,24.47
40.765,14.42
40.781,6.29
40.796,-0.09
40.812,-5.64
40.828,-11.37
40.843,-17.85
40.859,-24.94
40.875,-31.8
40.890,-37.46
40.906,-41.23
40.921,-42.91
40.937,-42.78
40.953,-41.36
40.968,-39.21
40.984,-36.88
41.000,-34.92
41.015,-33.75
41.031,-33.53
41.046,-33.97
41.062,-34.38
41.078,-33.9
41.093,-32.04
41.109,-28.97
41.125,-25.51
41.140,-22.78
41.156,-21.58
41.171,-22.0
41.187,-23.41
41.203,-24.84
41.218,-25.49
41.234,-25.1
41.250,-23.95
41.265,-22.51
41.281,-21.14
41.296,-19.93
41.312,-18.87
41.328,-18.11
41.343,-18.06
41.359,-19.37
41.375,-22.46
41.390,-27.23
41.406,-32.96
41.421,-38.58
41.437,-43.09
41.453,-45.99
41.468,-47.43
41.484,-48.09
41.500,-48.79
41.515,-50.21
41.531,-52.63
41.546,-55.9
41.562,-59.5
41.578,-62.79
41.593,-65.25
41.609,-66.7
41.625,-67.31
41.640,-67.55
41.656,-67.96
41.671,-68.91
41.687,-70.36
41.703,-71.93
41.718,-72.89
41.734,-72.43
41.750,-69.83
41.765,-64.66
41.781,-56.94
41.796,-47.07
41.812,-35.78
41.828,-23.9
41.843,-12.13
41.859,-0.97
41.875,9.17
41.890,17.84
41.906,24.44
41.921,28.36
41.937,29.31
41.953,27.68
41.968,24.61
41.984,21.67
42.000,20.26
42.015,20.98
42.031,23.42
42.046,26.36
42.062,28.4
42.078,28.63
42.093,26.97
42.109,24.11
42.125,21.04
42.140,18.54
42.156,16.88
42.171,15.84
42.187,14.88
42.203,13.5
42.218,11.37
42.234,8.34
42.250,4.31
42.265,-0.77
42.281,-6.97
42.296,-14.17
42.312,-21.99
42.328,-29.7
42.343,-36.33
42.359,-40.86
42.375,-42.43
42.390,-40.65
42.406,-35.62
42.421,-27.97
42.437,-18.7
42.453,-8.88
42.468,0.6
42.484,9.18
42.500,16.67
42.515,23.09
42.531,28.5
42.546,32.94
42.562,36.42
42.578,39.03
42.593,41.02
42.609,42.75
42.625,44.52
42.640,46.39
42.656,48.16
42.671,49.41
42.687,49.66
42.703,48.57
42.718,46.05
42.734,42.26
42.750,37.46
42.765,32.01
42.781,26.25
42.796,20.44
42.812,14.79
42.828,9.47
42.843,4.61
42.859,0.28
42.875,-3.52
42.890,-6.85
42.906,-9.93
42.921,-13.13
42.937,-16.89
42.953,-21.45
42.968,-26.69
42.984,-31.9
43.000,-35.89
43.015,-37.32
43.031,-35.23
43.046,-29.37
43.062,-20.37
43.078,-9.46
43.093,1.95
43.109,12.75
43.125,22.25
43.140,30.16
43.156,36.36
43.171,40.81
43.187,43.53
43.203,44.66
43.218,44.63
43.234,44.02
43.250,43.36
43.265,42.97
43.281,42.86
43.296,42.82
43.312,42.57
43.328,41.9
43.343,40.67
43.359,38.85
43.375,36.38
43.390,33.27
43.406,29.58
43.421,25.51
43.437,21.29
43.453,17.12
43.468,13.03
43.484,8.89
43.500,4.53
43.515,-0.19
43.531,-5.26
43.546,-10.55
43.562,-15.99
43.578,-21.59
43.593,-27.4
43.609,-33.25
43.625,-38.59
43.640,-42.39
43.656,-43.5
43.671,-41.11
43.687,-35.13
43.703,-26.35
43.718,-16.13
43.734,-5.86
43.750,3.48
43.765,11.55
43.781,18.48
43.796,24.5
43.812,29.65
43.828,33.69
43.843,36.29
43.859,37.3
43.875,36.94
43.890,35.73
43.906,34.27
43.921,33.06
43.937,32.3
43.953,31.86
43.968,31.43
43.984,30.69
44.000,29.48
44.015,27.8
44.031,25.77
44.046,23.52
44.062,21.06
44.078,18.31
44.093,15.13
44.109,11.44
44.125,7.31
44.140,2.94
44.156,-1.47
44.171,-5.86
44.187,-10.39
44.203,-15.44
44.218,-21.29
44.234,-27.9
44.250,-34.65
44.265,-40.49
44.281,-44.11
44.296,-44.48
44.312,-41.21
44.328,-34.67
44.343,-25.82
44.359,-15.84
44.375,-5.75
44.390,3.88
44.406,12.83
44.421,21.02
44.437,28.24
44.453,34.16
44.468,38.4
44.484,40.8
44.500,41.64
44.515,41.56
44.531,41.35
44.546,41.57
44.562,42.35
44.578,43.52
44.593,44.67
44.609,45.54
44.625,46.07
44.640,46.39
44.656,46.62
44.671,46.74
44.687,46.6
44.703,46.0
44.718,44.85
44.734,43.19
44.750,41.19
44.765,39.02
44.781,36.81
44.796,34.65
44.812,32.57
44.828,30.65
44.843,28.94
44.859,27.46
44.875,26.09
44.890,24.65
44.906,22.93
44.921,20.77
44.937,18.09
44.953,14.96
44.968,11.5
44.984,7.94
45.000,4.48
45.015,1.33
45.031,-1.35
45.046,-3.52
45.062,-5.26
45.078,-6.7
45.093,-7.93
45.109,-8.94
45.125,-9.62
45.140,-9.8
45.156,-9.4
45.171,-8.58
45.187,-7.64
45.203,-6.98
45.218,-6.88
45.234,-7.41
45.250,-8.38
45.265,-9.52
45.281,-10.67
45.296,-11.94
45.312,-13.67
45.328,-16.23
45.343,-19.73
45.359,-23.89
45.375,-28.07
45.390,-31.58
45.406,-33.91
45.421,-34.98
45.437,-35.14
45.453,-34.91
45.468,-34.81
45.484,-35.18
45.500,-36.2
45.515,-37.91
45.531,-40.22
45.546,-42.86
45.562,-45.24
45.578,-46.46
45.593,-45.58
45.609,-41.94
45.625,-35.54
45.640,-27.07
45.656,-17.76
45.671,-8.97
45.687,-1.8
45.703,3.22
45.718,6.19
45.734,7.57
45.750,7.99
45.765,8.01
45.781,7.95
45.796,7.95
45.812,8.03
45.828,8.15
45.843,8.3
45.859,8.44
45.875,8.56
45.890,8.58
45.906,8.35
45.921,7.71
45.937,6.55
45.953,4.86
45.968,2.81
45.984,0.66
46.000,-1.24
46.015,-2.69
46.031,-3.64
46.046,-4.18
46.062,-4.56
46.078,-5.06
46.093,-5.89
46.109,-7.25
46.125,-9.36
46.140,-12.4
46.156,-16.45
46.171,-21.25
46.187,-26.1
46.203,-30.01
46.218,-31.86
46.234,-30.95
46.250,-27.28
46.265,-21.54
46.281,-14.85
46.296,-8.31
46.312,-2.59
46.328,2.24
46.343,6.57
46.359,11.0
46.375,15.93
46.390,21.42
46.406,27.15
46.421,32.62
46.437,37.34
46.453,41.08
46.468,43.84
46.484,45.76
46.500,46.98
46.515,47.46
46.531,47.02
46.546,45.51
46.562,42.95
46.578,39.59
46.593,35.73
46.609,31.68
46.625,27.47
46.640,22.98
46.656,17.97
46.671,12.31
46.687,6.0
46.703,-0.85
46.718,-8.07
46.734,-15.48
46.750,-22.82
46.765,-29.72
46.781,-35.68
46.796,-40.2
46.812,-42.87
46.828,-43.53
46.843,-42.25
46.859,-39.3
46.875,-35.07
46.890,-30.01
46.906,-24.57
46.921,-19.15
46.937,-14.1
46.953,-9.65
46.968,-5.93
46.984,-3.0
47.000,-0.85
47.015,0.51
47.031,1.08
47.046,0.83
47.062,-0.14
47.078,-1.64
47.093,-3.36
47.109,-4.98
47.125,-6.25
47.140,-7.17
47.156,-7.96
47.171,-8.97
47.187,-10.46
47.203,-12.4
47.218,-14.51
47.234,-16.42
47.250,-18.01
47.265,-19.53
47.281,-21.56
47.296,-24.64
47.312,-28.91
47.328,-33.99
47.343,-39.1
47.359,-43.48
47.375,-46.65
47.390,-48.56
47.406,-49.33
47.421,-48.96
47.437,-47.19
47.453,-43.57
47.468,-37.68
47.484,-29.46
47.500,-19.33
47.515,-8.15
47.531,3.0
47.546,13.07
47.562,21.28
47.578,27.2
47.593,30.81
47.609,32.37
47.625,32.35
47.640,31.27
47.656,29.57
47.671,27.57
47.687,25.42
47.703,23.14
47.718,20.64
47.734,17.73
47.750,14.24
47.765,10.01
47.781,4.99
47.796,-0.58
47.812,-6.28
47.828,-11.52
47.843,-15.9
47.859,-19.38
47.875,-22.42
47.890,-25.84
47.906,-30.37
47.921,-36.22
47.937,-42.86
47.953,-49.15
47.968,-53.79
47.984,-55.91
48.000,-55.43
48.015,-53.08
48.031,-50.04
48.046,-47.5
48.062,-46.13
48.078,-45.87
48.093,-45.98
48.109,-45.44
48.125,-43.32
48.140,-39.14
48.156,-33.0
48.171,-25.38
48.187,-16.98
48.203,-8.35
48.218,0.19
48.234,8.64
48.250,17.31
48.265,26.68
48.281,37.35
48.296,49.69
48.312,63.55
48.328,78.04
48.343,91.73
48.359,103.12
48.375,111.23
48.390,115.95
48.406,117.85
48.421,117.66
48.437,115.77
48.453,112.24
48.468,107.07
48.484,100.59
48.500,93.53
48.515,86.66
48.531,80.35
48.546,74.45
48.562,68.56
48.578,62.55
48.593,56.84
48.609,52.14
48.625,48.9
48.640,46.76
48.656,44.7
48.671,41.63
48.687,37.23
48.703,32.31
48.718,28.46
48.734,27.24
48.750,29.28
48.765,33.96
48.781,39.71
48.796,44.73
48.812,47.63
48.828,47.75
48.843,44.87
48.859,38.89
48.875,29.56
48.890,16.7
48.906,0.8
48.921,-16.53
48.937,-32.75
48.953,-45.17
48.968,-52.11
48.984,-53.69
49.000,-51.88
49.015,-49.43
49.031,-48.6
49.046,-50.17
49.062,-53.54
49.078,-57.51
49.093,-61.31
49.109,-65.12
49.125,-69.79
49.140,-76.04
49.156,-83.82
49.171,-92.15
49.187,-99.58
49.203,-104.79
49.218,-107.14
49.234,-106.59
49.250,-103.6
49.265,-98.91
49.281,-93.38
49.296,-87.89
49.312,-83.02
49.328,-78.84
49.343,-74.68
49.359,-69.53
49.375,-62.41
49.390,-52.88
49.406,-41.3
49.421,-28.63
49.437,-16.06
49.453,-4.57
49.468,5.23
49.484,13.3
49.500,20.08
49.515,26.59
49.531,34.16
49.546,43.93
49.562,56.19
49.578,69.73
49.593,81.91
49.609,89.41
49.625,89.57
49.640,81.75
49.656,67.91
49.671,52.17
49.687,39.39
49.703,33.42
49.718,35.75
49.734,45.0
49.750,57.58
49.765,69.04
49.781,75.65
49.796,75.47
49.812,68.64
49.828,56.99
49.843,43.03
49.859,29.05
49.875,16.46
49.890,5.78
49.906,-3.08
49.921,-10.21
49.937,-15.43
49.953,-18.32
49.968,-18.65
49.984,-16.79
50.000,-14.02
50.015,-12.05
50.031,-12.36
50.046,-15.41
50.062,-20.24
50.078,-24.9
50.093,-27.29
50.109,-26.25
50.125,-22.04
50.140,-16.11
50.156,-10.39
50.171,-6.39
50.187,-4.87
50.203,-5.95
50.218,-9.52
50.234,-15.5
50.250,-23.68
50.265,-33.26
50.281,-42.55
50.296,-49.2
50.312,-50.95
50.328,-46.66
50.343,-36.93
50.359,-24.01
50.375,-10.93
50.390,-0.29
50.406,6.6
50.421,9.94
50.437,10.99
50.453,11.29
50.468,12.03
50.484,13.76
50.500,16.42
50.515,19.61
50.531,22.81
50.546,25.32
50.562,26.29
50.578,24.81
50.593,20.17
50.609,12.21
50.625,1.47
50.640,-10.77
50.656,-22.83
50.671,-33.04
50.687,-40.05
50.703,-42.92
50.718,-40.99
50.734,-33.95
50.750,-21.91
50.765,-5.82
50.781,12.34
50.796,29.94
50.812,44.39
50.828,53.83
50.843,57.48
50.859,55.22
50.875,46.96
50.890,32.33
50.906,11.09
50.921,-15.83
50.937,-45.4
50.953,-72.62
50.968,-91.98
50.984,-99.63
51.000,-95.03
51.015,-81.29
51.031,-63.72
51.046,-47.53
51.062,-35.95
51.078,-29.55
51.093,-26.87
51.109,-25.82
51.125,-24.71
51.140,-22.67
51.156,-19.41
51.171,-14.73
51.187,-8.36
51.203,-0.17
51.218,9.41
51.234,19.25
51.250,27.81
51.265,33.72
51.281,36.43
51.296,36.34
51.312,34.68
51.328,33.03
51.343,32.8
51.359,34.89
51.375,39.23
51.390,44.51
51.406,48.17
51.421,47.07
51.437,38.77
51.453,22.87
51.468,1.9
51.484,-19.3
51.500,-35.22
51.515,-41.89
51.531,-38.48
51.546,-27.38
51.562,-12.95
51.578,0.37
51.593,9.59
51.609,13.71
51.625,13.3
51.640,9.82
51.656,5.01
51.671,0.68
51.687,-1.44
51.703,-0.04
51.718,5.34
51.734,13.92
51.750,23.81
51.765,32.68
51.781,38.64
51.796,41.0
51.812,40.56
51.828,39.08
51.843,38.52
51.859,40.26
51.875,44.88
51.890,52.1
51.906,60.87
51.921,69.05
51.937,73.31
51.953,69.57
51.968,54.58
51.984,28.07
52.000,-6.0
52.015,-39.85
52.031,-64.76
52.046,-74.74
52.062,-69.15
52.078,-52.88
52.093,-33.65
52.109,-18.28
52.125,-9.82
52.140,-7.19
52.156,-7.04
52.171,-6.48
52.187,-4.83
52.203,-3.44
52.218,-4.25
52.234,-7.96
52.250,-13.42
52.265,-18.25
52.281,-20.39
52.296,-19.46
52.312,-16.98
52.328,-15.34
52.343,-16.16
52.359,-18.99
52.375,-21.36
52.390,-20.06
52.406,-13.07
52.421,-0.95
52.437,13.11
52.453,24.59
52.468,29.48
52.484,25.97
52.500,14.78
52.515,-1.42
52.531,-19.25
52.546,-35.8
52.562,-49.21
52.578,-58.79
52.593,-64.79
52.609,-68.09
52.625,-69.79
52.640,-70.96
52.656,-72.47
52.671,-74.8
52.687,-77.98
52.703,-81.55
52.718,-84.67
52.734,-86.33
52.750,-85.78
52.765,-82.89
52.781,-78.22
52.796,-72.87
52.812,-68.08
52.828,-64.86
52.843,-63.82
52.859,-65.09
52.875,-68.33
52.890,-72.62
52.906,-76.42
52.921,-77.69
52.937,-74.47
52.953,-65.75
52.968,-52.21
52.984,-36.21
53.000,-21.03
53.015,-9.42
53.031,-2.54
53.046,0.34
53.062,1.12
53.078,1.61
53.093,2.66
53.109,3.97
53.125,4.75
53.140,4.54
53.156,3.64
53.171,2.89
53.187,3.04
53.203,4.16
53.218,5.62
53.234,6.53
53.250,6.38
53.265,5.32
53.281,3.98
53.296,2.99
53.312,2.51
53.328,2.18
53.343,1.39
53.359,-0.25
53.375,-2.66
53.390,-5.36
53.406,-7.79
53.421,-9.66
53.437,-11.02
53.453,-12.3
53.468,-13.91
53.484,-16.01
53.500,-18.33
53.515,-20.21
53.531,-20.89
53.546,-19.68
53.562,-16.25
53.578,-10.72
53.593,-3.6
53.609,4.46
53.625,12.8
53.640,20.92
53.656,28.5
53.671,35.26
53.687,40.93
53.703,45.22
53.718,47.92
53.734,48.99
53.750,48.69
53.765,47.52
53.781,46.08
53.796,44.9
53.812,44.27
53.828,44.14
53.843,44.21
53.859,44.09
53.875,43.43
53.890,42.04
53.906,39.98
53.921,37.43
53.937,34.62
53.953,31.75
53.968,28.91
53.984,26.06
54.000,23.17
54.015,20.12
54.031,16.79
54.046,13.13
54.062,8.96
54.078,4.09
54.093,-1.6
54.109,-7.96
54.125,-14.42
54.140,-19.97
54.156,-23.33
54.171,-23.42
54.187,-19.68
54.203,-12.38
54.218,-2.47
54.234,8.69
54.250,19.78
54.265,29.87
54.281,38.54
54.296,45.71
54.312,51.5
54.328,55.97
54.343,59.1
54.359,60.84
54.375,61.33
54.390,60.89
54.406,60.04
54.421,59.34
54.437,59.07
54.453,59.17
54.468,59.28
54.484,58.97
54.500,58.03
54.515,56.59
54.531,55.0
54.546,53.68
54.562,52.77
54.578,52.12
54.593,51.33
54.609,50.07
54.625,48.18
54.640,45.8
54.656,43.28
54.671,40.95
54.687,39.02
54.703,37.48
54.718,36.15
54.734,34.85
54.750,33.43
54.765,31.89
54.781,30.3
54.796,28.74
54.812,27.17
54.828,25.51
54.843,23.55
54.859,21.17
54.875,18.43
54.890,15.57
54.906,12.92
54.921,10.8
54.937,9.34
54.953,8.47
54.968,7.9
54.984,7.33
55.000,6.52
55.015,5.34
55.031,3.8
55.046,1.92
55.062,-0.22
55.078,-2.6
55.093,-5.18
55.109,-7.85
55.125,-10.51
55.140,-13.09
55.156,-15.62
55.171,-18.22
55.187,-21.11
55.203,-24.4
55.218,-28.11
55.234,-32.03
55.250,-35.86
55.265,-39.34
55.281,-42.29
55.296,-44.87
55.312,-47.39
55.328,-50.33
55.343,-54.11
55.359,-59.0
55.375,-64.87
55.390,-71.11
55.406,-76.59
55.421,-79.91
55.437,-79.74
55.453,-75.32
55.468,-66.76
55.484,-55.05
55.500,-41.78
55.515,-28.62
55.531,-16.79
55.546,-6.91
55.562,1.06
55.578,7.43
55.593,12.5
55.609,16.4
55.625,19.11
55.640,20.62
55.656,21.08
55.671,20.77
55.687,20.04
55.703,19.22
55.718,18.53
55.734,18.08
55.750,17.85
55.765,17.77
55.781,17.66
55.796,17.29
55.812,16.43
55.828,14.92
55.843,12.76
55.859,10.07
55.875,7.08
55.890,3.98
55.906,0.89
55.921,-2.15
55.937,-5.16
55.953,-8.25
55.968,-11.6
55.984,-15.38
56.000,-19.65
56.015,-24.14
56.031,-28.21
56.046,-31.0
56.062,-31.71
56.078,-29.92
56.093,-25.78
56.109,-19.89
56.125,-13.06
56.140,-5.99
56.156,0.88
56.171,7.29
56.187,13.06
56.203,17.87
56.218,21.41
56.234,23.4
56.250,23.86
56.265,23.13
56.281,21.77
56.296,20.37
56.312,19.38
56.328,18.91
56.343,18.81
56.359,18.79
56.375,18.53
56.390,17.89
56.406,16.85
56.421,15.5
56.437,13.91
56.453,12.14
56.468,10.19
56.484,7.99
56.500,5.56
56.515,2.87
56.531,-0.06
56.546,-3.3
56.562,-7.03
56.578,-11.47
56.593,-16.77
56.609,-22.79
56.625,-28.94
56.640,-34.15
56.656,-37.26
56.671,-37.34
56.687,-34.14
56.703,-28.24
56.718,-20.76
56.734,-12.9
56.750,-5.49
56.765,1.27
56.781,7.54
56.796,13.43
56.812,18.76
56.828,22.98
56.843,25.47
56.859,25.98
56.875,24.81
56.890,22.72
56.906,20.58
56.921,19.04
56.937,18.32
56.953,18.24
56.968,18.41
56.984,18.39
57.000,17.91
57.015,16.86
57.031,15.3
57.046,13.37
57.062,11.22
57.078,8.95
57.093,6.52
57.109,3.8
57.125,0.62
57.140,-3.05
57.156,-7.17
57.171,-11.65
57.187,-16.44
57.203,-21.55
57.218,-26.94
57.234,-32.33
57.250,-37.1
57.265,-40.42
57.281,-41.51
57.296,-39.95
57.312,-35.89
57.328,-29.9
57.343,-22.74
57.359,-15.13
57.375,-7.61
57.390,-0.54
57.406,5.76
57.421,10.96
57.437,14.76
57.453,16.94
57.468,17.52
57.484,16.8
57.500,15.26
57.515,13.4
57.531,11.68
57.546,10.26
57.562,9.08
57.578,7.96
57.593,6.62
57.609,4.9
57.625,2.76
57.640,0.31
57.656,-2.29
57.671,-4.93
57.687,-7.57
57.703,-10.33
57.718,-13.39
57.734,-16.93
57.750,-21.04
57.765,-25.67
57.781,-30.62
57.796,-35.62
57.812,-40.41
57.828,-44.69
57.843,-48.16
57.859,-50.39
57.875,-50.85
57.890,-49.01
57.906,-44.51
57.921,-37.45
57.937,-28.35
57.953,-18.07
57.968,-7.52
57.984,2.63
58.000,12.06
58.015,20.74
58.031,28.66
58.046,35.67
58.062,41.45
58.078,45.63
58.093,48.07
58.109,48.93
58.125,48.68
58.140,47.8
58.156,46.57
58.171,44.81
58.187,42.2
58.203,38.5
58.218,33.87
58.234,28.99
58.250,24.78
58.265,22.07
58.281,21.24
58.296,22.05
58.312,23.79
58.328,25.62
58.343,26.95
58.359,27.57
58.375,27.58
58.390,27.23
58.406,26.62
58.421,25.64
58.437,24.09
58.453,21.81
58.468,19.04
58.484,16.27
58.500,14.18
58.515,13.3
58.531,13.75
58.546,15.15
58.562,16.8
58.578,18.07
58.593,18.69
58.609,18.88
58.625,19.23
58.640,20.38
58.656,22.63
58.671,25.72
58.687,28.73
58.703,30.42
58.718,29.51
58.734,25.13
58.750,17.12
58.765,6.07
58.781,-6.74
58.796,-19.72
58.812,-31.36
58.828,-40.57
58.843,-46.78
58.859,-49.98
58.875,-50.58
58.890,-49.15
58.906,-46.34
58.921,-42.75
58.937,-38.94
58.953,-35.42
58.968,-32.68
58.984,-31.03
59.000,-30.48
59.015,-30.69
59.031,-31.02
59.046,-30.82
59.062,-29.61
59.078,-27.22
59.093,-23.74
59.109,-19.4
59.125,-14.38
59.140,-8.84
59.156,-2.95
59.171,3.04
59.187,8.79
59.203,14.06
59.218,18.77
59.234,23.04
59.250,26.99
59.265,30.56
59.281,33.4
59.296,35.13
59.312,35.66
59.328,35.42
59.343,35.34
59.359,36.31
59.375,38.68
59.390,41.82
59.406,44.39
59.421,44.92
59.437,42.52
59.453,37.32
59.468,30.32
59.484,22.82
59.500,15.76
59.515,9.31
59.531,2.94
59.546,-4.15
59.562,-12.55
59.578,-22.26
59.593,-32.7
59.609,-42.92
59.625,-51.88
59.640,-58.82
59.656,-63.27
59.671,-65.08
59.687,-64.24
59.703,-60.75
59.718,-54.62
59.734,-45.95
59.750,-35.26
59.765,-23.46
59.781,-11.93
59.796,-2.1
59.812,4.96
59.828,8.97
59.843,10.5
59.859,10.7
59.875,10.84
59.890,11.76
59.906,13.58
59.921,15.9
59.937,18.13
59.953,19.97
59.968,21.51
59.984,23.16
