timestamp,value
00.000,-3.83
00.015,-7.69
00.031,-13.09
00.046,-20.55
00.062,-30.13
00.078,-41.02
00.093,-51.43
00.109,-58.83
00.125,-60.6
00.140,-55.02
00.156,-41.96
00.171,-23.16
00.187,-1.61
00.203,19.37
00.218,37.12
00.234,50.16
00.250,58.14
00.265,61.38
00.281,60.47
00.296,56.05
00.312,48.84
00.328,39.82
00.343,30.24
00.359,21.39
00.375,14.26
00.390,9.26
00.406,6.2
00.421,4.35
00.437,2.77
00.453,0.57
00.468,-2.95
00.484,-8.26
00.500,-15.55
00.515,-24.65
00.531,-34.84
00.546,-44.72
00.562,-52.29
00.578,-55.43
00.593,-52.49
00.609,-43.0
00.625,-27.91
00.640,-9.42
00.656,9.71
00.671,26.91
00.687,40.38
00.703,49.17
00.718,53.05
00.734,52.16
00.750,46.82
00.765,37.53
00.781,25.15
00.796,10.9
00.812,-3.81
00.828,-17.68
00.843,-29.97
00.859,-40.59
00.875,-50.07
00.890,-59.15
00.906,-68.41
00.921,-77.93
00.937,-87.46
00.953,-96.53
00.968,-104.66
00.984,-111.32
01.000,-115.62
01.015,-116.22
01.031,-111.48
01.046,-99.99
01.062,-81.38
01.078,-56.71
01.093,-28.49
01.109,0.05
01.125,25.87
01.140,46.88
01.156,62.25
01.171,72.24
01.187,77.7
01.203,79.64
01.218,78.99
01.234,76.62
01.250,73.37
01.265,70.09
01.281,67.56
01.296,66.33
01.312,66.63
01.328,68.27
01.343,70.74
01.359,73.42
01.375,75.68
01.390,77.02
01.406,77.11
01.421,75.76
01.437,73.04
01.453,69.45
01.468,66.07
01.484,64.54
01.500,66.66
01.515,73.84
01.531,86.35
01.546,103.06
01.562,121.64
01.578,139.18
01.593,153.07
01.609,161.59
01.625,164.18
01.640,161.18
01.656,153.46
01.671,142.02
01.687,127.73
01.703,111.35
01.718,93.51
01.734,74.9
01.750,56.26
01.765,38.43
01.781,22.24
01.796,8.4
01.812,-2.64
01.828,-10.84
01.843,-16.6
01.859,-20.74
01.875,-24.32
01.890,-28.45
01.906,-33.87
01.921,-40.66
01.937,-47.96
01.953,-53.92
01.968,-56.1
01.984,-52.13
02.000,-40.46
02.015,-20.97
02.031,4.93
02.046,34.64
02.062,65.2
02.078,93.95
02.093,119.08
02.109,139.7
02.125,155.61
02.140,166.92
02.156,173.86
02.171,176.62
02.187,175.52
02.203,171.1
02.218,164.05
02.234,155.2
02.250,145.2
02.265,134.48
02.281,123.19
02.296,111.3
02.312,98.77
02.328,85.6
02.343,71.78
02.359,57.18
02.375,41.72
02.390,25.53
02.406,9.2
02.421,-6.01
02.437,-18.39
02.453,-26.13
02.468,-27.89
02.484,-23.23
02.500,-12.7
02.515,2.32
02.531,19.98
02.546,38.45
02.562,56.31
02.578,72.72
02.593,87.52
02.609,101.13
02.625,114.32
02.640,127.77
02.656,141.66
02.671,155.15
02.687,166.29
02.703,172.41
02.718,170.81
02.734,159.86
02.750,139.58
02.765,111.81
02.781,79.59
02.796,46.15
02.812,13.83
02.828,-16.46
02.843,-45.24
02.859,-74.04
02.875,-104.53
02.890,-137.7
02.906,-173.16
02.921,-208.88
02.937,-241.46
02.953,-267.13
02.968,-282.99
02.984,-288.04
03.000,-283.61
03.015,-272.7
03.031,-258.85
03.046,-244.92
03.062,-232.56
03.078,-222.32
03.093,-214.21
03.109,-208.22
03.125,-204.37
03.140,-202.44
03.156,-201.62
03.171,-200.61
03.187,-198.01
03.203,-192.91
03.218,-185.32
03.234,-176.15
03.250,-166.99
03.265,-159.54
03.281,-155.17
03.296,-154.38
03.312,-156.63
03.328,-160.2
03.343,-162.43
03.359,-160.25
03.375,-151.12
03.390,-133.84
03.406,-109.07
03.421,-79.24
03.437,-47.73
03.453,-17.94
03.468,7.6
03.484,27.6
03.500,41.85
03.515,50.68
03.531,54.53
03.546,53.85
03.562,49.2
03.578,41.48
03.593,31.92
03.609,21.93
03.625,12.72
03.640,4.97
03.656,-1.24
03.671,-6.32
03.687,-10.84
03.703,-15.3
03.718,-20.02
03.734,-25.16
03.750,-30.94
03.765,-37.57
03.781,-45.16
03.796,-53.23
03.812,-60.48
03.828,-64.78
03.843,-63.79
03.859,-55.79
03.875,-40.55
03.890,-19.6
03.906,4.12
03.921,27.14
03.937,46.52
03.953,60.52
03.968,68.68
03.984,71.49
04.000,69.91
04.015,64.96
04.031,57.55
04.046,48.56
04.062,38.9
04.078,29.5
04.093,21.11
04.109,14.11
04.125,8.45
04.140,3.7
04.156,-0.7
04.171,-5.2
04.187,-9.95
04.203,-14.94
04.218,-20.18
04.234,-25.95
04.250,-32.67
04.265,-40.5
04.281,-48.82
04.296,-55.97
04.312,-59.52
04.328,-57.12
04.343,-47.47
04.359,-31.02
04.375,-10.01
04.390,12.31
04.406,32.67
04.421,48.72
04.437,59.43
04.453,64.89
04.468,65.84
04.484,63.21
04.500,57.94
04.515,50.89
04.531,42.99
04.546,35.16
04.562,28.17
04.578,22.54
04.593,18.37
04.609,15.45
04.625,13.31
04.640,11.43
04.656,9.4
04.671,6.98
04.687,4.03
04.703,0.43
04.718,-3.97
04.734,-9.19
04.750,-14.88
04.765,-20.17
04.781,-23.6
04.796,-23.45
04.812,-18.33
04.828,-7.8
04.843,7.33
04.859,25.18
04.875,43.32
04.890,59.58
04.906,72.47
04.921,81.4
04.937,86.42
04.953,87.94
04.968,86.44
04.984,82.46
05.000,76.61
05.015,69.67
05.031,62.52
05.046,55.98
05.062,50.62
05.078,46.69
05.093,44.09
05.109,42.5
05.125,41.5
05.140,40.64
05.156,39.43
05.171,37.38
05.187,33.98
05.203,28.99
05.218,22.7
05.234,16.16
05.250,11.12
05.265,9.59
05.281,13.15
05.296,22.29
05.312,36.28
05.328,53.35
05.343,71.35
05.359,88.4
05.375,103.2
05.390,115.06
05.406,123.6
05.421,128.55
05.437,129.61
05.453,126.69
05.468,120.09
05.484,110.61
05.500,99.41
05.515,87.76
05.531,76.68
05.546,66.8
05.562,58.23
05.578,50.69
05.593,43.66
05.609,36.52
05.625,28.7
05.640,19.7
05.656,9.29
05.671,-2.39
05.687,-14.61
05.703,-26.08
05.718,-35.14
05.734,-40.17
05.750,-40.12
05.765,-34.86
05.781,-25.18
05.796,-12.57
05.812,1.22
05.828,14.54
05.843,26.07
05.859,34.95
05.875,40.59
05.890,42.71
05.906,41.36
05.921,36.92
05.937,30.12
05.953,21.93
05.968,13.43
05.984,5.52
06.000,-1.16
06.015,-6.37
06.031,-10.29
06.046,-13.31
06.062,-15.98
06.078,-18.82
06.093,-22.32
06.109,-26.92
06.125,-33.1
06.140,-41.17
06.156,-51.02
06.171,-61.78
06.187,-71.75
06.203,-78.61
06.218,-80.19
06.234,-75.22
06.250,-63.84
06.265,-47.61
06.281,-28.97
06.296,-10.46
06.312,5.97
06.328,19.2
06.343,28.82
06.359,34.91
06.375,37.67
06.390,37.39
06.406,34.42
06.421,29.31
06.437,22.74
06.453,15.47
06.468,8.2
06.484,1.46
06.500,-4.46
06.515,-9.53
06.531,-13.94
06.546,-18.05
06.562,-22.24
06.578,-26.92
06.593,-32.53
06.609,-39.39
06.625,-47.58
06.640,-56.77
06.656,-65.98
06.671,-73.72
06.687,-78.26
06.703,-78.16
06.718,-72.76
06.734,-62.42
06.750,-48.47
06.765,-32.77
06.781,-17.22
06.796,-3.43
06.812,7.48
06.828,14.89
06.843,18.56
06.859,18.6
06.875,15.39
06.890,9.57
06.906,1.89
06.921,-6.9
06.937,-16.02
06.953,-24.84
06.968,-32.83
06.984,-39.68
07.000,-45.33
07.015,-50.02
07.031,-54.17
07.046,-58.3
07.062,-62.84
07.078,-68.07
07.093,-74.18
07.109,-81.28
07.125,-89.17
07.140,-97.28
07.156,-104.46
07.171,-109.07
07.187,-109.49
07.203,-104.56
07.218,-94.14
07.234,-79.12
07.250,-61.24
07.265,-42.48
07.281,-24.59
07.296,-8.73
07.312,4.49
07.328,14.88
07.343,22.49
07.359,27.49
07.375,30.12
07.390,30.67
07.406,29.57
07.421,27.33
07.437,24.57
07.453,21.96
07.468,20.24
07.484,20.04
07.500,21.73
07.515,25.34
07.531,30.38
07.546,35.91
07.562,40.63
07.578,43.16
07.593,42.45
07.609,38.14
07.625,30.79
07.640,21.93
07.656,13.74
07.671,8.42
07.687,7.58
07.703,11.8
07.718,20.48
07.734,32.2
07.750,45.19
07.765,57.81
07.781,68.94
07.796,77.99
07.812,84.86
07.828,89.73
07.843,92.89
07.859,94.68
07.875,95.37
07.890,95.14
07.906,94.05
07.921,92.02
07.937,88.93
07.953,84.58
07.968,78.86
07.984,71.81
08.000,63.63
08.015,54.69
08.031,45.31
08.046,35.67
08.062,25.66
08.078,15.02
08.093,3.63
08.109,-8.07
08.125,-18.92
08.140,-27.21
08.156,-31.23
08.171,-29.89
08.187,-23.27
08.203,-12.58
08.218,0.23
08.234,13.03
08.250,24.11
08.265,32.43
08.281,37.51
08.296,39.26
08.312,37.87
08.328,33.62
08.343,27.05
08.359,18.88
08.375,9.96
08.390,1.11
08.406,-7.02
08.421,-14.13
08.437,-20.26
08.453,-25.7
08.468,-30.78
08.484,-35.65
08.500,-40.2
08.515,-44.12
08.531,-47.13
08.546,-49.13
08.562,-50.38
08.578,-51.22
08.593,-51.84
08.609,-51.86
08.625,-50.41
08.640,-46.34
08.656,-38.79
08.671,-27.65
08.687,-13.7
08.703,1.52
08.718,16.21
08.734,28.8
08.750,38.22
08.765,44.02
08.781,46.26
08.796,45.3
08.812,41.66
08.828,35.97
08.843,28.78
08.859,20.66
08.875,12.08
08.890,3.44
08.906,-5.0
08.921,-13.02
08.937,-20.52
08.953,-27.46
08.968,-33.84
08.984,-39.7
09.000,-45.11
09.015,-50.18
09.031,-55.2
09.046,-60.54
09.062,-66.48
09.078,-73.07
09.093,-79.91
09.109,-86.07
09.125,-90.27
09.140,-91.24
09.156,-88.09
09.171,-80.68
09.187,-69.69
09.203,-56.4
09.218,-42.41
09.234,-29.28
09.250,-18.21
09.265,-9.94
09.281,-4.7
09.296,-2.29
09.312,-2.22
09.328,-3.85
09.343,-6.49
09.359,-9.58
09.375,-12.68
09.390,-15.5
09.406,-17.89
09.421,-19.8
09.437,-21.28
09.453,-22.4
09.468,-23.23
09.484,-23.8
09.500,-24.09
09.515,-24.08
09.531,-23.88
09.546,-23.7
09.562,-23.85
09.578,-24.54
09.593,-25.6
09.609,-26.39
09.625,-25.88
09.640,-22.96
09.656,-16.87
09.671,-7.5
09.687,4.5
09.703,17.95
09.718,31.49
09.734,43.95
09.750,54.49
09.765,62.68
09.781,68.3
09.796,71.32
09.812,71.79
09.828,69.91
09.843,66.05
09.859,60.78
09.875,54.76
09.890,48.65
09.906,42.98
09.921,38.09
09.937,34.05
09.953,30.75
09.968,27.93
09.984,25.31
10.000,22.61
10.015,19.62
10.031,16.15
10.046,12.1
10.062,7.41
10.078,2.35
10.093,-2.44
10.109,-5.92
10.125,-6.83
10.140,-4.17
10.156,2.49
10.171,12.69
10.187,25.23
10.203,38.5
10.218,50.91
10.234,61.31
10.250,69.05
10.265,73.95
10.281,76.1
10.296,75.75
10.312,73.23
10.328,69.02
10.343,63.63
10.359,57.59
10.375,51.39
10.390,45.38
10.406,39.83
10.421,34.92
10.437,30.76
10.453,27.39
10.468,24.7
10.484,22.45
10.500,20.23
10.515,17.62
10.531,14.25
10.546,9.99
10.562,4.99
10.578,-0.3
10.593,-5.18
10.609,-8.83
10.625,-10.49
10.640,-9.63
10.656,-6.08
10.671,-0.07
10.687,7.79
10.703,16.64
10.718,25.44
10.734,33.19
10.750,39.05
10.765,42.44
10.781,43.18
10.796,41.44
10.812,37.7
10.828,32.56
10.843,26.67
10.859,20.56
10.875,14.64
10.890,9.18
10.906,4.36
10.921,0.24
10.937,-3.27
10.953,-6.35
10.968,-9.3
10.984,-12.37
11.000,-15.76
11.015,-19.58
11.031,-23.94
11.046,-28.91
11.062,-34.5
11.078,-40.47
11.093,-46.24
11.109,-50.89
11.125,-53.37
11.140,-52.79
11.156,-48.78
11.171,-41.62
11.187,-32.14
11.203,-21.48
11.218,-10.78
11.234,-0.99
11.250,7.17
11.265,13.19
11.281,16.78
11.296,17.88
11.312,16.75
11.328,13.94
11.343,10.25
11.359,6.54
11.375,3.46
11.390,1.32
11.406,0.03
11.421,-0.77
11.437,-1.55
11.453,-2.67
11.468,-4.21
11.484,-6.08
11.500,-8.05
11.515,-10.02
11.531,-12.05
11.546,-14.44
11.562,-17.54
11.578,-21.52
11.593,-26.13
11.609,-30.75
11.625,-34.51
11.640,-36.56
11.656,-36.35
11.671,-33.77
11.687,-29.09
11.703,-22.91
11.718,-15.91
11.734,-8.84
11.750,-2.42
11.765,2.61
11.781,5.68
11.796,6.44
11.812,4.95
11.828,1.66
11.843,-2.73
11.859,-7.43
11.875,-11.84
11.890,-15.61
11.906,-18.7
11.921,-21.23
11.937,-23.39
11.953,-25.36
11.968,-27.2
11.984,-28.96
12.000,-30.67
12.015,-32.41
12.031,-34.23
12.046,-36.23
12.062,-38.54
12.078,-41.28
12.093,-44.54
12.109,-48.25
12.125,-52.06
12.140,-55.27
12.156,-56.91
12.171,-55.97
12.187,-51.73
12.203,-44.06
12.218,-33.49
12.234,-21.08
12.250,-8.16
12.265,4.05
12.281,14.64
12.296,23.13
12.312,29.4
12.328,33.59
12.343,35.93
12.359,36.7
12.375,36.14
12.390,34.53
12.406,32.11
12.421,29.15
12.437,25.96
12.453,22.87
12.468,20.17
12.484,18.08
12.500,16.7
12.515,15.96
12.531,15.68
12.546,15.57
12.562,15.27
12.578,14.43
12.593,12.76
12.609,10.15
12.625,6.73
12.640,2.97
12.656,-0.39
12.671,-2.38
12.687,-2.07
12.703,1.26
12.718,7.87
12.734,17.45
12.750,29.19
12.765,41.96
12.781,54.49
12.796,65.67
12.812,74.71
12.828,81.27
12.843,85.36
12.859,87.26
12.875,87.3
12.890,85.82
12.906,83.1
12.921,79.41
12.937,75.13
12.953,70.79
12.968,66.94
12.984,64.09
13.000,62.52
13.015,62.18
13.031,62.78
13.046,63.85
13.062,64.94
13.078,65.59
13.093,65.46
13.109,64.32
13.125,62.06
13.140,58.84
13.156,55.08
13.171,51.47
13.187,48.84
13.203,47.93
13.218,49.21
13.234,52.74
13.250,58.09
13.265,64.47
13.281,70.95
13.296,76.62
13.312,80.88
13.328,83.57
13.343,84.97
13.359,85.66
13.375,86.24
13.390,87.09
13.406,88.18
13.421,89.18
13.437,89.61
13.453,89.15
13.468,87.7
13.484,85.52
13.500,83.01
13.515,80.58
13.531,78.51
13.546,76.98
13.562,76.04
13.578,75.7
13.593,75.82
13.609,76.02
13.625,75.6
13.640,73.59
13.656,69.12
13.671,61.75
13.687,51.75
13.703,40.25
13.718,28.96
13.734,19.74
13.750,14.14
13.765,13.02
13.781,16.37
13.796,23.35
13.812,32.41
13.828,41.51
13.843,48.46
13.859,51.37
13.875,49.09
13.890,41.4
13.906,28.99
13.921,13.12
13.937,-4.89
13.953,-23.84
13.968,-42.92
13.984,-61.39
14.000,-78.61
14.015,-93.96
14.031,-107.15
14.046,-118.39
14.062,-128.48
14.078,-138.61
14.093,-149.88
14.109,-162.92
14.125,-177.75
14.140,-193.91
14.156,-210.69
14.171,-227.34
14.187,-243.04
14.203,-256.94
14.218,-268.05
14.234,-275.51
14.250,-278.83
14.265,-278.07
14.281,-273.8
14.296,-266.92
14.312,-258.3
14.328,-248.58
14.343,-238.2
14.359,-227.45
14.375,-216.68
14.390,-206.21
14.406,-196.29
14.421,-186.92
14.437,-177.91
14.453,-168.98
14.468,-159.97
14.484,-150.94
14.500,-142.23
14.515,-134.29
14.531,-127.45
14.546,-121.72
14.562,-116.85
14.578,-112.31
14.593,-107.59
14.609,-102.31
14.625,-96.43
14.640,-90.2
14.656,-84.1
14.671,-78.65
14.687,-74.06
14.703,-70.11
14.718,-66.03
14.734,-60.67
14.750,-52.9
14.765,-42.04
14.781,-28.18
14.796,-12.21
14.812,4.4
14.828,20.11
14.843,33.65
14.859,44.27
14.875,51.68
14.890,55.87
14.906,56.97
14.921,55.23
14.937,51.02
14.953,44.97
14.968,37.82
14.984,30.32
15.000,23.03
15.015,16.17
15.031,9.73
15.046,3.58
15.062,-2.25
15.078,-7.46
15.093,-11.59
15.109,-14.17
15.125,-15.04
15.140,-14.39
15.156,-12.86
15.171,-11.26
15.187,-10.36
15.203,-10.6
15.218,-11.88
15.234,-13.52
15.250,-14.39
15.265,-13.24
15.281,-9.05
15.296,-1.43
15.312,9.26
15.328,21.93
15.343,35.19
15.359,47.63
15.375,58.2
15.390,66.35
15.406,72.02
15.421,75.47
15.437,77.19
15.453,77.78
15.468,77.89
15.484,78.09
15.500,78.74
15.515,79.91
15.531,81.41
15.546,82.83
15.562,83.74
15.578,83.83
15.593,82.94
15.609,81.06
15.625,78.34
15.640,74.98
15.656,71.19
15.671,67.11
15.687,62.62
15.703,57.4
15.718,51.03
15.734,43.34
15.750,34.65
15.765,25.93
15.781,18.53
15.796,13.77
15.812,12.53
15.828,14.96
15.843,20.55
15.859,28.43
15.875,37.69
15.890,47.5
15.906,57.13
15.921,65.89
15.937,73.13
15.953,78.31
15.968,81.15
15.984,81.65
16.000,80.03
16.015,76.69
16.031,71.97
16.046,66.23
16.062,59.88
16.078,53.35
16.093,47.17
16.109,41.72
16.125,37.18
16.140,33.4
16.156,29.9
16.171,26.03
16.187,21.1
16.203,14.63
16.218,6.48
16.234,-3.1
16.250,-13.42
16.265,-23.41
16.281,-31.76
16.296,-37.16
16.312,-38.57
16.328,-35.56
16.343,-28.42
16.359,-18.12
16.375,-6.14
16.390,5.96
16.406,16.79
16.421,25.31
16.437,30.91
16.453,33.4
16.468,32.91
16.484,29.96
16.500,25.38
16.515,20.17
16.531,15.3
16.546,11.46
16.562,8.88
16.578,7.34
16.593,6.41
16.609,5.59
16.625,4.6
16.640,3.42
16.656,2.08
16.671,0.61
16.687,-1.17
16.703,-3.66
16.718,-7.39
16.734,-12.75
16.750,-19.83
16.765,-28.26
16.781,-37.09
16.796,-44.97
16.812,-50.45
16.828,-52.41
16.843,-50.44
16.859,-45.01
16.875,-37.25
16.890,-28.61
16.906,-20.36
16.921,-13.29
16.937,-7.74
16.953,-3.69
16.968,-1.05
16.984,0.3
17.000,0.5
17.015,-0.23
17.031,-1.55
17.046,-3.11
17.062,-4.77
17.078,-6.79
17.093,-9.76
17.109,-14.4
17.125,-21.21
17.140,-30.08
17.156,-40.21
17.171,-50.31
17.187,-58.99
17.203,-65.27
17.218,-69.02
17.234,-70.94
17.250,-72.4
17.265,-74.93
17.281,-79.67
17.296,-87.01
17.312,-96.29
17.328,-105.97
17.343,-113.9
17.359,-117.93
17.375,-116.47
17.390,-108.97
17.406,-96.0
17.421,-79.01
17.437,-59.85
17.453,-40.34
17.468,-21.95
17.484,-5.76
17.500,7.48
17.515,17.33
17.531,23.75
17.546,27.16
17.562,28.43
17.578,28.62
17.593,28.67
17.609,29.0
17.625,29.43
17.640,29.31
17.656,27.86
17.671,24.59
17.687,19.5
17.703,13.09
17.718,6.1
17.734,-0.68
17.750,-6.73
17.765,-11.86
17.781,-16.23
17.796,-20.22
17.812,-24.3
17.828,-28.82
17.843,-33.84
17.859,-39.0
17.875,-43.43
17.890,-45.89
17.906,-45.05
17.921,-39.83
17.937,-29.76
17.953,-15.09
17.968,3.21
17.984,23.78
18.000,45.06
18.015,65.54
18.031,83.89
18.046,98.99
18.062,110.05
18.078,116.76
18.093,119.36
18.109,118.67
18.125,115.93
18.140,112.5
18.156,109.54
18.171,107.76
18.187,107.32
18.203,107.94
18.218,109.13
18.234,110.35
18.250,111.14
18.265,111.11
18.281,109.8
18.296,106.64
18.312,101.04
18.328,92.44
18.343,80.51
18.359,65.34
18.375,47.57
18.390,28.42
18.406,9.67
18.421,-6.59
18.437,-18.35
18.453,-24.15
18.468,-23.47
18.484,-16.81
18.500,-5.43
18.515,9.1
18.531,25.34
18.546,42.22
18.562,58.87
18.578,74.42
18.593,87.81
18.609,97.88
18.625,103.67
18.640,104.78
18.656,101.43
18.671,94.29
18.687,84.17
18.703,71.68
18.718,57.09
18.734,40.52
18.750,22.1
18.765,2.15
18.781,-18.95
18.796,-40.82
18.812,-63.26
18.828,-86.28
18.843,-109.87
18.859,-133.9
18.875,-157.93
18.890,-181.35
18.906,-203.39
18.921,-223.18
18.937,-239.68
18.953,-251.65
18.968,-257.83
18.984,-257.25
19.000,-249.63
19.015,-235.6
19.031,-216.53
19.046,-194.07
19.062,-169.74
19.078,-144.56
19.093,-119.24
19.109,-94.33
19.125,-70.55
19.140,-48.72
19.156,-29.63
19.171,-13.69
19.187,-0.76
19.203,9.76
19.218,18.74
19.234,26.96
19.250,34.95
19.265,42.83
19.281,50.44
19.296,57.37
19.312,63.19
19.328,67.6
19.343,70.46
19.359,71.83
19.375,71.76
19.390,70.22
19.406,67.03
19.421,61.89
19.437,54.65
19.453,45.46
19.468,34.9
19.484,23.95
19.500,13.87
19.515,5.95
19.531,1.31
19.546,0.69
19.562,4.35
19.578,11.97
19.593,22.76
19.609,35.57
19.625,49.04
19.640,61.86
19.656,72.84
19.671,81.03
19.687,85.81
19.703,86.89
19.718,84.44
19.734,79.08
19.750,71.72
19.765,63.45
19.781,55.11
19.796,47.19
19.812,39.62
19.828,32.01
19.843,23.85
19.859,14.8
19.875,4.92
19.890,-5.41
19.906,-15.66
19.921,-25.34
19.937,-34.21
19.953,-42.3
19.968,-49.85
19.984,-57.13
20.000,-64.33
20.015,-71.54
20.031,-78.63
20.046,-85.17
20.062,-90.31
20.078,-92.92
20.093,-91.71
20.109,-85.7
20.125,-74.52
20.140,-58.58
20.156,-38.98
20.171,-17.17
20.187,5.35
20.203,27.24
20.218,47.22
20.234,64.15
20.250,77.03
20.265,85.27
20.281,88.93
20.296,88.94
20.312,86.83
20.328,84.3
20.343,82.6
20.359,82.23
20.375,82.85
20.390,83.55
20.406,83.3
20.421,81.37
20.437,77.53
20.453,72.11
20.468,65.87
20.484,59.83
20.500,55.03
20.515,52.21
20.531,51.54
20.546,52.41
20.562,53.45
20.578,52.96
20.593,49.54
20.609,42.75
20.625,33.33
20.640,23.0
20.656,13.77
20.671,7.13
20.687,3.62
20.703,2.88
20.718,4.06
20.734,6.4
20.750,9.37
20.765,12.65
20.781,15.73
20.796,17.77
20.812,17.66
20.828,14.54
20.843,8.13
20.859,-0.95
20.875,-11.4
20.890,-21.64
20.906,-30.31
20.921,-36.57
20.937,-40.14
20.953,-41.17
20.968,-39.92
20.984,-36.62
21.000,-31.43
21.015,-24.53
21.031,-16.26
21.046,-7.27
21.062,1.46
21.078,8.81
21.093,13.73
21.109,15.66
21.125,14.7
21.140,11.79
21.156,8.56
21.171,6.98
21.187,8.75
21.203,14.98
21.218,25.79
21.234,40.37
21.250,57.26
21.265,74.62
21.281,90.66
21.296,103.9
21.312,113.36
21.328,118.63
21.343,119.95
21.359,118.09
21.375,114.24
21.390,109.63
21.406,105.18
21.421,101.19
21.437,97.16
21.453,91.96
21.468,84.17
21.484,72.68
21.500,57.08
21.515,37.87
21.531,16.3
21.546,-6.15
21.562,-28.23
21.578,-49.29
21.593,-69.35
21.609,-88.85
21.625,-108.35
21.640,-128.24
21.656,-148.41
21.671,-168.11
21.687,-185.98
21.703,-200.15
21.718,-208.78
21.734,-210.55
21.750,-205.16
21.765,-193.46
21.781,-177.22
21.796,-158.56
21.812,-139.4
21.828,-121.14
21.843,-104.61
21.859,-90.36
21.875,-78.8
21.890,-70.3
21.906,-65.05
21.921,-62.87
21.937,-63.19
21.953,-65.15
21.968,-67.88
21.984,-70.73
22.000,-73.37
22.015,-75.73
22.031,-77.86
22.046,-79.73
22.062,-81.21
22.078,-82.1
22.093,-82.32
22.109,-82.09
22.125,-81.87
22.140,-82.3
22.156,-84.01
22.171,-87.41
22.187,-92.52
22.203,-98.83
22.218,-105.32
22.234,-110.56
22.250,-112.97
22.265,-111.16
22.281,-104.33
22.296,-92.44
22.312,-76.18
22.328,-56.79
22.343,-35.7
22.359,-14.34
22.375,5.98
22.390,24.04
22.406,38.74
22.421,49.16
22.437,54.8
22.453,55.69
22.468,52.5
22.484,46.37
22.500,38.63
22.515,30.53
22.531,23.0
22.546,16.58
22.562,11.36
22.578,7.12
22.593,3.43
22.609,-0.22
22.625,-4.27
22.640,-8.92
22.656,-14.08
22.671,-19.48
22.687,-24.78
22.703,-29.95
22.718,-35.23
22.734,-41.07
22.750,-47.75
22.765,-55.03
22.781,-61.95
22.796,-67.06
22.812,-68.85
22.828,-66.37
22.843,-59.56
22.859,-49.23
22.875,-36.69
22.890,-23.32
22.906,-10.2
22.921,2.0
22.937,12.86
22.953,22.04
22.968,29.29
22.984,34.43
23.000,37.59
23.015,39.23
23.031,40.06
23.046,40.75
23.062,41.7
23.078,42.88
23.093,43.92
23.109,44.4
23.125,44.03
23.140,42.86
23.156,41.16
23.171,39.26
23.187,37.31
23.203,35.25
23.218,32.8
23.234,29.59
23.250,25.32
23.265,19.87
23.281,13.44
23.296,6.72
23.312,0.84
23.328,-2.72
23.343,-2.46
23.359,2.73
23.375,13.17
23.390,28.26
23.406,46.62
23.421,66.46
23.437,85.93
23.453,103.42
23.468,117.73
23.484,128.17
23.500,134.61
23.515,137.36
23.531,137.12
23.546,134.76
23.562,131.04
23.578,126.49
23.593,121.28
23.609,115.36
23.625,108.55
23.640,100.79
23.656,92.18
23.671,83.07
23.687,73.88
23.703,65.07
23.718,57.02
23.734,49.87
23.750,43.52
23.765,37.55
23.781,31.29
23.796,24.02
23.812,15.27
23.828,5.08
23.843,-5.7
23.859,-15.5
23.875,-22.45
23.890,-24.87
23.906,-21.96
23.921,-14.02
23.937,-2.33
23.953,11.31
23.968,25.13
23.984,37.76
24.000,48.28
24.015,56.15
24.031,61.03
24.046,62.83
24.062,61.73
24.078,58.33
24.093,53.48
24.109,48.05
24.125,42.71
24.140,37.78
24.156,33.18
24.171,28.63
24.187,23.77
24.203,18.28
24.218,11.99
24.234,4.91
24.250,-2.8
24.265,-10.79
24.281,-18.73
24.296,-26.43
24.312,-33.94
24.328,-41.64
24.343,-50.01
24.359,-59.41
24.375,-69.7
24.390,-80.05
24.406,-89.0
24.421,-94.76
24.437,-95.72
24.453,-90.96
24.468,-80.66
24.484,-66.05
24.500,-49.0
24.515,-31.54
24.531,-15.3
24.546,-1.33
24.562,9.81
24.578,17.81
24.593,22.44
24.609,23.54
24.625,21.2
24.640,15.96
24.656,8.73
24.671,0.69
24.687,-7.1
24.703,-13.97
24.718,-19.75
24.734,-24.7
24.750,-29.26
24.765,-33.8
24.781,-38.42
24.796,-42.93
24.812,-46.96
24.828,-50.18
24.843,-52.45
24.859,-53.96
24.875,-55.16
24.890,-56.67
24.906,-59.07
24.921,-62.81
24.937,-67.96
24.953,-74.1
24.968,-80.19
24.984,-84.71
25.000,-85.93
25.015,-82.46
25.031,-73.68
25.046,-60.07
25.062,-43.05
25.078,-24.56
25.093,-6.46
25.109,9.9
25.125,23.71
25.140,34.66
25.156,42.58
25.171,47.34
25.187,48.93
25.203,47.62
25.218,44.1
25.234,39.43
25.250,34.7
25.265,30.73
25.281,27.77
25.296,25.52
25.312,23.33
25.328,20.63
25.343,17.22
25.359,13.34
25.375,9.59
25.390,6.54
25.406,4.52
25.421,3.44
25.437,2.83
25.453,2.04
25.468,0.4
25.484,-2.59
25.500,-7.06
25.515,-12.72
25.531,-18.74
25.546,-23.86
25.562,-26.57
25.578,-25.48
25.593,-19.57
25.609,-8.6
25.625,6.9
25.640,25.65
25.656,45.95
25.671,65.96
25.687,83.97
25.703,98.67
25.718,109.14
25.734,115.05
25.750,116.53
25.765,114.21
25.781,109.1
25.796,102.35
25.812,95.04
25.828,87.94
25.843,81.4
25.859,75.32
25.875,69.4
25.890,63.35
25.906,57.1
25.921,50.94
25.937,45.3
25.953,40.62
25.968,37.0
25.984,34.17
26.000,31.46
26.015,28.0
26.031,22.97
26.046,15.75
26.062,6.22
26.078,-5.18
26.093,-17.32
26.109,-28.53
26.125,-36.9
26.140,-40.78
26.156,-39.16
26.171,-32.01
26.187,-20.25
26.203,-5.5
26.218,10.34
26.234,25.49
26.250,38.5
26.265,48.37
26.281,54.46
26.296,56.5
26.312,54.57
26.328,49.13
26.343,41.05
26.359,31.49
26.375,21.75
26.390,12.89
26.406,5.5
26.421,-0.5
26.437,-5.74
26.453,-11.11
26.468,-17.47
26.484,-25.15
26.500,-34.0
26.515,-43.49
26.531,-53.03
26.546,-62.31
26.562,-71.41
26.578,-80.76
26.593,-90.91
26.609,-102.4
26.625,-115.49
26.640,-130.03
26.656,-145.34
26.671,-160.12
26.687,-172.56
26.703,-180.73
26.718,-183.1
26.734,-179.0
26.750,-168.88
26.765,-154.17
26.781,-136.79
26.796,-118.54
26.812,-100.68
26.828,-83.83
26.843,-68.14
26.859,-53.56
26.875,-40.03
26.890,-27.54
26.906,-16.12
26.921,-5.82
26.937,3.29
26.953,11.13
26.968,17.63
26.984,22.76
27.000,26.55
27.015,29.12
27.031,30.53
27.046,30.82
27.062,29.95
27.078,27.83
27.093,24.4
27.109,19.69
27.125,13.79
27.140,6.84
27.156,-1.01
27.171,-9.61
27.187,-18.81
27.203,-28.41
27.218,-38.12
27.234,-47.43
27.250,-55.56
27.265,-61.37
27.281,-63.63
27.296,-61.28
27.312,-53.78
27.328,-41.38
27.343,-25.12
27.359,-6.59
27.375,12.51
27.390,30.67
27.406,46.86
27.421,60.4
27.437,70.89
27.453,78.03
27.468,81.62
27.484,81.67
27.500,78.6
27.515,73.31
27.531,67.26
27.546,62.15
27.562,59.47
27.578,60.1
27.593,63.91
27.609,69.8
27.625,76.0
27.640,80.68
27.656,82.57
27.671,81.25
27.687,77.22
27.703,71.5
27.718,65.19
27.734,59.06
27.750,53.34
27.765,47.82
27.781,42.0
27.796,35.35
27.812,27.56
27.828,18.7
27.843,9.35
27.859,0.57
27.875,-6.28
27.890,-9.9
27.906,-9.49
27.921,-4.98
27.937,2.91
27.953,12.91
27.968,23.64
27.984,33.87
28.000,42.69
28.015,49.5
28.031,53.85
28.046,55.47
28.062,54.27
28.078,50.46
28.093,44.58
28.109,37.47
28.125,30.08
28.140,23.28
28.156,17.69
28.171,13.6
28.187,11.07
28.203,9.98
28.218,10.12
28.234,11.22
28.250,12.97
28.265,14.94
28.281,16.72
28.296,17.96
28.312,18.54
28.328,18.73
28.343,19.01
28.359,19.99
28.375,22.13
28.390,25.69
28.406,30.85
28.421,37.87
28.437,47.24
28.453,59.54
28.468,75.16
28.484,93.78
28.500,114.14
28.515,134.07
28.531,150.96
28.546,162.43
28.562,167.05
28.578,164.76
28.593,156.86
28.609,145.63
28.625,133.65
28.640,123.12
28.656,115.31
28.671,110.46
28.687,107.87
28.703,106.36
28.718,104.62
28.734,101.52
28.750,96.26
28.765,88.41
28.781,77.96
28.796,65.27
28.812,51.05
28.828,36.1
28.843,21.18
28.859,6.71
28.875,-7.28
28.890,-21.05
28.906,-34.88
28.921,-48.77
28.937,-62.04
28.953,-73.37
28.968,-80.93
28.984,-82.85
29.000,-77.83
29.015,-65.47
29.031,-46.38
29.046,-21.91
29.062,6.3
29.078,36.79
29.093,68.46
29.109,100.51
29.125,132.33
29.140,163.33
29.156,192.79
29.171,219.94
29.187,243.89
29.203,263.73
29.218,278.61
29.234,287.95
29.250,291.62
29.265,290.0
29.281,283.79
29.296,273.55
29.312,259.55
29.328,241.72
29.343,220.17
29.359,195.52
29.375,169.05
29.390,142.42
29.406,116.99
29.421,93.28
29.437,70.9
29.453,48.92
29.468,26.68
29.484,4.35
29.500,-17.14
29.515,-36.53
29.531,-53.04
29.546,-66.93
29.562,-79.58
29.578,-92.97
29.593,-109.18
29.609,-129.8
29.625,-155.56
29.640,-186.06
29.656,-219.47
29.671,-252.48
29.687,-280.71
29.703,-299.69
29.718,-306.16
29.734,-299.32
29.750,-281.19
29.765,-256.02
29.781,-228.8
29.796,-203.78
29.812,-183.54
29.828,-169.01
29.843,-160.11
29.859,-156.59
29.875,-158.32
29.890,-165.1
29.906,-176.21
29.921,-190.03
29.937,-204.17
29.953,-216.09
29.968,-223.83
29.984,-226.77
30.000,-226.14
30.015,-224.74
30.031,-225.97
30.046,-232.47
30.062,-244.76
30.078,-260.81
30.093,-276.53
30.109,-287.5
30.125,-290.63
30.140,-285.4
30.156,-273.64
30.171,-258.11
30.187,-241.01
30.203,-222.9
30.218,-203.06
30.234,-180.53
30.250,-155.37
30.265,-129.02
30.281,-103.7
30.296,-81.26
30.312,-62.28
30.328,-46.07
30.343,-31.36
30.359,-17.32
30.375,-4.14
30.390,7.04
30.406,14.84
30.421,18.46
30.437,18.09
30.453,14.75
30.468,9.71
30.484,3.94
30.500,-2.26
30.515,-9.18
30.531,-17.39
30.546,-27.37
30.562,-39.14
30.578,-52.1
30.593,-65.14
30.609,-76.74
30.625,-85.35
30.640,-89.67
30.656,-89.03
30.671,-83.51
30.687,-74.04
30.703,-62.08
30.718,-49.22
30.734,-36.79
30.750,-25.49
30.765,-15.42
30.781,-6.29
30.796,2.29
30.812,10.47
30.828,18.13
30.843,24.94
30.859,30.62
30.875,35.01
30.890,38.14
30.906,40.21
30.921,41.45
30.937,42.11
30.953,42.5
30.968,42.97
30.984,43.9
31.000,45.57
31.015,47.96
31.031,50.77
31.046,53.43
31.062,55.15
31.078,55.34
31.093,53.75
31.109,50.58
31.125,46.53
31.140,42.55
31.156,39.55
31.171,38.13
31.187,38.46
31.203,40.23
31.218,42.91
31.234,45.96
31.250,48.92
31.265,51.57
31.281,53.8
31.296,55.58
31.312,56.9
31.328,57.83
31.343,58.59
31.359,59.59
31.375,61.34
31.390,64.41
31.406,69.22
31.421,75.84
31.437,83.92
31.453,92.74
31.468,101.34
31.484,108.83
31.500,114.74
31.515,119.18
31.531,122.87
31.546,126.87
31.562,132.05
31.578,138.6
31.593,145.79
31.609,152.12
31.625,155.82
31.640,155.64
31.656,151.49
31.671,144.56
31.687,137.09
31.703,131.72
31.718,130.73
31.734,135.43
31.750,145.89
31.765,160.96
31.781,178.8
31.796,197.43
31.812,215.39
31.828,231.96
31.843,247.1
31.859,260.99
31.875,273.64
31.890,284.6
31.906,293.02
31.921,297.88
31.937,298.22
31.953,293.37
31.968,283.1
31.984,267.83
32.000,248.8
32.015,228.18
32.031,208.74
32.046,193.19
32.062,183.34
32.078,179.6
32.093,181.0
32.109,185.63
32.125,191.3
32.140,195.97
32.156,197.94
32.171,195.92
32.187,189.14
32.203,177.52
32.218,161.88
32.234,143.72
32.250,124.83
32.265,106.6
32.281,89.62
32.296,73.66
32.312,58.02
32.328,42.11
32.343,25.75
32.359,9.21
32.375,-7.08
32.390,-22.85
32.406,-38.13
32.421,-53.27
32.437,-68.8
32.453,-85.16
32.468,-102.53
32.484,-120.89
32.500,-140.09
32.515,-159.97
32.531,-180.56
32.546,-202.0
32.562,-224.55
32.578,-248.62
32.593,-274.69
32.609,-303.2
32.625,-334.18
32.640,-366.86
32.656,-399.43
32.671,-429.2
32.687,-453.15
32.703,-468.79
32.718,-474.86
32.734,-471.68
32.750,-460.74
32.765,-444.17
32.781,-423.96
32.796,-401.62
32.812,-378.18
32.828,-354.44
32.843,-331.17
32.859,-309.14
32.875,-288.93
32.890,-270.72
32.906,-254.14
32.921,-238.47
32.937,-222.8
32.953,-206.44
32.968,-189.11
32.984,-171.06
33.000,-152.89
33.015,-135.27
33.031,-118.62
33.046,-103.03
33.062,-88.26
33.078,-73.98
33.093,-59.97
33.109,-46.29
33.125,-33.19
33.140,-21.03
33.156,-10.14
33.171,-0.76
33.187,7.03
33.203,13.27
33.218,18.17
33.234,22.06
33.250,25.5
33.265,29.25
33.281,34.25
33.296,41.43
33.312,51.46
33.328,64.45
33.343,79.79
33.359,96.26
33.375,112.44
33.390,127.16
33.406,139.99
33.421,151.42
33.437,162.38
33.453,173.73
33.468,185.57
33.484,196.99
33.500,206.3
33.515,211.64
33.531,211.67
33.546,205.94
33.562,195.0
33.578,179.96
33.593,161.94
33.609,141.64
33.625,119.17
33.640,94.38
33.656,67.09
33.671,37.5
33.687,6.14
33.703,-26.17
33.718,-58.55
33.734,-89.99
33.750,-119.41
33.765,-145.6
33.781,-167.27
33.796,-183.33
33.812,-193.04
33.828,-196.26
33.843,-193.37
33.859,-185.21
33.875,-172.9
33.890,-157.83
33.906,-141.54
33.921,-125.5
33.937,-110.89
33.953,-98.26
33.968,-87.44
33.984,-77.67
34.000,-68.03
34.015,-57.75
34.031,-46.54
34.046,-34.61
34.062,-22.46
34.078,-10.73
34.093,-0.07
34.109,8.88
34.125,15.46
34.140,19.01
34.156,18.99
34.171,15.13
34.187,7.52
34.203,-3.44
34.218,-17.2
34.234,-33.24
34.250,-51.1
34.265,-70.23
34.281,-89.81
34.296,-108.55
34.312,-124.66
34.328,-136.1
34.343,-141.09
34.359,-138.55
34.375,-128.48
34.390,-112.01
34.406,-91.12
34.421,-68.22
34.437,-45.61
34.453,-25.14
34.468,-7.94
34.484,5.51
34.500,15.31
34.515,22.0
34.531,26.41
34.546,29.55
34.562,32.4
34.578,35.72
34.593,39.78
34.609,44.37
34.625,48.93
34.640,52.85
34.656,55.79
34.671,57.77
34.687,59.15
34.703,60.17
34.718,60.68
34.734,59.97
34.750,56.96
34.765,50.6
34.781,40.49
34.796,27.15
34.812,12.03
34.828,-2.84
34.843,-15.3
34.859,-23.68
34.875,-26.98
34.890,-25.01
34.906,-18.22
34.921,-7.51
34.937,5.86
34.953,20.44
34.968,34.71
34.984,47.36
35.000,57.54
35.015,65.15
35.031,70.75
35.046,75.29
35.062,79.55
35.078,83.78
35.093,87.57
35.109,90.17
35.125,91.0
35.140,90.09
35.156,88.24
35.171,86.67
35.187,86.48
35.203,88.12
35.218,91.26
35.234,94.91
35.250,97.87
35.265,99.05
35.281,97.72
35.296,93.55
35.312,86.61
35.328,77.36
35.343,66.69
35.359,55.79
35.375,45.98
35.390,38.29
35.406,33.07
35.421,29.92
35.437,27.79
35.453,25.51
35.468,22.33
35.484,18.16
35.500,13.53
35.515,9.28
35.531,6.06
35.546,4.04
35.562,2.94
35.578,2.32
35.593,1.99
35.609,2.27
35.625,3.98
35.640,8.11
35.656,15.34
35.671,25.65
35.687,38.19
35.703,51.42
35.718,63.56
35.734,73.05
35.750,78.89
35.765,80.73
35.781,78.7
35.796,73.25
35.812,64.96
35.828,54.6
35.843,43.22
35.859,32.15
35.875,22.72
35.890,15.89
35.906,11.92
35.921,10.18
35.937,9.4
35.953,8.18
35.968,5.44
35.984,0.63
36.000,-6.23
36.015,-14.94
36.031,-25.27
36.046,-37.07
36.062,-50.24
36.078,-64.54
36.093,-79.5
36.109,-94.34
36.125,-108.07
36.140,-119.48
36.156,-127.34
36.171,-130.69
36.187,-129.14
36.203,-123.06
36.218,-113.58
36.234,-102.38
36.250,-91.19
36.265,-81.47
36.281,-74.15
36.296,-69.63
36.312,-67.99
36.328,-69.03
36.343,-72.27
36.359,-76.77
36.375,-81.09
36.390,-83.34
36.406,-81.49
36.421,-73.93
36.437,-59.94
36.453,-40.0
36.468,-15.8
36.484,10.05
36.500,34.58
36.515,55.12
36.531,69.79
36.546,77.73
36.562,79.01
36.578,74.36
36.593,64.89
36.609,51.9
36.625,36.88
36.640,21.44
36.656,7.27
36.671,-4.13
36.687,-11.84
36.703,-15.71
36.718,-16.34
36.734,-14.76
36.750,-11.82
36.765,-7.83
36.781,-2.46
36.796,4.84
36.812,14.32
36.828,25.34
36.843,36.37
36.859,45.46
36.875,50.95
36.890,52.2
36.906,49.96
36.921,46.1
36.937,42.96
36.953,42.62
36.968,46.31
36.984,54.18
37.000,65.42
37.015,78.56
37.031,91.71
37.046,102.9
37.062,110.22
37.078,112.12
37.093,107.62
37.109,96.49
37.125,79.4
37.140,57.88
37.156,34.04
37.171,10.29
37.187,-11.14
37.203,-28.46
37.218,-40.65
37.234,-47.45
37.250,-49.31
37.265,-47.07
37.281,-41.75
37.296,-34.22
37.312,-24.99
37.328,-14.24
37.343,-2.01
37.359,11.56
37.375,25.9
37.390,39.88
37.406,52.07
37.421,61.05
37.437,66.1
37.453,67.56
37.468,66.92
37.484,66.31
37.500,67.88
37.515,73.1
37.531,82.32
37.546,94.85
37.562,109.22
37.578,123.64
37.593,136.35
37.609,145.85
37.625,150.96
37.640,150.94
37.656,145.52
37.671,134.92
37.687,119.81
37.703,101.11
37.718,79.85
37.734,57.01
37.750,33.5
37.765,10.27
37.781,-11.65
37.796,-31.15
37.812,-47.28
37.828,-59.56
37.843,-68.25
37.859,-74.31
37.875,-79.11
37.890,-83.91
37.906,-89.4
37.921,-95.52
37.937,-101.53
37.953,-106.3
37.968,-108.65
37.984,-107.52
38.000,-102.02
38.015,-91.49
38.031,-75.72
38.046,-55.05
38.062,-30.57
38.078,-4.01
38.093,22.6
38.109,47.38
38.125,69.02
38.140,86.86
38.156,100.75
38.171,110.7
38.187,116.64
38.203,118.32
38.218,115.51
38.234,108.15
38.250,96.5
38.265,81.14
38.281,62.81
38.296,42.27
38.312,20.29
38.328,-2.33
38.343,-24.76
38.359,-46.04
38.375,-65.31
38.390,-81.79
38.406,-94.95
38.421,-104.48
38.437,-110.29
38.453,-112.52
38.468,-111.61
38.484,-108.29
38.500,-103.42
38.515,-97.68
38.531,-91.29
38.546,-83.88
38.562,-74.71
38.578,-63.04
38.593,-48.59
38.609,-31.66
38.625,-13.08
38.640,6.09
38.656,24.86
38.671,42.39
38.687,57.96
38.703,70.95
38.718,80.74
38.734,86.96
38.750,89.56
38.765,88.91
38.781,85.59
38.796,80.23
38.812,73.19
38.828,64.46
38.843,53.79
38.859,40.82
38.875,25.29
38.890,7.38
38.906,-12.26
38.921,-32.42
38.937,-51.43
38.953,-67.64
38.968,-79.8
38.984,-87.58
39.000,-91.71
39.015,-93.87
39.031,-96.08
39.046,-99.93
39.062,-105.92
39.078,-113.1
39.093,-119.29
39.109,-121.85
39.125,-118.47
39.140,-108.01
39.156,-90.82
39.171,-68.66
39.187,-44.03
39.203,-19.52
39.218,2.85
39.234,21.97
39.250,37.66
39.265,50.49
39.281,61.3
39.296,70.88
39.312,79.61
39.328,87.35
39.343,93.47
39.359,97.09
39.375,97.35
39.390,93.72
39.406,86.13
39.421,75.04
39.437,61.28
39.453,45.96
39.468,30.21
39.484,14.99
39.500,0.89
39.515,-11.91
39.531,-23.66
39.546,-34.87
39.562,-46.07
39.578,-57.48
39.593,-68.7
39.609,-78.72
39.625,-85.96
39.640,-88.8
39.656,-86.01
39.671,-77.16
39.687,-62.76
39.703,-44.12
39.718,-22.92
39.734,-0.89
39.750,20.53
39.765,40.31
39.781,57.8
39.796,72.68
39.812,84.78
39.828,94.04
39.843,100.49
39.859,104.24
39.875,105.5
39.890,104.58
39.906,101.83
39.921,97.45
39.937,91.54
39.953,84.0
39.968,74.68
39.984,63.58
40.000,50.85
40.015,36.75
40.031,21.45
40.046,4.99
40.062,-12.82
40.078,-32.04
40.093,-52.45
40.109,-73.34
40.125,-93.48
40.140,-111.37
40.156,-125.5
40.171,-134.71
40.187,-138.3
40.203,-136.15
40.218,-128.54
40.234,-116.02
40.250,-99.32
40.265,-79.21
40.281,-56.66
40.296,-32.86
40.312,-9.3
40.328,12.47
40.343,31.11
40.359,45.8
40.375,56.45
40.390,63.54
40.406,67.92
40.421,70.39
40.437,71.46
40.453,71.29
40.468,69.79
40.484,66.72
40.500,61.89
40.515,55.16
40.531,46.48
40.546,35.95
40.562,23.68
40.578,9.89
40.593,-5.25
40.609,-21.58
40.625,-39.08
40.640,-57.72
40.656,-77.35
40.671,-97.53
40.687,-117.22
40.703,-134.82
40.718,-148.36
40.734,-155.9
40.750,-156.07
40.765,-148.47
40.781,-133.78
40.796,-113.58
40.812,-89.94
40.828,-64.99
40.843,-40.64
40.859,-18.45
40.875,0.39
40.890,15.1
40.906,25.36
40.921,31.51
40.937,34.47
40.953,35.61
40.968,36.26
40.984,37.4
41.000,39.3
41.015,41.56
41.031,43.39
41.046,43.88
41.062,42.49
41.078,38.99
41.093,33.48
41.109,26.13
41.125,17.05
41.140,6.21
41.156,-6.47
41.171,-21.05
41.187,-37.54
41.203,-55.77
41.218,-75.36
41.234,-95.5
41.250,-114.76
41.265,-131.14
41.281,-142.31
41.296,-146.24
41.312,-141.87
41.328,-129.56
41.343,-111.08
41.359,-89.08
41.375,-66.31
41.390,-44.87
41.406,-25.85
41.421,-9.46
41.437,4.61
41.453,16.77
41.468,27.32
41.484,36.44
41.500,44.32
41.515,51.15
41.531,57.08
41.546,62.07
41.562,65.86
41.578,68.04
41.593,68.32
41.609,66.63
41.625,63.29
41.640,58.83
41.656,53.77
41.671,48.33
41.687,42.3
41.703,35.07
41.718,25.8
41.734,13.64
41.750,-1.91
41.765,-20.73
41.781,-41.82
41.796,-63.3
41.812,-82.6
41.828,-97.0
41.843,-104.25
41.859,-103.18
41.875,-94.04
41.890,-78.39
41.906,-58.59
41.921,-37.03
41.937,-15.58
41.953,4.74
41.968,23.66
41.984,41.25
42.000,57.46
42.015,71.94
42.031,84.16
42.046,93.67
42.062,100.39
42.078,104.69
42.093,107.24
42.109,108.68
42.125,109.39
42.140,109.43
42.156,108.63
42.171,106.81
42.187,103.98
42.203,100.26
42.218,95.8
42.234,90.57
42.250,84.19
42.265,76.02
42.281,65.27
42.296,51.32
42.312,34.06
42.328,14.18
42.343,-6.78
42.359,-26.67
42.375,-43.19
42.390,-54.57
42.406,-59.97
42.421,-59.61
42.437,-54.5
42.453,-45.96
42.468,-35.18
42.484,-23.06
42.500,-10.38
42.515,2.0
42.531,12.99
42.546,21.53
42.562,27.04
42.578,29.83
42.593,31.16
42.609,32.74
42.625,35.95
42.640,41.11
42.656,47.24
42.671,52.52
42.687,55.06
42.703,53.8
42.718,48.9
42.734,41.57
42.750,33.37
42.765,25.57
42.781,18.63
42.796,12.23
42.812,5.53
42.828,-2.44
42.843,-12.51
42.859,-25.04
42.875,-39.82
42.890,-55.8
42.906,-71.15
42.921,-83.52
42.937,-90.65
42.953,-91.11
42.968,-84.8
42.984,-72.95
43.000,-57.64
43.015,-41.04
43.031,-24.8
43.046,-9.85
43.062,3.44
43.078,14.91
43.093,24.44
43.109,31.86
43.125,37.2
43.140,40.72
43.156,42.83
43.171,43.82
43.187,43.7
43.203,42.2
43.218,38.9
43.234,33.58
43.250,26.36
43.265,17.8
43.281,8.78
43.296,0.26
43.312,-7.0
43.328,-12.62
43.343,-16.76
43.359,-20.11
43.375,-23.74
43.390,-28.78
43.406,-36.14
43.421,-46.12
43.437,-58.22
43.453,-71.09
43.468,-82.74
43.484,-91.0
43.500,-94.13
43.515,-91.27
43.531,-82.73
43.546,-69.87
43.562,-54.59
43.578,-38.8
43.593,-23.88
43.609,-10.57
43.625,0.83
43.640,10.21
43.656,17.38
43.671,22.05
43.687,24.11
43.703,23.82
43.718,21.94
43.734,19.58
43.750,17.9
43.765,17.7
43.781,19.24
43.796,22.2
43.812,25.85
43.828,29.36
43.843,32.09
43.859,33.71
43.875,34.25
43.890,34.06
43.906,33.5
43.921,32.74
43.937,31.59
43.953,29.38
43.968,25.14
43.984,17.95
44.000,7.35
44.015,-6.21
44.031,-21.27
44.046,-35.6
44.062,-46.79
44.078,-52.89
44.093,-52.91
44.109,-47.03
44.125,-36.43
44.140,-22.87
44.156,-8.23
44.171,5.85
44.187,18.06
44.203,27.54
44.218,33.75
44.234,36.58
44.250,36.36
44.265,33.93
44.281,30.64
44.296,28.05
44.312,27.56
44.328,29.85
44.343,34.56
44.359,40.23
44.375,44.79
44.390,46.37
44.406,44.07
44.421,38.26
44.437,30.41
44.453,22.38
44.468,15.48
44.484,10.05
44.500,5.36
44.515,0.17
44.531,-6.66
44.546,-15.72
44.562,-26.74
44.578,-38.76
44.593,-50.19
44.609,-59.22
44.625,-64.04
44.640,-63.38
44.656,-56.9
44.671,-45.34
44.687,-30.39
44.703,-14.2
44.718,1.22
44.734,14.37
44.750,24.37
44.765,30.81
44.781,33.52
44.796,32.5
44.812,28.04
44.828,20.88
44.843,12.15
44.859,3.13
44.875,-5.17
44.890,-12.35
44.906,-18.66
44.921,-24.79
44.937,-31.32
44.953,-38.34
44.968,-45.37
44.984,-51.57
45.000,-56.23
45.015,-59.22
45.031,-61.13
45.046,-63.02
45.062,-66.04
45.078,-70.94
45.093,-77.95
45.109,-86.71
45.125,-96.5
45.140,-106.21
45.156,-114.35
45.171,-119.16
45.187,-118.89
45.203,-112.31
45.218,-99.35
45.234,-81.38
45.250,-60.84
45.265,-40.5
45.281,-22.47
45.296,-7.63
45.312,4.29
45.328,14.15
45.343,22.58
45.359,29.55
45.375,34.45
45.390,36.56
45.406,35.69
45.421,32.41
45.437,27.85
45.453,23.33
45.468,19.74
45.484,17.38
45.500,16.04
45.515,15.36
45.531,15.16
45.546,15.51
45.562,16.64
45.578,18.64
45.593,21.21
45.609,23.59
45.625,24.75
45.640,23.73
45.656,19.88
45.671,13.14
45.687,3.98
45.703,-6.57
45.718,-17.16
45.734,-26.2
45.750,-32.13
45.765,-33.59
45.781,-29.75
45.796,-20.51
45.812,-6.62
45.828,10.37
45.843,28.49
45.859,45.78
45.875,60.62
45.890,72.01
45.906,79.47
45.921,82.93
45.937,82.53
45.953,78.59
45.968,71.63
45.984,62.51
46.000,52.35
46.015,42.47
46.031,34.08
46.046,27.85
46.062,23.7
46.078,20.66
46.093,17.31
46.109,12.25
46.125,4.8
46.140,-4.62
46.156,-14.55
46.171,-23.04
46.187,-28.5
46.203,-30.29
46.218,-28.98
46.234,-26.0
46.250,-22.96
46.265,-21.0
46.281,-20.49
46.296,-20.92
46.312,-21.24
46.328,-20.22
46.343,-16.71
46.359,-9.85
46.375,0.71
46.390,14.72
46.406,31.26
46.421,48.8
46.437,65.49
46.453,79.48
46.468,89.24
46.484,93.73
46.500,92.42
46.515,85.24
46.531,72.53
46.546,54.99
46.562,33.78
46.578,10.4
46.593,-13.34
46.609,-35.51
46.625,-54.4
46.640,-68.78
46.656,-78.06
46.671,-82.32
46.687,-82.15
46.703,-78.41
46.718,-71.99
46.734,-63.71
46.750,-54.29
46.765,-44.52
46.781,-35.27
46.796,-27.5
46.812,-22.09
46.828,-19.6
46.843,-20.02
46.859,-22.53
46.875,-25.5
46.890,-26.72
46.906,-23.87
46.921,-15.16
46.937,0.13
46.953,21.34
46.968,46.61
46.984,73.37
47.000,98.99
47.015,121.32
47.031,138.98
47.046,151.23
47.062,157.82
47.078,158.76
47.093,154.27
47.109,144.83
47.125,131.19
47.140,114.32
47.156,95.3
47.171,75.37
47.187,55.76
47.203,37.72
47.218,22.25
47.234,10.0
47.250,0.98
47.265,-5.28
47.281,-9.54
47.296,-12.4
47.312,-13.99
47.328,-14.05
47.343,-12.16
47.359,-8.25
47.375,-2.9
47.390,2.76
47.406,7.52
47.421,10.77
47.437,12.92
47.453,15.39
47.468,20.12
47.484,28.73
47.500,41.91
47.515,59.1
47.531,78.68
47.546,98.63
47.562,117.06
47.578,132.6
47.593,144.35
47.609,151.58
47.625,153.5
47.640,149.28
47.656,138.31
47.671,120.73
47.687,97.75
47.703,71.54
47.718,44.73
47.734,19.7
47.750,-2.09
47.765,-20.28
47.781,-35.33
47.796,-48.0
47.812,-58.85
47.828,-67.97
47.843,-75.15
47.859,-80.13
47.875,-82.97
47.890,-84.07
47.906,-84.16
47.921,-84.12
47.937,-84.96
47.953,-87.71
47.968,-93.18
47.984,-101.64
48.000,-112.24
48.015,-122.94
48.031,-130.69
48.046,-132.34
48.062,-125.64
48.078,-110.18
48.093,-87.47
48.109,-60.36
48.125,-32.07
48.140,-5.23
48.156,18.56
48.171,38.5
48.187,54.26
48.203,65.57
48.218,72.11
48.234,73.81
48.250,70.97
48.265,64.39
48.281,55.16
48.296,44.36
48.312,32.76
48.328,20.77
48.343,8.44
48.359,-4.25
48.375,-17.16
48.390,-29.9
48.406,-41.87
48.421,-52.47
48.437,-61.32
48.453,-68.49
48.468,-74.35
48.484,-79.36
48.500,-83.76
48.515,-87.47
48.531,-90.26
48.546,-91.89
48.562,-92.34
48.578,-91.62
48.593,-89.52
48.609,-85.37
48.625,-78.08
48.640,-66.56
48.656,-50.22
48.671,-29.39
48.687,-5.38
48.703,19.95
48.718,44.69
48.734,67.29
48.750,86.7
48.765,102.3
48.781,113.55
48.796,119.91
48.812,120.92
48.828,116.36
48.843,106.59
48.859,92.62
48.875,75.92
48.890,58.15
48.906,40.64
48.921,24.08
48.937,8.57
48.953,-6.15
48.968,-20.39
48.984,-34.14
49.000,-47.08
49.015,-58.66
49.031,-68.43
49.046,-76.22
49.062,-82.36
49.078,-87.6
49.093,-92.97
49.109,-99.59
49.125,-108.29
49.140,-119.32
49.156,-132.12
49.171,-145.3
49.187,-156.87
49.203,-164.74
49.218,-167.3
49.234,-163.89
49.250,-154.94
49.265,-141.74
49.281,-126.08
49.296,-109.8
49.312,-94.46
49.328,-81.27
49.343,-70.97
49.359,-63.84
49.375,-59.64
49.390,-57.59
49.406,-56.5
49.421,-55.14
49.437,-52.64
49.453,-48.88
49.468,-44.47
49.484,-40.47
49.500,-37.92
49.515,-37.42
49.531,-38.95
49.546,-41.9
49.562,-45.49
49.578,-48.98
49.593,-51.92
49.609,-54.25
49.625,-56.13
49.640,-57.91
49.656,-60.01
49.671,-62.89
49.687,-66.94
49.703,-72.28
49.718,-78.38
49.734,-83.96
49.750,-87.06
49.765,-85.53
49.781,-77.69
49.796,-63.05
49.812,-42.51
49.828,-18.09
49.843,7.74
49.859,32.75
49.875,55.48
49.890,75.2
49.906,91.7
49.921,104.88
49.937,114.5
49.953,120.33
49.968,122.3
49.984,120.83
50.000,116.76
50.015,111.22
50.031,105.16
50.046,99.08
50.062,92.77
50.078,85.57
50.093,76.81
50.109,66.27
50.125,54.4
50.140,42.21
50.156,30.82
50.171,20.91
50.187,12.53
50.203,5.08
50.218,-2.3
50.234,-10.26
50.250,-18.97
50.265,-28.07
50.281,-36.63
50.296,-43.28
50.312,-46.45
50.328,-44.45
50.343,-35.95
50.359,-20.33
50.375,1.99
50.390,29.56
50.406,60.18
50.421,91.55
50.437,121.79
50.453,149.71
50.468,174.8
50.484,196.85
50.500,215.68
50.515,231.06
50.531,242.75
50.546,250.75
50.562,255.43
50.578,257.49
50.593,257.86
50.609,257.45
50.625,256.97
50.640,256.77
50.656,256.78
50.671,256.57
50.687,255.37
50.703,252.4
50.718,247.09
50.734,239.28
50.750,229.39
50.765,218.17
50.781,206.37
50.796,194.22
50.812,181.23
50.828,166.33
50.843,148.51
50.859,127.5
50.875,104.18
50.890,80.46
50.906,58.58
50.921,40.18
50.937,25.76
50.953,14.6
50.968,5.25
50.984,-3.79
51.000,-13.52
51.015,-24.29
51.031,-35.96
51.046,-48.06
51.062,-59.99
51.078,-70.95
51.093,-80.06
51.109,-86.57
51.125,-90.09
51.140,-90.78
51.156,-89.36
51.171,-86.69
51.187,-83.27
51.203,-78.93
51.218,-72.77
51.234,-63.73
51.250,-51.32
51.265,-36.25
51.281,-20.55
51.296,-7.13
51.312,1.35
51.328,3.38
51.343,-0.93
51.359,-10.2
51.375,-22.78
51.390,-37.72
51.406,-55.14
51.421,-75.75
51.437,-99.81
51.453,-126.16
51.468,-152.03
51.484,-173.73
51.500,-188.03
51.515,-193.32
51.531,-190.17
51.546,-180.84
51.562,-168.32
51.578,-155.34
51.593,-143.71
51.609,-134.3
51.625,-127.41
51.640,-123.08
51.656,-121.17
51.671,-121.31
51.687,-122.74
51.703,-124.26
51.718,-124.5
51.734,-122.19
51.750,-116.62
51.765,-107.82
51.781,-96.61
51.796,-84.39
51.812,-72.84
51.828,-63.39
51.843,-56.79
51.859,-52.86
51.875,-50.57
51.890,-48.66
51.906,-46.33
51.921,-43.81
51.937,-42.4
51.953,-43.85
51.968,-49.55
51.984,-59.8
52.000,-73.59
52.015,-89.02
52.031,-104.02
52.046,-117.05
52.062,-127.36
52.078,-134.84
52.093,-139.71
52.109,-142.15
52.125,-142.16
52.140,-139.63
52.156,-134.56
52.171,-127.28
52.187,-118.51
52.203,-109.25
52.218,-100.6
52.234,-93.42
52.250,-88.02
52.265,-84.14
52.281,-81.12
52.296,-78.23
52.312,-75.02
52.328,-71.49
52.343,-67.92
52.359,-64.63
52.375,-61.76
52.390,-59.18
52.406,-56.78
52.421,-54.49
52.437,-52.53
52.453,-51.22
52.468,-50.83
52.484,-51.4
52.500,-52.77
52.515,-54.63
52.531,-56.64
52.546,-58.37
52.562,-59.22
52.578,-58.32
52.593,-54.64
52.609,-47.28
52.625,-35.85
52.640,-20.74
52.656,-3.12
52.671,15.36
52.687,33.09
52.703,48.84
52.718,61.94
52.734,72.21
52.750,79.62
52.765,84.18
52.781,85.87
52.796,84.76
52.812,81.19
52.828,75.77
52.843,69.29
52.859,62.48
52.875,55.81
52.890,49.39
52.906,43.11
52.921,36.84
52.937,30.59
52.953,24.64
52.968,19.44
52.984,15.39
53.000,12.73
53.015,11.46
53.031,11.29
53.046,11.81
53.062,12.59
53.078,13.32
53.093,13.96
53.109,14.86
53.125,16.71
53.140,20.44
53.156,26.94
53.171,36.68
53.187,49.53
53.203,64.71
53.218,80.97
53.234,97.1
53.250,112.18
53.265,125.81
53.281,137.98
53.296,148.76
53.312,158.04
53.328,165.38
53.343,170.06
53.359,171.23
53.375,168.3
53.390,161.07
53.406,149.87
53.421,135.58
53.437,119.36
53.453,102.39
53.468,85.61
53.484,69.53
53.500,54.24
53.515,39.58
53.531,25.38
53.546,11.68
53.562,-1.18
53.578,-12.64
53.593,-22.12
53.609,-29.26
53.625,-34.15
53.640,-37.4
53.656,-39.96
53.671,-42.8
53.687,-46.34
53.703,-50.08
53.718,-52.49
53.734,-51.42
53.750,-44.71
53.765,-31.11
53.781,-10.77
53.796,14.61
53.812,42.33
53.828,69.46
53.843,93.58
53.859,113.32
53.875,128.25
53.890,138.74
53.906,145.44
53.921,149.12
53.937,150.45
53.953,150.09
53.968,148.58
53.984,146.41
54.000,143.88
54.015,141.08
54.031,137.87
54.046,133.94
54.062,128.88
54.078,122.29
54.093,113.96
54.109,103.99
54.125,92.83
54.140,81.24
54.156,70.04
54.171,59.93
54.187,51.27
54.203,44.15
54.218,38.36
54.234,33.62
54.250,29.81
54.265,27.0
54.281,25.69
54.296,26.66
54.312,30.88
54.328,39.13
54.343,51.7
54.359,68.2
54.375,87.55
54.390,108.32
54.406,129.15
54.421,149.03
54.437,167.51
54.453,184.53
54.468,200.12
54.484,214.21
54.500,226.51
54.515,236.67
54.531,244.5
54.546,250.08
54.562,253.85
54.578,256.44
54.593,258.49
54.609,260.44
54.625,262.52
54.640,264.64
54.656,266.48
54.671,267.57
54.687,267.33
54.703,265.31
54.718,261.15
54.734,254.65
54.750,245.71
54.765,234.2
54.781,220.02
54.796,203.13
54.812,183.85
54.828,162.9
54.843,141.41
54.859,120.6
54.875,101.31
54.890,83.77
54.906,67.45
54.921,51.44
54.937,34.89
54.953,17.36
54.968,-0.97
54.984,-19.5
55.000,-37.5
55.015,-54.5
55.031,-70.47
55.046,-85.89
55.062,-101.49
55.078,-117.89
55.093,-135.32
55.109,-153.45
55.125,-171.58
55.140,-188.88
55.156,-204.84
55.171,-219.42
55.187,-233.18
55.203,-246.97
55.218,-261.91
55.234,-279.11
55.250,-299.5
55.265,-323.4
55.281,-349.96
55.296,-376.85
55.312,-400.36
55.328,-416.32
55.343,-421.47
55.359,-414.65
55.375,-397.24
55.390,-372.43
55.406,-343.74
55.421,-313.52
55.437,-282.35
55.453,-249.31
55.468,-213.18
55.484,-173.49
55.500,-130.97
55.515,-87.3
55.531,-44.46
55.546,-4.13
55.562,32.41
55.578,64.09
55.593,89.8
55.609,108.36
55.625,118.75
55.640,120.64
55.656,114.48
55.671,101.59
55.687,83.71
55.703,62.54
55.718,39.43
55.734,15.43
55.750,-8.57
55.765,-31.53
55.781,-52.16
55.796,-69.13
55.812,-81.36
55.828,-88.48
55.843,-90.94
55.859,-89.96
55.875,-87.15
55.890,-84.18
55.906,-82.47
55.921,-82.94
55.937,-85.96
55.953,-91.35
55.968,-98.32
55.984,-105.6
56.000,-111.61
56.015,-114.8
56.031,-113.93
56.046,-108.39
56.062,-98.22
56.078,-84.09
56.093,-66.94
56.109,-47.96
56.125,-28.46
56.140,-9.99
56.156,5.71
56.171,16.74
56.187,21.42
56.203,18.71
56.218,8.55
56.234,-7.95
56.250,-28.7
56.265,-51.12
56.281,-72.8
56.296,-91.97
56.312,-107.92
56.328,-121.02
56.343,-132.31
56.359,-143.02
56.375,-153.95
56.390,-165.12
56.406,-175.77
56.421,-184.73
56.437,-190.88
56.453,-193.61
56.468,-192.98
56.484,-189.57
56.500,-184.2
56.515,-177.55
56.531,-169.98
56.546,-161.47
56.562,-151.59
56.578,-139.55
56.593,-124.35
56.609,-104.95
56.625,-80.59
56.640,-51.19
56.656,-17.51
56.671,18.92
56.687,56.2
56.703,92.47
56.718,126.32
56.734,156.84
56.750,183.44
56.765,205.69
56.781,223.02
56.796,234.8
56.812,240.52
56.828,240.04
56.843,233.65
56.859,222.06
56.875,206.13
56.890,186.68
56.906,164.42
56.921,139.99
56.937,114.12
56.953,87.67
56.968,61.56
56.984,36.53
57.000,12.92
57.015,-9.34
57.031,-30.62
57.046,-51.27
57.062,-71.36
57.078,-90.51
57.093,-108.0
57.109,-122.88
57.125,-134.18
57.140,-141.07
57.156,-142.96
57.171,-139.68
57.187,-131.48
57.203,-119.1
57.218,-103.55
57.234,-85.92
57.250,-67.12
57.265,-47.74
57.281,-28.18
57.296,-8.76
57.312,10.17
57.328,28.13
57.343,44.68
57.359,59.46
57.375,72.31
57.390,83.17
57.406,92.09
57.421,99.06
57.437,104.02
57.453,106.96
57.468,107.93
57.484,106.99
57.500,104.09
57.515,98.84
57.531,90.62
57.546,78.94
57.562,63.72
57.578,45.59
57.593,25.76
57.609,5.55
57.625,-14.11
57.640,-32.83
57.656,-50.55
57.671,-66.95
57.687,-81.07
57.703,-91.28
57.718,-95.82
57.734,-93.53
57.750,-84.45
57.765,-69.86
57.781,-51.78
57.796,-32.39
57.812,-13.32
57.828,4.55
57.843,20.88
57.859,35.63
57.875,48.78
57.890,60.09
57.906,69.31
57.921,76.19
57.937,80.67
57.953,82.75
57.968,82.47
57.984,79.76
58.000,74.48
58.015,66.51
58.031,55.89
58.046,42.9
58.062,28.02
58.078,11.87
58.093,-4.97
58.109,-21.99
58.125,-38.79
58.140,-55.06
58.156,-70.68
58.171,-85.68
58.187,-100.08
58.203,-113.64
58.218,-125.73
58.234,-135.23
58.250,-140.83
58.265,-141.42
58.281,-136.55
58.296,-126.6
58.312,-112.74
58.328,-96.44
58.343,-79.11
58.359,-61.87
58.375,-45.42
58.390,-30.22
58.406,-16.59
58.421,-4.76
58.437,5.17
58.453,13.3
58.468,19.93
58.484,25.4
58.500,29.89
58.515,33.24
58.531,34.85
58.546,33.88
58.562,29.66
58.578,22.01
58.593,11.51
58.609,-0.65
58.625,-13.03
58.640,-24.45
58.656,-34.37
58.671,-42.99
58.687,-51.03
58.703,-59.19
58.718,-67.78
58.734,-76.51
58.750,-84.63
58.765,-91.26
58.781,-95.64
58.796,-97.28
58.812,-95.92
58.828,-91.29
58.843,-83.05
58.859,-70.84
58.875,-54.59
58.890,-34.81
58.906,-12.73
58.921,9.81
58.937,30.72
58.953,48.17
58.968,61.07
58.984,69.29
59.000,73.59
59.015,75.39
59.031,76.27
59.046,77.49
59.062,79.76
59.078,83.03
59.093,86.69
59.109,89.77
59.125,91.3
59.140,90.53
59.156,87.03
59.171,80.72
59.187,71.7
59.203,60.25
59.218,46.68
59.234,31.27
59.250,14.32
59.265,-3.71
59.281,-21.92
59.296,-38.85
59.312,-52.45
59.328,-60.57
59.343,-61.51
59.359,-54.74
59.375,-41.03
59.390,-22.21
59.406,-0.48
59.421,22.28
59.437,44.89
59.453,66.76
59.468,87.47
59.484,106.41
59.500,122.65
59.515,135.1
59.531,142.97
59.546,145.99
59.562,144.45
59.578,138.99
59.593,130.38
59.609,119.3
59.625,106.36
59.640,92.17
59.656,77.37
59.671,62.66
59.687,48.67
59.703,35.73
59.718,23.76
59.734,12.27
59.750,0.43
59.765,-12.67
59.781,-27.79
59.796,-45.28
59.812,-64.88
59.828,-85.56
59.843,-105.5
59.859,-122.36
59.875,-133.76
59.890,-137.88
59.906,-134.01
59.921,-122.65
59.937,-105.33
59.953,-84.04
59.968,-60.74
59.984,-37.13
