timestamp,value
00.000,184.72
00.015,206.43
00.031,230.49
00.046,254.36
00.062,274.89
00.078,288.85
00.093,293.49
00.109,287.31
00.125,270.41
00.140,244.63
00.156,213.06
00.171,179.18
00.187,146.04
00.203,115.6
00.218,88.62
00.234,65.09
00.250,44.51
00.265,26.2
00.281,9.26
00.296,-7.5
00.312,-25.34
00.328,-45.27
00.343,-67.41
00.359,-90.78
00.375,-113.27
00.390,-132.4
00.406,-145.98
00.421,-152.82
00.437,-152.99
00.453,-147.66
00.468,-138.62
00.484,-127.76
00.500,-116.6
00.515,-105.92
00.531,-95.62
00.546,-84.75
00.562,-71.93
00.578,-56.02
00.593,-36.88
00.609,-15.89
00.625,4.09
00.640,19.44
00.656,26.99
00.671,25.17
00.687,14.89
00.703,-0.53
00.718,-16.44
00.734,-28.54
00.750,-34.6
00.765,-35.38
00.781,-34.2
00.796,-35.52
00.812,-42.99
00.828,-58.18
00.843,-80.25
00.859,-106.99
00.875,-135.83
00.890,-164.76
00.906,-192.53
00.921,-218.31
00.937,-241.75
00.953,-263.09
00.968,-283.5
00.984,-304.73
01.000,-328.32
01.015,-354.24
01.031,-380.15
01.046,-401.74
01.062,-414.02
01.078,-413.32
01.093,-398.53
01.109,-371.37
01.125,-335.53
01.140,-295.47
01.156,-255.2
01.171,-217.84
01.187,-185.49
01.203,-159.37
01.218,-139.92
01.234,-126.81
01.250,-118.96
01.265,-114.69
01.281,-111.99
01.296,-109.01
01.312,-104.5
01.328,-98.05
01.343,-90.17
01.359,-82.03
01.375,-74.93
01.390,-69.86
01.406,-67.19
01.421,-66.73
01.437,-67.93
01.453,-70.17
01.468,-72.9
01.484,-75.52
01.500,-77.29
01.515,-76.97
01.531,-73.0
01.546,-63.83
01.562,-48.41
01.578,-26.68
01.593,0.24
01.609,30.22
01.625,60.65
01.640,88.9
01.656,112.91
01.671,131.42
01.687,144.17
01.703,151.73
01.718,155.28
01.734,156.2
01.750,155.72
01.765,154.59
01.781,152.95
01.796,150.57
01.812,147.12
01.828,142.67
01.843,137.73
01.859,133.24
01.875,130.21
01.890,129.31
01.906,130.76
01.921,134.27
01.937,139.16
01.953,144.56
01.968,149.57
01.984,153.5
02.000,156.05
02.015,157.51
02.031,158.55
02.046,159.69
02.062,160.53
02.078,159.12
02.093,152.11
02.109,135.79
02.125,107.72
02.140,68.14
02.156,20.42
02.171,-29.83
02.187,-76.4
02.203,-114.44
02.218,-141.56
02.234,-157.92
02.250,-165.23
02.265,-165.56
02.281,-160.42
02.296,-150.57
02.312,-136.58
02.328,-119.33
02.343,-100.64
02.359,-83.05
02.375,-69.36
02.390,-61.87
02.406,-61.59
02.421,-67.88
02.437,-78.66
02.453,-91.04
02.468,-102.22
02.484,-110.21
02.500,-114.25
02.515,-114.54
02.531,-111.74
02.546,-106.37
02.562,-98.37
02.578,-87.29
02.593,-72.76
02.609,-55.01
02.625,-35.14
02.640,-14.98
02.656,3.59
02.671,19.12
02.687,31.0
02.703,39.39
02.718,44.91
02.734,48.24
02.750,49.85
02.765,49.86
02.781,48.21
02.796,44.97
02.812,40.44
02.828,35.25
02.843,30.22
02.859,26.1
02.875,23.34
02.890,21.94
02.906,21.43
02.921,21.13
02.937,20.33
02.953,18.51
02.968,15.42
02.984,11.08
03.000,5.87
03.015,0.57
03.031,-3.59
03.046,-5.14
03.062,-2.76
03.078,4.25
03.093,15.64
03.109,30.23
03.125,46.35
03.140,62.42
03.156,77.45
03.171,91.17
03.187,103.82
03.203,115.77
03.218,127.02
03.234,137.23
03.250,145.81
03.265,152.38
03.281,157.12
03.296,160.88
03.312,164.96
03.328,170.6
03.343,178.43
03.359,188.17
03.375,198.66
03.390,208.21
03.406,214.82
03.421,216.63
03.437,211.86
03.453,198.84
03.468,176.3
03.484,144.01
03.500,103.69
03.515,59.33
03.531,16.78
03.546,-17.98
03.562,-40.76
03.578,-50.58
03.593,-49.83
03.609,-42.8
03.625,-33.77
03.640,-25.36
03.656,-18.24
03.671,-11.94
03.687,-6.15
03.703,-1.43
03.718,1.02
03.734,0.17
03.750,-4.07
03.765,-11.0
03.781,-20.03
03.796,-31.52
03.812,-46.72
03.828,-66.56
03.843,-90.19
03.859,-114.2
03.875,-133.41
03.890,-142.97
03.906,-140.78
03.921,-128.89
03.937,-112.85
03.953,-99.5
03.968,-94.3
03.984,-99.55
04.000,-114.1
04.015,-134.36
04.031,-155.78
04.046,-174.06
04.062,-186.0
04.078,-189.78
04.093,-185.21
04.109,-173.62
04.125,-157.52
04.140,-139.85
04.156,-123.14
04.171,-108.88
04.187,-97.42
04.203,-88.31
04.218,-80.84
04.234,-74.49
04.250,-69.01
04.265,-64.26
04.281,-60.1
04.296,-56.29
04.312,-52.79
04.328,-49.64
04.343,-46.82
04.359,-44.01
04.375,-40.42
04.390,-35.08
04.406,-27.32
04.421,-17.17
04.437,-5.33
04.453,7.03
04.468,19.04
04.484,30.76
04.500,43.21
04.515,57.89
04.531,75.97
04.546,97.68
04.562,121.94
04.578,146.77
04.593,169.84
04.609,188.92
04.625,202.35
04.640,209.09
04.656,208.92
04.671,202.58
04.687,192.0
04.703,179.86
04.718,168.88
04.734,160.6
04.750,154.39
04.765,147.24
04.781,134.64
04.796,112.52
04.812,79.09
04.828,36.27
04.843,-10.72
04.859,-54.9
04.875,-89.93
04.890,-112.06
04.906,-120.96
04.921,-119.1
04.937,-110.31
04.953,-98.23
04.968,-85.38
04.984,-73.21
05.000,-62.56
05.015,-54.22
05.031,-49.16
05.046,-48.12
05.062,-51.27
05.078,-57.82
05.093,-66.2
05.109,-74.44
05.125,-80.7
05.140,-83.6
05.156,-82.22
05.171,-76.23
05.187,-65.58
05.203,-50.66
05.218,-32.24
05.234,-11.49
05.250,10.14
05.265,31.08
05.281,49.92
05.296,65.44
05.312,76.51
05.328,82.22
05.343,82.04
05.359,76.18
05.375,66.03
05.390,54.1
05.406,43.45
05.421,36.66
05.437,35.18
05.453,38.94
05.468,46.8
05.484,57.14
05.500,68.06
05.515,77.12
05.531,80.99
05.546,75.69
05.562,57.82
05.578,26.26
05.593,-16.58
05.609,-64.87
05.625,-110.98
05.640,-148.09
05.656,-172.1
05.671,-182.38
05.687,-181.02
05.703,-171.31
05.718,-156.46
05.734,-139.01
05.750,-120.85
05.765,-103.48
05.781,-87.97
05.796,-74.85
05.812,-63.93
05.828,-54.4
05.843,-45.27
05.859,-35.56
05.875,-24.68
05.890,-12.21
05.906,2.05
05.921,18.07
05.937,35.64
05.953,54.24
05.968,73.04
05.984,90.87
06.000,106.5
06.015,118.61
06.031,126.18
06.046,128.57
06.062,125.86
06.078,118.89
06.093,108.97
06.109,97.62
06.125,86.2
06.140,75.8
06.156,67.04
06.171,60.09
06.187,54.48
06.203,49.11
06.218,42.47
06.234,33.08
06.250,20.22
06.265,4.31
06.281,-12.97
06.296,-29.52
06.312,-43.57
06.328,-54.35
06.343,-62.21
06.359,-68.02
06.375,-72.59
06.390,-76.04
06.406,-77.93
06.421,-77.63
06.437,-74.98
06.453,-70.43
06.468,-64.95
06.484,-59.66
06.500,-55.25
06.515,-51.74
06.531,-48.28
06.546,-43.54
06.562,-36.11
06.578,-24.92
06.593,-9.54
06.609,9.86
06.625,32.52
06.640,57.32
06.656,82.82
06.671,107.53
06.687,130.06
06.703,149.42
06.718,165.3
06.734,178.04
06.750,188.5
06.765,197.46
06.781,205.31
06.796,211.79
06.812,216.35
06.828,218.6
06.843,218.81
06.859,218.13
06.875,218.1
06.890,219.95
06.906,223.81
06.921,228.26
06.937,230.58
06.953,227.51
06.968,216.28
06.984,195.55
07.000,165.85
07.015,129.36
07.031,89.3
07.046,49.06
07.062,11.59
07.078,-20.86
07.093,-46.81
07.109,-65.46
07.125,-76.76
07.140,-81.55
07.156,-81.83
07.171,-80.55
07.187,-81.01
07.203,-86.09
07.218,-97.25
07.234,-114.14
07.250,-134.62
07.265,-155.23
07.281,-172.09
07.296,-181.89
07.312,-182.5
07.328,-173.47
07.343,-156.05
07.359,-132.7
07.375,-106.37
07.390,-79.72
07.406,-54.65
07.421,-32.25
07.437,-13.08
07.453,2.38
07.468,13.51
07.484,19.77
07.500,21.05
07.515,17.99
07.531,12.13
07.546,5.44
07.562,-0.27
07.578,-3.93
07.593,-5.57
07.609,-6.15
07.625,-6.93
07.640,-8.96
07.656,-12.74
07.671,-18.16
07.687,-24.87
07.703,-32.58
07.718,-41.3
07.734,-51.11
07.750,-61.96
07.765,-73.39
07.781,-84.56
07.796,-94.43
07.812,-101.91
07.828,-105.93
07.843,-105.66
07.859,-100.7
07.875,-91.61
07.890,-80.44
07.906,-70.67
07.921,-66.46
07.937,-71.12
07.953,-85.52
07.968,-107.19
07.984,-130.85
08.000,-149.94
08.015,-158.89
08.031,-154.79
08.046,-137.92
08.062,-111.09
08.078,-78.25
08.093,-43.2
08.109,-8.89
08.125,22.63
08.140,49.83
08.156,71.32
08.171,85.9
08.187,93.01
08.203,93.3
08.218,88.84
08.234,82.81
08.250,78.64
08.265,79.02
08.281,85.0
08.296,95.92
08.312,109.86
08.328,124.6
08.343,138.45
08.359,150.65
08.375,161.08
08.390,169.71
08.406,175.92
08.421,178.27
08.437,174.88
08.453,164.04
08.468,145.17
08.484,119.31
08.500,89.18
08.515,58.84
08.531,32.93
08.546,15.64
08.562,9.46
08.578,13.91
08.593,24.87
08.609,35.41
08.625,38.12
08.640,28.18
08.656,5.83
08.671,-23.18
08.687,-49.64
08.703,-64.37
08.718,-61.87
08.734,-42.39
08.750,-11.64
08.765,21.44
08.781,47.64
08.796,59.98
08.812,55.12
08.828,33.45
08.843,-1.77
08.859,-45.7
08.875,-93.28
08.890,-140.15
08.906,-182.93
08.921,-219.11
08.937,-246.73
08.953,-264.34
08.968,-271.46
08.984,-269.05
09.000,-259.44
09.015,-245.74
09.031,-230.6
09.046,-215.5
09.062,-200.52
09.078,-184.94
09.093,-167.99
09.109,-149.31
09.125,-128.8
09.140,-106.04
09.156,-80.22
09.171,-50.75
09.187,-18.77
09.203,11.96
09.218,35.09
09.234,43.27
09.250,30.87
09.265,-3.27
09.281,-54.68
09.296,-114.36
09.312,-171.4
09.328,-216.67
09.343,-245.03
09.359,-256.15
09.375,-253.19
09.390,-240.76
09.406,-223.08
09.421,-202.91
09.437,-181.81
09.453,-160.64
09.468,-140.22
09.484,-121.31
09.500,-104.31
09.515,-88.87
09.531,-73.84
09.546,-57.75
09.562,-39.6
09.578,-19.4
09.593,1.66
09.609,21.74
09.625,39.08
09.640,52.87
09.656,63.42
09.671,72.03
09.687,80.15
09.703,88.75
09.718,97.8
09.734,106.35
09.750,113.01
09.765,116.56
09.781,116.46
09.796,113.07
09.812,107.54
09.828,101.38
09.843,95.92
09.859,91.92
09.875,89.31
09.890,87.31
09.906,84.78
09.921,80.6
09.937,74.07
09.953,65.19
09.968,54.55
09.984,43.15
10.000,32.02
10.015,21.91
10.031,13.03
10.046,5.14
10.062,-2.31
10.078,-9.88
10.093,-17.81
10.109,-25.91
10.125,-33.45
10.140,-39.37
10.156,-42.58
10.171,-42.28
10.187,-38.12
10.203,-30.31
10.218,-19.53
10.234,-6.78
10.250,6.71
10.265,19.76
10.281,31.32
10.296,40.58
10.312,47.04
10.328,50.51
10.343,51.05
10.359,48.97
10.375,44.74
10.390,38.79
10.406,31.64
10.421,23.74
10.437,15.44
10.453,6.98
10.468,-1.57
10.484,-10.29
10.500,-19.31
10.515,-28.58
10.531,-37.92
10.546,-46.86
10.562,-54.85
10.578,-61.46
10.593,-66.55
10.609,-70.39
10.625,-73.48
10.640,-76.36
10.656,-79.36
10.671,-82.58
10.687,-85.96
10.703,-89.53
10.718,-93.39
10.734,-97.69
10.750,-102.44
10.765,-107.42
10.781,-112.12
10.796,-116.02
10.812,-118.61
10.828,-119.3
10.843,-117.42
10.859,-112.11
10.875,-102.41
10.890,-87.64
10.906,-67.83
10.921,-43.79
10.937,-17.12
10.953,10.16
10.968,36.19
10.984,59.42
11.000,78.75
11.015,93.59
11.031,103.65
11.046,109.1
11.062,110.49
11.078,108.87
11.093,105.51
11.109,101.7
11.125,98.51
11.140,96.51
11.156,95.82
11.171,96.06
11.187,96.78
11.203,97.45
11.218,97.75
11.234,97.53
11.250,96.75
11.265,95.3
11.281,93.0
11.296,89.69
11.312,85.16
11.328,79.47
11.343,72.81
11.359,65.65
11.375,58.38
11.390,51.33
11.406,44.48
11.421,37.57
11.437,30.22
11.453,22.03
11.468,13.02
11.484,3.65
11.500,-5.06
11.515,-11.75
11.531,-14.98
11.546,-13.68
11.562,-7.46
11.578,3.33
11.593,17.61
11.609,33.97
11.625,51.02
11.640,67.63
11.656,83.03
11.671,96.69
11.687,108.14
11.703,116.97
11.718,122.79
11.734,125.53
11.750,125.58
11.765,123.79
11.781,121.23
11.796,118.91
11.812,117.34
11.828,116.48
11.843,115.85
11.859,114.72
11.875,112.53
11.890,109.05
11.906,104.4
11.921,98.91
11.937,93.0
11.953,87.08
11.968,81.53
11.984,76.55
12.000,71.98
12.015,67.43
12.031,62.44
12.046,56.96
12.062,51.69
12.078,48.1
12.093,48.08
12.109,52.93
12.125,62.67
12.140,75.49
12.156,88.31
12.171,97.86
12.187,101.99
12.203,100.67
12.218,95.9
12.234,90.9
12.250,88.83
12.265,91.71
12.281,99.92
12.296,112.23
12.312,126.44
12.328,139.89
12.343,150.17
12.359,155.45
12.375,154.73
12.390,148.04
12.406,136.36
12.421,121.49
12.437,105.56
12.453,90.49
12.468,77.65
12.484,67.56
12.500,59.92
12.515,53.74
12.531,47.65
12.546,40.34
12.562,30.91
12.578,19.19
12.593,5.79
12.609,-8.05
12.625,-20.94
12.640,-31.72
12.656,-39.92
12.671,-45.73
12.687,-49.85
12.703,-53.13
12.718,-56.25
12.734,-59.48
12.750,-62.68
12.765,-65.52
12.781,-67.74
12.796,-69.35
12.812,-70.69
12.828,-72.34
12.843,-75.0
12.859,-79.15
12.875,-84.94
12.890,-91.99
12.906,-99.34
12.921,-105.62
12.937,-109.33
12.953,-109.23
12.968,-104.69
12.984,-95.89
13.000,-83.76
13.015,-69.65
13.031,-54.92
13.046,-40.6
13.062,-27.31
13.078,-15.35
13.093,-4.92
13.109,3.79
13.125,10.6
13.140,15.4
13.156,18.27
13.171,19.42
13.187,19.19
13.203,17.86
13.218,15.55
13.234,12.23
13.250,7.88
13.265,2.64
13.281,-3.05
13.296,-8.5
13.312,-12.97
13.328,-16.01
13.343,-17.59
13.359,-18.18
13.375,-18.42
13.390,-18.83
13.406,-19.49
13.421,-20.04
13.437,-19.85
13.453,-18.49
13.468,-15.98
13.484,-12.88
13.500,-10.18
13.515,-9.01
13.531,-10.29
13.546,-14.42
13.562,-21.23
13.578,-29.96
13.593,-39.4
13.609,-48.09
13.625,-54.63
13.640,-57.95
13.656,-57.68
13.671,-54.17
13.687,-48.3
13.703,-41.23
13.718,-33.94
13.734,-26.96
13.750,-20.35
13.765,-13.92
13.781,-7.48
13.796,-1.22
13.812,4.39
13.828,8.72
13.843,11.32
13.859,12.27
13.875,12.22
13.890,12.32
13.906,13.83
13.921,17.79
13.937,24.74
13.953,34.64
13.968,47.17
13.984,61.93
14.000,78.68
14.015,97.08
14.031,116.4
14.046,135.23
14.062,151.62
14.078,163.54
14.093,169.74
14.109,170.12
14.125,165.68
14.140,157.82
14.156,147.46
14.171,134.8
14.187,119.81
14.203,102.79
14.218,84.8
14.234,66.95
14.250,49.52
14.265,31.16
14.281,9.48
14.296,-17.31
14.312,-48.64
14.328,-80.76
14.343,-107.89
14.359,-124.63
14.375,-128.34
14.390,-120.08
14.406,-103.68
14.421,-83.46
14.437,-62.18
14.453,-40.37
14.468,-17.2
14.484,7.95
14.500,34.26
14.515,59.34
14.531,80.15
14.546,94.34
14.562,101.1
14.578,101.25
14.593,96.61
14.609,88.87
14.625,78.97
14.640,66.96
14.656,52.45
14.671,35.11
14.687,15.02
14.703,-7.55
14.718,-32.38
14.734,-59.53
14.750,-89.1
14.765,-120.74
14.781,-153.14
14.796,-184.06
14.812,-210.87
14.828,-231.39
14.843,-244.61
14.859,-250.84
14.875,-251.36
14.890,-247.75
14.906,-241.35
14.921,-233.06
14.937,-223.45
14.953,-212.91
14.968,-201.77
14.984,-190.23
15.000,-178.29
15.015,-165.68
15.031,-152.07
15.046,-137.12
15.062,-120.66
15.078,-102.81
15.093,-84.0
15.109,-64.88
15.125,-46.23
15.140,-28.84
15.156,-13.23
15.171,0.37
15.187,12.03
15.203,21.93
15.218,30.26
15.234,37.05
15.250,42.22
15.265,45.69
15.281,47.5
15.296,47.89
15.312,47.28
15.328,46.2
15.343,45.12
15.359,44.4
15.375,44.18
15.390,44.5
15.406,45.2
15.421,45.94
15.437,46.13
15.453,45.03
15.468,41.79
15.484,35.66
15.500,26.28
15.515,13.82
15.531,-0.85
15.546,-16.4
15.562,-31.42
15.578,-44.85
15.593,-56.3
15.609,-65.99
15.625,-74.4
15.640,-81.79
15.656,-87.92
15.671,-92.11
15.687,-93.55
15.703,-91.77
15.718,-86.91
15.734,-79.68
15.750,-71.12
15.765,-62.14
15.781,-53.29
15.796,-44.83
15.812,-36.87
15.828,-29.65
15.843,-23.56
15.859,-19.08
15.875,-16.54
15.890,-15.68
15.906,-15.54
15.921,-14.6
15.937,-11.36
15.953,-5.0
15.968,4.14
15.984,14.59
16.000,24.39
16.015,31.76
16.031,35.86
16.046,36.8
16.062,35.39
16.078,32.5
16.093,28.71
16.109,24.18
16.125,18.95
16.140,13.14
16.156,7.04
16.171,1.02
16.187,-4.75
16.203,-10.4
16.218,-16.16
16.234,-22.24
16.250,-28.61
16.265,-34.91
16.281,-40.42
16.296,-44.31
16.312,-45.65
16.328,-43.84
16.343,-38.71
16.359,-30.64
16.375,-20.48
16.390,-9.36
16.406,1.64
16.421,11.69
16.437,20.33
16.453,27.5
16.468,33.22
16.484,37.53
16.500,40.39
16.515,41.67
16.531,41.35
16.546,39.63
16.562,36.87
16.578,33.57
16.593,30.25
16.609,27.2
16.625,24.56
16.640,22.31
16.656,20.3
16.671,18.35
16.687,16.27
16.703,13.88
16.718,11.06
16.734,7.76
16.750,4.02
16.765,-0.1
16.781,-4.48
16.796,-9.08
16.812,-13.93
16.828,-19.09
16.843,-24.64
16.859,-30.54
16.875,-36.58
16.890,-42.36
16.906,-47.18
16.921,-50.19
16.937,-50.5
16.953,-47.5
16.968,-40.99
16.984,-31.39
17.000,-19.55
17.015,-6.62
17.031,6.35
17.046,18.57
17.062,29.63
17.078,39.33
17.093,47.59
17.109,54.35
17.125,59.43
17.140,62.75
17.156,64.28
17.171,64.16
17.187,62.72
17.203,60.34
17.218,57.48
17.234,54.47
17.250,51.57
17.265,48.87
17.281,46.34
17.296,43.87
17.312,41.34
17.328,38.67
17.343,35.8
17.359,32.84
17.375,29.91
17.390,27.17
17.406,24.73
17.421,22.58
17.437,20.5
17.453,18.13
17.468,15.01
17.484,10.72
17.500,5.09
17.515,-1.72
17.531,-9.06
17.546,-16.01
17.562,-21.49
17.578,-24.68
17.593,-25.16
17.609,-23.13
17.625,-19.24
17.640,-14.48
17.656,-9.76
17.671,-5.83
17.687,-3.03
17.703,-1.45
17.718,-0.97
17.734,-1.43
17.750,-2.7
17.765,-4.64
17.781,-7.07
17.796,-9.76
17.812,-12.42
17.828,-14.74
17.843,-16.55
17.859,-17.77
17.875,-18.49
17.890,-18.81
17.906,-18.92
17.921,-18.92
17.937,-18.92
17.953,-19.05
17.968,-19.43
17.984,-20.18
18.000,-21.29
18.015,-22.7
18.031,-24.2
18.046,-25.61
18.062,-26.82
18.078,-27.85
18.093,-28.91
18.109,-30.26
18.125,-32.16
18.140,-34.73
18.156,-37.84
18.171,-40.97
18.187,-43.29
18.203,-43.78
18.218,-41.5
18.234,-35.95
18.250,-27.19
18.265,-15.96
18.281,-3.42
18.296,9.11
18.312,20.55
18.328,30.23
18.343,37.95
18.359,43.86
18.375,48.12
18.390,50.88
18.406,52.19
18.421,52.09
18.437,50.74
18.453,48.46
18.468,45.71
18.484,42.87
18.500,40.27
18.515,37.95
18.531,35.82
18.546,33.65
18.562,31.21
18.578,28.33
18.593,24.9
18.609,20.91
18.625,16.38
18.640,11.4
18.656,6.08
18.671,0.62
18.687,-4.79
18.703,-9.94
18.718,-14.65
18.734,-18.89
18.750,-22.77
18.765,-26.52
18.781,-30.24
18.796,-33.79
18.812,-36.64
18.828,-38.03
18.843,-37.13
18.859,-33.38
18.875,-26.72
18.890,-17.55
18.906,-6.74
18.921,4.68
18.937,15.67
18.953,25.49
18.968,33.66
18.984,39.99
19.000,44.51
19.015,47.4
19.031,48.81
19.046,48.88
19.062,47.76
19.078,45.65
19.093,42.81
19.109,39.57
19.125,36.23
19.140,33.03
19.156,30.04
19.171,27.28
19.187,24.71
19.203,22.33
19.218,20.12
19.234,18.05
19.250,16.03
19.265,13.95
19.281,11.65
19.296,9.05
19.312,6.14
19.328,3.01
19.343,-0.22
19.359,-3.52
19.375,-7.06
19.390,-11.01
19.406,-15.59
19.421,-20.86
19.437,-26.68
19.453,-32.6
19.468,-37.86
19.484,-41.57
19.500,-42.9
19.515,-41.31
19.531,-36.73
19.546,-29.58
19.562,-20.63
19.578,-10.79
19.593,-0.86
19.609,8.58
19.625,17.11
19.640,24.45
19.656,30.41
19.671,34.81
19.687,37.59
19.703,38.82
19.718,38.71
19.734,37.61
19.750,35.91
19.765,33.94
19.781,31.97
19.796,30.16
19.812,28.44
19.828,26.76
19.843,24.98
19.859,23.06
19.875,21.01
19.890,18.82
19.906,16.53
19.921,14.06
19.937,11.32
19.953,8.12
19.968,4.4
19.984,0.17
20.000,-4.39
20.015,-9.05
20.031,-13.59
20.046,-17.87
20.062,-21.93
20.078,-25.93
20.093,-30.12
20.109,-34.66
20.125,-39.54
20.140,-44.41
20.156,-48.62
20.171,-51.31
20.187,-51.68
20.203,-49.14
20.218,-43.62
20.234,-35.54
20.250,-25.72
20.265,-15.15
20.281,-4.75
20.296,4.88
20.312,13.37
20.328,20.58
20.343,26.44
20.359,30.84
20.375,33.65
20.390,34.85
20.406,34.61
20.421,33.29
20.437,31.39
20.453,29.33
20.468,27.35
20.484,25.42
20.500,23.39
20.515,21.09
20.531,18.57
20.546,16.02
20.562,13.73
20.578,11.81
20.593,10.12
20.609,8.29
20.625,5.83
20.640,2.4
20.656,-2.05
20.671,-7.24
20.687,-12.76
20.703,-18.13
20.718,-23.0
20.734,-27.17
20.750,-30.51
20.765,-33.02
20.781,-34.81
20.796,-36.16
20.812,-37.34
20.828,-38.5
20.843,-39.42
20.859,-39.48
20.875,-37.85
20.890,-33.77
20.906,-26.99
20.921,-17.88
20.937,-7.4
20.953,3.31
20.968,13.24
20.984,21.74
21.000,28.56
21.015,33.71
21.031,37.16
21.046,38.87
21.062,38.8
21.078,37.0
21.093,33.77
21.109,29.62
21.125,25.14
21.140,20.92
21.156,17.31
21.171,14.39
21.187,12.02
21.203,10.03
21.218,8.32
21.234,6.94
21.250,5.97
21.265,5.42
21.281,5.16
21.296,4.87
21.312,4.16
21.328,2.71
21.343,0.31
21.359,-3.08
21.375,-7.37
21.390,-12.37
21.406,-17.73
21.421,-23.05
21.437,-27.88
21.453,-31.9
21.468,-34.97
21.484,-37.22
21.500,-38.97
21.515,-40.62
21.531,-42.44
21.546,-44.41
21.562,-46.21
21.578,-47.2
21.593,-46.59
21.609,-43.72
21.625,-38.17
21.640,-29.97
21.656,-19.56
21.671,-7.76
21.687,4.49
21.703,16.3
21.718,26.96
21.734,36.04
21.750,43.32
21.765,48.73
21.781,52.31
21.796,54.13
21.812,54.32
21.828,53.12
21.843,50.87
21.859,48.01
21.875,44.98
21.890,42.08
21.906,39.41
21.921,36.89
21.937,34.31
21.953,31.54
21.968,28.59
21.984,25.57
22.000,22.59
22.015,19.61
22.031,16.48
22.046,12.91
22.062,8.72
22.078,3.88
22.093,-1.41
22.109,-6.84
22.125,-12.07
22.140,-16.9
22.156,-21.22
22.171,-25.09
22.187,-28.63
22.203,-32.01
22.218,-35.45
22.234,-39.13
22.250,-43.17
22.265,-47.47
22.281,-51.69
22.296,-55.18
22.312,-57.21
22.328,-57.04
22.343,-54.23
22.359,-48.76
22.375,-41.02
22.390,-31.74
22.406,-21.69
22.421,-11.64
22.437,-2.2
22.453,6.19
22.468,13.22
22.484,18.75
22.500,22.75
22.515,25.34
22.531,26.71
22.546,27.1
22.562,26.76
22.578,25.87
22.593,24.57
22.609,23.02
22.625,21.36
22.640,19.75
22.656,18.26
22.671,16.94
22.687,15.74
22.703,14.59
22.718,13.47
22.734,12.31
22.750,11.06
22.765,9.62
22.781,7.81
22.796,5.42
22.812,2.35
22.828,-1.34
22.843,-5.48
22.859,-9.8
22.875,-14.08
22.890,-18.26
22.906,-22.44
22.921,-26.81
22.937,-31.47
22.953,-36.39
22.968,-41.24
22.984,-45.54
23.000,-48.59
23.015,-49.64
23.031,-48.05
23.046,-43.44
23.062,-35.92
23.078,-26.05
23.093,-14.81
23.109,-3.38
23.125,7.17
23.140,16.15
23.156,23.2
23.171,28.33
23.187,31.68
23.203,33.41
23.218,33.75
23.234,32.92
23.250,31.23
23.265,29.08
23.281,26.83
23.296,24.72
23.312,22.76
23.328,20.85
23.343,18.87
23.359,16.79
23.375,14.7
23.390,12.76
23.406,11.07
23.421,9.56
23.437,8.0
23.453,6.08
23.468,3.63
23.484,0.64
23.500,-2.7
23.515,-6.06
23.531,-9.22
23.546,-12.08
23.562,-14.77
23.578,-17.58
23.593,-20.86
23.609,-24.86
23.625,-29.66
23.640,-35.11
23.656,-40.67
23.671,-45.51
23.687,-48.6
23.703,-48.99
23.718,-46.09
23.734,-39.8
23.750,-30.62
23.765,-19.54
23.781,-7.75
23.796,3.6
23.812,13.61
23.828,21.74
23.843,27.82
23.859,31.93
23.875,34.4
23.890,35.54
23.906,35.69
23.921,35.14
23.937,34.05
23.953,32.53
23.968,30.71
23.984,28.69
24.000,26.57
24.015,24.4
24.031,22.19
24.046,19.88
24.062,17.46
24.078,14.95
24.093,12.36
24.109,9.76
24.125,7.06
24.140,4.14
24.156,0.83
24.171,-2.98
24.187,-7.24
24.203,-11.73
24.218,-16.15
24.234,-20.24
24.250,-23.89
24.265,-27.27
24.281,-30.66
24.296,-34.36
24.312,-38.52
24.328,-42.92
24.343,-46.86
24.359,-49.42
24.375,-49.58
24.390,-46.54
24.406,-40.07
24.421,-30.56
24.437,-18.93
24.453,-6.46
24.468,5.61
24.484,16.27
24.500,24.93
24.515,31.34
24.531,35.55
24.546,37.8
24.562,38.36
24.578,37.59
24.593,35.91
24.609,33.79
24.625,31.65
24.640,29.77
24.656,28.22
24.671,26.87
24.687,25.51
24.703,23.95
24.718,22.15
24.734,20.22
24.750,18.37
24.765,16.7
24.781,15.13
24.796,13.41
24.812,11.23
24.828,8.35
24.843,4.79
24.859,0.84
24.875,-3.11
24.890,-6.68
24.906,-9.75
24.921,-12.47
24.937,-15.18
24.953,-18.19
24.968,-21.79
24.984,-25.97
25.000,-30.49
25.015,-34.89
25.031,-38.47
25.046,-40.39
25.062,-39.83
25.078,-36.14
25.093,-29.09
25.109,-19.0
25.125,-6.69
25.140,6.76
25.156,20.18
25.171,32.59
25.187,43.27
25.203,51.85
25.218,58.27
25.234,62.71
25.250,65.63
25.265,67.59
25.281,69.16
25.296,70.74
25.312,72.5
25.328,74.36
25.343,76.18
25.359,77.92
25.375,79.74
25.390,81.97
25.406,84.95
25.421,88.9
25.437,93.73
25.453,99.24
25.468,105.11
25.484,111.06
25.500,116.8
25.515,121.91
25.531,125.64
25.546,127.16
25.562,125.81
25.578,121.63
25.593,115.59
25.609,109.39
25.625,104.78
25.640,102.83
25.656,103.59
25.671,106.38
25.687,110.5
25.703,115.92
25.718,123.24
25.734,132.97
25.750,144.51
25.765,155.65
25.781,162.98
25.796,163.27
25.812,154.91
25.828,138.57
25.843,116.73
25.859,92.58
25.875,68.77
25.890,46.91
25.906,27.74
25.921,11.66
25.937,-0.8
25.953,-9.07
25.968,-13.16
25.984,-14.11
26.000,-14.16
26.015,-16.16
26.031,-22.65
26.046,-34.85
26.062,-52.15
26.078,-72.22
26.093,-91.88
26.109,-108.22
26.125,-119.62
26.140,-126.23
26.156,-129.78
26.171,-132.53
26.187,-136.25
26.203,-141.39
26.218,-146.79
26.234,-150.35
26.250,-149.96
26.265,-144.47
26.281,-134.27
26.296,-121.26
26.312,-108.07
26.328,-97.15
26.343,-89.93
26.359,-86.56
26.375,-85.99
26.390,-86.47
26.406,-86.04
26.421,-82.92
26.437,-75.75
26.453,-63.69
26.468,-46.55
26.484,-24.92
26.500,-0.19
26.515,25.68
26.531,50.6
26.546,72.78
26.562,91.12
26.578,105.23
26.593,115.43
26.609,122.46
26.625,127.22
26.640,130.67
26.656,133.54
26.671,136.39
26.687,139.45
26.703,142.67
26.718,145.61
26.734,147.46
26.750,147.0
26.765,142.88
26.781,133.85
26.796,119.18
26.812,99.07
26.828,74.75
26.843,48.56
26.859,23.61
26.875,3.3
26.890,-9.66
26.906,-14.1
26.921,-11.26
26.937,-4.82
26.953,-0.06
26.968,-2.29
26.984,-15.05
27.000,-39.14
27.015,-72.69
27.031,-112.38
27.046,-154.67
27.062,-196.64
27.078,-236.04
27.093,-270.77
27.109,-298.64
27.125,-317.49
27.140,-325.9
27.156,-323.75
27.171,-312.19
27.187,-293.16
27.203,-268.54
27.218,-239.67
27.234,-207.4
27.250,-172.42
27.265,-135.78
27.281,-99.01
27.296,-64.04
27.312,-32.75
27.328,-6.6
27.343,13.71
27.359,28.48
27.375,38.9
27.390,47.0
27.406,55.04
27.421,64.93
27.437,77.44
27.453,91.87
27.468,106.16
27.484,117.48
27.500,123.11
27.515,121.47
27.531,112.75
27.546,98.81
27.562,82.7
27.578,67.52
27.593,55.52
27.609,47.41
27.625,42.3
27.640,38.06
27.656,31.97
27.671,21.45
27.687,4.98
27.703,-16.99
27.718,-41.59
27.734,-64.06
27.750,-79.4
27.765,-84.9
27.781,-81.8
27.796,-75.59
27.812,-73.78
27.828,-82.55
27.843,-103.83
27.859,-134.36
27.875,-167.24
27.890,-194.92
27.906,-211.99
27.921,-216.3
27.937,-208.94
27.953,-193.01
27.968,-172.62
27.984,-152.38
28.000,-136.9
28.015,-130.13
28.031,-134.15
28.046,-148.37
28.062,-169.31
28.078,-191.75
28.093,-210.38
28.109,-221.5
28.125,-223.87
28.140,-218.59
28.156,-208.22
28.171,-195.57
28.187,-182.82
28.203,-171.04
28.218,-160.16
28.234,-149.41
28.250,-137.89
28.265,-125.21
28.281,-111.75
28.296,-98.69
28.312,-87.62
28.328,-80.08
28.343,-76.97
28.359,-78.25
28.375,-82.81
28.390,-88.59
28.406,-93.07
28.421,-93.81
28.437,-89.07
28.453,-78.24
28.468,-62.02
28.484,-42.13
28.500,-20.75
28.515,-0.03
28.531,18.51
28.546,34.09
28.562,46.55
28.578,56.2
28.593,63.53
28.609,69.1
28.625,73.4
28.640,76.77
28.656,79.32
28.671,80.97
28.687,81.56
28.703,80.96
28.718,79.24
28.734,76.75
28.750,74.0
28.765,71.55
28.781,69.76
28.796,68.7
28.812,68.07
28.828,67.32
28.843,65.84
28.859,63.16
28.875,59.12
28.890,53.94
28.906,48.07
28.921,42.0
28.937,36.05
28.953,30.28
28.968,24.5
28.984,18.35
29.000,11.48
29.015,3.65
29.031,-5.24
29.046,-15.03
29.062,-25.11
29.078,-34.43
29.093,-41.54
29.109,-44.93
29.125,-43.42
29.140,-36.54
29.156,-24.73
29.171,-9.24
29.187,8.24
29.203,26.11
29.218,43.06
29.234,58.26
29.250,71.24
29.265,81.73
29.281,89.65
29.296,95.0
29.312,97.92
29.328,98.75
29.343,97.99
29.359,96.2
29.375,93.89
29.390,91.42
29.406,88.98
29.421,86.63
29.437,84.37
29.453,82.2
29.468,80.1
29.484,78.06
29.500,76.01
29.515,73.74
29.531,71.0
29.546,67.43
29.562,62.8
29.578,57.05
29.593,50.4
29.609,43.2
29.625,35.92
29.640,28.95
29.656,22.53
29.671,16.64
29.687,10.97
29.703,5.07
29.718,-1.58
29.734,-9.27
29.750,-17.82
29.765,-26.54
29.781,-34.14
29.796,-39.03
29.812,-39.74
29.828,-35.39
29.843,-26.0
29.859,-12.54
29.875,3.37
29.890,19.97
29.906,35.69
29.921,49.48
29.937,60.81
29.953,69.53
29.968,75.7
29.984,79.46
30.000,81.02
30.015,80.66
30.031,78.85
30.046,76.14
30.062,73.16
30.078,70.34
30.093,67.95
30.109,65.99
30.125,64.24
30.140,62.43
30.156,60.36
30.171,58.04
30.187,55.5
30.203,52.83
30.218,49.96
30.234,46.63
30.250,42.56
30.265,37.51
30.281,31.51
30.296,24.86
30.312,18.04
30.328,11.54
30.343,5.67
30.359,0.45
30.375,-4.4
30.390,-9.36
30.406,-14.91
30.421,-21.31
30.437,-28.37
30.453,-35.34
30.468,-40.98
30.484,-43.89
30.500,-42.85
30.515,-37.29
30.531,-27.49
30.546,-14.51
30.562,0.14
30.578,14.91
30.593,28.55
30.609,40.24
30.625,49.6
30.640,56.5
30.656,60.97
30.671,63.19
30.687,63.41
30.703,62.09
30.718,59.77
30.734,57.05
30.750,54.43
30.765,52.16
30.781,50.24
30.796,48.43
30.812,46.35
30.828,43.74
30.843,40.57
30.859,37.11
30.875,33.77
30.890,30.83
30.906,28.23
30.921,25.6
30.937,22.34
30.953,18.05
30.968,12.64
30.984,6.46
31.000,0.1
31.015,-5.87
31.031,-11.11
31.046,-15.58
31.062,-19.44
31.078,-23.02
31.093,-26.69
31.109,-30.87
31.125,-35.86
31.140,-41.63
31.156,-47.68
31.171,-52.95
31.187,-56.04
31.203,-55.62
31.218,-50.86
31.234,-41.76
31.250,-29.15
31.265,-14.4
31.281,0.9
31.296,15.39
31.312,28.12
31.328,38.62
31.343,46.75
31.359,52.55
31.375,56.11
31.390,57.61
31.406,57.31
31.421,55.67
31.437,53.25
31.453,50.64
31.468,48.28
31.484,46.34
31.500,44.73
31.515,43.21
31.531,41.56
31.546,39.63
31.562,37.47
31.578,35.14
31.593,32.73
31.609,30.26
31.625,27.69
31.640,24.95
31.656,21.95
31.671,18.56
31.687,14.65
31.703,10.2
31.718,5.33
31.734,0.26
31.750,-4.65
31.765,-9.19
31.781,-13.26
31.796,-17.01
31.812,-20.72
31.828,-24.77
31.843,-29.42
31.859,-34.75
31.875,-40.58
31.890,-46.33
31.906,-51.17
31.921,-53.98
31.937,-53.7
31.953,-49.59
31.968,-41.53
31.984,-30.12
32.000,-16.59
32.015,-2.49
32.031,10.74
32.046,22.05
32.062,30.99
32.078,37.59
32.093,42.11
32.109,44.89
32.125,46.21
32.140,46.26
32.156,45.24
32.171,43.46
32.187,41.28
32.203,39.07
32.218,37.13
32.234,35.54
32.250,34.23
32.265,33.14
32.281,32.18
32.296,31.28
32.312,30.44
32.328,29.56
32.343,28.49
32.359,27.04
32.375,25.03
32.390,22.39
32.406,19.2
32.421,15.57
32.437,11.63
32.453,7.5
32.468,3.22
32.484,-1.15
32.500,-5.56
32.515,-9.87
32.531,-13.93
32.546,-17.62
32.562,-20.91
32.578,-23.92
32.593,-26.85
32.609,-29.98
32.625,-33.53
32.640,-37.67
32.656,-42.37
32.671,-47.41
32.687,-52.25
32.703,-56.13
32.718,-58.11
32.734,-57.32
32.750,-53.2
32.765,-45.75
32.781,-35.61
32.796,-23.92
32.812,-12.0
32.828,-1.0
32.843,8.37
32.859,15.92
32.875,21.83
32.890,26.43
32.906,29.96
32.921,32.45
32.937,33.81
32.953,33.95
32.968,32.91
32.984,30.98
33.000,28.59
33.015,26.18
33.031,24.08
33.046,22.44
33.062,21.22
33.078,20.29
33.093,19.44
33.109,18.47
33.125,17.23
33.140,15.61
33.156,13.54
33.171,11.07
33.187,8.31
33.203,5.47
33.218,2.74
33.234,0.21
33.250,-2.14
33.265,-4.46
33.281,-6.91
33.296,-9.65
33.312,-12.72
33.328,-16.01
33.343,-19.31
33.359,-22.43
33.375,-25.24
33.390,-27.78
33.406,-30.25
33.421,-32.94
33.437,-36.13
33.453,-39.89
33.468,-44.01
33.484,-47.91
33.500,-50.72
33.515,-51.47
33.531,-49.4
33.546,-44.23
33.562,-36.24
33.578,-26.29
33.593,-15.47
33.609,-4.89
33.625,4.57
33.640,12.45
33.656,18.53
33.671,22.89
33.687,25.72
33.703,27.25
33.718,27.7
33.734,27.33
33.750,26.35
33.765,24.99
33.781,23.44
33.796,21.85
33.812,20.37
33.828,19.07
33.843,17.95
33.859,16.87
33.875,15.67
33.890,14.24
33.906,12.57
33.921,10.83
33.937,9.22
33.953,7.91
33.968,6.82
33.984,5.77
34.000,4.43
34.015,2.56
34.031,0.14
34.046,-2.72
34.062,-5.73
34.078,-8.71
34.093,-11.6
34.109,-14.43
34.125,-17.3
34.140,-20.28
34.156,-23.41
34.171,-26.74
34.187,-30.29
34.203,-33.93
34.218,-37.34
34.234,-39.97
34.250,-41.13
34.265,-40.12
34.281,-36.59
34.296,-30.59
34.312,-22.67
34.328,-13.71
34.343,-4.63
34.359,3.73
34.375,10.82
34.390,16.33
34.406,20.24
34.421,22.62
34.437,23.72
34.453,23.83
34.468,23.25
34.484,22.28
34.500,21.12
34.515,19.97
34.531,18.94
34.546,18.08
34.562,17.37
34.578,16.73
34.593,16.01
34.609,15.1
34.625,13.96
34.640,12.59
34.656,11.12
34.671,9.68
34.687,8.28
34.703,6.84
34.718,5.2
34.734,3.22
34.750,0.87
34.765,-1.68
34.781,-4.17
34.796,-6.35
34.812,-8.06
34.828,-9.37
34.843,-10.49
34.859,-11.78
34.875,-13.57
34.890,-16.1
34.906,-19.31
34.921,-22.92
34.937,-26.3
34.953,-28.67
34.968,-29.24
34.984,-27.48
35.000,-23.25
35.015,-16.94
35.031,-9.22
35.046,-0.93
35.062,7.11
35.078,14.32
35.093,20.34
35.109,24.98
35.125,28.16
35.140,29.93
35.156,30.41
35.171,29.88
35.187,28.72
35.203,27.32
35.218,26.04
35.234,25.1
35.250,24.47
35.265,24.03
35.281,23.57
35.296,22.89
35.312,21.94
35.328,20.81
35.343,19.61
35.359,18.5
35.375,17.51
35.390,16.53
35.406,15.43
35.421,14.08
35.437,12.37
35.453,10.28
35.468,7.8
35.484,4.93
35.500,1.75
35.515,-1.63
35.531,-5.08
35.546,-8.45
35.562,-11.69
35.578,-14.82
35.593,-17.99
35.609,-21.33
35.625,-24.91
35.640,-28.59
35.656,-32.03
35.671,-34.7
35.687,-35.97
35.703,-35.28
35.718,-32.32
35.734,-27.14
35.750,-20.19
35.765,-12.2
35.781,-3.98
35.796,3.77
35.812,10.61
35.828,16.32
35.843,20.89
35.859,24.32
35.875,26.71
35.890,28.16
35.906,28.81
35.921,28.87
35.937,28.56
35.953,28.08
35.968,27.55
35.984,27.01
36.000,26.48
36.015,25.98
36.031,25.52
36.046,25.12
36.062,24.78
36.078,24.47
36.093,24.12
36.109,23.59
36.125,22.75
36.140,21.49
36.156,19.81
36.171,17.75
36.187,15.44
36.203,13.03
36.218,10.65
36.234,8.44
36.250,6.44
36.265,4.7
36.281,3.13
36.296,1.63
36.312,0.08
36.328,-1.57
36.343,-3.26
36.359,-4.85
36.375,-6.21
36.390,-7.29
36.406,-8.19
36.421,-9.05
36.437,-9.98
36.453,-11.0
36.468,-11.98
36.484,-12.73
36.500,-13.09
36.515,-12.95
36.531,-12.32
36.546,-11.25
36.562,-9.89
36.578,-8.37
36.593,-6.88
36.609,-5.58
36.625,-4.53
36.640,-3.73
36.656,-3.12
36.671,-2.59
36.687,-2.02
36.703,-1.38
36.718,-0.62
36.734,0.3
36.750,1.4
36.765,2.67
36.781,4.03
36.796,5.38
36.812,6.6
36.828,7.66
36.843,8.49
36.859,9.17
36.875,9.69
36.890,10.11
36.906,10.43
36.921,10.69
36.937,10.91
36.953,11.1
36.968,11.21
36.984,11.08
37.000,10.58
37.015,9.52
37.031,7.74
37.046,5.16
37.062,1.83
37.078,-2.03
37.093,-6.01
37.109,-9.56
37.125,-12.03
37.140,-12.91
37.156,-11.97
37.171,-9.33
37.187,-5.5
37.203,-1.17
37.218,2.87
37.234,6.05
37.250,8.05
37.265,8.78
37.281,8.32
37.296,6.83
37.312,4.49
37.328,1.52
37.343,-1.8
37.359,-5.13
37.375,-8.09
37.390,-10.37
37.406,-11.79
37.421,-12.35
37.437,-12.19
37.453,-11.53
37.468,-10.56
37.484,-9.38
37.500,-8.05
37.515,-6.58
37.531,-5.07
37.546,-3.71
37.562,-2.7
37.578,-2.14
37.593,-1.96
37.609,-1.96
37.625,-1.84
37.640,-1.37
37.656,-0.59
37.671,0.24
37.687,0.61
37.703,0.16
37.718,-1.21
37.734,-3.19
37.750,-5.08
37.765,-6.07
37.781,-5.35
37.796,-2.41
37.812,2.94
37.828,10.56
37.843,20.12
37.859,31.22
37.875,43.51
37.890,56.7
37.906,70.52
37.921,84.69
37.937,98.83
37.953,112.45
37.968,125.03
37.984,136.12
38.000,145.49
38.015,153.37
38.031,160.37
38.046,167.33
38.062,174.98
38.078,183.62
38.093,192.99
38.109,202.26
38.125,210.26
38.140,215.86
38.156,218.15
38.171,216.77
38.187,211.85
38.203,203.83
38.218,193.26
38.234,180.61
38.250,165.98
38.265,149.18
38.281,129.89
38.296,107.93
38.312,83.62
38.328,57.91
38.343,32.15
38.359,7.75
38.375,-14.38
38.390,-34.0
38.406,-51.62
38.421,-68.26
38.437,-84.88
38.453,-101.91
38.468,-118.78
38.484,-133.93
38.500,-145.21
38.515,-150.72
38.531,-149.69
38.546,-142.94
38.562,-132.72
38.578,-121.88
38.593,-112.95
38.609,-107.29
38.625,-105.08
38.640,-105.52
38.656,-107.55
38.671,-110.24
38.687,-112.77
38.703,-114.31
38.718,-113.8
38.734,-109.94
38.750,-101.74
38.765,-89.14
38.781,-73.55
38.796,-57.87
38.812,-45.87
38.828,-40.81
38.843,-44.11
38.859,-54.61
38.875,-68.84
38.890,-82.53
38.906,-92.42
38.921,-97.62
38.937,-99.68
38.953,-101.38
38.968,-104.93
38.984,-110.71
39.000,-117.14
39.015,-121.74
39.031,-122.72
39.046,-120.16
39.062,-116.17
39.078,-113.98
39.093,-117.07
39.109,-128.16
39.125,-148.88
39.140,-179.18
39.156,-216.79
39.171,-256.83
39.187,-292.06
39.203,-314.23
39.218,-316.62
39.234,-296.83
39.250,-258.31
39.265,-209.84
39.281,-162.59
39.296,-126.17
39.312,-105.35
39.328,-99.06
39.343,-101.91
39.359,-107.32
39.375,-110.4
39.390,-109.31
39.406,-104.73
39.421,-98.15
39.437,-90.48
39.453,-81.54
39.468,-70.82
39.484,-58.48
39.500,-46.13
39.515,-36.18
39.531,-30.56
39.546,-29.67
39.562,-32.02
39.578,-34.89
39.593,-35.83
39.609,-33.68
39.625,-29.05
39.640,-23.97
39.656,-20.8
39.671,-21.1
39.687,-24.89
39.703,-30.46
39.718,-34.89
39.734,-35.05
39.750,-28.79
39.765,-15.76
39.781,2.38
39.796,22.68
39.812,42.02
39.828,58.21
39.843,70.68
39.859,80.18
39.875,88.02
39.890,95.22
39.906,101.99
39.921,107.78
39.937,111.82
39.953,113.44
39.968,112.4
39.984,108.75
40.000,102.7
40.015,94.58
40.031,84.97
40.046,74.71
40.062,64.9
40.078,56.58
40.093,50.42
40.109,46.54
40.125,44.4
40.140,43.08
40.156,41.62
40.171,39.45
40.187,36.65
40.203,33.95
40.218,32.47
40.234,33.17
40.250,36.4
40.265,41.61
40.281,47.61
40.296,53.2
40.312,57.76
40.328,61.64
40.343,66.02
40.359,72.38
40.375,81.89
40.390,94.96
40.406,111.32
40.421,130.24
40.437,150.89
40.453,172.57
40.468,194.64
40.484,216.55
40.500,237.71
40.515,257.56
40.531,275.51
40.546,290.94
40.562,302.88
40.578,309.91
40.593,310.17
40.609,301.8
40.625,283.6
40.640,255.61
40.656,219.36
40.671,177.59
40.687,133.56
40.703,90.26
40.718,49.79
40.734,13.21
40.750,-19.36
40.765,-48.46
40.781,-75.03
40.796,-100.46
40.812,-126.59
40.828,-155.7
40.843,-190.29
40.859,-232.02
40.875,-280.61
40.890,-333.03
40.906,-383.55
40.921,-425.04
40.937,-451.25
40.953,-458.83
40.968,-448.38
40.984,-423.83
41.000,-390.61
41.015,-353.5
41.031,-315.47
41.046,-277.66
41.062,-240.44
41.078,-204.39
41.093,-170.76
41.109,-140.99
41.125,-115.91
41.140,-95.29
41.156,-77.92
41.171,-62.34
41.187,-47.51
41.203,-33.26
41.218,-20.19
41.234,-9.19
41.250,-0.77
41.265,5.23
41.281,9.66
41.296,13.67
41.312,18.1
41.328,23.21
41.343,28.49
41.359,33.03
41.375,35.95
41.390,36.85
41.406,35.91
41.421,33.7
41.437,30.91
41.453,27.98
41.468,25.0
41.484,21.74
41.500,17.81
41.515,12.86
41.531,6.77
41.546,-0.26
41.562,-7.59
41.578,-14.16
41.593,-18.69
41.609,-19.93
41.625,-17.12
41.640,-10.25
41.656,-0.22
41.671,11.43
41.687,23.06
41.703,33.39
41.718,41.78
41.734,48.25
41.750,53.1
41.765,56.67
41.781,59.11
41.796,60.42
41.812,60.59
41.828,59.8
41.843,58.39
41.859,56.78
41.875,55.28
41.890,53.94
41.906,52.6
41.921,50.98
41.937,48.87
41.953,46.22
41.968,43.12
41.984,39.77
42.000,36.31
42.015,32.81
42.031,29.16
42.046,25.21
42.062,20.84
42.078,16.05
42.093,10.88
42.109,5.42
42.125,-0.25
42.140,-6.07
42.156,-11.88
42.171,-17.35
42.187,-21.87
42.203,-24.61
42.218,-24.71
42.234,-21.57
42.250,-15.07
42.265,-5.78
42.281,5.21
42.296,16.63
42.312,27.25
42.328,36.28
42.343,43.42
42.359,48.77
42.375,52.59
42.390,55.18
42.406,56.67
42.421,57.06
42.437,56.37
42.453,54.67
42.468,52.14
42.484,49.03
42.500,45.65
42.515,42.21
42.531,38.91
42.546,35.79
42.562,32.78
42.578,29.81
42.593,26.76
42.609,23.52
42.625,20.04
42.640,16.4
42.656,12.72
42.671,9.13
42.687,5.72
42.703,2.41
42.718,-0.96
42.734,-4.7
42.750,-9.04
42.765,-14.14
42.781,-19.82
42.796,-25.56
42.812,-30.53
42.828,-33.63
42.843,-33.9
42.859,-30.71
42.875,-24.12
42.890,-14.8
42.906,-3.94
42.921,7.15
42.937,17.38
42.953,26.1
42.968,33.16
42.984,38.72
43.000,43.11
43.015,46.52
43.031,49.12
43.046,50.89
43.062,51.78
43.078,51.84
43.093,51.14
43.109,49.89
43.125,48.25
43.140,46.45
43.156,44.58
43.171,42.65
43.187,40.61
43.203,38.32
43.218,35.64
43.234,32.45
43.250,28.75
43.265,24.59
43.281,20.18
43.296,15.77
43.312,11.57
43.328,7.73
43.343,4.21
43.359,0.88
43.375,-2.49
43.390,-6.12
43.406,-10.08
43.421,-14.33
43.437,-18.54
43.453,-22.17
43.468,-24.47
43.484,-24.66
43.500,-22.11
43.515,-16.64
43.531,-8.69
43.546,0.83
43.562,10.72
43.578,19.92
43.593,27.8
43.609,34.16
43.625,39.13
43.640,42.94
43.656,45.67
43.671,47.21
43.687,47.47
43.703,46.47
43.718,44.48
43.734,41.92
43.750,39.22
43.765,36.64
43.781,34.23
43.796,31.9
43.812,29.49
43.828,27.0
43.843,24.49
43.859,22.16
43.875,20.18
43.890,18.58
43.906,17.31
43.921,16.13
43.937,14.79
43.953,12.98
43.968,10.56
43.984,7.51
44.000,4.04
44.015,0.56
44.031,-2.59
44.046,-5.16
44.062,-7.2
44.078,-9.02
44.093,-11.03
44.109,-13.59
44.125,-16.85
44.140,-20.61
44.156,-24.38
44.171,-27.41
44.187,-28.9
44.203,-28.16
44.218,-24.86
44.234,-19.14
44.250,-11.64
44.265,-3.34
44.281,4.71
44.296,11.76
44.312,17.45
44.328,21.8
44.343,25.01
44.359,27.28
44.375,28.77
44.390,29.53
44.406,29.71
44.421,29.46
44.437,29.11
44.453,28.9
44.468,28.93
44.484,29.13
44.500,29.32
44.515,29.29
44.531,28.97
44.546,28.41
44.562,27.72
44.578,27.05
44.593,26.5
44.609,26.04
44.625,25.55
44.640,24.87
44.656,23.85
44.671,22.46
44.687,20.87
44.703,19.31
44.718,18.09
44.734,17.39
44.750,17.23
44.765,17.43
44.781,17.64
44.796,17.58
44.812,17.06
44.828,16.11
44.843,14.85
44.859,13.49
44.875,12.2
44.890,11.09
44.906,10.17
44.921,9.39
44.937,8.64
44.953,7.83
44.968,6.85
44.984,5.68
45.000,4.37
45.015,2.98
45.031,1.66
45.046,0.55
45.062,-0.3
45.078,-0.88
45.093,-1.26
45.109,-1.53
45.125,-1.79
45.140,-2.11
45.156,-2.47
45.171,-2.9
45.187,-3.37
45.203,-3.87
45.218,-4.45
45.234,-5.11
45.250,-5.81
45.265,-6.43
45.281,-6.81
45.296,-6.86
45.312,-6.56
45.328,-6.02
45.343,-5.45
45.359,-5.13
45.375,-5.23
45.390,-5.81
45.406,-6.8
45.421,-8.08
45.437,-9.47
45.453,-10.84
45.468,-12.17
45.484,-13.39
45.500,-14.51
45.515,-15.52
45.531,-16.43
45.546,-17.26
45.562,-18.2
45.578,-19.43
45.593,-21.07
45.609,-23.04
45.625,-24.99
45.640,-26.28
45.656,-26.15
45.671,-24.12
45.687,-20.07
45.703,-14.43
45.718,-8.07
45.734,-1.96
45.750,3.13
45.765,6.72
45.781,8.81
45.796,9.58
45.812,9.37
45.828,8.51
45.843,7.27
45.859,5.85
45.875,4.47
45.890,3.27
45.906,2.37
45.921,1.8
45.937,1.53
45.953,1.52
45.968,1.71
45.984,2.08
46.000,2.55
46.015,3.03
46.031,3.37
46.046,3.44
46.062,3.12
46.078,2.41
46.093,1.36
46.109,0.18
46.125,-0.93
46.140,-1.83
46.156,-2.48
46.171,-2.96
46.187,-3.51
46.203,-4.26
46.218,-5.34
46.234,-6.85
46.250,-8.73
46.265,-10.9
46.281,-13.14
46.296,-15.09
46.312,-16.26
46.328,-16.22
46.343,-14.61
46.359,-11.43
46.375,-7.08
46.390,-2.2
46.406,2.47
46.421,6.33
46.437,9.02
46.453,10.56
46.468,11.17
46.484,11.17
46.500,10.84
46.515,10.32
46.531,9.62
46.546,8.7
46.562,7.53
46.578,6.19
46.593,4.85
46.609,3.68
46.625,2.76
46.640,2.07
46.656,1.41
46.671,0.64
46.687,-0.4
46.703,-1.7
46.718,-3.18
46.734,-4.69
46.750,-6.1
46.765,-7.35
46.781,-8.41
46.796,-9.33
46.812,-10.18
46.828,-11.06
46.843,-12.08
46.859,-13.41
46.875,-15.12
46.890,-17.16
46.906,-19.28
46.921,-21.04
46.937,-21.93
46.953,-21.49
46.968,-19.46
46.984,-15.9
47.000,-11.19
47.015,-5.94
47.031,-0.79
47.046,3.73
47.062,7.29
47.078,9.71
47.093,11.01
47.109,11.31
47.125,10.8
47.140,9.69
47.156,8.24
47.171,6.64
47.187,5.09
47.203,3.72
47.218,2.61
47.234,1.82
47.250,1.35
47.265,1.17
47.281,1.2
47.296,1.32
47.312,1.33
47.328,1.05
47.343,0.38
47.359,-0.69
47.375,-2.05
47.390,-3.56
47.406,-5.04
47.421,-6.42
47.437,-7.68
47.453,-8.87
47.468,-10.1
47.484,-11.42
47.500,-12.89
47.515,-14.46
47.531,-16.08
47.546,-17.52
47.562,-18.47
47.578,-18.51
47.593,-17.25
47.609,-14.48
47.625,-10.3
47.640,-5.17
47.656,0.22
47.671,5.14
47.687,9.09
47.703,11.84
47.718,13.44
47.734,14.14
47.750,14.17
47.765,13.72
47.781,12.91
47.796,11.76
47.812,10.37
47.828,8.93
47.843,7.62
47.859,6.62
47.875,6.05
47.890,5.84
47.906,5.83
47.921,5.75
47.937,5.38
47.953,4.6
47.968,3.43
47.984,1.95
48.000,0.29
48.015,-1.46
48.031,-3.29
48.046,-5.19
48.062,-7.17
48.078,-9.22
48.093,-11.28
48.109,-13.26
48.125,-15.21
48.140,-17.14
48.156,-19.06
48.171,-20.83
48.187,-22.16
48.203,-22.58
48.218,-21.59
48.234,-18.88
48.250,-14.47
48.265,-8.8
48.281,-2.56
48.296,3.47
48.312,8.65
48.328,12.61
48.343,15.31
48.359,16.94
48.375,17.72
48.390,17.86
48.406,17.44
48.421,16.59
48.437,15.38
48.453,13.96
48.468,12.45
48.484,10.98
48.500,9.66
48.515,8.49
48.531,7.42
48.546,6.38
48.562,5.32
48.578,4.21
48.593,3.04
48.609,1.78
48.625,0.42
48.640,-1.07
48.656,-2.75
48.671,-4.58
48.687,-6.5
48.703,-8.35
48.718,-9.99
48.734,-11.33
48.750,-12.41
48.765,-13.45
48.781,-14.72
48.796,-16.37
48.812,-18.26
48.828,-19.95
48.843,-20.78
48.859,-20.05
48.875,-17.4
48.890,-12.81
48.906,-6.77
48.921,-0.06
48.937,6.47
48.953,12.11
48.968,16.38
48.984,19.11
49.000,20.41
49.015,20.56
49.031,19.91
49.046,18.83
49.062,17.52
49.078,16.09
49.093,14.56
49.109,12.9
49.125,11.17
49.140,9.5
49.156,7.98
49.171,6.72
49.187,5.73
49.203,4.96
49.218,4.4
49.234,3.95
49.250,3.54
49.265,3.02
49.281,2.21
49.296,0.92
49.312,-0.86
49.328,-3.0
49.343,-5.21
49.359,-7.16
49.375,-8.69
49.390,-9.85
49.406,-10.88
49.421,-12.1
49.437,-13.76
49.453,-15.88
49.468,-18.15
49.484,-20.07
49.500,-20.99
49.515,-20.34
49.531,-17.86
49.546,-13.64
49.562,-8.16
49.578,-2.13
49.593,3.73
49.609,8.84
49.625,12.97
49.640,16.05
49.656,18.16
49.671,19.36
49.687,19.65
49.703,19.03
49.718,17.63
49.734,15.71
49.750,13.59
49.765,11.59
49.781,9.91
49.796,8.58
49.812,7.55
49.828,6.72
49.843,6.04
49.859,5.53
49.875,5.24
49.890,5.18
49.906,5.29
49.921,5.36
49.937,5.11
49.953,4.28
49.968,2.69
49.984,0.36
50.000,-2.47
50.015,-5.45
50.031,-8.15
50.046,-10.31
50.062,-11.86
50.078,-13.01
50.093,-14.04
50.109,-15.31
50.125,-17.0
50.140,-19.05
50.156,-21.29
50.171,-23.26
50.187,-24.44
50.203,-24.31
50.218,-22.41
50.234,-18.57
50.250,-13.02
50.265,-6.36
50.281,0.52
50.296,6.68
50.312,11.45
50.328,14.56
50.343,16.12
50.359,16.52
50.375,16.15
50.390,15.27
50.406,13.97
50.421,12.38
50.437,10.57
50.453,8.78
50.468,7.28
50.484,6.27
50.500,5.83
50.515,5.86
50.531,6.12
50.546,6.34
50.562,6.35
50.578,6.06
50.593,5.48
50.609,4.71
50.625,3.81
50.640,2.87
50.656,1.92
50.671,0.94
50.687,-0.07
50.703,-1.15
50.718,-2.37
50.734,-3.75
50.750,-5.28
50.765,-6.92
50.781,-8.57
50.796,-10.11
50.812,-11.5
50.828,-12.7
50.843,-13.79
50.859,-14.9
50.875,-16.1
50.890,-17.5
50.906,-19.03
50.921,-20.5
50.937,-21.56
50.953,-21.74
50.968,-20.66
50.984,-18.13
51.000,-14.31
51.015,-9.59
51.031,-4.54
51.046,0.28
51.062,4.49
51.078,7.97
51.093,10.74
51.109,12.88
51.125,14.49
51.140,15.55
51.156,16.05
51.171,16.0
51.187,15.44
51.203,14.56
51.218,13.54
51.234,12.54
51.250,11.65
51.265,10.81
51.281,9.9
51.296,8.78
51.312,7.42
51.328,5.88
51.343,4.29
51.359,2.83
51.375,1.64
51.390,0.74
51.406,0.1
51.421,-0.38
51.437,-0.8
51.453,-1.27
51.468,-1.83
51.484,-2.51
51.500,-3.32
51.515,-4.2
51.531,-5.13
51.546,-6.06
51.562,-6.98
51.578,-7.95
51.593,-9.06
51.609,-10.36
51.625,-11.92
51.640,-13.73
51.656,-15.77
51.671,-17.92
51.687,-19.94
51.703,-21.46
51.718,-21.98
51.734,-21.08
51.750,-18.53
51.765,-14.42
51.781,-9.25
51.796,-3.7
51.812,1.54
51.828,5.95
51.843,9.28
51.859,11.56
51.875,12.92
51.890,13.53
51.906,13.54
51.921,13.04
51.937,12.13
51.953,10.89
51.968,9.49
51.984,8.12
52.000,6.96
52.015,6.16
52.031,5.74
52.046,5.67
52.062,5.78
52.078,5.95
52.093,6.03
52.109,6.04
52.125,6.02
52.140,6.04
52.156,6.09
52.171,6.09
52.187,5.88
52.203,5.35
52.218,4.47
52.234,3.21
52.250,1.63
52.265,-0.24
52.281,-2.31
52.296,-4.47
52.312,-6.59
52.328,-8.5
52.343,-10.09
52.359,-11.28
52.375,-12.18
52.390,-12.93
52.406,-13.69
52.421,-14.53
52.437,-15.43
52.453,-16.29
52.468,-16.85
52.484,-16.81
52.500,-15.77
52.515,-13.5
52.531,-9.94
52.546,-5.36
52.562,-0.29
52.578,4.7
52.593,9.03
52.609,12.4
52.625,14.69
52.640,16.0
52.656,16.48
52.671,16.3
52.687,15.64
52.703,14.68
52.718,13.66
52.734,12.79
52.750,12.22
52.765,11.95
52.781,11.91
52.796,11.94
52.812,11.9
52.828,11.69
52.843,11.31
52.859,10.82
52.875,10.29
52.890,9.74
52.906,9.15
52.921,8.48
52.937,7.64
52.953,6.59
52.968,5.32
52.984,3.93
53.000,2.6
53.015,1.49
53.031,0.81
53.046,0.66
53.062,1.06
53.078,1.87
53.093,2.89
53.109,3.93
53.125,4.78
53.140,5.32
53.156,5.5
53.171,5.34
53.187,4.9
53.203,4.24
53.218,3.36
53.234,2.25
53.250,0.93
53.265,-0.51
53.281,-1.89
53.296,-3.0
53.312,-3.69
53.328,-3.95
53.343,-3.94
53.359,-3.87
53.375,-3.89
53.390,-4.03
53.406,-4.2
53.421,-4.25
53.437,-4.11
53.453,-3.8
53.468,-3.41
53.484,-3.13
53.500,-3.06
53.515,-3.24
53.531,-3.68
53.546,-4.38
53.562,-5.22
53.578,-6.19
53.593,-7.22
53.609,-8.26
53.625,-9.25
53.640,-10.23
53.656,-11.25
53.671,-12.39
53.687,-13.75
53.703,-15.29
53.718,-16.97
53.734,-18.62
53.750,-20.09
53.765,-21.22
53.781,-21.89
53.796,-22.16
53.812,-22.14
53.828,-22.05
53.843,-22.18
53.859,-22.76
53.875,-23.91
53.890,-25.54
53.906,-27.28
53.921,-28.54
53.937,-28.77
53.953,-27.45
53.968,-24.39
53.984,-19.7
54.000,-13.86
54.015,-7.54
54.031,-1.46
54.046,3.71
54.062,7.58
54.078,9.96
54.093,10.97
54.109,10.86
54.125,9.98
54.140,8.62
54.156,6.99
54.171,5.32
54.187,3.78
54.203,2.59
54.218,1.87
54.234,1.67
54.250,1.89
54.265,2.31
54.281,2.7
54.296,2.87
54.312,2.75
54.328,2.33
54.343,1.66
54.359,0.75
54.375,-0.32
54.390,-1.54
54.406,-2.89
54.421,-4.28
54.437,-5.7
54.453,-7.08
54.468,-8.38
54.484,-9.56
54.500,-10.65
54.515,-11.73
54.531,-12.95
54.546,-14.49
54.562,-16.43
54.578,-18.66
54.593,-20.86
54.609,-22.48
54.625,-22.91
54.640,-21.7
54.656,-18.66
54.671,-14.05
54.687,-8.42
54.703,-2.57
54.718,2.73
54.734,6.93
54.750,9.81
54.765,11.44
54.781,12.13
54.796,12.21
54.812,11.93
54.828,11.4
54.843,10.68
54.859,9.72
54.875,8.51
54.890,7.11
54.906,5.64
54.921,4.26
54.937,3.12
54.953,2.31
54.968,1.81
54.984,1.57
55.000,1.42
55.015,1.2
55.031,0.74
55.046,-0.09
55.062,-1.4
55.078,-3.19
55.093,-5.42
55.109,-7.98
55.125,-10.67
55.140,-13.26
55.156,-15.59
55.171,-17.62
55.187,-19.4
55.203,-21.15
55.218,-23.01
55.234,-24.94
55.250,-26.6
55.265,-27.37
55.281,-26.59
55.296,-23.76
55.312,-18.85
55.328,-12.32
55.343,-5.05
55.359,2.02
55.375,8.07
55.390,12.7
55.406,15.86
55.421,17.76
55.437,18.67
55.453,18.8
55.468,18.31
55.484,17.22
55.500,15.66
55.515,13.76
55.531,11.77
55.546,9.95
55.562,8.48
55.578,7.44
55.593,6.76
55.609,6.29
55.625,5.86
55.640,5.37
55.656,4.74
55.671,3.95
55.687,2.94
55.703,1.67
55.718,0.13
55.734,-1.63
55.750,-3.49
55.765,-5.31
55.781,-7.03
55.796,-8.69
55.812,-10.47
55.828,-12.59
55.843,-15.2
55.859,-18.28
55.875,-21.69
55.890,-24.99
55.906,-27.57
55.921,-28.72
55.937,-27.76
55.953,-24.36
55.968,-18.58
55.984,-11.05
56.000,-2.74
56.015,5.25
56.031,12.07
56.046,17.29
56.062,20.91
56.078,23.22
56.093,24.51
56.109,25.04
56.125,24.85
56.140,24.05
56.156,22.73
56.171,21.17
56.187,19.7
56.203,18.57
56.218,17.9
56.234,17.56
56.250,17.29
56.265,16.82
56.281,16.0
56.296,14.86
56.312,13.55
56.328,12.17
56.343,10.65
56.359,8.74
56.375,6.12
56.390,2.65
56.406,-1.49
56.421,-5.8
56.437,-9.68
56.453,-12.68
56.468,-14.7
56.484,-16.07
56.500,-17.23
56.515,-18.64
56.531,-20.55
56.546,-22.82
56.562,-24.98
56.578,-26.34
56.593,-26.16
56.609,-23.89
56.625,-19.39
56.640,-12.96
56.656,-5.39
56.671,2.36
56.687,9.44
56.703,15.33
56.718,19.84
56.734,23.15
56.750,25.46
56.765,26.92
56.781,27.6
56.796,27.49
56.812,26.64
56.828,25.21
56.843,23.44
56.859,21.58
56.875,19.85
56.890,18.33
56.906,16.96
56.921,15.61
56.937,14.17
56.953,12.65
56.968,11.16
56.984,9.89
57.000,8.96
57.015,8.36
57.031,7.91
57.046,7.31
57.062,6.3
57.078,4.7
57.093,2.53
57.109,-0.04
57.125,-2.8
57.140,-5.55
57.156,-8.13
57.171,-10.48
57.187,-12.59
57.203,-14.52
57.218,-16.43
57.234,-18.53
57.250,-20.96
57.265,-23.75
57.281,-26.63
57.296,-29.02
57.312,-30.19
57.328,-29.48
57.343,-26.47
57.359,-21.25
57.375,-14.3
57.390,-6.35
57.406,1.85
57.421,9.73
57.437,16.92
57.453,23.25
57.468,28.54
57.484,32.69
57.500,35.61
57.515,37.34
57.531,38.07
57.546,38.08
57.562,37.67
57.578,37.06
57.593,36.34
57.609,35.54
57.625,34.6
57.640,33.58
57.656,32.55
57.671,31.63
57.687,30.93
57.703,30.57
57.718,30.59
57.734,31.05
57.750,31.97
57.765,33.32
57.781,34.99
57.796,36.87
57.812,38.79
57.828,40.65
57.843,42.45
57.859,44.17
57.875,45.86
57.890,47.55
57.906,49.2
57.921,50.85
57.937,52.6
57.953,54.67
57.968,57.32
57.984,60.79
58.000,65.06
58.015,69.98
58.031,75.32
58.046,80.95
58.062,87.12
58.078,94.35
58.093,103.33
58.109,114.52
58.125,127.9
58.140,142.83
58.156,158.14
58.171,172.52
58.187,184.89
58.203,194.56
58.218,200.98
58.234,203.51
58.250,201.07
58.265,192.4
58.281,176.43
58.296,152.97
58.312,122.95
58.328,88.26
58.343,51.3
58.359,14.55
58.375,-19.49
58.390,-48.12
58.406,-68.47
58.421,-77.89
58.437,-74.81
58.453,-59.48
58.468,-34.35
58.484,-3.39
58.500,29.13
58.515,59.89
58.531,87.31
58.546,111.15
58.562,131.9
58.578,149.89
58.593,165.12
58.609,177.41
58.625,186.89
58.640,194.08
58.656,199.65
58.671,203.7
58.687,205.43
58.703,203.33
58.718,195.72
58.734,181.77
58.750,162.07
58.765,138.49
58.781,113.63
58.796,89.84
58.812,68.59
58.828,50.24
58.843,34.26
58.859,19.7
58.875,5.45
58.890,-9.46
58.906,-25.7
58.921,-43.48
58.937,-62.35
58.953,-81.17
58.968,-98.52
58.984,-113.25
59.000,-125.18
59.015,-135.36
59.031,-145.79
59.046,-158.62
59.062,-175.01
59.078,-194.57
59.093,-215.26
59.109,-234.13
59.125,-248.55
59.140,-257.23
59.156,-260.83
59.171,-261.55
59.187,-262.07
59.203,-264.27
59.218,-268.4
59.234,-273.18
59.250,-276.66
59.265,-277.33
59.281,-275.04
59.296,-270.99
59.312,-267.01
59.328,-264.56
59.343,-263.96
59.359,-264.48
59.375,-264.77
59.390,-263.76
59.406,-260.87
59.421,-255.89
59.437,-248.46
59.453,-237.69
59.468,-222.34
59.484,-201.46
59.500,-175.15
59.515,-144.89
59.531,-113.28
59.546,-83.18
59.562,-56.72
59.578,-34.67
59.593,-16.46
59.609,-0.82
59.625,13.46
59.640,26.91
59.656,39.23
59.671,49.7
59.687,57.63
59.703,62.76
59.718,65.51
59.734,66.74
59.750,67.5
59.765,68.67
59.781,70.83
59.796,74.19
59.812,78.57
59.828,83.45
59.843,87.92
59.859,90.86
59.875,91.04
59.890,87.41
59.906,79.39
59.921,67.12
59.937,51.41
59.953,33.58
59.968,15.11
59.984,-2.63
