timestamp,value
00.000,-22.5
00.015,-26.27
00.031,-30.09
00.046,-34.42
00.062,-39.17
00.078,-43.3
00.093,-44.94
00.109,-41.95
00.125,-32.67
00.140,-16.48
00.156,5.91
00.171,32.51
00.187,60.44
00.203,86.38
00.218,107.27
00.234,121.16
00.250,127.85
00.265,129.44
00.281,129.95
00.296,134.39
00.312,146.8
00.328,168.55
00.343,197.2
00.359,226.88
00.375,250.02
00.390,259.8
00.406,252.4
00.421,228.18
00.437,191.22
00.453,147.69
00.468,103.84
00.484,64.23
00.500,31.06
00.515,4.44
00.531,-16.62
00.546,-33.11
00.562,-45.31
00.578,-52.79
00.593,-54.97
00.609,-51.83
00.625,-44.57
00.640,-35.76
00.656,-28.89
00.671,-27.45
00.687,-33.75
00.703,-47.96
00.718,-67.64
00.734,-88.21
00.750,-104.13
00.765,-110.92
00.781,-107.23
00.796,-96.03
00.812,-84.29
00.828,-80.37
00.843,-90.22
00.859,-114.21
00.875,-145.91
00.890,-173.84
00.906,-185.79
00.921,-173.56
00.937,-136.16
00.953,-80.03
00.968,-16.53
00.984,41.84
01.000,84.52
01.015,104.97
01.031,101.85
01.046,79.23
01.062,46.01
01.078,13.67
01.093,-7.37
01.109,-11.85
01.125,-2.17
01.140,12.36
01.156,19.88
01.171,11.8
01.187,-12.61
01.203,-45.67
01.218,-75.04
01.234,-89.61
01.250,-84.46
01.265,-62.52
01.281,-32.76
01.296,-6.07
01.312,8.74
01.328,7.79
01.343,-6.94
01.359,-28.83
01.375,-49.52
01.390,-62.27
01.406,-64.52
01.421,-58.3
01.437,-48.33
01.453,-39.15
01.468,-32.59
01.484,-27.32
01.500,-20.56
01.515,-10.63
01.531,1.31
01.546,11.76
01.562,17.23
01.578,16.68
01.593,12.4
01.609,8.67
01.625,9.06
01.640,14.34
01.656,22.2
01.671,28.54
01.687,29.81
01.703,24.83
01.718,15.2
01.734,4.44
01.750,-3.76
01.765,-7.25
01.781,-6.13
01.796,-2.5
01.812,0.68
01.828,1.09
01.843,-2.06
01.859,-7.85
01.875,-14.35
01.890,-19.69
01.906,-22.92
01.921,-24.23
01.937,-24.78
01.953,-25.87
01.968,-28.22
01.984,-31.55
02.000,-34.72
02.015,-36.17
02.031,-34.67
02.046,-29.72
02.062,-21.73
02.078,-11.86
02.093,-1.6
02.109,7.71
02.125,15.12
02.140,20.18
02.156,22.87
02.171,23.41
02.187,22.19
02.203,19.74
02.218,16.59
02.234,13.34
02.250,10.47
02.265,8.32
02.281,6.98
02.296,6.45
02.312,6.55
02.328,7.11
02.343,7.98
02.359,8.96
02.375,9.93
02.390,10.75
02.406,11.3
02.421,11.52
02.437,11.39
02.453,10.85
02.468,9.87
02.484,8.43
02.500,6.53
02.515,4.36
02.531,2.19
02.546,0.44
02.562,-0.41
02.578,0.03
02.593,1.99
02.609,5.4
02.625,9.95
02.640,15.02
02.656,19.93
02.671,24.01
02.687,26.75
02.703,27.91
02.718,27.49
02.734,25.67
02.750,22.83
02.765,19.4
02.781,15.79
02.796,12.42
02.812,9.57
02.828,7.4
02.843,5.99
02.859,5.29
02.875,5.14
02.890,5.37
02.906,5.78
02.921,6.15
02.937,6.25
02.953,5.82
02.968,4.62
02.984,2.5
03.000,-0.55
03.015,-4.26
03.031,-8.11
03.046,-11.35
03.062,-13.23
03.078,-13.07
03.093,-10.61
03.109,-6.02
03.125,0.08
03.140,6.85
03.156,13.4
03.171,19.03
03.187,23.3
03.203,26.01
03.218,27.15
03.234,26.76
03.250,24.96
03.265,21.96
03.281,18.2
03.296,14.23
03.312,10.67
03.328,8.05
03.343,6.57
03.359,6.1
03.375,6.26
03.390,6.56
03.406,6.61
03.421,6.24
03.437,5.47
03.453,4.33
03.468,2.82
03.484,0.75
03.500,-2.12
03.515,-5.84
03.531,-10.15
03.546,-14.33
03.562,-17.4
03.578,-18.35
03.593,-16.55
03.609,-11.92
03.625,-5.0
03.640,3.2
03.656,11.43
03.671,18.49
03.687,23.4
03.703,25.66
03.718,25.21
03.734,22.54
03.750,18.56
03.765,14.43
03.781,11.19
03.796,9.48
03.812,9.33
03.828,10.13
03.843,11.05
03.859,11.32
03.875,10.56
03.890,8.86
03.906,6.62
03.921,4.22
03.937,1.86
03.953,-0.49
03.968,-2.95
03.984,-5.48
04.000,-7.93
04.015,-9.96
04.031,-11.28
04.046,-11.79
04.062,-11.54
04.078,-10.67
04.093,-9.27
04.109,-7.37
04.125,-4.92
04.140,-1.86
04.156,1.71
04.171,5.59
04.187,9.39
04.203,12.67
04.218,15.07
04.234,16.37
04.250,16.66
04.265,16.34
04.281,15.96
04.296,15.94
04.312,16.38
04.328,16.88
04.343,16.76
04.359,15.38
04.375,12.52
04.390,8.55
04.406,4.29
04.421,0.65
04.437,-1.75
04.453,-2.81
04.468,-2.92
04.484,-2.73
04.500,-2.85
04.515,-3.68
04.531,-5.28
04.546,-7.41
04.562,-9.55
04.578,-11.12
04.593,-11.52
04.609,-10.39
04.625,-7.72
04.640,-3.89
04.656,0.55
04.671,5.0
04.687,9.05
04.703,12.57
04.718,15.62
04.734,18.25
04.750,20.4
04.765,21.88
04.781,22.51
04.796,22.25
04.812,21.2
04.828,19.66
04.843,17.89
04.859,16.15
04.875,14.63
04.890,13.49
04.906,12.88
04.921,12.95
04.937,13.72
04.953,15.08
04.968,16.76
04.984,18.42
05.000,19.73
05.015,20.48
05.031,20.55
05.046,19.88
05.062,18.52
05.078,16.68
05.093,14.83
05.109,13.71
05.125,14.09
05.140,16.55
05.156,21.28
05.171,27.9
05.187,35.67
05.203,43.72
05.218,51.37
05.234,58.23
05.250,64.15
05.265,69.04
05.281,72.82
05.296,75.33
05.312,76.47
05.328,76.31
05.343,75.14
05.359,73.42
05.375,71.68
05.390,70.33
05.406,69.58
05.421,69.41
05.437,69.59
05.453,69.64
05.468,69.17
05.484,67.85
05.500,65.68
05.515,62.89
05.531,59.9
05.546,57.04
05.562,54.4
05.578,51.81
05.593,48.99
05.609,45.91
05.625,42.92
05.640,40.74
05.656,40.31
05.671,42.42
05.687,47.52
05.703,55.54
05.718,66.09
05.734,78.54
05.750,92.22
05.765,106.5
05.781,120.72
05.796,134.29
05.812,146.67
05.828,157.35
05.843,165.98
05.859,172.32
05.875,176.35
05.890,178.22
05.906,178.38
05.921,177.4
05.937,175.95
05.953,174.46
05.968,173.05
05.984,171.41
06.000,168.99
06.015,165.26
06.031,159.87
06.046,152.7
06.062,143.77
06.078,132.99
06.093,120.11
06.109,104.74
06.125,86.68
06.140,66.08
06.156,43.5
06.171,19.74
06.187,-4.37
06.203,-28.19
06.218,-51.31
06.234,-73.49
06.250,-94.83
06.265,-115.75
06.281,-137.09
06.296,-159.94
06.312,-185.12
06.328,-212.57
06.343,-240.84
06.359,-267.22
06.375,-288.37
06.390,-301.43
06.406,-304.81
06.421,-298.63
06.437,-284.43
06.453,-264.53
06.468,-241.41
06.484,-217.18
06.500,-193.57
06.515,-171.76
06.531,-152.45
06.546,-135.83
06.562,-121.45
06.578,-108.25
06.593,-94.73
06.609,-79.67
06.625,-62.42
06.640,-43.37
06.656,-23.63
06.671,-4.55
06.687,12.8
06.703,28.01
06.718,41.19
06.734,52.5
06.750,61.79
06.765,68.97
06.781,74.44
06.796,79.62
06.812,86.4
06.828,96.02
06.843,107.79
06.859,118.82
06.875,125.08
06.890,123.27
06.906,112.69
06.921,95.8
06.937,77.58
06.953,63.54
06.968,57.82
06.984,61.94
07.000,74.72
07.015,93.12
07.031,113.44
07.046,132.46
07.062,147.96
07.078,158.85
07.093,164.98
07.109,166.55
07.125,163.69
07.140,156.32
07.156,144.42
07.171,128.6
07.187,110.25
07.203,91.07
07.218,72.33
07.234,54.26
07.250,35.96
07.265,16.02
07.281,-6.65
07.296,-32.05
07.312,-58.85
07.328,-84.82
07.343,-107.71
07.359,-126.06
07.375,-139.67
07.390,-149.28
07.406,-156.12
07.421,-161.16
07.437,-164.7
07.453,-166.47
07.468,-165.89
07.484,-162.64
07.500,-156.89
07.515,-149.49
07.531,-141.79
07.546,-135.48
07.562,-132.05
07.578,-132.33
07.593,-135.82
07.609,-140.51
07.625,-143.34
07.640,-141.2
07.656,-132.19
07.671,-116.58
07.687,-96.58
07.703,-75.25
07.718,-55.14
07.734,-37.18
07.750,-20.82
07.765,-5.25
07.781,9.17
07.796,20.31
07.812,25.25
07.828,22.04
07.843,11.06
07.859,-4.95
07.875,-22.43
07.890,-38.85
07.906,-53.59
07.921,-67.28
07.937,-80.19
07.953,-91.01
07.968,-97.05
07.984,-95.93
08.000,-87.46
08.015,-74.32
08.031,-60.88
08.046,-50.96
08.062,-45.79
08.078,-43.78
08.093,-41.81
08.109,-37.33
08.125,-29.77
08.140,-20.55
08.156,-11.88
08.171,-5.42
08.187,-1.62
08.203,0.11
08.218,0.29
08.234,-1.24
08.250,-5.52
08.265,-13.71
08.281,-26.18
08.296,-41.86
08.312,-58.45
08.328,-73.19
08.343,-83.89
08.359,-89.67
08.375,-91.01
08.390,-89.33
08.406,-86.29
08.421,-83.19
08.437,-80.84
08.453,-79.55
08.468,-79.35
08.484,-80.16
08.500,-81.91
08.515,-84.53
08.531,-87.73
08.546,-90.92
08.562,-93.15
08.578,-93.31
08.593,-90.5
08.609,-84.35
08.625,-75.24
08.640,-64.26
08.656,-52.82
08.671,-42.21
08.687,-33.33
08.703,-26.52
08.718,-21.75
08.734,-18.74
08.750,-17.16
08.765,-16.63
08.781,-16.72
08.796,-17.01
08.812,-17.01
08.828,-16.41
08.843,-15.1
08.859,-13.36
08.875,-11.77
08.890,-11.09
08.906,-12.0
08.921,-14.74
08.937,-19.08
08.953,-24.31
08.968,-29.59
08.984,-34.11
09.000,-37.38
09.015,-39.14
09.031,-39.26
09.046,-37.76
09.062,-34.84
09.078,-31.07
09.093,-27.47
09.109,-25.22
09.125,-25.21
09.140,-27.69
09.156,-32.06
09.171,-37.02
09.187,-41.08
09.203,-42.9
09.218,-41.56
09.234,-36.52
09.250,-27.6
09.265,-14.9
09.281,1.0
09.296,18.9
09.312,37.15
09.328,53.93
09.343,67.79
09.359,78.0
09.375,84.6
09.390,88.1
09.406,89.0
09.421,87.33
09.437,82.61
09.453,74.14
09.468,61.56
09.484,45.46
09.500,27.49
09.515,9.99
09.531,-4.76
09.546,-15.34
09.562,-21.53
09.578,-24.15
09.593,-24.37
09.609,-23.15
09.625,-20.94
09.640,-17.83
09.656,-14.03
09.671,-9.99
09.687,-6.29
09.703,-3.15
09.718,-0.08
09.734,4.13
09.750,10.81
09.765,20.75
09.781,33.68
09.796,48.26
09.812,62.56
09.828,74.6
09.843,82.99
09.859,87.04
09.875,86.69
09.890,82.11
09.906,73.49
09.921,60.99
09.937,44.86
09.953,25.77
09.968,4.8
09.984,-16.69
10.000,-37.38
10.015,-56.36
10.031,-73.19
10.046,-87.72
10.062,-99.9
10.078,-109.76
10.093,-117.79
10.109,-125.33
10.125,-134.45
10.140,-147.0
10.156,-163.32
10.171,-181.14
10.187,-195.67
10.203,-201.17
10.218,-193.35
10.234,-171.17
10.250,-137.41
10.265,-97.49
10.281,-57.47
10.296,-22.2
10.312,5.46
10.328,24.45
10.343,34.96
10.359,37.85
10.375,34.69
10.390,27.75
10.406,19.79
10.421,13.43
10.437,10.42
10.453,11.15
10.468,14.85
10.484,20.04
10.500,25.25
10.515,29.34
10.531,31.75
10.546,32.39
10.562,31.52
10.578,29.7
10.593,27.48
10.609,25.27
10.625,23.08
10.640,20.46
10.656,16.77
10.671,11.51
10.687,4.65
10.703,-3.32
10.718,-11.57
10.734,-19.32
10.750,-26.05
10.765,-31.66
10.781,-36.18
10.796,-39.42
10.812,-40.72
10.828,-38.99
10.843,-33.13
10.859,-22.53
10.875,-7.62
10.890,10.17
10.906,28.68
10.921,45.82
10.937,60.2
10.953,71.37
10.968,79.71
10.984,85.84
11.000,90.29
11.015,93.1
11.031,94.14
11.046,93.32
11.062,90.89
11.078,87.41
11.093,83.53
11.109,79.65
11.125,75.8
11.140,71.8
11.156,67.47
11.171,62.91
11.187,58.55
11.203,54.92
11.218,52.47
11.234,51.22
11.250,50.76
11.265,50.25
11.281,48.83
11.296,45.83
11.312,41.1
11.328,35.09
11.343,28.78
11.359,23.48
11.375,20.36
11.390,20.16
11.406,22.91
11.421,27.99
11.437,34.29
11.453,40.62
11.468,46.01
11.484,49.83
11.500,51.87
11.515,52.12
11.531,50.7
11.546,47.87
11.562,44.02
11.578,39.73
11.593,35.62
11.609,32.2
11.625,29.65
11.640,27.84
11.656,26.41
11.671,24.98
11.687,23.38
11.703,21.6
11.718,19.76
11.734,17.96
11.750,16.22
11.765,14.42
11.781,12.37
11.796,9.83
11.812,6.55
11.828,2.4
11.843,-2.55
11.859,-7.82
11.875,-12.52
11.890,-15.54
11.906,-15.87
11.921,-12.95
11.937,-6.94
11.953,1.36
11.968,10.8
11.984,20.16
12.000,28.53
12.015,35.36
12.031,40.36
12.046,43.43
12.062,44.52
12.078,43.72
12.093,41.32
12.109,37.83
12.125,33.87
12.140,30.07
12.156,26.84
12.171,24.22
12.187,21.99
12.203,19.77
12.218,17.28
12.234,14.44
12.250,11.48
12.265,8.71
12.281,6.4
12.296,4.54
12.312,2.9
12.328,1.02
12.343,-1.51
12.359,-4.91
12.375,-9.14
12.390,-13.87
12.406,-18.44
12.421,-22.06
12.437,-23.93
12.453,-23.45
12.468,-20.42
12.484,-15.15
12.500,-8.29
12.515,-0.68
12.531,6.87
12.546,13.79
12.562,19.73
12.578,24.49
12.593,27.9
12.609,29.8
12.625,30.03
12.640,28.57
12.656,25.6
12.671,21.54
12.687,16.99
12.703,12.58
12.718,8.87
12.734,6.19
12.750,4.59
12.765,3.88
12.781,3.78
12.796,4.08
12.812,4.69
12.828,5.62
12.843,6.79
12.859,7.9
12.875,8.42
12.890,7.74
12.906,5.39
12.921,1.3
12.937,-4.11
12.953,-9.93
12.968,-15.0
12.984,-18.19
13.000,-18.72
13.015,-16.32
13.031,-11.28
13.046,-4.27
13.062,3.77
13.078,11.98
13.093,19.6
13.109,26.06
13.125,30.87
13.140,33.68
13.156,34.31
13.171,32.85
13.187,29.79
13.203,25.83
13.218,21.63
13.234,17.59
13.250,13.67
13.265,9.53
13.281,4.8
13.296,-0.57
13.312,-6.22
13.328,-11.4
13.343,-15.33
13.359,-17.49
13.375,-17.83
13.390,-16.73
13.406,-14.83
13.421,-12.79
13.437,-11.18
13.453,-10.41
13.468,-10.77
13.484,-12.53
13.500,-15.83
13.515,-20.6
13.531,-26.38
13.546,-32.29
13.562,-37.11
13.578,-39.57
13.593,-38.84
13.609,-34.73
13.625,-27.84
13.640,-19.39
13.656,-10.71
13.671,-2.93
13.687,3.43
13.703,8.31
13.718,11.86
13.734,14.16
13.750,15.06
13.765,14.29
13.781,11.73
13.796,7.66
13.812,2.86
13.828,-1.58
13.843,-4.59
13.859,-5.47
13.875,-4.15
13.890,-1.12
13.906,2.82
13.921,6.76
13.937,10.1
13.953,12.58
13.968,14.25
13.984,15.2
14.000,15.4
14.015,14.57
14.031,12.29
14.046,8.35
14.062,2.94
14.078,-3.06
14.093,-8.37
14.109,-11.63
14.125,-11.9
14.140,-8.99
14.156,-3.51
14.171,3.44
14.187,10.6
14.203,16.96
14.218,21.98
14.234,25.49
14.250,27.57
14.265,28.39
14.281,28.09
14.296,26.83
14.312,24.83
14.328,22.44
14.343,20.12
14.359,18.29
14.375,17.26
14.390,17.08
14.406,17.58
14.421,18.36
14.437,19.03
14.453,19.24
14.468,18.85
14.484,17.94
14.500,16.73
14.515,15.48
14.531,14.38
14.546,13.47
14.562,12.64
14.578,11.69
14.593,10.43
14.609,8.81
14.625,6.99
14.640,5.37
14.656,4.51
14.671,4.98
14.687,7.19
14.703,11.29
14.718,17.06
14.734,23.95
14.750,31.07
14.765,37.5
14.781,42.48
14.796,45.68
14.812,47.28
14.828,47.89
14.843,48.34
14.859,49.34
14.875,51.3
14.890,54.29
14.906,58.15
14.921,62.65
14.937,67.64
14.953,73.06
14.968,78.91
14.984,85.18
15.000,91.86
15.015,99.0
15.031,106.72
15.046,115.29
15.062,124.96
15.078,135.89
15.093,147.99
15.109,160.87
15.125,173.9
15.140,186.37
15.156,197.81
15.171,208.14
15.187,217.76
15.203,227.35
15.218,237.48
15.234,248.35
15.250,259.49
15.265,269.87
15.281,278.11
15.296,283.02
15.312,283.93
15.328,280.75
15.343,273.8
15.359,263.46
15.375,249.85
15.390,232.74
15.406,211.67
15.421,186.22
15.437,156.29
15.453,122.27
15.468,85.06
15.484,45.93
15.500,6.26
15.515,-32.73
15.531,-70.14
15.546,-105.57
15.562,-139.15
15.578,-171.4
15.593,-202.98
15.609,-234.29
15.625,-265.14
15.640,-294.71
15.656,-321.59
15.671,-344.23
15.687,-361.26
15.703,-371.8
15.718,-375.57
15.734,-372.81
15.750,-364.02
15.765,-349.83
15.781,-330.88
15.796,-307.78
15.812,-281.28
15.828,-252.18
15.843,-221.48
15.859,-190.3
15.875,-159.87
15.890,-131.31
15.906,-105.54
15.921,-83.13
15.937,-64.09
15.953,-48.04
15.968,-34.19
15.984,-21.36
16.000,-8.3
16.015,5.83
16.031,21.35
16.046,37.79
16.062,54.17
16.078,69.69
16.093,84.04
16.109,97.65
16.125,111.24
16.140,125.01
16.156,138.23
16.171,149.72
16.187,158.72
16.203,165.65
16.218,171.96
16.234,178.96
16.250,186.72
16.265,193.81
16.281,198.13
16.296,198.4
16.312,195.33
16.328,191.61
16.343,190.57
16.359,194.51
16.375,203.38
16.390,214.89
16.406,225.77
16.421,233.14
16.437,235.76
16.453,233.96
16.468,228.88
16.484,221.59
16.500,212.6
16.515,201.59
16.531,187.98
16.546,171.54
16.562,152.65
16.578,132.55
16.593,112.74
16.609,94.26
16.625,77.3
16.640,61.35
16.656,45.7
16.671,30.03
16.687,14.45
16.703,-0.72
16.718,-15.25
16.734,-29.26
16.750,-43.25
16.765,-57.84
16.781,-73.45
16.796,-90.06
16.812,-107.03
16.828,-123.26
16.843,-137.49
16.859,-148.7
16.875,-156.52
16.890,-161.31
16.906,-163.86
16.921,-164.9
16.937,-164.6
16.953,-162.4
16.968,-157.35
16.984,-148.65
17.000,-136.35
17.015,-121.58
17.031,-106.23
17.046,-92.23
17.062,-80.8
17.078,-72.17
17.093,-65.78
17.109,-60.95
17.125,-57.24
17.140,-54.63
17.156,-53.47
17.171,-54.14
17.187,-56.99
17.203,-62.3
17.218,-70.17
17.234,-80.31
17.250,-91.68
17.265,-102.51
17.281,-110.72
17.296,-114.75
17.312,-114.32
17.328,-110.57
17.343,-105.4
17.359,-100.46
17.375,-96.45
17.390,-93.39
17.406,-91.51
17.421,-92.2
17.437,-98.07
17.453,-112.1
17.468,-136.13
17.484,-169.52
17.500,-208.89
17.515,-248.98
17.531,-284.37
17.546,-311.3
17.562,-328.37
17.578,-336.25
17.593,-336.53
17.609,-330.51
17.625,-318.77
17.640,-301.38
17.656,-278.56
17.671,-251.4
17.687,-221.96
17.703,-192.82
17.718,-166.22
17.734,-143.36
17.750,-124.21
17.765,-107.93
17.781,-93.48
17.796,-80.2
17.812,-67.99
17.828,-57.1
17.843,-47.86
17.859,-40.38
17.875,-34.43
17.890,-29.49
17.906,-24.99
17.921,-20.53
17.937,-16.01
17.953,-11.71
17.968,-8.03
17.984,-5.4
18.000,-4.08
18.015,-4.06
18.031,-4.97
18.046,-6.18
18.062,-7.08
18.078,-7.32
18.093,-7.13
18.109,-7.24
18.125,-8.59
18.140,-11.77
18.156,-16.65
18.171,-22.31
18.187,-27.32
18.203,-30.44
18.218,-31.03
18.234,-29.26
18.250,-25.85
18.265,-21.79
18.281,-17.89
18.296,-14.66
18.312,-12.38
18.328,-11.18
18.343,-11.21
18.359,-12.62
18.375,-15.44
18.390,-19.43
18.406,-24.21
18.421,-29.26
18.437,-34.19
18.453,-38.75
18.468,-42.78
18.484,-46.04
18.500,-48.02
18.515,-47.99
18.531,-45.27
18.546,-39.5
18.562,-30.92
18.578,-20.34
18.593,-8.95
18.609,1.94
18.625,11.22
18.640,18.11
18.656,22.19
18.671,23.44
18.687,22.22
18.703,19.26
18.718,15.55
18.734,12.19
18.750,10.12
18.765,9.81
18.781,11.13
18.796,13.29
18.812,15.12
18.828,15.35
18.843,13.15
18.859,8.28
18.875,1.26
18.890,-6.94
18.906,-15.27
18.921,-23.09
18.937,-30.32
18.953,-37.45
18.968,-45.01
18.984,-53.19
19.000,-61.52
19.015,-68.76
19.031,-73.13
19.046,-72.68
19.062,-65.76
19.078,-51.44
19.093,-29.85
19.109,-2.34
19.125,28.71
19.140,60.35
19.156,89.67
19.171,114.43
19.187,133.43
19.203,146.55
19.218,154.37
19.234,157.74
19.250,157.37
19.265,153.7
19.281,146.96
19.296,137.33
19.312,124.96
19.328,110.1
19.343,93.12
19.359,74.68
19.375,55.79
19.390,37.82
19.406,22.23
19.421,10.18
19.437,1.98
19.453,-3.19
19.468,-7.08
19.484,-11.71
19.500,-18.55
19.515,-27.8
19.531,-38.31
19.546,-47.97
19.562,-54.55
19.578,-56.53
19.593,-53.53
19.609,-46.26
19.625,-36.09
19.640,-24.54
19.656,-12.77
19.671,-1.44
19.687,9.2
19.703,19.25
19.718,28.83
19.734,38.03
19.750,46.71
19.765,54.34
19.781,60.05
19.796,62.82
19.812,61.76
19.828,56.51
19.843,47.51
19.859,35.88
19.875,23.12
19.890,10.61
19.906,-0.93
19.921,-11.49
19.937,-21.54
19.953,-31.71
19.968,-42.38
19.984,-53.56
20.000,-64.9
20.015,-75.75
20.031,-85.12
20.046,-91.83
20.062,-94.71
20.078,-92.92
20.093,-86.62
20.109,-77.08
20.125,-66.44
20.140,-56.95
20.156,-50.07
20.171,-45.87
20.187,-43.17
20.203,-40.19
20.218,-35.47
20.234,-28.47
20.250,-19.75
20.265,-10.5
20.281,-2.01
20.296,4.74
20.312,9.2
20.328,11.11
20.343,10.28
20.359,6.6
20.375,0.13
20.390,-8.67
20.406,-18.97
20.421,-29.69
20.437,-39.9
20.453,-49.18
20.468,-57.75
20.484,-66.18
20.500,-74.97
20.515,-83.95
20.531,-92.04
20.546,-97.3
20.562,-97.5
20.578,-90.83
20.593,-76.58
20.609,-55.5
20.625,-29.67
20.640,-1.98
20.656,24.69
20.671,48.05
20.687,66.77
20.703,80.44
20.718,89.27
20.734,93.81
20.750,94.76
20.765,92.87
20.781,88.99
20.796,84.05
20.812,78.86
20.828,74.01
20.843,69.69
20.859,65.81
20.875,62.13
20.890,58.48
20.906,54.79
20.921,51.13
20.937,47.58
20.953,44.13
20.968,40.61
20.984,36.77
21.000,32.28
21.015,27.0
21.031,21.13
21.046,15.26
21.062,10.35
21.078,7.54
21.093,7.77
21.109,11.48
21.125,18.39
21.140,27.51
21.156,37.46
21.171,46.83
21.187,54.5
21.203,59.82
21.218,62.6
21.234,62.96
21.250,61.27
21.265,57.99
21.281,53.69
21.296,48.89
21.312,44.1
21.328,39.61
21.343,35.58
21.359,31.94
21.375,28.58
21.390,25.34
21.406,22.1
21.421,18.78
21.437,15.33
21.453,11.77
21.468,8.15
21.484,4.58
21.500,1.11
21.515,-2.21
21.531,-5.34
21.546,-8.13
21.562,-10.24
21.578,-11.18
21.593,-10.44
21.609,-7.81
21.625,-3.46
21.640,2.05
21.656,7.97
21.671,13.65
21.687,18.74
21.703,23.18
21.718,27.04
21.734,30.36
21.750,33.05
21.765,34.88
21.781,35.65
21.796,35.27
21.812,33.82
21.828,31.47
21.843,28.52
21.859,25.3
21.875,22.17
21.890,19.45
21.906,17.37
21.921,16.0
21.937,15.19
21.953,14.73
21.968,14.37
21.984,13.97
22.000,13.38
22.015,12.39
22.031,10.61
22.046,7.62
22.062,3.23
22.078,-2.25
22.093,-7.84
22.109,-12.07
22.125,-13.51
22.140,-11.24
22.156,-5.23
22.171,3.63
22.187,13.92
22.203,24.18
22.218,33.23
22.234,40.45
22.250,45.64
22.265,48.77
22.281,49.87
22.296,48.9
22.312,45.88
22.328,41.01
22.343,34.75
22.359,27.73
22.375,20.64
22.390,14.02
22.406,8.13
22.421,3.03
22.437,-1.3
22.453,-4.82
22.468,-7.42
22.484,-8.96
22.500,-9.56
22.515,-9.68
22.531,-10.03
22.546,-11.36
22.562,-14.11
22.578,-18.11
22.593,-22.57
22.609,-26.27
22.625,-27.98
22.640,-26.89
22.656,-22.9
22.671,-16.59
22.687,-8.98
22.703,-1.12
22.718,6.29
22.734,12.95
22.750,18.91
22.765,24.23
22.781,28.75
22.796,32.1
22.812,33.89
22.828,33.91
22.843,32.38
22.859,29.88
22.875,27.1
22.890,24.6
22.906,22.6
22.921,20.97
22.937,19.42
22.953,17.71
22.968,15.77
22.984,13.77
23.000,11.96
23.015,10.54
23.031,9.56
23.046,8.86
23.062,8.18
23.078,7.24
23.093,5.87
23.109,4.03
23.125,1.85
23.140,-0.35
23.156,-2.12
23.171,-2.94
23.187,-2.34
23.203,-0.15
23.218,3.47
23.234,8.05
23.250,12.91
23.265,17.43
23.281,21.18
23.296,24.01
23.312,25.99
23.328,27.19
23.343,27.63
23.359,27.23
23.375,26.01
23.390,24.13
23.406,21.97
23.421,20.03
23.437,18.79
23.453,18.46
23.468,18.98
23.484,20.01
23.500,21.14
23.515,22.06
23.531,22.61
23.546,22.85
23.562,22.89
23.578,22.86
23.593,22.82
23.609,22.73
23.625,22.43
23.640,21.73
23.656,20.49
23.671,18.65
23.687,16.48
23.703,14.48
23.718,13.42
23.734,14.09
23.750,16.98
23.765,22.06
23.781,28.75
23.796,36.1
23.812,43.17
23.828,49.36
23.843,54.55
23.859,59.07
23.875,63.5
23.890,68.44
23.906,74.35
23.921,81.47
23.937,89.69
23.953,98.54
23.968,107.2
23.984,114.6
24.000,119.77
24.015,122.3
24.031,122.45
24.046,121.13
24.062,119.44
24.078,118.19
24.093,117.58
24.109,117.28
24.125,116.8
24.140,115.9
24.156,114.78
24.171,114.06
24.187,114.47
24.203,116.59
24.218,120.6
24.234,126.3
24.250,133.24
24.265,140.83
24.281,148.52
24.296,155.83
24.312,162.41
24.328,168.1
24.343,172.79
24.359,176.38
24.375,178.75
24.390,179.78
24.406,179.44
24.421,177.78
24.437,174.87
24.453,170.58
24.468,164.59
24.484,156.35
24.500,145.28
24.515,130.97
24.531,113.21
24.546,92.01
24.562,67.38
24.578,39.35
24.593,7.99
24.609,-26.38
24.625,-62.97
24.640,-100.49
24.656,-137.21
24.671,-171.31
24.687,-201.1
24.703,-225.45
24.718,-243.84
24.734,-256.47
24.750,-264.08
24.765,-267.52
24.781,-267.53
24.796,-264.48
24.812,-258.53
24.828,-249.86
24.843,-238.99
24.859,-226.67
24.875,-213.8
24.890,-201.06
24.906,-188.81
24.921,-177.06
24.937,-165.69
24.953,-154.52
24.968,-143.23
24.984,-131.28
25.000,-117.66
25.015,-100.98
25.031,-80.29
25.046,-55.74
25.062,-28.95
25.078,-2.51
25.093,20.97
25.109,40.13
25.125,55.24
25.140,67.86
25.156,79.64
25.171,91.14
25.187,101.68
25.203,110.21
25.218,116.56
25.234,121.97
25.250,128.6
25.265,138.04
25.281,150.23
25.296,163.47
25.312,175.43
25.328,184.61
25.343,190.89
25.359,195.0
25.375,197.51
25.390,198.02
25.406,195.42
25.421,188.94
25.437,179.1
25.453,167.69
25.468,157.02
25.484,148.49
25.500,141.93
25.515,136.17
25.531,130.12
25.546,123.62
25.562,117.84
25.578,114.67
25.593,115.53
25.609,120.66
25.625,128.66
25.640,136.76
25.656,141.72
25.671,140.9
25.687,133.06
25.703,118.68
25.718,99.73
25.734,78.84
25.750,58.47
25.765,40.11
25.781,24.12
25.796,9.98
25.812,-3.14
25.828,-15.86
25.843,-28.44
25.859,-40.95
25.875,-53.55
25.890,-66.5
25.906,-79.99
25.921,-93.65
25.937,-106.24
25.953,-115.84
25.968,-120.6
25.984,-119.51
26.000,-113.05
26.015,-103.01
26.031,-91.9
26.046,-82.12
26.062,-75.39
26.078,-72.46
26.093,-73.39
26.109,-77.78
26.125,-84.99
26.140,-94.13
26.156,-104.11
26.171,-113.72
26.187,-121.91
26.203,-128.04
26.218,-132.14
26.234,-134.81
26.250,-136.95
26.265,-139.39
26.281,-142.55
26.296,-146.25
26.312,-149.68
26.328,-151.57
26.343,-150.57
26.359,-145.59
26.375,-136.26
26.390,-122.99
26.406,-106.95
26.421,-89.79
26.437,-73.26
26.453,-59.03
26.468,-48.44
26.484,-42.55
26.500,-42.12
26.515,-47.55
26.531,-58.91
26.546,-75.81
26.562,-97.63
26.578,-123.54
26.593,-152.61
26.609,-183.6
26.625,-214.77
26.640,-243.71
26.656,-267.49
26.671,-283.19
26.687,-288.67
26.703,-283.26
26.718,-268.03
26.734,-245.55
26.750,-219.08
26.765,-191.76
26.781,-165.93
26.796,-142.85
26.812,-122.93
26.828,-106.09
26.843,-92.03
26.859,-80.34
26.875,-70.55
26.890,-62.12
26.906,-54.63
26.921,-47.96
26.937,-42.41
26.953,-38.57
26.968,-36.99
26.984,-37.81
27.000,-40.46
27.015,-43.8
27.031,-46.35
27.046,-46.8
27.062,-44.47
27.078,-39.47
27.093,-32.71
27.109,-25.52
27.125,-19.21
27.140,-14.55
27.156,-11.57
27.171,-9.64
27.187,-7.76
27.203,-5.07
27.218,-1.15
27.234,3.82
27.250,9.21
27.265,14.25
27.281,18.32
27.296,21.16
27.312,23.02
27.328,24.54
27.343,26.54
27.359,29.8
27.375,34.72
27.390,41.21
27.406,48.65
27.421,56.16
27.437,62.76
27.453,67.73
27.468,70.66
27.484,71.4
27.500,70.06
27.515,66.86
27.531,62.18
27.546,56.49
27.562,50.27
27.578,43.93
27.593,37.67
27.609,31.42
27.625,24.73
27.640,16.9
27.656,7.02
27.671,-5.93
27.687,-22.71
27.703,-43.53
27.718,-67.66
27.734,-93.33
27.750,-117.88
27.765,-138.55
27.781,-153.13
27.796,-160.74
27.812,-162.0
27.828,-158.62
27.843,-152.72
27.859,-146.12
27.875,-139.75
27.890,-133.64
27.906,-127.28
27.921,-120.05
27.937,-111.65
27.953,-102.37
27.968,-92.9
27.984,-84.12
28.000,-76.72
28.015,-70.92
28.031,-66.31
28.046,-61.92
28.062,-56.4
28.078,-48.48
28.093,-37.31
28.109,-22.72
28.125,-5.21
28.140,14.24
28.156,34.54
28.171,54.77
28.187,74.15
28.203,91.86
28.218,106.76
28.234,117.32
28.250,121.91
28.265,119.3
28.281,109.24
28.296,92.76
28.312,72.2
28.328,50.53
28.343,30.67
28.359,14.63
28.375,3.12
28.390,-4.51
28.406,-9.59
28.421,-13.55
28.437,-17.15
28.453,-20.21
28.468,-21.85
28.484,-20.85
28.500,-16.29
28.515,-7.85
28.531,4.16
28.546,19.01
28.562,35.76
28.578,53.46
28.593,71.05
28.609,87.31
28.625,100.83
28.640,110.12
28.656,113.85
28.671,111.32
28.687,102.76
28.703,89.42
28.718,73.41
28.734,57.09
28.750,42.49
28.765,30.79
28.781,22.15
28.796,15.84
28.812,10.64
28.828,5.19
28.843,-1.73
28.859,-10.81
28.875,-22.06
28.890,-34.65
28.906,-47.11
28.921,-57.93
28.937,-66.31
28.953,-72.62
28.968,-78.36
28.984,-85.39
29.000,-94.85
29.015,-106.4
29.031,-118.23
29.046,-127.77
29.062,-132.85
29.078,-132.39
29.093,-126.55
29.109,-116.28
29.125,-102.66
29.140,-86.62
29.156,-69.01
29.171,-50.86
29.187,-33.52
29.203,-18.46
29.218,-6.83
29.234,0.9
29.250,5.08
29.265,6.77
29.281,7.34
29.296,7.97
29.312,9.21
29.328,10.79
29.343,11.67
29.359,10.45
29.375,6.04
29.390,-1.82
29.406,-12.13
29.421,-22.89
29.437,-31.69
29.453,-36.53
29.468,-36.44
29.484,-31.87
29.500,-24.34
29.515,-15.79
29.531,-8.0
29.546,-2.1
29.562,1.6
29.578,3.57
29.593,4.79
29.609,6.54
29.625,10.04
29.640,16.11
29.656,24.98
29.671,36.12
29.687,48.45
29.703,60.65
29.718,71.53
29.734,80.29
29.750,86.63
29.765,90.64
29.781,92.6
29.796,92.9
29.812,91.89
29.828,89.9
29.843,87.3
29.859,84.42
29.875,81.53
29.890,78.74
29.906,76.03
29.921,73.24
29.937,70.19
29.953,66.75
29.968,62.92
29.984,58.84
30.000,54.64
30.015,50.45
30.031,46.29
30.046,42.09
30.062,37.76
30.078,33.23
30.093,28.47
30.109,23.56
30.125,18.65
30.140,14.02
30.156,10.12
30.171,7.49
30.187,6.67
30.203,8.01
30.218,11.56
30.234,16.94
30.250,23.45
30.265,30.25
30.281,36.44
30.296,41.32
30.312,44.46
30.328,45.65
30.343,44.92
30.359,42.55
30.375,38.96
30.390,34.7
30.406,30.37
30.421,26.48
30.437,23.44
30.453,21.42
30.468,20.4
30.484,20.18
30.500,20.45
30.515,20.85
30.531,21.1
30.546,20.99
30.562,20.36
30.578,19.13
30.593,17.12
30.609,14.07
30.625,9.69
30.640,3.76
30.656,-3.73
30.671,-12.28
30.687,-20.96
30.703,-28.45
30.718,-33.32
30.734,-34.47
30.750,-31.42
30.765,-24.44
30.781,-14.55
30.796,-3.16
30.812,8.22
30.828,18.33
30.843,26.3
30.859,31.72
30.875,34.49
30.890,34.85
30.906,33.25
30.921,30.34
30.937,26.87
30.953,23.57
30.968,21.01
30.984,19.55
31.000,19.25
31.015,19.95
31.031,21.36
31.046,23.08
31.062,24.68
31.078,25.66
31.093,25.6
31.109,24.24
31.125,21.53
31.140,17.67
31.156,12.93
31.171,7.5
31.187,1.36
31.203,-5.66
31.218,-13.65
31.234,-22.17
31.250,-30.17
31.265,-36.04
31.281,-38.16
31.296,-35.61
31.312,-28.52
31.328,-18.11
31.343,-6.26
31.359,5.24
31.375,15.16
31.390,22.98
31.406,28.61
31.421,31.98
31.437,32.82
31.453,30.8
31.468,25.91
31.484,18.84
31.500,10.95
31.515,3.92
31.531,-0.83
31.546,-2.6
31.562,-1.51
31.578,1.66
31.593,5.93
31.609,10.42
31.625,14.55
31.640,17.9
31.656,20.04
31.671,20.47
31.687,18.69
31.703,14.48
31.718,8.06
31.734,0.12
31.750,-8.24
31.765,-15.76
31.781,-21.28
31.796,-23.92
31.812,-23.14
31.828,-18.89
31.843,-11.54
31.859,-1.94
31.875,8.71
31.890,19.08
31.906,27.97
31.921,34.55
31.937,38.47
31.953,39.8
31.968,38.86
31.984,36.07
32.000,31.9
32.015,26.91
32.031,21.82
32.046,17.38
32.062,14.27
32.078,12.8
32.093,12.84
32.109,13.87
32.125,15.15
32.140,16.12
32.156,16.5
32.171,16.37
32.187,15.99
32.203,15.66
32.218,15.46
32.234,15.29
32.250,14.98
32.265,14.39
32.281,13.5
32.296,12.5
32.312,11.78
32.328,11.81
32.343,13.13
32.359,16.14
32.375,20.9
32.390,27.16
32.406,34.31
32.421,41.64
32.437,48.54
32.453,54.7
32.468,60.09
32.484,64.81
32.500,68.87
32.515,72.03
32.531,73.91
32.546,74.21
32.562,73.08
32.578,71.24
32.593,69.99
32.609,70.91
32.625,75.4
32.640,84.27
32.656,97.46
32.671,114.03
32.687,132.33
32.703,150.39
32.718,166.28
32.734,178.45
32.750,185.93
32.765,188.43
32.781,186.34
32.796,180.46
32.812,171.76
32.828,160.97
32.843,148.48
32.859,134.39
32.875,119.01
32.890,103.34
32.906,89.39
32.921,79.83
32.937,77.21
32.953,82.84
32.968,96.19
32.984,114.99
33.000,136.06
33.015,156.43
33.031,174.26
33.046,188.95
33.062,200.65
33.078,209.58
33.093,215.49
33.109,217.79
33.125,216.0
33.140,210.26
33.156,201.36
33.171,190.48
33.187,178.54
33.203,165.76
33.218,151.48
33.234,134.48
33.250,113.59
33.265,88.22
33.281,58.6
33.296,25.78
33.312,-8.75
33.328,-43.48
33.343,-77.21
33.359,-109.19
33.375,-139.33
33.390,-168.15
33.406,-196.6
33.421,-225.5
33.437,-254.75
33.453,-282.81
33.468,-306.65
33.484,-322.57
33.500,-327.57
33.515,-320.87
33.531,-304.42
33.546,-282.38
33.562,-259.51
33.578,-239.65
33.593,-224.76
33.609,-215.01
33.625,-209.45
33.640,-206.77
33.656,-205.68
33.671,-204.79
33.687,-202.45
33.703,-196.96
33.718,-187.05
33.734,-172.39
33.750,-153.75
33.765,-132.64
33.781,-110.65
33.796,-88.96
33.812,-68.07
33.828,-47.85
33.843,-28.01
33.859,-8.43
33.875,10.62
33.890,28.47
33.906,44.29
33.921,57.68
33.937,69.04
33.953,79.64
33.968,91.09
33.984,104.26
34.000,118.73
34.015,133.02
34.031,145.49
34.046,155.46
34.062,163.52
34.078,170.81
34.093,177.89
34.109,184.16
34.125,188.3
34.140,189.39
34.156,187.93
34.171,185.79
34.187,185.36
34.203,188.33
34.218,195.1
34.234,204.92
34.250,216.65
34.265,229.11
34.281,241.19
34.296,251.52
34.312,258.35
34.328,260.09
34.343,256.09
34.359,246.84
34.375,233.56
34.390,217.49
34.406,199.19
34.421,178.75
34.437,156.32
34.453,132.62
34.468,108.77
34.484,85.95
34.500,64.82
34.515,45.45
34.531,27.51
34.546,10.62
34.562,-5.37
34.578,-20.42
34.593,-34.61
34.609,-48.31
34.625,-62.23
34.640,-77.24
34.656,-93.92
34.671,-112.28
34.687,-131.6
34.703,-150.64
34.718,-168.01
34.734,-182.52
34.750,-193.54
34.765,-200.95
34.781,-205.06
34.796,-206.47
34.812,-206.04
34.828,-204.82
34.843,-204.06
34.859,-204.95
34.875,-208.22
34.890,-213.65
34.906,-219.85
34.921,-224.61
34.937,-225.65
34.953,-221.44
34.968,-211.79
34.984,-197.81
35.000,-181.29
35.015,-163.92
35.031,-146.8
35.046,-130.39
35.062,-114.93
35.078,-100.83
35.093,-88.76
35.109,-79.4
35.125,-73.05
35.140,-69.61
35.156,-68.87
35.171,-71.05
35.187,-77.06
35.203,-88.07
35.218,-104.76
35.234,-126.43
35.250,-150.86
35.265,-174.86
35.281,-195.39
35.296,-210.47
35.312,-219.4
35.328,-222.29
35.343,-219.34
35.359,-210.5
35.375,-195.77
35.390,-175.86
35.406,-152.6
35.421,-128.69
35.437,-106.9
35.453,-89.13
35.468,-75.96
35.484,-66.67
35.500,-60.06
35.515,-55.18
35.531,-51.76
35.546,-50.06
35.562,-50.55
35.578,-53.33
35.593,-57.95
35.609,-63.57
35.625,-69.15
35.640,-73.87
35.656,-77.23
35.671,-79.1
35.687,-79.54
35.703,-78.62
35.718,-76.25
35.734,-72.25
35.750,-66.39
35.765,-58.62
35.781,-49.22
35.796,-38.74
35.812,-27.94
35.828,-17.56
35.843,-8.1
35.859,0.21
35.875,7.37
35.890,13.42
35.906,18.36
35.921,21.97
35.937,23.89
35.953,23.73
35.968,21.3
35.984,16.78
36.000,10.82
36.015,4.37
36.031,-1.6
36.046,-6.34
36.062,-9.63
36.078,-11.64
36.093,-12.72
36.109,-13.18
36.125,-13.06
36.140,-12.33
36.156,-10.95
36.171,-9.06
36.187,-6.93
36.203,-4.84
36.218,-2.79
36.234,-0.61
36.250,1.9
36.265,4.8
36.281,7.79
36.296,10.46
36.312,12.43
36.328,13.54
36.343,13.93
36.359,13.87
36.375,13.59
36.390,13.11
36.406,12.38
36.421,11.26
36.437,9.8
36.453,8.17
36.468,6.52
36.484,4.92
36.500,3.26
36.515,1.37
36.531,-0.84
36.546,-3.24
36.562,-5.63
36.578,-7.8
36.593,-9.79
36.609,-11.95
36.625,-14.79
36.640,-18.72
36.656,-23.82
36.671,-29.83
36.687,-36.18
36.703,-42.3
36.718,-47.71
36.734,-52.12
36.750,-55.29
36.765,-56.95
36.781,-56.82
36.796,-54.74
36.812,-50.84
36.828,-45.56
36.843,-39.57
36.859,-33.6
36.875,-28.23
36.890,-23.87
36.906,-20.71
36.921,-18.7
36.937,-17.45
36.953,-16.18
36.968,-13.7
36.984,-8.62
37.000,0.18
37.015,13.14
37.031,29.83
37.046,49.1
37.062,69.38
37.078,89.2
37.093,107.47
37.109,123.49
37.125,136.86
37.140,147.27
37.156,154.42
37.171,158.06
37.187,158.06
37.203,154.38
37.218,147.1
37.234,136.28
37.250,122.15
37.265,105.27
37.281,86.71
37.296,68.08
37.312,51.3
37.328,38.14
37.343,29.69
37.359,26.09
37.375,26.48
37.390,29.43
37.406,33.38
37.421,37.18
37.437,40.21
37.453,42.43
37.468,44.06
37.484,45.31
37.500,46.22
37.515,46.57
37.531,46.01
37.546,44.21
37.562,41.05
37.578,36.51
37.593,30.63
37.609,23.28
37.625,14.22
37.640,3.22
37.656,-9.63
37.671,-23.78
37.687,-38.28
37.703,-52.06
37.718,-64.43
37.734,-75.29
37.750,-84.96
37.765,-93.82
37.781,-101.81
37.796,-108.38
37.812,-112.85
37.828,-114.98
37.843,-115.43
37.859,-115.62
37.875,-117.08
37.890,-120.6
37.906,-125.74
37.921,-130.84
37.937,-133.9
37.953,-133.45
37.968,-129.22
37.984,-122.12
38.000,-113.63
38.015,-104.96
38.031,-96.54
38.046,-88.06
38.062,-79.08
38.078,-69.71
38.093,-60.87
38.109,-54.03
38.125,-50.58
38.140,-51.12
38.156,-55.2
38.171,-61.55
38.187,-68.77
38.203,-75.78
38.218,-82.09
38.234,-87.56
38.250,-92.03
38.265,-95.21
38.281,-96.46
38.296,-95.17
38.312,-90.78
38.328,-82.94
38.343,-71.5
38.359,-56.52
38.375,-38.35
38.390,-17.89
38.406,3.38
38.421,23.57
38.437,40.7
38.453,53.23
38.468,60.41
38.484,62.41
38.500,60.1
38.515,54.83
38.531,48.03
38.546,40.97
38.562,34.7
38.578,29.87
38.593,26.8
38.609,25.51
38.625,25.79
38.640,27.31
38.656,29.67
38.671,32.56
38.687,35.68
38.703,38.84
38.718,41.89
38.734,44.66
38.750,46.94
38.765,48.43
38.781,48.79
38.796,47.71
38.812,45.19
38.828,41.66
38.843,38.1
38.859,35.75
38.875,35.77
38.890,38.76
38.906,44.48
38.921,51.88
38.937,59.48
38.953,65.9
38.968,70.2
38.984,72.08
39.000,71.79
39.015,69.86
39.031,66.83
39.046,63.16
39.062,59.16
39.078,55.12
39.093,51.3
39.109,47.89
39.125,44.96
39.140,42.41
39.156,40.0
39.171,37.48
39.187,34.76
39.203,31.89
39.218,29.1
39.234,26.65
39.250,24.57
39.265,22.64
39.281,20.42
39.296,17.41
39.312,13.37
39.328,8.59
39.343,3.82
39.359,0.19
39.375,-1.21
39.390,0.28
39.406,4.67
39.421,11.31
39.437,19.04
39.453,26.62
39.468,33.06
39.484,37.74
39.500,40.47
39.515,41.34
39.531,40.58
39.546,38.52
39.562,35.56
39.578,32.2
39.593,29.0
39.609,26.51
39.625,24.99
39.640,24.37
39.656,24.26
39.671,24.12
39.687,23.52
39.703,22.31
39.718,20.59
39.734,18.62
39.750,16.64
39.765,14.68
39.781,12.56
39.796,10.03
39.812,6.78
39.828,2.66
39.843,-2.28
39.859,-7.64
39.875,-12.67
39.890,-16.39
39.906,-17.83
39.921,-16.31
39.937,-11.73
39.953,-4.64
39.968,4.0
39.984,13.02
40.000,21.39
40.015,28.34
40.031,33.4
40.046,36.3
40.062,36.99
40.078,35.63
40.093,32.68
40.109,28.85
40.125,24.96
40.140,21.73
40.156,19.6
40.171,18.64
40.187,18.6
40.203,18.98
40.218,19.26
40.234,18.92
40.250,17.64
40.265,15.32
40.281,12.1
40.296,8.35
40.312,4.56
40.328,1.23
40.343,-1.23
40.359,-2.67
40.375,-3.17
40.390,-3.05
40.406,-2.71
40.421,-2.46
40.437,-2.37
40.453,-2.28
40.468,-1.91
40.484,-1.0
40.500,0.46
40.515,2.29
40.531,4.19
40.546,5.93
40.562,7.52
40.578,9.23
40.593,11.43
40.609,14.4
40.625,18.13
40.640,22.24
40.656,26.17
40.671,29.27
40.687,31.08
40.703,31.46
40.718,30.51
40.734,28.56
40.750,25.96
40.765,22.96
40.781,19.71
40.796,16.36
40.812,13.14
40.828,10.45
40.843,8.76
40.859,8.38
40.875,9.25
40.890,10.81
40.906,12.19
40.921,12.4
40.937,10.76
40.953,7.0
40.968,1.4
40.984,-5.31
41.000,-12.16
41.015,-17.97
41.031,-21.64
41.046,-22.31
41.062,-19.53
41.078,-13.51
41.093,-5.09
41.109,4.41
41.125,13.45
41.140,20.8
41.156,25.8
41.171,28.43
41.187,29.21
41.203,28.88
41.218,28.1
41.234,27.26
41.250,26.52
41.265,25.88
41.281,25.34
41.296,24.93
41.312,24.66
41.328,24.39
41.343,23.89
41.359,22.88
41.375,21.26
41.390,19.16
41.406,16.98
41.421,15.15
41.437,13.93
41.453,13.25
41.468,12.76
41.484,11.97
41.500,10.52
41.515,8.26
41.531,5.31
41.546,1.99
41.562,-1.26
41.578,-3.87
41.593,-5.28
41.609,-5.03
41.625,-2.92
41.640,0.89
41.656,5.88
41.671,11.35
41.687,16.64
41.703,21.37
41.718,25.39
41.734,28.68
41.750,31.26
41.765,33.01
41.781,33.82
41.796,33.65
41.812,32.66
41.828,31.2
41.843,29.69
41.859,28.45
41.875,27.58
41.890,26.96
41.906,26.36
41.921,25.6
41.937,24.61
41.953,23.5
41.968,22.44
41.984,21.65
42.000,21.18
42.015,20.98
42.031,20.81
42.046,20.37
42.062,19.36
42.078,17.69
42.093,15.54
42.109,13.38
42.125,11.87
42.140,11.68
42.156,13.27
42.171,16.75
42.187,21.87
42.203,28.17
42.218,35.1
42.234,42.31
42.250,49.57
42.265,56.82
42.281,63.94
42.296,70.63
42.312,76.5
42.328,81.15
42.343,84.49
42.359,86.86
42.375,89.03
42.390,91.94
42.406,96.44
42.421,103.1
42.437,112.06
42.453,123.18
42.468,135.98
42.484,149.61
42.500,162.81
42.515,174.1
42.531,182.15
42.546,186.44
42.562,187.6
42.578,187.29
42.593,187.43
42.609,189.13
42.625,191.87
42.640,193.42
42.656,190.61
42.671,180.72
42.687,162.52
42.703,136.82
42.718,105.87
42.734,72.5
42.750,38.96
42.765,6.42
42.781,-24.96
42.796,-55.34
42.812,-84.31
42.828,-110.4
42.843,-131.15
42.859,-143.96
42.875,-147.18
42.890,-140.93
42.906,-127.34
42.921,-110.14
42.937,-93.46
42.953,-80.69
42.968,-73.4
42.984,-71.1
43.000,-71.81
43.015,-72.85
43.031,-71.48
43.046,-65.18
43.062,-52.1
43.078,-31.56
43.093,-4.69
43.109,25.31
43.125,53.24
43.140,72.84
43.156,78.78
43.171,69.06
43.187,46.33
43.203,17.22
43.218,-10.48
43.234,-31.34
43.250,-44.67
43.265,-54.37
43.281,-66.14
43.296,-83.5
43.312,-104.96
43.328,-124.26
43.343,-133.58
43.359,-127.98
43.375,-108.25
43.390,-80.5
43.406,-52.55
43.421,-29.49
43.437,-11.15
43.453,6.95
43.468,29.98
43.484,60.22
43.500,95.51
43.515,130.46
43.531,159.59
43.546,180.22
43.562,193.56
43.578,203.21
43.593,212.31
43.609,221.29
43.625,227.67
43.640,227.41
43.656,217.13
43.671,195.55
43.687,163.84
43.703,125.07
43.718,83.39
43.734,43.32
43.750,9.39
43.765,-14.51
43.781,-26.09
43.796,-25.75
43.812,-16.83
43.828,-4.7
43.843,5.02
43.859,8.49
43.875,4.74
43.890,-4.81
43.906,-17.79
43.921,-32.55
43.937,-48.77
43.953,-66.77
43.968,-86.03
43.984,-104.28
44.000,-117.93
44.015,-123.92
44.031,-121.76
44.046,-114.55
44.062,-108.23
44.078,-109.23
44.093,-121.75
44.109,-146.11
44.125,-178.8
44.140,-214.15
44.156,-246.72
44.171,-272.9
44.187,-291.28
44.203,-301.92
44.218,-305.33
44.234,-301.84
44.250,-291.69
44.265,-275.67
44.281,-255.58
44.296,-234.36
44.312,-215.44
44.328,-201.83
44.343,-195.24
44.359,-195.62
44.375,-201.11
44.390,-208.71
44.406,-215.09
44.421,-217.57
44.437,-214.79
44.453,-206.75
44.468,-194.44
44.484,-179.1
44.500,-161.66
44.515,-142.62
44.531,-122.17
44.546,-100.6
44.562,-78.63
44.578,-57.3
44.593,-37.7
44.609,-20.58
44.625,-6.13
44.640,5.99
44.656,16.38
44.671,25.58
44.687,33.94
44.703,41.62
44.718,48.64
44.734,55.06
44.750,60.97
44.765,66.5
44.781,71.75
44.796,76.77
44.812,81.4
44.828,85.16
44.843,87.24
44.859,86.71
44.875,82.72
44.890,74.92
44.906,63.5
44.921,49.16
44.937,32.79
44.953,15.25
44.968,-2.68
44.984,-20.04
45.000,-35.43
45.015,-47.04
45.031,-53.0
45.046,-52.07
45.062,-44.29
45.078,-31.02
45.093,-14.62
45.109,2.33
45.125,17.73
45.140,30.39
45.156,40.05
45.171,47.12
45.187,52.38
45.203,56.68
45.218,60.81
45.234,65.53
45.250,71.39
45.265,78.62
45.281,86.98
45.296,95.82
45.312,104.19
45.328,111.29
45.343,116.73
45.359,120.84
45.375,124.64
45.390,129.51
45.406,136.67
45.421,146.74
45.437,159.43
45.453,173.57
45.468,187.47
45.484,199.13
45.500,206.65
45.515,208.46
45.531,203.45
45.546,191.11
45.562,171.59
45.578,145.63
45.593,114.53
45.609,80.02
45.625,44.23
45.640,9.62
45.656,-21.36
45.671,-46.84
45.687,-66.14
45.703,-80.17
45.718,-91.27
45.734,-102.32
45.750,-115.57
45.765,-131.69
45.781,-149.19
45.796,-164.97
45.812,-175.3
45.828,-177.24
45.843,-169.7
45.859,-153.82
45.875,-132.69
45.890,-110.31
45.906,-90.39
45.921,-75.26
45.937,-65.62
45.953,-60.65
45.968,-58.57
45.984,-57.49
46.000,-55.82
46.015,-52.66
46.031,-47.91
46.046,-42.19
46.062,-36.61
46.078,-32.32
46.093,-29.99
46.109,-29.26
46.125,-28.76
46.140,-26.44
46.156,-20.19
46.171,-8.78
46.187,7.88
46.203,28.59
46.218,51.1
46.234,72.67
46.250,90.57
46.265,102.46
46.281,107.02
46.296,104.05
46.312,94.47
46.328,80.11
46.343,63.23
46.359,45.97
46.375,30.02
46.390,16.52
46.406,6.06
46.421,-1.13
46.437,-5.19
46.453,-6.95
46.468,-8.01
46.484,-10.65
46.500,-17.15
46.515,-28.95
46.531,-45.76
46.546,-65.27
46.562,-83.66
46.578,-96.87
46.593,-102.32
46.609,-99.73
46.625,-91.03
46.640,-79.15
46.656,-66.49
46.671,-54.09
46.687,-41.59
46.703,-28.04
46.718,-12.94
46.734,2.83
46.750,16.94
46.765,26.13
46.781,27.47
46.796,19.78
46.812,4.33
46.828,-15.15
46.843,-33.75
46.859,-47.4
46.875,-54.49
46.890,-56.29
46.906,-55.79
46.921,-55.65
46.937,-56.46
46.953,-56.51
46.968,-53.4
46.984,-46.09
47.000,-36.07
47.015,-26.86
47.031,-21.95
47.046,-22.9
47.062,-28.68
47.078,-36.42
47.093,-43.05
47.109,-46.48
47.125,-45.9
47.140,-41.27
47.156,-32.79
47.171,-20.85
47.187,-6.39
47.203,8.93
47.218,22.93
47.234,33.52
47.250,39.2
47.265,39.3
47.281,33.87
47.296,23.6
47.312,9.76
47.328,-5.74
47.343,-20.47
47.359,-31.97
47.375,-38.32
47.390,-38.57
47.406,-32.58
47.421,-20.74
47.437,-3.55
47.453,18.06
47.468,42.32
47.484,66.61
47.500,88.0
47.515,104.45
47.531,115.42
47.546,121.68
47.562,124.35
47.578,123.88
47.593,119.92
47.609,111.89
47.625,100.27
47.640,87.06
47.656,75.31
47.671,67.81
47.687,65.99
47.703,69.66
47.718,77.77
47.734,89.22
47.750,103.2
47.765,119.02
47.781,135.38
47.796,150.19
47.812,160.91
47.828,165.45
47.843,162.88
47.859,153.73
47.875,139.73
47.890,123.37
47.906,107.4
47.921,94.44
47.937,86.53
47.953,84.57
47.968,87.63
47.984,92.9
48.000,96.34
48.015,94.27
48.031,84.93
48.046,69.39
48.062,51.06
48.078,34.35
48.093,23.02
48.109,18.85
48.125,21.42
48.140,28.57
48.156,37.16
48.171,43.87
48.187,45.95
48.203,41.66
48.218,30.81
48.234,15.03
48.250,-2.83
48.265,-19.69
48.281,-33.64
48.296,-44.96
48.312,-56.02
48.328,-70.06
48.343,-89.6
48.359,-115.11
48.375,-144.55
48.390,-173.94
48.406,-198.58
48.421,-214.44
48.437,-219.5
48.453,-214.22
48.468,-201.15
48.484,-183.41
48.500,-163.02
48.515,-139.97
48.531,-112.55
48.546,-79.11
48.562,-39.91
48.578,1.65
48.593,39.57
48.609,67.33
48.625,80.48
48.640,78.58
48.656,65.27
48.671,46.73
48.687,29.3
48.703,17.41
48.718,12.75
48.734,14.85
48.750,22.2
48.765,33.15
48.781,46.28
48.796,60.2
48.812,73.28
48.828,83.66
48.843,89.65
48.859,90.4
48.875,86.0
48.890,77.37
48.906,65.71
48.921,52.13
48.937,37.74
48.953,24.22
48.968,13.75
48.984,8.16
49.000,7.96
49.015,11.26
49.031,14.06
49.046,11.66
49.062,0.67
49.078,-19.77
49.093,-47.69
49.109,-79.5
49.125,-111.76
49.140,-142.24
49.156,-170.05
49.171,-194.54
49.187,-214.11
49.203,-225.93
49.218,-226.93
49.234,-215.34
49.250,-192.19
49.265,-161.6
49.281,-129.7
49.296,-102.67
49.312,-84.83
49.328,-77.48
49.343,-78.98
49.359,-85.84
49.375,-94.24
49.390,-101.23
49.406,-105.2
49.421,-105.7
49.437,-103.1
49.453,-98.06
49.468,-91.32
49.484,-83.79
49.500,-76.5
49.515,-70.56
49.531,-67.15
49.546,-67.17
49.562,-70.69
49.578,-76.68
49.593,-82.93
49.609,-86.49
49.625,-84.62
49.640,-75.78
49.656,-60.34
49.671,-40.73
49.687,-20.56
49.703,-3.33
49.718,8.71
49.734,15.13
49.750,17.04
49.765,16.13
49.781,13.89
49.796,11.1
49.812,8.04
49.828,4.96
49.843,2.46
49.859,1.33
49.875,2.15
49.890,4.88
49.906,8.74
49.921,12.72
49.937,16.02
49.953,18.43
49.968,20.27
49.984,22.05
50.000,24.08
50.015,26.35
50.031,28.74
50.046,31.2
50.062,33.94
50.078,37.39
50.093,42.09
50.109,48.61
50.125,57.52
50.140,69.2
50.156,83.5
50.171,99.23
50.187,113.92
50.203,124.14
50.218,126.3
50.234,117.61
50.250,96.78
50.265,64.42
50.281,23.02
50.296,-23.19
50.312,-68.74
50.328,-107.77
50.343,-135.24
50.359,-148.15
50.375,-146.37
50.390,-132.47
50.406,-110.69
50.421,-85.55
50.437,-60.66
50.453,-38.44
50.468,-20.61
50.484,-8.83
50.500,-4.59
50.515,-8.73
50.531,-20.89
50.546,-39.33
50.562,-61.1
50.578,-82.45
50.593,-99.38
50.609,-108.42
50.625,-107.53
50.640,-96.9
50.656,-79.11
50.671,-58.4
50.687,-39.18
50.703,-24.34
50.718,-14.45
50.734,-8.09
50.750,-3.23
50.765,1.27
50.781,5.13
50.796,7.16
50.812,6.6
50.828,4.04
50.843,1.33
50.859,0.5
50.875,2.65
50.890,7.25
50.906,12.54
50.921,16.35
50.937,17.11
50.953,14.3
50.968,8.62
50.984,1.23
51.000,-6.76
51.015,-14.6
51.031,-21.9
51.046,-28.14
51.062,-32.38
51.078,-33.39
51.093,-30.04
51.109,-21.78
51.125,-9.06
51.140,6.81
51.156,24.07
51.171,41.08
51.187,56.72
51.203,70.51
51.218,82.42
51.234,92.64
51.250,101.32
51.265,108.36
51.281,113.49
51.296,116.35
51.312,116.54
51.328,113.65
51.343,107.47
51.359,98.09
51.375,86.23
51.390,73.4
51.406,61.59
51.421,52.7
51.437,47.72
51.453,46.19
51.468,46.27
51.484,45.48
51.500,41.7
51.515,34.02
51.531,22.99
51.546,10.12
51.562,-2.86
51.578,-14.52
51.593,-23.9
51.609,-30.23
51.625,-32.79
51.640,-30.93
51.656,-24.36
51.671,-13.48
51.687,0.57
51.703,16.17
51.718,31.73
51.734,46.07
51.750,58.52
51.765,68.79
51.781,76.79
51.796,82.46
51.812,85.76
51.828,86.93
51.843,86.51
51.859,85.44
51.875,84.71
51.890,84.98
51.906,86.19
51.921,87.36
51.937,86.98
51.953,83.8
51.968,77.71
51.984,69.77
52.000,61.64
52.015,54.51
52.031,48.54
52.046,43.37
52.062,39.37
52.078,38.63
52.093,44.54
52.109,59.89
52.125,84.31
52.140,113.22
52.156,138.74
52.171,152.78
52.187,150.12
52.203,130.04
52.218,95.63
52.234,51.7
52.250,2.84
52.265,-47.03
52.281,-93.51
52.296,-130.98
52.312,-152.87
52.328,-153.71
52.343,-131.67
52.359,-90.3
52.375,-37.93
52.390,14.85
52.406,58.59
52.421,87.49
52.437,100.0
52.453,97.93
52.468,84.66
52.484,63.6
52.500,37.53
52.515,8.51
52.531,-22.07
52.546,-53.35
52.562,-84.85
52.578,-115.99
52.593,-145.34
52.609,-170.16
52.625,-186.9
52.640,-192.28
52.656,-184.9
52.671,-166.08
52.687,-139.54
52.703,-109.84
52.718,-80.61
52.734,-53.43
52.750,-28.06
52.765,-3.54
52.781,20.82
52.796,45.11
52.812,69.22
52.828,93.47
52.843,118.69
52.859,145.53
52.875,173.48
52.890,200.3
52.906,222.42
52.921,235.94
52.937,238.0
52.953,227.65
52.968,205.83
52.984,174.77
53.000,136.95
53.015,94.68
53.031,50.13
53.046,5.6
53.062,-36.58
53.078,-74.59
53.093,-107.62
53.109,-135.85
53.125,-159.56
53.140,-178.2
53.156,-189.83
53.171,-191.85
53.187,-182.33
53.203,-161.51
53.218,-131.98
53.234,-97.8
53.250,-62.86
53.265,-29.59
53.281,1.21
53.296,29.6
53.312,55.24
53.328,76.77
53.343,92.04
53.359,98.8
53.375,95.51
53.390,81.73
53.406,58.5
53.421,28.32
53.437,-5.27
53.453,-38.68
53.468,-69.37
53.484,-96.75
53.500,-122.22
53.515,-148.01
53.531,-175.66
53.546,-204.52
53.562,-231.64
53.578,-253.02
53.593,-265.41
53.609,-267.95
53.625,-262.4
53.640,-252.18
53.656,-240.84
53.671,-230.82
53.687,-223.13
53.703,-217.66
53.718,-213.6
53.734,-209.59
53.750,-203.6
53.765,-193.2
53.781,-176.12
53.796,-151.05
53.812,-118.63
53.828,-81.54
53.843,-43.88
53.859,-9.83
53.875,17.68
53.890,37.51
53.906,50.22
53.921,57.23
53.937,60.18
53.953,60.35
53.968,58.8
53.984,56.44
54.000,54.18
54.015,52.75
54.031,52.45
54.046,53.02
54.062,53.77
54.078,53.92
54.093,52.93
54.109,50.77
54.125,47.66
54.140,43.78
54.156,39.12
54.171,33.45
54.187,26.7
54.203,19.3
54.218,12.32
54.234,7.15
54.250,4.94
54.265,6.05
54.281,9.82
54.296,14.82
54.312,19.35
54.328,22.02
54.343,22.04
54.359,19.22
54.375,13.77
54.390,6.19
54.406,-2.81
54.421,-12.37
54.437,-21.5
54.453,-29.29
54.468,-35.15
54.484,-38.97
54.500,-41.11
54.515,-42.27
54.531,-43.18
54.546,-44.43
54.562,-46.33
54.578,-49.01
54.593,-52.51
54.609,-56.84
54.625,-61.93
54.640,-67.54
54.656,-73.01
54.671,-77.34
54.687,-79.25
54.703,-77.57
54.718,-71.58
54.734,-61.38
54.750,-47.91
54.765,-32.75
54.781,-17.75
54.796,-4.54
54.812,5.7
54.828,12.45
54.843,15.75
54.859,16.02
54.875,13.93
54.890,10.15
54.906,5.31
54.921,-0.05
54.937,-5.49
54.953,-10.67
54.968,-15.3
54.984,-19.19
55.000,-22.24
55.015,-24.45
55.031,-25.97
55.046,-27.04
55.062,-27.9
55.078,-28.8
55.093,-29.94
55.109,-31.31
55.125,-32.67
55.140,-33.37
55.156,-32.45
55.171,-28.82
55.187,-21.63
55.203,-10.6
55.218,3.73
55.234,20.12
55.250,36.94
55.265,52.6
55.281,65.91
55.296,76.19
55.312,83.31
55.328,87.46
55.343,89.1
55.359,88.74
55.375,86.94
55.390,84.23
55.406,81.03
55.421,77.65
55.437,74.31
55.453,71.1
55.468,68.05
55.484,65.17
55.500,62.4
55.515,59.68
55.531,56.84
55.546,53.69
55.562,49.95
55.578,45.45
55.593,40.22
55.609,34.71
55.625,29.93
55.640,27.16
55.656,27.72
55.671,32.42
55.687,41.27
55.703,53.4
55.718,67.26
55.734,81.0
55.750,92.97
55.765,102.03
55.781,107.6
55.796,109.73
55.812,108.91
55.828,105.89
55.843,101.52
55.859,96.55
55.875,91.54
55.890,86.86
55.906,82.74
55.921,79.32
55.937,76.73
55.953,75.09
55.968,74.36
55.984,74.28
56.000,74.43
56.015,74.26
56.031,73.2
56.046,70.76
56.062,66.62
56.078,60.66
56.093,53.16
56.109,44.84
56.125,37.0
56.140,31.19
56.156,28.72
56.171,29.96
56.187,33.97
56.203,38.6
56.218,41.24
56.234,39.87
56.250,33.83
56.265,23.94
56.281,11.91
56.296,-0.63
56.312,-12.81
56.328,-24.55
56.343,-36.12
56.359,-47.39
56.375,-57.61
56.390,-65.64
56.406,-70.57
56.421,-72.27
56.437,-71.39
56.453,-69.07
56.468,-66.26
56.484,-63.4
56.500,-60.33
56.515,-56.68
56.531,-52.28
56.546,-47.51
56.562,-43.27
56.578,-40.53
56.593,-40.0
56.609,-41.67
56.625,-44.74
56.640,-47.8
56.656,-49.23
56.671,-47.71
56.687,-42.7
56.703,-34.58
56.718,-24.46
56.734,-13.88
56.750,-4.31
56.765,3.21
56.781,8.21
56.796,10.81
56.812,11.5
56.828,10.91
56.843,9.59
56.859,7.89
56.875,5.98
56.890,3.99
56.906,2.13
56.921,0.73
56.937,0.17
56.953,0.71
56.968,2.35
56.984,4.8
57.000,7.64
57.015,10.35
57.031,12.5
57.046,13.75
57.062,13.74
57.078,12.23
57.093,9.18
57.109,4.92
57.125,0.25
57.140,-3.63
57.156,-5.48
57.171,-4.34
57.187,0.2
57.203,7.79
57.218,17.54
57.234,28.1
57.250,37.92
57.265,45.63
57.281,50.2
57.296,51.17
57.312,48.75
57.328,43.8
57.343,37.52
57.359,31.21
57.375,25.91
57.390,22.21
57.406,20.31
57.421,19.97
57.437,20.76
57.453,21.98
57.468,22.87
57.484,22.59
57.500,20.65
57.515,17.15
57.531,12.95
57.546,9.56
57.562,8.61
57.578,11.17
57.593,17.28
57.609,25.78
57.625,34.71
57.640,42.0
57.656,46.24
57.671,47.06
57.687,45.17
57.703,41.81
57.718,38.23
57.734,35.19
57.750,32.81
57.765,30.76
57.781,28.65
57.796,26.29
57.812,23.85
57.828,21.66
57.843,19.92
57.859,18.53
57.875,17.07
57.890,15.05
57.906,12.28
57.921,8.97
57.937,5.71
57.953,3.07
57.968,1.36
57.984,0.48
58.000,0.06
58.015,-0.33
58.031,-0.93
58.046,-1.7
58.062,-2.45
58.078,-2.96
58.093,-3.18
58.109,-3.24
58.125,-3.5
58.140,-4.31
58.156,-5.95
58.171,-8.42
58.187,-11.38
58.203,-14.16
58.218,-15.9
58.234,-15.83
58.250,-13.57
58.265,-9.3
58.281,-3.69
58.296,2.35
58.312,8.0
58.328,12.83
58.343,16.75
58.359,19.91
58.375,22.39
58.390,24.13
58.406,24.87
58.421,24.47
58.437,23.02
58.453,20.85
58.468,18.43
58.484,16.1
58.500,14.02
58.515,12.1
58.531,10.19
58.546,8.2
58.562,6.21
58.578,4.4
58.593,2.95
58.609,1.96
58.625,1.28
58.640,0.69
58.656,-0.1
58.671,-1.21
58.687,-2.49
58.703,-3.56
58.718,-3.89
58.734,-2.97
58.750,-0.49
58.765,3.47
58.781,8.55
58.796,14.13
58.812,19.55
58.828,24.23
58.843,27.72
58.859,29.74
58.875,30.2
58.890,29.27
58.906,27.34
58.921,25.04
58.937,23.11
58.953,22.23
58.968,22.66
58.984,24.12
59.000,25.86
59.015,26.9
59.031,26.48
59.046,24.42
59.062,21.17
59.078,17.54
59.093,14.28
59.109,11.75
59.125,9.8
59.140,7.98
59.156,5.81
59.171,3.06
59.187,-0.1
59.203,-3.29
59.218,-6.1
59.234,-8.2
59.250,-9.47
59.265,-9.94
59.281,-9.59
59.296,-8.48
59.312,-6.57
59.328,-3.88
59.343,-0.54
59.359,3.12
59.375,6.7
59.390,9.79
59.406,12.21
59.421,14.14
59.437,16.01
59.453,18.43
59.468,21.86
59.484,26.36
59.500,31.49
59.515,36.44
59.531,40.13
59.546,41.59
59.562,40.18
59.578,35.67
59.593,28.29
59.609,18.72
59.625,7.98
59.640,-2.72
59.656,-12.13
59.671,-19.29
59.687,-23.72
59.703,-25.6
59.718,-25.69
59.734,-25.08
59.750,-24.72
59.765,-25.05
59.781,-25.78
59.796,-26.01
59.812,-24.71
59.828,-21.26
59.843,-15.72
59.859,-8.98
59.875,-2.28
59.890,3.16
59.906,6.55
59.921,7.7
59.937,6.82
59.953,4.33
59.968,0.8
59.984,-3.02
