timestamp,value
00.000,-6.2
00.015,-7.58
00.031,-6.17
00.046,-1.48
00.062,6.15
00.078,15.68
00.093,25.72
00.109,35.01
00.125,42.95
00.140,49.53
00.156,55.22
00.171,60.51
00.187,65.68
00.203,70.6
00.218,74.87
00.234,78.01
00.250,79.61
00.265,79.51
00.281,77.77
00.296,74.74
00.312,70.97
00.328,67.07
00.343,63.7
00.359,61.36
00.375,60.24
00.390,60.04
00.406,59.95
00.421,58.77
00.437,55.18
00.453,48.12
00.468,37.11
00.484,22.51
00.500,5.46
00.515,-12.35
00.531,-29.06
00.546,-43.09
00.562,-53.49
00.578,-60.13
00.593,-63.47
00.609,-64.29
00.625,-63.3
00.640,-61.03
00.656,-57.9
00.671,-54.5
00.687,-51.71
00.703,-50.55
00.718,-51.79
00.734,-55.42
00.750,-60.49
00.765,-65.35
00.781,-68.29
00.796,-68.27
00.812,-65.34
00.828,-60.47
00.843,-55.06
00.859,-50.29
00.875,-46.69
00.890,-44.13
00.906,-42.13
00.921,-40.16
00.937,-38.01
00.953,-35.67
00.968,-33.3
00.984,-30.94
01.000,-28.5
01.015,-25.83
01.031,-22.75
01.046,-19.28
01.062,-15.59
01.078,-11.87
01.093,-8.31
01.109,-4.96
01.125,-1.78
01.140,1.32
01.156,4.36
01.171,7.33
01.187,10.1
01.203,12.52
01.218,14.36
01.234,15.43
01.250,15.64
01.265,15.08
01.281,14.08
01.296,13.11
01.312,12.61
01.328,12.81
01.343,13.62
01.359,14.62
01.375,15.32
01.390,15.35
01.406,14.59
01.421,13.27
01.437,11.71
01.453,10.26
01.468,9.13
01.484,8.42
01.500,8.16
01.515,8.31
01.531,8.81
01.546,9.46
01.562,10.0
01.578,10.14
01.593,9.71
01.609,8.68
01.625,7.18
01.640,5.36
01.656,3.28
01.671,0.83
01.687,-2.19
01.703,-5.87
01.718,-10.04
01.734,-14.32
01.750,-18.23
01.765,-21.52
01.781,-24.16
01.796,-26.28
01.812,-27.98
01.828,-29.09
01.843,-29.2
01.859,-27.86
01.875,-24.91
01.890,-20.62
01.906,-15.67
01.921,-10.88
01.937,-6.89
01.953,-4.02
01.968,-2.31
01.984,-1.65
02.000,-1.96
02.015,-3.27
02.031,-5.53
02.046,-8.62
02.062,-12.2
02.078,-15.77
02.093,-18.84
02.109,-21.03
02.125,-22.26
02.140,-22.64
02.156,-22.41
02.171,-21.66
02.187,-20.43
02.203,-18.57
02.218,-16.07
02.234,-13.15
02.250,-10.27
02.265,-8.08
02.281,-7.01
02.296,-7.09
02.312,-7.78
02.328,-8.2
02.343,-7.44
02.359,-4.99
02.375,-0.95
02.390,4.15
02.406,9.44
02.421,14.21
02.437,18.04
02.453,20.84
02.468,22.75
02.484,24.01
02.500,24.8
02.515,25.14
02.531,25.0
02.546,24.28
02.562,23.0
02.578,21.32
02.593,19.55
02.609,18.11
02.625,17.4
02.640,17.63
02.656,18.81
02.671,20.79
02.687,23.27
02.703,25.89
02.718,28.24
02.734,29.79
02.750,30.05
02.765,28.66
02.781,25.7
02.796,21.72
02.812,17.67
02.828,14.52
02.843,12.83
02.859,12.44
02.875,12.43
02.890,11.55
02.906,8.63
02.921,3.11
02.937,-4.75
02.953,-13.97
02.968,-23.14
02.984,-30.84
03.000,-36.0
03.015,-38.1
03.031,-37.18
03.046,-33.86
03.062,-29.07
03.078,-23.89
03.093,-19.29
03.109,-15.96
03.125,-14.17
03.140,-13.73
03.156,-14.13
03.171,-14.68
03.187,-14.84
03.203,-14.37
03.218,-13.38
03.234,-12.13
03.250,-10.77
03.265,-9.12
03.281,-6.78
03.296,-3.37
03.312,1.14
03.328,6.3
03.343,11.27
03.359,15.19
03.375,17.53
03.390,18.22
03.406,17.5
03.421,15.65
03.437,12.76
03.453,8.69
03.468,3.34
03.484,-3.18
03.500,-10.4
03.515,-17.62
03.531,-24.09
03.546,-29.11
03.562,-32.17
03.578,-32.95
03.593,-31.37
03.609,-27.74
03.625,-22.74
03.640,-17.37
03.656,-12.6
03.671,-9.13
03.687,-7.05
03.703,-5.91
03.718,-4.92
03.734,-3.34
03.750,-0.72
03.765,2.95
03.781,7.34
03.796,12.08
03.812,16.79
03.828,21.35
03.843,25.83
03.859,30.57
03.875,36.03
03.890,42.68
03.906,50.79
03.921,60.16
03.937,70.02
03.953,79.01
03.968,85.6
03.984,88.49
04.000,87.08
04.015,81.7
04.031,73.54
04.046,64.28
04.062,55.51
04.078,48.23
04.093,42.46
04.109,37.4
04.125,31.73
04.140,24.27
04.156,14.58
04.171,3.25
04.187,-8.23
04.203,-17.97
04.218,-24.28
04.234,-26.28
04.250,-24.16
04.265,-19.06
04.281,-12.75
04.296,-7.06
04.312,-3.37
04.328,-2.13
04.343,-2.8
04.359,-3.96
04.375,-3.81
04.390,-0.75
04.406,6.04
04.421,16.38
04.437,29.13
04.453,42.56
04.468,54.89
04.484,64.83
04.500,71.94
04.515,76.68
04.531,80.13
04.546,83.59
04.562,87.97
04.578,93.34
04.593,98.55
04.609,101.35
04.625,98.99
04.640,89.21
04.656,71.24
04.671,46.3
04.687,17.36
04.703,-11.88
04.718,-38.44
04.734,-61.04
04.750,-80.2
04.765,-97.39
04.781,-113.65
04.796,-128.72
04.812,-140.99
04.828,-148.45
04.843,-149.87
04.859,-145.7
04.875,-137.83
04.890,-128.78
04.906,-120.64
04.921,-114.27
04.937,-109.41
04.953,-105.26
04.968,-101.29
04.984,-97.59
05.000,-94.83
05.015,-93.69
05.031,-94.33
05.046,-96.15
05.062,-97.95
05.078,-98.4
05.093,-96.46
05.109,-91.65
05.125,-83.92
05.140,-73.54
05.156,-60.82
05.171,-46.18
05.187,-30.19
05.203,-13.67
05.218,2.29
05.234,16.49
05.250,27.88
05.265,35.86
05.281,40.41
05.296,42.08
05.312,41.75
05.328,40.28
05.343,38.32
05.359,35.94
05.375,32.87
05.390,28.67
05.406,23.21
05.421,16.92
05.437,10.78
05.453,5.88
05.468,2.89
05.484,1.74
05.500,1.68
05.515,1.71
05.531,1.21
05.546,0.36
05.562,0.03
05.578,1.4
05.593,5.29
05.609,11.84
05.625,20.5
05.640,30.16
05.656,39.61
05.671,47.71
05.687,53.5
05.703,56.37
05.718,56.16
05.734,53.3
05.750,48.78
05.765,44.1
05.781,40.78
05.796,40.16
05.812,42.96
05.828,49.28
05.843,58.58
05.859,69.8
05.875,81.6
05.890,92.59
05.906,101.67
05.921,108.32
05.937,112.81
05.953,116.1
05.968,119.63
05.984,124.79
06.000,132.36
06.015,141.99
06.031,152.15
06.046,160.36
06.062,163.91
06.078,160.76
06.093,150.26
06.109,133.37
06.125,112.29
06.140,89.57
06.156,67.22
06.171,46.41
06.187,27.6
06.203,11.04
06.218,-2.7
06.234,-12.82
06.250,-18.69
06.265,-20.38
06.281,-19.12
06.296,-17.06
06.312,-16.59
06.328,-19.52
06.343,-26.36
06.359,-36.08
06.375,-46.63
06.390,-55.76
06.406,-61.95
06.421,-64.82
06.437,-65.05
06.453,-63.67
06.468,-61.34
06.484,-57.75
06.500,-51.91
06.515,-42.96
06.531,-30.94
06.546,-16.94
06.562,-2.7
06.578,10.31
06.593,21.38
06.609,30.64
06.625,38.76
06.640,46.4
06.656,53.97
06.671,61.53
06.687,69.2
06.703,77.42
06.718,87.17
06.734,99.29
06.750,113.38
06.765,127.19
06.781,136.85
06.796,138.56
06.812,130.68
06.828,115.1
06.843,96.67
06.859,80.84
06.875,70.66
06.890,64.98
06.906,59.02
06.921,47.22
06.937,26.36
06.953,-2.94
06.968,-37.26
06.984,-72.73
07.000,-106.89
07.015,-138.51
07.031,-166.35
07.046,-187.75
07.062,-199.09
07.078,-197.67
07.093,-183.44
07.109,-159.39
07.125,-129.76
07.140,-97.93
07.156,-65.31
07.171,-32.24
07.187,-0.09
07.203,27.06
07.218,42.75
07.234,40.99
07.250,19.6
07.265,-17.7
07.281,-62.27
07.296,-103.88
07.312,-134.93
07.328,-152.96
07.343,-160.28
07.359,-161.45
07.375,-160.08
07.390,-157.23
07.406,-151.73
07.421,-142.17
07.437,-128.79
07.453,-113.98
07.468,-100.89
07.484,-91.05
07.500,-83.03
07.515,-72.8
07.531,-56.27
07.546,-32.26
07.562,-3.86
07.578,22.98
07.593,42.75
07.609,53.46
07.625,57.5
07.640,59.68
07.656,63.57
07.671,68.52
07.687,69.44
07.703,59.92
07.718,37.04
07.734,4.31
07.750,-29.13
07.765,-52.95
07.781,-61.37
07.796,-56.1
07.812,-45.01
07.828,-37.22
07.843,-37.74
07.859,-45.19
07.875,-53.67
07.890,-57.61
07.906,-56.06
07.921,-53.45
07.937,-56.18
07.953,-67.22
07.968,-83.0
07.984,-94.35
08.000,-92.04
08.015,-72.79
08.031,-41.89
08.046,-10.75
08.062,9.01
08.078,11.46
08.093,-1.1
08.109,-20.59
08.125,-38.31
08.140,-49.86
08.156,-56.36
08.171,-61.52
08.187,-67.52
08.203,-72.67
08.218,-72.4
08.234,-62.9
08.250,-44.46
08.265,-22.02
08.281,-2.63
08.296,8.26
08.312,9.38
08.328,3.18
08.343,-6.6
08.359,-17.83
08.375,-30.69
08.390,-45.98
08.406,-62.65
08.421,-76.79
08.437,-83.16
08.453,-78.45
08.468,-63.91
08.484,-45.22
08.500,-29.74
08.515,-22.76
08.531,-25.07
08.546,-33.18
08.562,-41.92
08.578,-47.78
08.593,-50.35
08.609,-51.72
08.625,-54.08
08.640,-57.91
08.656,-61.93
08.671,-64.17
08.687,-63.77
08.703,-61.45
08.718,-58.85
08.734,-56.97
08.750,-55.42
08.765,-52.78
08.781,-47.95
08.796,-41.66
08.812,-36.41
08.828,-35.09
08.843,-39.09
08.859,-47.01
08.875,-55.13
08.890,-59.45
08.906,-57.77
08.921,-50.57
08.937,-40.34
08.953,-29.63
08.968,-19.7
08.984,-10.17
09.000,0.04
09.015,11.22
09.031,21.99
09.046,29.77
09.062,32.18
09.078,28.48
09.093,20.13
09.109,10.15
09.125,1.75
09.140,-2.98
09.156,-3.66
09.171,-1.46
09.187,1.99
09.203,5.54
09.218,8.88
09.234,12.29
09.250,15.89
09.265,18.75
09.281,18.86
09.296,13.97
09.312,2.62
09.328,-14.71
09.343,-35.65
09.359,-56.76
09.375,-74.61
09.390,-86.83
09.406,-92.64
09.421,-92.59
09.437,-88.11
09.453,-80.93
09.468,-72.51
09.484,-63.86
09.500,-55.29
09.515,-46.39
09.531,-36.28
09.546,-24.18
09.562,-9.93
09.578,5.74
09.593,21.37
09.609,35.41
09.625,46.57
09.640,54.0
09.656,57.5
09.671,57.34
09.687,54.35
09.703,50.18
09.718,47.07
09.734,47.15
09.750,51.76
09.765,60.56
09.781,71.28
09.796,80.75
09.812,85.99
09.828,85.46
09.843,79.51
09.859,70.11
09.875,59.97
09.890,51.7
09.906,47.33
09.921,47.9
09.937,53.42
09.953,62.7
09.968,73.42
09.984,82.33
10.000,86.01
10.015,81.9
10.031,69.43
10.046,50.28
10.062,27.87
10.078,6.13
10.093,-11.99
10.109,-25.11
10.125,-33.35
10.140,-37.76
10.156,-39.58
10.171,-39.65
10.187,-38.37
10.203,-35.89
10.218,-32.46
10.234,-28.51
10.250,-24.74
10.265,-21.97
10.281,-21.03
10.296,-22.59
10.312,-26.81
10.328,-33.0
10.343,-39.6
10.359,-44.48
10.375,-45.55
10.390,-41.65
10.406,-32.85
10.421,-20.47
10.437,-6.52
10.453,7.0
10.468,18.64
10.484,27.45
10.500,32.92
10.515,34.83
10.531,33.26
10.546,28.76
10.562,22.48
10.578,15.86
10.593,10.09
10.609,5.46
10.625,1.19
10.640,-4.09
10.656,-11.38
10.671,-20.39
10.687,-29.39
10.703,-35.7
10.718,-36.99
10.734,-32.39
10.750,-22.92
10.765,-11.01
10.781,0.76
10.796,10.89
10.812,19.51
10.828,28.03
10.843,38.13
10.859,50.76
10.875,65.74
10.890,82.01
10.906,98.2
10.921,113.09
10.937,125.72
10.953,135.03
10.968,139.68
10.984,138.24
11.000,129.88
11.015,115.12
11.031,96.17
11.046,76.48
11.062,59.68
11.078,48.4
11.093,43.86
11.109,46.18
11.125,55.08
11.140,70.14
11.156,90.57
11.171,114.61
11.187,139.04
11.203,159.55
11.218,171.88
11.234,173.3
11.250,163.71
11.265,145.69
11.281,123.39
11.296,101.25
11.312,82.66
11.328,69.58
11.343,62.31
11.359,59.81
11.375,60.04
11.390,60.33
11.406,57.95
11.421,50.73
11.437,37.66
11.453,18.98
11.468,-3.94
11.484,-29.17
11.500,-54.73
11.515,-78.77
11.531,-99.65
11.546,-116.05
11.562,-127.02
11.578,-132.21
11.593,-132.22
11.609,-128.13
11.625,-120.75
11.640,-110.23
11.656,-96.12
11.671,-78.22
11.687,-57.49
11.703,-36.46
11.718,-18.64
11.734,-7.49
11.750,-4.94
11.765,-10.74
11.781,-22.72
11.796,-37.59
11.812,-51.78
11.828,-62.03
11.843,-65.65
11.859,-61.06
11.875,-48.64
11.890,-31.02
11.906,-12.87
11.921,0.65
11.937,6.02
11.953,2.76
11.968,-6.45
11.984,-17.23
12.000,-25.36
12.015,-28.39
12.031,-25.7
12.046,-17.78
12.062,-5.3
12.078,11.3
12.093,30.93
12.109,51.07
12.125,67.76
12.140,76.85
12.156,75.72
12.171,64.55
12.187,46.2
12.203,24.97
12.218,5.17
12.234,-10.14
12.250,-19.4
12.265,-22.16
12.281,-18.32
12.296,-8.1
12.312,7.9
12.328,28.21
12.343,50.14
12.359,70.31
12.375,85.41
12.390,93.37
12.406,93.91
12.421,88.35
12.437,78.85
12.453,67.66
12.468,56.53
12.484,46.55
12.500,38.82
12.515,34.64
12.531,35.52
12.546,42.31
12.562,54.3
12.578,68.76
12.593,81.59
12.609,88.74
12.625,87.71
12.640,78.49
12.656,63.05
12.671,44.25
12.687,24.55
12.703,5.61
12.718,-11.54
12.734,-26.28
12.750,-38.37
12.765,-48.27
12.781,-57.15
12.796,-66.52
12.812,-77.38
12.828,-89.36
12.843,-100.73
12.859,-109.07
12.875,-112.64
12.890,-111.24
12.906,-106.24
12.921,-99.6
12.937,-92.88
12.953,-86.6
12.968,-80.54
12.984,-74.5
13.000,-69.01
13.015,-65.48
13.031,-65.44
13.046,-69.57
13.062,-77.06
13.078,-85.74
13.093,-92.72
13.109,-95.58
13.125,-93.35
13.140,-86.94
13.156,-78.74
13.171,-71.65
13.187,-67.83
13.203,-67.88
13.218,-70.61
13.234,-73.75
13.250,-75.0
13.265,-72.87
13.281,-67.18
13.296,-58.77
13.312,-48.85
13.328,-38.46
13.343,-28.37
13.359,-19.27
13.375,-11.88
13.390,-6.78
13.406,-3.94
13.421,-2.35
13.437,-0.38
13.453,3.14
13.468,7.76
13.484,10.94
13.500,9.11
13.515,-0.34
13.531,-17.33
13.546,-38.64
13.562,-59.21
13.578,-74.41
13.593,-81.9
13.609,-82.28
13.625,-78.02
13.640,-71.93
13.656,-65.71
13.671,-59.91
13.687,-54.54
13.703,-49.9
13.718,-46.77
13.734,-45.88
13.750,-47.12
13.765,-49.17
13.781,-49.82
13.796,-47.05
13.812,-39.96
13.828,-29.09
13.843,-15.94
13.859,-2.04
13.875,11.84
13.890,25.82
13.906,40.34
13.921,55.45
13.937,70.36
13.953,83.63
13.968,93.49
13.984,98.54
14.000,97.95
14.015,91.78
14.031,80.93
14.046,67.16
14.062,52.56
14.078,38.81
14.093,26.59
14.109,15.31
14.125,3.68
14.140,-9.4
14.156,-23.8
14.171,-37.99
14.187,-49.61
14.203,-56.58
14.218,-57.83
14.234,-53.39
14.250,-43.9
14.265,-30.17
14.281,-13.21
14.296,5.46
14.312,23.62
14.328,38.54
14.343,47.91
14.359,50.48
14.375,46.42
14.390,37.03
14.406,24.33
14.421,10.61
14.437,-1.77
14.453,-10.49
14.468,-13.73
14.484,-10.58
14.500,-1.42
14.515,12.2
14.531,27.96
14.546,43.42
14.562,56.35
14.578,64.68
14.593,66.72
14.609,61.33
14.625,48.9
14.640,31.75
14.656,14.09
14.671,0.69
14.687,-4.85
14.703,-1.54
14.718,8.69
14.734,22.01
14.750,34.39
14.765,43.45
14.781,48.9
14.796,51.87
14.812,53.52
14.828,54.06
14.843,52.74
14.859,48.82
14.875,42.57
14.890,35.54
14.906,29.95
14.921,27.54
14.937,28.58
14.953,31.86
14.968,35.39
14.984,37.65
15.000,38.21
15.015,37.94
15.031,38.07
15.046,39.25
15.062,40.72
15.078,40.53
15.093,36.51
15.109,27.55
15.125,14.35
15.140,-0.66
15.156,-14.07
15.171,-22.97
15.187,-25.94
15.203,-23.43
15.218,-17.29
15.234,-9.78
15.250,-2.78
15.265,2.39
15.281,4.75
15.296,3.63
15.312,-1.23
15.328,-9.08
15.343,-18.07
15.359,-25.85
15.375,-30.48
15.390,-31.51
15.406,-30.18
15.421,-28.73
15.437,-29.11
15.453,-31.93
15.468,-36.26
15.484,-40.3
15.500,-42.49
15.515,-42.3
15.531,-40.35
15.546,-37.92
15.562,-36.06
15.578,-35.27
15.593,-35.47
15.609,-36.15
15.625,-36.47
15.640,-35.52
15.656,-32.39
15.671,-26.39
15.687,-17.9
15.703,-8.79
15.718,-2.24
15.734,-1.55
15.750,-8.11
15.765,-20.1
15.781,-32.51
15.796,-39.13
15.812,-35.56
15.828,-21.4
15.843,-0.57
15.859,20.79
15.875,37.21
15.890,46.08
15.906,47.79
15.921,44.1
15.937,36.47
15.953,25.29
15.968,10.8
15.984,-5.55
16.000,-20.43
16.015,-29.68
16.031,-30.6
16.046,-23.73
16.062,-13.12
16.078,-4.59
16.093,-3.06
16.109,-10.21
16.125,-24.03
16.140,-39.93
16.156,-52.88
16.171,-59.21
16.187,-57.72
16.203,-49.72
16.218,-38.31
16.234,-27.48
16.250,-20.47
16.265,-18.8
16.281,-21.76
16.296,-26.71
16.312,-30.27
16.328,-29.7
16.343,-23.91
16.359,-13.3
16.375,0.47
16.390,15.58
16.406,30.33
16.421,43.08
16.437,52.62
16.453,58.73
16.468,62.9
16.484,68.45
16.500,78.87
16.515,95.38
16.531,115.31
16.546,132.72
16.562,141.33
16.578,138.03
16.593,124.67
16.609,106.62
16.625,89.22
16.640,74.45
16.656,60.48
16.671,44.14
16.687,24.24
16.703,3.39
16.718,-13.17
16.734,-20.82
16.750,-18.2
16.765,-7.64
16.781,6.46
16.796,20.08
16.812,30.78
16.828,37.31
16.843,38.5
16.859,33.01
16.875,20.06
16.890,0.85
16.906,-20.83
16.921,-39.74
16.937,-51.16
16.953,-52.8
16.968,-45.28
16.984,-31.44
17.000,-14.65
17.015,2.17
17.031,17.16
17.046,29.33
17.062,38.21
17.078,43.77
17.093,46.6
17.109,47.91
17.125,49.31
17.140,52.32
17.156,57.71
17.171,65.32
17.187,74.05
17.203,82.39
17.218,88.87
17.234,92.63
17.250,93.74
17.265,93.28
17.281,93.03
17.296,94.69
17.312,98.94
17.328,104.77
17.343,109.65
17.359,110.72
17.375,106.17
17.390,96.29
17.406,83.38
17.421,70.65
17.437,60.44
17.453,52.92
17.468,45.89
17.484,36.07
17.500,21.02
17.515,0.83
17.531,-21.5
17.546,-41.24
17.562,-54.14
17.578,-58.55
17.593,-56.36
17.609,-52.21
17.625,-51.22
17.640,-56.6
17.656,-68.22
17.671,-83.0
17.687,-96.89
17.703,-107.19
17.718,-114.06
17.734,-120.17
17.750,-128.65
17.765,-140.84
17.781,-155.17
17.796,-167.84
17.812,-174.62
17.828,-172.83
17.843,-162.17
17.859,-144.36
17.875,-122.03
17.890,-97.65
17.906,-73.11
17.921,-50.0
17.937,-29.7
17.953,-13.4
17.968,-1.73
17.984,5.38
18.000,8.4
18.015,7.67
18.031,3.32
18.046,-4.39
18.062,-14.2
18.078,-23.52
18.093,-29.04
18.109,-28.04
18.125,-19.66
18.140,-5.3
18.156,11.97
18.171,28.99
18.187,43.58
18.203,55.01
18.218,63.39
18.234,68.62
18.250,69.87
18.265,66.0
18.281,56.65
18.296,43.01
18.312,27.93
18.328,14.85
18.343,6.42
18.359,3.39
18.375,4.39
18.390,6.97
18.406,8.96
18.421,9.3
18.437,7.91
18.453,4.82
18.468,-0.55
18.484,-8.98
18.500,-20.21
18.515,-31.88
18.531,-39.93
18.546,-40.23
18.562,-31.08
18.578,-14.37
18.593,5.12
18.609,22.2
18.625,33.83
18.640,40.22
18.656,43.56
18.671,45.58
18.687,45.77
18.703,41.61
18.718,30.86
18.734,14.26
18.750,-3.72
18.765,-16.71
18.781,-19.81
18.796,-12.31
18.812,1.95
18.828,16.69
18.843,26.17
18.859,27.55
18.875,21.25
18.890,10.03
18.906,-2.6
18.921,-13.48
18.937,-20.07
18.953,-20.51
18.968,-13.89
18.984,-0.91
19.000,16.01
19.015,33.24
19.031,47.07
19.046,54.92
19.062,55.65
19.078,49.11
19.093,35.57
19.109,15.57
19.125,-9.54
19.140,-36.85
19.156,-61.95
19.171,-80.04
19.187,-87.37
19.203,-82.68
19.218,-67.77
19.234,-46.8
19.250,-24.72
19.265,-5.52
19.281,8.43
19.296,16.1
19.312,16.95
19.328,10.41
19.343,-3.74
19.359,-24.27
19.375,-47.7
19.390,-68.72
19.406,-81.8
19.421,-83.59
19.437,-74.64
19.453,-59.41
19.468,-44.27
19.484,-34.71
19.500,-32.99
19.515,-37.85
19.531,-45.86
19.546,-53.48
19.562,-58.71
19.578,-61.21
19.593,-61.49
19.609,-59.95
19.625,-56.39
19.640,-50.16
19.656,-40.85
19.671,-28.93
19.687,-15.69
19.703,-2.89
19.718,7.85
19.734,15.64
19.750,20.41
19.765,22.77
19.781,23.65
19.796,23.85
19.812,23.77
19.828,23.33
19.843,22.11
19.859,19.69
19.875,16.02
19.890,11.65
19.906,7.7
19.921,5.44
19.937,5.64
19.953,8.18
19.968,12.0
19.984,15.62
20.000,17.91
20.015,18.65
20.031,18.49
20.046,18.45
20.062,19.14
20.078,20.44
20.093,21.7
20.109,22.39
20.125,22.66
20.140,23.19
20.156,24.78
20.171,27.65
20.187,31.23
20.203,34.62
20.218,37.31
20.234,39.64
20.250,42.52
20.265,46.78
20.281,52.38
20.296,58.42
20.312,63.62
20.328,67.04
20.343,68.55
20.359,68.73
20.375,68.3
20.390,67.7
20.406,66.91
20.421,65.67
20.437,63.77
20.453,61.2
20.468,58.06
20.484,54.42
20.500,50.25
20.515,45.4
20.531,39.64
20.546,32.57
20.562,23.63
20.578,12.17
20.593,-2.23
20.609,-19.47
20.625,-38.46
20.640,-57.2
20.656,-73.24
20.671,-84.43
20.687,-89.69
20.703,-89.32
20.718,-84.77
20.734,-78.03
20.750,-70.93
20.765,-64.62
20.781,-59.55
20.796,-55.79
20.812,-53.33
20.828,-52.32
20.843,-52.93
20.859,-55.11
20.875,-58.31
20.890,-61.56
20.906,-63.77
20.921,-64.13
20.937,-62.4
20.953,-58.84
20.968,-53.94
20.984,-48.14
21.000,-41.53
21.015,-34.0
21.031,-25.56
21.046,-16.85
21.062,-9.29
21.078,-4.71
21.093,-4.48
21.109,-8.46
21.125,-14.61
21.140,-19.65
21.156,-20.52
21.171,-16.08
21.187,-7.78
21.203,1.01
21.218,6.74
21.234,7.52
21.250,3.99
21.265,-1.25
21.281,-5.08
21.296,-5.64
21.312,-2.93
21.328,1.39
21.343,5.2
21.359,7.08
21.375,6.89
21.390,5.59
21.406,4.59
21.421,4.95
21.437,6.9
21.453,9.9
21.468,13.01
21.484,15.25
21.500,15.99
21.515,14.96
21.531,12.06
21.546,7.24
21.562,0.75
21.578,-6.46
21.593,-12.66
21.609,-15.71
21.625,-14.08
21.640,-7.85
21.656,0.95
21.671,9.04
21.687,13.29
21.703,11.98
21.718,5.46
21.734,-4.35
21.750,-15.03
21.765,-24.65
21.781,-32.21
21.796,-37.48
21.812,-40.34
21.828,-40.54
21.843,-37.61
21.859,-31.19
21.875,-21.51
21.890,-9.57
21.906,3.04
21.921,14.57
21.937,23.76
21.953,30.41
21.968,35.53
21.984,40.94
22.000,48.21
22.015,57.83
22.031,68.78
22.046,79.07
22.062,86.61
22.078,90.06
22.093,89.17
22.109,84.4
22.125,76.54
22.140,66.33
22.156,54.47
22.171,41.84
22.187,29.47
22.203,18.31
22.218,8.91
22.234,1.41
22.250,-4.19
22.265,-7.68
22.281,-8.41
22.296,-5.72
22.312,0.61
22.328,9.89
22.343,20.48
22.359,30.21
22.375,37.09
22.390,39.86
22.406,38.32
22.421,33.26
22.437,26.2
22.453,19.01
22.468,13.37
22.484,10.52
22.500,11.13
22.515,15.39
22.531,23.15
22.546,33.91
22.562,46.74
22.578,60.11
22.593,72.08
22.609,80.78
22.625,84.99
22.640,84.62
22.656,80.45
22.671,73.6
22.687,64.85
22.703,54.4
22.718,41.97
22.734,27.19
22.750,9.86
22.765,-10.0
22.781,-32.19
22.796,-56.32
22.812,-81.58
22.828,-106.35
22.843,-128.06
22.859,-143.66
22.875,-150.53
22.890,-147.47
22.906,-135.38
22.921,-117.05
22.937,-96.28
22.953,-76.58
22.968,-60.17
22.984,-47.71
23.000,-38.46
23.015,-31.12
23.031,-24.59
23.046,-18.39
23.062,-12.66
23.078,-7.87
23.093,-4.42
23.109,-2.34
23.125,-1.32
23.140,-0.74
23.156,-0.04
23.171,1.06
23.187,2.35
23.203,3.06
23.218,2.32
23.234,-0.4
23.250,-4.85
23.265,-9.85
23.281,-13.69
23.296,-14.88
23.312,-12.82
23.328,-8.05
23.343,-2.01
23.359,3.75
23.375,8.28
23.390,11.4
23.406,13.5
23.421,15.01
23.437,16.02
23.453,16.36
23.468,15.94
23.484,15.03
23.500,14.44
23.515,15.32
23.531,18.67
23.546,24.87
23.562,33.55
23.578,43.69
23.593,53.87
23.609,62.85
23.625,69.8
23.640,74.5
23.656,77.3
23.671,78.91
23.687,80.2
23.703,81.86
23.718,84.32
23.734,87.74
23.750,92.27
23.765,98.14
23.781,105.79
23.796,115.5
23.812,126.69
23.828,137.36
23.843,144.54
23.859,145.77
23.875,141.01
23.890,133.53
23.906,128.9
23.921,132.3
23.937,145.51
23.953,165.42
23.968,185.08
23.984,196.85
24.000,196.0
24.015,182.56
24.031,160.66
24.046,135.86
24.062,112.62
24.078,93.07
24.093,77.65
24.109,66.21
24.125,58.48
24.140,53.46
24.156,48.39
24.171,38.66
24.187,19.41
24.203,-12.02
24.218,-53.96
24.234,-100.23
24.250,-142.02
24.265,-171.45
24.281,-184.75
24.296,-183.54
24.312,-173.82
24.328,-163.01
24.343,-156.97
24.359,-158.18
24.375,-165.55
24.390,-175.47
24.406,-183.62
24.421,-186.46
24.437,-181.93
24.453,-169.54
24.468,-150.07
24.484,-125.33
24.500,-98.01
24.515,-71.56
24.531,-49.78
24.546,-36.12
24.562,-32.66
24.578,-39.32
24.593,-53.61
24.609,-71.12
24.625,-86.9
24.640,-97.09
24.656,-99.9
24.671,-96.09
24.687,-88.2
24.703,-79.35
24.718,-71.85
24.734,-66.69
24.750,-63.51
24.765,-61.24
24.781,-58.9
24.796,-55.91
24.812,-52.17
24.828,-47.75
24.843,-42.68
24.859,-36.87
24.875,-30.37
24.890,-23.64
24.906,-17.56
24.921,-13.2
24.937,-11.18
24.953,-11.25
24.968,-12.13
24.984,-12.03
25.000,-9.43
25.015,-3.85
25.031,3.87
25.046,11.76
25.062,17.55
25.078,19.42
25.093,16.53
25.109,9.47
25.125,0.14
25.140,-8.71
25.156,-14.2
25.171,-14.15
25.187,-7.84
25.203,3.63
25.218,17.62
25.234,30.69
25.250,39.72
25.265,42.86
25.281,39.96
25.296,32.49
25.312,22.97
25.328,14.11
25.343,8.0
25.359,5.61
25.375,6.59
25.390,9.64
25.406,12.97
25.421,15.02
25.437,14.94
25.453,12.73
25.468,8.93
25.484,4.34
25.500,-0.29
25.515,-4.36
25.531,-7.39
25.546,-8.94
25.562,-8.69
25.578,-6.45
25.593,-2.26
25.609,3.54
25.625,10.55
25.640,18.34
25.656,26.48
25.671,34.6
25.687,42.38
25.703,49.56
25.718,56.04
25.734,61.82
25.750,66.99
25.765,71.69
25.781,76.01
25.796,79.83
25.812,82.88
25.828,84.74
25.843,85.04
25.859,83.68
25.875,81.09
25.890,78.15
25.906,75.97
25.921,75.4
25.937,76.47
25.953,78.24
25.968,79.22
25.984,78.22
26.000,75.19
26.015,71.76
26.031,70.76
26.046,75.06
26.062,86.09
26.078,102.69
26.093,120.8
26.109,134.48
26.125,137.68
26.140,125.66
26.156,96.22
26.171,50.13
26.187,-8.69
26.203,-73.37
26.218,-135.0
26.234,-184.44
26.250,-214.8
26.265,-223.73
26.281,-214.14
26.296,-192.94
26.312,-168.09
26.328,-145.56
26.343,-127.65
26.359,-113.56
26.375,-101.37
26.390,-89.91
26.406,-79.36
26.421,-70.28
26.437,-62.16
26.453,-53.12
26.468,-40.88
26.484,-24.39
26.500,-4.97
26.515,14.09
26.531,29.34
26.546,38.69
26.562,42.21
26.578,41.61
26.593,38.72
26.609,34.26
26.625,27.66
26.640,17.73
26.656,4.09
26.671,-11.54
26.687,-25.48
26.703,-33.19
26.718,-31.36
26.734,-19.7
26.750,-1.49
26.765,17.44
26.781,30.92
26.796,34.96
26.812,29.25
26.828,16.93
26.843,3.0
26.859,-8.0
26.875,-13.73
26.890,-14.37
26.906,-11.85
26.921,-8.51
26.937,-6.05
26.953,-5.22
26.968,-6.1
26.984,-8.59
27.000,-12.72
27.015,-18.73
27.031,-26.61
27.046,-35.74
27.062,-44.73
27.078,-51.7
27.093,-54.9
27.109,-53.41
27.125,-47.5
27.140,-38.53
27.156,-28.49
27.171,-19.28
27.187,-12.06
27.203,-7.03
27.218,-3.58
27.234,-0.88
27.250,1.6
27.265,3.82
27.281,5.27
27.296,5.38
27.312,3.9
27.328,1.08
27.343,-2.43
27.359,-5.9
27.375,-8.74
27.390,-10.72
27.406,-11.9
27.421,-12.53
27.437,-12.99
27.453,-13.58
27.468,-14.5
27.484,-15.71
27.500,-16.97
27.515,-17.96
27.531,-18.42
27.546,-18.37
27.562,-18.06
27.578,-17.81
27.593,-17.81
27.609,-17.95
27.625,-17.82
27.640,-16.89
27.656,-14.79
27.671,-11.44
27.687,-7.17
27.703,-2.62
27.718,1.4
27.734,4.21
27.750,5.35
27.765,4.74
27.781,2.6
27.796,-0.6
27.812,-4.28
27.828,-7.86
27.843,-10.82
27.859,-12.82
27.875,-13.68
27.890,-13.48
27.906,-12.54
27.921,-11.4
27.937,-10.56
27.953,-10.32
27.968,-10.62
27.984,-11.07
28.000,-11.19
28.015,-10.68
28.031,-9.66
28.046,-8.69
28.062,-8.66
28.078,-10.36
28.093,-14.14
28.109,-19.68
28.125,-26.02
28.140,-31.91
28.156,-36.25
28.171,-38.48
28.187,-38.56
28.203,-36.7
28.218,-33.11
28.234,-27.77
28.250,-20.7
28.265,-12.07
28.281,-2.56
28.296,6.9
28.312,15.43
28.328,22.6
28.343,28.56
28.359,33.74
28.375,38.59
28.390,43.2
28.406,47.43
28.421,50.97
28.437,53.66
28.453,55.52
28.468,56.69
28.484,57.31
28.500,57.46
28.515,57.23
28.531,56.69
28.546,55.96
28.562,55.1
28.578,54.1
28.593,52.94
28.609,51.69
28.625,50.61
28.640,50.2
28.656,51.09
28.671,53.81
28.687,58.7
28.703,65.72
28.718,74.45
28.734,84.06
28.750,93.44
28.765,101.36
28.781,106.72
28.796,108.7
28.812,106.9
28.828,101.36
28.843,92.52
28.859,81.02
28.875,67.65
28.890,53.17
28.906,38.32
28.921,23.71
28.937,9.56
28.953,-4.3
28.968,-18.43
28.984,-33.42
29.000,-49.4
29.015,-65.71
29.031,-81.01
29.046,-93.69
29.062,-102.57
29.078,-107.48
29.093,-109.26
29.109,-109.4
29.125,-109.3
29.140,-109.71
29.156,-110.54
29.171,-111.09
29.187,-110.56
29.203,-108.42
29.218,-104.49
29.234,-98.77
29.250,-91.29
29.265,-82.07
29.281,-71.24
29.296,-59.08
29.312,-46.15
29.328,-32.96
29.343,-19.86
29.359,-6.89
29.375,5.92
29.390,18.19
29.406,28.89
29.421,36.55
29.437,39.83
29.453,38.25
29.468,32.58
29.484,24.71
29.500,16.93
29.515,11.04
29.531,7.8
29.546,6.8
29.562,6.94
29.578,7.05
29.593,6.38
29.609,4.87
29.625,2.96
29.640,1.42
29.656,0.89
29.671,1.87
29.687,4.6
29.703,9.02
29.718,14.87
29.734,21.66
29.750,28.78
29.765,35.52
29.781,41.24
29.796,45.53
29.812,48.29
29.828,49.82
29.843,50.68
29.859,51.51
29.875,52.88
29.890,55.2
29.906,58.79
29.921,63.84
29.937,70.4
29.953,78.2
29.968,86.63
29.984,94.8
30.000,101.73
30.015,106.59
30.031,108.81
30.046,107.95
30.062,103.61
30.078,95.47
30.093,83.41
30.109,67.85
30.125,49.86
30.140,31.03
30.156,13.04
30.171,-2.85
30.187,-16.03
30.203,-26.51
30.218,-34.57
30.234,-40.59
30.250,-44.88
30.265,-47.78
30.281,-49.76
30.296,-51.34
30.312,-53.0
30.328,-54.89
30.343,-56.87
30.359,-58.53
30.375,-59.51
30.390,-59.68
30.406,-59.22
30.421,-58.53
30.437,-57.95
30.453,-57.76
30.468,-58.08
30.484,-59.05
30.500,-60.83
30.515,-63.62
30.531,-67.52
30.546,-72.32
30.562,-77.44
30.578,-82.05
30.593,-85.34
30.609,-86.78
30.625,-86.18
30.640,-83.73
30.656,-79.68
30.671,-74.22
30.687,-67.45
30.703,-59.57
30.718,-50.97
30.734,-42.23
30.750,-34.07
30.765,-27.0
30.781,-21.26
30.796,-16.75
30.812,-13.17
30.828,-10.24
30.843,-7.78
30.859,-5.69
30.875,-3.92
30.890,-2.41
30.906,-1.13
30.921,-0.09
30.937,0.68
30.953,1.08
30.968,1.1
30.984,0.75
31.000,0.16
31.015,-0.55
31.031,-1.34
31.046,-2.28
31.062,-3.49
31.078,-5.1
31.093,-7.09
31.109,-9.33
31.125,-11.44
31.140,-12.9
31.156,-13.15
31.171,-11.77
31.187,-8.57
31.203,-3.76
31.218,2.12
31.234,8.33
31.250,14.1
31.265,18.83
31.281,22.19
31.296,24.16
31.312,24.9
31.328,24.67
31.343,23.71
31.359,22.25
31.375,20.44
31.390,18.46
31.406,16.5
31.421,14.75
31.437,13.32
31.453,12.18
31.468,11.16
31.484,10.05
31.500,8.7
31.515,7.11
31.531,5.41
31.546,3.7
31.562,2.0
31.578,0.25
31.593,-1.64
31.609,-3.57
31.625,-5.17
31.640,-5.89
31.656,-5.18
31.671,-2.76
31.687,1.23
31.703,6.27
31.718,11.67
31.734,16.77
31.750,21.09
31.765,24.4
31.781,26.59
31.796,27.62
31.812,27.6
31.828,26.69
31.843,25.25
31.859,23.67
31.875,22.35
31.890,21.51
31.906,21.16
31.921,21.21
31.937,21.53
31.953,22.1
31.968,22.9
31.984,23.91
32.000,24.95
32.015,25.76
32.031,26.05
32.046,25.65
32.062,24.59
32.078,23.06
32.093,21.43
32.109,20.1
32.125,19.58
32.140,20.36
32.156,22.84
32.171,27.3
32.187,33.71
32.203,41.78
32.218,51.04
32.234,60.99
32.250,71.13
32.265,80.87
32.281,89.37
32.296,95.39
32.312,97.46
32.328,94.14
32.343,84.64
32.359,69.25
32.375,49.59
32.390,28.44
32.406,9.05
32.421,-5.71
32.437,-14.23
32.453,-16.51
32.468,-14.02
32.484,-9.05
32.500,-3.86
32.515,-0.1
32.531,1.45
32.546,0.71
32.562,-2.1
32.578,-6.69
32.593,-12.81
32.609,-20.28
32.625,-29.02
32.640,-39.03
32.656,-50.4
32.671,-63.06
32.687,-76.48
32.703,-89.25
32.718,-99.21
32.734,-103.91
32.750,-101.44
32.765,-91.28
32.781,-74.68
32.796,-54.44
32.812,-33.97
32.828,-16.29
32.843,-3.18
32.859,4.92
32.875,8.58
32.890,8.6
32.906,5.65
32.921,0.18
32.937,-7.18
32.953,-15.25
32.968,-22.31
32.984,-26.59
33.000,-27.02
33.015,-23.72
33.031,-18.07
33.046,-12.13
33.062,-7.75
33.078,-5.76
33.093,-5.67
33.109,-6.03
33.125,-5.14
33.140,-1.73
33.156,4.51
33.171,13.02
33.187,22.66
33.203,32.22
33.218,40.89
33.234,48.38
33.250,54.85
33.265,60.55
33.281,65.62
33.296,69.88
33.312,72.96
33.328,74.3
33.343,73.3
33.359,69.39
33.375,62.03
33.390,50.94
33.406,36.3
33.421,18.92
33.437,0.13
33.453,-18.68
33.468,-36.71
33.484,-54.19
33.500,-72.34
33.515,-92.47
33.531,-114.87
33.546,-137.99
33.562,-158.49
33.578,-172.37
33.593,-176.51
33.609,-169.93
33.625,-154.08
33.640,-132.01
33.656,-107.19
33.671,-82.41
33.687,-59.29
33.703,-38.7
33.718,-21.17
33.734,-7.2
33.750,2.78
33.765,8.75
33.781,11.34
33.796,11.68
33.812,11.04
33.828,10.43
33.843,10.3
33.859,10.6
33.875,10.87
33.890,10.71
33.906,9.94
33.921,8.82
33.937,7.99
33.953,8.12
33.968,9.64
33.984,12.45
34.000,15.99
34.015,19.37
34.031,21.82
34.046,22.99
34.062,23.19
34.078,23.4
34.093,25.04
34.109,29.63
34.125,38.25
34.140,51.17
34.156,67.58
34.171,85.71
34.187,103.17
34.203,117.57
34.218,127.14
34.234,131.06
34.250,129.62
34.265,123.95
34.281,115.58
34.296,106.0
34.312,96.16
34.328,86.48
34.343,76.94
34.359,67.5
34.375,58.35
34.390,49.88
34.406,42.3
34.421,35.27
34.437,27.81
34.453,18.67
34.468,6.98
34.484,-7.25
34.500,-23.02
34.515,-38.86
34.531,-53.6
34.546,-66.78
34.562,-78.66
34.578,-89.68
34.593,-99.91
34.609,-108.7
34.625,-114.99
34.640,-117.76
34.656,-116.48
34.671,-111.32
34.687,-102.98
34.703,-92.45
34.718,-80.71
34.734,-68.61
34.750,-56.88
34.765,-46.07
34.781,-36.6
34.796,-28.7
34.812,-22.34
34.828,-17.34
34.843,-13.4
34.859,-10.23
34.875,-7.59
34.890,-5.35
34.906,-3.42
34.921,-1.8
34.937,-0.58
34.953,0.03
34.968,-0.22
34.984,-1.65
35.000,-4.41
35.015,-8.41
35.031,-13.31
35.046,-18.55
35.062,-23.54
35.078,-27.78
35.093,-30.82
35.109,-32.3
35.125,-31.89
35.140,-29.25
35.156,-24.13
35.171,-16.49
35.187,-6.61
35.203,4.86
35.218,17.03
35.234,28.93
35.250,39.75
35.265,48.89
35.281,55.98
35.296,60.76
35.312,63.06
35.328,62.93
35.343,60.73
35.359,57.25
35.375,53.48
35.390,50.3
35.406,48.12
35.421,46.73
35.437,45.53
35.453,43.85
35.468,41.21
35.484,37.39
35.500,32.27
35.515,25.66
35.531,17.14
35.546,6.28
35.562,-7.19
35.578,-22.98
35.593,-40.05
35.609,-56.67
35.625,-70.78
35.640,-80.44
35.656,-84.31
35.671,-82.01
35.687,-74.25
35.703,-62.56
35.718,-48.84
35.734,-34.83
35.750,-21.88
35.765,-10.8
35.781,-1.97
35.796,4.54
35.812,8.86
35.828,11.39
35.843,12.73
35.859,13.56
35.875,14.51
35.890,15.96
35.906,17.94
35.921,20.26
35.937,22.6
35.953,24.71
35.968,26.54
35.984,28.14
36.000,29.53
36.015,30.57
36.031,30.9
36.046,30.23
36.062,28.53
36.078,26.15
36.093,23.9
36.109,22.66
36.125,23.18
36.140,25.81
36.156,30.56
36.171,37.26
36.187,45.74
36.203,55.87
36.218,67.49
36.234,80.4
36.250,94.21
36.265,108.15
36.281,121.05
36.296,131.39
36.312,137.54
36.328,138.23
36.343,132.95
36.359,122.1
36.375,106.84
36.390,88.94
36.406,70.64
36.421,54.57
36.437,43.49
36.453,39.62
36.468,43.85
36.484,54.91
36.500,69.19
36.515,81.58
36.531,87.04
36.546,82.39
36.562,67.39
36.578,44.53
36.593,17.78
36.609,-9.06
36.625,-33.4
36.640,-54.05
36.656,-70.62
36.671,-82.93
36.687,-90.57
36.703,-93.16
36.718,-90.81
36.734,-84.48
36.750,-75.9
36.765,-67.14
36.781,-59.84
36.796,-54.75
36.812,-51.7
36.828,-49.98
36.843,-48.77
36.859,-47.45
36.875,-45.7
36.890,-43.3
36.906,-40.04
36.921,-35.74
36.937,-30.45
36.953,-24.69
36.968,-19.55
36.984,-16.61
37.000,-17.39
37.015,-22.71
37.031,-32.2
37.046,-44.18
37.062,-56.09
37.078,-65.37
37.093,-70.3
37.109,-70.5
37.125,-66.91
37.140,-61.26
37.156,-55.33
37.171,-50.45
37.187,-47.2
37.203,-45.48
37.218,-44.77
37.234,-44.37
37.250,-43.56
37.265,-41.74
37.281,-38.41
37.296,-33.3
37.312,-26.36
37.328,-17.86
37.343,-8.44
37.359,0.98
37.375,9.28
37.390,15.41
37.406,18.72
37.421,19.14
37.437,17.24
37.453,13.97
37.468,10.26
37.484,6.57
37.500,2.68
37.515,-2.13
37.531,-8.67
37.546,-17.38
37.562,-28.02
37.578,-39.68
37.593,-51.04
37.609,-60.8
37.625,-67.94
37.640,-71.95
37.656,-72.89
37.671,-71.35
37.687,-68.27
37.703,-64.6
37.718,-60.92
37.734,-57.15
37.750,-52.6
37.765,-46.35
37.781,-37.76
37.796,-26.88
37.812,-14.45
37.828,-1.56
37.843,10.8
37.859,22.05
37.875,32.1
37.890,40.9
37.906,48.38
37.921,54.24
37.937,58.21
37.953,60.39
37.968,61.35
37.984,61.98
38.000,63.07
38.015,64.92
38.031,67.11
38.046,68.66
38.062,68.32
38.078,65.07
38.093,58.58
38.109,49.32
38.125,38.55
38.140,27.86
38.156,18.72
38.171,11.96
38.187,7.43
38.203,4.17
38.218,0.83
38.234,-3.42
38.250,-8.25
38.265,-12.07
38.281,-12.63
38.296,-8.2
38.312,1.54
38.328,15.11
38.343,29.8
38.359,42.84
38.375,52.57
38.390,58.83
38.406,62.78
38.421,65.82
38.437,68.65
38.453,70.97
38.468,71.73
38.484,69.93
38.500,65.27
38.515,58.32
38.531,50.26
38.546,42.49
38.562,36.43
38.578,33.5
38.593,35.23
38.609,42.88
38.625,56.83
38.640,76.0
38.656,97.65
38.671,118.07
38.687,133.73
38.703,142.49
38.718,144.07
38.734,139.67
38.750,130.73
38.765,117.75
38.781,100.02
38.796,76.32
38.812,46.23
38.828,11.2
38.843,-25.49
38.859,-59.79
38.875,-88.36
38.890,-109.77
38.906,-124.66
38.921,-134.78
38.937,-141.95
38.953,-147.07
38.968,-149.94
38.984,-150.08
39.000,-147.48
39.015,-143.02
39.031,-138.11
39.046,-133.92
39.062,-130.64
39.078,-127.5
39.093,-123.53
39.109,-118.42
39.125,-113.23
39.140,-110.18
39.156,-111.72
39.171,-119.35
39.187,-132.8
39.203,-149.93
39.218,-167.37
39.234,-181.46
39.250,-188.99
39.265,-187.8
39.281,-177.03
39.296,-157.24
39.312,-130.35
39.328,-99.42
39.343,-67.81
39.359,-38.41
39.375,-12.96
39.390,8.24
39.406,25.73
39.421,40.3
39.437,52.41
39.453,62.05
39.468,69.02
39.484,73.31
39.500,75.11
39.515,74.82
39.531,72.89
39.546,69.73
39.562,65.84
39.578,61.86
39.593,58.38
39.609,55.77
39.625,53.83
39.640,51.8
39.656,48.7
39.671,43.82
39.687,37.06
39.703,28.98
39.718,20.5
39.734,12.4
39.750,5.08
39.765,-1.43
39.781,-7.14
39.796,-11.79
39.812,-14.67
39.828,-14.89
39.843,-11.69
39.859,-4.82
39.875,5.26
39.890,17.55
39.906,30.78
39.921,43.83
39.937,55.9
39.953,66.56
39.968,75.59
39.984,82.75
40.000,87.73
40.015,90.23
40.031,90.2
40.046,88.02
40.062,84.57
40.078,80.98
40.093,78.28
40.109,76.92
40.125,76.65
40.140,76.73
40.156,76.31
40.171,74.78
40.187,71.98
40.203,67.99
40.218,62.91
40.234,56.66
40.250,49.02
40.265,39.88
40.281,29.5
40.296,18.52
40.312,7.88
40.328,-1.62
40.343,-9.46
40.359,-15.52
40.375,-20.0
40.390,-23.2
40.406,-25.53
40.421,-27.48
40.437,-29.7
40.453,-32.99
40.468,-38.16
40.484,-45.85
40.500,-56.4
40.515,-69.67
40.531,-84.97
40.546,-100.99
40.562,-115.82
40.578,-127.39
40.593,-133.9
40.609,-134.48
40.625,-129.47
40.640,-120.31
40.656,-108.87
40.671,-96.74
40.687,-84.63
40.703,-72.47
40.718,-59.76
40.734,-46.18
40.750,-31.96
40.765,-17.81
40.781,-4.66
40.796,6.71
40.812,15.86
40.828,22.76
40.843,27.73
40.859,31.36
40.875,34.48
40.890,37.92
40.906,42.38
40.921,48.24
40.937,55.47
40.953,63.63
40.968,71.95
40.984,79.41
41.000,84.82
41.015,87.1
41.031,85.57
41.046,80.27
41.062,72.06
41.078,62.45
41.093,52.97
41.109,44.69
41.125,37.88
41.140,32.11
41.156,26.62
41.171,20.74
41.187,14.19
41.203,6.98
41.218,-0.73
41.234,-8.93
41.250,-17.7
41.265,-27.23
41.281,-37.6
41.296,-48.66
41.312,-60.02
41.328,-71.06
41.343,-81.08
41.359,-89.36
41.375,-95.28
41.390,-98.52
41.406,-99.1
41.421,-97.46
41.437,-94.46
41.453,-91.15
41.468,-88.39
41.484,-86.37
41.500,-84.29
41.515,-80.46
41.531,-72.86
41.546,-59.98
41.562,-41.69
41.578,-19.56
41.593,3.62
41.609,24.81
41.625,41.77
41.640,53.91
41.656,62.17
41.671,68.4
41.687,74.4
41.703,81.16
41.718,88.61
41.734,95.93
41.750,101.91
41.765,105.46
41.781,106.09
41.796,104.09
41.812,100.55
41.828,97.3
41.843,96.08
41.859,97.8
41.875,101.89
41.890,105.99
41.906,106.55
41.921,100.37
41.937,86.11
41.953,65.29
41.968,41.51
41.984,18.38
42.000,-2.44
42.015,-21.88
42.031,-42.44
42.046,-65.79
42.062,-91.1
42.078,-115.07
42.093,-133.69
42.109,-144.52
42.125,-147.99
42.140,-146.52
42.156,-142.42
42.171,-136.18
42.187,-126.33
42.203,-111.08
42.218,-90.33
42.234,-66.27
42.250,-42.41
42.265,-21.47
42.281,-3.94
42.296,11.59
42.312,26.74
42.328,41.82
42.343,55.28
42.359,64.64
42.375,68.12
42.390,65.83
42.406,59.69
42.421,52.37
42.437,45.84
42.453,40.79
42.468,36.9
42.484,33.57
42.500,30.62
42.515,28.34
42.531,27.01
42.546,26.42
42.562,25.62
42.578,23.29
42.593,18.56
42.609,11.49
42.625,3.19
42.640,-4.69
42.656,-10.59
42.671,-13.56
42.687,-13.35
42.703,-10.22
42.718,-4.71
42.734,2.63
42.750,11.38
42.765,21.27
42.781,32.26
42.796,44.38
42.812,57.48
42.828,70.78
42.843,82.66
42.859,90.8
42.875,92.97
42.890,88.03
42.906,76.53
42.921,60.73
42.937,43.68
42.953,28.11
42.968,15.66
42.984,6.73
43.000,0.93
43.015,-2.27
43.031,-3.14
43.046,-1.72
43.062,2.03
43.078,7.89
43.093,15.29
43.109,23.52
43.125,31.83
43.140,39.51
43.156,45.96
43.171,50.63
43.187,53.15
43.203,53.46
43.218,51.85
43.234,48.78
43.250,44.79
43.265,40.27
43.281,35.42
43.296,30.26
43.312,24.53
43.328,17.8
43.343,9.43
43.359,-1.18
43.375,-14.31
43.390,-29.63
43.406,-45.99
43.421,-61.75
43.437,-75.19
43.453,-85.28
43.468,-92.06
43.484,-96.52
43.500,-100.08
43.515,-103.77
43.531,-107.63
43.546,-110.63
43.562,-111.11
43.578,-107.52
43.593,-99.26
43.609,-86.96
43.625,-72.19
43.640,-56.85
43.656,-42.37
43.671,-29.43
43.687,-18.06
43.703,-8.16
43.718,0.14
43.734,6.3
43.750,9.7
43.765,10.07
43.781,7.81
43.796,3.93
43.812,-0.38
43.828,-4.11
43.843,-6.81
43.859,-8.62
43.875,-10.04
43.890,-11.71
43.906,-14.05
43.921,-17.19
43.937,-20.81
43.953,-24.43
43.968,-27.67
43.984,-30.53
44.000,-33.56
44.015,-37.59
44.031,-43.27
44.046,-50.46
44.062,-58.17
44.078,-64.76
44.093,-68.73
44.109,-69.24
44.125,-66.44
44.140,-61.15
44.156,-54.41
44.171,-46.96
44.187,-39.15
44.203,-31.18
44.218,-23.41
44.234,-16.64
44.250,-11.92
44.265,-10.15
44.281,-11.68
44.296,-16.03
44.312,-21.94
44.328,-27.75
44.343,-31.84
44.359,-33.06
44.375,-31.01
44.390,-26.0
44.406,-18.86
44.421,-10.7
44.437,-2.63
44.453,4.38
44.468,9.58
44.484,12.52
44.500,13.11
44.515,11.69
44.531,8.97
44.546,5.81
44.562,2.97
44.578,0.91
44.593,-0.24
44.609,-0.56
44.625,-0.07
44.640,1.38
44.656,4.1
44.671,8.26
44.687,13.75
44.703,20.04
44.718,26.33
44.734,31.77
44.750,35.75
44.765,37.99
44.781,38.58
44.796,37.85
44.812,36.18
44.828,33.96
44.843,31.53
44.859,29.12
44.875,26.87
44.890,24.79
44.906,22.78
44.921,20.76
44.937,18.78
44.953,17.04
44.968,15.97
44.984,16.09
45.000,17.75
45.015,20.86
45.031,24.79
45.046,28.42
45.062,30.47
45.078,30.05
45.093,26.93
45.109,21.56
45.125,14.8
45.140,7.37
45.156,-0.46
45.171,-8.79
45.187,-17.49
45.203,-25.67
45.218,-31.39
45.234,-32.19
45.250,-26.24
45.265,-13.1
45.281,6.08
45.296,29.08
45.312,53.2
45.328,75.48
45.343,92.67
45.359,101.4
45.375,99.1
45.390,85.38
45.406,63.23
45.421,38.79
45.437,19.3
45.453,10.22
45.468,12.79
45.484,23.71
45.500,36.99
45.515,46.95
45.531,50.56
45.546,48.13
45.562,42.06
45.578,34.89
45.593,28.0
45.609,21.29
45.625,13.96
45.640,5.54
45.656,-3.49
45.671,-11.76
45.687,-17.33
45.703,-18.57
45.718,-14.81
45.734,-6.42
45.750,5.22
45.765,18.27
45.781,31.07
45.796,42.65
45.812,52.79
45.828,61.82
45.843,69.95
45.859,76.87
45.875,81.52
45.890,82.46
45.906,78.51
45.921,69.51
45.937,56.64
45.953,42.22
45.968,29.06
45.984,19.5
46.000,14.72
46.015,14.53
46.031,17.56
46.046,21.96
46.062,26.1
46.078,29.0
46.093,30.38
46.109,30.42
46.125,29.31
46.140,26.87
46.156,22.68
46.171,16.23
46.187,7.37
46.203,-3.4
46.218,-14.9
46.234,-25.57
46.250,-33.9
46.265,-38.86
46.281,-40.07
46.296,-37.82
46.312,-33.04
46.328,-27.06
46.343,-21.36
46.359,-17.12
46.375,-14.89
46.390,-14.37
46.406,-14.65
46.421,-14.63
46.437,-13.62
46.453,-11.6
46.468,-9.13
46.484,-6.89
46.500,-5.3
46.515,-4.28
46.531,-3.45
46.546,-2.5
46.562,-1.52
46.578,-0.91
46.593,-1.14
46.609,-2.43
46.625,-4.57
46.640,-7.08
46.656,-9.45
46.671,-11.36
46.687,-12.8
46.703,-13.96
46.718,-15.19
46.734,-16.79
46.750,-18.96
46.765,-21.67
46.781,-24.55
46.796,-26.91
46.812,-27.87
46.828,-26.68
46.843,-22.95
46.859,-16.96
46.875,-9.58
46.890,-2.14
46.906,4.04
46.921,8.03
46.937,9.47
46.953,8.65
46.968,6.25
46.984,2.99
47.000,-0.5
47.015,-3.74
47.031,-6.44
47.046,-8.37
47.062,-9.47
47.078,-9.96
47.093,-10.33
47.109,-11.33
47.125,-13.55
47.140,-17.15
47.156,-21.59
47.171,-25.83
47.187,-28.77
47.203,-29.72
47.218,-28.77
47.234,-26.72
47.250,-24.73
47.265,-23.84
47.281,-24.62
47.296,-26.93
47.312,-30.02
47.328,-32.81
47.343,-34.19
47.359,-33.44
47.375,-30.37
47.390,-25.34
47.406,-19.11
47.421,-12.53
47.437,-6.29
47.453,-0.83
47.468,3.65
47.484,7.12
47.500,9.55
47.515,10.9
47.531,11.16
47.546,10.4
47.562,8.78
47.578,6.54
47.593,3.94
47.609,1.23
47.625,-1.2
47.640,-2.89
47.656,-3.38
47.671,-2.31
47.687,0.32
47.703,4.08
47.718,8.22
47.734,11.89
47.750,14.47
47.765,15.69
47.781,15.67
47.796,14.65
47.812,12.91
47.828,10.65
47.843,8.04
47.859,5.36
47.875,3.06
47.890,1.73
47.906,1.99
47.921,4.2
47.937,8.44
47.953,14.4
47.968,21.52
47.984,29.06
48.000,36.33
48.015,42.72
48.031,47.87
48.046,51.61
48.062,53.96
48.078,54.98
48.093,54.86
48.109,53.92
48.125,52.57
48.140,51.31
48.156,50.44
48.171,49.9
48.187,49.21
48.203,47.63
48.218,44.43
48.234,39.18
48.250,31.91
48.265,23.0
48.281,13.09
48.296,2.83
48.312,-7.15
48.328,-16.12
48.343,-23.4
48.359,-28.36
48.375,-30.69
48.390,-30.53
48.406,-28.54
48.421,-25.6
48.437,-22.56
48.453,-19.96
48.468,-17.9
48.484,-16.21
48.500,-14.6
48.515,-12.91
48.531,-11.08
48.546,-9.15
48.562,-7.03
48.578,-4.49
48.593,-1.21
48.609,3.12
48.625,8.47
48.640,14.5
48.656,20.52
48.671,25.77
48.687,29.6
48.703,31.7
48.718,32.17
48.734,31.34
48.750,29.7
48.765,27.62
48.781,25.29
48.796,22.68
48.812,19.56
48.828,15.58
48.843,10.46
48.859,3.99
48.875,-3.77
48.890,-12.49
48.906,-21.62
48.921,-30.52
48.937,-38.59
48.953,-45.43
48.968,-50.99
48.984,-55.41
49.000,-58.95
49.015,-61.78
49.031,-63.76
49.046,-64.43
49.062,-63.06
49.078,-58.86
49.093,-51.31
49.109,-40.46
49.125,-27.05
49.140,-12.5
49.156,1.43
49.171,13.01
49.187,20.95
49.203,24.62
49.218,24.12
49.234,20.16
49.250,13.9
49.265,6.65
49.281,-0.24
49.296,-5.7
49.312,-9.06
49.328,-10.15
49.343,-9.26
49.359,-7.05
49.375,-4.37
49.390,-2.07
49.406,-0.85
49.421,-1.06
49.437,-2.68
49.453,-5.37
49.468,-8.57
49.484,-11.83
49.500,-14.99
49.515,-18.18
49.531,-21.67
49.546,-25.69
49.562,-30.18
49.578,-34.76
49.593,-38.86
49.609,-41.81
49.625,-43.03
49.640,-42.11
49.656,-38.86
49.671,-33.37
49.687,-26.09
49.703,-17.75
49.718,-9.26
49.734,-1.41
49.750,5.31
49.765,10.76
49.781,14.91
49.796,17.82
49.812,19.34
49.828,19.32
49.843,17.73
49.859,14.95
49.875,11.67
49.890,8.7
49.906,6.73
49.921,6.06
49.937,6.77
49.953,8.69
49.968,11.61
49.984,15.2
50.000,18.91
50.015,21.93
50.031,23.44
50.046,22.86
50.062,20.09
50.078,15.73
50.093,10.71
50.109,6.05
50.125,2.44
50.140,0.09
50.156,-1.16
50.171,-1.7
50.187,-1.87
50.203,-1.8
50.218,-1.33
50.234,-0.09
50.250,2.37
50.265,6.33
50.281,11.77
50.296,18.28
50.312,25.16
50.328,31.59
50.343,36.89
50.359,40.66
50.375,42.8
50.390,43.4
50.406,42.58
50.421,40.35
50.437,36.6
50.453,31.04
50.468,23.31
50.484,13.03
50.500,-0.04
50.515,-15.84
50.531,-33.83
50.546,-52.96
50.562,-71.74
50.578,-88.48
50.593,-101.74
50.609,-110.65
50.625,-115.18
50.640,-116.07
50.656,-114.64
50.671,-112.37
50.687,-110.52
50.703,-109.76
50.718,-110.08
50.734,-110.82
50.750,-110.94
50.765,-109.31
50.781,-105.14
50.796,-98.09
50.812,-88.41
50.828,-76.67
50.843,-63.68
50.859,-50.31
50.875,-37.31
50.890,-25.23
50.906,-14.44
50.921,-5.11
50.937,2.84
50.953,9.65
50.968,15.74
50.984,21.58
51.000,27.61
51.015,34.18
51.031,41.44
51.046,49.23
51.062,57.1
51.078,64.37
51.093,70.33
51.109,74.45
51.125,76.4
51.140,76.14
51.156,73.77
51.171,69.53
51.187,63.73
51.203,56.78
51.218,49.15
51.234,41.21
51.250,33.23
51.265,25.19
51.281,16.99
51.296,8.51
51.312,-0.12
51.328,-8.41
51.343,-15.6
51.359,-20.93
51.375,-23.93
51.390,-24.55
51.406,-23.19
51.421,-20.48
51.437,-17.09
51.453,-13.55
51.468,-10.1
51.484,-6.75
51.500,-3.34
51.515,0.3
51.531,4.33
51.546,8.74
51.562,13.39
51.578,17.94
51.593,21.91
51.609,24.86
51.625,26.54
51.640,27.03
51.656,26.71
51.671,26.04
51.687,25.41
51.703,24.93
51.718,24.47
51.734,23.69
51.750,22.39
51.765,20.41
51.781,17.67
51.796,14.17
51.812,9.98
51.828,5.41
51.843,1.14
51.859,-1.85
51.875,-2.57
51.890,-0.43
51.906,4.41
51.921,10.93
51.937,17.65
51.953,23.04
51.968,25.99
51.984,26.02
52.000,23.3
52.015,18.43
52.031,12.13
52.046,4.97
52.062,-2.81
52.078,-11.3
52.093,-20.88
52.109,-31.86
52.125,-44.22
52.140,-57.33
52.156,-70.03
52.171,-80.84
52.187,-88.38
52.203,-91.73
52.218,-90.52
52.234,-85.16
52.250,-76.76
52.265,-67.17
52.281,-58.75
52.296,-53.9
52.312,-54.36
52.328,-60.51
52.343,-71.07
52.359,-83.42
52.375,-94.43
52.390,-101.43
52.406,-102.88
52.421,-98.44
52.437,-88.58
52.453,-74.03
52.468,-55.57
52.484,-34.11
52.500,-10.94
52.515,12.05
52.531,32.76
52.546,49.35
52.562,60.93
52.578,67.8
52.593,71.16
52.609,72.5
52.625,72.77
52.640,72.15
52.656,70.06
52.671,65.79
52.687,59.09
52.703,50.43
52.718,40.86
52.734,31.43
52.750,22.86
52.765,15.34
52.781,8.74
52.796,2.95
52.812,-1.96
52.828,-5.71
52.843,-7.98
52.859,-8.53
52.875,-7.23
52.890,-3.94
52.906,1.49
52.921,9.14
52.937,18.81
52.953,29.97
52.968,41.81
52.984,53.47
53.000,64.34
53.015,74.17
53.031,83.0
53.046,90.96
53.062,98.09
53.078,104.2
53.093,109.07
53.109,112.71
53.125,115.56
53.140,118.52
53.156,122.46
53.171,127.64
53.187,133.27
53.203,137.43
53.218,137.66
53.234,131.86
53.250,119.3
53.265,101.09
53.281,80.04
53.296,59.71
53.312,43.24
53.328,32.35
53.343,26.93
53.359,25.27
53.375,24.92
53.390,23.71
53.406,20.6
53.421,16.04
53.437,11.82
53.453,10.33
53.468,13.48
53.484,21.6
53.500,32.69
53.515,42.38
53.531,44.7
53.546,33.78
53.562,5.76
53.578,-39.26
53.593,-96.48
53.609,-157.14
53.625,-210.69
53.640,-247.81
53.656,-263.13
53.671,-256.53
53.687,-232.65
53.703,-198.75
53.718,-162.18
53.734,-128.37
53.750,-100.1
53.765,-78.05
53.781,-61.86
53.796,-50.94
53.812,-44.75
53.828,-42.4
53.843,-42.3
53.859,-42.34
53.875,-40.64
53.890,-36.4
53.906,-30.35
53.921,-24.4
53.937,-20.6
53.953,-19.97
53.968,-21.8
53.984,-23.87
54.000,-23.47
54.015,-18.69
54.031,-9.34
54.046,2.97
54.062,15.58
54.078,26.0
54.093,32.98
54.109,36.83
54.125,39.1
54.140,41.59
54.156,45.51
54.171,50.93
54.187,56.87
54.203,61.91
54.218,64.94
54.234,65.63
54.250,64.5
54.265,62.61
54.281,60.96
54.296,60.01
54.312,59.47
54.328,58.5
54.343,56.11
54.359,51.6
54.375,44.85
54.390,36.34
54.406,26.99
54.421,17.76
54.437,9.47
54.453,2.5
54.468,-3.09
54.484,-7.58
54.500,-11.3
54.515,-14.58
54.531,-17.62
54.546,-20.42
54.562,-22.77
54.578,-24.31
54.593,-24.53
54.609,-22.96
54.625,-19.41
54.640,-14.21
54.656,-8.38
54.671,-3.45
54.687,-1.04
54.703,-2.28
54.718,-7.32
54.734,-15.27
54.750,-24.58
54.765,-33.77
54.781,-41.92
54.796,-48.94
54.812,-55.27
54.828,-61.33
54.843,-66.97
54.859,-71.25
54.875,-72.76
54.890,-70.3
54.906,-63.41
54.921,-52.68
54.937,-39.63
54.953,-26.17
54.968,-13.96
54.984,-4.05
55.000,3.32
55.015,8.5
55.031,12.12
55.046,14.8
55.062,17.01
55.078,19.04
55.093,21.17
55.109,23.74
55.125,27.09
55.140,31.39
55.156,36.48
55.171,41.78
55.187,46.42
55.203,49.56
55.218,50.73
55.234,50.07
55.250,48.2
55.265,45.96
55.281,44.0
55.296,42.66
55.312,41.93
55.328,41.73
55.343,41.99
55.359,42.67
55.375,43.64
55.390,44.51
55.406,44.65
55.421,43.45
55.437,40.65
55.453,36.63
55.468,32.38
55.484,29.16
55.500,27.84
55.515,28.45
55.531,29.98
55.546,30.67
55.562,28.86
55.578,23.67
55.593,15.53
55.609,5.99
55.625,-2.9
55.640,-9.45
55.656,-12.87
55.671,-13.32
55.687,-11.62
55.703,-8.62
55.718,-5.01
55.734,-1.19
55.750,2.45
55.765,5.4
55.781,7.04
55.796,6.83
55.812,4.6
55.828,0.63
55.843,-4.41
55.859,-9.85
55.875,-15.18
55.890,-20.23
55.906,-25.11
55.921,-29.99
55.937,-34.96
55.953,-39.95
55.968,-44.82
55.984,-49.41
56.000,-53.63
56.015,-57.33
56.031,-60.14
56.046,-61.51
56.062,-60.82
56.078,-57.64
56.093,-51.94
56.109,-44.14
56.125,-34.97
56.140,-25.22
56.156,-15.48
56.171,-6.23
56.187,2.22
56.203,9.59
56.218,15.68
56.234,20.48
56.250,24.16
56.265,27.06
56.281,29.54
56.296,31.7
56.312,33.36
56.328,34.24
56.343,34.18
56.359,33.33
56.375,32.09
56.390,30.96
56.406,30.27
56.421,30.07
56.437,30.12
56.453,30.07
56.468,29.67
56.484,29.04
56.500,28.48
56.515,28.45
56.531,29.24
56.546,30.83
56.562,32.82
56.578,34.59
56.593,35.51
56.609,35.19
56.625,33.56
56.640,30.9
56.656,27.65
56.671,24.32
56.687,21.35
56.703,19.06
56.718,17.75
56.734,17.53
56.750,18.32
56.765,19.79
56.781,21.31
56.796,22.19
56.812,21.85
56.828,19.99
56.843,16.61
56.859,11.97
56.875,6.33
56.890,-0.03
56.906,-6.86
56.921,-13.85
56.937,-20.59
56.953,-26.64
56.968,-31.58
56.984,-35.12
57.000,-37.09
57.015,-37.49
57.031,-36.47
57.046,-34.36
57.062,-31.76
57.078,-29.41
57.093,-27.98
57.109,-27.82
57.125,-28.77
57.140,-30.3
57.156,-31.85
57.171,-33.22
57.187,-34.75
57.203,-37.1
57.218,-40.75
57.234,-45.4
57.250,-49.88
57.265,-52.49
57.281,-51.7
57.296,-46.97
57.312,-38.89
57.328,-28.98
57.343,-18.94
57.359,-9.94
57.375,-2.38
57.390,3.94
57.406,9.32
57.421,13.83
57.437,17.15
57.453,18.83
57.468,18.65
57.484,16.89
57.500,14.29
57.515,11.69
57.531,9.71
57.546,8.58
57.562,8.14
57.578,8.16
57.593,8.52
57.609,9.42
57.625,11.23
57.640,14.26
57.656,18.46
57.671,23.25
57.687,27.77
57.703,31.16
57.718,33.04
57.734,33.68
57.750,33.82
57.765,34.26
57.781,35.47
57.796,37.26
57.812,39.09
57.828,40.38
57.843,40.96
57.859,41.29
57.875,42.14
57.890,44.13
57.906,47.3
57.921,50.99
57.937,54.13
57.953,55.71
57.968,55.17
57.984,52.52
58.000,48.14
58.015,42.42
58.031,35.6
58.046,27.7
58.062,18.77
58.078,9.07
58.093,-0.9
58.109,-10.57
58.125,-19.49
58.140,-27.56
58.156,-34.94
58.171,-41.94
58.187,-48.71
58.203,-55.11
58.218,-60.68
58.234,-64.82
58.250,-67.08
58.265,-67.3
58.281,-65.7
58.296,-62.73
58.312,-58.92
58.328,-54.65
58.343,-50.13
58.359,-45.48
58.375,-40.84
58.390,-36.36
58.406,-32.12
58.421,-27.97
58.437,-23.49
58.453,-18.14
58.468,-11.53
58.484,-3.74
58.500,4.65
58.515,12.67
58.531,19.37
58.546,24.08
58.562,26.68
58.578,27.48
58.593,27.02
58.609,25.8
58.625,24.14
58.640,22.22
58.656,20.09
58.671,17.83
58.687,15.57
58.703,13.49
58.718,11.79
58.734,10.61
58.750,9.99
58.765,9.92
58.781,10.36
58.796,11.23
58.812,12.46
58.828,13.93
58.843,15.47
58.859,16.94
58.875,18.26
58.890,19.53
58.906,20.94
58.921,22.71
58.937,24.93
58.953,27.49
58.968,30.08
58.984,32.35
59.000,34.03
59.015,35.04
59.031,35.43
59.046,35.32
59.062,34.78
59.078,33.86
59.093,32.7
59.109,31.56
59.125,30.84
59.140,30.84
59.156,31.51
59.171,32.31
59.187,32.24
59.203,30.08
59.218,24.96
59.234,16.65
59.250,5.77
59.265,-6.43
59.281,-18.45
59.296,-29.06
59.312,-37.56
59.328,-43.82
59.343,-48.08
59.359,-50.67
59.375,-51.83
59.390,-51.74
59.406,-50.69
59.421,-49.12
59.437,-47.6
59.453,-46.58
59.468,-46.14
59.484,-45.94
59.500,-45.46
59.515,-44.33
59.531,-42.57
59.546,-40.56
59.562,-38.67
59.578,-36.93
59.593,-34.8
59.609,-31.45
59.625,-26.19
59.640,-18.97
59.656,-10.52
59.671,-2.07
59.687,5.19
59.703,10.51
59.718,13.84
59.734,15.61
59.750,16.41
59.765,16.73
59.781,16.79
59.796,16.71
59.812,16.68
59.828,17.03
59.843,18.1
59.859,20.0
59.875,22.46
59.890,24.79
59.906,26.1
59.921,25.74
59.937,23.52
59.953,19.87
59.968,15.65
59.984,11.77
