timestamp,value
00.000,14.11
00.015,15.33
00.031,16.06
00.046,16.58
00.062,17.09
00.078,17.67
00.093,18.27
00.109,18.79
00.125,19.18
00.140,19.4
00.156,19.56
00.171,19.72
00.187,19.87
00.203,19.9
00.218,19.65
00.234,18.91
00.250,17.6
00.265,15.71
00.281,13.29
00.296,10.49
00.312,7.45
00.328,4.29
00.343,1.11
00.359,-2.02
00.375,-5.1
00.390,-8.16
00.406,-11.27
00.421,-14.54
00.437,-18.04
00.453,-21.85
00.468,-26.05
00.484,-30.67
00.500,-35.66
00.515,-40.82
00.531,-45.7
00.546,-49.73
00.562,-52.26
00.578,-52.76
00.593,-51.04
00.609,-47.29
00.625,-42.01
00.640,-35.87
00.656,-29.51
00.671,-23.38
00.687,-17.68
00.703,-12.38
00.718,-7.35
00.734,-2.43
00.750,2.4
00.765,7.06
00.781,11.35
00.796,15.02
00.812,17.89
00.828,19.92
00.843,21.2
00.859,21.92
00.875,22.32
00.890,22.63
00.906,22.98
00.921,23.47
00.937,24.1
00.953,24.82
00.968,25.48
00.984,25.89
01.000,25.85
01.015,25.32
01.031,24.37
01.046,23.15
01.062,21.81
01.078,20.41
01.093,18.86
01.109,17.01
01.125,14.75
01.140,12.07
01.156,9.13
01.171,6.14
01.187,3.28
01.203,0.62
01.218,-1.87
01.234,-4.38
01.250,-7.11
01.265,-10.22
01.281,-13.83
01.296,-17.99
01.312,-22.63
01.328,-27.56
01.343,-32.43
01.359,-36.71
01.375,-39.85
01.390,-41.31
01.406,-40.79
01.421,-38.32
01.437,-34.26
01.453,-29.21
01.468,-23.87
01.484,-18.79
01.500,-14.32
01.515,-10.53
01.531,-7.28
01.546,-4.32
01.562,-1.42
01.578,1.65
01.593,4.96
01.609,8.52
01.625,12.13
01.640,15.57
01.656,18.53
01.671,20.82
01.687,22.33
01.703,23.06
01.718,23.12
01.734,22.66
01.750,21.79
01.765,20.66
01.781,19.44
01.796,18.26
01.812,17.25
01.828,16.38
01.843,15.52
01.859,14.43
01.875,12.95
01.890,11.05
01.906,8.83
01.921,6.55
01.937,4.42
01.953,2.53
01.968,0.88
01.984,-0.63
02.000,-2.08
02.015,-3.51
02.031,-4.93
02.046,-6.41
02.062,-8.04
02.078,-9.97
02.093,-12.29
02.109,-15.06
02.125,-18.22
02.140,-21.66
02.156,-25.15
02.171,-28.41
02.187,-31.0
02.203,-32.45
02.218,-32.35
02.234,-30.51
02.250,-27.06
02.265,-22.44
02.281,-17.21
02.296,-11.88
02.312,-6.74
02.328,-1.83
02.343,2.94
02.359,7.69
02.375,12.41
02.390,16.95
02.406,21.05
02.421,24.45
02.437,26.96
02.453,28.56
02.468,29.38
02.484,29.7
02.500,29.84
02.515,30.05
02.531,30.39
02.546,30.75
02.562,30.94
02.578,30.73
02.593,30.01
02.609,28.75
02.625,27.02
02.640,24.9
02.656,22.5
02.671,19.86
02.687,17.08
02.703,14.32
02.718,11.68
02.734,9.25
02.750,6.95
02.765,4.63
02.781,2.14
02.796,-0.55
02.812,-3.36
02.828,-6.19
02.843,-8.94
02.859,-11.73
02.875,-14.73
02.890,-18.16
02.906,-22.09
02.921,-26.41
02.937,-30.8
02.953,-34.87
02.968,-38.2
02.984,-40.42
03.000,-41.25
03.015,-40.5
03.031,-38.16
03.046,-34.41
03.062,-29.63
03.078,-24.27
03.093,-18.76
03.109,-13.39
03.125,-8.29
03.140,-3.52
03.156,0.89
03.171,4.91
03.187,8.46
03.203,11.51
03.218,14.05
03.234,16.09
03.250,17.61
03.265,18.61
03.281,19.1
03.296,19.16
03.312,18.94
03.328,18.59
03.343,18.25
03.359,17.92
03.375,17.54
03.390,17.01
03.406,16.32
03.421,15.51
03.437,14.67
03.453,13.83
03.468,12.87
03.484,11.6
03.500,9.85
03.515,7.59
03.531,4.96
03.546,2.25
03.562,-0.32
03.578,-2.66
03.593,-4.9
03.609,-7.3
03.625,-10.11
03.640,-13.49
03.656,-17.39
03.671,-21.62
03.687,-25.95
03.703,-30.17
03.718,-34.06
03.734,-37.43
03.750,-40.03
03.765,-41.56
03.781,-41.71
03.796,-40.29
03.812,-37.3
03.828,-32.98
03.843,-27.71
03.859,-21.95
03.875,-16.12
03.890,-10.47
03.906,-5.14
03.921,-0.1
03.937,4.67
03.953,9.2
03.968,13.4
03.984,17.12
04.000,20.16
04.015,22.4
04.031,23.87
04.046,24.78
04.062,25.36
04.078,25.77
04.093,26.04
04.109,25.98
04.125,25.41
04.140,24.27
04.156,22.64
04.171,20.78
04.187,18.92
04.203,17.13
04.218,15.3
04.234,13.25
04.250,10.81
04.265,7.99
04.281,4.97
04.296,1.98
04.312,-0.79
04.328,-3.31
04.343,-5.69
04.359,-8.08
04.375,-10.59
04.390,-13.25
04.406,-16.05
04.421,-19.03
04.437,-22.28
04.453,-26.0
04.468,-30.34
04.484,-35.27
04.500,-40.55
04.515,-45.71
04.531,-50.1
04.546,-53.16
04.562,-54.49
04.578,-53.97
04.593,-51.72
04.609,-48.04
04.625,-43.31
04.640,-37.9
04.656,-32.16
04.671,-26.31
04.687,-20.47
04.703,-14.69
04.718,-9.04
04.734,-3.62
04.750,1.29
04.765,5.29
04.781,7.96
04.796,9.03
04.812,8.61
04.828,7.16
04.843,5.34
04.859,3.77
04.875,2.88
04.890,2.73
04.906,3.16
04.921,3.87
04.937,4.62
04.953,5.3
04.968,5.88
04.984,6.41
05.000,6.91
05.015,7.4
05.031,7.87
05.046,8.35
05.062,8.88
05.078,9.49
05.093,10.15
05.109,10.79
05.125,11.26
05.140,11.4
05.156,11.11
05.171,10.33
05.187,9.15
05.203,7.62
05.218,5.78
05.234,3.53
05.250,0.65
05.265,-3.15
05.281,-7.98
05.296,-13.68
05.312,-19.71
05.328,-25.11
05.343,-28.87
05.359,-30.15
05.375,-28.62
05.390,-24.55
05.406,-18.67
05.421,-11.89
05.437,-4.97
05.453,1.73
05.468,8.2
05.484,14.63
05.500,21.13
05.515,27.51
05.531,33.4
05.546,38.22
05.562,41.51
05.578,43.0
05.593,42.68
05.609,40.77
05.625,37.63
05.640,33.72
05.656,29.49
05.671,25.32
05.687,21.39
05.703,17.81
05.718,14.59
05.734,11.7
05.750,9.13
05.765,6.85
05.781,4.73
05.796,2.59
05.812,0.11
05.828,-2.91
05.843,-6.56
05.859,-10.77
05.875,-15.49
05.890,-20.76
05.906,-26.73
05.921,-33.53
05.937,-41.05
05.953,-48.78
05.968,-56.0
05.984,-62.0
06.000,-66.33
06.015,-69.02
06.031,-70.39
06.046,-70.77
06.062,-70.3
06.078,-68.77
06.093,-65.75
06.109,-60.92
06.125,-54.23
06.140,-46.01
06.156,-36.85
06.171,-27.35
06.187,-18.0
06.203,-9.06
06.218,-0.64
06.234,7.18
06.250,14.2
06.265,20.19
06.281,24.91
06.296,28.29
06.312,30.56
06.328,32.11
06.343,33.44
06.359,34.89
06.375,36.55
06.390,38.24
06.406,39.61
06.421,40.31
06.437,40.13
06.453,39.07
06.468,37.31
06.484,35.15
06.500,32.9
06.515,30.85
06.531,29.17
06.546,27.78
06.562,26.4
06.578,24.49
06.593,21.56
06.609,17.33
06.625,11.88
06.640,5.67
06.656,-0.69
06.671,-6.67
06.687,-12.09
06.703,-17.06
06.718,-21.96
06.734,-27.15
06.750,-32.84
06.765,-39.09
06.781,-45.72
06.796,-52.36
06.812,-58.47
06.828,-63.28
06.843,-65.84
06.859,-65.25
06.875,-60.88
06.890,-52.68
06.906,-41.25
06.921,-27.67
06.937,-13.09
06.953,1.71
06.968,16.6
06.984,31.99
07.000,48.41
07.015,66.05
07.031,84.45
07.046,102.63
07.062,119.47
07.078,134.13
07.093,146.22
07.109,155.75
07.125,162.83
07.140,167.54
07.156,170.02
07.171,170.56
07.187,169.8
07.203,168.63
07.218,167.84
07.234,167.85
07.250,168.48
07.265,169.07
07.281,168.77
07.296,167.02
07.312,163.77
07.328,159.53
07.343,155.21
07.359,151.83
07.375,150.23
07.390,150.9
07.406,153.78
07.421,158.41
07.437,164.03
07.453,169.74
07.468,174.8
07.484,178.7
07.500,181.17
07.515,182.1
07.531,181.31
07.546,178.42
07.562,172.73
07.578,163.39
07.593,149.69
07.609,131.35
07.625,108.79
07.640,83.07
07.656,55.73
07.671,28.39
07.687,2.48
07.703,-21.12
07.718,-42.09
07.734,-60.66
07.750,-77.33
07.765,-92.54
07.781,-106.47
07.796,-118.95
07.812,-129.55
07.828,-137.92
07.843,-143.95
07.859,-147.88
07.875,-150.19
07.890,-151.38
07.906,-151.74
07.921,-151.4
07.937,-150.29
07.953,-148.42
07.968,-145.97
07.984,-143.35
08.000,-141.12
08.015,-139.89
08.031,-140.11
08.046,-142.02
08.062,-145.44
08.078,-149.9
08.093,-154.68
08.109,-159.0
08.125,-162.22
08.140,-164.0
08.156,-164.31
08.171,-163.36
08.187,-161.52
08.203,-159.14
08.218,-156.51
08.234,-153.72
08.250,-150.79
08.265,-147.48
08.281,-143.4
08.296,-137.96
08.312,-130.53
08.328,-120.63
08.343,-108.11
08.359,-93.44
08.375,-77.54
08.390,-61.73
08.406,-47.33
08.421,-35.4
08.437,-26.43
08.453,-20.33
08.468,-16.57
08.484,-14.33
08.500,-12.89
08.515,-11.77
08.531,-10.84
08.546,-10.29
08.562,-10.47
08.578,-11.63
08.593,-13.78
08.609,-16.62
08.625,-19.61
08.640,-22.24
08.656,-24.13
08.671,-25.22
08.687,-25.71
08.703,-26.06
08.718,-26.74
08.734,-28.17
08.750,-30.68
08.765,-34.34
08.781,-39.09
08.796,-44.67
08.812,-50.67
08.828,-56.63
08.843,-62.17
08.859,-67.13
08.875,-71.53
08.890,-75.53
08.906,-79.18
08.921,-82.25
08.937,-84.08
08.953,-83.72
08.968,-80.17
08.984,-72.8
09.000,-61.68
09.015,-47.64
09.031,-32.09
09.046,-16.58
09.062,-2.43
09.078,9.62
09.093,19.29
09.109,26.61
09.125,31.59
09.140,34.13
09.156,34.16
09.171,31.97
09.187,28.45
09.203,24.98
09.218,23.09
09.234,23.84
09.250,27.45
09.265,33.19
09.281,39.87
09.296,46.28
09.312,51.69
09.328,55.95
09.343,59.3
09.359,61.96
09.375,63.89
09.390,64.83
09.406,64.43
09.421,62.53
09.437,59.39
09.453,55.51
09.468,51.61
09.484,48.28
09.500,45.83
09.515,44.2
09.531,43.12
09.546,42.22
09.562,41.17
09.578,39.78
09.593,37.99
09.609,35.86
09.625,33.46
09.640,30.86
09.656,28.05
09.671,24.96
09.687,21.45
09.703,17.45
09.718,12.97
09.734,8.22
09.750,3.56
09.765,-0.52
09.781,-3.5
09.796,-4.92
09.812,-4.52
09.828,-2.33
09.843,1.34
09.859,5.85
09.875,10.44
09.890,14.43
09.906,17.4
09.921,19.32
09.937,20.59
09.953,21.79
09.968,23.44
09.984,25.84
10.000,28.82
10.015,31.81
10.031,33.85
10.046,33.98
10.062,31.43
10.078,26.02
10.093,18.14
10.109,8.8
10.125,-0.76
10.140,-9.46
10.156,-16.67
10.171,-22.37
10.187,-26.92
10.203,-30.77
10.218,-34.19
10.234,-37.12
10.250,-39.33
10.265,-40.54
10.281,-40.56
10.296,-39.31
10.312,-36.72
10.328,-32.85
10.343,-27.98
10.359,-22.74
10.375,-18.11
10.390,-15.2
10.406,-14.82
10.421,-17.11
10.437,-21.51
10.453,-27.0
10.468,-32.48
10.484,-37.12
10.500,-40.4
10.515,-41.84
10.531,-40.95
10.546,-37.12
10.562,-29.97
10.578,-19.65
10.593,-6.96
10.609,6.84
10.625,20.5
10.640,33.17
10.656,44.59
10.671,54.84
10.687,64.05
10.703,72.09
10.718,78.48
10.734,82.64
10.750,84.12
10.765,82.93
10.781,79.45
10.796,74.34
10.812,68.19
10.828,61.45
10.843,54.24
10.859,46.51
10.875,38.18
10.890,29.39
10.906,20.58
10.921,12.55
10.937,6.36
10.953,2.99
10.968,3.04
10.984,6.45
11.000,12.44
11.015,19.71
11.031,26.87
11.046,32.67
11.062,36.27
11.078,37.24
11.093,35.48
11.109,31.02
11.125,24.03
11.140,14.81
11.156,3.78
11.171,-8.39
11.187,-20.96
11.203,-33.2
11.218,-44.6
11.234,-54.94
11.250,-64.37
11.265,-73.25
11.281,-81.98
11.296,-90.78
11.312,-99.55
11.328,-107.9
11.343,-115.36
11.359,-121.45
11.375,-125.98
11.390,-128.98
11.406,-130.85
11.421,-132.22
11.437,-133.92
11.453,-136.73
11.468,-141.19
11.484,-147.23
11.500,-154.09
11.515,-160.29
11.531,-164.03
11.546,-163.64
11.562,-158.11
11.578,-147.37
11.593,-132.15
11.609,-113.83
11.625,-94.02
11.640,-74.25
11.656,-55.76
11.671,-39.36
11.687,-25.31
11.703,-13.25
11.718,-2.4
11.734,8.23
11.750,19.44
11.765,31.48
11.781,44.0
11.796,56.12
11.812,66.79
11.828,75.18
11.843,80.88
11.859,84.0
11.875,85.03
11.890,84.7
11.906,83.8
11.921,83.12
11.937,83.34
11.953,84.96
11.968,88.16
11.984,92.57
12.000,97.25
12.015,100.8
12.031,101.72
12.046,98.77
12.062,91.51
12.078,80.51
12.093,67.3
12.109,54.13
12.125,43.3
12.140,36.58
12.156,34.76
12.171,37.42
12.187,43.12
12.203,49.88
12.218,55.68
12.234,58.96
12.250,58.91
12.265,55.34
12.281,48.7
12.296,39.8
12.312,29.74
12.328,19.69
12.343,10.7
12.359,3.56
12.375,-1.43
12.390,-4.42
12.406,-5.93
12.421,-6.69
12.437,-7.47
12.453,-9.02
12.468,-11.98
12.484,-16.69
12.500,-23.06
12.515,-30.43
12.531,-37.75
12.546,-43.98
12.562,-48.46
12.578,-51.25
12.593,-53.06
12.609,-54.87
12.625,-57.39
12.640,-60.73
12.656,-64.39
12.671,-67.49
12.687,-69.22
12.703,-69.03
12.718,-66.75
12.734,-62.56
12.750,-56.88
12.765,-50.49
12.781,-44.45
12.796,-40.1
12.812,-38.53
12.828,-40.13
12.843,-44.22
12.859,-49.1
12.875,-52.72
12.890,-53.42
12.906,-50.69
12.921,-45.31
12.937,-38.9
12.953,-33.1
12.968,-28.8
12.984,-25.85
13.000,-23.4
13.015,-20.61
13.031,-17.22
13.046,-13.65
13.062,-10.67
13.078,-8.74
13.093,-7.63
13.109,-6.49
13.125,-4.36
13.140,-0.88
13.156,3.37
13.171,7.01
13.187,8.6
13.203,7.3
13.218,3.38
13.234,-1.98
13.250,-7.15
13.265,-10.7
13.281,-11.73
13.296,-9.78
13.312,-4.64
13.328,3.94
13.343,16.26
13.359,32.44
13.375,52.13
13.390,74.34
13.406,97.56
13.421,120.06
13.437,140.36
13.453,157.48
13.468,171.1
13.484,181.38
13.500,188.76
13.515,193.72
13.531,196.62
13.546,197.56
13.562,196.34
13.578,192.6
13.593,186.1
13.609,177.14
13.625,166.8
13.640,157.01
13.656,149.94
13.671,147.18
13.687,148.86
13.703,153.39
13.718,158.02
13.734,159.85
13.750,156.97
13.765,148.69
13.781,135.31
13.796,117.3
13.812,94.69
13.828,67.08
13.843,34.12
13.859,-4.15
13.875,-47.28
13.890,-94.79
13.906,-146.19
13.921,-200.23
13.937,-253.82
13.953,-301.37
13.968,-335.55
13.984,-349.59
14.000,-340.17
14.015,-309.26
14.031,-263.8
14.046,-213.22
14.062,-166.05
14.078,-127.52
14.093,-98.93
14.109,-78.94
14.125,-65.49
14.140,-57.17
14.156,-53.49
14.171,-54.16
14.187,-58.34
14.203,-64.34
14.218,-70.16
14.234,-74.15
14.250,-75.63
14.265,-75.08
14.281,-73.8
14.296,-73.27
14.312,-74.54
14.328,-77.93
14.343,-82.91
14.359,-88.46
14.375,-93.54
14.390,-97.45
14.406,-100.01
14.421,-101.3
14.437,-101.29
14.453,-99.52
14.468,-95.12
14.484,-87.13
14.500,-75.1
14.515,-59.37
14.531,-41.08
14.546,-21.88
14.562,-3.39
14.578,13.14
14.593,27.02
14.609,38.02
14.625,46.24
14.640,51.94
14.656,55.5
14.671,57.28
14.687,57.59
14.703,56.69
14.718,54.78
14.734,52.17
14.750,49.33
14.765,46.94
14.781,45.57
14.796,45.52
14.812,46.58
14.828,48.13
14.843,49.52
14.859,50.29
14.875,50.39
14.890,50.04
14.906,49.34
14.921,48.0
14.937,45.28
14.953,40.32
14.968,32.67
14.984,22.8
15.000,12.07
15.015,2.34
15.031,-4.7
15.046,-8.11
15.062,-7.85
15.078,-4.57
15.093,0.84
15.109,7.55
15.125,14.83
15.140,21.89
15.156,27.78
15.171,31.52
15.187,32.47
15.203,30.68
15.218,27.03
15.234,22.97
15.250,20.08
15.265,19.43
15.281,21.29
15.296,25.12
15.312,29.82
15.328,34.16
15.343,37.22
15.359,38.68
15.375,38.86
15.390,38.53
15.406,38.6
15.421,39.71
15.437,42.06
15.453,45.35
15.468,48.89
15.484,51.88
15.500,53.61
15.515,53.67
15.531,52.08
15.546,49.31
15.562,46.24
15.578,43.97
15.593,43.56
15.609,45.74
15.625,50.73
15.640,58.18
15.656,67.31
15.671,77.13
15.687,86.72
15.703,95.38
15.718,102.72
15.734,108.49
15.750,112.56
15.765,114.92
15.781,115.73
15.796,115.56
15.812,115.39
15.828,116.5
15.843,120.1
15.859,126.94
15.875,136.93
15.890,149.17
15.906,162.06
15.921,173.53
15.937,181.34
15.953,183.35
15.968,178.06
15.984,165.28
16.000,146.66
16.015,125.69
16.031,107.07
16.046,95.24
16.062,92.84
16.078,99.74
16.093,113.23
16.109,129.38
16.125,144.84
16.140,158.35
16.156,170.97
16.171,184.99
16.187,202.15
16.203,222.19
16.218,242.38
16.234,258.55
16.250,266.81
16.265,265.19
16.281,254.29
16.296,236.59
16.312,215.21
16.328,192.86
16.343,171.58
16.359,153.22
16.375,139.77
16.390,133.05
16.406,133.67
16.421,140.09
16.437,148.49
16.453,153.92
16.468,152.21
16.484,141.66
16.500,123.34
16.515,100.11
16.531,74.83
16.546,49.01
16.562,22.5
16.578,-5.4
16.593,-34.51
16.609,-62.97
16.625,-87.41
16.640,-104.12
16.656,-110.41
16.671,-105.59
16.687,-91.19
16.703,-70.54
16.718,-47.94
16.734,-27.68
16.750,-13.33
16.765,-7.07
16.781,-9.47
16.796,-19.49
16.812,-34.99
16.828,-53.44
16.843,-72.65
16.859,-91.23
16.875,-108.53
16.890,-124.22
16.906,-137.83
16.921,-148.58
16.937,-155.77
16.953,-159.13
16.968,-159.12
16.984,-156.82
17.000,-153.46
17.015,-149.83
17.031,-146.0
17.046,-141.42
17.062,-135.47
17.078,-128.18
17.093,-120.49
17.109,-114.06
17.125,-110.54
17.140,-110.72
17.156,-114.13
17.171,-119.32
17.187,-124.57
17.203,-128.6
17.218,-130.87
17.234,-131.05
17.250,-128.37
17.265,-121.31
17.281,-107.94
17.296,-87.03
17.312,-58.99
17.328,-26.31
17.343,7.12
17.359,37.02
17.375,60.02
17.390,74.22
17.406,79.14
17.421,75.41
17.437,64.14
17.453,46.62
17.468,24.22
17.484,-1.63
17.500,-29.46
17.515,-57.82
17.531,-85.36
17.546,-110.87
17.562,-133.41
17.578,-152.34
17.593,-167.5
17.609,-179.15
17.625,-187.92
17.640,-194.65
17.656,-200.14
17.671,-205.08
17.687,-209.99
17.703,-215.12
17.718,-220.4
17.734,-225.25
17.750,-228.52
17.765,-228.42
17.781,-222.71
17.796,-209.19
17.812,-186.55
17.828,-155.21
17.843,-117.55
17.859,-77.57
17.875,-39.7
17.890,-7.46
17.906,17.28
17.921,34.26
17.937,43.98
17.953,46.95
17.968,43.31
17.984,33.24
18.000,17.6
18.015,-1.7
18.031,-21.96
18.046,-40.57
18.062,-55.8
18.078,-67.09
18.093,-74.62
18.109,-78.73
18.125,-79.56
18.140,-77.26
18.156,-72.53
18.171,-66.91
18.187,-62.6
18.203,-61.74
18.218,-65.59
18.234,-73.87
18.250,-84.82
18.265,-95.61
18.281,-103.17
18.296,-104.98
18.312,-99.64
18.328,-87.4
18.343,-70.1
18.359,-50.85
18.375,-33.12
18.390,-19.75
18.406,-12.01
18.421,-9.36
18.437,-9.76
18.453,-10.69
18.468,-10.32
18.484,-8.23
18.500,-5.41
18.515,-3.63
18.531,-4.3
18.546,-7.64
18.562,-12.56
18.578,-17.24
18.593,-20.21
18.609,-21.24
18.625,-21.38
18.640,-22.28
18.656,-25.15
18.671,-29.91
18.687,-35.12
18.703,-38.8
18.718,-39.38
18.734,-36.61
18.750,-31.6
18.765,-26.28
18.781,-22.47
18.796,-21.11
18.812,-21.91
18.828,-23.5
18.843,-23.89
18.859,-21.11
18.875,-13.72
18.890,-1.16
18.906,16.06
18.921,36.4
18.937,57.67
18.953,77.6
18.968,94.49
18.984,107.65
19.000,117.49
19.015,125.15
19.031,131.85
19.046,138.3
19.062,144.35
19.078,149.16
19.093,151.64
19.109,150.92
19.125,146.54
19.140,138.38
19.156,126.59
19.171,111.64
19.187,94.37
19.203,75.73
19.218,56.14
19.234,34.86
19.250,9.91
19.265,-21.16
19.281,-59.72
19.296,-104.51
19.312,-151.21
19.328,-193.37
19.343,-224.6
19.359,-240.68
19.375,-240.72
19.390,-226.48
19.406,-201.02
19.421,-167.12
19.437,-126.73
19.453,-81.43
19.468,-33.08
19.484,15.99
19.500,63.66
19.515,108.76
19.531,151.31
19.546,191.66
19.562,229.22
19.578,261.62
19.593,285.2
19.609,296.6
19.625,294.56
19.640,280.66
19.656,258.55
19.671,232.33
19.687,204.73
19.703,176.38
19.718,146.21
19.734,112.82
19.750,75.83
19.765,36.72
19.781,-1.33
19.796,-34.4
19.812,-59.19
19.828,-74.16
19.843,-79.95
19.859,-79.16
19.875,-75.43
19.890,-72.36
19.906,-72.68
19.921,-77.98
19.937,-88.9
19.953,-105.38
19.968,-126.92
19.984,-152.56
20.000,-180.85
20.015,-210.04
20.031,-238.28
20.046,-264.13
20.062,-286.68
20.078,-305.71
20.093,-321.52
20.109,-334.6
20.125,-345.12
20.140,-352.35
20.156,-354.48
20.171,-348.87
20.187,-333.19
20.203,-306.55
20.218,-270.28
20.234,-227.67
20.250,-182.92
20.265,-139.65
20.281,-100.02
20.296,-64.64
20.312,-33.28
20.328,-5.82
20.343,17.17
20.359,34.46
20.375,44.82
20.390,47.65
20.406,43.43
20.421,33.59
20.437,19.99
20.453,4.49
20.468,-11.48
20.484,-26.97
20.500,-41.35
20.515,-54.12
20.531,-64.84
20.546,-73.1
20.562,-78.76
20.578,-82.06
20.593,-83.71
20.609,-84.7
20.625,-85.93
20.640,-88.02
20.656,-91.26
20.671,-95.61
20.687,-100.74
20.703,-106.07
20.718,-110.7
20.734,-113.57
20.750,-113.7
20.765,-110.38
20.781,-103.39
20.796,-92.86
20.812,-79.22
20.828,-62.87
20.843,-44.33
20.859,-24.3
20.875,-3.91
20.890,15.22
20.906,31.44
20.921,43.5
20.937,51.21
20.953,55.54
20.968,58.53
20.984,62.58
21.000,69.87
21.015,81.89
21.031,99.11
21.046,120.92
21.062,145.74
21.078,171.18
21.093,194.37
21.109,212.45
21.125,223.26
21.140,225.92
21.156,220.96
21.171,210.11
21.187,195.52
21.203,178.99
21.218,161.63
21.234,143.97
21.250,126.3
21.265,109.08
21.281,92.9
21.296,78.34
21.312,65.68
21.328,54.9
21.343,45.94
21.359,38.99
21.375,34.5
21.390,33.03
21.406,34.81
21.421,39.48
21.437,46.18
21.453,53.76
21.468,61.19
21.484,67.68
21.500,72.84
21.515,76.5
21.531,78.65
21.546,79.31
21.562,78.47
21.578,76.09
21.593,72.12
21.609,66.5
21.625,59.21
21.640,50.25
21.656,39.65
21.671,27.4
21.687,13.53
21.703,-1.81
21.718,-18.21
21.734,-34.81
21.750,-50.26
21.765,-62.89
21.781,-70.97
21.796,-73.12
21.812,-68.6
21.828,-57.58
21.843,-41.05
21.859,-20.75
21.875,1.2
21.890,22.75
21.906,42.15
21.921,58.35
21.937,70.89
21.953,79.91
21.968,85.93
21.984,89.67
22.000,91.85
22.015,93.23
22.031,94.42
22.046,95.91
22.062,97.93
22.078,100.42
22.093,103.05
22.109,105.37
22.125,106.95
22.140,107.52
22.156,106.99
22.171,105.44
22.187,103.01
22.203,99.85
22.218,95.94
22.234,91.12
22.250,85.11
22.265,77.61
22.281,68.43
22.296,57.72
22.312,46.05
22.328,34.25
22.343,23.19
22.359,13.48
22.375,5.21
22.390,-1.88
22.406,-8.18
22.421,-13.88
22.437,-18.84
22.453,-22.7
22.468,-25.11
22.484,-26.06
22.500,-25.8
22.515,-24.76
22.531,-23.28
22.546,-21.42
22.562,-18.88
22.578,-15.16
22.593,-9.84
22.609,-2.75
22.625,5.89
22.640,15.53
22.656,25.44
22.671,34.82
22.687,42.9
22.703,48.98
22.718,52.56
22.734,53.42
22.750,51.8
22.765,48.45
22.781,44.52
22.796,41.18
22.812,39.22
22.828,38.81
22.843,39.42
22.859,40.08
22.875,39.92
22.890,38.54
22.906,36.1
22.921,33.24
22.937,30.63
22.953,28.65
22.968,27.25
22.984,25.95
23.000,24.13
23.015,21.37
23.031,17.69
23.046,13.6
23.062,10.07
23.078,8.18
23.093,8.83
23.109,12.47
23.125,18.88
23.140,27.16
23.156,35.95
23.171,43.77
23.187,49.43
23.203,52.39
23.218,52.88
23.234,51.76
23.250,50.19
23.265,49.16
23.281,49.22
23.296,50.38
23.312,52.06
23.328,53.44
23.343,53.67
23.359,52.15
23.375,48.69
23.390,43.56
23.406,37.41
23.421,31.07
23.437,25.32
23.453,20.7
23.468,17.35
23.484,15.05
23.500,13.3
23.515,11.49
23.531,9.05
23.546,5.53
23.562,0.66
23.578,-5.59
23.593,-13.08
23.609,-21.48
23.625,-30.27
23.640,-38.88
23.656,-46.7
23.671,-53.24
23.687,-58.17
23.703,-61.32
23.718,-62.65
23.734,-62.15
23.750,-59.76
23.765,-55.38
23.781,-49.09
23.796,-41.17
23.812,-32.2
23.828,-23.03
23.843,-14.59
23.859,-7.7
23.875,-2.97
23.890,-0.65
23.906,-0.58
23.921,-2.18
23.937,-4.43
23.953,-6.13
23.968,-6.18
23.984,-3.88
24.000,0.8
24.015,7.26
24.031,14.5
24.046,21.47
24.062,27.44
24.078,32.14
24.093,35.65
24.109,38.22
24.125,40.05
24.140,41.21
24.156,41.63
24.171,41.26
24.187,40.11
24.203,38.3
24.218,36.0
24.234,33.3
24.250,30.25
24.265,26.9
24.281,23.35
24.296,19.89
24.312,16.96
24.328,15.08
24.343,14.7
24.359,16.05
24.375,19.13
24.390,23.7
24.406,29.31
24.421,35.39
24.437,41.29
24.453,46.36
24.468,49.99
24.484,51.7
24.500,51.15
24.515,48.21
24.531,42.96
24.546,35.7
24.562,26.93
24.578,17.34
24.593,7.73
24.609,-1.21
24.625,-9.03
24.640,-15.69
24.656,-21.45
24.671,-26.72
24.687,-31.79
24.703,-36.61
24.718,-40.82
24.734,-43.9
24.750,-45.51
24.765,-45.64
24.781,-44.7
24.796,-43.39
24.812,-42.43
24.828,-42.36
24.843,-43.4
24.859,-45.42
24.875,-47.95
24.890,-50.39
24.906,-52.04
24.921,-52.33
24.937,-50.91
24.953,-47.7
24.968,-42.88
24.984,-36.82
25.000,-29.96
25.015,-22.68
25.031,-15.24
25.046,-7.78
25.062,-0.31
25.078,7.2
25.093,14.81
25.109,22.61
25.125,30.66
25.140,38.98
25.156,47.59
25.171,56.47
25.187,65.59
25.203,74.87
25.218,84.18
25.234,93.38
25.250,102.37
25.265,111.12
25.281,119.74
25.296,128.43
25.312,137.46
25.328,147.07
25.343,157.36
25.359,168.26
25.375,179.56
25.390,190.91
25.406,202.01
25.421,212.67
25.437,222.95
25.453,233.11
25.468,243.59
25.484,254.79
25.500,266.95
25.515,279.94
25.531,293.21
25.546,305.69
25.562,315.83
25.578,321.71
25.593,321.4
25.609,313.5
25.625,297.57
25.640,274.43
25.656,245.96
25.671,214.55
25.687,182.4
25.703,150.86
25.718,120.25
25.734,90.16
25.750,59.82
25.765,28.67
25.781,-3.31
25.796,-35.49
25.812,-66.73
25.828,-95.72
25.843,-121.5
25.859,-143.88
25.875,-163.62
25.890,-182.33
25.906,-202.03
25.921,-224.46
25.937,-250.61
25.953,-280.2
25.968,-311.63
25.984,-342.24
26.000,-368.84
26.015,-388.51
26.031,-399.18
26.046,-400.04
26.062,-391.56
26.078,-375.17
26.093,-352.84
26.109,-326.6
26.125,-298.33
26.140,-269.74
26.156,-242.16
26.171,-216.51
26.187,-193.06
26.203,-171.56
26.218,-151.52
26.234,-132.58
26.250,-114.79
26.265,-98.54
26.281,-84.25
26.296,-72.03
26.312,-61.42
26.328,-51.59
26.343,-41.64
26.359,-31.05
26.375,-19.82
26.390,-8.38
26.406,2.7
26.421,13.07
26.437,22.74
26.453,32.1
26.468,41.75
26.484,52.26
26.500,64.05
26.515,77.28
26.531,91.9
26.546,107.5
26.562,123.21
26.578,137.63
26.593,149.03
26.609,156.01
26.625,158.25
26.640,156.91
26.656,154.18
26.671,152.26
26.687,152.02
26.703,152.5
26.718,151.49
26.734,146.99
26.750,138.65
26.765,128.39
26.781,119.46
26.796,114.92
26.812,116.26
26.828,123.08
26.843,133.99
26.859,147.82
26.875,164.19
26.890,183.09
26.906,203.6
26.921,223.01
26.937,236.99
26.953,241.03
26.968,232.25
26.984,210.72
27.000,179.47
27.015,143.21
27.031,106.46
27.046,72.14
27.062,41.03
27.078,12.33
27.093,-15.4
27.109,-43.41
27.125,-72.55
27.140,-103.35
27.156,-136.18
27.171,-170.96
27.187,-206.57
27.203,-240.63
27.218,-269.83
27.234,-291.06
27.250,-302.83
27.265,-305.99
27.281,-303.49
27.296,-299.24
27.312,-296.57
27.328,-297.28
27.343,-301.41
27.359,-307.76
27.375,-314.59
27.390,-320.11
27.406,-322.63
27.421,-320.61
27.437,-312.92
27.453,-299.17
27.468,-280.07
27.484,-257.31
27.500,-233.1
27.515,-209.56
27.531,-188.16
27.546,-169.61
27.562,-153.88
27.578,-140.53
27.593,-128.94
27.609,-118.45
27.625,-108.58
27.640,-98.98
27.656,-89.52
27.671,-80.21
27.687,-71.09
27.703,-62.17
27.718,-53.41
27.734,-44.69
27.750,-35.94
27.765,-27.18
27.781,-18.51
27.796,-10.19
27.812,-2.51
27.828,4.25
27.843,9.83
27.859,14.07
27.875,16.95
27.890,18.6
27.906,19.27
27.921,19.27
27.937,18.91
27.953,18.41
27.968,17.94
27.984,17.54
28.000,17.16
28.015,16.66
28.031,15.9
28.046,14.76
28.062,13.2
28.078,11.28
28.093,9.13
28.109,6.9
28.125,4.66
28.140,2.35
28.156,-0.14
28.171,-2.84
28.187,-5.69
28.203,-8.42
28.218,-10.64
28.234,-11.91
28.250,-11.88
28.265,-10.36
28.281,-7.37
28.296,-3.14
28.312,1.88
28.328,7.08
28.343,11.91
28.359,15.93
28.375,18.92
28.390,20.92
28.406,22.12
28.421,22.77
28.437,23.06
28.453,23.13
28.468,23.08
28.484,22.99
28.500,22.95
28.515,22.96
28.531,22.92
28.546,22.59
28.562,21.72
28.578,20.14
28.593,17.89
28.609,15.2
28.625,12.47
28.640,10.02
28.656,8.04
28.671,6.45
28.687,4.97
28.703,3.23
28.718,0.94
28.734,-1.97
28.750,-5.32
28.765,-8.64
28.781,-11.31
28.796,-12.67
28.812,-12.17
28.828,-9.6
28.843,-5.12
28.859,0.76
28.875,7.31
28.890,13.8
28.906,19.62
28.921,24.4
28.937,27.97
28.953,30.3
28.968,31.36
28.984,31.15
29.000,29.73
29.015,27.25
29.031,24.04
29.046,20.46
29.062,16.92
29.078,13.69
29.093,10.91
29.109,8.61
29.125,6.73
29.140,5.18
29.156,3.84
29.171,2.61
29.187,1.38
29.203,0.06
29.218,-1.47
29.234,-3.34
29.250,-5.67
29.265,-8.52
29.281,-11.76
29.296,-15.06
29.312,-17.79
29.328,-19.26
29.343,-18.84
29.359,-16.22
29.375,-11.52
29.390,-5.24
29.406,1.84
29.421,8.96
29.437,15.4
29.453,20.63
29.468,24.27
29.484,26.06
29.500,25.91
29.515,23.9
29.531,20.34
29.546,15.77
29.562,10.85
29.578,6.27
29.593,2.57
29.609,0.08
29.625,-1.14
29.640,-1.29
29.656,-0.76
29.671,0.01
29.687,0.64
29.703,1.01
29.718,1.19
29.734,1.33
29.750,1.57
29.765,1.86
29.781,2.02
29.796,1.77
29.812,0.86
29.828,-0.84
29.843,-3.25
29.859,-6.05
29.875,-8.72
29.890,-10.6
29.906,-11.01
29.921,-9.44
29.937,-5.72
29.953,-0.12
29.968,6.75
29.984,14.13
30.000,21.27
30.015,27.67
30.031,33.02
30.046,37.14
30.062,39.92
30.078,41.34
30.093,41.44
30.109,40.46
30.125,38.77
30.140,36.83
30.156,35.02
30.171,33.59
30.187,32.53
30.203,31.69
30.218,30.88
30.234,29.91
30.250,28.71
30.265,27.29
30.281,25.67
30.296,23.9
30.312,21.98
30.328,19.9
30.343,17.69
30.359,15.45
30.375,13.27
30.390,11.26
30.406,9.41
30.421,7.6
30.437,5.78
30.453,4.04
30.468,2.72
30.484,2.38
30.500,3.53
30.515,6.42
30.531,10.85
30.546,16.19
30.562,21.62
30.578,26.4
30.593,30.02
30.609,32.23
30.625,32.92
30.640,32.1
30.656,29.76
30.671,26.1
30.687,21.51
30.703,16.55
30.718,11.91
30.734,8.13
30.750,5.49
30.765,3.97
30.781,3.32
30.796,3.17
30.812,3.12
30.828,2.88
30.843,2.21
30.859,1.08
30.875,-0.45
30.890,-2.16
30.906,-3.79
30.921,-5.13
30.937,-6.09
30.953,-6.76
30.968,-7.36
30.984,-8.16
31.000,-9.34
31.015,-10.93
31.031,-12.64
31.046,-14.01
31.062,-14.41
31.078,-13.28
31.093,-10.26
31.109,-5.32
31.125,1.2
31.140,8.62
31.156,16.12
31.171,22.86
31.187,28.22
31.203,31.81
31.218,33.58
31.234,33.63
31.250,32.24
31.265,29.71
31.281,26.41
31.296,22.73
31.312,19.08
31.328,15.85
31.343,13.29
31.359,11.46
31.375,10.19
31.390,9.24
31.406,8.3
31.421,7.2
31.437,5.89
31.453,4.42
31.468,2.88
31.484,1.36
31.500,-0.1
31.515,-1.56
31.531,-3.02
31.546,-4.53
31.562,-6.12
31.578,-7.85
31.593,-9.81
31.609,-12.07
31.625,-14.52
31.640,-16.86
31.656,-18.54
31.671,-18.91
31.687,-17.38
31.703,-13.76
31.718,-8.26
31.734,-1.53
31.750,5.5
31.765,11.94
31.781,17.06
31.796,20.48
31.812,22.16
31.828,22.28
31.843,21.2
31.859,19.29
31.875,16.87
31.890,14.22
31.906,11.57
31.921,9.15
31.937,7.11
31.953,5.63
31.968,4.75
31.984,4.41
32.000,4.38
32.015,4.39
32.031,4.17
32.046,3.58
32.062,2.65
32.078,1.51
32.093,0.36
32.109,-0.69
32.125,-1.64
32.140,-2.61
32.156,-3.77
32.171,-5.24
32.187,-7.1
32.203,-9.26
32.218,-11.58
32.234,-13.78
32.250,-15.49
32.265,-16.27
32.281,-15.62
32.296,-13.2
32.312,-8.95
32.328,-3.21
32.343,3.32
32.359,9.73
32.375,15.19
32.390,19.1
32.406,21.23
32.421,21.71
32.437,20.85
32.453,19.04
32.468,16.62
32.484,13.89
32.500,11.09
32.515,8.49
32.531,6.33
32.546,4.75
32.562,3.77
32.578,3.17
32.593,2.61
32.609,1.71
32.625,0.26
32.640,-1.77
32.656,-4.11
32.671,-6.42
32.687,-8.4
32.703,-9.9
32.718,-11.02
32.734,-11.95
32.750,-12.93
32.765,-14.15
32.781,-15.74
32.796,-17.78
32.812,-20.25
32.828,-23.02
32.843,-25.72
32.859,-27.79
32.875,-28.53
32.890,-27.36
32.906,-23.99
32.921,-18.61
32.937,-11.84
32.953,-4.58
32.968,2.26
32.984,7.97
33.000,12.11
33.015,14.59
33.031,15.53
33.046,15.24
33.062,14.09
33.078,12.44
33.093,10.61
33.109,8.84
33.125,7.35
33.140,6.29
33.156,5.78
33.171,5.85
33.187,6.44
33.203,7.42
33.218,8.57
33.234,9.71
33.250,10.67
33.265,11.39
33.281,11.85
33.296,12.09
33.312,12.18
33.328,12.18
33.343,12.21
33.359,12.41
33.375,12.83
33.390,13.43
33.406,13.99
33.421,14.2
33.437,13.8
33.453,12.81
33.468,11.55
33.484,10.62
33.500,10.68
33.515,12.28
33.531,15.67
33.546,20.79
33.562,27.35
33.578,34.94
33.593,43.14
33.609,51.51
33.625,59.66
33.640,67.25
33.656,74.05
33.671,79.98
33.687,85.11
33.703,89.65
33.718,93.95
33.734,98.41
33.750,103.4
33.765,109.0
33.781,114.84
33.796,120.03
33.812,123.27
33.828,123.22
33.843,118.95
33.859,110.18
33.875,97.34
33.890,81.42
33.906,63.69
33.921,45.36
33.937,27.46
33.953,10.8
33.968,-3.97
33.984,-16.31
34.000,-25.81
34.015,-32.17
34.031,-35.4
34.046,-35.86
34.062,-34.32
34.078,-31.89
34.093,-29.77
34.109,-28.94
34.125,-29.92
34.140,-32.67
34.156,-36.72
34.171,-41.46
34.187,-46.2
34.203,-50.34
34.218,-53.43
34.234,-55.27
34.250,-56.18
34.265,-57.13
34.281,-59.56
34.296,-64.96
34.312,-74.07
34.328,-86.48
34.343,-100.57
34.359,-114.06
34.375,-124.91
34.390,-132.02
34.406,-135.4
34.421,-135.95
34.437,-134.73
34.453,-132.49
34.468,-129.45
34.484,-125.5
34.500,-120.56
34.515,-114.76
34.531,-108.54
34.546,-102.33
34.562,-96.39
34.578,-90.73
34.593,-85.19
34.609,-79.67
34.625,-74.26
34.640,-69.36
34.656,-65.44
34.671,-62.87
34.687,-61.62
34.703,-61.22
34.718,-60.82
34.734,-59.45
34.750,-56.36
34.765,-51.26
34.781,-44.36
34.796,-36.31
34.812,-27.93
34.828,-19.91
34.843,-12.68
34.859,-6.4
34.875,-1.07
34.890,3.33
34.906,6.77
34.921,9.21
34.937,10.67
34.953,11.3
34.968,11.32
34.984,11.02
35.000,10.65
35.015,10.45
35.031,10.51
35.046,10.92
35.062,11.62
35.078,12.47
35.093,13.2
35.109,13.55
35.125,13.32
35.140,12.52
35.156,11.29
35.171,9.85
35.187,8.39
35.203,7.02
35.218,5.76
35.234,4.52
35.250,3.21
35.265,1.67
35.281,-0.19
35.296,-2.39
35.312,-4.83
35.328,-7.17
35.343,-8.93
35.359,-9.55
35.375,-8.61
35.390,-5.99
35.406,-1.9
35.421,3.18
35.437,8.67
35.453,14.01
35.468,18.79
35.484,22.73
35.500,25.6
35.515,27.25
35.531,27.63
35.546,26.84
35.562,25.19
35.578,23.07
35.593,20.91
35.609,18.99
35.625,17.45
35.640,16.23
35.656,15.25
35.671,14.41
35.687,13.67
35.703,12.98
35.718,12.29
35.734,11.48
35.750,10.42
35.765,8.96
35.781,7.08
35.796,4.88
35.812,2.59
35.828,0.41
35.843,-1.52
35.859,-3.19
35.875,-4.79
35.890,-6.57
35.906,-8.71
35.921,-11.23
35.937,-13.88
35.953,-16.14
35.968,-17.34
35.984,-16.83
36.000,-14.07
36.015,-8.94
36.031,-1.73
36.046,6.76
36.062,15.38
36.078,22.84
36.093,28.1
36.109,30.66
36.125,30.73
36.140,29.13
36.156,26.99
36.171,25.45
36.187,25.28
36.203,26.85
36.218,30.13
36.234,34.83
36.250,40.63
36.265,47.2
36.281,54.24
36.296,61.46
36.312,68.56
36.328,75.28
36.343,81.42
36.359,86.83
36.375,91.4
36.390,95.01
36.406,97.6
36.421,99.23
36.437,100.17
36.453,100.89
36.468,101.85
36.484,103.3
36.500,104.99
36.515,106.14
36.531,105.69
36.546,102.57
36.562,96.11
36.578,86.29
36.593,73.86
36.609,60.17
36.625,46.97
36.640,35.87
36.656,28.02
36.671,23.68
36.687,22.26
36.703,22.51
36.718,23.02
36.734,22.7
36.750,20.98
36.765,17.79
36.781,13.3
36.796,7.73
36.812,1.29
36.828,-5.75
36.843,-12.94
36.859,-19.74
36.875,-25.77
36.890,-31.01
36.906,-35.82
36.921,-40.73
36.937,-46.07
36.953,-51.67
36.968,-56.88
36.984,-60.91
37.000,-63.26
37.015,-64.1
37.031,-64.31
37.046,-65.13
37.062,-67.62
37.078,-72.24
37.093,-78.67
37.109,-85.92
37.125,-92.82
37.140,-98.46
37.156,-102.57
37.171,-105.46
37.187,-107.78
37.203,-110.02
37.218,-112.21
37.234,-113.79
37.250,-113.73
37.265,-110.85
37.281,-104.21
37.296,-93.55
37.312,-79.62
37.328,-64.22
37.343,-49.88
37.359,-39.17
37.375,-33.78
37.390,-33.65
37.406,-36.64
37.421,-38.89
37.437,-35.92
37.453,-24.18
37.468,-2.28
37.484,28.47
37.500,64.59
37.515,101.58
37.531,135.27
37.546,162.74
37.562,182.46
37.578,193.83
37.593,196.53
37.609,190.17
37.625,174.42
37.640,149.62
37.656,117.3
37.671,80.21
37.687,41.74
37.703,5.05
37.718,-27.51
37.734,-54.65
37.750,-75.73
37.765,-90.4
37.781,-98.35
37.796,-99.54
37.812,-94.54
37.828,-84.76
37.843,-72.19
37.859,-58.85
37.875,-46.16
37.890,-34.45
37.906,-23.1
37.921,-10.97
37.937,3.04
37.953,19.52
37.968,38.39
37.984,58.99
38.000,80.34
38.015,101.4
38.031,121.24
38.046,139.16
38.062,154.6
38.078,167.12
38.093,176.34
38.109,182.08
38.125,184.47
38.140,183.84
38.156,180.42
38.171,173.89
38.187,163.26
38.203,147.2
38.218,124.89
38.234,96.77
38.250,64.85
38.265,32.38
38.281,2.92
38.296,-20.61
38.312,-36.6
38.328,-44.71
38.343,-45.55
38.359,-40.14
38.375,-29.76
38.390,-15.94
38.406,-0.57
38.421,14.37
38.437,27.37
38.453,37.93
38.468,46.89
38.484,56.05
38.500,67.3
38.515,81.82
38.531,99.49
38.546,119.09
38.562,138.67
38.578,156.45
38.593,170.99
38.609,181.37
38.625,186.95
38.640,187.22
38.656,181.97
38.671,171.5
38.687,156.98
38.703,140.31
38.718,123.72
38.734,109.04
38.750,97.07
38.765,87.28
38.781,78.02
38.796,67.04
38.812,52.36
38.828,32.91
38.843,8.94
38.859,-18.01
38.875,-45.59
38.890,-71.36
38.906,-93.27
38.921,-110.16
38.937,-121.82
38.953,-128.83
38.968,-132.38
38.984,-133.98
39.000,-135.12
39.015,-136.94
39.031,-140.01
39.046,-144.09
39.062,-148.31
39.078,-151.5
39.093,-152.64
39.109,-151.23
39.125,-147.37
39.140,-141.67
39.156,-134.83
39.171,-127.49
39.187,-120.03
39.203,-112.75
39.218,-105.96
39.234,-99.97
39.250,-95.04
39.265,-91.19
39.281,-88.3
39.296,-86.19
39.312,-84.95
39.328,-85.02
39.343,-87.18
39.359,-92.29
39.375,-100.96
39.390,-113.4
39.406,-129.16
39.421,-147.21
39.437,-165.79
39.453,-182.55
39.468,-194.72
39.484,-199.77
39.500,-196.07
39.515,-183.55
39.531,-163.98
39.546,-140.45
39.562,-116.57
39.578,-95.58
39.593,-79.68
39.609,-69.79
39.625,-65.88
39.640,-67.16
39.656,-72.5
39.671,-80.6
39.687,-90.0
39.703,-99.22
39.718,-106.88
39.734,-111.94
39.750,-114.05
39.765,-113.58
39.781,-111.5
39.796,-108.86
39.812,-106.28
39.828,-103.57
39.843,-99.93
39.859,-94.43
39.875,-86.59
39.890,-76.76
39.906,-66.03
39.921,-55.79
39.937,-47.23
39.953,-41.07
39.968,-37.43
39.984,-36.1
40.000,-36.69
40.015,-38.68
40.031,-41.52
40.046,-44.65
40.062,-47.7
40.078,-50.5
40.093,-53.23
40.109,-56.22
40.125,-59.76
40.140,-63.97
40.156,-68.74
40.171,-73.69
40.187,-78.22
40.203,-81.64
40.218,-83.13
40.234,-82.04
40.250,-78.09
40.265,-71.42
40.281,-62.6
40.296,-52.47
40.312,-41.88
40.328,-31.44
40.343,-21.52
40.359,-12.36
40.375,-4.1
40.390,3.1
40.406,9.22
40.421,14.4
40.437,18.84
40.453,22.65
40.468,25.56
40.484,26.81
40.500,25.45
40.515,20.83
40.531,13.1
40.546,3.41
40.562,-6.3
40.578,-13.94
40.593,-17.91
40.609,-17.49
40.625,-12.96
40.640,-5.26
40.656,4.31
40.671,14.4
40.687,23.79
40.703,31.57
40.718,37.16
40.734,40.52
40.750,42.2
40.765,43.23
40.781,45.0
40.796,48.73
40.812,55.17
40.828,64.32
40.843,75.41
40.859,87.18
40.875,98.21
40.890,107.47
40.906,114.43
40.921,119.13
40.937,121.91
40.953,123.13
40.968,123.03
40.984,121.7
41.000,119.33
41.015,116.33
41.031,113.4
41.046,111.3
41.062,110.75
41.078,112.03
41.093,114.94
41.109,118.88
41.125,123.1
41.140,127.19
41.156,131.34
41.171,136.32
41.187,142.91
41.203,151.34
41.218,160.67
41.234,168.91
41.250,173.6
41.265,172.73
41.281,165.52
41.296,152.54
41.312,135.37
41.328,115.95
41.343,96.15
41.359,77.54
41.375,61.05
41.390,46.57
41.406,32.44
41.421,15.52
41.437,-7.99
41.453,-40.78
41.468,-82.73
41.484,-130.09
41.500,-176.28
41.515,-214.17
41.531,-238.64
41.546,-248.26
41.562,-245.23
41.578,-233.9
41.593,-218.71
41.609,-202.63
41.625,-186.88
41.640,-171.55
41.656,-156.58
41.671,-142.3
41.687,-129.4
41.703,-118.4
41.718,-109.22
41.734,-101.04
41.750,-92.7
41.765,-83.41
41.781,-73.16
41.796,-62.86
41.812,-53.82
41.828,-47.14
41.843,-43.07
41.859,-40.92
41.875,-39.4
41.890,-37.26
41.906,-33.79
41.921,-29.04
41.937,-23.55
41.953,-17.86
41.968,-12.02
41.984,-5.51
42.000,2.5
42.015,12.66
42.031,24.96
42.046,38.58
42.062,52.09
42.078,63.92
42.093,72.73
42.109,77.66
42.125,78.36
42.140,74.82
42.156,67.36
42.171,56.78
42.187,44.42
42.203,32.15
42.218,22.0
42.234,15.57
42.250,13.42
42.265,14.94
42.281,18.58
42.296,22.56
42.312,25.57
42.328,27.13
42.343,27.45
42.359,27.12
42.375,26.67
42.390,26.46
42.406,26.7
42.421,27.61
42.437,29.43
42.453,32.26
42.468,36.0
42.484,40.27
42.500,44.66
42.515,48.96
42.531,53.41
42.546,58.67
42.562,65.47
42.578,74.33
42.593,85.24
42.609,97.46
42.625,109.53
42.640,119.66
42.656,126.2
42.671,128.17
42.687,125.61
42.703,119.45
42.718,111.09
42.734,101.75
42.750,92.06
42.765,82.03
42.781,71.45
42.796,60.33
42.812,49.2
42.828,39.0
42.843,30.65
42.859,24.62
42.875,20.72
42.890,18.15
42.906,15.85
42.921,12.8
42.937,8.3
42.953,1.93
42.968,-6.36
42.984,-16.41
43.000,-27.91
43.015,-40.41
43.031,-53.31
43.046,-65.73
43.062,-76.67
43.078,-85.19
43.093,-90.72
43.109,-93.31
43.125,-93.58
43.140,-92.46
43.156,-90.85
43.171,-89.32
43.187,-88.05
43.203,-86.99
43.218,-86.06
43.234,-85.25
43.250,-84.64
43.265,-84.28
43.281,-84.2
43.296,-84.34
43.312,-84.73
43.328,-85.42
43.343,-86.42
43.359,-87.6
43.375,-88.61
43.390,-89.06
43.406,-88.66
43.421,-87.39
43.437,-85.28
43.453,-82.34
43.468,-78.42
43.484,-73.25
43.500,-66.72
43.515,-59.09
43.531,-51.04
43.546,-43.44
43.562,-37.01
43.578,-31.96
43.593,-28.06
43.609,-24.72
43.625,-21.47
43.640,-18.17
43.656,-15.06
43.671,-12.57
43.687,-11.14
43.703,-11.01
43.718,-12.06
43.734,-13.91
43.750,-15.88
43.765,-17.16
43.781,-16.99
43.796,-14.76
43.812,-10.18
43.828,-3.28
43.843,5.53
43.859,15.64
43.875,26.18
43.890,36.28
43.906,45.14
43.921,52.14
43.937,56.98
43.953,59.76
43.968,60.87
43.984,60.87
44.000,60.4
44.015,59.99
44.031,60.04
44.046,60.75
44.062,62.15
44.078,64.01
44.093,65.78
44.109,66.68
44.125,65.86
44.140,62.68
44.156,56.95
44.171,49.07
44.187,39.94
44.203,30.71
44.218,22.49
44.234,15.97
44.250,11.3
44.265,8.12
44.281,5.65
44.296,3.0
44.312,-0.5
44.328,-5.08
44.343,-10.41
44.359,-15.7
44.375,-19.87
44.390,-22.02
44.406,-21.6
44.421,-18.56
44.437,-13.3
44.453,-6.42
44.468,1.43
44.484,9.71
44.500,17.92
44.515,25.58
44.531,32.17
44.546,37.15
44.562,40.19
44.578,41.36
44.593,41.18
44.609,40.52
44.625,40.34
44.640,41.36
44.656,43.8
44.671,47.25
44.687,50.73
44.703,52.99
44.718,52.88
44.734,49.75
44.750,43.64
44.765,35.32
44.781,25.96
44.796,16.8
44.812,8.7
44.828,1.89
44.843,-3.93
44.859,-9.33
44.875,-14.62
44.890,-19.55
44.906,-23.18
44.921,-24.15
44.937,-21.08
44.953,-13.21
44.968,-0.85
44.984,14.53
45.000,30.44
45.015,44.05
45.031,53.0
45.046,56.03
45.062,53.33
45.078,46.3
45.093,36.97
45.109,27.33
45.125,18.83
45.140,12.24
45.156,7.83
45.171,5.6
45.187,5.53
45.203,7.43
45.218,10.91
45.234,15.22
45.250,19.39
45.265,22.54
45.281,24.12
45.296,24.15
45.312,23.14
45.328,21.82
45.343,20.83
45.359,20.44
45.375,20.48
45.390,20.45
45.406,19.8
45.421,18.12
45.437,15.3
45.453,11.55
45.468,7.28
45.484,3.05
45.500,-0.54
45.515,-2.97
45.531,-3.83
45.546,-2.96
45.562,-0.45
45.578,3.4
45.593,8.12
45.609,13.24
45.625,18.32
45.640,23.04
45.656,27.13
45.671,30.36
45.687,32.58
45.703,33.77
45.718,34.0
45.734,33.54
45.750,32.75
45.765,32.05
45.781,31.75
45.796,31.97
45.812,32.6
45.828,33.32
45.843,33.7
45.859,33.37
45.875,32.13
45.890,30.09
45.906,27.51
45.921,24.77
45.937,22.16
45.953,19.72
45.968,17.29
45.984,14.56
46.000,11.25
46.015,7.3
46.031,2.93
46.046,-1.37
46.062,-4.93
46.078,-7.12
46.093,-7.48
46.109,-5.82
46.125,-2.3
46.140,2.65
46.156,8.36
46.171,14.13
46.187,19.25
46.203,23.21
46.218,25.74
46.234,26.79
46.250,26.53
46.265,25.28
46.281,23.35
46.296,21.09
46.312,18.81
46.328,16.77
46.343,15.12
46.359,13.87
46.375,12.94
46.390,12.21
46.406,11.58
46.421,10.99
46.437,10.48
46.453,10.03
46.468,9.59
46.484,8.99
46.500,8.09
46.515,6.76
46.531,4.96
46.546,2.74
46.562,0.18
46.578,-2.55
46.593,-5.24
46.609,-7.56
46.625,-9.11
46.640,-9.48
46.656,-8.41
46.671,-5.86
46.687,-2.06
46.703,2.55
46.718,7.44
46.734,12.1
46.750,16.1
46.765,19.14
46.781,21.06
46.796,21.8
46.812,21.4
46.828,20.02
46.843,17.9
46.859,15.39
46.875,12.86
46.890,10.65
46.906,8.95
46.921,7.84
46.937,7.24
46.953,6.94
46.968,6.72
46.984,6.35
47.000,5.68
47.015,4.66
47.031,3.26
47.046,1.47
47.062,-0.69
47.078,-3.19
47.093,-5.95
47.109,-8.81
47.125,-11.58
47.140,-14.08
47.156,-16.17
47.171,-17.76
47.187,-18.7
47.203,-18.79
47.218,-17.73
47.234,-15.29
47.250,-11.36
47.265,-6.18
47.281,-0.26
47.296,5.66
47.312,10.89
47.328,14.93
47.343,17.6
47.359,18.94
47.375,19.19
47.390,18.6
47.406,17.43
47.421,15.89
47.437,14.25
47.453,12.74
47.468,11.58
47.484,10.84
47.500,10.39
47.515,9.97
47.531,9.28
47.546,8.11
47.562,6.46
47.578,4.46
47.593,2.39
47.609,0.42
47.625,-1.35
47.640,-2.93
47.656,-4.42
47.671,-5.91
47.687,-7.45
47.703,-9.06
47.718,-10.7
47.734,-12.29
47.750,-13.67
47.765,-14.56
47.781,-14.62
47.796,-13.56
47.812,-11.25
47.828,-7.77
47.843,-3.46
47.859,1.15
47.875,5.48
47.890,9.04
47.906,11.52
47.921,12.8
47.937,12.97
47.953,12.26
47.968,10.93
47.984,9.34
48.000,7.81
48.015,6.58
48.031,5.77
48.046,5.33
48.062,5.11
48.078,4.92
48.093,4.62
48.109,4.17
48.125,3.63
48.140,3.12
48.156,2.73
48.171,2.45
48.187,2.21
48.203,1.9
48.218,1.41
48.234,0.66
48.250,-0.39
48.265,-1.76
48.281,-3.44
48.296,-5.38
48.312,-7.49
48.328,-9.58
48.343,-11.39
48.359,-12.6
48.375,-12.95
48.390,-12.24
48.406,-10.42
48.421,-7.6
48.437,-4.05
48.453,-0.14
48.468,3.72
48.484,7.15
48.500,9.9
48.515,11.81
48.531,12.84
48.546,13.06
48.562,12.61
48.578,11.66
48.593,10.4
48.609,8.98
48.625,7.46
48.640,5.87
48.656,4.21
48.671,2.55
48.687,0.99
48.703,-0.33
48.718,-1.29
48.734,-1.91
48.750,-2.33
48.765,-2.7
48.781,-3.19
48.796,-3.83
48.812,-4.59
48.828,-5.38
48.843,-6.15
48.859,-6.83
48.875,-7.43
48.890,-7.95
48.906,-8.43
48.921,-8.94
48.937,-9.61
48.953,-10.57
48.968,-11.85
48.984,-13.33
49.000,-14.71
49.015,-15.58
49.031,-15.56
49.046,-14.43
49.062,-12.24
49.078,-9.27
49.093,-5.94
49.109,-2.68
49.125,0.17
49.140,2.42
49.156,4.02
49.171,4.99
49.187,5.43
49.203,5.46
49.218,5.21
49.234,4.79
49.250,4.31
49.265,3.86
49.281,3.5
49.296,3.24
49.312,3.11
49.328,3.09
49.343,3.13
49.359,3.22
49.375,3.26
49.390,3.22
49.406,3.04
49.421,2.72
49.437,2.25
49.453,1.69
49.468,1.08
49.484,0.44
49.500,-0.19
49.515,-0.86
49.531,-1.63
49.546,-2.45
49.562,-3.26
49.578,-3.9
49.593,-4.2
49.609,-4.1
49.625,-3.69
49.640,-3.12
49.656,-2.59
49.671,-2.2
49.687,-1.94
49.703,-1.8
49.718,-1.7
49.734,-1.67
49.750,-1.75
49.765,-2.03
49.781,-2.5
49.796,-3.08
49.812,-3.6
49.828,-3.95
49.843,-4.08
49.859,-4.1
49.875,-4.18
49.890,-4.49
49.906,-5.1
49.921,-5.92
49.937,-6.79
49.953,-7.5
49.968,-7.92
49.984,-8.03
50.000,-7.94
50.015,-7.75
50.031,-7.61
50.046,-7.58
50.062,-7.73
50.078,-8.09
50.093,-8.67
50.109,-9.43
50.125,-10.3
50.140,-11.16
50.156,-11.87
50.171,-12.36
50.187,-12.61
50.203,-12.72
50.218,-12.86
50.234,-13.18
50.250,-13.75
50.265,-14.54
50.281,-15.41
50.296,-16.13
50.312,-16.48
50.328,-16.2
50.343,-15.11
50.359,-13.08
50.375,-10.16
50.390,-6.54
50.406,-2.65
50.421,1.05
50.437,4.15
50.453,6.41
50.468,7.83
50.484,8.57
50.500,8.83
50.515,8.77
50.531,8.47
50.546,7.96
50.562,7.33
50.578,6.72
50.593,6.26
50.609,6.03
50.625,5.97
50.640,5.94
50.656,5.78
50.671,5.42
50.687,4.9
50.703,4.34
50.718,3.87
50.734,3.56
50.750,3.34
50.765,3.15
50.781,2.86
50.796,2.42
50.812,1.81
50.828,1.09
50.843,0.31
50.859,-0.54
50.875,-1.52
50.890,-2.71
50.906,-4.16
50.921,-5.79
50.937,-7.36
50.953,-8.51
50.968,-8.87
50.984,-8.26
51.000,-6.76
51.015,-4.7
51.031,-2.49
51.046,-0.52
51.062,1.0
51.078,2.09
51.093,2.83
51.109,3.33
51.125,3.62
51.140,3.6
51.156,3.21
51.171,2.41
51.187,1.28
51.203,-0.03
51.218,-1.31
51.234,-2.37
51.250,-3.12
51.265,-3.53
51.281,-3.7
51.296,-3.73
51.312,-3.76
51.328,-3.88
51.343,-4.13
51.359,-4.53
51.375,-5.11
51.390,-5.84
51.406,-6.71
51.421,-7.63
51.437,-8.55
51.453,-9.43
51.468,-10.29
51.484,-11.23
51.500,-12.35
51.515,-13.69
51.531,-15.11
51.546,-16.33
51.562,-16.93
51.578,-16.6
51.593,-15.17
51.609,-12.78
51.625,-9.8
51.640,-6.73
51.656,-4.01
51.671,-1.9
51.687,-0.43
51.703,0.54
51.718,1.24
51.734,1.8
51.750,2.23
51.765,2.47
51.781,2.43
51.796,2.12
51.812,1.66
51.828,1.21
51.843,0.92
51.859,0.83
51.875,0.87
51.890,0.93
51.906,0.89
51.921,0.73
51.937,0.5
51.953,0.27
51.968,0.03
51.984,-0.31
52.000,-0.88
52.015,-1.84
52.031,-3.24
52.046,-5.0
52.062,-6.93
52.078,-8.83
52.093,-10.52
52.109,-11.91
52.125,-12.98
52.140,-13.7
52.156,-14.0
52.171,-13.73
52.187,-12.76
52.203,-11.03
52.218,-8.62
52.234,-5.78
52.250,-2.81
52.265,-0.07
52.281,2.2
52.296,3.87
52.312,4.97
52.328,5.57
52.343,5.75
52.359,5.57
52.375,5.1
52.390,4.41
52.406,3.6
52.421,2.83
52.437,2.22
52.453,1.81
52.468,1.59
52.484,1.44
52.500,1.25
52.515,0.95
52.531,0.51
52.546,0.01
52.562,-0.52
52.578,-1.01
52.593,-1.51
52.609,-2.03
52.625,-2.63
52.640,-3.33
52.656,-4.08
52.671,-4.84
52.687,-5.58
52.703,-6.3
52.718,-7.06
52.734,-7.92
52.750,-8.85
52.765,-9.71
52.781,-10.29
52.796,-10.28
52.812,-9.46
52.828,-7.77
52.843,-5.33
52.859,-2.44
52.875,0.46
52.890,2.98
52.906,4.84
52.921,5.91
52.937,6.3
52.953,6.21
52.968,5.87
52.984,5.45
53.000,5.04
53.015,4.68
53.031,4.37
53.046,4.17
53.062,4.11
53.078,4.24
53.093,4.52
53.109,4.82
53.125,4.98
53.140,4.86
53.156,4.42
53.171,3.71
53.187,2.9
53.203,2.14
53.218,1.55
53.234,1.08
53.250,0.62
53.265,-0.01
53.281,-0.93
53.296,-2.16
53.312,-3.61
53.328,-5.12
53.343,-6.53
53.359,-7.63
53.375,-8.3
53.390,-8.41
53.406,-7.86
53.421,-6.55
53.437,-4.46
53.453,-1.69
53.468,1.46
53.484,4.57
53.500,7.16
53.515,8.88
53.531,9.62
53.546,9.51
53.562,8.87
53.578,8.04
53.593,7.27
53.609,6.65
53.625,6.17
53.640,5.78
53.656,5.49
53.671,5.28
53.687,5.16
53.703,5.12
53.718,5.11
53.734,5.09
53.750,5.0
53.765,4.8
53.781,4.49
53.796,4.09
53.812,3.66
53.828,3.29
53.843,3.09
53.859,3.12
53.875,3.3
53.890,3.45
53.906,3.3
53.921,2.63
53.937,1.34
53.953,-0.5
53.968,-2.68
53.984,-4.87
54.000,-6.78
54.015,-8.14
54.031,-8.79
54.046,-8.64
54.062,-7.72
54.078,-6.15
54.093,-4.13
54.109,-1.94
54.125,0.16
54.140,1.97
54.156,3.42
54.171,4.47
54.187,5.18
54.203,5.6
54.218,5.72
54.234,5.56
54.250,5.13
54.265,4.5
54.281,3.75
54.296,3.01
54.312,2.38
54.328,1.91
54.343,1.62
54.359,1.48
54.375,1.4
54.390,1.27
54.406,0.96
54.421,0.37
54.437,-0.51
54.453,-1.63
54.468,-2.9
54.484,-4.24
54.500,-5.57
54.515,-6.8
54.531,-7.87
54.546,-8.7
54.562,-9.27
54.578,-9.67
54.593,-10.08
54.609,-10.73
54.625,-11.79
54.640,-13.24
54.656,-14.76
54.671,-15.94
54.687,-16.29
54.703,-15.51
54.718,-13.54
54.734,-10.59
54.750,-7.06
54.765,-3.39
54.781,-0.02
54.796,2.82
54.812,4.97
54.828,6.46
54.843,7.4
54.859,7.9
54.875,8.12
54.890,8.17
54.906,8.15
54.921,8.07
54.937,7.96
54.953,7.77
54.968,7.47
54.984,7.03
55.000,6.46
55.015,5.8
55.031,5.14
55.046,4.54
55.062,4.01
55.078,3.52
55.093,2.99
55.109,2.29
55.125,1.36
55.140,0.2
55.156,-1.09
55.171,-2.36
55.187,-3.46
55.203,-4.3
55.218,-4.89
55.234,-5.36
55.250,-5.84
55.265,-6.42
55.281,-7.2
55.296,-8.17
55.312,-9.37
55.328,-10.83
55.343,-12.46
55.359,-14.02
55.375,-15.12
55.390,-15.33
55.406,-14.33
55.421,-12.15
55.437,-9.15
55.453,-5.89
55.468,-2.95
55.484,-0.65
55.500,0.99
55.515,2.16
55.531,3.12
55.546,3.98
55.562,4.7
55.578,5.17
55.593,5.3
55.609,5.15
55.625,4.87
55.640,4.65
55.656,4.54
55.671,4.5
55.687,4.4
55.703,4.12
55.718,3.67
55.734,3.15
55.750,2.72
55.765,2.44
55.781,2.28
55.796,2.1
55.812,1.7
55.828,0.99
55.843,-0.04
55.859,-1.25
55.875,-2.46
55.890,-3.52
55.906,-4.34
55.921,-4.92
55.937,-5.28
55.953,-5.52
55.968,-5.71
55.984,-5.99
56.000,-6.45
56.015,-7.15
56.031,-8.01
56.046,-8.84
56.062,-9.37
56.078,-9.33
56.093,-8.54
56.109,-6.95
56.125,-4.74
56.140,-2.15
56.156,0.51
56.171,3.03
56.187,5.31
56.203,7.29
56.218,8.99
56.234,10.39
56.250,11.47
56.265,12.16
56.281,12.44
56.296,12.35
56.312,12.01
56.328,11.59
56.343,11.25
56.359,11.1
56.375,11.18
56.390,11.47
56.406,11.88
56.421,12.29
56.437,12.59
56.453,12.71
56.468,12.65
56.484,12.46
56.500,12.25
56.515,12.08
56.531,11.95
56.546,11.8
56.562,11.59
56.578,11.28
56.593,10.9
56.609,10.55
56.625,10.28
56.640,10.16
56.656,10.17
56.671,10.29
56.687,10.44
56.703,10.5
56.718,10.27
56.734,9.52
56.750,8.13
56.765,6.16
56.781,3.91
56.796,1.86
56.812,0.38
56.828,-0.45
56.843,-0.91
56.859,-1.52
56.875,-2.8
56.890,-4.97
56.906,-7.91
56.921,-11.21
56.937,-14.37
56.953,-16.97
56.968,-18.77
56.984,-19.65
57.000,-19.58
57.015,-18.62
57.031,-16.89
57.046,-14.59
57.062,-12.01
57.078,-9.41
57.093,-7.03
57.109,-4.99
57.125,-3.29
57.140,-1.83
57.156,-0.5
57.171,0.85
57.187,2.32
57.203,3.98
57.218,5.83
57.234,7.82
57.250,9.85
57.265,11.84
57.281,13.68
57.296,15.33
57.312,16.82
57.328,18.22
57.343,19.65
57.359,21.18
57.375,22.81
57.390,24.45
57.406,25.97
57.421,27.31
57.437,28.49
57.453,29.67
57.468,31.02
57.484,32.66
57.500,34.63
57.515,36.78
57.531,38.92
57.546,40.74
57.562,41.95
57.578,42.29
57.593,41.57
57.609,39.68
57.625,36.6
57.640,32.46
57.656,27.39
57.671,21.58
57.687,15.22
57.703,8.47
57.718,1.44
57.734,-5.9
57.750,-13.64
57.765,-21.87
57.781,-30.52
57.796,-39.22
57.812,-47.31
57.828,-54.04
57.843,-58.87
57.859,-61.7
57.875,-63.02
57.890,-63.58
57.906,-64.09
57.921,-64.85
57.937,-65.74
57.953,-66.35
57.968,-66.25
57.984,-65.21
58.000,-63.28
58.015,-60.71
58.031,-57.8
58.046,-54.81
58.062,-51.94
58.078,-49.36
58.093,-47.27
58.109,-45.88
58.125,-45.31
58.140,-45.53
58.156,-46.27
58.171,-46.98
58.187,-47.02
58.203,-45.75
58.218,-42.87
58.234,-38.47
58.250,-33.03
58.265,-27.19
58.281,-21.52
58.296,-16.33
58.312,-11.66
58.328,-7.46
58.343,-3.72
58.359,-0.55
58.375,1.87
58.390,3.39
58.406,4.08
58.421,4.26
58.437,4.33
58.453,4.65
58.468,5.38
58.484,6.44
58.500,7.57
58.515,8.53
58.531,9.16
58.546,9.45
58.562,9.5
58.578,9.4
58.593,9.12
58.609,8.5
58.625,7.35
58.640,5.6
58.656,3.29
58.671,0.68
58.687,-1.92
58.703,-4.22
58.718,-6.05
58.734,-7.34
58.750,-8.12
58.765,-8.41
58.781,-8.28
58.796,-7.83
58.812,-7.21
58.828,-6.62
58.843,-6.26
58.859,-6.23
58.875,-6.45
58.890,-6.72
58.906,-6.77
58.921,-6.38
58.937,-5.43
58.953,-3.96
58.968,-2.14
58.984,-0.13
59.000,1.85
59.015,3.68
59.031,5.2
59.046,6.3
59.062,6.92
59.078,7.1
59.093,6.98
59.109,6.81
59.125,6.82
59.140,7.15
59.156,7.81
59.171,8.66
59.187,9.51
59.203,10.22
59.218,10.65
59.234,10.77
59.250,10.5
59.265,9.82
59.281,8.73
59.296,7.28
59.312,5.6
59.328,3.87
59.343,2.24
59.359,0.76
59.375,-0.59
59.390,-1.9
59.406,-3.23
59.421,-4.64
59.437,-6.11
59.453,-7.62
59.468,-9.12
59.484,-10.55
59.500,-11.82
59.515,-12.76
59.531,-13.19
59.546,-12.9
59.562,-11.83
59.578,-10.05
59.593,-7.81
59.609,-5.41
59.625,-3.11
59.640,-1.04
59.656,0.85
59.671,2.63
59.687,4.35
59.703,5.97
59.718,7.42
59.734,8.64
59.750,9.66
59.765,10.55
59.781,11.41
59.796,12.29
59.812,13.19
59.828,14.07
59.843,14.92
59.859,15.66
59.875,16.26
59.890,16.58
59.906,16.48
59.921,15.88
59.937,14.85
59.953,13.58
59.968,12.27
59.984,11.07
