timestamp,value
00.000,66.47
00.015,70.1
00.031,72.59
00.046,74.09
00.062,74.81
00.078,74.87
00.093,74.3
00.109,72.97
00.125,70.77
00.140,67.56
00.156,63.3
00.171,58.07
00.187,52.13
00.203,45.82
00.218,39.69
00.234,34.23
00.250,29.7
00.265,26.14
00.281,23.18
00.296,20.22
00.312,16.5
00.328,11.3
00.343,4.09
00.359,-5.24
00.375,-16.12
00.390,-27.27
00.406,-36.94
00.421,-43.42
00.437,-45.56
00.453,-43.27
00.468,-37.49
00.484,-29.73
00.500,-21.48
00.515,-13.68
00.531,-6.63
00.546,-0.11
00.562,6.19
00.578,12.38
00.593,18.22
00.609,23.14
00.625,26.57
00.640,28.05
00.656,27.5
00.671,25.32
00.687,22.33
00.703,19.5
00.718,17.69
00.734,17.29
00.750,18.03
00.765,19.05
00.781,19.2
00.796,17.46
00.812,13.25
00.828,6.67
00.843,-1.7
00.859,-11.05
00.875,-20.66
00.890,-30.23
00.906,-39.98
00.921,-50.48
00.937,-62.6
00.953,-77.17
00.968,-94.74
00.984,-115.25
01.000,-137.7
01.015,-160.18
01.031,-180.18
01.046,-195.32
01.062,-204.3
01.078,-207.61
01.093,-207.55
01.109,-207.56
01.125,-210.87
01.140,-219.23
01.156,-232.17
01.171,-247.18
01.187,-260.59
01.203,-268.83
01.218,-269.61
01.234,-262.24
01.250,-247.58
01.265,-227.34
01.281,-203.39
01.296,-177.19
01.312,-149.63
01.328,-121.19
01.343,-92.24
01.359,-63.39
01.375,-35.45
01.390,-9.33
01.406,14.11
01.421,34.32
01.437,51.07
01.453,64.27
01.468,73.88
01.484,79.74
01.500,81.73
01.515,79.92
01.531,74.76
01.546,66.97
01.562,57.45
01.578,46.98
01.593,36.1
01.609,25.19
01.625,14.74
01.640,5.55
01.656,-1.26
01.671,-4.62
01.687,-3.89
01.703,0.83
01.718,8.71
01.734,18.5
01.750,28.96
01.765,39.25
01.781,48.95
01.796,57.96
01.812,66.11
01.828,73.17
01.843,78.76
01.859,82.7
01.875,84.94
01.890,85.77
01.906,85.63
01.921,85.03
01.937,84.37
01.953,83.89
01.968,83.6
01.984,83.37
02.000,82.97
02.015,82.11
02.031,80.61
02.046,78.42
02.062,75.7
02.078,72.78
02.093,69.92
02.109,67.14
02.125,64.22
02.140,60.66
02.156,56.01
02.171,49.99
02.187,42.59
02.203,34.01
02.218,24.68
02.234,15.09
02.250,5.87
02.265,-2.16
02.281,-8.06
02.296,-10.92
02.312,-10.17
02.328,-5.88
02.343,1.18
02.359,9.81
02.375,18.78
02.390,27.07
02.406,34.22
02.421,40.11
02.437,44.8
02.453,48.35
02.468,50.69
02.484,51.68
02.500,51.28
02.515,49.68
02.531,47.22
02.546,44.42
02.562,41.63
02.578,39.05
02.593,36.66
02.609,34.25
02.625,31.67
02.640,28.85
02.656,25.91
02.671,23.03
02.687,20.36
02.703,17.75
02.718,14.91
02.734,11.38
02.750,6.86
02.765,1.32
02.781,-5.03
02.796,-11.78
02.812,-18.55
02.828,-25.06
02.843,-31.02
02.859,-35.99
02.875,-39.27
02.890,-40.02
02.906,-37.55
02.921,-31.76
02.937,-23.25
02.953,-13.2
02.968,-2.93
02.984,6.52
03.000,14.69
03.015,21.64
03.031,27.56
03.046,32.54
03.062,36.39
03.078,38.83
03.093,39.71
03.109,39.18
03.125,37.74
03.140,36.02
03.156,34.51
03.171,33.38
03.187,32.51
03.203,31.51
03.218,30.0
03.234,27.76
03.250,24.81
03.265,21.41
03.281,17.9
03.296,14.59
03.312,11.59
03.328,8.8
03.343,5.93
03.359,2.73
03.375,-1.0
03.390,-5.32
03.406,-10.12
03.421,-15.19
03.437,-20.22
03.453,-24.77
03.468,-28.24
03.484,-30.01
03.500,-29.5
03.515,-26.49
03.531,-21.21
03.546,-14.27
03.562,-6.46
03.578,1.54
03.593,9.36
03.609,16.95
03.625,24.37
03.640,31.5
03.656,37.92
03.671,42.9
03.687,45.78
03.703,46.14
03.718,44.06
03.734,40.04
03.750,34.87
03.765,29.29
03.781,23.94
03.796,19.18
03.812,15.21
03.828,12.14
03.843,10.01
03.859,8.77
03.875,8.28
03.890,8.3
03.906,8.45
03.921,8.4
03.937,7.87
03.953,6.73
03.968,5.03
03.984,2.85
04.000,0.3
04.015,-2.7
04.031,-6.27
04.046,-10.58
04.062,-15.52
04.078,-20.64
04.093,-25.14
04.109,-28.04
04.125,-28.49
04.140,-26.08
04.156,-20.98
04.171,-13.83
04.187,-5.6
04.203,2.75
04.218,10.43
04.234,16.98
04.250,22.22
04.265,26.16
04.281,28.86
04.296,30.36
04.312,30.72
04.328,30.01
04.343,28.44
04.359,26.33
04.375,24.0
04.390,21.78
04.406,19.84
04.421,18.14
04.437,16.61
04.453,15.06
04.468,13.45
04.484,11.79
04.500,10.17
04.515,8.59
04.531,7.02
04.546,5.34
04.562,3.35
04.578,0.95
04.593,-1.92
04.609,-5.21
04.625,-8.8
04.640,-12.5
04.656,-16.22
04.671,-20.01
04.687,-24.04
04.703,-28.55
04.718,-33.58
04.734,-38.83
04.750,-43.63
04.765,-47.06
04.781,-48.31
04.796,-46.98
04.812,-43.23
04.828,-37.62
04.843,-30.93
04.859,-23.75
04.875,-16.48
04.890,-9.38
04.906,-2.69
04.921,3.2
04.937,7.87
04.953,10.99
04.968,12.59
04.984,13.06
05.000,13.0
05.015,12.92
05.031,13.06
05.046,13.31
05.062,13.31
05.078,12.76
05.093,11.56
05.109,9.81
05.125,7.75
05.140,5.58
05.156,3.32
05.171,0.89
05.187,-1.87
05.203,-5.02
05.218,-8.45
05.234,-12.04
05.250,-15.63
05.265,-19.1
05.281,-22.33
05.296,-25.18
05.312,-27.55
05.328,-29.35
05.343,-30.69
05.359,-31.77
05.375,-32.78
05.390,-33.72
05.406,-34.33
05.421,-34.03
05.437,-32.23
05.453,-28.65
05.468,-23.43
05.484,-17.11
05.500,-10.39
05.515,-3.82
05.531,2.3
05.546,7.87
05.562,12.88
05.578,17.24
05.593,20.72
05.609,23.11
05.625,24.34
05.640,24.6
05.656,24.24
05.671,23.65
05.687,23.11
05.703,22.67
05.718,22.22
05.734,21.58
05.750,20.57
05.765,19.14
05.781,17.26
05.796,15.02
05.812,12.51
05.828,9.85
05.843,7.08
05.859,4.24
05.875,1.33
05.890,-1.62
05.906,-4.61
05.921,-7.64
05.937,-10.65
05.953,-13.63
05.968,-16.49
05.984,-19.22
06.000,-21.95
06.015,-24.78
06.031,-27.86
06.046,-31.25
06.062,-34.75
06.078,-37.86
06.093,-39.88
06.109,-40.04
06.125,-37.79
06.140,-33.0
06.156,-26.02
06.171,-17.54
06.187,-8.49
06.203,0.3
06.218,8.28
06.234,15.18
06.250,20.97
06.265,25.75
06.281,29.6
06.296,32.49
06.312,34.35
06.328,35.12
06.343,34.94
06.359,34.09
06.375,32.92
06.390,31.65
06.406,30.33
06.421,28.76
06.437,26.78
06.453,24.25
06.468,21.23
06.484,17.89
06.500,14.41
06.515,10.86
06.531,7.19
06.546,3.31
06.562,-0.81
06.578,-5.01
06.593,-9.14
06.609,-13.04
06.625,-16.71
06.640,-20.28
06.656,-23.99
06.671,-28.01
06.687,-32.48
06.703,-37.42
06.718,-42.62
06.734,-47.65
06.750,-51.76
06.765,-54.12
06.781,-54.04
06.796,-51.26
06.812,-46.01
06.828,-39.09
06.843,-31.43
06.859,-23.81
06.875,-16.63
06.890,-9.91
06.906,-3.61
06.921,2.19
06.937,7.23
06.953,11.17
06.968,13.83
06.984,15.34
07.000,16.06
07.015,16.4
07.031,16.63
07.046,16.83
07.062,16.93
07.078,16.92
07.093,16.86
07.109,16.87
07.125,16.96
07.140,16.96
07.156,16.47
07.171,15.12
07.187,12.66
07.203,9.12
07.218,4.82
07.234,0.25
07.250,-4.18
07.265,-8.2
07.281,-11.83
07.296,-15.32
07.312,-19.0
07.328,-23.18
07.343,-28.01
07.359,-33.5
07.375,-39.43
07.390,-45.38
07.406,-50.7
07.421,-54.55
07.437,-56.06
07.453,-54.56
07.468,-49.93
07.484,-42.63
07.500,-33.62
07.515,-24.03
07.531,-14.83
07.546,-6.5
07.562,0.81
07.578,7.15
07.593,12.6
07.609,17.06
07.625,20.45
07.640,22.75
07.656,24.19
07.671,25.08
07.687,25.75
07.703,26.43
07.718,27.2
07.734,28.12
07.750,29.15
07.765,30.25
07.781,31.33
07.796,32.21
07.812,32.64
07.828,32.42
07.843,31.34
07.859,29.33
07.875,26.41
07.890,22.65
07.906,18.23
07.921,13.31
07.937,8.12
07.953,2.82
07.968,-2.55
07.984,-8.1
08.000,-13.98
08.015,-20.32
08.031,-27.03
08.046,-33.67
08.062,-39.5
08.078,-43.7
08.093,-45.57
08.109,-44.79
08.125,-41.48
08.140,-36.14
08.156,-29.47
08.171,-22.18
08.187,-14.8
08.203,-7.67
08.218,-0.99
08.234,5.14
08.250,10.66
08.265,15.52
08.281,19.64
08.296,22.99
08.312,25.57
08.328,27.43
08.343,28.7
08.359,29.53
08.375,30.1
08.390,30.55
08.406,30.93
08.421,31.19
08.437,31.3
08.453,31.19
08.468,30.95
08.484,30.61
08.500,30.26
08.515,29.87
08.531,29.31
08.546,28.33
08.562,26.66
08.578,24.18
08.593,20.97
08.609,17.37
08.625,13.72
08.640,10.25
08.656,6.87
08.671,3.28
08.687,-0.93
08.703,-5.95
08.718,-11.53
08.734,-16.96
08.750,-21.22
08.765,-23.34
08.781,-22.69
08.796,-19.18
08.812,-13.17
08.828,-5.4
08.843,3.34
08.859,12.37
08.875,21.08
08.890,29.06
08.906,36.06
08.921,42.04
08.937,47.21
08.953,52.01
08.968,56.88
08.984,62.07
09.000,67.39
09.015,72.2
09.031,75.78
09.046,77.65
09.062,77.86
09.078,76.89
09.093,75.37
09.109,73.67
09.125,71.71
09.140,69.06
09.156,65.21
09.171,60.06
09.187,53.95
09.203,47.58
09.218,41.63
09.234,36.58
09.250,32.47
09.265,28.98
09.281,25.65
09.296,22.08
09.312,18.13
09.328,13.91
09.343,9.7
09.359,5.85
09.375,2.64
09.390,0.15
09.406,-1.69
09.421,-3.03
09.437,-3.94
09.453,-4.42
09.468,-4.41
09.484,-3.93
09.500,-3.13
09.515,-2.31
09.531,-1.84
09.546,-1.99
09.562,-2.68
09.578,-3.58
09.593,-4.16
09.609,-3.94
09.625,-2.74
09.640,-0.73
09.656,1.57
09.671,3.57
09.687,4.84
09.703,5.22
09.718,4.87
09.734,4.14
09.750,3.5
09.765,3.32
09.781,3.85
09.796,5.05
09.812,6.67
09.828,8.25
09.843,9.16
09.859,8.76
09.875,6.46
09.890,1.92
09.906,-4.92
09.921,-13.79
09.937,-24.13
09.953,-35.22
09.968,-46.3
09.984,-56.89
10.000,-66.78
10.015,-76.06
10.031,-84.87
10.046,-93.22
10.062,-100.88
10.078,-107.24
10.093,-111.65
10.109,-113.51
10.125,-112.53
10.140,-108.76
10.156,-102.59
10.171,-94.66
10.187,-85.71
10.203,-76.46
10.218,-67.41
10.234,-58.95
10.250,-51.27
10.265,-44.58
10.281,-39.05
10.296,-34.97
10.312,-32.47
10.328,-31.43
10.343,-31.44
10.359,-31.79
10.375,-31.83
10.390,-31.11
10.406,-29.71
10.421,-28.19
10.437,-27.52
10.453,-28.73
10.468,-32.53
10.484,-39.06
10.500,-47.75
10.515,-57.52
10.531,-67.03
10.546,-75.14
10.562,-81.14
10.578,-84.9
10.593,-86.71
10.609,-87.19
10.625,-87.12
10.640,-87.09
10.656,-87.4
10.671,-87.97
10.687,-88.48
10.703,-88.6
10.718,-88.28
10.734,-87.75
10.750,-87.23
10.765,-86.47
10.781,-84.34
10.796,-79.2
10.812,-69.54
10.828,-54.97
10.843,-36.6
10.859,-16.83
10.875,1.73
10.890,17.32
10.906,29.59
10.921,39.56
10.937,48.65
10.953,57.81
10.968,67.03
10.984,75.51
11.000,82.29
11.015,86.9
11.031,89.58
11.046,91.1
11.062,92.27
11.078,93.52
11.093,95.09
11.109,97.19
11.125,100.12
11.140,104.18
11.156,109.23
11.171,114.39
11.187,118.25
11.203,119.52
11.218,117.73
11.234,113.73
11.250,109.15
11.265,105.44
11.281,103.03
11.296,101.27
11.312,98.74
11.328,94.3
11.343,87.63
11.359,79.03
11.375,69.08
11.390,58.2
11.406,46.69
11.421,35.02
11.437,24.05
11.453,14.58
11.468,6.9
11.484,0.53
11.500,-5.51
11.515,-11.83
11.531,-18.1
11.546,-23.0
11.562,-25.07
11.578,-23.73
11.593,-19.76
11.609,-14.95
11.625,-11.11
11.640,-9.16
11.656,-8.79
11.671,-9.13
11.687,-9.56
11.703,-10.17
11.718,-11.71
11.734,-14.82
11.750,-19.4
11.765,-24.5
11.781,-28.82
11.796,-31.18
11.812,-31.3
11.828,-29.91
11.843,-28.31
11.859,-27.91
11.875,-29.58
11.890,-33.31
11.906,-38.42
11.921,-44.01
11.937,-49.3
11.953,-54.1
11.968,-58.6
11.984,-63.2
12.000,-68.19
12.015,-73.49
12.031,-78.73
12.046,-83.25
12.062,-86.39
12.078,-87.55
12.093,-86.3
12.109,-82.44
12.125,-75.98
12.140,-67.29
12.156,-57.01
12.171,-46.01
12.187,-35.08
12.203,-24.82
12.218,-15.48
12.234,-7.11
12.250,0.35
12.265,6.88
12.281,12.36
12.296,16.7
12.312,19.94
12.328,22.35
12.343,24.3
12.359,26.12
12.375,27.88
12.390,29.43
12.406,30.53
12.421,30.95
12.437,30.71
12.453,30.02
12.468,29.13
12.484,28.21
12.500,27.27
12.515,26.13
12.531,24.56
12.546,22.35
12.562,19.25
12.578,15.11
12.593,9.76
12.609,3.02
12.625,-5.23
12.640,-14.86
12.656,-25.42
12.671,-36.05
12.687,-45.64
12.703,-53.02
12.718,-57.23
12.734,-57.85
12.750,-55.1
12.765,-49.58
12.781,-42.11
12.796,-33.48
12.812,-24.35
12.828,-15.23
12.843,-6.61
12.859,1.08
12.875,7.43
12.890,12.11
12.906,15.04
12.921,16.35
12.937,16.41
12.953,15.69
12.968,14.75
12.984,14.06
13.000,13.91
13.015,14.28
13.031,14.9
13.046,15.41
13.062,15.42
13.078,14.73
13.093,13.33
13.109,11.36
13.125,8.89
13.140,5.97
13.156,2.47
13.171,-1.8
13.187,-6.92
13.203,-12.91
13.218,-19.52
13.234,-26.42
13.250,-33.14
13.265,-39.2
13.281,-43.99
13.296,-46.83
13.312,-47.06
13.328,-44.14
13.343,-38.0
13.359,-29.01
13.375,-18.0
13.390,-6.07
13.406,5.7
13.421,16.52
13.437,25.95
13.453,33.8
13.468,39.99
13.484,44.38
13.500,46.84
13.515,47.36
13.531,46.16
13.546,43.75
13.562,40.79
13.578,37.97
13.593,35.7
13.609,34.1
13.625,32.96
13.640,31.91
13.656,30.59
13.671,28.78
13.687,26.48
13.703,23.84
13.718,21.07
13.734,18.27
13.750,15.44
13.765,12.46
13.781,9.25
13.796,5.85
13.812,2.36
13.828,-1.13
13.843,-4.7
13.859,-8.66
13.875,-13.42
13.890,-19.13
13.906,-25.36
13.921,-31.03
13.937,-34.58
13.953,-34.67
13.968,-30.65
13.984,-22.88
14.000,-12.6
14.015,-1.44
14.031,9.18
14.046,18.41
14.062,25.93
14.078,31.82
14.093,36.2
14.109,39.06
14.125,40.37
14.140,40.14
14.156,38.64
14.171,36.35
14.187,33.82
14.203,31.43
14.218,29.3
14.234,27.29
14.250,25.15
14.265,22.68
14.281,19.81
14.296,16.7
14.312,13.54
14.328,10.53
14.343,7.71
14.359,5.04
14.375,2.36
14.390,-0.46
14.406,-3.48
14.421,-6.66
14.437,-9.87
14.453,-12.88
14.468,-15.6
14.484,-18.13
14.500,-20.8
14.515,-24.14
14.531,-28.59
14.546,-34.16
14.562,-40.3
14.578,-45.88
14.593,-49.46
14.609,-49.84
14.625,-46.46
14.640,-39.46
14.656,-29.67
14.671,-18.22
14.687,-6.2
14.703,5.44
14.718,16.03
14.734,25.05
14.750,32.11
14.765,37.07
14.781,40.01
14.796,41.26
14.812,41.28
14.828,40.5
14.843,39.29
14.859,37.87
14.875,36.45
14.890,35.19
14.906,34.26
14.921,33.73
14.937,33.48
14.953,33.28
14.968,32.85
14.984,31.93
15.000,30.33
15.015,27.95
15.031,24.71
15.046,20.7
15.062,16.15
15.078,11.47
15.093,7.08
15.109,3.32
15.125,0.22
15.140,-2.46
15.156,-5.17
15.171,-8.41
15.187,-12.52
15.203,-17.62
15.218,-23.64
15.234,-30.21
15.250,-36.66
15.265,-42.08
15.281,-45.52
15.296,-46.12
15.312,-43.47
15.328,-37.73
15.343,-29.59
15.359,-20.16
15.375,-10.67
15.390,-2.15
15.406,4.64
15.421,9.47
15.437,12.55
15.453,14.37
15.468,15.55
15.484,16.53
15.500,17.42
15.515,18.01
15.531,18.04
15.546,17.31
15.562,15.92
15.578,14.18
15.593,12.35
15.609,10.51
15.625,8.55
15.640,6.3
15.656,3.74
15.671,1.09
15.687,-1.31
15.703,-3.25
15.718,-4.83
15.734,-6.44
15.750,-8.49
15.765,-11.13
15.781,-14.17
15.796,-17.09
15.812,-19.36
15.828,-20.74
15.843,-21.42
15.859,-21.88
15.875,-22.72
15.890,-24.35
15.906,-26.93
15.921,-30.44
15.937,-34.61
15.953,-39.04
15.968,-43.13
15.984,-46.1
16.000,-47.15
16.015,-45.62
16.031,-41.33
16.046,-34.65
16.062,-26.44
16.078,-17.64
16.093,-9.09
16.109,-1.26
16.125,5.74
16.140,11.96
16.156,17.48
16.171,22.25
16.187,26.2
16.203,29.31
16.218,31.7
16.234,33.63
16.250,35.36
16.265,37.14
16.281,39.03
16.296,40.92
16.312,42.61
16.328,43.87
16.343,44.6
16.359,44.89
16.375,44.89
16.390,44.8
16.406,44.7
16.421,44.59
16.437,44.35
16.453,43.9
16.468,43.19
16.484,42.32
16.500,41.36
16.515,40.4
16.531,39.53
16.546,38.72
16.562,37.97
16.578,37.29
16.593,36.77
16.609,36.46
16.625,36.42
16.640,36.55
16.656,36.72
16.671,36.78
16.687,36.6
16.703,36.27
16.718,35.93
16.734,35.89
16.750,36.28
16.765,37.12
16.781,38.21
16.796,39.2
16.812,39.82
16.828,40.04
16.843,40.17
16.859,40.73
16.875,42.27
16.890,45.08
16.906,49.05
16.921,53.71
16.937,58.37
16.953,62.4
16.968,65.38
16.984,67.18
17.000,67.8
17.015,67.35
17.031,66.0
17.046,63.92
17.062,61.32
17.078,58.37
17.093,55.06
17.109,51.1
17.125,45.94
17.140,38.97
17.156,29.77
17.171,18.33
17.187,5.0
17.203,-9.66
17.218,-25.13
17.234,-40.91
17.250,-56.5
17.265,-71.22
17.281,-84.21
17.296,-94.56
17.312,-101.53
17.328,-104.9
17.343,-104.85
17.359,-102.11
17.375,-97.53
17.390,-91.98
17.406,-86.08
17.421,-80.16
17.437,-74.15
17.453,-67.69
17.468,-60.26
17.484,-51.53
17.500,-41.59
17.515,-31.07
17.531,-20.99
17.546,-12.42
17.562,-6.1
17.578,-2.28
17.593,-0.81
17.609,-1.39
17.625,-3.88
17.640,-8.32
17.656,-14.75
17.671,-22.97
17.687,-32.36
17.703,-41.97
17.718,-50.81
17.734,-58.21
17.750,-64.02
17.765,-68.54
17.781,-72.25
17.796,-75.49
17.812,-78.29
17.828,-80.37
17.843,-81.31
17.859,-80.66
17.875,-78.1
17.890,-73.42
17.906,-66.74
17.921,-58.61
17.937,-50.1
17.953,-42.54
17.968,-37.04
17.984,-33.88
18.000,-32.22
18.015,-30.32
18.031,-26.3
18.046,-19.14
18.062,-9.13
18.078,2.05
18.093,12.15
18.109,19.25
18.125,22.53
18.140,22.42
18.156,20.31
18.171,17.97
18.187,16.88
18.203,18.04
18.218,21.77
18.234,27.75
18.250,35.26
18.265,43.31
18.281,50.88
18.296,57.17
18.312,61.9
18.328,65.22
18.343,67.76
18.359,70.44
18.375,74.06
18.390,79.21
18.406,86.04
18.421,94.29
18.437,103.4
18.453,112.79
18.468,121.85
18.484,130.19
18.500,137.56
18.515,143.75
18.531,148.64
18.546,151.92
18.562,153.21
18.578,151.98
18.593,147.75
18.609,140.24
18.625,129.56
18.640,116.42
18.656,101.86
18.671,87.18
18.687,73.42
18.703,61.02
18.718,49.75
18.734,38.69
18.750,26.61
18.765,12.39
18.781,-4.55
18.796,-24.16
18.812,-45.35
18.828,-66.14
18.843,-83.68
18.859,-94.93
18.875,-97.69
18.890,-91.74
18.906,-79.45
18.921,-65.41
18.937,-55.02
18.953,-52.38
18.968,-58.83
18.984,-72.6
19.000,-89.8
19.015,-106.4
19.031,-119.74
19.046,-129.07
19.062,-134.89
19.078,-137.83
19.093,-137.84
19.109,-134.55
19.125,-128.1
19.140,-119.72
19.156,-111.72
19.171,-106.49
19.187,-105.27
19.203,-107.53
19.218,-111.26
19.234,-113.98
19.250,-113.8
19.265,-109.99
19.281,-102.67
19.296,-92.18
19.312,-78.64
19.328,-62.21
19.343,-43.69
19.359,-24.86
19.375,-8.65
19.390,1.52
19.406,2.81
19.421,-5.85
19.437,-22.95
19.453,-44.42
19.468,-64.75
19.484,-79.19
19.500,-85.67
19.515,-85.87
19.531,-84.21
19.546,-85.27
19.562,-90.9
19.578,-98.81
19.593,-103.44
19.609,-98.89
19.625,-82.19
19.640,-54.74
19.656,-21.51
19.671,11.64
19.687,40.35
19.703,62.72
19.718,78.48
19.734,87.49
19.750,89.29
19.765,83.85
19.781,73.12
19.796,61.62
19.812,55.11
19.828,58.0
19.843,70.95
19.859,90.47
19.875,110.41
19.890,124.58
19.906,128.67
19.921,121.22
19.937,103.26
19.953,77.53
19.968,47.97
19.984,19.14
20.000,-4.73
20.015,-21.11
20.031,-30.28
20.046,-35.48
20.062,-41.33
20.078,-51.5
20.093,-66.64
20.109,-84.1
20.125,-99.62
20.140,-109.9
20.156,-114.38
20.171,-115.06
20.187,-115.03
20.203,-116.44
20.218,-119.35
20.234,-121.98
20.250,-121.89
20.265,-117.46
20.281,-108.63
20.296,-96.85
20.312,-84.12
20.328,-71.99
20.343,-60.89
20.359,-50.15
20.375,-38.56
20.390,-25.2
20.406,-10.08
20.421,5.9
20.437,21.43
20.453,35.3
20.468,46.8
20.484,55.68
20.500,61.93
20.515,65.42
20.531,65.89
20.546,62.99
20.562,56.5
20.578,46.58
20.593,33.74
20.609,18.89
20.625,3.05
20.640,-12.6
20.656,-26.98
20.671,-39.1
20.687,-48.31
20.703,-54.42
20.718,-57.74
20.734,-58.97
20.750,-58.88
20.765,-58.14
20.781,-57.07
20.796,-55.71
20.812,-54.06
20.828,-52.25
20.843,-50.58
20.859,-49.59
20.875,-49.79
20.890,-51.4
20.906,-54.3
20.921,-57.95
20.937,-61.46
20.953,-63.66
20.968,-63.38
20.984,-59.53
21.000,-51.48
21.015,-39.25
21.031,-23.66
21.046,-6.16
21.062,11.65
21.078,28.48
21.093,43.57
21.109,56.63
21.125,67.58
21.140,76.2
21.156,82.12
21.171,85.15
21.187,85.52
21.203,84.01
21.218,81.78
21.234,79.88
21.250,78.84
21.265,78.55
21.281,78.4
21.296,77.68
21.312,75.95
21.328,73.13
21.343,69.49
21.359,65.43
21.375,61.23
21.390,56.9
21.406,52.19
21.421,46.67
21.437,39.99
21.453,32.24
21.468,23.83
21.484,15.54
21.500,8.05
21.515,1.72
21.531,-3.6
21.546,-8.52
21.562,-13.83
21.578,-20.13
21.593,-27.63
21.609,-36.16
21.625,-45.16
21.640,-53.79
21.656,-60.95
21.671,-65.34
21.687,-65.67
21.703,-61.05
21.718,-51.34
21.734,-37.3
21.750,-20.52
21.765,-2.89
21.781,13.87
21.796,28.59
21.812,40.82
21.828,50.61
21.843,58.17
21.859,63.72
21.875,67.41
21.890,69.41
21.906,70.04
21.921,69.67
21.937,68.63
21.953,67.11
21.968,65.13
21.984,62.63
22.000,59.7
22.015,56.59
22.031,53.7
22.046,51.38
22.062,49.71
22.078,48.44
22.093,47.09
22.109,45.14
22.125,42.23
22.140,38.35
22.156,33.68
22.171,28.53
22.187,23.26
22.203,18.13
22.218,13.32
22.234,8.88
22.250,4.66
22.265,0.36
22.281,-4.45
22.296,-10.17
22.312,-16.95
22.328,-24.47
22.343,-31.99
22.359,-38.37
22.375,-42.45
22.390,-43.36
22.406,-40.71
22.421,-34.66
22.437,-25.83
22.453,-15.06
22.468,-3.24
22.484,8.77
22.500,20.16
22.515,30.27
22.531,38.57
22.546,44.68
22.562,48.56
22.578,50.45
22.593,50.78
22.609,50.1
22.625,48.88
22.640,47.46
22.656,46.07
22.671,44.85
22.687,43.87
22.703,43.17
22.718,42.74
22.734,42.48
22.750,42.31
22.765,42.06
22.781,41.61
22.796,40.78
22.812,39.37
22.828,37.16
22.843,34.0
22.859,29.92
22.875,25.12
22.890,20.04
22.906,15.07
22.921,10.53
22.937,6.41
22.953,2.51
22.968,-1.55
22.984,-6.06
23.000,-11.21
23.015,-17.02
23.031,-23.2
23.046,-29.28
23.062,-34.45
23.078,-37.78
23.093,-38.28
23.109,-35.27
23.125,-28.58
23.140,-18.67
23.156,-6.54
23.171,6.64
23.187,19.74
23.203,31.98
23.218,42.92
23.234,52.29
23.250,59.79
23.265,65.23
23.281,68.53
23.296,70.0
23.312,70.31
23.328,70.39
23.343,71.08
23.359,72.86
23.375,75.69
23.390,79.08
23.406,82.46
23.421,85.41
23.437,87.82
23.453,89.88
23.468,91.91
23.484,94.26
23.500,97.1
23.515,100.31
23.531,103.42
23.546,105.74
23.562,106.46
23.578,104.85
23.593,100.53
23.609,93.46
23.625,84.06
23.640,73.04
23.656,61.19
23.671,49.19
23.687,37.53
23.703,26.39
23.718,15.66
23.734,5.08
23.750,-5.68
23.765,-16.81
23.781,-28.19
23.796,-39.35
23.812,-49.56
23.828,-58.01
23.843,-64.01
23.859,-67.23
23.875,-67.63
23.890,-65.57
23.906,-61.59
23.921,-56.3
23.937,-50.28
23.953,-44.03
23.968,-37.96
23.984,-32.42
24.000,-27.67
24.015,-23.84
24.031,-20.91
24.046,-18.63
24.062,-16.61
24.078,-14.51
24.093,-12.18
24.109,-9.79
24.125,-7.75
24.140,-6.5
24.156,-6.26
24.171,-6.94
24.187,-8.15
24.203,-9.47
24.218,-10.62
24.234,-11.62
24.250,-12.78
24.265,-14.48
24.281,-17.01
24.296,-20.35
24.312,-24.31
24.328,-28.59
24.343,-32.98
24.359,-37.4
24.375,-41.88
24.390,-46.44
24.406,-50.98
24.421,-55.4
24.437,-59.57
24.453,-63.48
24.468,-67.23
24.484,-71.04
24.500,-75.01
24.515,-79.05
24.531,-82.86
24.546,-85.88
24.562,-87.45
24.578,-86.89
24.593,-83.7
24.609,-77.74
24.625,-69.34
24.640,-59.22
24.656,-48.28
24.671,-37.36
24.687,-26.93
24.703,-17.13
24.718,-7.86
24.734,0.95
24.750,9.2
24.765,16.6
24.781,22.75
24.796,27.46
24.812,30.81
24.828,33.16
24.843,35.02
24.859,36.85
24.875,38.89
24.890,41.12
24.906,43.35
24.921,45.25
24.937,46.63
24.953,47.38
24.968,47.58
24.984,47.35
25.000,46.81
25.015,45.98
25.031,44.82
25.046,43.32
25.062,41.59
25.078,39.8
25.093,38.03
25.109,36.25
25.125,34.2
25.140,31.45
25.156,27.66
25.171,22.67
25.187,16.71
25.203,10.23
25.218,3.8
25.234,-2.17
25.250,-7.46
25.265,-12.11
25.281,-16.26
25.296,-20.1
25.312,-23.78
25.328,-27.19
25.343,-30.05
25.359,-31.84
25.375,-31.93
25.390,-29.84
25.406,-25.47
25.421,-19.14
25.437,-11.57
25.453,-3.55
25.468,4.26
25.484,11.4
25.500,17.51
25.515,22.14
25.531,24.69
25.546,24.58
25.562,21.51
25.578,15.89
25.593,8.75
25.609,1.51
25.625,-4.54
25.640,-8.66
25.656,-10.8
25.671,-11.5
25.687,-11.52
25.703,-11.48
25.718,-11.62
25.734,-11.88
25.750,-12.06
25.765,-12.05
25.781,-11.93
25.796,-11.87
25.812,-12.12
25.828,-12.8
25.843,-13.79
25.859,-14.91
25.875,-16.01
25.890,-17.04
25.906,-18.09
25.921,-19.31
25.937,-20.77
25.953,-22.52
25.968,-24.55
25.984,-26.85
26.000,-29.52
26.015,-32.68
26.031,-36.37
26.046,-40.43
26.062,-44.48
26.078,-47.78
26.093,-49.47
26.109,-48.77
26.125,-45.2
26.140,-38.83
26.156,-30.25
26.171,-20.42
26.187,-10.38
26.203,-0.9
26.218,7.63
26.234,15.16
26.250,21.72
26.265,27.24
26.281,31.5
26.296,34.28
26.312,35.6
26.328,35.77
26.343,35.34
26.359,34.91
26.375,34.76
26.390,34.85
26.406,34.85
26.421,34.41
26.437,33.32
26.453,31.68
26.468,29.75
26.484,27.81
26.500,25.94
26.515,23.93
26.531,21.37
26.546,17.94
26.562,13.5
26.578,8.28
26.593,2.8
26.609,-2.4
26.625,-7.01
26.640,-11.06
26.656,-14.87
26.671,-18.93
26.687,-23.65
26.703,-29.31
26.718,-35.96
26.734,-43.48
26.750,-51.53
26.765,-59.4
26.781,-66.05
26.796,-70.12
26.812,-70.44
26.828,-66.31
26.843,-57.86
26.859,-46.0
26.875,-32.14
26.890,-17.76
26.906,-3.89
26.921,9.03
26.937,20.98
26.953,31.99
26.968,41.88
26.984,50.08
27.000,55.87
27.015,58.66
27.031,58.16
27.046,54.55
27.062,48.1
27.078,39.05
27.093,27.56
27.109,13.86
27.125,-1.49
27.140,-17.35
27.156,-32.1
27.171,-44.1
27.187,-52.2
27.203,-56.17
27.218,-56.72
27.234,-55.06
27.250,-52.53
27.265,-50.13
27.281,-48.44
27.296,-47.54
27.312,-47.33
27.328,-47.59
27.343,-48.16
27.359,-48.87
27.375,-49.57
27.390,-50.18
27.406,-50.63
27.421,-50.94
27.437,-51.16
27.453,-51.61
27.468,-52.65
27.484,-54.8
27.500,-58.43
27.515,-63.6
27.531,-69.97
27.546,-76.73
27.562,-82.73
27.578,-86.69
27.593,-87.55
27.609,-84.6
27.625,-77.75
27.640,-67.52
27.656,-54.91
27.671,-41.2
27.687,-27.52
27.703,-14.67
27.718,-3.05
27.734,7.29
27.750,16.37
27.765,24.07
27.781,30.17
27.796,34.49
27.812,37.1
27.828,38.39
27.843,38.88
27.859,39.06
27.875,39.15
27.890,39.15
27.906,38.86
27.921,38.14
27.937,37.05
27.953,35.83
27.968,34.78
27.984,34.06
28.000,33.64
28.015,33.25
28.031,32.56
28.046,31.25
28.062,29.17
28.078,26.36
28.093,23.02
28.109,19.45
28.125,15.86
28.140,12.33
28.156,8.76
28.171,4.9
28.187,0.48
28.203,-4.7
28.218,-10.74
28.234,-17.57
28.250,-24.91
28.265,-32.27
28.281,-38.97
28.296,-44.2
28.312,-47.11
28.328,-47.06
28.343,-43.77
28.359,-37.47
28.375,-28.8
28.390,-18.64
28.406,-7.83
28.421,3.04
28.437,13.51
28.453,23.28
28.468,32.02
28.484,39.31
28.500,44.86
28.515,48.58
28.531,50.68
28.546,51.67
28.562,52.17
28.578,52.56
28.593,52.97
28.609,53.23
28.625,52.98
28.640,51.94
28.656,50.03
28.671,47.45
28.687,44.52
28.703,41.54
28.718,38.62
28.734,35.73
28.750,32.69
28.765,29.31
28.781,25.49
28.796,21.2
28.812,16.54
28.828,11.73
28.843,6.98
28.859,2.5
28.875,-1.55
28.890,-5.14
28.906,-8.49
28.921,-11.96
28.937,-16.08
28.953,-21.31
28.968,-27.78
28.984,-35.09
29.000,-42.31
29.015,-48.0
29.031,-50.67
29.046,-49.2
29.062,-43.19
29.078,-33.23
29.093,-20.7
29.109,-7.43
29.125,4.83
29.140,14.84
29.156,22.09
29.171,26.71
29.187,29.31
29.203,30.63
29.218,31.33
29.234,31.86
29.250,32.41
29.265,33.02
29.281,33.7
29.296,34.55
29.312,35.67
29.328,37.08
29.343,38.78
29.359,40.59
29.375,42.32
29.390,43.8
29.406,44.95
29.421,45.79
29.437,46.39
29.453,46.81
29.468,47.05
29.484,47.11
29.500,46.87
29.515,46.31
29.531,45.36
29.546,43.96
29.562,42.14
29.578,39.95
29.593,37.54
29.609,35.02
29.625,32.53
29.640,30.12
29.656,27.82
29.671,25.64
29.687,23.61
29.703,21.8
29.718,20.28
29.734,19.03
29.750,18.04
29.765,17.22
29.781,16.45
29.796,15.62
29.812,14.64
29.828,13.43
29.843,11.97
29.859,10.3
29.875,8.56
29.890,6.88
29.906,5.37
29.921,3.97
29.937,2.54
29.953,0.88
29.968,-1.21
29.984,-3.75
30.000,-6.63
30.015,-9.59
30.031,-12.36
30.046,-14.76
30.062,-16.8
30.078,-18.59
30.093,-20.26
30.109,-21.92
30.125,-23.61
30.140,-25.35
30.156,-27.19
30.171,-29.25
30.187,-31.71
30.203,-34.6
30.218,-37.85
30.234,-41.28
30.250,-44.7
30.265,-48.05
30.281,-51.42
30.296,-54.94
30.312,-58.75
30.328,-62.96
30.343,-67.67
30.359,-73.01
30.375,-78.94
30.390,-85.04
30.406,-90.4
30.421,-93.72
30.437,-93.59
30.453,-89.09
30.468,-80.14
30.484,-67.58
30.500,-52.91
30.515,-37.77
30.531,-23.38
30.546,-10.47
30.562,0.75
30.578,10.27
30.593,18.06
30.609,24.08
30.625,28.33
30.640,31.0
30.656,32.51
30.671,33.45
30.687,34.35
30.703,35.53
30.718,37.02
30.734,38.67
30.750,40.23
30.765,41.62
30.781,42.81
30.796,43.83
30.812,44.69
30.828,45.3
30.843,45.57
30.859,45.33
30.875,44.47
30.890,42.94
30.906,40.87
30.921,38.5
30.937,36.17
30.953,34.12
30.968,32.29
30.984,30.24
31.000,27.11
31.015,21.93
31.031,14.05
31.046,3.5
31.062,-8.81
31.078,-21.23
31.093,-31.88
31.109,-39.19
31.125,-42.37
31.140,-41.47
31.156,-37.21
31.171,-30.59
31.187,-22.55
31.203,-13.72
31.218,-4.48
31.234,4.99
31.250,14.44
31.265,23.57
31.281,31.97
31.296,39.19
31.312,44.85
31.328,48.74
31.343,50.89
31.359,51.62
31.375,51.61
31.390,51.66
31.406,52.6
31.421,55.0
31.437,59.06
31.453,64.5
31.468,70.64
31.484,76.56
31.500,81.31
31.515,84.15
31.531,84.65
31.546,82.82
31.562,78.94
31.578,73.43
31.593,66.63
31.609,58.67
31.625,49.54
31.640,39.14
31.656,27.54
31.671,14.95
31.687,1.75
31.703,-11.69
31.718,-25.13
31.734,-38.3
31.750,-50.87
31.765,-62.13
31.781,-70.93
31.796,-75.82
31.812,-75.49
31.828,-69.26
31.843,-57.53
31.859,-41.78
31.875,-24.27
31.890,-7.3
31.906,7.53
31.921,19.83
31.937,30.35
31.953,40.49
31.968,51.63
31.984,64.37
32.000,78.18
32.015,91.45
32.031,101.94
32.046,107.27
32.062,105.49
32.078,95.55
32.093,77.62
32.109,53.44
32.125,26.34
32.140,0.55
32.156,-19.82
32.171,-32.4
32.187,-37.63
32.203,-38.78
32.218,-40.79
32.234,-48.18
32.250,-63.27
32.265,-85.25
32.281,-110.91
32.296,-136.14
32.312,-157.74
32.328,-174.28
32.343,-186.0
32.359,-193.99
32.375,-199.16
32.390,-201.94
32.406,-202.26
32.421,-199.9
32.437,-194.8
32.453,-187.04
32.468,-176.78
32.484,-164.17
32.500,-149.37
32.515,-132.64
32.531,-114.56
32.546,-95.94
32.562,-77.74
32.578,-60.82
32.593,-45.81
32.609,-33.01
32.625,-22.43
32.640,-13.81
32.656,-6.65
32.671,-0.32
32.687,5.88
32.703,12.42
32.718,19.4
32.734,26.44
32.750,32.86
32.765,37.95
32.781,41.34
32.796,43.17
32.812,43.93
32.828,44.2
32.843,44.36
32.859,44.31
32.875,43.69
32.890,42.02
32.906,39.07
32.921,34.91
32.937,29.92
32.953,24.49
32.968,18.95
32.984,13.47
33.000,7.95
33.015,2.27
33.031,-3.77
33.046,-10.26
33.062,-17.11
33.078,-23.89
33.093,-29.85
33.109,-34.02
33.125,-35.38
33.140,-33.37
33.156,-28.0
33.171,-19.95
33.187,-10.41
33.203,-0.6
33.218,8.51
33.234,16.41
33.250,22.96
33.265,28.23
33.281,32.3
33.296,35.28
33.312,37.23
33.328,38.31
33.343,38.81
33.359,39.09
33.375,39.5
33.390,40.24
33.406,41.4
33.421,42.89
33.437,44.61
33.453,46.44
33.468,48.31
33.484,50.21
33.500,52.19
33.515,54.3
33.531,56.47
33.546,58.69
33.562,60.85
33.578,62.81
33.593,64.49
33.609,65.79
33.625,66.68
33.640,67.1
33.656,67.01
33.671,66.23
33.687,64.63
33.703,62.08
33.718,58.55
33.734,54.18
33.750,49.2
33.765,43.92
33.781,38.72
33.796,33.97
33.812,29.92
33.828,26.64
33.843,24.02
33.859,21.71
33.875,19.45
33.890,17.01
33.906,14.54
33.921,12.3
33.937,10.71
33.953,9.94
33.968,9.91
33.984,10.31
34.000,10.71
34.015,10.86
34.031,10.51
34.046,9.48
34.062,7.6
34.078,4.78
34.093,1.05
34.109,-3.3
34.125,-7.84
34.140,-12.16
34.156,-16.05
34.171,-19.59
34.187,-23.08
34.203,-26.88
34.218,-31.15
34.234,-35.83
34.250,-40.68
34.265,-45.32
34.281,-49.54
34.296,-53.28
34.312,-56.78
34.328,-60.52
34.343,-65.09
34.359,-71.07
34.375,-78.75
34.390,-88.05
34.406,-98.22
34.421,-108.06
34.437,-115.86
34.453,-119.8
34.468,-118.47
34.484,-111.21
34.500,-98.54
34.515,-81.96
34.531,-63.59
34.546,-45.45
34.562,-29.04
34.578,-15.01
34.593,-3.36
34.609,6.18
34.625,13.92
34.640,20.03
34.656,24.58
34.671,27.78
34.687,29.95
34.703,31.45
34.718,32.62
34.734,33.58
34.750,34.28
34.765,34.56
34.781,34.36
34.796,33.72
34.812,32.76
34.828,31.6
34.843,30.23
34.859,28.56
34.875,26.48
34.890,23.94
34.906,21.01
34.921,17.84
34.937,14.61
34.953,11.41
34.968,8.14
34.984,4.55
35.000,0.37
35.015,-4.57
35.031,-10.33
35.046,-16.8
35.062,-23.75
35.078,-30.79
35.093,-37.2
35.109,-42.17
35.125,-44.76
35.140,-44.24
35.156,-40.33
35.171,-33.37
35.187,-24.23
35.203,-14.05
35.218,-3.91
35.234,5.38
35.250,13.33
35.265,19.68
35.281,24.35
35.296,27.32
35.312,28.69
35.328,28.7
35.343,27.69
35.359,26.07
35.375,24.14
35.390,22.1
35.406,19.97
35.421,17.68
35.437,15.11
35.453,12.19
35.468,8.91
35.484,5.34
35.500,1.58
35.515,-2.28
35.531,-6.14
35.546,-9.94
35.562,-13.61
35.578,-17.15
35.593,-20.55
35.609,-23.85
35.625,-27.27
35.640,-31.02
35.656,-35.34
35.671,-40.36
35.687,-46.05
35.703,-52.16
35.718,-58.27
35.734,-63.74
35.750,-67.82
35.765,-69.76
35.781,-68.88
35.796,-64.82
35.812,-57.64
35.828,-47.96
35.843,-36.77
35.859,-25.2
35.875,-14.2
35.890,-4.35
35.906,4.21
35.921,11.59
35.937,17.97
35.953,23.39
35.968,27.79
35.984,31.07
36.000,33.24
36.015,34.44
36.031,34.87
36.046,34.68
36.062,33.98
36.078,32.86
36.093,31.45
36.109,29.96
36.125,28.58
36.140,27.39
36.156,26.2
36.171,24.73
36.187,22.68
36.203,19.92
36.218,16.53
36.234,12.84
36.250,9.13
36.265,5.53
36.281,2.01
36.296,-1.69
36.312,-5.85
36.328,-10.67
36.343,-16.25
36.359,-22.49
36.375,-29.02
36.390,-35.19
36.406,-40.06
36.421,-42.45
36.437,-41.33
36.453,-36.05
36.468,-26.74
36.484,-14.3
36.500,-0.17
36.515,14.15
36.531,27.55
36.546,39.52
36.562,50.1
36.578,59.47
36.593,67.71
36.609,74.62
36.625,79.99
36.640,83.8
36.656,86.4
36.671,88.45
36.687,90.6
36.703,93.24
36.718,96.31
36.734,99.52
36.750,102.54
36.765,105.24
36.781,107.75
36.796,110.33
36.812,113.17
36.828,116.24
36.843,119.29
36.859,121.95
36.875,123.99
36.890,125.46
36.906,126.64
36.921,128.0
36.937,129.99
36.953,132.8
36.968,136.22
36.984,139.4
37.000,140.97
37.015,139.11
37.031,132.11
37.046,118.81
37.062,99.21
37.078,74.73
37.093,47.87
37.109,21.66
37.125,-1.16
37.140,-18.81
37.156,-30.78
37.171,-37.67
37.187,-40.84
37.203,-41.92
37.218,-42.29
37.234,-42.97
37.250,-44.58
37.265,-47.23
37.281,-50.68
37.296,-54.3
37.312,-57.27
37.328,-58.92
37.343,-59.14
37.359,-58.46
37.375,-57.97
37.390,-58.83
37.406,-61.52
37.421,-65.43
37.437,-68.91
37.453,-69.84
37.468,-66.56
37.484,-58.77
37.500,-47.8
37.515,-36.29
37.531,-27.32
37.546,-23.32
37.562,-25.33
37.578,-32.73
37.593,-43.47
37.609,-54.67
37.625,-63.55
37.640,-68.14
37.656,-67.81
37.671,-63.46
37.687,-57.15
37.703,-51.51
37.718,-48.83
37.734,-50.43
37.750,-56.33
37.765,-65.59
37.781,-76.74
37.796,-88.4
37.812,-99.59
37.828,-109.64
37.843,-118.07
37.859,-124.38
37.875,-127.97
37.890,-128.34
37.906,-125.18
37.921,-118.38
37.937,-108.01
37.953,-94.22
37.968,-77.27
37.984,-57.74
38.000,-36.63
38.015,-15.34
38.031,4.5
38.046,21.44
38.062,34.51
38.078,43.42
38.093,48.52
38.109,50.61
38.125,50.69
38.140,49.67
38.156,48.25
38.171,46.82
38.187,45.47
38.203,44.01
38.218,42.15
38.234,39.59
38.250,36.19
38.265,32.06
38.281,27.54
38.296,23.06
38.312,18.99
38.328,15.45
38.343,12.24
38.359,8.98
38.375,5.26
38.390,0.84
38.406,-4.19
38.421,-9.54
38.437,-14.79
38.453,-19.64
38.468,-23.98
38.484,-27.95
38.500,-31.82
38.515,-35.96
38.531,-40.61
38.546,-45.77
38.562,-51.07
38.578,-55.75
38.593,-58.75
38.609,-58.98
38.625,-55.67
38.640,-48.73
38.656,-38.76
38.671,-26.9
38.687,-14.47
38.703,-2.5
38.718,8.45
38.734,18.4
38.750,27.55
38.765,36.05
38.781,43.73
38.796,50.15
38.812,54.89
38.828,57.78
38.843,59.09
38.859,59.31
38.875,58.92
38.890,58.09
38.906,56.66
38.921,54.37
38.937,51.19
38.953,47.61
38.968,44.39
38.984,42.22
39.000,41.27
39.015,41.03
39.031,40.55
39.046,38.9
39.062,35.7
39.078,31.18
39.093,26.04
39.109,21.03
39.125,16.54
39.140,12.43
39.156,8.23
39.171,3.39
39.187,-2.34
39.203,-8.74
39.218,-15.29
39.234,-21.31
39.250,-26.33
39.265,-30.28
39.281,-33.48
39.296,-36.56
39.312,-40.13
39.328,-44.56
39.343,-49.86
39.359,-55.7
39.375,-61.59
39.390,-66.92
39.406,-71.05
39.421,-73.31
39.437,-73.07
39.453,-69.82
39.468,-63.42
39.484,-54.21
39.500,-42.98
39.515,-30.82
39.531,-18.83
39.546,-7.84
39.562,1.75
39.578,9.81
39.593,16.4
39.609,21.61
39.625,25.42
39.640,27.83
39.656,28.94
39.671,29.09
39.687,28.76
39.703,28.5
39.718,28.69
39.734,29.48
39.750,30.77
39.765,32.31
39.781,33.82
39.796,35.12
39.812,36.16
39.828,36.97
39.843,37.57
39.859,37.95
39.875,38.02
39.890,37.73
39.906,37.09
39.921,36.31
39.937,35.63
39.953,35.27
39.968,35.34
39.984,35.7
40.000,36.08
40.015,36.07
40.031,35.32
40.046,33.69
40.062,31.22
40.078,28.16
40.093,24.76
40.109,21.31
40.125,17.94
40.140,14.73
40.156,11.59
40.171,8.38
40.187,4.9
40.203,0.94
40.218,-3.53
40.234,-8.24
40.250,-12.53
40.265,-15.62
40.281,-16.76
40.296,-15.68
40.312,-12.62
40.328,-8.32
40.343,-3.64
40.359,0.77
40.375,4.76
40.390,8.67
40.406,13.11
40.421,18.74
40.437,26.1
40.453,35.45
40.468,46.63
40.484,59.0
40.500,71.37
40.515,82.31
40.531,90.34
40.546,94.52
40.562,94.66
40.578,91.3
40.593,85.49
40.609,78.25
40.625,70.39
40.640,62.37
40.656,54.52
40.671,47.15
40.687,40.69
40.703,35.57
40.718,32.12
40.734,30.41
40.750,30.2
40.765,30.99
40.781,32.18
40.796,33.11
40.812,33.29
40.828,32.35
40.843,30.09
40.859,26.4
40.875,21.34
40.890,15.11
40.906,8.2
40.921,1.2
40.937,-5.38
40.953,-11.53
40.968,-17.92
40.984,-25.72
41.000,-35.99
41.015,-48.85
41.031,-63.13
41.046,-76.5
41.062,-86.4
41.078,-91.16
41.093,-90.7
41.109,-86.57
41.125,-81.11
41.140,-76.38
41.156,-73.34
41.171,-71.76
41.187,-70.74
41.203,-69.45
41.218,-67.78
41.234,-66.23
41.250,-65.52
41.265,-65.92
41.281,-66.85
41.296,-66.97
41.312,-64.74
41.328,-59.08
41.343,-49.95
41.359,-38.4
41.375,-25.99
41.390,-14.24
41.406,-4.05
41.421,4.43
41.437,11.61
41.453,17.93
41.468,23.53
41.484,28.15
41.500,31.24
41.515,32.37
41.531,31.39
41.546,28.51
41.562,24.13
41.578,18.61
41.593,12.19
41.609,5.02
41.625,-2.69
41.640,-10.59
41.656,-18.25
41.671,-25.26
41.687,-31.54
41.703,-37.22
41.718,-42.71
41.734,-48.37
41.750,-54.34
41.765,-60.4
41.781,-66.0
41.796,-70.4
41.812,-72.9
41.828,-73.07
41.843,-70.77
41.859,-66.19
41.875,-59.76
41.890,-52.0
41.906,-43.36
41.921,-34.21
41.937,-24.8
41.953,-15.35
41.968,-6.1
41.984,2.73
42.000,10.93
42.015,18.3
42.031,24.72
42.046,30.13
42.062,34.56
42.078,38.11
42.093,40.96
42.109,43.35
42.125,45.5
42.140,47.62
42.156,49.86
42.171,52.31
42.187,54.95
42.203,57.63
42.218,60.11
42.234,62.1
42.250,63.46
42.265,64.23
42.281,64.63
42.296,65.02
42.312,65.69
42.328,66.67
42.343,67.68
42.359,68.25
42.375,67.82
42.390,66.01
42.406,62.67
42.421,57.9
42.437,52.02
42.453,45.4
42.468,38.39
42.484,31.21
42.500,23.97
42.515,16.66
42.531,9.34
42.546,2.19
42.562,-4.31
42.578,-9.62
42.593,-13.31
42.609,-15.35
42.625,-16.23
42.640,-16.91
42.656,-18.47
42.671,-21.74
42.687,-27.08
42.703,-34.24
42.718,-42.48
42.734,-50.81
42.750,-58.11
42.765,-63.38
42.781,-65.94
42.796,-65.77
42.812,-63.53
42.828,-60.71
42.843,-59.38
42.859,-61.68
42.875,-69.34
42.890,-82.97
42.906,-102.0
42.921,-124.58
42.937,-148.12
42.953,-169.86
42.968,-187.63
42.984,-200.28
43.000,-207.74
43.015,-210.83
43.031,-210.63
43.046,-208.18
43.062,-204.07
43.078,-198.58
43.093,-191.74
43.109,-183.5
43.125,-173.72
43.140,-162.12
43.156,-148.5
43.171,-132.85
43.187,-115.63
43.203,-97.84
43.218,-80.86
43.234,-66.07
43.250,-54.34
43.265,-45.67
43.281,-39.09
43.296,-33.04
43.312,-25.91
43.328,-16.58
43.343,-4.71
43.359,9.21
43.375,24.13
43.390,38.96
43.406,52.9
43.421,65.73
43.437,77.59
43.453,88.65
43.468,98.87
43.484,107.82
43.500,114.96
43.515,119.91
43.531,122.72
43.546,123.93
43.562,124.27
43.578,124.4
43.593,124.6
43.609,124.7
43.625,124.29
43.640,122.99
43.656,120.68
43.671,117.6
43.687,114.12
43.703,110.48
43.718,106.67
43.734,102.48
43.750,97.66
43.765,92.28
43.781,86.77
43.796,81.87
43.812,78.39
43.828,76.71
43.843,76.68
43.859,77.5
43.875,78.05
43.890,77.16
43.906,74.05
43.921,68.41
43.937,60.49
43.953,50.9
43.968,40.31
43.984,29.34
44.000,18.33
44.015,7.46
44.031,-3.14
44.046,-13.07
44.062,-21.71
44.078,-28.38
44.093,-32.52
44.109,-34.08
44.125,-33.43
44.140,-31.16
44.156,-27.78
44.171,-23.65
44.187,-19.06
44.203,-14.47
44.218,-10.63
44.234,-8.2
44.250,-7.35
44.265,-7.26
44.281,-6.45
44.296,-3.43
44.312,2.37
44.328,10.11
44.343,17.83
44.359,23.32
44.375,25.32
44.390,23.86
44.406,20.2
44.421,15.94
44.437,12.34
44.453,10.25
44.468,10.25
44.484,13.13
44.500,19.68
44.515,30.17
44.531,43.64
44.546,57.79
44.562,69.57
44.578,76.19
44.593,76.18
44.609,69.54
44.625,57.35
44.640,40.96
44.656,21.64
44.671,0.67
44.687,-20.3
44.703,-38.93
44.718,-52.89
44.734,-60.68
44.750,-62.54
44.765,-60.61
44.781,-58.01
44.796,-57.54
44.812,-60.51
44.828,-66.39
44.843,-73.22
44.859,-78.82
44.875,-81.54
44.890,-80.64
44.906,-76.12
44.921,-68.41
44.937,-58.08
44.953,-45.89
44.968,-32.99
44.984,-20.71
45.000,-10.39
45.015,-2.81
45.031,2.09
45.046,5.19
45.062,7.73
45.078,10.69
45.093,14.45
45.109,18.75
45.125,23.19
45.140,27.58
45.156,32.19
45.171,37.59
45.187,44.13
45.203,51.67
45.218,59.43
45.234,66.34
45.250,71.48
45.265,74.49
45.281,75.55
45.296,75.13
45.312,73.72
45.328,71.56
45.343,68.77
45.359,65.45
45.375,61.78
45.390,57.86
45.406,53.43
45.421,47.87
45.437,40.76
45.453,32.39
45.468,24.08
45.484,17.83
45.500,15.8
45.515,19.44
45.531,28.87
45.546,42.54
45.562,57.49
45.578,70.1
45.593,77.31
45.609,77.55
45.625,71.37
45.640,61.14
45.656,49.94
45.671,39.99
45.687,31.64
45.703,23.37
45.718,12.97
45.734,-0.67
45.750,-16.62
45.765,-32.13
45.781,-44.12
45.796,-50.9
45.812,-52.92
45.828,-52.16
45.843,-50.7
45.859,-49.67
45.875,-48.91
45.890,-47.58
45.906,-45.25
45.921,-42.47
45.937,-40.66
45.953,-41.34
45.968,-45.09
45.984,-51.29
46.000,-58.49
46.015,-65.15
46.031,-70.27
46.046,-73.59
46.062,-75.34
46.078,-75.88
46.093,-75.28
46.109,-73.35
46.125,-69.82
46.140,-64.65
46.156,-58.05
46.171,-50.46
46.187,-42.36
46.203,-34.24
46.218,-26.58
46.234,-19.9
46.250,-14.7
46.265,-11.39
46.281,-10.04
46.296,-10.21
46.312,-11.02
46.328,-11.56
46.343,-11.11
46.359,-9.54
46.375,-7.19
46.390,-4.69
46.406,-2.67
46.421,-1.51
46.437,-1.27
46.453,-1.79
46.468,-2.9
46.484,-4.51
46.500,-6.74
46.515,-9.75
46.531,-13.73
46.546,-18.63
46.562,-24.18
46.578,-29.88
46.593,-35.1
46.609,-39.32
46.625,-42.28
46.640,-44.15
46.656,-45.4
46.671,-46.7
46.687,-48.55
46.703,-51.18
46.718,-54.45
46.734,-57.91
46.750,-60.94
46.765,-62.78
46.781,-62.7
46.796,-60.09
46.812,-54.59
46.828,-46.3
46.843,-35.83
46.859,-24.19
46.875,-12.47
46.890,-1.56
46.906,8.1
46.921,16.42
46.937,23.54
46.953,29.52
46.968,34.33
46.984,37.88
47.000,40.12
47.015,41.32
47.031,41.96
47.046,42.63
47.062,43.77
47.078,45.47
47.093,47.46
47.109,49.27
47.125,50.48
47.140,50.91
47.156,50.68
47.171,50.08
47.187,49.42
47.203,48.84
47.218,48.18
47.234,47.18
47.250,45.65
47.265,43.59
47.281,41.24
47.296,38.95
47.312,37.0
47.328,35.46
47.343,34.22
47.359,33.0
47.375,31.5
47.390,29.65
47.406,27.48
47.421,25.15
47.437,22.9
47.453,20.78
47.468,18.72
47.484,16.57
47.500,14.2
47.515,11.6
47.531,9.01
47.546,6.73
47.562,5.06
47.578,4.13
47.593,3.78
47.609,3.68
47.625,3.55
47.640,3.31
47.656,3.06
47.671,3.06
47.687,3.44
47.703,4.13
47.718,4.84
47.734,5.06
47.750,4.39
47.765,2.61
47.781,-0.25
47.796,-3.94
47.812,-8.1
47.828,-12.35
47.843,-16.36
47.859,-19.82
47.875,-22.68
47.890,-25.08
47.906,-27.36
47.921,-29.96
47.937,-33.08
47.953,-36.65
47.968,-40.29
47.984,-43.56
48.000,-46.16
48.015,-48.25
48.031,-50.34
48.046,-53.16
48.062,-57.25
48.078,-62.66
48.093,-68.92
48.109,-75.05
48.125,-79.88
48.140,-82.15
48.156,-80.97
48.171,-75.87
48.187,-67.05
48.203,-55.39
48.218,-42.08
48.234,-28.53
48.250,-15.85
48.265,-4.72
48.281,4.64
48.296,12.27
48.312,18.36
48.328,23.06
48.343,26.52
48.359,28.92
48.375,30.47
48.390,31.44
48.406,32.0
48.421,32.27
48.437,32.25
48.453,31.96
48.468,31.45
48.484,30.8
48.500,30.08
48.515,29.25
48.531,28.21
48.546,26.77
48.562,24.77
48.578,22.14
48.593,19.01
48.609,15.62
48.625,12.26
48.640,9.11
48.656,6.13
48.671,3.11
48.687,-0.29
48.703,-4.41
48.718,-9.41
48.734,-15.25
48.750,-21.65
48.765,-28.12
48.781,-33.94
48.796,-38.24
48.812,-40.14
48.828,-39.0
48.843,-34.59
48.859,-27.24
48.875,-17.83
48.890,-7.47
48.906,2.73
48.921,12.03
48.937,20.04
48.953,26.67
48.968,31.97
48.984,35.97
49.000,38.68
49.015,40.06
49.031,40.15
49.046,39.1
49.062,37.21
49.078,34.86
49.093,32.47
49.109,30.31
49.125,28.5
49.140,26.91
49.156,25.29
49.171,23.38
49.187,21.05
49.203,18.26
49.218,15.08
49.234,11.52
49.250,7.47
49.265,2.87
49.281,-2.19
49.296,-7.48
49.312,-12.63
49.328,-17.35
49.343,-21.66
49.359,-25.9
49.375,-30.52
49.390,-35.9
49.406,-41.87
49.421,-47.72
49.437,-52.24
49.453,-54.14
49.468,-52.44
49.484,-46.91
49.500,-38.03
49.515,-26.95
49.531,-15.05
49.546,-3.53
49.562,6.82
49.578,15.6
49.593,22.72
49.609,28.21
49.625,32.0
49.640,34.02
49.656,34.31
49.671,33.02
49.687,30.65
49.703,27.84
49.718,25.19
49.734,23.13
49.750,21.77
49.765,20.9
49.781,20.15
49.796,19.13
49.812,17.61
49.828,15.55
49.843,13.03
49.859,10.14
49.875,6.93
49.890,3.36
49.906,-0.58
49.921,-4.84
49.937,-9.38
49.953,-14.18
49.968,-19.22
49.984,-24.57
50.000,-30.3
50.015,-36.35
50.031,-42.47
50.046,-48.19
50.062,-52.75
50.078,-55.29
50.093,-55.02
50.109,-51.39
50.125,-44.36
50.140,-34.49
50.156,-22.83
50.171,-10.64
50.187,0.91
50.203,11.14
50.218,19.82
50.234,27.01
50.250,32.84
50.265,37.23
50.281,40.0
50.296,40.94
50.312,40.16
50.328,38.03
50.343,35.22
50.359,32.41
50.375,30.02
50.390,28.19
50.406,26.76
50.421,25.54
50.437,24.35
50.453,23.1
50.468,21.69
50.484,19.98
50.500,17.73
50.515,14.78
50.531,11.14
50.546,6.98
50.562,2.62
50.578,-1.72
50.593,-6.0
50.609,-10.45
50.625,-15.34
50.640,-20.86
50.656,-26.97
50.671,-33.34
50.687,-39.5
50.703,-44.78
50.718,-48.52
50.734,-50.05
50.750,-48.83
50.765,-44.48
50.781,-36.96
50.796,-26.73
50.812,-14.65
50.828,-1.79
50.843,10.79
50.859,22.28
50.875,32.21
50.890,40.46
50.906,47.05
50.921,52.07
50.937,55.55
50.953,57.62
50.968,58.46
50.984,58.43
51.000,57.95
51.015,57.34
51.031,56.84
51.046,56.41
51.062,55.83
51.078,54.88
51.093,53.47
51.109,51.66
51.125,49.69
51.140,47.82
51.156,46.22
51.171,44.9
51.187,43.7
51.203,42.41
51.218,40.86
51.234,39.01
51.250,36.98
51.265,34.96
51.281,33.17
51.296,31.73
51.312,30.58
51.328,29.57
51.343,28.48
51.359,27.19
51.375,25.72
51.390,24.22
51.406,22.89
51.421,21.84
51.437,20.96
51.453,20.01
51.468,18.74
51.484,17.08
51.500,15.15
51.515,13.26
51.531,11.62
51.546,10.29
51.562,9.04
51.578,7.58
51.593,5.7
51.609,3.43
51.625,0.97
51.640,-1.39
51.656,-3.47
51.671,-5.36
51.687,-7.21
51.703,-9.17
51.718,-11.24
51.734,-13.25
51.750,-14.97
51.765,-16.35
51.781,-17.47
51.796,-18.62
51.812,-20.24
51.828,-22.63
51.843,-25.94
51.859,-30.16
51.875,-35.03
51.890,-40.18
51.906,-45.21
51.921,-49.81
51.937,-53.9
51.953,-57.64
51.968,-61.35
51.984,-65.41
52.000,-70.17
52.015,-75.77
52.031,-82.06
52.046,-88.55
52.062,-94.3
52.078,-98.04
52.093,-98.45
52.109,-94.52
52.125,-85.98
52.140,-73.44
52.156,-58.24
52.171,-42.05
52.187,-26.35
52.203,-12.12
52.218,0.21
52.234,10.49
52.250,18.67
52.265,24.65
52.281,28.43
52.296,30.25
52.312,30.57
52.328,30.03
52.343,29.26
52.359,28.68
52.375,28.42
52.390,28.45
52.406,28.59
52.421,28.7
52.437,28.63
52.453,28.28
52.468,27.52
52.484,26.23
52.500,24.36
52.515,21.87
52.531,18.82
52.546,15.34
52.562,11.55
52.578,7.56
52.593,3.55
52.609,-0.32
52.625,-3.93
52.640,-7.29
52.656,-10.63
52.671,-14.32
52.687,-18.67
52.703,-23.61
52.718,-28.54
52.734,-32.36
52.750,-33.86
52.765,-32.14
52.781,-27.02
52.796,-19.18
52.812,-9.74
52.828,0.07
52.843,9.41
52.859,17.9
52.875,25.5
52.890,32.23
52.906,37.98
52.921,42.54
52.937,45.74
52.953,47.66
52.968,48.63
52.984,49.14
53.000,49.67
53.015,50.52
53.031,51.71
53.046,53.05
53.062,54.25
53.078,55.02
53.093,55.25
53.109,54.98
53.125,54.45
53.140,53.96
53.156,53.78
53.171,54.05
53.187,54.64
53.203,55.29
53.218,55.64
53.234,55.5
53.250,54.92
53.265,54.25
53.281,53.93
53.296,54.38
53.312,55.73
53.328,57.79
53.343,60.14
53.359,62.22
53.375,63.64
53.390,64.23
53.406,64.16
53.421,63.73
53.437,63.29
53.453,63.16
53.468,63.51
53.484,64.43
53.500,65.89
53.515,67.69
53.531,69.49
53.546,70.72
53.562,70.6
53.578,68.05
53.593,61.89
53.609,51.01
53.625,34.77
53.640,13.38
53.656,-11.83
53.671,-38.4
53.687,-63.13
53.703,-82.75
53.718,-94.81
53.734,-98.34
53.750,-94.16
53.765,-84.68
53.781,-73.16
53.796,-62.73
53.812,-55.66
53.828,-53.16
53.843,-55.7
53.859,-63.56
53.875,-77.02
53.890,-95.89
53.906,-119.0
53.921,-144.02
53.937,-168.1
53.953,-188.85
53.968,-205.21
53.984,-217.08
54.000,-224.16
54.015,-225.14
54.031,-218.03
54.046,-202.06
54.062,-179.66
54.078,-157.07
54.093,-142.05
54.109,-140.14
54.125,-151.23
54.140,-168.88
54.156,-183.04
54.171,-184.51
54.187,-168.78
54.203,-137.04
54.218,-94.47
54.234,-47.21
54.250,0.06
54.265,44.54
54.281,84.42
54.296,117.71
54.312,141.94
54.328,154.95
54.343,156.21
54.359,147.37
54.375,131.99
54.390,114.29
54.406,97.69
54.421,83.77
54.437,72.15
54.453,61.27
54.468,49.5
54.484,36.19
54.500,22.03
54.515,8.68
54.531,-2.11
54.546,-9.19
54.562,-12.51
54.578,-12.97
54.593,-11.98
54.609,-10.92
54.625,-10.88
54.640,-12.48
54.656,-15.97
54.671,-21.31
54.687,-28.09
54.703,-35.53
54.718,-42.52
54.734,-47.92
54.750,-50.74
54.765,-50.52
54.781,-47.32
54.796,-41.71
54.812,-34.42
54.828,-26.01
54.843,-16.68
54.859,-6.38
54.875,4.88
54.890,16.68
54.906,28.05
54.921,37.68
54.937,44.3
54.953,47.28
54.968,46.85
54.984,44.12
55.000,40.53
55.015,37.49
55.031,35.81
55.046,35.63
55.062,36.5
55.078,37.63
55.093,38.34
55.109,38.17
55.125,37.1
55.140,35.35
55.156,33.35
55.171,31.53
55.187,30.33
55.203,29.98
55.218,30.31
55.234,30.39
55.250,28.47
55.265,22.23
55.281,9.58
55.296,-10.29
55.312,-36.16
55.328,-64.66
55.343,-91.04
55.359,-110.63
55.375,-120.18
55.390,-118.61
55.406,-106.9
55.421,-87.49
55.437,-63.37
55.453,-37.55
55.468,-12.87
55.484,8.2
55.500,23.74
55.515,32.9
55.531,36.2
55.546,35.51
55.562,33.55
55.578,33.05
55.593,35.92
55.609,42.69
55.625,52.67
55.640,64.21
55.656,75.39
55.671,84.43
55.687,90.26
55.703,92.86
55.718,93.4
55.734,93.87
55.750,96.18
55.765,101.03
55.781,107.06
55.796,111.02
55.812,109.04
55.828,98.56
55.843,79.84
55.859,56.15
55.875,32.44
55.890,13.08
55.906,0.16
55.921,-7.09
55.937,-11.36
55.953,-15.48
55.968,-20.95
55.984,-27.51
56.000,-33.72
56.015,-37.99
56.031,-39.39
56.046,-37.71
56.062,-33.09
56.078,-25.67
56.093,-15.42
56.109,-2.49
56.125,12.59
56.140,28.83
56.156,45.11
56.171,60.7
56.187,75.45
56.203,89.64
56.218,103.49
56.234,116.57
56.250,127.66
56.265,134.9
56.281,136.55
56.296,131.62
56.312,120.46
56.328,104.87
56.343,87.79
56.359,72.53
56.375,61.93
56.390,57.5
56.406,58.92
56.421,64.26
56.437,70.74
56.453,75.73
56.468,77.69
56.484,76.45
56.500,72.88
56.515,68.27
56.531,63.67
56.546,59.53
56.562,55.87
56.578,52.53
56.593,49.29
56.609,45.75
56.625,41.18
56.640,34.39
56.656,23.96
56.671,8.79
56.687,-11.24
56.703,-35.02
56.718,-60.14
56.734,-83.45
56.750,-101.49
56.765,-111.2
56.781,-110.77
56.796,-100.36
56.812,-82.64
56.828,-62.59
56.843,-46.49
56.859,-39.98
56.875,-46.09
56.890,-64.01
56.906,-89.25
56.921,-115.46
56.937,-136.9
56.953,-150.44
56.968,-156.35
56.984,-157.36
57.000,-156.71
57.015,-156.55
57.031,-156.95
57.046,-156.37
57.062,-152.83
57.078,-145.09
57.093,-133.13
57.109,-118.0
57.125,-101.15
57.140,-83.77
57.156,-66.58
57.171,-50.1
57.187,-34.99
57.203,-22.22
57.218,-12.89
57.234,-7.78
57.250,-6.97
57.265,-9.65
57.281,-14.39
57.296,-19.7
57.312,-24.56
57.328,-28.79
57.343,-32.93
57.359,-37.85
57.375,-44.17
57.390,-51.8
57.406,-59.72
57.421,-66.25
57.437,-69.62
57.453,-68.5
57.468,-62.35
57.484,-51.6
57.500,-37.26
57.515,-20.77
57.531,-3.46
57.546,13.55
57.562,29.47
57.578,43.77
57.593,56.21
57.609,66.75
57.625,75.55
57.640,83.05
57.656,89.75
57.671,96.13
57.687,102.41
57.703,108.49
57.718,113.93
57.734,118.31
57.750,121.47
57.765,123.76
57.781,126.02
57.796,129.26
57.812,134.3
57.828,141.24
57.843,149.46
57.859,157.79
57.875,164.88
57.890,169.41
57.906,170.18
57.921,166.27
57.937,157.06
57.953,142.87
57.968,125.03
57.984,105.77
58.000,87.4
58.015,71.39
58.031,57.77
58.046,45.45
58.062,33.47
58.078,22.02
58.093,12.86
58.109,8.06
58.125,8.3
58.140,11.76
58.156,14.52
58.171,12.35
58.187,3.06
58.203,-12.47
58.218,-31.19
58.234,-49.54
58.250,-65.35
58.265,-78.49
58.281,-90.0
58.296,-100.74
58.312,-110.73
58.328,-119.15
58.343,-125.02
58.359,-127.54
58.375,-125.87
58.390,-119.08
58.406,-106.43
58.421,-88.25
58.437,-66.82
58.453,-45.99
58.468,-29.71
58.484,-20.14
58.500,-16.54
58.515,-15.75
58.531,-14.08
58.546,-9.31
58.562,-1.63
58.578,6.92
58.593,14.11
58.609,18.92
58.625,21.83
58.640,24.04
58.656,26.49
58.671,29.15
58.687,31.33
58.703,32.36
58.718,32.07
58.734,30.98
58.750,30.16
58.765,30.64
58.781,32.88
58.796,36.63
58.812,40.79
58.828,43.8
58.843,44.22
58.859,41.43
58.875,36.05
58.890,29.8
58.906,24.82
58.921,22.7
58.937,23.67
58.953,26.43
58.968,28.82
58.984,28.58
59.000,24.35
59.015,16.09
59.031,5.01
59.046,-6.85
59.062,-17.26
59.078,-24.55
59.093,-28.12
59.109,-28.62
59.125,-27.92
59.140,-28.48
59.156,-32.54
59.171,-41.4
59.187,-54.89
59.203,-71.5
59.218,-88.88
59.234,-104.7
59.250,-117.24
59.265,-125.94
59.281,-131.26
59.296,-134.13
59.312,-135.27
59.328,-134.47
59.343,-130.47
59.359,-121.51
59.375,-106.55
59.390,-86.25
59.406,-63.34
59.421,-41.78
59.437,-25.28
59.453,-15.68
59.468,-12.45
59.484,-13.23
59.500,-15.3
59.515,-16.99
59.531,-18.22
59.546,-20.11
59.562,-23.72
59.578,-29.2
59.593,-35.55
59.609,-41.04
59.625,-44.22
59.640,-44.76
59.656,-43.57
59.671,-42.37
59.687,-42.75
59.703,-45.28
59.718,-49.18
59.734,-52.7
59.750,-53.85
59.765,-51.31
59.781,-45.0
59.796,-36.07
59.812,-26.23
59.828,-17.09
59.843,-9.48
59.859,-3.21
59.875,2.52
59.890,8.69
59.906,15.86
59.921,23.97
59.937,32.23
59.953,39.42
59.968,44.21
59.984,45.63
