timestamp,value
00.000,-128.31
00.015,-114.99
00.031,-101.79
00.046,-89.98
00.062,-79.98
00.078,-71.72
00.093,-64.94
00.109,-59.44
00.125,-55.16
00.140,-52.03
00.156,-49.84
00.171,-48.24
00.187,-46.74
00.203,-44.95
00.218,-42.67
00.234,-40.08
00.250,-37.54
00.265,-35.63
00.281,-34.77
00.296,-35.21
00.312,-36.94
00.328,-39.81
00.343,-43.71
00.359,-48.53
00.375,-54.09
00.390,-59.83
00.406,-64.77
00.421,-67.48
00.437,-66.43
00.453,-60.33
00.468,-48.58
00.484,-31.43
00.500,-10.0
00.515,14.02
00.531,38.7
00.546,62.29
00.562,83.58
00.578,101.9
00.593,117.19
00.609,129.75
00.625,140.04
00.640,148.44
00.656,155.09
00.671,159.91
00.687,162.53
00.703,162.45
00.718,159.14
00.734,152.27
00.750,142.01
00.765,129.27
00.781,115.63
00.796,102.91
00.812,92.58
00.828,85.07
00.843,79.7
00.859,74.9
00.875,68.88
00.890,60.19
00.906,48.11
00.921,32.62
00.937,14.17
00.953,-6.41
00.968,-28.17
00.984,-49.92
01.000,-70.38
01.015,-88.27
01.031,-102.61
01.046,-113.03
01.062,-119.81
01.078,-123.91
01.093,-126.72
01.109,-129.81
01.125,-134.53
01.140,-141.7
01.156,-151.27
01.171,-162.21
01.187,-172.8
01.203,-180.98
01.218,-184.97
01.234,-183.64
01.250,-176.77
01.265,-164.82
01.281,-148.83
01.296,-129.99
01.312,-109.46
01.328,-88.26
01.343,-67.22
01.359,-46.97
01.375,-27.93
01.390,-10.37
01.406,5.65
01.421,20.14
01.437,33.18
01.453,44.87
01.468,55.31
01.484,64.62
01.500,72.91
01.515,80.32
01.531,86.95
01.546,92.94
01.562,98.45
01.578,103.6
01.593,108.48
01.609,113.07
01.625,117.19
01.640,120.51
01.656,122.7
01.671,123.55
01.687,123.15
01.703,121.83
01.718,119.93
01.734,117.61
01.750,114.65
01.765,110.64
01.781,105.23
01.796,98.38
01.812,90.49
01.828,82.25
01.843,74.32
01.859,67.02
01.875,60.32
01.890,53.89
01.906,47.32
01.921,40.32
01.937,32.79
01.953,24.72
01.968,16.12
01.984,6.85
02.000,-3.42
02.015,-15.1
02.031,-28.54
02.046,-43.85
02.062,-60.72
02.078,-78.38
02.093,-95.69
02.109,-111.32
02.125,-124.01
02.140,-132.68
02.156,-136.61
02.171,-135.51
02.187,-129.57
02.203,-119.51
02.218,-106.43
02.234,-91.66
02.250,-76.43
02.265,-61.75
02.281,-48.26
02.296,-36.31
02.312,-26.15
02.328,-17.98
02.343,-11.88
02.359,-7.75
02.375,-5.2
02.390,-3.62
02.406,-2.35
02.421,-0.92
02.437,0.83
02.453,2.76
02.468,4.61
02.484,6.21
02.500,7.53
02.515,8.73
02.531,9.93
02.546,11.16
02.562,12.33
02.578,13.24
02.593,13.69
02.609,13.64
02.625,13.13
02.640,12.25
02.656,11.22
02.671,10.2
02.687,9.29
02.703,8.55
02.718,7.9
02.734,7.11
02.750,5.99
02.765,4.33
02.781,2.12
02.796,-0.43
02.812,-3.01
02.828,-5.34
02.843,-7.26
02.859,-9.0
02.875,-11.02
02.890,-13.91
02.906,-18.15
02.921,-23.84
02.937,-30.6
02.953,-37.51
02.968,-43.32
02.984,-46.65
03.000,-46.49
03.015,-42.3
03.031,-34.24
03.046,-23.06
03.062,-9.92
03.078,3.92
03.093,17.35
03.109,29.62
03.125,40.4
03.140,49.63
03.156,57.48
03.171,64.11
03.187,69.62
03.203,74.06
03.218,77.5
03.234,80.04
03.250,81.88
03.265,83.14
03.281,83.84
03.296,83.89
03.312,83.16
03.328,81.56
03.343,79.25
03.359,76.55
03.375,73.81
03.390,71.32
03.406,69.08
03.421,66.95
03.437,64.66
03.453,61.97
03.468,58.81
03.484,55.26
03.500,51.5
03.515,47.68
03.531,43.86
03.546,40.01
03.562,36.05
03.578,31.86
03.593,27.45
03.609,22.9
03.625,18.37
03.640,14.01
03.656,9.93
03.671,6.14
03.687,2.48
03.703,-1.27
03.718,-5.42
03.734,-10.1
03.750,-15.18
03.765,-20.13
03.781,-24.09
03.796,-26.07
03.812,-25.21
03.828,-21.12
03.843,-13.94
03.859,-4.44
03.875,6.34
03.890,17.27
03.906,27.52
03.921,36.7
03.937,44.92
03.953,52.56
03.968,60.03
03.984,67.51
04.000,74.76
04.015,81.22
04.031,86.28
04.046,89.65
04.062,91.59
04.078,92.87
04.093,94.49
04.109,97.2
04.125,101.22
04.140,106.11
04.156,111.05
04.171,115.27
04.187,118.31
04.203,120.31
04.218,121.7
04.234,123.08
04.250,124.86
04.265,127.19
04.281,129.83
04.296,132.16
04.312,133.13
04.328,131.33
04.343,125.36
04.359,114.32
04.375,98.27
04.390,78.42
04.406,56.93
04.421,36.18
04.437,17.99
04.453,2.97
04.468,-9.57
04.484,-21.09
04.500,-33.04
04.515,-45.95
04.531,-59.06
04.546,-70.64
04.562,-78.74
04.578,-81.99
04.593,-80.1
04.609,-73.89
04.625,-64.75
04.640,-54.06
04.656,-42.7
04.671,-31.01
04.687,-19.13
04.703,-7.34
04.718,3.67
04.734,13.03
04.750,20.03
04.765,24.54
04.781,27.09
04.796,28.69
04.812,30.43
04.828,33.24
04.843,37.76
04.859,44.43
04.875,53.53
04.890,64.89
04.906,77.6
04.921,89.69
04.937,98.52
04.953,101.33
04.968,96.39
04.984,83.73
05.000,65.1
05.015,43.42
05.031,21.77
05.046,2.66
05.062,-12.41
05.078,-22.77
05.093,-28.53
05.109,-30.44
05.125,-29.8
05.140,-28.21
05.156,-27.01
05.171,-26.76
05.187,-26.91
05.203,-26.19
05.218,-23.26
05.234,-17.68
05.250,-10.22
05.265,-2.48
05.281,3.99
05.296,8.5
05.312,11.44
05.328,13.79
05.343,16.3
05.359,18.75
05.375,19.96
05.390,18.57
05.406,14.34
05.421,8.87
05.437,5.55
05.453,7.97
05.468,17.94
05.484,33.83
05.500,50.58
05.515,61.34
05.531,60.11
05.546,44.05
05.562,14.11
05.578,-25.67
05.593,-69.77
05.609,-112.48
05.625,-148.57
05.640,-173.22
05.656,-182.53
05.671,-174.64
05.687,-151.06
05.703,-117.41
05.718,-82.31
05.734,-54.71
05.750,-40.77
05.765,-41.94
05.781,-55.03
05.796,-74.16
05.812,-93.33
05.828,-108.23
05.843,-116.88
05.859,-119.06
05.875,-115.64
05.890,-108.22
05.906,-99.25
05.921,-92.04
05.937,-90.11
05.953,-96.31
05.968,-111.32
05.984,-133.25
06.000,-157.93
06.015,-180.28
06.031,-196.02
06.046,-202.87
06.062,-200.95
06.078,-192.27
06.093,-179.64
06.109,-165.63
06.125,-151.99
06.140,-139.41
06.156,-127.88
06.171,-117.19
06.187,-107.37
06.203,-98.84
06.218,-92.19
06.234,-87.86
06.250,-85.64
06.265,-84.66
06.281,-83.48
06.296,-80.47
06.312,-74.44
06.328,-64.96
06.343,-52.42
06.359,-37.77
06.375,-22.03
06.390,-6.05
06.406,9.59
06.421,24.37
06.437,37.72
06.453,48.94
06.468,57.42
06.484,62.72
06.500,64.74
06.515,63.52
06.531,59.18
06.546,52.01
06.562,42.84
06.578,33.36
06.593,26.16
06.609,24.14
06.625,29.39
06.640,42.07
06.656,60.06
06.671,79.44
06.687,95.87
06.703,106.08
06.718,108.76
06.734,104.64
06.750,95.8
06.765,84.8
06.781,74.03
06.796,65.46
06.812,60.62
06.828,60.47
06.843,65.09
06.859,73.24
06.875,82.22
06.890,88.49
06.906,88.71
06.921,80.92
06.937,65.38
06.953,44.5
06.968,21.98
06.984,1.65
07.000,-13.76
07.015,-23.08
07.031,-26.64
07.046,-25.78
07.062,-22.2
07.078,-17.32
07.093,-12.16
07.109,-7.11
07.125,-2.04
07.140,3.63
07.156,10.87
07.171,20.7
07.187,33.9
07.203,50.55
07.218,69.95
07.234,90.57
07.250,110.59
07.265,128.44
07.281,143.44
07.296,155.9
07.312,166.82
07.328,177.31
07.343,188.0
07.359,198.88
07.375,209.22
07.390,217.96
07.406,224.07
07.421,226.63
07.437,224.91
07.453,218.45
07.468,207.2
07.484,191.66
07.500,173.0
07.515,152.65
07.531,131.52
07.546,109.54
07.562,85.51
07.578,58.04
07.593,26.73
07.609,-6.69
07.625,-38.11
07.640,-61.85
07.656,-72.63
07.671,-67.9
07.687,-49.42
07.703,-23.29
07.718,1.8
07.734,17.35
07.750,18.02
07.765,2.98
07.781,-24.16
07.796,-57.36
07.812,-90.6
07.828,-119.92
07.843,-144.26
07.859,-164.76
07.875,-183.5
07.890,-202.33
07.906,-222.42
07.921,-244.42
07.937,-268.78
07.953,-295.62
07.968,-324.28
07.984,-352.86
08.000,-378.16
08.015,-396.07
08.031,-402.65
08.046,-395.28
08.062,-373.41
08.078,-338.95
08.093,-295.86
08.109,-249.18
08.125,-204.08
08.140,-164.61
08.156,-132.92
08.171,-109.08
08.187,-91.45
08.203,-77.5
08.218,-64.83
08.234,-51.9
08.250,-38.13
08.265,-23.66
08.281,-8.94
08.296,5.6
08.312,19.5
08.328,32.33
08.343,43.59
08.359,52.91
08.375,60.17
08.390,65.44
08.406,68.74
08.421,69.9
08.437,68.49
08.453,64.04
08.468,56.44
08.484,46.23
08.500,34.76
08.515,24.1
08.531,16.82
08.546,15.48
08.562,21.83
08.578,35.98
08.593,55.76
08.609,76.97
08.625,94.55
08.640,104.15
08.656,103.73
08.671,93.94
08.687,77.69
08.703,58.91
08.718,41.45
08.734,28.35
08.750,21.61
08.765,21.9
08.781,28.3
08.796,38.13
08.812,47.53
08.828,52.68
08.843,51.36
08.859,43.92
08.875,32.9
08.890,21.71
08.906,13.03
08.921,7.82
08.937,5.63
08.953,5.47
08.968,6.82
08.984,9.8
09.000,14.6
09.015,20.59
09.031,26.0
09.046,28.31
09.062,25.47
09.078,16.97
09.093,4.41
09.109,-8.94
09.125,-19.29
09.140,-23.95
09.156,-22.43
09.171,-16.71
09.187,-10.53
09.203,-7.93
09.218,-11.87
09.234,-23.32
09.250,-41.24
09.265,-63.22
09.281,-86.42
09.296,-108.07
09.312,-125.91
09.328,-138.23
09.343,-144.05
09.359,-143.43
09.375,-137.73
09.390,-129.38
09.406,-121.27
09.421,-115.57
09.437,-112.86
09.453,-111.95
09.468,-110.55
09.484,-106.44
09.500,-98.39
09.515,-86.65
09.531,-72.6
09.546,-58.01
09.562,-44.29
09.578,-32.21
09.593,-21.98
09.609,-13.53
09.625,-6.65
09.640,-1.07
09.656,3.69
09.671,8.28
09.687,13.52
09.703,20.09
09.718,28.21
09.734,37.48
09.750,46.95
09.765,55.59
09.781,62.62
09.796,67.93
09.812,72.07
09.828,75.9
09.843,80.29
09.859,85.65
09.875,91.83
09.890,98.22
09.906,104.09
09.921,108.96
09.937,112.85
09.953,116.3
09.968,120.06
09.984,124.74
10.000,130.5
10.015,136.86
10.031,142.91
10.046,147.71
10.062,150.7
10.078,151.93
10.093,152.15
10.109,152.42
10.125,153.72
10.140,156.55
10.156,160.64
10.171,165.13
10.187,168.89
10.203,171.02
10.218,171.22
10.234,169.82
10.250,167.52
10.265,165.11
10.281,162.94
10.296,160.62
10.312,156.93
10.328,149.96
10.343,137.57
10.359,118.12
10.375,91.0
10.390,57.04
10.406,18.28
10.421,-22.67
10.437,-63.56
10.453,-103.22
10.468,-141.88
10.484,-180.96
10.500,-222.03
10.515,-265.72
10.531,-310.76
10.546,-353.79
10.562,-390.03
10.578,-414.74
10.593,-424.75
10.609,-419.54
10.625,-401.49
10.640,-374.98
10.656,-344.98
10.671,-315.66
10.687,-289.61
10.703,-267.94
10.718,-250.92
10.734,-238.61
10.750,-231.1
10.765,-228.32
10.781,-229.44
10.796,-232.52
10.812,-234.67
10.828,-232.72
10.843,-224.2
10.859,-208.21
10.875,-185.74
10.890,-159.2
10.906,-131.46
10.921,-104.85
10.937,-80.57
10.953,-58.74
10.968,-38.96
10.984,-20.94
11.000,-4.88
11.015,8.53
11.031,18.58
11.046,25.0
11.062,28.23
11.078,29.38
11.093,29.82
11.109,30.75
11.125,32.79
11.140,35.86
11.156,39.37
11.171,42.59
11.187,45.05
11.203,46.73
11.218,47.9
11.234,48.91
11.250,49.85
11.265,50.5
11.281,50.32
11.296,48.8
11.312,45.61
11.328,40.83
11.343,34.87
11.359,28.39
11.375,22.08
11.390,16.37
11.406,11.44
11.421,7.07
11.437,2.8
11.453,-1.95
11.468,-7.7
11.484,-14.82
11.500,-23.31
11.515,-32.65
11.531,-41.75
11.546,-48.96
11.562,-52.41
11.578,-50.6
11.593,-42.8
11.609,-29.46
11.625,-12.06
11.640,7.44
11.656,27.19
11.671,45.89
11.687,62.98
11.703,78.36
11.718,92.03
11.734,103.87
11.750,113.57
11.765,120.9
11.781,125.9
11.796,129.05
11.812,131.09
11.828,132.81
11.843,134.81
11.859,137.3
11.875,140.22
11.890,143.28
11.906,146.17
11.921,148.72
11.937,150.9
11.953,152.88
11.968,154.84
11.984,156.85
12.000,158.69
12.015,159.92
12.031,159.95
12.046,158.32
12.062,155.03
12.078,150.55
12.093,145.75
12.109,141.44
12.125,137.98
12.140,135.12
12.156,132.1
12.171,128.05
12.187,122.29
12.203,114.56
12.218,104.97
12.234,94.0
12.250,82.32
12.265,70.84
12.281,60.67
12.296,52.96
12.312,48.57
12.328,47.72
12.343,49.9
12.359,53.92
12.375,58.43
12.390,62.3
12.406,64.97
12.421,66.44
12.437,66.9
12.453,66.54
12.468,65.3
12.484,63.0
12.500,59.47
12.515,54.8
12.531,49.29
12.546,43.45
12.562,37.8
12.578,32.6
12.593,27.82
12.609,23.2
12.625,18.39
12.640,13.22
12.656,7.78
12.671,2.38
12.687,-2.62
12.703,-7.07
12.718,-11.19
12.734,-15.53
12.750,-20.75
12.765,-27.26
12.781,-34.99
12.796,-43.39
12.812,-51.59
12.828,-58.72
12.843,-64.25
12.859,-68.15
12.875,-70.85
12.890,-73.1
12.906,-75.66
12.921,-79.08
12.937,-83.45
12.953,-88.32
12.968,-92.79
12.984,-95.66
13.000,-95.68
13.015,-91.92
13.031,-84.0
13.046,-72.22
13.062,-57.55
13.078,-41.36
13.093,-25.03
13.109,-9.65
13.125,4.3
13.140,16.83
13.156,28.21
13.171,38.67
13.187,48.18
13.203,56.49
13.218,63.36
13.234,68.8
13.250,73.04
13.265,76.48
13.281,79.45
13.296,82.01
13.312,84.02
13.328,85.27
13.343,85.65
13.359,85.22
13.375,84.11
13.390,82.4
13.406,80.05
13.421,76.95
13.437,73.1
13.453,68.63
13.468,63.85
13.484,59.03
13.500,54.27
13.515,49.48
13.531,44.37
13.546,38.7
13.562,32.31
13.578,25.16
13.593,17.31
13.609,8.83
13.625,-0.15
13.640,-9.5
13.656,-18.94
13.671,-28.25
13.687,-37.21
13.703,-45.7
13.718,-53.58
13.734,-60.62
13.750,-66.43
13.765,-70.38
13.781,-71.78
13.796,-70.06
13.812,-65.06
13.828,-57.12
13.843,-47.09
13.859,-36.19
13.875,-25.64
13.890,-16.44
13.906,-9.16
13.921,-3.89
13.937,-0.42
13.953,1.49
13.968,1.91
13.984,0.75
14.000,-2.17
14.015,-6.81
14.031,-12.85
14.046,-19.65
14.062,-26.44
14.078,-32.49
14.093,-37.34
14.109,-40.66
14.125,-42.3
14.140,-42.08
14.156,-39.93
14.171,-35.95
14.187,-30.54
14.203,-24.45
14.218,-18.56
14.234,-13.75
14.250,-10.51
14.265,-8.91
14.281,-8.61
14.296,-8.99
14.312,-9.57
14.328,-10.06
14.343,-10.58
14.359,-11.41
14.375,-12.88
14.390,-15.15
14.406,-18.09
14.421,-21.46
14.437,-24.89
14.453,-28.13
14.468,-31.12
14.484,-34.01
14.500,-37.08
14.515,-40.66
14.531,-45.05
14.546,-50.32
14.562,-56.29
14.578,-62.31
14.593,-67.3
14.609,-69.98
14.625,-69.16
14.640,-64.19
14.656,-55.2
14.671,-43.05
14.687,-29.04
14.703,-14.52
14.718,-0.48
14.734,12.5
14.750,24.24
14.765,34.75
14.781,43.98
14.796,51.89
14.812,58.33
14.828,63.29
14.843,66.73
14.859,68.77
14.875,69.56
14.890,69.34
14.906,68.38
14.921,66.98
14.937,65.43
14.953,63.95
14.968,62.77
14.984,61.96
15.000,61.48
15.015,61.18
15.031,60.83
15.046,60.13
15.062,58.95
15.078,57.21
15.093,54.94
15.109,52.25
15.125,49.21
15.140,45.86
15.156,42.25
15.171,38.42
15.187,34.45
15.203,30.4
15.218,26.31
15.234,22.14
15.250,17.86
15.265,13.47
15.281,9.06
15.296,4.71
15.312,0.5
15.328,-3.56
15.343,-7.52
15.359,-11.43
15.375,-15.34
15.390,-19.25
15.406,-23.24
15.421,-27.46
15.437,-32.16
15.453,-37.58
15.468,-43.76
15.484,-50.35
15.500,-56.59
15.515,-61.42
15.531,-63.72
15.546,-62.66
15.562,-57.92
15.578,-49.86
15.593,-39.43
15.609,-27.79
15.625,-15.98
15.640,-4.76
15.656,5.52
15.671,14.78
15.687,23.06
15.703,30.36
15.718,36.64
15.734,41.73
15.750,45.51
15.765,47.94
15.781,49.14
15.796,49.37
15.812,48.94
15.828,48.19
15.843,47.34
15.859,46.51
15.875,45.73
15.890,44.92
15.906,44.0
15.921,42.96
15.937,41.88
15.953,40.79
15.968,39.69
15.984,38.44
16.000,36.84
16.015,34.73
16.031,32.01
16.046,28.76
16.062,25.18
16.078,21.55
16.093,18.09
16.109,14.92
16.125,12.04
16.140,9.3
16.156,6.54
16.171,3.58
16.187,0.37
16.203,-3.01
16.218,-6.35
16.234,-9.49
16.250,-12.37
16.265,-15.09
16.281,-17.9
16.296,-20.99
16.312,-24.5
16.328,-28.35
16.343,-32.43
16.359,-36.61
16.375,-40.72
16.390,-44.49
16.406,-47.45
16.421,-48.96
16.437,-48.3
16.453,-45.02
16.468,-39.11
16.484,-31.09
16.500,-21.89
16.515,-12.5
16.531,-3.73
16.546,4.08
16.562,10.92
16.578,17.03
16.593,22.64
16.609,27.84
16.625,32.52
16.640,36.45
16.656,39.48
16.671,41.5
16.687,42.62
16.703,43.0
16.718,42.84
16.734,42.26
16.750,41.35
16.765,40.18
16.781,38.87
16.796,37.56
16.812,36.34
16.828,35.22
16.843,34.08
16.859,32.72
16.875,30.96
16.890,28.77
16.906,26.24
16.921,23.56
16.937,20.94
16.953,18.45
16.968,16.04
16.984,13.56
17.000,10.92
17.015,8.12
17.031,5.25
17.046,2.41
17.062,-0.25
17.078,-2.7
17.093,-4.98
17.109,-7.24
17.125,-9.68
17.140,-12.45
17.156,-15.59
17.171,-19.04
17.187,-22.56
17.203,-25.86
17.218,-28.76
17.234,-31.27
17.250,-33.58
17.265,-36.04
17.281,-38.95
17.296,-42.43
17.312,-46.34
17.328,-50.32
17.343,-53.84
17.359,-56.31
17.375,-57.22
17.390,-56.23
17.406,-53.2
17.421,-48.26
17.437,-41.79
17.453,-34.32
17.468,-26.38
17.484,-18.41
17.500,-10.74
17.515,-3.46
17.531,3.39
17.546,9.75
17.562,15.53
17.578,20.48
17.593,24.41
17.609,27.19
17.625,28.87
17.640,29.67
17.656,29.88
17.671,29.77
17.687,29.52
17.703,29.23
17.718,28.86
17.734,28.42
17.750,27.95
17.765,27.45
17.781,26.94
17.796,26.36
17.812,25.63
17.828,24.63
17.843,23.28
17.859,21.54
17.875,19.5
17.890,17.32
17.906,15.19
17.921,13.2
17.937,11.33
17.953,9.42
17.968,7.3
17.984,4.84
18.000,2.1
18.015,-0.7
18.031,-3.32
18.046,-5.61
18.062,-7.53
18.078,-9.24
18.093,-10.93
18.109,-12.81
18.125,-15.02
18.140,-17.58
18.156,-20.46
18.171,-23.49
18.187,-26.5
18.203,-29.32
18.218,-31.82
18.234,-34.02
18.250,-36.06
18.265,-38.14
18.281,-40.52
18.296,-43.33
18.312,-46.52
18.328,-49.77
18.343,-52.5
18.359,-54.0
18.375,-53.61
18.390,-50.94
18.406,-46.03
18.421,-39.34
18.437,-31.6
18.453,-23.6
18.468,-15.91
18.484,-8.8
18.500,-2.36
18.515,3.46
18.531,8.61
18.546,13.01
18.562,16.58
18.578,19.31
18.593,21.28
18.609,22.66
18.625,23.65
18.640,24.36
18.656,24.82
18.671,25.05
18.687,25.05
18.703,24.8
18.718,24.36
18.734,23.77
18.750,23.09
18.765,22.38
18.781,21.7
18.796,21.05
18.812,20.41
18.828,19.72
18.843,18.95
18.859,18.17
18.875,17.44
18.890,16.88
18.906,16.45
18.921,16.0
18.937,15.27
18.953,14.06
18.968,12.26
18.984,10.05
19.000,7.69
19.015,5.51
19.031,3.7
19.046,2.3
19.062,1.17
19.078,0.13
19.093,-0.93
19.109,-1.97
19.125,-2.8
19.140,-3.19
19.156,-2.95
19.171,-2.06
19.187,-0.7
19.203,0.76
19.218,1.93
19.234,2.59
19.250,2.78
19.265,2.75
19.281,2.93
19.296,3.74
19.312,5.54
19.328,8.64
19.343,13.3
19.359,19.7
19.375,27.93
19.390,37.91
19.406,49.31
19.421,61.71
19.437,74.73
19.453,88.14
19.468,101.79
19.484,115.28
19.500,127.72
19.515,137.59
19.531,143.16
19.546,143.15
19.562,137.38
19.578,126.98
19.593,114.08
19.609,100.96
19.625,89.36
19.640,80.03
19.656,72.87
19.671,67.39
19.687,63.15
19.703,60.01
19.718,57.93
19.734,56.72
19.750,55.92
19.765,54.93
19.781,53.32
19.796,51.12
19.812,48.74
19.828,46.85
19.843,46.17
19.859,47.13
19.875,49.94
19.890,54.68
19.906,61.34
19.921,69.85
19.937,79.96
19.953,91.21
19.968,102.77
19.984,113.61
20.000,122.56
20.015,128.54
20.031,130.71
20.046,128.59
20.062,121.98
20.078,110.94
20.093,95.64
20.109,76.38
20.125,53.68
20.140,28.42
20.156,1.96
20.171,-24.1
20.187,-48.14
20.203,-69.05
20.218,-86.57
20.234,-101.38
20.250,-115.06
20.265,-129.8
20.281,-148.05
20.296,-171.72
20.312,-201.35
20.328,-235.07
20.343,-268.36
20.359,-294.84
20.375,-308.32
20.390,-305.18
20.406,-286.02
20.421,-255.71
20.437,-221.74
20.453,-191.53
20.468,-170.21
20.484,-159.49
20.500,-158.08
20.515,-162.93
20.531,-170.58
20.546,-177.85
20.562,-182.29
20.578,-182.15
20.593,-176.64
20.609,-166.05
20.625,-151.66
20.640,-135.43
20.656,-119.28
20.671,-104.72
20.687,-92.41
20.703,-82.31
20.718,-73.84
20.734,-66.18
20.750,-58.48
20.765,-50.06
20.781,-40.59
20.796,-30.22
20.812,-19.54
20.828,-9.27
20.843,-0.05
20.859,7.97
20.875,15.15
20.890,22.22
20.906,29.96
20.921,38.77
20.937,48.56
20.953,58.85
20.968,68.99
20.984,78.46
21.000,86.95
21.015,94.33
21.031,100.59
21.046,105.77
21.062,110.01
21.078,113.54
21.093,116.63
21.109,119.22
21.125,120.71
21.140,119.79
21.156,114.77
21.171,104.26
21.187,87.85
21.203,66.35
21.218,41.48
21.234,15.28
21.250,-10.46
21.265,-34.25
21.281,-54.63
21.296,-70.07
21.312,-79.19
21.328,-81.54
21.343,-78.32
21.359,-72.39
21.375,-67.46
21.390,-66.58
21.406,-70.87
21.421,-79.19
21.437,-88.83
21.453,-96.84
21.468,-101.34
21.484,-101.95
21.500,-99.43
21.515,-95.0
21.531,-89.57
21.546,-83.5
21.562,-76.73
21.578,-69.11
21.593,-60.77
21.609,-52.21
21.625,-44.1
21.640,-37.0
21.656,-31.12
21.671,-26.19
21.687,-21.52
21.703,-16.37
21.718,-10.3
21.734,-3.41
21.750,3.76
21.765,10.52
21.781,16.36
21.796,21.36
21.812,26.05
21.828,31.32
21.843,37.87
21.859,45.88
21.875,54.84
21.890,63.8
21.906,71.75
21.921,78.09
21.937,82.92
21.953,86.94
21.968,91.05
21.984,95.82
22.000,101.16
22.015,106.22
22.031,109.75
22.046,110.56
22.062,107.92
22.078,101.88
22.093,93.32
22.109,83.83
22.125,75.62
22.140,71.12
22.156,72.35
22.171,80.05
22.187,93.02
22.203,107.93
22.218,120.1
22.234,125.03
22.250,119.98
22.265,105.02
22.281,82.78
22.296,57.15
22.312,31.56
22.328,7.95
22.343,-13.32
22.359,-32.52
22.375,-49.33
22.390,-62.31
22.406,-69.14
22.421,-67.77
22.437,-57.61
22.453,-40.09
22.468,-18.39
22.484,3.33
22.500,20.93
22.515,31.33
22.531,33.22
22.546,27.29
22.562,15.7
22.578,0.91
22.593,-15.61
22.609,-34.33
22.625,-57.29
22.640,-86.71
22.656,-123.1
22.671,-163.94
22.687,-203.67
22.703,-235.26
22.718,-252.54
22.734,-252.24
22.750,-235.2
22.765,-206.42
22.781,-173.75
22.796,-146.13
22.812,-131.18
22.828,-132.78
22.843,-149.83
22.859,-176.5
22.875,-204.41
22.890,-225.91
22.906,-236.72
22.921,-236.85
22.937,-229.44
22.953,-218.35
22.968,-205.81
22.984,-191.74
23.000,-174.59
23.015,-153.03
23.031,-127.32
23.046,-99.36
23.062,-71.81
23.078,-46.65
23.093,-24.3
23.109,-3.65
23.125,17.11
23.140,39.37
23.156,63.27
23.171,87.51
23.187,110.02
23.203,128.8
23.218,142.75
23.234,152.07
23.250,158.01
23.265,162.25
23.281,166.36
23.296,171.55
23.312,178.6
23.328,187.97
23.343,199.72
23.359,213.09
23.375,226.13
23.390,235.85
23.406,238.95
23.421,233.04
23.437,217.73
23.453,194.98
23.468,168.68
23.484,143.42
23.500,123.12
23.515,109.88
23.531,103.4
23.546,101.1
23.562,98.85
23.578,92.11
23.593,77.26
23.609,52.85
23.625,20.19
23.640,-16.69
23.656,-52.15
23.671,-80.52
23.687,-97.67
23.703,-102.12
23.718,-95.15
23.734,-80.07
23.750,-61.13
23.765,-42.62
23.781,-28.09
23.796,-20.1
23.812,-19.87
23.828,-26.8
23.843,-38.19
23.859,-49.26
23.875,-54.16
23.890,-47.74
23.906,-27.52
23.921,5.07
23.937,44.81
23.953,84.5
23.968,117.34
23.984,139.06
24.000,148.96
24.015,149.48
24.031,144.85
24.046,139.14
24.062,134.65
24.078,131.01
24.093,125.64
24.109,115.33
24.125,98.0
24.140,73.99
24.156,45.64
24.171,15.79
24.187,-13.95
24.203,-43.84
24.218,-75.21
24.234,-108.38
24.250,-141.15
24.265,-169.08
24.281,-187.36
24.296,-193.51
24.312,-188.75
24.328,-177.2
24.343,-163.4
24.359,-149.76
24.375,-135.73
24.390,-119.07
24.406,-98.56
24.421,-75.92
24.437,-56.19
24.453,-45.84
24.468,-50.32
24.484,-71.62
24.500,-107.57
24.515,-152.33
24.531,-198.01
24.546,-236.62
24.562,-261.98
24.578,-271.3
24.593,-266.1
24.609,-251.87
24.625,-236.34
24.640,-226.64
24.656,-226.66
24.671,-235.69
24.687,-249.05
24.703,-260.41
24.718,-264.54
24.734,-259.0
24.750,-244.21
24.765,-222.2
24.781,-195.2
24.796,-164.9
24.812,-132.6
24.828,-99.88
24.843,-68.81
24.859,-41.68
24.875,-20.2
24.890,-4.67
24.906,6.09
24.921,14.21
24.937,21.81
24.953,30.09
24.968,39.08
24.984,47.8
25.000,55.08
25.015,60.09
25.031,62.83
25.046,64.05
25.062,64.84
25.078,66.2
25.093,68.63
25.109,71.97
25.125,75.59
25.140,78.62
25.156,80.26
25.171,80.03
25.187,77.92
25.203,74.33
25.218,69.99
25.234,65.63
25.250,61.81
25.265,58.67
25.281,56.0
25.296,53.23
25.312,49.8
25.328,45.31
25.343,39.67
25.359,33.17
25.375,26.31
25.390,19.58
25.406,13.35
25.421,7.75
25.437,2.62
25.453,-2.39
25.468,-7.82
25.484,-14.24
25.500,-22.03
25.515,-31.1
25.531,-40.66
25.546,-49.21
25.562,-54.88
25.578,-55.96
25.593,-51.44
25.609,-41.46
25.625,-27.25
25.640,-10.64
25.656,6.47
25.671,22.69
25.687,37.37
25.703,50.37
25.718,61.88
25.734,72.05
25.750,80.89
25.765,88.35
25.781,94.45
25.796,99.37
25.812,103.48
25.828,107.16
25.843,110.69
25.859,114.15
25.875,117.44
25.890,120.39
25.906,122.9
25.921,124.95
25.937,126.56
25.953,127.79
25.968,128.59
25.984,128.85
26.000,128.44
26.015,127.26
26.031,125.25
26.046,122.39
26.062,118.71
26.078,114.26
26.093,109.22
26.109,103.88
26.125,98.55
26.140,93.42
26.156,88.46
26.171,83.21
26.187,77.04
26.203,69.3
26.218,59.62
26.234,48.19
26.250,35.7
26.265,23.24
26.281,11.91
26.296,2.55
26.312,-4.63
26.328,-9.93
26.343,-14.09
26.359,-17.87
26.375,-21.64
26.390,-25.11
26.406,-27.25
26.421,-26.69
26.437,-22.13
26.453,-12.9
26.468,0.81
26.484,17.97
26.500,37.09
26.515,56.75
26.531,75.88
26.546,93.96
26.562,110.83
26.578,126.49
26.593,140.99
26.609,154.33
26.625,166.51
26.640,177.44
26.656,186.91
26.671,194.48
26.687,199.67
26.703,202.03
26.718,201.5
26.734,198.3
26.750,192.86
26.765,185.52
26.781,176.48
26.796,165.85
26.812,153.88
26.828,141.25
26.843,128.92
26.859,117.97
26.875,109.16
26.890,102.55
26.906,97.44
26.921,92.48
26.937,85.97
26.953,76.31
26.968,62.56
26.984,44.92
27.000,24.9
27.015,5.14
27.031,-11.36
27.046,-22.11
27.062,-25.84
27.078,-22.73
27.093,-14.07
27.109,-1.61
27.125,13.03
27.140,28.57
27.156,44.08
27.171,58.63
27.187,71.2
27.203,80.62
27.218,85.61
27.234,84.9
27.250,77.31
27.265,62.09
27.281,39.33
27.296,10.56
27.312,-21.29
27.328,-52.47
27.343,-79.36
27.359,-99.47
27.375,-111.91
27.390,-117.09
27.406,-116.03
27.421,-109.56
27.437,-98.05
27.453,-81.7
27.468,-61.27
27.484,-38.39
27.500,-15.52
27.515,4.67
27.531,19.8
27.546,28.16
27.562,28.99
27.578,22.54
27.593,10.24
27.609,-5.54
27.625,-21.71
27.640,-35.23
27.656,-43.99
27.671,-47.21
27.687,-45.41
27.703,-39.61
27.718,-30.47
27.734,-17.72
27.750,-0.5
27.765,21.68
27.781,47.81
27.796,74.92
27.812,98.81
27.828,115.41
27.843,122.4
27.859,119.88
27.875,110.16
27.890,96.5
27.906,81.97
27.921,69.0
27.937,59.45
27.953,54.93
27.968,56.37
27.984,63.26
28.000,72.77
28.015,80.02
28.031,79.46
28.046,67.01
28.062,41.81
28.078,6.36
28.093,-34.68
28.109,-76.73
28.125,-116.99
28.140,-154.91
28.156,-191.63
28.171,-228.77
28.187,-267.33
28.203,-306.98
28.218,-345.95
28.234,-381.12
28.250,-408.76
28.265,-425.54
28.281,-429.71
28.296,-421.74
28.312,-404.06
28.328,-380.0
28.343,-352.55
28.359,-323.63
28.375,-294.04
28.390,-264.34
28.406,-235.44
28.421,-208.82
28.437,-186.0
28.453,-167.59
28.468,-152.95
28.484,-140.38
28.500,-128.04
28.515,-114.81
28.531,-100.7
28.546,-86.74
28.562,-74.14
28.578,-63.76
28.593,-55.5
28.609,-48.58
28.625,-41.95
28.640,-34.91
28.656,-27.42
28.671,-20.07
28.687,-13.76
28.703,-9.08
28.718,-6.13
28.734,-4.44
28.750,-3.32
28.765,-2.26
28.781,-1.1
28.796,-0.06
28.812,0.5
28.828,0.28
28.843,-0.73
28.859,-2.41
28.875,-4.56
28.890,-7.09
28.906,-10.0
28.921,-13.3
28.937,-16.91
28.953,-20.69
28.968,-24.52
28.984,-28.41
29.000,-32.57
29.015,-37.4
29.031,-43.26
29.046,-50.34
29.062,-58.36
29.078,-66.54
29.093,-73.64
29.109,-78.25
29.125,-79.06
29.140,-75.4
29.156,-67.31
29.171,-55.62
29.187,-41.7
29.203,-27.02
29.218,-12.8
29.234,0.24
29.250,11.81
29.265,21.97
29.281,30.86
29.296,38.59
29.312,45.14
29.328,50.39
29.343,54.29
29.359,56.9
29.375,58.53
29.390,59.51
29.406,60.22
29.421,60.85
29.437,61.48
29.453,62.08
29.468,62.55
29.484,62.94
29.500,63.36
29.515,63.94
29.531,64.7
29.546,65.46
29.562,65.89
29.578,65.6
29.593,64.3
29.609,61.83
29.625,58.34
29.640,54.13
29.656,49.62
29.671,45.18
29.687,41.06
29.703,37.26
29.718,33.66
29.734,30.06
29.750,26.18
29.765,21.94
29.781,17.27
29.796,12.3
29.812,7.16
29.828,2.03
29.843,-2.99
29.859,-7.85
29.875,-12.67
29.890,-17.63
29.906,-22.98
29.921,-28.93
29.937,-35.5
29.953,-42.42
29.968,-49.09
29.984,-54.58
30.000,-57.82
30.015,-57.85
30.031,-54.14
30.046,-46.68
30.062,-36.14
30.078,-23.64
30.093,-10.46
30.109,2.25
30.125,13.72
30.140,23.67
30.156,32.2
30.171,39.59
30.187,46.09
30.203,51.73
30.218,56.36
30.234,59.79
30.250,61.95
30.265,63.07
30.281,63.56
30.296,63.96
30.312,64.7
30.328,65.97
30.343,67.66
30.359,69.51
30.375,71.24
30.390,72.68
30.406,73.81
30.421,74.61
30.437,74.99
30.453,74.79
30.468,73.77
30.484,71.76
30.500,68.8
30.515,65.12
30.531,61.13
30.546,57.21
30.562,53.53
30.578,50.04
30.593,46.49
30.609,42.63
30.625,38.35
30.640,33.71
30.656,28.89
30.671,24.12
30.687,19.53
30.703,15.18
30.718,11.04
30.734,6.99
30.750,2.9
30.765,-1.42
30.781,-6.21
30.796,-11.64
30.812,-17.68
30.828,-24.01
30.843,-29.93
30.859,-34.45
30.875,-36.52
30.890,-35.38
30.906,-30.72
30.921,-22.86
30.937,-12.65
30.953,-1.24
30.968,10.27
30.984,21.1
31.000,30.8
31.015,39.3
31.031,46.68
31.046,53.06
31.062,58.52
31.078,63.04
31.093,66.63
31.109,69.35
31.125,71.33
31.140,72.76
31.156,73.78
31.171,74.47
31.187,74.82
31.203,74.8
31.218,74.38
31.234,73.57
31.250,72.42
31.265,71.0
31.281,69.38
31.296,67.62
31.312,65.77
31.328,63.87
31.343,61.93
31.359,59.91
31.375,57.73
31.390,55.26
31.406,52.35
31.421,48.94
31.437,45.07
31.453,40.85
31.468,36.48
31.484,32.18
31.500,28.14
31.515,24.42
31.531,20.95
31.546,17.54
31.562,14.0
31.578,10.25
31.593,6.27
31.609,2.23
31.625,-1.67
31.640,-5.31
31.656,-8.71
31.671,-11.99
31.687,-15.36
31.703,-19.09
31.718,-23.37
31.734,-28.3
31.750,-33.76
31.765,-39.36
31.781,-44.32
31.796,-47.63
31.812,-48.17
31.828,-45.12
31.843,-38.22
31.859,-27.93
31.875,-15.23
31.890,-1.35
31.906,12.58
31.921,25.79
31.937,38.01
31.953,49.2
31.968,59.45
31.984,68.68
32.000,76.71
32.015,83.32
32.031,88.42
32.046,92.17
32.062,94.9
32.078,97.02
32.093,98.73
32.109,99.9
32.125,100.12
32.140,98.77
32.156,95.19
32.171,88.89
32.187,79.65
32.203,67.6
32.218,53.24
32.234,37.38
32.250,20.92
32.265,4.78
32.281,-10.36
32.296,-24.13
32.312,-36.43
32.328,-47.29
32.343,-56.77
32.359,-64.91
32.375,-71.7
32.390,-77.24
32.406,-81.65
32.421,-85.1
32.437,-87.69
32.453,-89.38
32.468,-90.03
32.484,-89.49
32.500,-87.72
32.515,-84.88
32.531,-81.27
32.546,-77.28
32.562,-73.29
32.578,-69.57
32.593,-66.3
32.609,-63.61
32.625,-61.67
32.640,-60.61
32.656,-60.55
32.671,-61.41
32.687,-62.81
32.703,-64.07
32.718,-64.28
32.734,-62.47
32.750,-57.94
32.765,-50.44
32.781,-40.29
32.796,-28.4
32.812,-15.9
32.828,-3.88
32.843,6.92
32.859,16.2
32.875,24.01
32.890,30.52
32.906,35.86
32.921,40.08
32.937,43.1
32.953,44.99
32.968,45.96
32.984,46.33
33.000,46.46
33.015,46.54
33.031,46.55
33.046,46.35
33.062,45.8
33.078,44.86
33.093,43.62
33.109,42.31
33.125,41.13
33.140,40.18
33.156,39.43
33.171,38.66
33.187,37.66
33.203,36.24
33.218,34.28
33.234,31.81
33.250,28.94
33.265,25.8
33.281,22.52
33.296,19.12
33.312,15.55
33.328,11.72
33.343,7.59
33.359,3.2
33.375,-1.23
33.390,-5.47
33.406,-9.28
33.421,-12.5
33.437,-15.18
33.453,-17.55
33.468,-19.98
33.484,-22.9
33.500,-26.65
33.515,-31.28
33.531,-36.48
33.546,-41.64
33.562,-45.86
33.578,-48.27
33.593,-48.21
33.609,-45.4
33.625,-40.0
33.640,-32.55
33.656,-23.82
33.671,-14.64
33.687,-5.71
33.703,2.46
33.718,9.6
33.734,15.68
33.750,20.81
33.765,25.13
33.781,28.73
33.796,31.64
33.812,33.82
33.828,35.3
33.843,36.12
33.859,36.38
33.875,36.13
33.890,35.44
33.906,34.26
33.921,32.62
33.937,30.68
33.953,28.68
33.968,26.9
33.984,25.59
34.000,24.82
34.015,24.39
34.031,24.07
34.046,23.58
34.062,22.8
34.078,21.73
34.093,20.41
34.109,18.89
34.125,17.15
34.140,15.18
34.156,12.97
34.171,10.62
34.187,8.18
34.203,5.7
34.218,3.1
34.234,0.25
34.250,-2.93
34.265,-6.47
34.281,-10.18
34.296,-13.83
34.312,-17.2
34.328,-20.15
34.343,-22.66
34.359,-24.84
34.375,-26.84
34.390,-28.83
34.406,-30.98
34.421,-33.32
34.437,-35.74
34.453,-37.85
34.468,-39.03
34.484,-38.52
34.500,-35.67
34.515,-30.17
34.531,-22.13
34.546,-12.09
34.562,-0.88
34.578,10.69
34.593,21.99
34.609,32.71
34.625,42.77
34.640,52.29
34.656,61.41
34.671,70.22
34.687,78.78
34.703,87.11
34.718,95.18
34.734,103.02
34.750,110.69
34.765,118.29
34.781,125.96
34.796,133.88
34.812,142.21
34.828,151.05
34.843,160.35
34.859,169.83
34.875,178.97
34.890,187.13
34.906,193.6
34.921,197.75
34.937,199.16
34.953,197.53
34.968,192.88
34.984,185.54
35.000,176.15
35.015,165.56
35.031,154.41
35.046,142.77
35.062,129.95
35.078,114.75
35.093,95.89
35.109,72.85
35.125,46.0
35.140,16.63
35.156,-13.56
35.171,-42.94
35.187,-70.27
35.203,-94.47
35.218,-114.58
35.234,-129.63
35.250,-138.8
35.265,-141.93
35.281,-139.86
35.296,-134.37
35.312,-127.75
35.328,-122.03
35.343,-118.26
35.359,-116.19
35.375,-114.48
35.390,-111.22
35.406,-104.77
35.421,-94.46
35.437,-80.74
35.453,-65.05
35.468,-49.11
35.484,-34.39
35.500,-21.7
35.515,-11.12
35.531,-2.16
35.546,5.87
35.562,13.76
35.578,22.27
35.593,31.87
35.609,42.46
35.625,53.08
35.640,61.96
35.656,66.9
35.671,66.05
35.687,58.47
35.703,44.58
35.718,26.01
35.734,4.97
35.750,-16.21
35.765,-35.59
35.781,-51.69
35.796,-63.47
35.812,-70.14
35.828,-71.16
35.843,-66.22
35.859,-55.39
35.875,-39.44
35.890,-20.16
35.906,-0.38
35.921,16.18
35.937,25.93
35.953,26.61
35.968,18.36
35.984,3.96
36.000,-11.91
36.015,-24.31
36.031,-29.7
36.046,-27.09
36.062,-18.15
36.078,-6.49
36.093,3.67
36.109,8.72
36.125,6.51
36.140,-3.32
36.156,-19.52
36.171,-39.66
36.187,-60.78
36.203,-79.91
36.218,-94.53
36.234,-103.01
36.250,-105.09
36.265,-102.23
36.281,-97.43
36.296,-94.48
36.312,-96.75
36.328,-105.94
36.343,-121.44
36.359,-140.66
36.375,-160.3
36.390,-177.53
36.406,-190.95
36.421,-200.42
36.437,-206.4
36.453,-209.17
36.468,-208.62
36.484,-204.42
36.500,-196.58
36.515,-185.7
36.531,-172.81
36.546,-159.02
36.562,-145.04
36.578,-131.21
36.593,-117.61
36.609,-104.35
36.625,-91.73
36.640,-80.2
36.656,-70.11
36.671,-61.5
36.687,-53.99
36.703,-46.88
36.718,-39.41
36.734,-31.04
36.750,-21.74
36.765,-11.99
36.781,-2.72
36.796,5.04
36.812,10.49
36.828,13.27
36.843,13.59
36.859,12.14
36.875,9.95
36.890,8.03
36.906,7.04
36.921,7.13
36.937,7.74
36.953,7.91
36.968,6.49
36.984,2.5
37.000,-4.55
37.015,-14.63
37.031,-27.15
37.046,-41.1
37.062,-55.27
37.078,-68.34
37.093,-79.12
37.109,-86.58
37.125,-90.07
37.140,-89.37
37.156,-84.71
37.171,-76.64
37.187,-65.95
37.203,-53.56
37.218,-40.38
37.234,-27.28
37.250,-15.02
37.265,-4.2
37.281,4.81
37.296,11.85
37.312,17.07
37.328,20.78
37.343,23.49
37.359,25.64
37.375,27.55
37.390,29.33
37.406,30.84
37.421,31.95
37.437,32.5
37.453,32.53
37.468,32.19
37.484,31.76
37.500,31.42
37.515,31.28
37.531,31.36
37.546,31.54
37.562,31.7
37.578,31.7
37.593,31.39
37.609,30.59
37.625,29.18
37.640,27.02
37.656,24.03
37.671,20.2
37.687,15.57
37.703,10.26
37.718,4.43
37.734,-1.66
37.750,-7.76
37.765,-13.65
37.781,-19.22
37.796,-24.5
37.812,-29.66
37.828,-34.92
37.843,-40.46
37.859,-46.37
37.875,-52.6
37.890,-58.82
37.906,-64.52
37.921,-68.97
37.937,-71.45
37.953,-71.32
37.968,-68.24
37.984,-62.3
38.000,-54.03
38.015,-44.31
38.031,-34.14
38.046,-24.43
38.062,-15.74
38.078,-8.26
38.093,-1.82
38.109,3.95
38.125,9.38
38.140,14.64
38.156,19.66
38.171,24.22
38.187,28.09
38.203,31.22
38.218,33.76
38.234,35.96
38.250,38.1
38.265,40.27
38.281,42.4
38.296,44.26
38.312,45.69
38.328,46.63
38.343,47.18
38.359,47.51
38.375,47.72
38.390,47.84
38.406,47.76
38.421,47.47
38.437,46.94
38.453,46.32
38.468,45.76
38.484,45.36
38.500,45.1
38.515,44.83
38.531,44.36
38.546,43.51
38.562,42.32
38.578,40.97
38.593,39.75
38.609,38.89
38.625,38.35
38.640,37.77
38.656,36.45
38.671,33.61
38.687,28.72
38.703,21.93
38.718,14.2
38.734,7.27
38.750,3.2
38.765,3.78
38.781,9.86
38.796,20.87
38.812,34.85
38.828,48.9
38.843,60.13
38.859,66.46
38.875,67.38
38.890,64.1
38.906,59.18
38.921,55.79
38.937,56.78
38.953,63.8
38.968,76.67
38.984,93.26
39.000,109.74
39.015,121.54
39.031,124.6
39.046,116.4
39.062,96.81
39.078,68.04
39.093,33.93
39.109,-1.06
39.125,-32.92
39.140,-58.75
39.156,-76.92
39.171,-87.01
39.187,-89.69
39.203,-86.54
39.218,-79.72
39.234,-71.74
39.250,-64.83
39.265,-60.5
39.281,-59.21
39.296,-60.41
39.312,-62.92
39.328,-65.63
39.343,-67.78
39.359,-69.3
39.375,-70.63
39.390,-72.39
39.406,-75.05
39.421,-78.72
39.437,-83.15
39.453,-87.85
39.468,-92.4
39.484,-96.52
39.500,-100.19
39.515,-103.73
39.531,-107.52
39.546,-111.94
39.562,-117.15
39.578,-122.78
39.593,-127.9
39.609,-131.11
39.625,-130.86
39.640,-126.04
39.656,-116.35
39.671,-102.46
39.687,-85.81
39.703,-68.03
39.718,-50.58
39.734,-34.21
39.750,-19.23
39.765,-5.51
39.781,7.07
39.796,18.54
39.812,28.74
39.828,37.57
39.843,45.08
39.859,51.44
39.875,57.03
39.890,62.12
39.906,66.97
39.921,71.66
39.937,76.18
39.953,80.49
39.968,84.55
39.984,88.26
40.000,91.52
40.015,94.25
40.031,96.36
40.046,97.82
40.062,98.69
40.078,98.95
40.093,98.59
40.109,97.5
40.125,95.6
40.140,92.9
40.156,89.57
40.171,85.8
40.187,81.82
40.203,77.7
40.218,73.31
40.234,68.46
40.250,62.9
40.265,56.57
40.281,49.64
40.296,42.47
40.312,35.46
40.328,28.93
40.343,23.02
40.359,17.68
40.375,12.79
40.390,8.15
40.406,3.65
40.421,-0.84
40.437,-5.4
40.453,-10.07
40.468,-14.7
40.484,-18.79
40.500,-21.55
40.515,-21.95
40.531,-19.2
40.546,-13.12
40.562,-4.34
40.578,5.79
40.593,15.65
40.609,23.82
40.625,29.57
40.640,32.93
40.656,34.54
40.671,35.19
40.687,35.62
40.703,36.31
40.718,37.48
40.734,39.2
40.750,41.42
40.765,44.05
40.781,46.92
40.796,49.77
40.812,52.33
40.828,54.27
40.843,55.34
40.859,55.33
40.875,54.06
40.890,51.49
40.906,47.64
40.921,42.57
40.937,36.32
40.953,28.95
40.968,20.55
40.984,11.32
41.000,1.69
41.015,-7.79
41.031,-16.45
41.046,-23.72
41.062,-29.31
41.078,-33.25
41.093,-35.91
41.109,-37.81
41.125,-39.5
41.140,-41.32
41.156,-43.37
41.171,-45.52
41.187,-47.54
41.203,-49.19
41.218,-50.37
41.234,-51.22
41.250,-52.01
41.265,-53.14
41.281,-54.95
41.296,-57.71
41.312,-61.36
41.328,-65.51
41.343,-69.35
41.359,-71.81
41.375,-71.81
41.390,-68.55
41.406,-61.78
41.421,-51.85
41.437,-39.66
41.453,-26.25
41.468,-12.53
41.484,0.84
41.500,13.67
41.515,25.88
41.531,37.44
41.546,48.17
41.562,57.85
41.578,66.19
41.593,73.0
41.609,78.26
41.625,82.15
41.640,85.02
41.656,87.31
41.671,89.41
41.687,91.51
41.703,93.64
41.718,95.6
41.734,97.15
41.750,98.13
41.765,98.49
41.781,98.36
41.796,97.91
41.812,97.27
41.828,96.45
41.843,95.41
41.859,94.16
41.875,92.73
41.890,91.22
41.906,89.67
41.921,88.04
41.937,86.26
41.953,84.39
41.968,82.62
41.984,81.31
42.000,80.7
42.015,80.62
42.031,80.36
42.046,78.6
42.062,73.96
42.078,65.43
42.093,52.86
42.109,36.98
42.125,19.27
42.140,1.46
42.156,-14.85
42.171,-28.43
42.187,-38.58
42.203,-45.17
42.218,-48.62
42.234,-49.83
42.250,-50.02
42.265,-50.43
42.281,-51.97
42.296,-54.98
42.312,-59.2
42.328,-63.89
42.343,-68.1
42.359,-70.8
42.375,-71.06
42.390,-68.03
42.406,-61.18
42.421,-50.41
42.437,-36.24
42.453,-19.66
42.468,-1.96
42.484,15.7
42.500,32.51
42.515,48.17
42.531,62.79
42.546,76.56
42.562,89.47
42.578,101.1
42.593,110.7
42.609,117.3
42.625,120.02
42.640,118.37
42.656,112.34
42.671,102.43
42.687,89.59
42.703,75.07
42.718,60.31
42.734,46.8
42.750,35.87
42.765,28.52
42.781,25.25
42.796,25.73
42.812,28.76
42.828,32.17
42.843,33.2
42.859,29.03
42.875,17.52
42.890,-1.99
42.906,-28.32
42.921,-58.52
42.937,-88.62
42.953,-114.56
42.968,-133.32
42.984,-143.49
43.000,-145.48
43.015,-140.91
43.031,-131.95
43.046,-120.53
43.062,-107.88
43.078,-94.51
43.093,-80.29
43.109,-64.89
43.125,-48.14
43.140,-30.2
43.156,-11.69
43.171,6.41
43.187,22.86
43.203,36.43
43.218,46.08
43.234,51.27
43.250,51.98
43.265,48.8
43.281,42.68
43.296,34.79
43.312,26.18
43.328,17.73
43.343,10.03
43.359,3.41
43.375,-1.93
43.390,-5.87
43.406,-8.45
43.421,-9.79
43.437,-10.24
43.453,-10.3
43.468,-10.62
43.484,-11.95
43.500,-14.95
43.515,-19.99
43.531,-26.89
43.546,-34.8
43.562,-42.14
43.578,-46.96
43.593,-47.4
43.609,-42.41
43.625,-32.21
43.640,-18.45
43.656,-3.94
43.671,8.07
43.687,14.74
43.703,14.47
43.718,7.12
43.734,-6.0
43.750,-22.64
43.765,-40.37
43.781,-57.06
43.796,-71.28
43.812,-82.31
43.828,-90.04
43.843,-94.8
43.859,-97.3
43.875,-98.6
43.890,-99.93
43.906,-102.43
43.921,-106.65
43.937,-112.29
43.953,-118.15
43.968,-122.52
43.984,-123.75
44.000,-120.85
44.015,-113.7
44.031,-102.95
44.046,-89.69
44.062,-74.83
44.078,-58.75
44.093,-41.21
44.109,-21.58
44.125,0.61
44.140,25.16
44.156,50.85
44.171,75.63
44.187,97.21
44.203,113.84
44.218,124.76
44.234,130.49
44.250,132.43
44.265,132.57
44.281,132.93
44.296,135.25
44.312,140.68
44.328,149.34
44.343,160.04
44.359,170.05
44.375,175.61
44.390,172.95
44.406,159.55
44.421,135.19
44.437,101.9
44.453,63.36
44.468,23.56
44.484,-14.18
44.500,-47.81
44.515,-76.36
44.531,-99.24
44.546,-115.93
44.562,-125.87
44.578,-129.13
44.593,-127.02
44.609,-122.47
44.625,-119.39
44.640,-121.46
44.656,-130.66
44.671,-146.16
44.687,-164.54
44.703,-180.72
44.718,-189.77
44.734,-188.65
44.750,-177.12
44.765,-157.5
44.781,-133.31
44.796,-107.78
44.812,-82.72
44.828,-58.49
44.843,-34.71
44.859,-11.22
44.875,11.17
44.890,30.86
44.906,46.05
44.921,55.7
44.937,59.96
44.953,60.3
44.968,58.8
44.984,57.64
45.000,58.37
45.015,61.58
45.031,66.91
45.046,73.21
45.062,78.9
45.078,82.43
45.093,82.59
45.109,78.57
45.125,69.98
45.140,56.77
45.156,39.25
45.171,18.31
45.187,-4.47
45.203,-26.81
45.218,-46.1
45.234,-59.92
45.250,-66.7
45.265,-66.28
45.281,-60.32
45.296,-52.24
45.312,-46.65
45.328,-48.22
45.343,-60.19
45.359,-83.02
45.375,-113.99
45.390,-147.79
45.406,-178.35
45.421,-200.77
45.437,-212.93
45.453,-215.68
45.468,-211.94
45.484,-205.2
45.500,-198.16
45.515,-192.14
45.531,-187.23
45.546,-182.86
45.562,-178.21
45.578,-172.47
45.593,-164.77
45.609,-154.13
45.625,-139.58
45.640,-120.47
45.656,-96.91
45.671,-69.95
45.687,-41.42
45.703,-13.55
45.718,11.7
45.734,33.13
45.750,50.47
45.765,64.28
45.781,75.51
45.796,85.11
45.812,93.66
45.828,101.33
45.843,108.03
45.859,113.68
45.875,118.38
45.890,122.44
45.906,126.29
45.921,130.35
45.937,134.91
45.953,140.02
45.968,145.44
45.984,150.59
46.000,154.73
46.015,157.05
46.031,156.95
46.046,154.23
46.062,149.22
46.078,142.74
46.093,135.86
46.109,129.65
46.125,124.83
46.140,121.7
46.156,120.12
46.171,119.8
46.187,120.71
46.203,123.3
46.218,128.41
46.234,136.88
46.250,148.79
46.265,163.07
46.281,177.49
46.296,189.24
46.312,195.77
46.328,195.74
46.343,189.36
46.359,178.39
46.375,165.81
46.390,155.08
46.406,149.21
46.421,149.63
46.437,155.26
46.453,162.23
46.468,164.8
46.484,157.34
46.500,136.79
46.515,104.2
46.531,64.77
46.546,26.19
46.562,-4.04
46.578,-21.22
46.593,-24.86
46.609,-18.62
46.625,-8.84
46.640,-2.46
46.656,-4.99
46.671,-19.27
46.687,-45.38
46.703,-81.14
46.718,-123.14
46.734,-167.6
46.750,-210.94
46.765,-249.98
46.781,-282.04
46.796,-305.05
46.812,-317.87
46.828,-320.63
46.843,-314.59
46.859,-301.49
46.875,-282.79
46.890,-259.36
46.906,-231.95
46.921,-202.16
46.937,-173.16
46.953,-149.29
46.968,-134.87
46.984,-132.48
47.000,-141.76
47.015,-159.39
47.031,-180.25
47.046,-198.94
47.062,-211.38
47.078,-215.66
47.093,-211.95
47.109,-201.98
47.125,-188.26
47.140,-173.56
47.156,-160.3
47.171,-150.04
47.187,-143.08
47.203,-138.34
47.218,-133.76
47.234,-126.86
47.250,-115.59
47.265,-98.94
47.281,-77.24
47.296,-52.03
47.312,-25.6
47.328,-0.28
47.343,22.15
47.359,40.94
47.375,56.41
47.390,69.59
47.406,81.7
47.421,93.66
47.437,105.83
47.453,117.99
47.468,129.59
47.484,140.08
47.500,149.2
47.515,157.08
47.531,164.21
47.546,171.3
47.562,179.01
47.578,187.81
47.593,197.74
47.609,208.29
47.625,218.53
47.640,227.26
47.656,233.53
47.671,236.9
47.687,237.69
47.703,236.78
47.718,235.25
47.734,233.99
47.750,233.24
47.765,232.64
47.781,231.25
47.796,227.95
47.812,221.71
47.828,211.85
47.843,198.16
47.859,180.92
47.875,160.8
47.890,138.48
47.906,114.39
47.921,88.3
47.937,59.45
47.953,26.95
47.968,-9.39
47.984,-48.3
48.000,-86.92
48.015,-121.41
48.031,-148.22
48.046,-165.4
48.062,-173.17
48.078,-173.41
48.093,-168.41
48.109,-159.66
48.125,-147.28
48.140,-130.27
48.156,-107.35
48.171,-78.09
48.187,-43.48
48.203,-6.3
48.218,29.22
48.234,58.21
48.250,76.18
48.265,80.34
48.281,70.45
48.296,49.23
48.312,21.7
48.328,-5.99
48.343,-28.2
48.359,-41.2
48.375,-43.68
48.390,-36.84
48.406,-23.53
48.421,-7.29
48.437,8.76
48.453,22.6
48.468,33.66
48.484,42.44
48.500,49.76
48.515,56.08
48.531,61.19
48.546,64.48
48.562,65.46
48.578,64.24
48.593,61.71
48.609,59.46
48.625,59.42
48.640,63.26
48.656,71.86
48.671,84.41
48.687,98.01
48.703,108.05
48.718,109.5
48.734,98.94
48.750,76.14
48.765,44.61
48.781,10.52
48.796,-19.29
48.812,-39.89
48.828,-49.61
48.843,-50.22
48.859,-45.88
48.875,-41.42
48.890,-41.0
48.906,-47.15
48.921,-60.55
48.937,-79.92
48.953,-102.46
48.968,-124.29
48.984,-141.45
49.000,-151.12
49.015,-152.66
49.031,-147.94
49.046,-140.57
49.062,-134.34
49.078,-131.34
49.093,-130.95
49.109,-129.98
49.125,-124.26
49.140,-110.66
49.156,-88.52
49.171,-59.88
49.187,-28.51
49.203,1.49
49.218,26.94
49.234,46.14
49.250,59.15
49.265,67.55
49.281,74.02
49.296,81.59
49.312,92.22
49.328,105.5
49.343,117.98
49.359,123.8
49.375,116.42
49.390,91.33
49.406,48.26
49.421,-7.75
49.437,-67.31
49.453,-119.47
49.468,-155.26
49.484,-170.81
49.500,-168.44
49.515,-155.4
49.531,-140.78
49.546,-132.14
49.562,-133.16
49.578,-143.19
49.593,-158.58
49.609,-174.7
49.625,-187.6
49.640,-194.78
49.656,-195.12
49.671,-188.49
49.687,-175.58
49.703,-157.74
49.718,-136.77
49.734,-114.46
49.750,-91.99
49.765,-69.85
49.781,-48.04
49.796,-26.42
49.812,-4.97
49.828,16.27
49.843,37.29
49.859,58.16
49.875,78.8
49.890,98.68
49.906,116.79
49.921,132.01
49.937,143.59
49.953,151.56
49.968,156.82
49.984,160.73
50.000,164.57
50.015,169.11
50.031,174.48
50.046,180.33
50.062,186.21
50.078,191.86
50.093,197.25
50.109,202.25
50.125,206.17
50.140,207.4
50.156,203.54
50.171,191.98
50.187,170.8
50.203,139.71
50.218,100.37
50.234,56.08
50.250,10.75
50.265,-32.27
50.281,-71.07
50.296,-105.25
50.312,-135.27
50.328,-161.43
50.343,-183.18
50.359,-199.19
50.375,-208.02
50.390,-209.17
50.406,-203.74
50.421,-194.3
50.437,-184.03
50.453,-175.54
50.468,-169.84
50.484,-166.14
50.500,-162.39
50.515,-156.28
50.531,-146.21
50.546,-131.79
50.562,-113.78
50.578,-93.63
50.593,-72.82
50.609,-52.46
50.625,-33.05
50.640,-14.73
50.656,2.58
50.671,18.73
50.687,33.44
50.703,46.34
50.718,57.18
50.734,66.15
50.750,73.77
50.765,80.82
50.781,88.01
50.796,95.74
50.812,103.96
50.828,112.22
50.843,119.93
50.859,126.56
50.875,131.98
50.890,136.54
50.906,140.94
50.921,146.0
50.937,152.27
50.953,159.78
50.968,167.91
50.984,175.58
51.000,181.59
51.015,185.02
51.031,185.52
51.046,183.18
51.062,178.31
51.078,171.16
51.093,161.88
51.109,150.71
51.125,138.25
51.140,125.27
51.156,112.27
51.171,99.03
51.187,84.26
51.203,66.05
51.218,42.9
51.234,14.89
51.250,-15.63
51.265,-44.47
51.281,-67.15
51.296,-80.68
51.312,-84.64
51.328,-81.19
51.343,-73.81
51.359,-65.84
51.375,-59.5
51.390,-55.82
51.406,-55.22
51.421,-58.17
51.437,-65.08
51.453,-75.74
51.468,-88.71
51.484,-101.28
51.500,-110.3
51.515,-113.6
51.531,-111.2
51.546,-105.5
51.562,-100.38
51.578,-99.24
51.593,-103.62
51.609,-112.38
51.625,-122.47
51.640,-130.33
51.656,-133.61
51.671,-132.12
51.687,-127.5
51.703,-122.09
51.718,-117.32
51.734,-112.9
51.750,-106.83
51.765,-96.64
51.781,-80.79
51.796,-59.66
51.812,-35.56
51.828,-11.7
51.843,8.92
51.859,24.36
51.875,33.95
51.890,37.78
51.906,36.16
51.921,29.25
51.937,17.21
51.953,0.55
51.968,-19.48
51.984,-40.89
52.000,-61.37
52.015,-78.88
52.031,-92.15
52.046,-100.8
52.062,-105.34
52.078,-106.66
52.093,-105.64
52.109,-102.89
52.125,-98.64
52.140,-92.78
52.156,-84.96
52.171,-74.82
52.187,-62.06
52.203,-46.79
52.218,-29.6
52.234,-11.56
52.250,6.01
52.265,21.99
52.281,35.74
52.296,47.43
52.312,57.71
52.328,67.42
52.343,77.13
52.359,87.01
52.375,96.98
52.390,107.02
52.406,117.26
52.421,127.77
52.437,138.37
52.453,148.28
52.468,156.17
52.484,160.57
52.500,160.39
52.515,155.56
52.531,147.25
52.546,137.71
52.562,129.65
52.578,125.47
52.593,126.28
52.609,131.36
52.625,138.07
52.640,142.33
52.656,139.7
52.671,126.56
52.687,101.12
52.703,63.92
52.718,17.81
52.734,-32.67
52.750,-82.23
52.765,-125.76
52.781,-159.43
52.796,-181.23
52.812,-191.29
52.828,-191.54
52.843,-184.95
52.859,-174.7
52.875,-163.41
52.890,-152.86
52.906,-143.94
52.921,-137.07
52.937,-132.32
52.953,-129.6
52.968,-128.63
52.984,-128.8
53.000,-129.25
53.015,-128.87
53.031,-126.51
53.046,-121.1
53.062,-112.03
53.078,-99.12
53.093,-82.74
53.109,-63.71
53.125,-43.04
53.140,-21.68
53.156,-0.33
53.171,20.51
53.187,40.53
53.203,59.43
53.218,76.92
53.234,92.72
53.250,106.62
53.265,118.51
53.281,128.52
53.296,136.96
53.312,144.25
53.328,150.9
53.343,157.18
53.359,162.83
53.375,166.88
53.390,167.76
53.406,163.76
53.421,153.82
53.437,138.25
53.453,118.68
53.468,97.51
53.484,76.89
53.500,57.92
53.515,40.56
53.531,24.24
53.546,8.84
53.562,-4.84
53.578,-15.23
53.593,-20.91
53.609,-21.45
53.625,-17.85
53.640,-12.02
53.656,-5.88
53.671,-0.67
53.687,3.31
53.703,6.15
53.718,7.84
53.734,7.83
53.750,5.34
53.765,-0.28
53.781,-8.99
53.796,-19.92
53.812,-31.73
53.828,-42.98
53.843,-52.49
53.859,-59.41
53.875,-63.14
53.890,-63.16
53.906,-59.17
53.921,-51.19
53.937,-39.76
53.953,-25.87
53.968,-10.65
53.984,4.95
54.000,20.45
54.015,35.78
54.031,51.08
54.046,66.36
54.062,81.28
54.078,95.25
54.093,107.52
54.109,117.43
54.125,124.36
54.140,127.79
54.156,127.29
54.171,122.67
54.187,114.18
54.203,102.48
54.218,88.37
54.234,72.18
54.250,53.56
54.265,31.46
54.281,4.79
54.296,-26.72
54.312,-61.97
54.328,-98.57
54.343,-133.44
54.359,-163.7
54.375,-187.2
54.390,-202.45
54.406,-208.37
54.421,-203.98
54.437,-188.61
54.453,-162.7
54.468,-128.33
54.484,-89.51
54.500,-51.4
54.515,-19.06
54.531,4.04
54.546,16.85
54.562,20.62
54.578,17.76
54.593,10.27
54.609,-1.08
54.625,-16.95
54.640,-38.24
54.656,-64.92
54.671,-94.93
54.687,-124.36
54.703,-148.57
54.718,-163.88
54.734,-168.87
54.750,-164.6
54.765,-153.9
54.781,-139.84
54.796,-124.59
54.812,-108.94
54.828,-92.67
54.843,-75.44
54.859,-57.42
54.875,-39.56
54.890,-23.14
54.906,-9.19
54.921,1.93
54.937,10.64
54.953,17.77
54.968,24.07
54.984,29.89
55.000,35.12
55.015,39.51
55.031,42.83
55.046,45.18
55.062,46.97
55.078,48.74
55.093,50.89
55.109,53.46
55.125,56.06
55.140,57.99
55.156,58.55
55.171,57.26
55.187,54.07
55.203,49.37
55.218,43.72
55.234,37.62
55.250,31.32
55.265,24.73
55.281,17.45
55.296,8.98
55.312,-1.1
55.328,-13.03
55.343,-26.78
55.359,-42.05
55.375,-58.3
55.390,-74.92
55.406,-91.38
55.421,-107.24
55.437,-122.21
55.453,-135.91
55.468,-147.88
55.484,-157.4
55.500,-163.71
55.515,-166.0
55.531,-163.8
55.546,-156.98
55.562,-145.84
55.578,-131.09
55.593,-113.65
55.609,-94.55
55.625,-74.74
55.640,-55.11
55.656,-36.39
55.671,-19.16
55.687,-3.8
55.703,9.56
55.718,20.95
55.734,30.64
55.750,38.96
55.765,46.29
55.781,52.87
55.796,58.85
55.812,64.23
55.828,69.04
55.843,73.31
55.859,77.12
55.875,80.52
55.890,83.51
55.906,86.06
55.921,88.09
55.937,89.53
55.953,90.3
55.968,90.35
55.984,89.71
56.000,88.44
56.015,86.63
56.031,84.34
56.046,81.61
56.062,78.43
56.078,74.81
56.093,70.76
56.109,66.32
56.125,61.54
56.140,56.51
56.156,51.31
56.171,46.03
56.187,40.79
56.203,35.71
56.218,30.87
56.234,26.21
56.250,21.55
56.265,16.57
56.281,10.96
56.296,4.54
56.312,-2.57
56.328,-9.81
56.343,-16.19
56.359,-20.46
56.375,-21.48
56.390,-18.56
56.406,-11.76
56.421,-1.89
56.437,9.8
56.453,21.91
56.468,33.35
56.484,43.47
56.500,52.04
56.515,59.14
56.531,64.93
56.546,69.56
56.562,73.1
56.578,75.58
56.593,77.04
56.609,77.54
56.625,77.21
56.640,76.31
56.656,75.09
56.671,73.81
56.687,72.64
56.703,71.57
56.718,70.58
56.734,69.6
56.750,68.6
56.765,67.56
56.781,66.35
56.796,64.82
56.812,62.72
56.828,60.0
56.843,56.66
56.859,52.9
56.875,48.93
56.890,44.86
56.906,40.73
56.921,36.46
56.937,32.02
56.953,27.49
56.968,23.03
56.984,18.8
57.000,14.88
57.015,11.22
57.031,7.69
57.046,4.09
57.062,0.15
57.078,-4.34
57.093,-9.56
57.109,-15.47
57.125,-21.73
57.140,-27.65
57.156,-32.21
57.171,-34.39
57.187,-33.36
57.203,-28.87
57.218,-21.36
57.234,-11.75
57.250,-1.24
57.265,9.06
57.281,18.42
57.296,26.52
57.312,33.37
57.328,39.13
57.343,43.97
57.359,47.97
57.375,51.14
57.390,53.49
57.406,55.06
57.421,55.94
57.437,56.27
57.453,56.14
57.468,55.57
57.484,54.56
57.500,53.08
57.515,51.23
57.531,49.18
57.546,47.19
57.562,45.41
57.578,43.93
57.593,42.59
57.609,41.08
57.625,39.08
57.640,36.42
57.656,33.14
57.671,29.46
57.687,25.66
57.703,21.97
57.718,18.45
57.734,14.97
57.750,11.39
57.765,7.55
57.781,3.43
57.796,-0.86
57.812,-5.13
57.828,-9.2
57.843,-12.94
57.859,-16.4
57.875,-19.74
57.890,-23.21
57.906,-27.09
57.921,-31.54
57.937,-36.52
57.953,-41.78
57.968,-46.71
57.984,-50.55
58.000,-52.47
58.015,-51.87
58.031,-48.48
58.046,-42.5
58.062,-34.55
58.078,-25.47
58.093,-16.16
58.109,-7.22
58.125,0.92
58.140,8.15
58.156,14.46
58.171,19.89
58.187,24.48
58.203,28.17
58.218,31.0
58.234,32.97
58.250,34.19
58.265,34.76
58.281,34.77
58.296,34.34
58.312,33.63
58.328,32.79
58.343,31.99
58.359,31.36
58.375,30.95
58.390,30.71
58.406,30.5
58.421,30.08
58.437,29.26
58.453,27.82
58.468,25.67
58.484,22.82
58.500,19.44
58.515,15.79
58.531,12.16
58.546,8.76
58.562,5.64
58.578,2.69
58.593,-0.32
58.609,-3.61
58.625,-7.26
58.640,-11.23
58.656,-15.34
58.671,-19.35
58.687,-23.04
58.703,-26.27
58.718,-29.03
58.734,-31.42
58.750,-33.7
58.765,-36.15
58.781,-39.04
58.796,-42.39
58.812,-45.9
58.828,-48.94
58.843,-50.7
58.859,-50.39
58.875,-47.61
58.890,-42.43
58.906,-35.39
58.921,-27.33
58.937,-19.08
58.953,-11.3
58.968,-4.37
58.984,1.54
59.000,6.43
59.015,10.33
59.031,13.26
59.046,15.36
59.062,16.8
59.078,17.81
59.093,18.67
59.109,19.48
59.125,20.26
59.140,20.89
59.156,21.2
59.171,21.1
59.187,20.6
59.203,19.84
59.218,18.93
59.234,18.0
59.250,17.11
59.265,16.23
59.281,15.26
59.296,14.03
59.312,12.35
59.328,10.15
59.343,7.45
59.359,4.49
59.375,1.6
59.390,-0.88
59.406,-2.81
59.421,-4.27
59.437,-5.55
59.453,-7.04
59.468,-9.01
59.484,-11.58
59.500,-14.62
59.515,-17.83
59.531,-20.93
59.546,-23.73
59.562,-26.25
59.578,-28.64
59.593,-31.17
59.609,-34.07
59.625,-37.49
59.640,-41.39
59.656,-45.46
59.671,-49.2
59.687,-51.89
59.703,-52.74
59.718,-51.1
59.734,-46.67
59.750,-39.66
59.765,-30.7
59.781,-20.78
59.796,-10.88
59.812,-1.75
59.828,6.26
59.843,13.05
59.859,18.62
59.875,23.0
59.890,26.09
59.906,27.88
59.921,28.42
59.937,27.88
59.953,26.63
59.968,24.99
59.984,23.23
