timestamp,value
00.000,-0.34
00.015,24.47
00.031,50.74
00.046,74.95
00.062,94.97
00.078,110.8
00.093,124.15
00.109,136.94
00.125,150.11
00.140,163.13
00.156,174.71
00.171,183.73
00.187,190.01
00.203,194.32
00.218,197.72
00.234,200.91
00.250,203.95
00.265,206.45
00.281,207.91
00.296,208.04
00.312,206.8
00.328,204.29
00.343,200.55
00.359,195.54
00.375,189.2
00.390,181.49
00.406,172.6
00.421,162.88
00.437,152.81
00.453,142.85
00.468,133.32
00.484,124.29
00.500,115.61
00.515,106.94
00.531,97.81
00.546,87.89
00.562,77.07
00.578,65.51
00.593,53.74
00.609,42.42
00.625,32.28
00.640,23.91
00.656,17.68
00.671,13.54
00.687,11.12
00.703,9.66
00.718,8.3
00.734,6.3
00.750,3.33
00.765,-0.41
00.781,-4.4
00.796,-8.01
00.812,-10.83
00.828,-12.71
00.843,-13.68
00.859,-13.68
00.875,-12.48
00.890,-9.7
00.906,-5.16
00.921,0.93
00.937,7.83
00.953,14.48
00.968,19.87
00.984,23.43
01.000,25.14
01.015,25.47
01.031,25.1
01.046,24.68
01.062,24.53
01.078,24.55
01.093,24.34
01.109,23.33
01.125,21.17
01.140,17.94
01.156,14.18
01.171,10.72
01.187,8.43
01.203,7.9
01.218,9.3
01.234,12.49
01.250,17.1
01.265,22.53
01.281,27.81
01.296,31.57
01.312,32.3
01.328,29.19
01.343,22.85
01.359,15.53
01.375,10.37
01.390,9.87
01.406,14.44
01.421,22.0
01.437,28.86
01.453,31.65
01.468,28.96
01.484,22.01
01.500,13.74
01.515,7.02
01.531,2.92
01.546,0.22
01.562,-3.9
01.578,-12.19
01.593,-25.86
01.609,-43.87
01.625,-63.38
01.640,-80.87
01.656,-93.48
01.671,-99.9
01.687,-100.41
01.703,-96.4
01.718,-89.46
01.734,-80.85
01.750,-71.28
01.765,-61.23
01.781,-51.23
01.796,-41.89
01.812,-33.7
01.828,-26.68
01.843,-20.24
01.859,-13.68
01.875,-6.82
01.890,-0.53
01.906,3.32
01.921,2.54
01.937,-4.41
01.953,-17.76
01.968,-36.34
01.984,-58.23
02.000,-81.61
02.015,-105.3
02.031,-128.62
02.046,-150.83
02.062,-170.7
02.078,-186.57
02.093,-197.08
02.109,-201.88
02.125,-202.0
02.140,-199.45
02.156,-196.21
02.171,-193.29
02.187,-190.42
02.203,-186.45
02.218,-180.23
02.234,-171.46
02.250,-160.86
02.265,-149.77
02.281,-139.49
02.296,-130.65
02.312,-123.05
02.328,-115.94
02.343,-108.57
02.359,-100.57
02.375,-92.15
02.390,-83.97
02.406,-76.76
02.421,-71.01
02.437,-66.71
02.453,-63.43
02.468,-60.59
02.484,-57.67
02.500,-54.4
02.515,-50.85
02.531,-47.2
02.546,-43.69
02.562,-40.44
02.578,-37.49
02.593,-34.89
02.609,-32.72
02.625,-31.06
02.640,-30.0
02.656,-29.56
02.671,-29.69
02.687,-30.31
02.703,-31.34
02.718,-32.7
02.734,-34.35
02.750,-36.13
02.765,-37.86
02.781,-39.32
02.796,-40.44
02.812,-41.3
02.828,-42.18
02.843,-43.47
02.859,-45.48
02.875,-48.37
02.890,-52.03
02.906,-56.0
02.921,-59.6
02.937,-62.0
02.953,-62.5
02.968,-60.63
02.984,-56.39
03.000,-50.13
03.015,-42.49
03.031,-34.13
03.046,-25.59
03.062,-17.26
03.078,-9.43
03.093,-2.35
03.109,3.68
03.125,8.32
03.140,11.39
03.156,12.98
03.171,13.4
03.187,13.14
03.203,12.67
03.218,12.37
03.234,12.37
03.250,12.67
03.265,13.15
03.281,13.72
03.296,14.31
03.312,14.93
03.328,15.59
03.343,16.21
03.359,16.64
03.375,16.69
03.390,16.18
03.406,14.98
03.421,13.03
03.437,10.4
03.453,7.18
03.468,3.56
03.484,-0.24
03.500,-3.93
03.515,-7.24
03.531,-10.04
03.546,-12.39
03.562,-14.62
03.578,-17.19
03.593,-20.57
03.609,-25.0
03.625,-30.39
03.640,-36.21
03.656,-41.63
03.671,-45.73
03.687,-47.66
03.703,-46.95
03.718,-43.5
03.734,-37.65
03.750,-30.02
03.765,-21.39
03.781,-12.48
03.796,-3.88
03.812,3.99
03.828,10.92
03.843,16.78
03.859,21.53
03.875,25.17
03.890,27.76
03.906,29.4
03.921,30.23
03.937,30.46
03.953,30.29
03.968,29.95
03.984,29.58
04.000,29.26
04.015,28.92
04.031,28.49
04.046,27.87
04.062,27.06
04.078,26.15
04.093,25.23
04.109,24.36
04.125,23.42
04.140,22.2
04.156,20.48
04.171,18.11
04.187,15.12
04.203,11.73
04.218,8.24
04.234,4.92
04.250,1.88
04.265,-0.97
04.281,-3.81
04.296,-6.91
04.312,-10.46
04.328,-14.6
04.343,-19.41
04.359,-24.85
04.375,-30.71
04.390,-36.55
04.406,-41.63
04.421,-45.04
04.437,-45.9
04.453,-43.58
04.468,-37.99
04.484,-29.61
04.500,-19.31
04.515,-8.17
04.531,2.89
04.546,13.15
04.562,22.24
04.578,29.95
04.593,36.16
04.609,40.77
04.625,43.69
04.640,44.91
04.656,44.65
04.671,43.29
04.687,41.41
04.703,39.58
04.718,38.2
04.734,37.43
04.750,37.14
04.765,37.03
04.781,36.79
04.796,36.3
04.812,35.57
04.828,34.75
04.843,33.93
04.859,33.04
04.875,31.86
04.890,30.08
04.906,27.45
04.921,23.91
04.937,19.58
04.953,14.77
04.968,9.86
04.984,5.16
05.000,0.83
05.015,-3.13
05.031,-6.92
05.046,-10.85
05.062,-15.24
05.078,-20.31
05.093,-26.12
05.109,-32.48
05.125,-38.9
05.140,-44.66
05.156,-48.82
05.171,-50.4
05.187,-48.64
05.203,-43.19
05.218,-34.36
05.234,-23.06
05.250,-10.61
05.265,1.68
05.281,12.76
05.296,22.17
05.312,29.84
05.328,35.97
05.343,40.75
05.359,44.25
05.375,46.47
05.390,47.42
05.406,47.31
05.421,46.44
05.437,45.24
05.453,44.06
05.468,43.16
05.484,42.57
05.500,42.17
05.515,41.79
05.531,41.21
05.546,40.36
05.562,39.29
05.578,38.16
05.593,37.04
05.609,35.86
05.625,34.36
05.640,32.16
05.656,28.95
05.671,24.63
05.687,19.43
05.703,13.8
05.718,8.28
05.734,3.25
05.750,-1.17
05.765,-5.14
05.781,-9.03
05.796,-13.26
05.812,-18.15
05.828,-23.87
05.843,-30.34
05.859,-37.18
05.875,-43.77
05.890,-49.07
05.906,-51.9
05.921,-51.15
05.937,-46.16
05.953,-37.07
05.968,-24.87
05.984,-11.19
06.000,2.26
06.015,14.18
06.031,23.97
06.046,31.68
06.062,37.69
06.078,42.35
06.093,45.79
06.109,47.9
06.125,48.6
06.140,48.01
06.156,46.48
06.171,44.53
06.187,42.64
06.203,41.11
06.218,40.05
06.234,39.33
06.250,38.72
06.265,38.01
06.281,37.1
06.296,35.98
06.312,34.74
06.328,33.39
06.343,31.86
06.359,29.97
06.375,27.49
06.390,24.26
06.406,20.25
06.421,15.64
06.437,10.74
06.453,5.93
06.468,1.46
06.484,-2.6
06.500,-6.39
06.515,-10.2
06.531,-14.34
06.546,-19.04
06.562,-24.32
06.578,-29.97
06.593,-35.49
06.609,-40.2
06.625,-43.23
06.640,-43.75
06.656,-41.17
06.671,-35.32
06.687,-26.67
06.703,-16.13
06.718,-4.9
06.734,5.96
06.750,15.71
06.765,24.03
06.781,30.94
06.796,36.46
06.812,40.6
06.828,43.25
06.843,44.37
06.859,44.09
06.875,42.81
06.890,41.12
06.906,39.61
06.921,38.71
06.937,38.56
06.953,39.04
06.968,39.89
06.984,40.84
07.000,41.69
07.015,42.37
07.031,42.86
07.046,43.14
07.062,43.16
07.078,42.77
07.093,41.86
07.109,40.36
07.125,38.34
07.140,35.97
07.156,33.51
07.171,31.23
07.187,29.29
07.203,27.75
07.218,26.51
07.234,25.41
07.250,24.24
07.265,22.9
07.281,21.35
07.296,19.65
07.312,17.9
07.328,16.27
07.343,14.87
07.359,13.81
07.375,13.08
07.390,12.67
07.406,12.5
07.421,12.42
07.437,12.25
07.453,11.84
07.468,11.08
07.484,9.93
07.500,8.47
07.515,6.82
07.531,5.16
07.546,3.62
07.562,2.24
07.578,1.02
07.593,-0.12
07.609,-1.27
07.625,-2.44
07.640,-3.51
07.656,-4.35
07.671,-4.88
07.687,-5.17
07.703,-5.48
07.718,-6.14
07.734,-7.39
07.750,-9.3
07.765,-11.67
07.781,-14.2
07.796,-16.63
07.812,-18.91
07.828,-21.2
07.843,-23.8
07.859,-26.96
07.875,-30.78
07.890,-35.12
07.906,-39.63
07.921,-43.87
07.937,-47.49
07.953,-50.28
07.968,-52.36
07.984,-54.1
08.000,-56.09
08.015,-58.91
08.031,-62.94
08.046,-68.06
08.062,-73.59
08.078,-78.34
08.093,-80.84
08.109,-79.78
08.125,-74.44
08.140,-64.92
08.156,-52.2
08.171,-37.83
08.187,-23.5
08.203,-10.6
08.218,0.1
08.234,8.46
08.250,14.73
08.265,19.33
08.281,22.63
08.296,24.84
08.312,26.07
08.328,26.47
08.343,26.35
08.359,26.08
08.375,26.05
08.390,26.41
08.406,27.05
08.421,27.7
08.437,28.06
08.453,27.98
08.468,27.57
08.484,27.12
08.500,26.85
08.515,26.73
08.531,26.49
08.546,25.71
08.562,24.0
08.578,21.23
08.593,17.54
08.609,13.23
08.625,8.72
08.640,4.36
08.656,0.38
08.671,-3.13
08.687,-6.23
08.703,-9.2
08.718,-12.37
08.734,-16.08
08.750,-20.57
08.765,-25.86
08.781,-31.63
08.796,-37.21
08.812,-41.69
08.828,-44.09
08.843,-43.61
08.859,-39.89
08.875,-33.16
08.890,-24.15
08.906,-13.94
08.921,-3.62
08.937,5.86
08.953,13.9
08.968,20.24
08.984,24.89
09.000,28.0
09.015,29.84
09.031,30.66
09.046,30.7
09.062,30.17
09.078,29.22
09.093,27.96
09.109,26.53
09.125,25.11
09.140,23.91
09.156,23.15
09.171,22.94
09.187,23.22
09.203,23.76
09.218,24.24
09.234,24.31
09.250,23.79
09.265,22.64
09.281,20.95
09.296,18.87
09.312,16.45
09.328,13.68
09.343,10.5
09.359,6.95
09.375,3.13
09.390,-0.75
09.406,-4.55
09.421,-8.19
09.437,-11.72
09.453,-15.19
09.468,-18.71
09.484,-22.31
09.500,-26.07
09.515,-30.0
09.531,-34.09
09.546,-38.23
09.562,-42.1
09.578,-45.16
09.593,-46.7
09.609,-46.07
09.625,-42.81
09.640,-36.91
09.656,-28.86
09.671,-19.45
09.687,-9.66
09.703,-0.37
09.718,7.81
09.734,14.55
09.750,19.79
09.765,23.64
09.781,26.27
09.796,27.84
09.812,28.55
09.828,28.59
09.843,28.2
09.859,27.61
09.875,26.99
09.890,26.43
09.906,25.95
09.921,25.52
09.937,25.12
09.953,24.74
09.968,24.39
09.984,24.07
10.000,23.76
10.015,23.35
10.031,22.73
10.046,21.73
10.062,20.21
10.078,18.07
10.093,15.32
10.109,12.09
10.125,8.55
10.140,4.87
10.156,1.21
10.171,-2.33
10.187,-5.7
10.203,-8.82
10.218,-11.62
10.234,-14.08
10.250,-16.31
10.265,-18.56
10.281,-21.18
10.296,-24.48
10.312,-28.6
10.328,-33.4
10.343,-38.4
10.359,-42.9
10.375,-46.05
10.390,-47.13
10.406,-45.63
10.421,-41.47
10.437,-35.0
10.453,-26.91
10.468,-18.06
10.484,-9.26
10.500,-1.13
10.515,5.99
10.531,12.0
10.546,16.93
10.562,20.88
10.578,23.93
10.593,26.14
10.609,27.55
10.625,28.27
10.640,28.4
10.656,28.12
10.671,27.6
10.687,27.01
10.703,26.42
10.718,25.89
10.734,25.47
10.750,25.14
10.765,24.91
10.781,24.69
10.796,24.37
10.812,23.8
10.828,22.82
10.843,21.32
10.859,19.27
10.875,16.73
10.890,13.86
10.906,10.87
10.921,7.97
10.937,5.3
10.953,2.88
10.968,0.6
10.984,-1.67
11.000,-4.05
11.015,-6.55
11.031,-9.12
11.046,-11.62
11.062,-14.03
11.078,-16.44
11.093,-19.02
11.109,-22.01
11.125,-25.52
11.140,-29.53
11.156,-33.84
11.171,-38.09
11.187,-41.77
11.203,-44.26
11.218,-44.93
11.234,-43.2
11.250,-38.78
11.265,-31.82
11.281,-22.96
11.296,-13.2
11.312,-3.64
11.328,4.87
11.343,11.86
11.359,17.35
11.375,21.57
11.390,24.78
11.406,27.04
11.421,28.3
11.437,28.55
11.453,27.92
11.468,26.8
11.484,25.67
11.500,24.89
11.515,24.53
11.531,24.42
11.546,24.24
11.562,23.76
11.578,22.95
11.593,21.96
11.609,21.02
11.625,20.25
11.640,19.62
11.656,19.02
11.671,18.24
11.687,17.21
11.703,15.95
11.718,14.55
11.734,13.15
11.750,11.75
11.765,10.28
11.781,8.59
11.796,6.53
11.812,4.06
11.828,1.24
11.843,-1.77
11.859,-4.76
11.875,-7.63
11.890,-10.28
11.906,-12.79
11.921,-15.28
11.937,-17.92
11.953,-20.88
11.968,-24.32
11.984,-28.23
12.000,-32.43
12.015,-36.46
12.031,-39.59
12.046,-41.04
12.062,-40.2
12.078,-36.83
12.093,-31.13
12.109,-23.73
12.125,-15.44
12.140,-7.08
12.156,0.69
12.171,7.48
12.187,13.12
12.203,17.64
12.218,21.12
12.234,23.7
12.250,25.41
12.265,26.31
12.281,26.47
12.296,26.05
12.312,25.31
12.328,24.57
12.343,24.1
12.359,23.98
12.375,24.15
12.390,24.45
12.406,24.75
12.421,24.97
12.437,25.16
12.453,25.32
12.468,25.37
12.484,25.1
12.500,24.35
12.515,23.02
12.531,21.24
12.546,19.26
12.562,17.36
12.578,15.7
12.593,14.24
12.609,12.73
12.625,10.91
12.640,8.57
12.656,5.76
12.671,2.7
12.687,-0.28
12.703,-2.88
12.718,-4.98
12.734,-6.67
12.750,-8.25
12.765,-10.05
12.781,-12.37
12.796,-15.32
12.812,-18.87
12.828,-22.84
12.843,-26.85
12.859,-30.42
12.875,-32.93
12.890,-33.74
12.906,-32.37
12.921,-28.68
12.937,-22.96
12.953,-15.9
12.968,-8.39
12.984,-1.24
13.000,5.02
13.015,10.26
13.031,14.59
13.046,18.17
13.062,21.04
13.078,23.07
13.093,24.09
13.109,24.03
13.125,23.03
13.140,21.42
13.156,19.6
13.171,17.85
13.187,16.26
13.203,14.85
13.218,13.62
13.234,12.66
13.250,12.14
13.265,12.17
13.281,12.68
13.296,13.43
13.312,14.09
13.328,14.35
13.343,14.1
13.359,13.44
13.375,12.52
13.390,11.55
13.406,10.58
13.421,9.61
13.437,8.57
13.453,7.45
13.468,6.2
13.484,4.83
13.500,3.31
13.515,1.59
13.531,-0.31
13.546,-2.37
13.562,-4.48
13.578,-6.51
13.593,-8.47
13.609,-10.46
13.625,-12.77
13.640,-15.68
13.656,-19.37
13.671,-23.7
13.687,-28.21
13.703,-32.17
13.718,-34.75
13.734,-35.28
13.750,-33.42
13.765,-29.2
13.781,-23.11
13.796,-15.84
13.812,-8.15
13.828,-0.75
13.843,5.88
13.859,11.52
13.875,16.13
13.890,19.82
13.906,22.73
13.921,25.01
13.937,26.73
13.953,27.97
13.968,28.77
13.984,29.25
14.000,29.54
14.015,29.82
14.031,30.24
14.046,30.89
14.062,31.72
14.078,32.61
14.093,33.39
14.109,33.94
14.125,34.18
14.140,34.15
14.156,33.88
14.171,33.42
14.187,32.74
14.203,31.73
14.218,30.26
14.234,28.32
14.250,25.98
14.265,23.44
14.281,20.93
14.296,18.57
14.312,16.37
14.328,14.24
14.343,12.03
14.359,9.66
14.375,7.14
14.390,4.55
14.406,1.97
14.421,-0.53
14.437,-3.03
14.453,-5.63
14.468,-8.51
14.484,-11.77
14.500,-15.37
14.515,-19.11
14.531,-22.66
14.546,-25.52
14.562,-27.21
14.578,-27.31
14.593,-25.58
14.609,-21.96
14.625,-16.73
14.640,-10.35
14.656,-3.42
14.671,3.44
14.687,9.74
14.703,15.14
14.718,19.49
14.734,22.82
14.750,25.2
14.765,26.73
14.781,27.53
14.796,27.72
14.812,27.52
14.828,27.13
14.843,26.77
14.859,26.56
14.875,26.51
14.890,26.5
14.906,26.37
14.921,26.02
14.937,25.46
14.953,24.81
14.968,24.24
14.984,23.85
15.000,23.53
15.015,23.06
15.031,22.14
15.046,20.61
15.062,18.49
15.078,15.96
15.093,13.32
15.109,10.77
15.125,8.38
15.140,6.08
15.156,3.78
15.171,1.4
15.187,-1.01
15.203,-3.34
15.218,-5.52
15.234,-7.52
15.250,-9.41
15.265,-11.33
15.281,-13.42
15.296,-15.79
15.312,-18.54
15.328,-21.69
15.343,-25.09
15.359,-28.39
15.375,-31.0
15.390,-32.28
15.406,-31.68
15.421,-28.96
15.437,-24.27
15.453,-18.15
15.468,-11.29
15.484,-4.39
15.500,2.0
15.515,7.55
15.531,12.13
15.546,15.66
15.562,18.18
15.578,19.77
15.593,20.56
15.609,20.65
15.625,20.17
15.640,19.28
15.656,18.14
15.671,16.92
15.687,15.77
15.703,14.78
15.718,13.95
15.734,13.21
15.750,12.5
15.765,11.78
15.781,11.06
15.796,10.36
15.812,9.62
15.828,8.69
15.843,7.42
15.859,5.68
15.875,3.45
15.890,0.87
15.906,-1.86
15.921,-4.55
15.937,-7.04
15.953,-9.27
15.968,-11.28
15.984,-13.13
16.000,-14.87
16.015,-16.6
16.031,-18.38
16.046,-20.27
16.062,-22.32
16.078,-24.49
16.093,-26.74
16.109,-29.02
16.125,-31.26
16.140,-33.41
16.156,-35.33
16.171,-36.78
16.187,-37.43
16.203,-36.94
16.218,-35.05
16.234,-31.69
16.250,-26.99
16.265,-21.32
16.281,-15.15
16.296,-8.96
16.312,-3.2
16.328,1.82
16.343,5.97
16.359,9.21
16.375,11.6
16.390,13.18
16.406,14.0
16.421,14.09
16.437,13.58
16.453,12.65
16.468,11.59
16.484,10.63
16.500,9.93
16.515,9.46
16.531,9.09
16.546,8.68
16.562,8.18
16.578,7.62
16.593,7.03
16.609,6.41
16.625,5.64
16.640,4.57
16.656,3.12
16.671,1.24
16.687,-0.95
16.703,-3.3
16.718,-5.65
16.734,-7.87
16.750,-9.89
16.765,-11.77
16.781,-13.56
16.796,-15.36
16.812,-17.24
16.828,-19.19
16.843,-21.2
16.859,-23.24
16.875,-25.34
16.890,-27.56
16.906,-30.04
16.921,-32.83
16.937,-35.92
16.953,-39.06
16.968,-41.81
16.984,-43.66
17.000,-44.09
17.015,-42.73
17.031,-39.45
17.046,-34.36
17.062,-27.82
17.078,-20.35
17.093,-12.61
17.109,-5.24
17.125,1.26
17.140,6.54
17.156,10.51
17.171,13.29
17.187,15.14
17.203,16.36
17.218,17.2
17.234,17.79
17.250,18.15
17.265,18.25
17.281,18.06
17.296,17.58
17.312,16.9
17.328,16.16
17.343,15.49
17.359,14.99
17.375,14.64
17.390,14.35
17.406,14.01
17.421,13.54
17.437,12.92
17.453,12.21
17.468,11.39
17.484,10.47
17.500,9.41
17.515,8.18
17.531,6.81
17.546,5.34
17.562,3.84
17.578,2.27
17.593,0.49
17.609,-1.64
17.625,-4.2
17.640,-7.12
17.656,-10.14
17.671,-13.01
17.687,-15.54
17.703,-17.74
17.718,-19.77
17.734,-21.88
17.750,-24.27
17.765,-27.04
17.781,-30.1
17.796,-33.27
17.812,-36.2
17.828,-38.42
17.843,-39.39
17.859,-38.59
17.875,-35.66
17.890,-30.56
17.906,-23.6
17.921,-15.42
17.937,-6.82
17.953,1.43
17.968,8.8
17.984,14.98
18.000,19.94
18.015,23.82
18.031,26.8
18.046,29.05
18.062,30.73
18.078,32.01
18.093,33.0
18.109,33.85
18.125,34.65
18.140,35.41
18.156,36.07
18.171,36.53
18.187,36.73
18.203,36.68
18.218,36.53
18.234,36.36
18.250,36.28
18.265,36.24
18.281,36.09
18.296,35.67
18.312,34.89
18.328,33.76
18.343,32.44
18.359,31.17
18.375,30.1
18.390,29.34
18.406,28.86
18.421,28.53
18.437,28.24
18.453,27.85
18.468,27.25
18.484,26.36
18.500,25.17
18.515,23.75
18.531,22.29
18.546,21.03
18.562,20.19
18.578,19.82
18.593,19.77
18.609,19.77
18.625,19.51
18.640,18.87
18.656,17.97
18.671,17.11
18.687,16.66
18.703,16.91
18.718,17.94
18.734,19.53
18.750,21.24
18.765,22.53
18.781,22.85
18.796,21.72
18.812,18.9
18.828,14.29
18.843,7.99
18.859,0.23
18.875,-8.71
18.890,-18.44
18.906,-28.48
18.921,-38.2
18.937,-46.96
18.953,-54.18
18.968,-59.5
18.984,-62.96
19.000,-64.86
19.015,-65.7
19.031,-65.94
19.046,-65.87
19.062,-65.53
19.078,-64.84
19.093,-63.64
19.109,-61.88
19.125,-59.66
19.140,-57.15
19.156,-54.54
19.171,-51.95
19.187,-49.38
19.203,-46.77
19.218,-44.08
19.234,-41.37
19.250,-38.77
19.265,-36.46
19.281,-34.65
19.296,-33.42
19.312,-32.85
19.328,-32.91
19.343,-33.56
19.359,-34.62
19.375,-35.76
19.390,-36.46
19.406,-36.2
19.421,-34.46
19.437,-31.05
19.453,-26.1
19.468,-20.1
19.484,-13.72
19.500,-7.59
19.515,-2.12
19.531,2.54
19.546,6.38
19.562,9.45
19.578,11.76
19.593,13.28
19.609,14.02
19.625,14.07
19.640,13.61
19.656,12.92
19.671,12.21
19.687,11.61
19.703,11.17
19.718,10.88
19.734,10.71
19.750,10.72
19.765,10.94
19.781,11.37
19.796,11.94
19.812,12.47
19.828,12.7
19.843,12.39
19.859,11.34
19.875,9.55
19.890,7.2
19.906,4.58
19.921,1.99
19.937,-0.38
19.953,-2.51
19.968,-4.59
19.984,-6.89
20.000,-9.62
20.015,-12.86
20.031,-16.51
20.046,-20.31
20.062,-23.92
20.078,-26.89
20.093,-28.76
20.109,-29.14
20.125,-27.75
20.140,-24.61
20.156,-19.94
20.171,-14.16
20.187,-7.73
20.203,-1.02
20.218,5.64
20.234,11.99
20.250,17.78
20.265,22.73
20.281,26.62
20.296,29.33
20.312,30.9
20.328,31.5
20.343,31.33
20.359,30.55
20.375,29.3
20.390,27.72
20.406,26.0
20.421,24.33
20.437,22.92
20.453,21.87
20.468,21.15
20.484,20.63
20.500,20.07
20.515,19.23
20.531,17.94
20.546,16.14
20.562,13.87
20.578,11.27
20.593,8.5
20.609,5.71
20.625,2.97
20.640,0.23
20.656,-2.6
20.671,-5.66
20.687,-9.09
20.703,-12.95
20.718,-17.2
20.734,-21.75
20.750,-26.36
20.765,-30.63
20.781,-34.03
20.796,-35.96
20.812,-35.93
20.828,-33.7
20.843,-29.46
20.859,-23.73
20.875,-17.28
20.890,-10.78
20.906,-4.71
20.921,0.78
20.937,5.72
20.953,10.17
20.968,14.1
20.984,17.33
21.000,19.67
21.015,21.01
21.031,21.45
21.046,21.18
21.062,20.46
21.078,19.52
21.093,18.54
21.109,17.61
21.125,16.79
21.140,16.11
21.156,15.53
21.171,15.01
21.187,14.46
21.203,13.75
21.218,12.7
21.234,11.21
21.250,9.21
21.265,6.76
21.281,4.04
21.296,1.28
21.312,-1.33
21.328,-3.77
21.343,-6.23
21.359,-9.01
21.375,-12.39
21.390,-16.36
21.406,-20.6
21.421,-24.4
21.437,-26.97
21.453,-27.67
21.468,-26.21
21.484,-22.74
21.500,-17.77
21.515,-11.98
21.531,-6.04
21.546,-0.43
21.562,4.56
21.578,8.81
21.593,12.25
21.609,14.86
21.625,16.61
21.640,17.52
21.656,17.64
21.671,17.04
21.687,15.82
21.703,14.16
21.718,12.25
21.734,10.4
21.750,8.86
21.765,7.82
21.781,7.31
21.796,7.19
21.812,7.2
21.828,7.07
21.843,6.61
21.859,5.77
21.875,4.64
21.890,3.35
21.906,1.99
21.921,0.57
21.937,-0.98
21.953,-2.77
21.968,-4.89
21.984,-7.32
22.000,-10.06
22.015,-13.05
22.031,-16.28
22.046,-19.67
22.062,-23.0
22.078,-25.82
22.093,-27.48
22.109,-27.31
22.125,-24.91
22.140,-20.34
22.156,-14.14
22.171,-7.19
22.187,-0.41
22.203,5.53
22.218,10.36
22.234,14.07
22.250,16.85
22.265,18.77
22.281,19.87
22.296,20.13
22.312,19.63
22.328,18.61
22.343,17.41
22.359,16.4
22.375,15.77
22.390,15.48
22.406,15.35
22.421,15.11
22.437,14.63
22.453,13.87
22.468,12.97
22.484,12.04
22.500,11.13
22.515,10.16
22.531,9.03
22.546,7.67
22.562,6.05
22.578,4.22
22.593,2.22
22.609,0.06
22.625,-2.28
22.640,-4.81
22.656,-7.56
22.671,-10.5
22.687,-13.65
22.703,-16.96
22.718,-20.31
22.734,-23.47
22.750,-26.05
22.765,-27.56
22.781,-27.53
22.796,-25.68
22.812,-21.99
22.828,-16.8
22.843,-10.64
22.859,-4.15
22.875,2.12
22.890,7.74
22.906,12.46
22.921,16.16
22.937,18.83
22.953,20.46
22.968,21.12
22.984,20.91
23.000,20.0
23.015,18.68
23.031,17.24
23.046,15.99
23.062,15.18
23.078,14.89
23.093,15.07
23.109,15.52
23.125,15.98
23.140,16.25
23.156,16.21
23.171,15.88
23.187,15.4
23.203,14.87
23.218,14.35
23.234,13.79
23.250,13.07
23.265,12.08
23.281,10.77
23.296,9.15
23.312,7.28
23.328,5.27
23.343,3.24
23.359,1.32
23.375,-0.41
23.390,-1.95
23.406,-3.39
23.421,-4.91
23.437,-6.72
23.453,-8.99
23.468,-11.61
23.484,-14.3
23.500,-16.6
23.515,-17.98
23.531,-17.99
23.546,-16.41
23.562,-13.25
23.578,-8.82
23.593,-3.6
23.609,1.78
23.625,6.78
23.640,11.01
23.656,14.33
23.671,16.76
23.687,18.44
23.703,19.43
23.718,19.75
23.734,19.34
23.750,18.21
23.765,16.51
23.781,14.53
23.796,12.58
23.812,10.9
23.828,9.55
23.843,8.46
23.859,7.51
23.875,6.6
23.890,5.74
23.906,4.99
23.921,4.39
23.937,3.94
23.953,3.56
23.968,3.11
23.984,2.44
24.000,1.43
24.015,0.04
24.031,-1.67
24.046,-3.51
24.062,-5.28
24.078,-6.86
24.093,-8.26
24.109,-9.7
24.125,-11.4
24.140,-13.62
24.156,-16.36
24.171,-19.49
24.187,-22.72
24.203,-25.75
24.218,-28.26
24.234,-29.93
24.250,-30.49
24.265,-29.63
24.281,-27.22
24.296,-23.37
24.312,-18.51
24.328,-13.25
24.343,-8.29
24.359,-4.12
24.375,-0.94
24.390,1.31
24.406,2.82
24.421,3.75
24.437,4.14
24.453,3.98
24.468,3.27
24.484,2.18
24.500,0.96
24.515,-0.08
24.531,-0.74
24.546,-1.01
24.562,-1.06
24.578,-1.08
24.593,-1.22
24.609,-1.45
24.625,-1.63
24.640,-1.68
24.656,-1.63
24.671,-1.69
24.687,-2.11
24.703,-3.08
24.718,-4.53
24.734,-6.23
24.750,-7.85
24.765,-9.16
24.781,-10.12
24.796,-10.88
24.812,-11.74
24.828,-12.95
24.843,-14.74
24.859,-17.19
24.875,-20.23
24.890,-23.58
24.906,-26.73
24.921,-29.03
24.937,-29.82
24.953,-28.72
24.968,-25.71
24.984,-21.23
25.000,-15.96
25.015,-10.64
25.031,-5.8
25.046,-1.66
25.062,1.77
25.078,4.62
25.093,6.98
25.109,8.83
25.125,10.09
25.140,10.67
25.156,10.54
25.171,9.85
25.187,8.82
25.203,7.7
25.218,6.67
25.234,5.76
25.250,4.91
25.265,4.01
25.281,3.0
25.296,1.88
25.312,0.75
25.328,-0.29
25.343,-1.25
25.359,-2.23
25.375,-3.46
25.390,-5.15
25.406,-7.38
25.421,-10.08
25.437,-12.95
25.453,-15.64
25.468,-17.88
25.484,-19.54
25.500,-20.72
25.515,-21.61
25.531,-22.43
25.546,-23.39
25.562,-24.65
25.578,-26.32
25.593,-28.47
25.609,-31.03
25.625,-33.74
25.640,-36.1
25.656,-37.57
25.671,-37.6
25.687,-35.89
25.703,-32.46
25.718,-27.52
25.734,-21.53
25.750,-14.92
25.765,-8.09
25.781,-1.44
25.796,4.69
25.812,10.03
25.828,14.32
25.843,17.43
25.859,19.33
25.875,20.07
25.890,19.82
25.906,18.87
25.921,17.59
25.937,16.39
25.953,15.63
25.968,15.42
25.984,15.66
26.000,16.0
26.015,16.03
26.031,15.47
26.046,14.32
26.062,12.81
26.078,11.27
26.093,9.95
26.109,8.84
26.125,7.7
26.140,6.17
26.156,3.99
26.171,1.13
26.187,-2.17
26.203,-5.51
26.218,-8.49
26.234,-10.93
26.250,-12.89
26.265,-14.58
26.281,-16.29
26.296,-18.21
26.312,-20.47
26.328,-23.05
26.343,-25.88
26.359,-28.79
26.375,-31.49
26.390,-33.54
26.406,-34.35
26.421,-33.41
26.437,-30.41
26.453,-25.39
26.468,-18.81
26.484,-11.36
26.500,-3.79
26.515,3.31
26.531,9.64
26.546,15.15
26.562,19.89
26.578,23.9
26.593,27.11
26.609,29.37
26.625,30.57
26.640,30.76
26.656,30.19
26.671,29.32
26.687,28.55
26.703,28.16
26.718,28.15
26.734,28.32
26.750,28.41
26.765,28.22
26.781,27.69
26.796,26.91
26.812,26.03
26.828,25.17
26.843,24.37
26.859,23.62
26.875,22.8
26.890,21.75
26.906,20.35
26.921,18.52
26.937,16.31
26.953,13.83
26.968,11.28
26.984,8.79
27.000,6.45
27.015,4.17
27.031,1.87
27.046,-0.57
27.062,-3.23
27.078,-6.17
27.093,-9.38
27.109,-12.8
27.125,-16.24
27.140,-19.33
27.156,-21.59
27.171,-22.43
27.187,-21.37
27.203,-18.14
27.218,-12.87
27.234,-6.06
27.250,1.55
27.265,9.03
27.281,15.6
27.296,20.71
27.312,24.15
27.328,26.02
27.343,26.6
27.359,26.19
27.375,25.02
27.390,23.27
27.406,21.1
27.421,18.74
27.437,16.49
27.453,14.6
27.468,13.24
27.484,12.39
27.500,11.88
27.515,11.45
27.531,10.95
27.546,10.27
27.562,9.44
27.578,8.53
27.593,7.52
27.609,6.34
27.625,4.87
27.640,2.97
27.656,0.59
27.671,-2.23
27.687,-5.31
27.703,-8.42
27.718,-11.3
27.734,-13.76
27.750,-15.73
27.765,-17.26
27.781,-18.47
27.796,-19.54
27.812,-20.64
27.828,-21.94
27.843,-23.55
27.859,-25.54
27.875,-27.76
27.890,-29.8
27.906,-31.06
27.921,-30.85
27.937,-28.69
27.953,-24.45
27.968,-18.47
27.984,-11.51
28.000,-4.38
28.015,2.22
28.031,7.91
28.046,12.64
28.062,16.5
28.078,19.55
28.093,21.73
28.109,22.88
28.125,22.95
28.140,22.11
28.156,20.78
28.171,19.47
28.187,18.64
28.203,18.53
28.218,19.09
28.234,20.09
28.250,21.2
28.265,22.14
28.281,22.71
28.296,22.74
28.312,22.15
28.328,20.96
28.343,19.25
28.359,17.21
28.375,15.0
28.390,12.71
28.406,10.38
28.421,7.96
28.437,5.46
28.453,2.94
28.468,0.56
28.484,-1.52
28.500,-3.21
28.515,-4.52
28.531,-5.54
28.546,-6.47
28.562,-7.54
28.578,-8.95
28.593,-10.86
28.609,-13.27
28.625,-16.06
28.640,-18.79
28.656,-20.84
28.671,-21.49
28.687,-20.14
28.703,-16.57
28.718,-11.07
28.734,-4.36
28.750,2.67
28.765,9.18
28.781,14.68
28.796,18.99
28.812,22.17
28.828,24.27
28.843,25.28
28.859,25.15
28.875,23.91
28.890,21.8
28.906,19.23
28.921,16.72
28.937,14.68
28.953,13.24
28.968,12.29
28.984,11.58
29.000,10.91
29.015,10.2
29.031,9.52
29.046,9.04
29.062,8.82
29.078,8.78
29.093,8.61
29.109,7.95
29.125,6.51
29.140,4.18
29.156,1.17
29.171,-2.16
29.187,-5.37
29.203,-8.15
29.218,-10.43
29.234,-12.31
29.250,-14.0
29.265,-15.75
29.281,-17.73
29.296,-20.11
29.312,-22.92
29.328,-26.11
29.343,-29.39
29.359,-32.25
29.375,-34.01
29.390,-33.99
29.406,-31.79
29.421,-27.46
29.437,-21.53
29.453,-14.78
29.468,-8.07
29.484,-2.0
29.500,3.14
29.515,7.24
29.531,10.33
29.546,12.41
29.562,13.46
29.578,13.55
29.593,12.89
29.609,11.79
29.625,10.59
29.640,9.51
29.656,8.61
29.671,7.84
29.687,7.07
29.703,6.22
29.718,5.31
29.734,4.4
29.750,3.52
29.765,2.67
29.781,1.78
29.796,0.75
29.812,-0.51
29.828,-2.1
29.843,-4.07
29.859,-6.39
29.875,-8.92
29.890,-11.41
29.906,-13.63
29.921,-15.49
29.937,-17.07
29.953,-18.62
29.968,-20.48
29.984,-22.91
30.000,-25.96
30.015,-29.53
30.031,-33.25
30.046,-36.67
30.062,-39.26
30.078,-40.55
30.093,-40.16
30.109,-37.94
30.125,-34.0
30.140,-28.71
30.156,-22.65
30.171,-16.42
30.187,-10.54
30.203,-5.35
30.218,-0.9
30.234,2.87
30.250,6.07
30.265,8.71
30.281,10.7
30.296,11.9
30.312,12.18
30.328,11.6
30.343,10.35
30.359,8.79
30.375,7.2
30.390,5.79
30.406,4.58
30.421,3.53
30.437,2.56
30.453,1.71
30.468,1.06
30.484,0.7
30.500,0.61
30.515,0.66
30.531,0.55
30.546,-0.04
30.562,-1.33
30.578,-3.34
30.593,-5.84
30.609,-8.48
30.625,-10.88
30.640,-12.85
30.656,-14.42
30.671,-15.86
30.687,-17.47
30.703,-19.54
30.718,-22.23
30.734,-25.53
30.750,-29.3
30.765,-33.25
30.781,-36.87
30.796,-39.59
30.812,-40.81
30.828,-40.05
30.843,-37.14
30.859,-32.25
30.875,-25.89
30.890,-18.75
30.906,-11.5
30.921,-4.62
30.937,1.65
30.953,7.25
30.968,12.19
30.984,16.45
31.000,19.88
31.015,22.33
31.031,23.67
31.046,23.97
31.062,23.55
31.078,22.83
31.093,22.21
31.109,21.86
31.125,21.63
31.140,21.26
31.156,20.47
31.171,19.11
31.187,17.34
31.203,15.42
31.218,13.63
31.234,12.11
31.250,10.81
31.265,9.47
31.281,7.87
31.296,5.77
31.312,3.13
31.328,0.09
31.343,-3.08
31.359,-6.07
31.375,-8.66
31.390,-10.82
31.406,-12.73
31.421,-14.69
31.437,-17.0
31.453,-19.81
31.468,-23.12
31.484,-26.8
31.500,-30.55
31.515,-33.93
31.531,-36.42
31.546,-37.41
31.562,-36.41
31.578,-33.16
31.593,-27.83
31.609,-20.93
31.625,-13.26
31.640,-5.61
31.656,1.42
31.671,7.49
31.687,12.52
31.703,16.57
31.718,19.68
31.734,21.84
31.750,23.05
31.765,23.35
31.781,22.94
31.796,22.16
31.812,21.38
31.828,20.93
31.843,20.94
31.859,21.32
31.875,21.86
31.890,22.31
31.906,22.55
31.921,22.63
31.937,22.68
31.953,22.87
31.968,23.19
31.984,23.51
32.000,23.58
32.015,23.16
32.031,22.12
32.046,20.48
32.062,18.4
32.078,16.12
32.093,13.86
32.109,11.75
32.125,9.77
32.140,7.82
32.156,5.7
32.171,3.19
32.187,0.1
32.203,-3.6
32.218,-7.75
32.234,-12.03
32.250,-15.95
32.265,-19.0
32.281,-20.65
32.296,-20.54
32.312,-18.45
32.328,-14.42
32.343,-8.79
32.359,-2.18
32.375,4.67
32.390,11.07
32.406,16.56
32.421,21.02
32.437,24.53
32.453,27.26
32.468,29.26
32.484,30.4
32.500,30.47
32.515,29.33
32.531,27.14
32.546,24.29
32.562,21.37
32.578,18.91
32.593,17.29
32.609,16.49
32.625,16.26
32.640,16.22
32.656,16.06
32.671,15.68
32.687,15.19
32.703,14.77
32.718,14.52
32.734,14.38
32.750,14.08
32.765,13.32
32.781,11.95
32.796,10.03
32.812,7.83
32.828,5.65
32.843,3.69
32.859,1.9
32.875,0.11
32.890,-1.88
32.906,-4.25
32.921,-7.05
32.937,-10.28
32.953,-13.85
32.968,-17.53
32.984,-20.91
33.000,-23.46
33.015,-24.6
33.031,-23.91
33.046,-21.31
33.062,-17.08
33.078,-11.73
33.093,-5.88
33.109,-0.05
33.125,5.41
33.140,10.27
33.156,14.38
33.171,17.56
33.187,19.62
33.203,20.46
33.218,20.05
33.234,18.6
33.250,16.47
33.265,14.19
33.281,12.26
33.296,11.0
33.312,10.46
33.328,10.42
33.343,10.52
33.359,10.39
33.375,9.87
33.390,8.99
33.406,7.95
33.421,6.93
33.437,5.98
33.453,5.02
33.468,3.78
33.484,1.98
33.500,-0.57
33.515,-3.83
33.531,-7.53
33.546,-11.18
33.562,-14.31
33.578,-16.6
33.593,-18.05
33.609,-19.03
33.625,-20.08
33.640,-21.74
33.656,-24.32
33.671,-27.79
33.687,-31.78
33.703,-35.71
33.718,-38.9
33.734,-40.66
33.750,-40.48
33.765,-38.03
33.781,-33.32
33.796,-26.72
33.812,-18.93
33.828,-10.83
33.843,-3.24
33.859,3.26
33.875,8.4
33.890,12.22
33.906,14.95
33.921,16.85
33.937,18.08
33.953,18.69
33.968,18.66
33.984,18.05
34.000,16.96
34.015,15.64
34.031,14.36
34.046,13.38
34.062,12.82
34.078,12.69
34.093,12.95
34.109,13.54
34.125,14.42
34.140,15.56
34.156,16.84
34.171,18.06
34.187,18.97
34.203,19.36
34.218,19.15
34.234,18.45
34.250,17.45
34.265,16.4
34.281,15.45
34.296,14.69
34.312,14.14
34.328,13.74
34.343,13.46
34.359,13.27
34.375,13.16
34.390,13.13
34.406,13.23
34.421,13.47
34.437,13.79
34.453,14.08
34.468,14.18
34.484,14.01
34.500,13.55
34.515,12.89
34.531,12.19
34.546,11.51
34.562,10.88
34.578,10.21
34.593,9.43
34.609,8.5
34.625,7.5
34.640,6.6
34.656,5.9
34.671,5.41
34.687,5.01
34.703,4.48
34.718,3.65
34.734,2.5
34.750,1.15
34.765,-0.2
34.781,-1.34
34.796,-2.22
34.812,-2.87
34.828,-3.44
34.843,-4.06
34.859,-4.8
34.875,-5.65
34.890,-6.54
34.906,-7.43
34.921,-8.24
34.937,-8.96
34.953,-9.58
34.968,-10.14
34.984,-10.78
35.000,-11.7
35.015,-13.13
35.031,-15.18
35.046,-17.83
35.062,-20.88
35.078,-24.03
35.093,-27.02
35.109,-29.73
35.125,-32.16
35.140,-34.44
35.156,-36.68
35.171,-39.07
35.187,-41.74
35.203,-44.72
35.218,-47.86
35.234,-50.66
35.250,-52.34
35.265,-51.98
35.281,-48.9
35.296,-42.88
35.312,-34.4
35.328,-24.42
35.343,-14.07
35.359,-4.34
35.375,4.11
35.390,11.02
35.406,16.39
35.421,20.29
35.437,22.85
35.453,24.16
35.468,24.44
35.484,23.94
35.500,22.98
35.515,21.88
35.531,20.89
35.546,20.16
35.562,19.72
35.578,19.49
35.593,19.38
35.609,19.35
35.625,19.4
35.640,19.55
35.656,19.76
35.671,19.9
35.687,19.69
35.703,18.83
35.718,17.13
35.734,14.56
35.750,11.35
35.765,7.86
35.781,4.39
35.796,1.11
35.812,-1.95
35.828,-4.92
35.843,-7.95
35.859,-11.18
35.875,-14.72
35.890,-18.72
35.906,-23.3
35.921,-28.42
35.937,-33.76
35.953,-38.68
35.968,-42.35
35.984,-43.98
36.000,-43.15
36.015,-39.92
36.031,-34.75
36.046,-28.31
36.062,-21.22
36.078,-13.96
36.093,-6.91
36.109,-0.5
36.125,4.8
36.140,8.57
36.156,10.57
36.171,10.87
36.187,9.86
36.203,8.09
36.218,6.05
36.234,3.97
36.250,1.85
36.265,-0.45
36.281,-3.05
36.296,-5.95
36.312,-9.07
36.328,-12.37
36.343,-15.9
36.359,-19.86
36.375,-24.41
36.390,-29.59
36.406,-35.34
36.421,-41.47
36.437,-47.89
36.453,-54.59
36.468,-61.67
36.484,-69.11
36.500,-76.69
36.515,-83.84
36.531,-89.85
36.546,-94.06
36.562,-96.07
36.578,-95.74
36.593,-93.16
36.609,-88.41
36.625,-81.45
36.640,-72.23
36.656,-60.69
36.671,-46.96
36.687,-31.31
36.703,-14.1
36.718,4.42
36.734,23.9
36.750,43.75
36.765,62.86
36.781,79.49
36.796,91.73
36.812,98.22
36.828,98.83
36.843,95.05
36.859,89.55
36.875,85.31
36.890,84.62
36.906,88.41
36.921,96.13
36.937,106.31
36.953,117.23
36.968,127.51
36.984,136.34
37.000,143.57
37.015,149.52
37.031,154.93
37.046,160.7
37.062,167.66
37.078,176.1
37.093,185.5
37.109,194.53
37.125,201.27
37.140,203.85
37.156,200.89
37.171,191.91
37.187,177.38
37.203,158.44
37.218,136.52
37.234,113.05
37.250,89.14
37.265,65.51
37.281,42.6
37.296,20.77
37.312,0.57
37.328,-17.16
37.343,-31.43
37.359,-41.38
37.375,-46.75
37.390,-48.0
37.406,-46.25
37.421,-42.79
37.437,-38.7
37.453,-34.66
37.468,-30.92
37.484,-27.66
37.500,-25.16
37.515,-23.79
37.531,-23.82
37.546,-25.21
37.562,-27.48
37.578,-29.88
37.593,-31.74
37.609,-32.7
37.625,-32.81
37.640,-32.43
37.656,-31.94
37.671,-31.57
37.687,-31.27
37.703,-30.86
37.718,-30.3
37.734,-29.76
37.750,-29.66
37.765,-30.51
37.781,-32.67
37.796,-36.19
37.812,-40.77
37.828,-45.93
37.843,-51.22
37.859,-56.38
37.875,-61.37
37.890,-66.31
37.906,-71.41
37.921,-76.91
37.937,-82.97
37.953,-89.61
37.968,-96.59
37.984,-103.4
38.000,-109.19
38.015,-112.98
38.031,-113.88
38.046,-111.33
38.062,-105.34
38.078,-96.45
38.093,-85.63
38.109,-74.01
38.125,-62.62
38.140,-52.2
38.156,-43.08
38.171,-35.22
38.187,-28.34
38.203,-22.17
38.218,-16.58
38.234,-11.69
38.250,-7.75
38.265,-5.01
38.281,-3.53
38.296,-3.11
38.312,-3.37
38.328,-3.9
38.343,-4.39
38.359,-4.69
38.375,-4.83
38.390,-4.96
38.406,-5.27
38.421,-5.92
38.437,-7.03
38.453,-8.71
38.468,-10.95
38.484,-13.76
38.500,-16.98
38.515,-20.32
38.531,-23.3
38.546,-25.36
38.562,-26.05
38.578,-25.21
38.593,-23.16
38.609,-20.57
38.625,-18.35
38.640,-17.23
38.656,-17.61
38.671,-19.36
38.687,-21.98
38.703,-24.74
38.718,-26.97
38.734,-28.16
38.750,-28.09
38.765,-26.81
38.781,-24.58
38.796,-21.79
38.812,-18.81
38.828,-15.84
38.843,-12.86
38.859,-9.69
38.875,-6.14
38.890,-2.15
38.906,2.06
38.921,6.11
38.937,9.5
38.953,11.9
38.968,13.22
38.984,13.66
39.000,13.56
39.015,13.27
39.031,12.99
39.046,12.79
39.062,12.61
39.078,12.41
39.093,12.23
39.109,12.24
39.125,12.61
39.140,13.41
39.156,14.5
39.171,15.51
39.187,15.96
39.203,15.45
39.218,13.86
39.234,11.41
39.250,8.59
39.265,5.9
39.281,3.68
39.296,1.92
39.312,0.31
39.328,-1.52
39.343,-3.91
39.359,-6.99
39.375,-10.71
39.390,-14.84
39.406,-19.06
39.421,-22.86
39.437,-25.58
39.453,-26.45
39.468,-24.79
39.484,-20.23
39.500,-12.9
39.515,-3.42
39.531,7.29
39.546,18.25
39.562,28.71
39.578,38.24
39.593,46.67
39.609,53.94
39.625,59.94
39.640,64.46
39.656,67.29
39.671,68.3
39.687,67.55
39.703,65.34
39.718,62.03
39.734,57.97
39.750,53.4
39.765,48.35
39.781,42.78
39.796,36.64
39.812,29.94
39.828,22.71
39.843,15.01
39.859,6.89
39.875,-1.59
39.890,-10.25
39.906,-18.82
39.921,-26.92
39.937,-34.21
39.953,-40.49
39.968,-45.81
39.984,-50.33
40.000,-54.27
40.015,-57.78
40.031,-60.87
40.046,-63.48
40.062,-65.55
40.078,-67.11
40.093,-68.25
40.109,-69.1
40.125,-69.74
40.140,-70.23
40.156,-70.65
40.171,-70.98
40.187,-71.14
40.203,-70.76
40.218,-69.24
40.234,-65.83
40.250,-59.89
40.265,-51.14
40.281,-39.8
40.296,-26.6
40.312,-12.45
40.328,1.73
40.343,15.27
40.359,27.85
40.375,39.37
40.390,49.89
40.406,59.39
40.421,67.75
40.437,74.75
40.453,80.14
40.468,83.74
40.484,85.51
40.500,85.57
40.515,84.09
40.531,81.26
40.546,77.24
40.562,72.22
40.578,66.44
40.593,60.22
40.609,53.83
40.625,47.43
40.640,41.02
40.656,34.43
40.671,27.51
40.687,20.16
40.703,12.49
40.718,4.7
40.734,-2.97
40.750,-10.34
40.765,-17.37
40.781,-24.08
40.796,-30.58
40.812,-36.89
40.828,-42.98
40.843,-48.67
40.859,-53.72
40.875,-57.93
40.890,-61.17
40.906,-63.48
40.921,-65.04
40.937,-66.2
40.953,-67.33
40.968,-68.75
40.984,-70.64
41.000,-72.95
41.015,-75.29
41.031,-76.91
41.046,-76.83
41.062,-74.07
41.078,-68.01
41.093,-58.67
41.109,-46.75
41.125,-33.46
41.140,-20.1
41.156,-7.69
41.171,3.33
41.187,12.96
41.203,21.43
41.218,28.88
41.234,35.17
41.250,40.03
41.265,43.19
41.281,44.69
41.296,44.82
41.312,44.06
41.328,42.88
41.343,41.61
41.359,40.41
41.375,39.37
41.390,38.58
41.406,38.16
41.421,38.18
41.437,38.54
41.453,39.0
41.468,39.15
41.484,38.62
41.500,37.17
41.515,34.78
41.531,31.58
41.546,27.81
41.562,23.79
41.578,19.82
41.593,16.13
41.609,12.86
41.625,9.92
41.640,7.05
41.656,3.89
41.671,0.15
41.687,-4.19
41.703,-8.87
41.718,-13.42
41.734,-17.49
41.750,-20.98
41.765,-24.26
41.781,-27.93
41.796,-32.59
41.812,-38.63
41.828,-46.0
41.843,-54.17
41.859,-62.21
41.875,-68.9
41.890,-72.93
41.906,-73.2
41.921,-69.12
41.937,-60.82
41.953,-49.2
41.968,-35.69
41.984,-21.8
42.000,-8.71
42.015,2.9
42.031,12.92
42.046,21.48
42.062,28.76
42.078,34.84
42.093,39.67
42.109,43.2
42.125,45.47
42.140,46.7
42.156,47.23
42.171,47.44
42.187,47.6
42.203,47.86
42.218,48.18
42.234,48.38
42.250,48.27
42.265,47.68
42.281,46.57
42.296,44.99
42.312,42.95
42.328,40.45
42.343,37.44
42.359,33.96
42.375,30.1
42.390,26.07
42.406,22.04
42.421,18.06
42.437,14.03
42.453,9.72
42.468,4.95
42.484,-0.34
42.500,-6.02
42.515,-11.82
42.531,-17.44
42.546,-22.65
42.562,-27.42
42.578,-31.9
42.593,-36.42
42.609,-41.39
42.625,-47.21
42.640,-54.04
42.656,-61.57
42.671,-68.95
42.687,-74.89
42.703,-78.03
42.718,-77.34
42.734,-72.48
42.750,-63.9
42.765,-52.61
42.781,-39.85
42.796,-26.67
42.812,-13.84
42.828,-1.76
42.843,9.3
42.859,19.11
42.875,27.45
42.890,34.15
42.906,39.18
42.921,42.68
42.937,44.96
42.953,46.36
42.968,47.29
42.984,48.08
43.000,49.01
43.015,50.16
43.031,51.48
43.046,52.74
43.062,53.67
43.078,54.09
43.093,53.89
43.109,53.13
43.125,51.85
43.140,50.07
43.156,47.7
43.171,44.67
43.187,40.98
43.203,36.8
43.218,32.39
43.234,28.02
43.250,23.79
43.265,19.57
43.281,15.09
43.296,10.04
43.312,4.25
43.328,-2.2
43.343,-9.02
43.359,-15.78
43.375,-22.08
43.390,-27.64
43.406,-32.43
43.421,-36.68
43.437,-40.75
43.453,-45.11
43.468,-50.14
43.484,-56.01
43.500,-62.54
43.515,-69.14
43.531,-74.86
43.546,-78.51
43.562,-79.02
43.578,-75.73
43.593,-68.63
43.609,-58.4
43.625,-46.15
43.640,-33.13
43.656,-20.37
43.671,-8.5
43.687,2.25
43.703,11.9
43.718,20.47
43.734,27.91
43.750,34.04
43.765,38.68
43.781,41.81
43.796,43.55
43.812,44.26
43.828,44.37
43.843,44.25
43.859,44.14
43.875,44.09
43.890,44.09
43.906,44.1
43.921,44.2
43.937,44.44
43.953,44.84
43.968,45.24
43.984,45.3
44.000,44.6
44.015,42.83
44.031,39.89
44.046,35.97
44.062,31.45
44.078,26.8
44.093,22.4
44.109,18.36
44.125,14.6
44.140,10.82
44.156,6.76
44.171,2.26
44.187,-2.61
44.203,-7.6
44.218,-12.41
44.234,-16.84
44.250,-20.86
44.265,-24.65
44.281,-28.53
44.296,-32.8
44.312,-37.76
44.328,-43.52
44.343,-50.08
44.359,-57.2
44.375,-64.35
44.390,-70.69
44.406,-75.17
44.421,-76.71
44.437,-74.59
44.453,-68.64
44.468,-59.35
44.484,-47.75
44.500,-35.08
44.515,-22.44
44.531,-10.6
44.546,0.11
44.562,9.64
44.578,18.04
44.593,25.28
44.609,31.21
44.625,35.65
44.640,38.5
44.656,39.97
44.671,40.41
44.687,40.29
44.703,40.0
44.718,39.78
44.734,39.7
44.750,39.72
44.765,39.82
44.781,39.97
44.796,40.25
44.812,40.62
44.828,40.97
44.843,41.14
44.859,40.84
44.875,39.82
44.890,37.9
44.906,34.98
44.921,31.16
44.937,26.77
44.953,22.29
44.968,18.16
44.984,14.68
45.000,11.75
45.015,8.96
45.031,5.83
45.046,2.0
45.062,-2.53
45.078,-7.46
45.093,-12.33
45.109,-16.87
45.125,-21.04
45.140,-25.07
45.156,-29.28
45.171,-33.92
45.187,-39.12
45.203,-44.89
45.218,-51.15
45.234,-57.76
45.250,-64.34
45.265,-70.23
45.281,-74.49
45.296,-76.03
45.312,-73.97
45.328,-67.96
45.343,-58.35
45.359,-46.16
45.375,-32.81
45.390,-19.68
45.406,-7.8
45.421,2.28
45.437,10.52
45.453,17.07
45.468,22.16
45.484,25.94
45.500,28.51
45.515,29.95
45.531,30.47
45.546,30.33
45.562,29.86
45.578,29.29
45.593,28.77
45.609,28.34
45.625,28.03
45.640,27.89
45.656,27.9
45.671,28.04
45.687,28.12
45.703,27.84
45.718,26.89
45.734,25.02
45.750,22.23
45.765,18.75
45.781,14.95
45.796,11.16
45.812,7.59
45.828,4.2
45.843,0.76
45.859,-2.95
45.875,-7.04
45.890,-11.42
45.906,-15.84
45.921,-20.1
45.937,-24.13
45.953,-28.01
45.968,-31.97
45.984,-36.26
46.000,-41.09
46.015,-46.57
46.031,-52.66
46.046,-59.07
46.062,-65.11
46.078,-69.75
46.093,-71.82
46.109,-70.31
46.125,-64.81
46.140,-55.62
46.156,-43.77
46.171,-30.67
46.187,-17.71
46.203,-5.9
46.218,4.3
46.234,12.81
46.250,19.78
46.265,25.42
46.281,29.81
46.296,32.96
46.312,34.9
46.328,35.69
46.343,35.56
46.359,34.83
46.375,33.84
46.390,32.9
46.406,32.14
46.421,31.63
46.437,31.35
46.453,31.29
46.468,31.4
46.484,31.63
46.500,31.82
46.515,31.72
46.531,31.03
46.546,29.52
46.562,27.12
46.578,23.96
46.593,20.34
46.609,16.64
46.625,13.11
46.640,9.81
46.656,6.57
46.671,3.11
46.687,-0.83
46.703,-5.34
46.718,-10.28
46.734,-15.3
46.750,-20.09
46.765,-24.49
46.781,-28.63
46.796,-32.9
46.812,-37.78
46.828,-43.65
46.843,-50.55
46.859,-58.08
46.875,-65.32
46.890,-70.98
46.906,-73.74
46.921,-72.56
46.937,-67.07
46.953,-57.7
46.968,-45.57
46.984,-32.11
47.000,-18.71
47.015,-6.3
47.031,4.69
47.046,14.19
47.062,22.34
47.078,29.28
47.093,35.05
47.109,39.63
47.125,43.06
47.140,45.42
47.156,46.89
47.171,47.73
47.187,48.19
47.203,48.47
47.218,48.69
47.234,48.82
47.250,48.79
47.265,48.48
47.281,47.9
47.296,47.15
47.312,46.39
47.328,45.65
47.343,44.82
47.359,43.61
47.375,41.71
47.390,38.96
47.406,35.41
47.421,31.33
47.437,27.04
47.453,22.71
47.468,18.33
47.484,13.73
47.500,8.75
47.515,3.33
47.531,-2.38
47.546,-8.05
47.562,-13.34
47.578,-18.02
47.593,-22.03
47.609,-25.57
47.625,-29.03
47.640,-32.87
47.656,-37.48
47.671,-43.1
47.687,-49.66
47.703,-56.84
47.718,-64.0
47.734,-70.22
47.750,-74.45
47.765,-75.7
47.781,-73.26
47.796,-66.91
47.812,-57.08
47.828,-44.77
47.843,-31.33
47.859,-18.12
47.875,-6.11
47.890,4.27
47.906,13.03
47.921,20.5
47.937,26.95
47.953,32.45
47.968,36.86
47.984,39.99
48.000,41.8
48.015,42.53
48.031,42.6
48.046,42.44
48.062,42.33
48.078,42.3
48.093,42.22
48.109,41.96
48.125,41.45
48.140,40.78
48.156,40.02
48.171,39.16
48.187,37.98
48.203,36.13
48.218,33.23
48.234,29.13
48.250,23.98
48.265,18.22
48.281,12.51
48.296,7.35
48.312,2.98
48.328,-0.77
48.343,-4.33
48.359,-8.26
48.375,-12.93
48.390,-18.38
48.406,-24.37
48.421,-30.43
48.437,-36.14
48.453,-41.32
48.468,-46.07
48.484,-50.78
48.500,-55.97
48.515,-62.14
48.531,-69.64
48.546,-78.47
48.562,-88.15
48.578,-97.62
48.593,-105.27
48.609,-109.21
48.625,-107.83
48.640,-100.28
48.656,-86.88
48.671,-68.99
48.687,-48.63
48.703,-27.79
48.718,-7.97
48.734,10.04
48.750,25.98
48.765,39.79
48.781,51.34
48.796,60.4
48.812,66.73
48.828,70.3
48.843,71.42
48.859,70.72
48.875,68.98
48.890,67.01
48.906,65.38
48.921,64.35
48.937,63.9
48.953,63.84
48.968,63.96
48.984,64.16
49.000,64.35
49.015,64.47
49.031,64.37
49.046,63.8
49.062,62.52
49.078,60.47
49.093,57.74
49.109,54.63
49.125,51.39
49.140,48.11
49.156,44.66
49.171,40.78
49.187,36.19
49.203,30.8
49.218,24.76
49.234,18.43
49.250,12.27
49.265,6.71
49.281,1.98
49.296,-1.94
49.312,-5.4
49.328,-8.89
49.343,-12.98
49.359,-18.15
49.375,-24.62
49.390,-32.36
49.406,-41.05
49.421,-50.08
49.437,-58.61
49.453,-65.61
49.468,-70.05
49.484,-71.14
49.500,-68.59
49.515,-62.82
49.531,-54.81
49.546,-45.81
49.562,-36.96
49.578,-28.88
49.593,-21.7
49.609,-15.18
49.625,-9.0
49.640,-3.04
49.656,2.54
49.671,7.42
49.687,11.29
49.703,14.0
49.718,15.66
49.734,16.53
49.750,16.91
49.765,17.01
49.781,16.88
49.796,16.47
49.812,15.75
49.828,14.78
49.843,13.74
49.859,12.91
49.875,12.48
49.890,12.4
49.906,12.37
49.921,11.94
49.937,10.71
49.953,8.54
49.968,5.63
49.984,2.41
50.000,-0.62
50.015,-3.14
50.031,-5.17
50.046,-6.97
50.062,-8.94
50.078,-11.34
50.093,-14.2
50.109,-17.27
50.125,-20.2
50.140,-22.66
50.156,-24.49
50.171,-25.76
50.187,-26.71
50.203,-27.7
50.218,-29.09
50.234,-31.2
50.250,-34.18
50.265,-37.91
50.281,-41.95
50.296,-45.46
50.312,-47.39
50.328,-46.69
50.343,-42.67
50.359,-35.27
50.375,-25.11
50.390,-13.28
50.406,-1.09
50.421,10.39
50.437,20.5
50.453,29.01
50.468,36.03
50.484,41.69
50.500,46.12
50.515,49.36
50.531,51.44
50.546,52.53
50.562,52.81
50.578,52.57
50.593,52.03
50.609,51.35
50.625,50.56
50.640,49.63
50.656,48.49
50.671,47.07
50.687,45.35
50.703,43.32
50.718,41.01
50.734,38.42
50.750,35.57
50.765,32.43
50.781,28.96
50.796,25.15
50.812,21.12
50.828,17.03
50.843,13.16
50.859,9.76
50.875,6.93
50.890,4.56
50.906,2.35
50.921,-0.09
50.937,-3.03
50.953,-6.53
50.968,-10.41
50.984,-14.32
51.000,-17.95
51.015,-21.16
51.031,-24.1
51.046,-27.11
51.062,-30.66
51.078,-35.05
51.093,-40.33
51.109,-46.16
51.125,-51.82
51.140,-56.37
51.156,-58.83
51.171,-58.48
51.187,-55.01
51.203,-48.67
51.218,-40.12
51.234,-30.23
51.250,-19.96
51.265,-10.05
51.281,-1.06
51.296,6.68
51.312,12.98
51.328,17.76
51.343,21.02
51.359,22.88
51.375,23.62
51.390,23.61
51.406,23.28
51.421,22.99
51.437,22.93
51.453,23.11
51.468,23.33
51.484,23.33
51.500,22.96
51.515,22.26
51.531,21.53
51.546,21.13
51.562,21.36
51.578,22.3
51.593,23.71
51.609,25.17
51.625,26.2
51.640,26.42
51.656,25.65
51.671,23.92
51.687,21.41
51.703,18.31
51.718,14.77
51.734,10.88
51.750,6.72
51.765,2.36
51.781,-2.06
51.796,-6.31
51.812,-10.17
51.828,-13.48
51.843,-16.16
51.859,-18.37
51.875,-20.43
51.890,-22.78
51.906,-25.84
51.921,-29.89
51.937,-34.97
51.953,-40.83
51.968,-46.92
51.984,-52.43
52.000,-56.42
52.015,-58.01
52.031,-56.6
52.046,-52.09
52.062,-44.93
52.078,-36.06
52.093,-26.58
52.109,-17.49
52.125,-9.4
52.140,-2.51
52.156,3.25
52.171,7.99
52.187,11.75
52.203,14.48
52.218,16.18
52.234,17.07
52.250,17.47
52.265,17.84
52.281,18.46
52.296,19.45
52.312,20.74
52.328,22.17
52.343,23.62
52.359,25.01
52.375,26.3
52.390,27.36
52.406,28.04
52.421,28.16
52.437,27.65
52.453,26.52
52.468,24.95
52.484,23.1
52.500,21.08
52.515,18.86
52.531,16.28
52.546,13.18
52.562,9.5
52.578,5.33
52.593,0.86
52.609,-3.67
52.625,-8.09
52.640,-12.32
52.656,-16.39
52.671,-20.36
52.687,-24.28
52.703,-28.27
52.718,-32.52
52.734,-37.21
52.750,-42.43
52.765,-47.95
52.781,-53.06
52.796,-56.73
52.812,-57.85
52.828,-55.68
52.843,-50.12
52.859,-41.8
52.875,-31.79
52.890,-21.36
52.906,-11.64
52.921,-3.35
52.937,3.18
52.953,7.99
52.968,11.39
52.984,13.76
53.000,15.45
53.015,16.72
53.031,17.64
53.046,18.21
53.062,18.42
53.078,18.35
53.093,18.15
53.109,18.03
53.125,18.09
53.140,18.38
53.156,18.77
53.171,19.12
53.187,19.2
53.203,18.78
53.218,17.66
53.234,15.75
53.250,13.15
53.265,10.22
53.281,7.47
53.296,5.44
53.312,4.48
53.328,4.64
53.343,5.64
53.359,7.01
53.375,8.22
53.390,8.92
53.406,8.85
53.421,7.98
53.437,6.29
53.453,3.8
53.468,0.49
53.484,-3.65
53.500,-8.67
53.515,-14.63
53.531,-21.54
53.546,-29.3
53.562,-37.49
53.578,-45.37
53.593,-51.9
53.609,-56.08
53.625,-57.21
53.640,-55.16
53.656,-50.41
53.671,-43.84
53.687,-36.5
53.703,-29.22
53.718,-22.61
53.734,-16.94
53.750,-12.25
53.765,-8.57
53.781,-5.87
53.796,-4.11
53.812,-3.26
53.828,-3.24
53.843,-3.88
53.859,-4.95
53.875,-6.1
53.890,-6.95
53.906,-7.13
53.921,-6.37
53.937,-4.57
53.953,-1.77
53.968,1.82
53.984,5.96
54.000,10.32
54.015,14.57
54.031,18.4
54.046,21.58
54.062,24.0
54.078,25.65
54.093,26.66
54.109,27.15
54.125,27.25
54.140,27.05
54.156,26.66
54.171,26.26
54.187,26.06
54.203,26.25
54.218,26.81
54.234,27.53
54.250,28.0
54.265,27.76
54.281,26.37
54.296,23.6
54.312,19.45
54.328,14.26
54.343,8.66
54.359,3.55
54.375,-0.06
54.390,-1.32
54.406,0.2
54.421,4.29
54.437,10.18
54.453,16.78
54.468,23.03
54.484,28.22
54.500,32.03
54.515,34.53
54.531,35.9
54.546,36.32
54.562,35.82
54.578,34.43
54.593,32.23
54.609,29.41
54.625,26.28
54.640,23.16
54.656,20.33
54.671,17.93
54.687,15.98
54.703,14.43
54.718,13.22
54.734,12.27
54.750,11.52
54.765,10.81
54.781,9.94
54.796,8.6
54.812,6.59
54.828,3.89
54.843,0.68
54.859,-2.76
54.875,-6.2
54.890,-9.57
54.906,-13.0
54.921,-16.63
54.937,-20.55
54.953,-24.65
54.968,-28.68
54.984,-32.42
55.000,-35.77
55.015,-38.83
55.031,-41.8
55.046,-44.91
55.062,-48.37
55.078,-52.32
55.093,-56.83
55.109,-61.82
55.125,-66.95
55.140,-71.53
55.156,-74.57
55.171,-75.01
55.187,-72.06
55.203,-65.52
55.218,-55.9
55.234,-44.28
55.250,-31.97
55.265,-20.16
55.281,-9.57
55.296,-0.5
55.312,7.13
55.328,13.52
55.343,18.83
55.359,23.1
55.375,26.31
55.390,28.46
55.406,29.68
55.421,30.2
55.437,30.37
55.453,30.56
55.468,31.0
55.484,31.8
55.500,32.91
55.515,34.2
55.531,35.49
55.546,36.57
55.562,37.21
55.578,37.19
55.593,36.29
55.609,34.41
55.625,31.63
55.640,28.2
55.656,24.45
55.671,20.7
55.687,17.12
55.703,13.66
55.718,10.15
55.734,6.39
55.750,2.28
55.765,-2.14
55.781,-6.73
55.796,-11.3
55.812,-15.74
55.828,-20.05
55.843,-24.27
55.859,-28.53
55.875,-33.0
55.890,-37.91
55.906,-43.43
55.921,-49.66
55.937,-56.32
55.953,-62.7
55.968,-67.72
55.984,-70.14
56.000,-68.99
56.015,-63.98
56.031,-55.6
56.046,-44.99
56.062,-33.51
56.078,-22.27
56.093,-11.89
56.109,-2.43
56.125,6.28
56.140,14.37
56.156,21.72
56.171,28.01
56.187,32.92
56.203,36.32
56.218,38.42
56.234,39.64
56.250,40.45
56.265,41.16
56.281,41.81
56.296,42.26
56.312,42.27
56.328,41.74
56.343,40.78
56.359,39.63
56.375,38.53
56.390,37.62
56.406,36.84
56.421,35.89
56.437,34.47
56.453,32.36
56.468,29.56
56.484,26.26
56.500,22.78
56.515,19.3
56.531,15.88
56.546,12.43
56.562,8.75
56.578,4.75
56.593,0.46
56.609,-4.0
56.625,-8.41
56.640,-12.6
56.656,-16.47
56.671,-19.95
56.687,-23.15
56.703,-26.29
56.718,-29.72
56.734,-33.92
56.750,-39.22
56.765,-45.66
56.781,-52.75
56.796,-59.49
56.812,-64.58
56.828,-66.79
56.843,-65.35
56.859,-60.26
56.875,-52.17
56.890,-42.19
56.906,-31.47
56.921,-20.9
56.937,-10.99
56.953,-1.96
56.968,6.14
56.984,13.2
57.000,19.07
57.015,23.6
57.031,26.7
57.046,28.54
57.062,29.41
57.078,29.74
57.093,29.93
57.109,30.23
57.125,30.73
57.140,31.4
57.156,32.14
57.171,32.82
57.187,33.44
57.203,34.0
57.218,34.51
57.234,34.91
57.250,35.01
57.265,34.56
57.281,33.28
57.296,31.03
57.312,27.88
57.328,24.13
57.343,20.25
57.359,16.72
57.375,13.86
57.390,11.74
57.406,10.07
57.421,8.4
57.437,6.25
57.453,3.34
57.468,-0.22
57.484,-4.08
57.500,-7.76
57.515,-10.95
57.531,-13.64
57.546,-16.18
57.562,-19.12
57.578,-23.0
57.593,-28.21
57.609,-34.73
57.625,-42.2
57.640,-49.84
57.656,-56.54
57.671,-61.05
57.687,-62.27
57.703,-59.56
57.718,-52.97
57.734,-43.27
57.750,-31.73
57.765,-19.73
57.781,-8.41
57.796,1.58
57.812,10.12
57.828,17.39
57.843,23.67
57.859,29.16
57.875,33.87
57.890,37.69
57.906,40.5
57.921,42.37
57.937,43.51
57.953,44.29
57.968,45.1
57.984,46.12
58.000,47.34
58.015,48.58
58.031,49.54
58.046,50.0
58.062,49.84
58.078,49.06
58.093,47.78
58.109,46.15
58.125,44.32
58.140,42.41
58.156,40.41
58.171,38.31
58.187,35.97
58.203,33.33
58.218,30.36
58.234,27.06
58.250,23.46
58.265,19.5
58.281,15.05
58.296,9.93
58.312,4.07
58.328,-2.43
58.343,-9.24
58.359,-15.93
58.375,-22.07
58.390,-27.48
58.406,-32.19
58.421,-36.56
58.437,-41.03
58.453,-46.09
58.468,-52.03
58.484,-58.84
58.500,-66.1
58.515,-73.01
58.531,-78.44
58.546,-81.25
58.562,-80.62
58.578,-76.31
58.593,-68.78
58.609,-59.01
58.625,-48.24
58.640,-37.52
58.656,-27.46
58.671,-18.17
58.687,-9.52
58.703,-1.31
58.718,6.44
58.734,13.52
58.750,19.63
58.765,24.55
58.781,28.3
58.796,31.13
58.812,33.45
58.828,35.62
58.843,37.85
58.859,40.13
58.875,42.25
58.890,43.92
58.906,44.9
58.921,45.08
58.937,44.47
58.953,43.24
58.968,41.66
58.984,39.93
59.000,38.19
59.015,36.38
59.031,34.31
59.046,31.76
59.062,28.51
59.078,24.52
59.093,19.97
59.109,15.19
59.125,10.53
59.140,6.33
59.156,2.87
59.171,0.32
59.187,-1.22
59.203,-1.9
59.218,-2.07
59.234,-2.35
59.250,-3.43
59.265,-5.74
59.281,-9.3
59.296,-13.7
59.312,-18.29
59.328,-22.53
59.343,-26.35
59.359,-30.0
59.375,-33.78
59.390,-37.63
59.406,-40.87
59.421,-42.34
59.437,-41.01
59.453,-36.43
59.468,-29.05
59.484,-19.97
59.500,-10.32
59.515,-0.6
59.531,9.53
59.546,21.12
59.562,35.25
59.578,52.25
59.593,71.33
59.609,90.64
59.625,107.93
59.640,121.22
59.656,129.49
59.671,132.87
59.687,132.29
59.703,128.97
59.718,123.81
59.734,117.13
59.750,108.79
59.765,98.63
59.781,86.71
59.796,73.39
59.812,59.17
59.828,44.42
59.843,29.36
59.859,14.21
59.875,-0.63
59.890,-14.62
59.906,-27.27
59.921,-38.61
59.937,-49.38
59.953,-61.1
59.968,-75.4
59.984,-93.35
