timestamp,value
00.000,32.97
00.015,31.2
00.031,29.35
00.046,27.43
00.062,25.47
00.078,23.47
00.093,21.42
00.109,19.3
00.125,17.1
00.140,14.84
00.156,12.61
00.171,10.47
00.187,8.41
00.203,6.31
00.218,3.96
00.234,1.13
00.250,-2.28
00.265,-6.16
00.281,-10.31
00.296,-14.44
00.312,-18.35
00.328,-21.97
00.343,-25.4
00.359,-28.79
00.375,-32.31
00.390,-36.07
00.406,-40.09
00.421,-44.33
00.437,-48.61
00.453,-52.59
00.468,-55.68
00.484,-57.1
00.500,-56.04
00.515,-51.93
00.531,-44.67
00.546,-34.69
00.562,-22.87
00.578,-10.24
00.593,2.27
00.609,14.02
00.625,24.62
00.640,33.88
00.656,41.69
00.671,47.91
00.687,52.51
00.703,55.54
00.718,57.25
00.734,57.94
00.750,57.9
00.765,57.33
00.781,56.3
00.796,54.86
00.812,53.06
00.828,51.07
00.843,49.11
00.859,47.32
00.875,45.73
00.890,44.16
00.906,42.26
00.921,39.64
00.937,36.06
00.953,31.44
00.968,25.99
00.984,20.08
01.000,14.15
01.015,8.67
01.031,3.91
01.046,-0.08
01.062,-3.58
01.078,-7.06
01.093,-11.19
01.109,-16.52
01.125,-23.38
01.140,-31.69
01.156,-40.92
01.171,-50.28
01.187,-58.9
01.203,-66.19
01.218,-71.9
01.234,-76.07
01.250,-78.72
01.265,-79.58
01.281,-78.1
01.296,-73.55
01.312,-65.5
01.328,-54.15
01.343,-40.5
01.359,-26.03
01.375,-12.26
01.390,-0.27
01.406,9.55
01.421,17.36
01.437,23.57
01.453,28.48
01.468,32.14
01.484,34.39
01.500,35.11
01.515,34.41
01.531,32.7
01.546,30.56
01.562,28.59
01.578,27.2
01.593,26.48
01.609,26.25
01.625,26.2
01.640,26.07
01.656,25.7
01.671,25.07
01.687,24.26
01.703,23.26
01.718,22.01
01.734,20.34
01.750,18.19
01.765,15.62
01.781,12.85
01.796,10.08
01.812,7.36
01.828,4.57
01.843,1.42
01.859,-2.26
01.875,-6.4
01.890,-10.73
01.906,-14.86
01.921,-18.57
01.937,-21.93
01.953,-25.26
01.968,-28.88
01.984,-33.05
02.000,-37.78
02.015,-42.9
02.031,-48.0
02.046,-52.5
02.062,-55.63
02.078,-56.51
02.093,-54.44
02.109,-49.07
02.125,-40.68
02.140,-30.14
02.156,-18.67
02.171,-7.44
02.187,2.67
02.203,11.27
02.218,18.34
02.234,24.01
02.250,28.38
02.265,31.38
02.281,32.94
02.296,33.05
02.312,31.93
02.328,30.02
02.343,27.88
02.359,26.06
02.375,24.9
02.390,24.4
02.406,24.29
02.421,24.16
02.437,23.66
02.453,22.61
02.468,21.11
02.484,19.46
02.500,17.98
02.515,16.88
02.531,16.1
02.546,15.41
02.562,14.53
02.578,13.24
02.593,11.47
02.609,9.31
02.625,6.92
02.640,4.4
02.656,1.84
02.671,-0.64
02.687,-2.96
02.703,-4.99
02.718,-6.68
02.734,-8.11
02.750,-9.52
02.765,-11.15
02.781,-13.17
02.796,-15.35
02.812,-16.91
02.828,-16.66
02.843,-13.18
02.859,-5.31
02.875,7.51
02.890,25.0
02.906,46.21
02.921,69.63
02.937,93.59
02.953,116.5
02.968,136.96
02.984,153.82
03.000,166.15
03.015,173.36
03.031,175.18
03.046,171.84
03.062,164.12
03.078,153.33
03.093,141.33
03.109,130.32
03.125,122.8
03.140,121.09
03.156,126.88
03.171,140.47
03.187,160.36
03.203,183.33
03.218,205.11
03.234,221.64
03.250,230.26
03.265,230.47
03.281,223.75
03.296,212.72
03.312,200.03
03.328,187.5
03.343,175.76
03.359,164.46
03.375,152.57
03.390,138.61
03.406,120.82
03.421,97.37
03.437,66.87
03.453,28.98
03.468,-15.0
03.484,-62.15
03.500,-108.73
03.515,-151.46
03.531,-188.62
03.546,-220.53
03.562,-249.05
03.578,-276.08
03.593,-302.33
03.609,-326.57
03.625,-346.12
03.640,-358.13
03.656,-360.82
03.671,-354.15
03.687,-339.48
03.703,-318.72
03.718,-293.55
03.734,-265.19
03.750,-234.83
03.765,-204.11
03.781,-175.21
03.796,-150.45
03.812,-131.47
03.828,-118.51
03.843,-110.35
03.859,-104.8
03.875,-99.46
03.890,-92.5
03.906,-82.96
03.921,-70.73
03.937,-56.25
03.953,-40.19
03.968,-23.19
03.984,-5.73
04.000,11.74
04.015,28.74
04.031,44.58
04.046,58.32
04.062,69.02
04.078,75.99
04.093,79.07
04.109,78.76
04.125,75.97
04.140,71.78
04.156,67.08
04.171,62.34
04.187,57.52
04.203,52.25
04.218,45.95
04.234,38.06
04.250,28.23
04.265,16.42
04.281,2.93
04.296,-11.71
04.312,-26.93
04.328,-42.31
04.343,-57.67
04.359,-73.03
04.375,-88.42
04.390,-103.63
04.406,-118.12
04.421,-130.97
04.437,-140.99
04.453,-147.07
04.468,-148.31
04.484,-144.34
04.500,-135.47
04.515,-122.55
04.531,-106.81
04.546,-89.63
04.562,-72.27
04.578,-55.64
04.593,-40.36
04.609,-26.85
04.625,-15.44
04.640,-6.38
04.656,0.2
04.671,4.35
04.687,6.47
04.703,7.17
04.718,7.27
04.734,7.54
04.750,8.59
04.765,10.82
04.781,14.38
04.796,19.24
04.812,25.21
04.828,31.99
04.843,39.06
04.859,45.81
04.875,51.6
04.890,56.0
04.906,58.9
04.921,60.58
04.937,61.58
04.953,62.35
04.968,63.07
04.984,63.51
05.000,63.14
05.015,61.42
05.031,58.07
05.046,53.2
05.062,47.17
05.078,40.42
05.093,33.18
05.109,25.37
05.125,16.54
05.140,6.11
05.156,-6.33
05.171,-20.72
05.187,-36.3
05.203,-51.58
05.218,-64.71
05.234,-73.86
05.250,-77.9
05.265,-76.64
05.281,-70.89
05.296,-62.18
05.312,-52.28
05.328,-42.74
05.343,-34.59
05.359,-28.36
05.375,-24.2
05.390,-22.09
05.406,-21.99
05.421,-23.88
05.437,-27.62
05.453,-32.94
05.468,-39.3
05.484,-45.98
05.500,-52.21
05.515,-57.4
05.531,-61.21
05.546,-63.61
05.562,-64.73
05.578,-64.76
05.593,-63.81
05.609,-61.94
05.625,-59.21
05.640,-55.82
05.656,-52.14
05.671,-48.65
05.687,-45.89
05.703,-44.23
05.718,-43.88
05.734,-44.73
05.750,-46.37
05.765,-48.21
05.781,-49.69
05.796,-50.48
05.812,-50.64
05.828,-50.61
05.843,-51.06
05.859,-52.67
05.875,-55.86
05.890,-60.79
05.906,-67.2
05.921,-74.44
05.937,-81.44
05.953,-86.63
05.968,-88.22
05.984,-84.63
06.000,-75.02
06.015,-59.7
06.031,-40.22
06.046,-18.87
06.062,1.95
06.078,20.43
06.093,35.71
06.109,47.74
06.125,56.88
06.140,63.5
06.156,67.79
06.171,69.83
06.187,69.89
06.203,68.54
06.218,66.69
06.234,65.23
06.250,64.74
06.265,65.22
06.281,66.17
06.296,66.79
06.312,66.34
06.328,64.43
06.343,61.09
06.359,56.73
06.375,51.94
06.390,47.16
06.406,42.62
06.421,38.3
06.437,33.97
06.453,29.44
06.468,24.71
06.484,19.93
06.500,15.39
06.515,11.29
06.531,7.62
06.546,4.05
06.562,0.09
06.578,-4.78
06.593,-10.91
06.609,-18.47
06.625,-27.47
06.640,-37.73
06.656,-48.87
06.671,-60.05
06.687,-69.92
06.703,-76.69
06.718,-78.53
06.734,-74.14
06.750,-63.24
06.765,-46.88
06.781,-27.06
06.796,-6.19
06.812,13.63
06.828,31.07
06.843,45.68
06.859,57.57
06.875,67.05
06.890,74.35
06.906,79.49
06.921,82.56
06.937,83.81
06.953,83.84
06.968,83.37
06.984,83.03
07.000,83.04
07.015,83.17
07.031,82.88
07.046,81.57
07.062,78.94
07.078,75.07
07.093,70.38
07.109,65.42
07.125,60.63
07.140,56.13
07.156,51.76
07.171,47.22
07.187,42.19
07.203,36.51
07.218,30.16
07.234,23.31
07.250,16.18
07.265,8.91
07.281,1.57
07.296,-5.92
07.312,-13.66
07.328,-21.77
07.343,-30.34
07.359,-39.5
07.375,-49.28
07.390,-59.49
07.406,-69.66
07.421,-78.73
07.437,-85.22
07.453,-87.5
07.468,-84.23
07.484,-74.89
07.500,-60.11
07.515,-41.5
07.531,-21.23
07.546,-1.44
07.562,16.32
07.578,31.31
07.593,43.51
07.609,53.28
07.625,61.05
07.640,67.09
07.656,71.44
07.671,74.13
07.687,75.33
07.703,75.45
07.718,75.04
07.734,74.61
07.750,74.43
07.765,74.34
07.781,73.92
07.796,72.74
07.812,70.57
07.828,67.64
07.843,64.41
07.859,61.43
07.875,59.01
07.890,57.1
07.906,55.29
07.921,53.09
07.937,50.07
07.953,46.06
07.968,41.13
07.984,35.57
08.000,29.73
08.015,23.96
08.031,18.41
08.046,13.04
08.062,7.61
08.078,1.79
08.093,-4.73
08.109,-12.01
08.125,-19.69
08.140,-26.94
08.156,-32.51
08.171,-34.97
08.187,-33.05
08.203,-25.97
08.218,-13.67
08.234,3.05
08.250,22.72
08.265,43.55
08.281,63.78
08.296,82.12
08.312,97.93
08.328,111.23
08.343,122.41
08.359,131.97
08.375,140.19
08.390,147.25
08.406,153.23
08.421,158.33
08.437,162.95
08.453,167.52
08.468,172.34
08.484,177.35
08.500,182.12
08.515,186.11
08.531,188.85
08.546,190.19
08.562,190.21
08.578,189.08
08.593,186.77
08.609,182.82
08.625,176.23
08.640,165.52
08.656,149.04
08.671,125.36
08.687,93.97
08.703,55.62
08.718,12.6
08.734,-31.67
08.750,-73.43
08.765,-109.53
08.781,-138.2
08.796,-159.33
08.812,-174.17
08.828,-184.54
08.843,-192.19
08.859,-198.08
08.875,-202.34
08.890,-204.33
08.906,-202.99
08.921,-197.28
08.937,-186.52
08.953,-170.65
08.968,-150.42
08.984,-127.4
09.000,-103.82
09.015,-82.16
09.031,-64.59
09.046,-52.51
09.062,-46.16
09.078,-44.66
09.093,-46.36
09.109,-49.4
09.125,-52.2
09.140,-53.82
09.156,-53.83
09.171,-52.29
09.187,-49.39
09.203,-45.39
09.218,-40.61
09.234,-35.28
09.250,-29.5
09.265,-23.05
09.281,-15.44
09.296,-5.92
09.312,6.05
09.328,20.54
09.343,36.9
09.359,53.79
09.375,69.56
09.390,82.71
09.406,92.35
09.421,98.3
09.437,101.01
09.453,101.23
09.468,99.62
09.484,96.4
09.500,91.14
09.515,82.89
09.531,70.51
09.546,53.33
09.562,31.7
09.578,7.28
09.593,-17.09
09.609,-38.05
09.625,-52.44
09.640,-58.24
09.656,-54.98
09.671,-44.04
09.687,-28.26
09.703,-11.37
09.718,2.84
09.734,11.52
09.750,13.39
09.765,9.02
09.781,0.41
09.796,-9.8
09.812,-19.22
09.828,-26.27
09.843,-30.08
09.859,-30.24
09.875,-26.25
09.890,-17.65
09.906,-4.38
09.921,12.74
09.937,31.83
09.953,50.55
09.968,66.91
09.984,79.92
10.000,89.51
10.015,95.68
10.031,97.7
10.046,93.81
10.062,81.75
10.078,59.99
10.093,28.56
10.109,-10.98
10.125,-56.44
10.140,-106.12
10.156,-158.9
10.171,-213.23
10.187,-265.49
10.203,-309.21
10.218,-336.19
10.234,-339.43
10.250,-316.28
10.265,-270.24
10.281,-210.21
10.296,-147.57
10.312,-92.47
10.328,-51.15
10.343,-25.1
10.359,-12.27
10.375,-9.08
10.390,-12.03
10.406,-18.48
10.421,-26.39
10.437,-33.96
10.453,-39.52
10.468,-41.85
10.484,-40.71
10.500,-36.99
10.515,-32.57
10.531,-29.56
10.546,-29.37
10.562,-32.02
10.578,-36.02
10.593,-38.94
10.609,-38.45
10.625,-33.31
10.640,-23.98
10.656,-12.54
10.671,-1.83
10.687,5.58
10.703,8.36
10.718,6.75
10.734,2.31
10.750,-3.01
10.765,-7.75
10.781,-11.45
10.796,-14.73
10.812,-18.72
10.828,-24.53
10.843,-32.75
10.859,-43.21
10.875,-55.01
10.890,-66.58
10.906,-75.94
10.921,-80.96
10.937,-79.83
10.953,-71.56
10.968,-56.42
10.984,-36.0
11.000,-12.89
11.015,10.08
11.031,30.54
11.046,47.09
11.062,59.28
11.078,67.31
11.093,71.56
11.109,72.29
11.125,69.7
11.140,64.15
11.156,56.44
11.171,47.79
11.187,39.61
11.203,33.07
11.218,28.69
11.234,26.3
11.250,25.21
11.265,24.61
11.281,23.88
11.296,22.7
11.312,20.79
11.328,17.82
11.343,13.25
11.359,6.49
11.375,-2.67
11.390,-13.86
11.406,-25.95
11.421,-37.44
11.437,-46.86
11.453,-53.29
11.468,-56.65
11.484,-57.72
11.500,-57.75
11.515,-58.01
11.531,-59.35
11.546,-61.87
11.562,-64.9
11.578,-67.16
11.593,-67.12
11.609,-63.43
11.625,-55.27
11.640,-42.6
11.656,-26.1
11.671,-7.03
11.687,13.16
11.703,33.13
11.718,51.77
11.734,68.31
11.750,82.22
11.765,93.19
11.781,101.17
11.796,106.51
11.812,109.96
11.828,112.56
11.843,115.32
11.859,118.84
11.875,123.18
11.890,127.77
11.906,131.84
11.921,134.78
11.937,136.53
11.953,137.63
11.968,138.95
11.984,141.27
12.000,144.86
12.015,149.36
12.031,153.86
12.046,157.38
12.062,159.21
12.078,159.19
12.093,157.83
12.109,156.25
12.125,155.89
12.140,158.14
12.156,163.91
12.171,172.98
12.187,183.62
12.203,192.55
12.218,195.6
12.234,189.04
12.250,171.0
12.265,142.36
12.281,106.57
12.296,68.54
12.312,32.97
12.328,3.02
12.343,-20.45
12.359,-38.46
12.375,-53.13
12.390,-66.56
12.406,-80.1
12.421,-94.13
12.437,-108.27
12.453,-121.72
12.468,-133.72
12.484,-143.71
12.500,-151.49
12.515,-157.13
12.531,-160.86
12.546,-162.84
12.562,-163.19
12.578,-161.88
12.593,-158.84
12.609,-153.87
12.625,-146.75
12.640,-137.4
12.656,-126.14
12.671,-114.0
12.687,-102.73
12.703,-94.43
12.718,-91.0
12.734,-93.37
12.750,-101.07
12.765,-112.13
12.781,-123.7
12.796,-132.77
12.812,-137.13
12.828,-135.75
12.843,-128.88
12.859,-117.71
12.875,-103.91
12.890,-89.29
12.906,-75.57
12.921,-64.26
12.937,-56.46
12.953,-52.51
12.968,-51.65
12.984,-51.98
13.000,-50.78
13.015,-45.45
13.031,-34.46
13.046,-18.05
13.062,1.72
13.078,21.73
13.093,38.88
13.109,51.19
13.125,58.28
13.140,61.19
13.156,61.69
13.171,61.54
13.187,61.94
13.203,63.42
13.218,66.06
13.234,69.74
13.250,74.44
13.265,80.17
13.281,86.94
13.296,94.51
13.312,102.4
13.328,109.88
13.343,116.24
13.359,120.89
13.375,123.41
13.390,123.53
13.406,120.89
13.421,115.14
13.437,105.88
13.453,93.02
13.468,77.1
13.484,59.52
13.500,42.53
13.515,28.74
13.531,20.55
13.546,19.37
13.562,25.27
13.578,36.99
13.593,52.34
13.609,68.93
13.625,84.54
13.640,97.29
13.656,105.42
13.671,107.38
13.687,102.3
13.703,90.66
13.718,74.74
13.734,58.43
13.750,46.13
13.765,41.25
13.781,44.99
13.796,55.93
13.812,70.67
13.828,85.13
13.843,95.97
13.859,101.37
13.875,101.02
13.890,95.72
13.906,86.72
13.921,75.24
13.937,62.27
13.953,48.59
13.968,34.7
13.984,20.9
14.000,7.36
14.015,-5.74
14.031,-17.97
14.046,-28.59
14.062,-36.73
14.078,-41.65
14.093,-43.19
14.109,-42.02
14.125,-39.61
14.140,-37.62
14.156,-37.28
14.171,-38.77
14.187,-41.08
14.203,-42.54
14.218,-41.66
14.234,-38.13
14.250,-33.33
14.265,-30.3
14.281,-32.93
14.296,-44.62
14.312,-66.95
14.328,-98.89
14.343,-136.92
14.359,-176.05
14.375,-211.48
14.390,-240.03
14.406,-260.83
14.421,-275.11
14.437,-285.04
14.453,-292.28
14.468,-296.69
14.484,-296.13
14.500,-287.01
14.515,-265.72
14.531,-230.25
14.546,-181.23
14.562,-122.25
14.578,-59.09
14.593,1.69
14.609,54.45
14.625,95.57
14.640,123.87
14.656,140.19
14.671,146.65
14.687,145.99
14.703,141.32
14.718,135.79
14.734,132.3
14.750,132.7
14.765,137.26
14.781,144.47
14.796,151.81
14.812,156.98
14.828,158.96
14.843,158.21
14.859,155.85
14.875,152.31
14.890,146.41
14.906,135.57
14.921,116.85
14.937,88.15
14.953,49.06
14.968,0.98
14.984,-53.18
15.000,-109.19
15.015,-161.59
15.031,-203.98
15.046,-229.95
15.062,-234.78
15.078,-217.42
15.093,-181.75
15.109,-136.12
15.125,-91.11
15.140,-56.08
15.156,-35.83
15.171,-29.06
15.187,-29.41
15.203,-28.62
15.218,-20.44
15.234,-3.29
15.250,19.51
15.265,41.78
15.281,57.53
15.296,63.37
15.312,59.18
15.328,47.1
15.343,29.88
15.359,9.71
15.375,-11.99
15.390,-34.13
15.406,-55.48
15.421,-74.66
15.437,-90.45
15.453,-102.27
15.468,-110.15
15.484,-114.56
15.500,-116.13
15.515,-115.43
15.531,-112.91
15.546,-108.92
15.562,-103.61
15.578,-96.96
15.593,-88.9
15.609,-79.62
15.625,-69.77
15.640,-60.54
15.656,-53.35
15.671,-49.39
15.687,-49.09
15.703,-51.93
15.718,-56.61
15.734,-61.67
15.750,-65.98
15.765,-69.2
15.781,-71.79
15.796,-74.73
15.812,-79.13
15.828,-85.64
15.843,-94.34
15.859,-104.56
15.875,-115.09
15.890,-124.36
15.906,-130.7
15.921,-132.69
15.937,-129.35
15.953,-120.39
15.968,-106.27
15.984,-88.09
16.000,-67.38
16.015,-45.73
16.031,-24.56
16.046,-4.86
16.062,12.72
16.078,27.91
16.093,40.61
16.109,50.85
16.125,58.73
16.140,64.45
16.156,68.39
16.171,71.02
16.187,72.94
16.203,74.62
16.218,76.46
16.234,78.56
16.250,80.84
16.265,83.12
16.281,85.26
16.296,87.22
16.312,89.1
16.328,91.09
16.343,93.25
16.359,95.58
16.375,97.82
16.390,99.56
16.406,100.27
16.421,99.46
16.437,96.77
16.453,92.04
16.468,85.38
16.484,77.06
16.500,67.63
16.515,57.76
16.531,48.14
16.546,39.31
16.562,31.5
16.578,24.59
16.593,18.3
16.609,12.56
16.625,7.92
16.640,5.63
16.656,7.38
16.671,14.62
16.687,27.96
16.703,46.81
16.718,69.53
16.734,93.73
16.750,116.82
16.765,136.45
16.781,150.71
16.796,158.35
16.812,159.16
16.828,154.25
16.843,146.05
16.859,137.89
16.875,133.14
16.890,134.27
16.906,142.19
16.921,156.07
16.937,173.6
16.953,191.64
16.968,206.85
16.984,216.17
17.000,217.36
17.015,209.52
17.031,193.34
17.046,171.2
17.062,146.69
17.078,123.82
17.093,105.88
17.109,94.5
17.125,89.12
17.140,87.18
17.156,84.86
17.171,78.27
17.187,64.82
17.203,44.23
17.218,18.99
17.234,-6.57
17.250,-28.02
17.265,-43.06
17.281,-52.8
17.296,-61.6
17.312,-75.16
17.328,-97.97
17.343,-131.27
17.359,-172.47
17.375,-216.29
17.390,-256.58
17.406,-288.27
17.421,-308.34
17.437,-316.14
17.453,-313.06
17.468,-302.07
17.484,-287.17
17.500,-272.76
17.515,-262.62
17.531,-259.06
17.546,-262.34
17.562,-270.82
17.578,-281.63
17.593,-291.28
17.609,-296.32
17.625,-293.73
17.640,-281.27
17.656,-257.87
17.671,-223.91
17.687,-181.27
17.703,-133.05
17.718,-83.26
17.734,-36.46
17.750,2.67
17.765,30.05
17.781,43.1
17.796,41.59
17.812,28.02
17.828,6.92
17.843,-16.48
17.859,-37.88
17.875,-55.05
17.890,-67.91
17.906,-77.79
17.921,-86.32
17.937,-94.58
17.953,-102.83
17.968,-110.58
17.984,-116.86
18.000,-120.41
18.015,-119.81
18.031,-113.75
18.046,-101.41
18.062,-82.88
18.078,-59.24
18.093,-32.34
18.109,-4.41
18.125,22.56
18.140,47.12
18.156,68.47
18.171,86.43
18.187,101.21
18.203,113.31
18.218,123.24
18.234,131.37
18.250,137.82
18.265,142.47
18.281,145.05
18.296,145.38
18.312,143.57
18.328,140.0
18.343,135.37
18.359,130.41
18.375,125.73
18.390,121.74
18.406,118.53
18.421,116.02
18.437,113.92
18.453,111.9
18.468,109.51
18.484,106.39
18.500,102.2
18.515,96.77
18.531,90.06
18.546,82.18
18.562,73.33
18.578,63.78
18.593,53.87
18.609,43.98
18.625,34.52
18.640,25.81
18.656,18.0
18.671,10.92
18.687,4.17
18.703,-2.6
18.718,-9.35
18.734,-15.37
18.750,-19.36
18.765,-19.75
18.781,-15.37
18.796,-5.89
18.812,7.96
18.828,24.56
18.843,41.98
18.859,58.48
18.875,72.86
18.890,84.5
18.906,93.21
18.921,98.92
18.937,101.63
18.953,101.5
18.968,98.87
18.984,94.53
19.000,89.58
19.015,85.19
19.031,82.34
19.046,81.46
19.062,82.4
19.078,84.59
19.093,87.31
19.109,90.03
19.125,92.61
19.140,95.36
19.156,98.88
19.171,103.83
19.187,110.7
19.203,119.55
19.218,130.01
19.234,141.25
19.250,152.14
19.265,161.42
19.281,167.87
19.296,170.47
19.312,168.66
19.328,162.69
19.343,153.75
19.359,143.82
19.375,134.65
19.390,126.65
19.406,118.24
19.421,106.3
19.437,87.97
19.453,62.78
19.468,33.97
19.484,8.2
19.500,-6.6
19.515,-4.21
19.531,17.3
19.546,54.52
19.562,99.58
19.578,142.39
19.593,173.32
19.609,185.43
19.625,175.82
19.640,146.22
19.656,102.66
19.671,54.3
19.687,11.19
19.703,-18.62
19.718,-31.68
19.734,-30.4
19.750,-22.19
19.765,-16.64
19.781,-22.02
19.796,-42.38
19.812,-76.49
19.828,-118.82
19.843,-161.6
19.859,-197.1
19.875,-219.38
19.890,-225.64
19.906,-217.0
19.921,-198.55
19.937,-178.37
19.953,-165.34
19.968,-166.22
19.984,-183.4
20.000,-214.03
20.015,-251.33
20.031,-287.06
20.046,-314.29
20.062,-329.15
20.078,-331.5
20.093,-324.27
20.109,-312.36
20.125,-301.14
20.140,-294.62
20.156,-294.18
20.171,-297.78
20.187,-300.67
20.203,-297.28
20.218,-283.52
20.234,-258.35
20.250,-223.9
20.265,-184.36
20.281,-144.22
20.296,-106.96
20.312,-74.59
20.328,-47.86
20.343,-26.82
20.359,-11.18
20.375,-0.35
20.390,6.65
20.406,11.17
20.421,14.71
20.437,18.46
20.453,22.95
20.468,27.95
20.484,32.71
20.500,36.32
20.515,38.18
20.531,38.32
20.546,37.23
20.562,35.78
20.578,34.78
20.593,34.68
20.609,35.54
20.625,37.05
20.640,38.78
20.656,40.34
20.671,41.57
20.687,42.39
20.703,42.78
20.718,42.68
20.734,41.93
20.750,40.42
20.765,38.06
20.781,34.86
20.796,30.9
20.812,26.3
20.828,21.16
20.843,15.53
20.859,9.38
20.875,2.56
20.890,-5.05
20.906,-13.37
20.921,-21.8
20.937,-29.03
20.953,-33.15
20.968,-32.2
20.984,-24.78
21.000,-10.72
21.015,8.79
21.031,31.5
21.046,54.89
21.062,76.86
21.078,96.28
21.093,112.81
21.109,126.59
21.125,137.66
21.140,145.82
21.156,150.75
21.171,152.48
21.187,151.65
21.203,149.55
21.218,147.74
21.234,147.5
21.250,149.35
21.265,152.91
21.281,157.19
21.296,161.13
21.312,164.04
21.328,165.87
21.343,167.14
21.359,168.67
21.375,171.15
21.390,174.92
21.406,179.81
21.421,185.15
21.437,189.95
21.453,193.25
21.468,194.44
21.484,193.58
21.500,191.58
21.515,190.04
21.531,190.92
21.546,195.67
21.562,204.3
21.578,214.76
21.593,222.88
21.609,223.31
21.625,211.24
21.640,184.26
21.656,143.74
21.671,95.06
21.687,46.46
21.703,6.8
21.718,-17.09
21.734,-22.54
21.750,-11.88
21.765,8.31
21.781,29.37
21.796,43.28
21.812,44.98
21.828,33.54
21.843,11.83
21.859,-14.9
21.875,-41.03
21.890,-62.13
21.906,-75.74
21.921,-81.47
21.937,-80.43
21.953,-74.57
21.968,-65.89
21.984,-55.86
22.000,-45.06
22.015,-33.49
22.031,-21.35
22.046,-9.79
22.062,-1.31
22.078,0.92
22.093,-5.66
22.109,-21.55
22.125,-44.55
22.140,-70.24
22.156,-93.42
22.171,-109.87
22.187,-117.53
22.203,-116.93
22.218,-110.65
22.234,-102.56
22.250,-97.07
22.265,-98.58
22.281,-110.8
22.296,-135.95
22.312,-173.89
22.328,-221.47
22.343,-272.59
22.359,-319.13
22.375,-352.79
22.390,-367.22
22.406,-359.79
22.421,-332.39
22.437,-290.67
22.453,-242.21
22.468,-194.19
22.484,-151.52
22.500,-116.07
22.515,-87.25
22.531,-63.17
22.546,-42.1
22.562,-23.17
22.578,-6.33
22.593,8.12
22.609,20.24
22.625,30.74
22.640,40.9
22.656,52.03
22.671,65.12
22.687,80.48
22.703,97.63
22.718,115.66
22.734,133.55
22.750,150.59
22.765,166.65
22.781,182.23
22.796,198.15
22.812,215.09
22.828,232.95
22.843,250.49
22.859,265.42
22.875,274.82
22.890,276.09
22.906,267.79
22.921,250.11
22.937,224.67
22.953,193.88
22.968,159.85
22.984,123.78
23.000,85.75
23.015,45.09
23.031,1.23
23.046,-45.54
23.062,-93.46
23.078,-139.23
23.093,-178.34
23.109,-206.11
23.125,-219.01
23.140,-216.15
23.156,-200.3
23.171,-177.38
23.187,-154.86
23.203,-139.18
23.218,-133.5
23.234,-136.76
23.250,-144.63
23.265,-151.59
23.281,-153.1
23.296,-146.99
23.312,-133.37
23.328,-113.65
23.343,-89.45
23.359,-62.06
23.375,-32.54
23.390,-2.23
23.406,27.18
23.421,53.8
23.437,76.22
23.453,94.08
23.468,108.27
23.484,120.66
23.500,133.54
23.515,148.88
23.531,167.56
23.546,188.94
23.562,210.67
23.578,228.99
23.593,239.54
23.609,238.54
23.625,223.94
23.640,196.15
23.656,158.07
23.671,114.0
23.687,68.14
23.703,23.22
23.718,-20.12
23.734,-62.75
23.750,-105.76
23.765,-149.28
23.781,-191.84
23.796,-230.75
23.812,-262.94
23.828,-285.93
23.843,-298.13
23.859,-298.95
23.875,-288.7
23.890,-268.67
23.906,-241.34
23.921,-210.39
23.937,-180.02
23.953,-153.89
23.968,-134.02
23.984,-120.23
24.000,-110.54
24.015,-102.24
24.031,-93.11
24.046,-82.16
24.062,-69.64
24.078,-56.57
24.093,-44.16
24.109,-33.3
24.125,-24.36
24.140,-17.23
24.156,-11.3
24.171,-5.64
24.187,0.82
24.203,8.99
24.218,19.37
24.234,31.83
24.250,45.65
24.265,59.78
24.281,73.17
24.296,85.1
24.312,95.47
24.328,104.67
24.343,113.35
24.359,122.08
24.375,131.06
24.390,140.09
24.406,148.73
24.421,156.49
24.437,163.19
24.453,169.04
24.468,174.69
24.484,181.01
24.500,188.68
24.515,197.64
24.531,206.69
24.546,213.2
24.562,213.56
24.578,204.2
24.593,182.92
24.609,149.97
24.625,108.29
24.640,62.84
24.656,19.15
24.671,-18.15
24.687,-46.42
24.703,-65.24
24.718,-75.87
24.734,-80.33
24.750,-80.61
24.765,-78.17
24.781,-74.03
24.796,-68.96
24.812,-63.89
24.828,-60.02
24.843,-58.53
24.859,-60.17
24.875,-64.8
24.890,-71.19
24.906,-77.26
24.921,-80.61
24.937,-79.12
24.953,-71.52
24.968,-57.89
24.984,-39.81
25.000,-20.39
25.015,-3.73
25.031,6.12
25.046,6.54
25.062,-2.55
25.078,-18.34
25.093,-35.98
25.109,-50.47
25.125,-58.57
25.140,-60.11
25.156,-57.7
25.171,-55.34
25.187,-56.55
25.203,-63.02
25.218,-74.33
25.234,-88.6
25.250,-103.61
25.265,-117.59
25.281,-129.73
25.296,-139.92
25.312,-148.41
25.328,-155.39
25.343,-160.73
25.359,-163.84
25.375,-163.86
25.390,-159.82
25.406,-151.05
25.421,-137.47
25.437,-119.75
25.453,-99.14
25.468,-77.08
25.484,-54.88
25.500,-33.57
25.515,-13.88
25.531,3.5
25.546,17.9
25.562,28.73
25.578,35.64
25.593,38.86
25.609,39.15
25.625,37.67
25.640,35.67
25.656,34.1
25.671,33.45
25.687,33.64
25.703,34.32
25.718,35.02
25.734,35.57
25.750,36.13
25.765,37.16
25.781,39.18
25.796,42.43
25.812,46.59
25.828,50.75
25.843,53.67
25.859,54.16
25.875,51.65
25.890,46.44
25.906,39.66
25.921,32.97
25.937,27.84
25.953,25.1
25.968,24.75
25.984,26.12
26.000,28.34
26.015,30.82
26.031,33.39
26.046,36.25
26.062,39.58
26.078,43.35
26.093,47.25
26.109,51.09
26.125,55.21
26.140,60.6
26.156,68.77
26.171,81.06
26.187,98.05
26.203,119.1
26.218,142.52
26.234,166.14
26.250,187.72
26.265,205.29
26.281,216.85
26.296,220.23
26.312,213.11
26.328,193.87
26.343,162.65
26.359,122.13
26.375,77.23
26.390,33.89
26.406,-2.77
26.421,-29.69
26.437,-46.26
26.453,-53.73
26.468,-54.0
26.484,-48.8
26.500,-39.43
26.515,-27.01
26.531,-13.05
26.546,0.29
26.562,10.4
26.578,14.82
26.593,11.79
26.609,0.88
26.625,-16.94
26.640,-39.35
26.656,-63.23
26.671,-85.29
26.687,-102.76
26.703,-113.96
26.718,-118.58
26.734,-117.7
26.750,-113.53
26.765,-109.0
26.781,-107.17
26.796,-110.37
26.812,-119.31
26.828,-132.43
26.843,-146.02
26.859,-155.14
26.875,-155.17
26.890,-143.27
26.906,-119.21
26.921,-85.22
26.937,-45.06
26.953,-2.99
26.968,37.04
26.984,71.66
27.000,98.22
27.015,115.01
27.031,121.47
27.046,118.47
27.062,108.23
27.078,93.89
27.093,78.88
27.109,66.22
27.125,57.97
27.140,54.98
27.156,56.75
27.171,61.65
27.187,67.19
27.203,70.7
27.218,70.21
27.234,65.15
27.250,56.61
27.265,47.1
27.281,39.9
27.296,37.98
27.312,43.06
27.328,54.9
27.343,71.13
27.359,88.02
27.375,101.65
27.390,109.42
27.406,111.03
27.421,108.52
27.437,105.29
27.453,104.79
27.468,109.16
27.484,118.51
27.500,130.93
27.515,142.94
27.531,150.25
27.546,148.65
27.562,135.11
27.578,108.86
27.593,72.29
27.609,30.82
27.625,-8.54
27.640,-39.49
27.656,-58.67
27.671,-66.72
27.687,-67.44
27.703,-65.69
27.718,-65.05
27.734,-66.49
27.750,-68.67
27.765,-69.65
27.781,-68.44
27.796,-65.85
27.812,-63.69
27.828,-63.39
27.843,-64.59
27.859,-65.01
27.875,-61.77
27.890,-53.27
27.906,-40.69
27.921,-28.1
27.937,-21.05
27.953,-24.26
27.968,-39.58
27.984,-65.26
28.000,-96.64
28.015,-128.14
28.031,-155.21
28.046,-175.59
28.062,-189.45
28.078,-198.67
28.093,-205.71
28.109,-212.72
28.125,-221.07
28.140,-231.47
28.156,-244.2
28.171,-259.25
28.187,-276.48
28.203,-295.4
28.218,-315.1
28.234,-334.37
28.250,-351.78
28.265,-365.98
28.281,-375.86
28.296,-380.45
28.312,-378.7
28.328,-369.54
28.343,-352.13
28.359,-326.34
28.375,-293.18
28.390,-254.76
28.406,-213.75
28.421,-172.53
28.437,-132.58
28.453,-94.17
28.468,-56.79
28.484,-19.77
28.500,17.2
28.515,53.62
28.531,88.27
28.546,119.5
28.562,145.61
28.578,165.37
28.593,178.29
28.609,184.75
28.625,185.84
28.640,182.89
28.656,177.18
28.671,169.66
28.687,161.01
28.703,151.69
28.718,142.0
28.734,132.13
28.750,122.1
28.765,111.79
28.781,101.12
28.796,90.22
28.812,79.48
28.828,69.51
28.843,60.82
28.859,53.66
28.875,47.89
28.890,43.0
28.906,38.21
28.921,32.66
28.937,25.56
28.953,16.47
28.968,5.7
28.984,-5.58
29.000,-15.4
29.015,-21.46
29.031,-21.87
29.046,-15.85
29.062,-4.0
29.078,12.04
29.093,30.16
29.109,48.64
29.125,66.5
29.140,83.48
29.156,99.57
29.171,114.65
29.187,128.3
29.203,140.1
29.218,149.92
29.234,158.16
29.250,165.66
29.265,173.32
29.281,181.48
29.296,189.83
29.312,197.42
29.328,203.16
29.343,206.4
29.359,207.08
29.375,205.71
29.390,202.93
29.406,198.99
29.421,193.44
29.437,185.28
29.453,173.45
29.468,157.48
29.484,138.2
29.500,117.97
29.515,100.16
29.531,88.27
29.546,84.49
29.562,88.43
29.578,96.61
29.593,103.15
29.609,101.17
29.625,84.88
29.640,51.21
29.656,1.19
29.671,-59.71
29.687,-122.19
29.703,-175.16
29.718,-208.67
29.734,-217.12
29.750,-201.46
29.765,-168.93
29.781,-130.55
29.796,-96.98
29.812,-74.67
29.828,-64.37
29.843,-62.15
29.859,-62.4
29.875,-60.76
29.890,-55.46
29.906,-46.74
29.921,-35.43
29.937,-21.93
29.953,-6.36
29.968,10.39
29.984,25.95
30.000,37.0
30.015,40.65
30.031,36.1
30.046,25.36
30.062,12.39
30.078,1.24
30.093,-5.85
30.109,-9.13
30.125,-10.67
30.140,-12.78
30.156,-16.62
30.171,-21.7
30.187,-26.29
30.203,-28.55
30.218,-27.31
30.234,-22.5
30.250,-15.03
30.265,-6.49
30.281,1.16
30.296,5.7
30.312,5.11
30.328,-1.91
30.343,-15.24
30.359,-33.04
30.375,-51.98
30.390,-68.15
30.406,-78.2
30.421,-80.21
30.437,-74.1
30.453,-61.3
30.468,-44.27
30.484,-25.74
30.500,-8.31
30.515,6.05
30.531,16.34
30.546,23.02
30.562,27.91
30.578,33.65
30.593,42.28
30.609,53.8
30.625,65.63
30.640,73.29
30.656,72.54
30.671,61.64
30.687,42.56
30.703,20.33
30.718,0.84
30.734,-11.62
30.750,-15.91
30.765,-13.79
30.781,-8.45
30.796,-2.63
30.812,2.6
30.828,7.95
30.843,15.07
30.859,25.33
30.875,38.95
30.890,54.52
30.906,69.34
30.921,80.23
30.937,84.68
30.953,81.63
30.968,71.88
30.984,57.73
31.000,42.27
31.015,28.5
31.031,18.78
31.046,14.47
31.062,15.76
31.078,21.6
31.093,29.89
31.109,37.91
31.125,43.15
31.140,44.09
31.156,40.74
31.171,34.46
31.187,27.33
31.203,21.15
31.218,16.99
31.234,14.99
31.250,14.68
31.265,15.49
31.281,16.97
31.296,18.73
31.312,20.29
31.328,20.89
31.343,19.74
31.359,16.4
31.375,11.35
31.390,6.11
31.406,2.88
31.421,3.46
31.437,8.13
31.453,15.2
31.468,21.65
31.484,24.4
31.500,21.6
31.515,13.0
31.531,-0.68
31.546,-18.82
31.562,-41.5
31.578,-69.02
31.593,-100.66
31.609,-133.73
31.625,-163.62
31.640,-185.27
31.656,-195.26
31.671,-193.24
31.687,-181.81
31.703,-164.88
31.718,-145.42
31.734,-124.19
31.750,-99.77
31.765,-70.1
31.781,-34.51
31.796,4.96
31.812,43.68
31.828,75.88
31.843,96.86
31.859,104.75
31.875,101.2
31.890,90.67
31.906,78.67
31.921,69.96
31.937,67.17
31.953,70.44
31.968,77.97
31.984,87.01
32.000,94.7
32.015,98.68
32.031,97.33
32.046,89.64
32.062,75.3
32.078,54.71
32.093,29.19
32.109,0.91
32.125,-27.41
32.140,-53.24
32.156,-74.81
32.171,-91.6
32.187,-104.35
32.203,-114.55
32.218,-123.62
32.234,-132.11
32.250,-139.38
32.265,-143.78
32.281,-143.6
32.296,-138.15
32.312,-128.73
32.328,-118.56
32.343,-111.85
32.359,-112.21
32.375,-121.14
32.390,-137.31
32.406,-156.93
32.421,-175.03
32.437,-187.05
32.453,-190.17
32.468,-183.74
32.484,-168.85
32.500,-147.67
32.515,-122.67
32.531,-96.04
32.546,-69.62
32.562,-44.7
32.578,-22.16
32.593,-2.55
32.609,13.97
32.625,27.65
32.640,39.06
32.656,48.85
32.671,57.45
32.687,64.69
32.703,69.74
32.718,71.4
32.734,68.54
32.750,60.7
32.765,48.48
32.781,33.48
32.796,17.89
32.812,3.96
32.828,-6.72
32.843,-13.45
32.859,-16.55
32.875,-17.04
32.890,-16.19
32.906,-15.13
32.921,-14.56
32.937,-14.74
32.953,-15.57
32.968,-16.92
32.984,-18.73
33.000,-21.12
33.015,-24.3
33.031,-28.4
33.046,-33.53
33.062,-39.63
33.078,-46.44
33.093,-53.44
33.109,-59.74
33.125,-64.15
33.140,-65.43
33.156,-62.68
33.171,-55.76
33.187,-45.35
33.203,-32.97
33.218,-20.39
33.234,-9.23
33.250,-0.42
33.265,5.99
33.281,10.75
33.296,14.89
33.312,19.38
33.328,24.76
33.343,31.04
33.359,37.83
33.375,44.55
33.390,50.73
33.406,56.04
33.421,60.38
33.437,63.77
33.453,66.33
33.468,68.27
33.484,69.81
33.500,71.15
33.515,72.47
33.531,73.82
33.546,75.22
33.562,76.6
33.578,77.87
33.593,78.87
33.609,79.49
33.625,79.73
33.640,79.65
33.656,79.55
33.671,79.63
33.687,79.9
33.703,80.01
33.718,79.28
33.734,76.98
33.750,72.69
33.765,66.56
33.781,59.32
33.796,51.99
33.812,45.46
33.828,40.21
33.843,36.18
33.859,32.87
33.875,29.57
33.890,25.61
33.906,20.57
33.921,14.42
33.937,7.64
33.953,1.16
33.968,-3.81
33.984,-6.05
34.000,-4.74
34.015,0.27
34.031,8.47
34.046,18.92
34.062,30.55
34.078,42.48
34.093,54.02
34.109,64.61
34.125,73.74
34.140,81.0
34.156,86.24
34.171,89.89
34.187,92.92
34.203,96.68
34.218,102.39
34.234,110.65
34.250,121.14
34.265,132.69
34.281,143.69
34.296,152.61
34.312,158.56
34.328,161.78
34.343,163.56
34.359,165.9
34.375,170.83
34.390,179.48
34.406,191.43
34.421,204.5
34.437,215.05
34.453,218.99
34.468,212.93
34.484,195.26
34.500,166.79
34.515,130.68
34.531,91.7
34.546,54.99
34.562,24.45
34.578,1.49
34.593,-15.52
34.609,-30.78
34.625,-49.27
34.640,-74.51
34.656,-106.81
34.671,-142.71
34.687,-175.87
34.703,-199.3
34.718,-207.74
34.734,-199.17
34.750,-175.29
34.765,-140.65
34.781,-101.26
34.796,-63.26
34.812,-31.75
34.828,-10.04
34.843,0.74
34.859,1.61
34.875,-4.6
34.890,-14.0
34.906,-22.35
34.921,-26.09
34.937,-23.19
34.953,-14.07
34.968,-1.89
34.984,7.85
35.000,8.92
35.015,-3.38
35.031,-30.15
35.046,-67.86
35.062,-109.32
35.078,-146.19
35.093,-172.02
35.109,-184.34
35.125,-185.0
35.140,-178.47
35.156,-169.44
35.171,-160.98
35.187,-153.88
35.203,-147.44
35.218,-140.73
35.234,-133.62
35.250,-127.04
35.265,-122.4
35.281,-120.8
35.296,-122.44
35.312,-126.59
35.328,-131.93
35.343,-137.16
35.359,-141.33
35.375,-143.96
35.390,-144.91
35.406,-144.24
35.421,-142.22
35.437,-139.31
35.453,-136.3
35.468,-134.1
35.484,-133.62
35.500,-135.38
35.515,-139.2
35.531,-144.03
35.546,-148.07
35.562,-149.2
35.578,-145.52
35.593,-135.97
35.609,-120.69
35.625,-100.9
35.640,-78.52
35.656,-55.57
35.671,-33.61
35.687,-13.64
35.703,3.87
35.718,18.68
35.734,30.64
35.750,39.62
35.765,45.64
35.781,48.97
35.796,50.17
35.812,49.92
35.828,48.84
35.843,47.4
35.859,45.93
35.875,44.66
35.890,43.84
35.906,43.73
35.921,44.46
35.937,45.93
35.953,47.77
35.968,49.38
35.984,50.13
36.000,49.55
36.015,47.44
36.031,43.88
36.046,39.2
36.062,33.79
36.078,28.12
36.093,22.6
36.109,17.55
36.125,13.19
36.140,9.54
36.156,6.48
36.171,3.72
36.187,0.92
36.203,-2.14
36.218,-5.52
36.234,-9.09
36.250,-12.62
36.265,-15.92
36.281,-19.02
36.296,-22.15
36.312,-25.75
36.328,-30.23
36.343,-35.85
36.359,-42.55
36.375,-49.81
36.390,-56.71
36.406,-61.88
36.421,-63.83
36.437,-61.24
36.453,-53.34
36.468,-40.23
36.484,-22.89
36.500,-3.0
36.515,17.52
36.531,37.01
36.546,54.42
36.562,69.42
36.578,82.22
36.593,93.25
36.609,102.84
36.625,111.04
36.640,117.56
36.656,122.06
36.671,124.32
36.687,124.43
36.703,122.81
36.718,120.01
36.734,116.57
36.750,112.85
36.765,109.1
36.781,105.47
36.796,102.18
36.812,99.44
36.828,97.41
36.843,96.09
36.859,95.15
36.875,94.04
36.890,92.13
36.906,88.97
36.921,84.41
36.937,78.64
36.953,72.08
36.968,65.29
36.984,58.7
37.000,52.6
37.015,47.05
37.031,41.94
37.046,37.05
37.062,32.19
37.078,27.31
37.093,22.42
37.109,17.69
37.125,13.23
37.140,9.01
37.156,4.74
37.171,-0.05
37.187,-5.85
37.203,-12.9
37.218,-20.97
37.234,-29.25
37.250,-36.42
37.265,-41.02
37.281,-41.78
37.296,-38.05
37.312,-29.9
37.328,-18.14
37.343,-4.05
37.359,10.95
37.375,25.61
37.390,38.99
37.406,50.52
37.421,59.88
37.437,66.95
37.453,71.75
37.468,74.46
37.484,75.37
37.500,74.92
37.515,73.64
37.531,72.0
37.546,70.34
37.562,68.89
37.578,67.71
37.593,66.73
37.609,65.84
37.625,64.89
37.640,63.81
37.656,62.5
37.671,60.88
37.687,58.85
37.703,56.35
37.718,53.27
37.734,49.59
37.750,45.34
37.765,40.62
37.781,35.68
37.796,30.77
37.812,26.13
37.828,21.85
37.843,17.84
37.859,13.85
37.875,9.57
37.890,4.77
37.906,-0.56
37.921,-6.14
37.937,-11.56
37.953,-16.46
37.968,-20.73
37.984,-24.56
38.000,-28.41
38.015,-32.77
38.031,-38.01
38.046,-44.24
38.062,-51.15
38.078,-58.04
38.093,-63.9
38.109,-67.59
38.125,-68.12
38.140,-64.86
38.156,-57.78
38.171,-47.51
38.187,-35.23
38.203,-22.28
38.218,-9.85
38.234,1.3
38.250,10.99
38.265,19.38
38.281,26.7
38.296,33.07
38.312,38.46
38.328,42.75
38.343,45.93
38.359,48.14
38.375,49.62
38.390,50.59
38.406,51.11
38.421,51.08
38.437,50.38
38.453,48.98
38.468,47.04
38.484,44.81
38.500,42.54
38.515,40.3
38.531,38.03
38.546,35.52
38.562,32.55
38.578,29.07
38.593,25.08
38.609,20.75
38.625,16.25
38.640,11.77
38.656,7.39
38.671,3.09
38.687,-1.24
38.703,-5.8
38.718,-10.81
38.734,-16.42
38.750,-22.57
38.765,-29.07
38.781,-35.52
38.796,-41.5
38.812,-46.72
38.828,-51.07
38.843,-54.73
38.859,-58.08
38.875,-61.63
38.890,-65.82
38.906,-70.9
38.921,-76.82
38.937,-83.11
38.953,-88.9
38.968,-92.98
38.984,-94.07
39.000,-91.15
39.015,-83.78
39.031,-72.27
39.046,-57.58
39.062,-41.01
39.078,-23.84
39.093,-7.08
39.109,8.65
39.125,22.96
39.140,35.61
39.156,46.36
39.171,54.98
39.187,61.35
39.203,65.55
39.218,67.87
39.234,68.67
39.250,68.34
39.265,67.17
39.281,65.37
39.296,63.11
39.312,60.53
39.328,57.82
39.343,55.12
39.359,52.47
39.375,49.77
39.390,46.89
39.406,43.59
39.421,39.69
39.437,35.1
39.453,29.79
39.468,23.86
39.484,17.43
39.500,10.65
39.515,3.68
39.531,-3.26
39.546,-9.91
39.562,-16.0
39.578,-21.27
39.593,-25.61
39.609,-29.03
39.625,-31.73
39.640,-34.03
39.656,-36.32
39.671,-38.92
39.687,-42.15
39.703,-46.22
39.718,-51.21
39.734,-57.0
39.750,-63.04
39.765,-68.37
39.781,-71.8
39.796,-72.12
39.812,-68.62
39.828,-61.43
39.843,-51.44
39.859,-40.06
39.875,-28.8
39.890,-18.75
39.906,-10.45
39.921,-3.92
39.937,1.15
39.953,5.01
39.968,7.81
39.984,9.57
40.000,10.31
40.015,10.13
40.031,9.32
40.046,8.32
40.062,7.68
40.078,7.97
40.093,9.6
40.109,12.73
40.125,17.11
40.140,22.17
40.156,27.1
40.171,31.09
40.187,33.53
40.203,34.13
40.218,32.95
40.234,30.24
40.250,26.37
40.265,21.73
40.281,16.67
40.296,11.54
40.312,6.71
40.328,2.5
40.343,-0.84
40.359,-3.22
40.375,-4.68
40.390,-5.46
40.406,-5.91
40.421,-6.46
40.437,-7.55
40.453,-9.53
40.468,-12.61
40.484,-16.86
40.500,-22.1
40.515,-27.96
40.531,-33.79
40.546,-38.76
40.562,-41.92
40.578,-42.33
40.593,-39.36
40.609,-32.83
40.625,-23.13
40.640,-11.09
40.656,2.26
40.671,15.9
40.687,29.06
40.703,41.28
40.718,52.39
40.734,62.41
40.750,71.52
40.765,79.97
40.781,88.02
40.796,95.89
40.812,103.71
40.828,111.39
40.843,118.74
40.859,125.51
40.875,131.56
40.890,136.91
40.906,141.8
40.921,146.67
40.937,152.02
40.953,158.34
40.968,165.85
40.984,174.31
41.000,182.77
41.015,189.6
41.031,192.77
41.046,190.4
41.062,181.46
41.078,166.16
41.093,146.05
41.109,123.61
41.125,101.65
41.140,82.68
41.156,68.61
41.171,60.54
41.187,58.58
41.203,61.61
41.218,67.19
41.234,71.78
41.250,71.5
41.265,63.17
41.281,45.26
41.296,18.42
41.312,-14.64
41.328,-49.91
41.343,-82.93
41.359,-109.71
41.375,-127.32
41.390,-134.37
41.406,-131.09
41.421,-119.17
41.437,-101.21
41.453,-79.91
41.468,-57.35
41.484,-34.5
41.500,-11.4
41.515,12.1
41.531,35.4
41.546,56.67
41.562,73.1
41.578,81.83
41.593,81.19
41.609,71.41
41.625,54.81
41.640,35.2
41.656,16.77
41.671,3.09
41.687,-3.77
41.703,-3.51
41.718,2.35
41.734,10.91
41.750,18.57
41.765,21.92
41.781,18.77
41.796,8.79
41.812,-6.28
41.828,-23.31
41.843,-38.9
41.859,-50.54
41.875,-57.26
41.890,-59.59
41.906,-59.0
41.921,-56.99
41.937,-54.54
41.953,-51.7
41.968,-47.89
41.984,-42.37
42.000,-34.97
42.015,-26.5
42.031,-18.82
42.046,-14.47
42.062,-16.03
42.078,-25.49
42.093,-43.61
42.109,-69.58
42.125,-100.94
42.140,-133.68
42.156,-162.81
42.171,-183.35
42.187,-191.67
42.203,-186.41
42.218,-169.11
42.234,-143.79
42.250,-115.98
42.265,-91.13
42.281,-73.33
42.296,-64.49
42.312,-64.46
42.328,-71.65
42.343,-83.77
42.359,-98.42
42.375,-113.41
42.390,-126.93
42.406,-137.71
42.421,-145.26
42.437,-149.89
42.453,-152.52
42.468,-154.35
42.484,-156.21
42.500,-158.22
42.515,-159.77
42.531,-159.76
42.546,-157.19
42.562,-151.57
42.578,-143.16
42.593,-132.76
42.609,-121.43
42.625,-110.14
42.640,-99.7
42.656,-90.67
42.671,-83.32
42.687,-77.69
42.703,-73.5
42.718,-70.29
42.734,-67.58
42.750,-65.05
42.765,-62.62
42.781,-60.5
42.796,-59.0
42.812,-58.48
42.828,-59.18
42.843,-61.22
42.859,-64.47
42.875,-68.44
42.890,-72.21
42.906,-74.46
42.921,-73.71
42.937,-68.77
42.953,-59.1
42.968,-45.15
42.984,-28.29
43.000,-10.39
43.015,6.77
43.031,22.02
43.046,34.97
43.062,45.89
43.078,55.26
43.093,63.49
43.109,70.71
43.125,76.8
43.140,81.67
43.156,85.41
43.171,88.44
43.187,91.33
43.203,94.69
43.218,98.89
43.234,104.03
43.250,109.85
43.265,115.94
43.281,121.88
43.296,127.35
43.312,132.16
43.328,136.17
43.343,139.11
43.359,140.5
43.375,139.66
43.390,135.92
43.406,128.87
43.421,118.55
43.437,105.53
43.453,91.02
43.468,76.83
43.484,65.11
43.500,57.8
43.515,55.73
43.531,57.82
43.546,60.77
43.562,59.81
43.578,50.15
43.593,28.86
43.609,-3.91
43.625,-44.62
43.640,-87.19
43.656,-124.66
43.671,-150.86
43.687,-161.77
43.703,-156.17
43.718,-135.63
43.734,-104.05
43.750,-66.7
43.765,-29.04
43.781,4.54
43.796,31.52
43.812,51.58
43.828,66.14
43.843,77.43
43.859,87.35
43.875,96.52
43.890,103.88
43.906,107.04
43.921,103.25
43.937,90.73
43.953,69.76
43.968,42.92
43.984,14.45
44.000,-11.14
44.015,-30.46
44.031,-42.07
44.046,-46.35
44.062,-44.61
44.078,-38.19
44.093,-27.83
44.109,-13.82
44.125,3.31
44.140,22.16
44.156,40.23
44.171,54.36
44.187,61.68
44.203,60.69
44.218,51.65
44.234,36.46
44.250,17.79
44.265,-1.79
44.281,-20.43
44.296,-37.08
44.312,-51.44
44.328,-63.82
44.343,-75.12
44.359,-86.76
44.375,-100.4
44.390,-117.35
44.406,-137.78
44.421,-160.03
44.437,-180.46
44.453,-194.25
44.468,-196.87
44.484,-185.81
44.500,-161.73
44.515,-128.58
44.531,-92.38
44.546,-59.34
44.562,-33.88
44.578,-17.47
44.593,-8.78
44.609,-4.73
44.625,-2.14
44.640,1.27
44.656,6.55
44.671,13.94
44.687,23.41
44.703,34.93
44.718,48.23
44.734,62.52
44.750,76.41
44.765,88.17
44.781,96.24
44.796,99.82
44.812,99.02
44.828,94.81
44.843,88.56
44.859,81.51
44.875,74.19
44.890,66.13
44.906,55.88
44.921,41.33
44.937,20.42
44.953,-8.0
44.968,-43.6
44.984,-84.45
45.000,-127.36
45.015,-168.7
45.031,-205.16
45.046,-234.33
45.062,-254.78
45.078,-265.95
45.093,-268.06
45.109,-262.1
45.125,-250.02
45.140,-234.63
45.156,-219.16
45.171,-206.45
45.187,-197.91
45.203,-192.92
45.218,-188.88
45.234,-182.13
45.250,-169.32
45.265,-148.78
45.281,-121.07
45.296,-88.78
45.312,-55.43
45.328,-24.27
45.343,2.58
45.359,24.32
45.375,41.15
45.390,53.8
45.406,63.15
45.421,70.13
45.437,75.74
45.453,80.97
45.468,86.63
45.484,93.03
45.500,99.93
45.515,106.72
45.531,112.79
45.546,117.97
45.562,122.56
45.578,127.15
45.593,132.11
45.609,137.3
45.625,142.04
45.640,145.47
45.656,146.92
45.671,146.2
45.687,143.51
45.703,138.98
45.718,132.31
45.734,122.85
45.750,110.04
45.765,94.07
45.781,76.21
45.796,58.4
45.812,42.15
45.828,27.77
45.843,14.0
45.859,-1.03
45.875,-18.29
45.890,-36.76
45.906,-53.81
45.921,-66.87
45.937,-75.48
45.953,-81.97
45.968,-90.09
45.984,-102.31
46.000,-117.3
46.015,-129.72
46.031,-132.42
46.046,-120.12
46.062,-92.27
46.078,-53.52
46.093,-11.68
46.109,25.6
46.125,53.42
46.140,70.4
46.156,77.58
46.171,76.62
46.187,68.57
46.203,53.91
46.218,33.69
46.234,10.49
46.250,-11.46
46.265,-27.68
46.281,-35.31
46.296,-34.74
46.312,-29.74
46.328,-25.67
46.343,-26.85
46.359,-34.2
46.375,-44.79
46.390,-53.32
46.406,-54.98
46.421,-47.9
46.437,-34.06
46.453,-18.1
46.468,-4.99
46.484,2.24
46.500,3.5
46.515,1.08
46.531,-1.72
46.546,-2.14
46.562,1.03
46.578,7.26
46.593,14.77
46.609,21.45
46.625,25.59
46.640,26.5
46.656,24.49
46.671,20.7
46.687,16.56
46.703,13.41
46.718,12.24
46.734,13.68
46.750,18.17
46.765,26.05
46.781,37.67
46.796,53.25
46.812,72.69
46.828,95.32
46.843,119.83
46.859,144.35
46.875,166.82
46.890,185.47
46.906,199.21
46.921,207.71
46.937,211.31
46.953,210.76
46.968,207.03
46.984,201.39
47.000,195.39
47.015,190.74
47.031,188.62
47.046,188.85
47.062,189.33
47.078,186.27
47.093,175.41
47.109,153.44
47.125,119.4
47.140,75.08
47.156,24.62
47.171,-26.71
47.187,-73.86
47.203,-113.14
47.218,-142.74
47.234,-162.56
47.250,-173.57
47.265,-177.05
47.281,-174.09
47.296,-165.31
47.312,-151.3
47.328,-133.2
47.343,-113.11
47.359,-93.85
47.375,-78.4
47.390,-69.01
47.406,-66.59
47.421,-70.87
47.437,-80.84
47.453,-95.33
47.468,-113.26
47.484,-133.26
47.500,-153.17
47.515,-169.88
47.531,-179.82
47.546,-180.08
47.562,-169.79
47.578,-150.67
47.593,-126.68
47.609,-102.6
47.625,-82.23
47.640,-67.25
47.656,-57.09
47.671,-49.77
47.687,-43.19
47.703,-36.15
47.718,-28.52
47.734,-20.87
47.750,-13.75
47.765,-7.22
47.781,-0.83
47.796,6.11
47.812,14.25
47.828,24.02
47.843,35.47
47.859,48.35
47.875,62.1
47.890,75.95
47.906,88.95
47.921,100.07
47.937,108.46
47.953,113.7
47.968,115.96
47.984,116.07
48.000,115.19
48.015,114.31
48.031,113.6
48.046,112.18
48.062,108.42
48.078,100.82
48.093,89.02
48.109,74.25
48.125,59.01
48.140,46.1
48.156,37.35
48.171,32.76
48.187,30.46
48.203,27.13
48.218,19.31
48.234,4.49
48.250,-17.81
48.265,-45.75
48.281,-75.61
48.296,-102.89
48.312,-123.7
48.328,-135.82
48.343,-139.16
48.359,-135.39
48.375,-127.1
48.390,-116.98
48.406,-107.2
48.421,-99.28
48.437,-94.05
48.453,-91.67
48.468,-91.51
48.484,-92.3
48.500,-92.36
48.515,-90.22
48.531,-85.06
48.546,-76.89
48.562,-66.51
48.578,-54.98
48.593,-43.39
48.609,-32.64
48.625,-23.39
48.640,-16.03
48.656,-10.67
48.671,-7.09
48.687,-4.81
48.703,-3.28
48.718,-2.07
48.734,-1.0
48.750,-0.29
48.765,-0.4
48.781,-1.79
48.796,-4.71
48.812,-9.05
48.828,-14.34
48.843,-19.96
48.859,-25.32
48.875,-30.21
48.890,-34.77
48.906,-39.53
48.921,-45.16
48.937,-52.19
48.953,-60.78
48.968,-70.45
48.984,-80.09
49.000,-88.05
49.015,-92.54
49.031,-91.96
49.046,-85.34
49.062,-72.71
49.078,-55.03
49.093,-33.97
49.109,-11.4
49.125,11.07
49.140,32.42
49.156,52.13
49.171,70.07
49.187,86.08
49.203,99.92
49.218,111.31
49.234,120.28
49.250,127.29
49.265,133.25
49.281,139.12
49.296,145.55
49.312,152.57
49.328,159.63
49.343,165.91
49.359,170.75
49.375,173.92
49.390,175.75
49.406,176.86
49.421,178.05
49.437,180.09
49.453,183.62
49.468,189.08
49.484,196.64
49.500,206.03
49.515,216.56
49.531,227.0
49.546,235.74
49.562,241.07
49.578,241.53
49.593,236.44
49.609,226.19
49.625,212.35
49.640,197.23
49.656,183.18
49.671,171.73
49.687,163.06
49.703,156.14
49.718,149.24
49.734,140.74
49.750,129.46
49.765,114.59
49.781,95.26
49.796,70.51
49.812,39.52
49.828,2.42
49.843,-39.06
49.859,-81.77
49.875,-121.87
49.890,-156.24
49.906,-183.23
49.921,-202.48
49.937,-213.8
49.953,-216.15
49.968,-207.74
49.984,-187.09
50.000,-154.81
50.015,-114.47
50.031,-72.17
50.046,-34.79
50.062,-7.7
50.078,6.83
50.093,9.78
50.109,4.32
50.125,-5.81
50.140,-17.63
50.156,-29.44
50.171,-40.69
50.187,-51.53
50.203,-62.38
50.218,-73.65
50.234,-85.56
50.250,-97.99
50.265,-110.32
50.281,-121.66
50.296,-130.99
50.312,-137.47
50.328,-140.57
50.343,-140.19
50.359,-136.78
50.375,-131.15
50.390,-124.41
50.406,-117.59
50.421,-111.47
50.437,-106.5
50.453,-102.74
50.468,-99.93
50.484,-97.64
50.500,-95.46
50.515,-93.13
50.531,-90.65
50.546,-88.32
50.562,-86.67
50.578,-86.22
50.593,-87.39
50.609,-90.31
50.625,-94.85
50.640,-100.82
50.656,-107.92
50.671,-115.91
50.687,-124.51
50.703,-133.27
50.718,-141.53
50.734,-148.37
50.750,-152.79
50.765,-153.95
50.781,-151.33
50.796,-144.76
50.812,-134.48
50.828,-121.01
50.843,-105.26
50.859,-88.26
50.875,-71.07
50.890,-54.62
50.906,-39.42
50.921,-25.71
50.937,-13.45
50.953,-2.52
50.968,7.09
50.984,15.15
51.000,21.18
51.015,24.67
51.031,25.27
51.046,23.07
51.062,18.71
51.078,13.54
51.093,9.35
51.109,8.0
51.125,10.97
51.140,18.84
51.156,31.18
51.171,46.77
51.187,63.91
51.203,81.07
51.218,97.07
51.234,111.2
51.250,123.05
51.265,132.41
51.281,139.08
51.296,142.97
51.312,144.25
51.328,143.47
51.343,141.48
51.359,139.32
51.375,137.86
51.390,137.64
51.406,138.74
51.421,140.86
51.437,143.43
51.453,145.91
51.468,147.87
51.484,149.11
51.500,149.52
51.515,149.01
51.531,147.49
51.546,144.84
51.562,141.05
51.578,136.29
51.593,130.95
51.609,125.49
51.625,120.31
51.640,115.64
51.656,111.42
51.671,107.48
51.687,103.61
51.703,99.94
51.718,97.01
51.734,95.81
51.750,97.53
51.765,103.14
51.781,113.14
51.796,127.15
51.812,144.15
51.828,162.66
51.843,181.06
51.859,197.91
51.875,212.09
51.890,222.9
51.906,230.07
51.921,233.83
51.937,234.79
51.953,233.75
51.968,231.15
51.984,226.7
52.000,219.32
52.015,207.61
52.031,190.57
52.046,168.17
52.062,141.47
52.078,112.18
52.093,81.87
52.109,51.5
52.125,21.44
52.140,-8.04
52.156,-36.31
52.171,-62.53
52.187,-86.12
52.203,-107.1
52.218,-125.99
52.234,-143.06
52.250,-157.49
52.265,-167.31
52.281,-170.23
52.296,-165.06
52.312,-152.78
52.328,-136.31
52.343,-119.29
52.359,-104.29
52.375,-91.71
52.390,-79.81
52.406,-65.97
52.421,-48.15
52.437,-25.83
52.453,-0.18
52.468,26.43
52.484,51.0
52.500,70.26
52.515,81.02
52.531,80.81
52.546,68.32
52.562,43.92
52.578,9.82
52.593,-30.58
52.609,-73.41
52.625,-115.47
52.640,-154.9
52.656,-191.56
52.671,-226.68
52.687,-261.93
52.703,-298.29
52.718,-334.78
52.734,-368.25
52.750,-394.0
52.765,-407.36
52.781,-405.53
52.796,-388.72
52.812,-360.1
52.828,-324.63
52.843,-287.51
52.859,-252.9
52.875,-223.46
52.890,-200.57
52.906,-184.57
52.921,-174.89
52.937,-169.79
52.953,-166.44
52.968,-161.36
52.984,-151.54
53.000,-135.43
53.015,-113.55
53.031,-88.13
53.046,-62.06
53.062,-37.81
53.078,-16.48
53.093,2.17
53.109,19.17
53.125,35.52
53.140,51.58
53.156,66.91
53.171,80.49
53.187,91.32
53.203,98.75
53.218,102.85
53.234,104.39
53.250,104.78
53.265,105.69
53.281,108.54
53.296,113.74
53.312,120.11
53.328,124.89
53.343,124.44
53.359,115.62
53.375,97.14
53.390,70.14
53.406,37.8
53.421,4.04
53.437,-27.75
53.453,-55.63
53.468,-78.93
53.484,-97.53
53.500,-111.28
53.515,-119.7
53.531,-122.51
53.546,-120.13
53.562,-113.86
53.578,-105.45
53.593,-96.31
53.609,-86.91
53.625,-76.73
53.640,-64.7
53.656,-49.93
53.671,-32.32
53.687,-12.54
53.703,8.31
53.718,29.34
53.734,50.23
53.750,71.28
53.765,92.98
53.781,115.54
53.796,138.63
53.812,161.36
53.828,182.54
53.843,200.97
53.859,215.68
53.875,225.94
53.890,231.39
53.906,232.06
53.921,228.43
53.937,221.48
53.953,212.47
53.968,202.59
53.984,192.73
54.000,183.25
54.015,174.24
54.031,165.68
54.046,157.75
54.062,150.77
54.078,145.02
54.093,140.48
54.109,136.71
54.125,133.06
54.140,129.0
54.156,124.45
54.171,120.0
54.187,116.69
54.203,115.48
54.218,116.75
54.234,119.84
54.250,123.17
54.265,124.82
54.281,123.3
54.296,118.26
54.312,110.7
54.328,102.66
54.343,96.31
54.359,93.13
54.375,93.27
54.390,95.4
54.406,97.24
54.421,96.2
54.437,90.29
54.453,78.6
54.468,61.58
54.484,40.76
54.500,18.38
54.515,-3.18
54.531,-21.93
54.546,-36.55
54.562,-46.91
54.578,-54.34
54.593,-61.55
54.609,-71.92
54.625,-88.05
54.640,-110.26
54.656,-135.89
54.671,-159.99
54.687,-177.34
54.703,-184.64
54.718,-181.82
54.734,-171.65
54.750,-158.04
54.765,-144.07
54.781,-130.95
54.796,-118.23
54.812,-105.12
54.828,-91.6
54.843,-78.73
54.859,-68.06
54.875,-60.66
54.890,-56.66
54.906,-55.4
54.921,-56.06
54.937,-58.28
54.953,-62.33
54.968,-68.79
54.984,-78.03
55.000,-89.68
55.015,-102.4
55.031,-114.13
55.046,-122.54
55.062,-125.67
55.078,-122.56
55.093,-113.49
55.109,-100.03
55.125,-84.49
55.140,-69.2
55.156,-55.97
55.171,-45.58
55.187,-37.91
55.203,-32.29
55.218,-28.09
55.234,-25.07
55.250,-23.55
55.265,-24.13
55.281,-27.32
55.296,-33.12
55.312,-40.95
55.328,-49.82
55.343,-58.71
55.359,-66.88
55.375,-74.02
55.390,-80.17
55.406,-85.49
55.421,-90.01
55.437,-93.59
55.453,-95.95
55.468,-96.81
55.484,-96.08
55.500,-93.96
55.515,-90.9
55.531,-87.51
55.546,-84.29
55.562,-81.51
55.578,-79.11
55.593,-76.78
55.609,-74.14
55.625,-70.97
55.640,-67.24
55.656,-62.99
55.671,-58.16
55.687,-52.34
55.703,-44.75
55.718,-34.57
55.734,-21.27
55.750,-4.96
55.765,13.58
55.781,33.18
55.796,52.76
55.812,71.61
55.828,89.54
55.843,106.61
55.859,122.68
55.875,137.01
55.890,148.4
55.906,155.59
55.921,157.82
55.937,155.29
55.953,149.12
55.968,140.95
55.984,132.29
56.000,123.94
56.015,115.52
56.031,105.39
56.046,90.81
56.062,68.51
56.078,35.42
56.093,-10.41
56.109,-69.04
56.125,-137.89
56.140,-211.39
56.156,-281.38
56.171,-338.25
56.187,-372.92
56.203,-379.06
56.218,-354.94
56.234,-304.05
56.250,-234.32
56.265,-156.15
56.281,-79.76
56.296,-13.0
56.312,39.84
56.328,78.08
56.343,103.74
56.359,120.41
56.375,132.36
56.390,143.93
56.406,158.92
56.421,179.74
56.437,206.52
56.453,236.52
56.468,264.71
56.484,285.29
56.500,293.93
56.515,289.5
56.531,274.4
56.546,253.29
56.562,230.72
56.578,209.29
56.593,189.02
56.609,168.29
56.625,145.51
56.640,120.12
56.656,92.66
56.671,63.78
56.687,33.54
56.703,1.58
56.718,-32.01
56.734,-65.7
56.750,-96.43
56.765,-120.68
56.781,-136.23
56.796,-143.34
56.812,-144.96
56.828,-145.48
56.843,-149.04
56.859,-158.07
56.875,-172.72
56.890,-191.01
56.906,-209.77
56.921,-225.68
56.937,-235.97
56.953,-239.04
56.968,-234.48
56.984,-222.88
57.000,-205.48
57.015,-183.92
57.031,-159.92
57.046,-135.01
57.062,-110.18
57.078,-85.52
57.093,-60.38
57.109,-33.78
57.125,-5.15
57.140,24.85
57.156,54.33
57.171,80.72
57.187,102.02
57.203,117.78
57.218,129.36
57.234,139.08
57.250,148.99
57.265,159.8
57.281,170.72
57.296,180.11
57.312,186.49
57.328,189.24
57.343,188.64
57.359,185.48
57.375,180.34
57.390,173.41
57.406,164.63
57.421,154.01
57.437,142.05
57.453,129.69
57.468,118.19
57.484,108.48
57.500,100.97
57.515,95.25
57.531,90.38
57.546,85.32
57.562,79.37
57.578,72.5
57.593,65.23
57.609,58.35
57.625,52.45
57.640,47.62
57.656,43.28
57.671,38.41
57.687,31.87
57.703,22.84
57.718,11.01
57.734,-3.28
57.750,-19.05
57.765,-34.84
57.781,-48.89
57.796,-59.52
57.812,-65.49
57.828,-66.39
57.843,-62.78
57.859,-56.04
57.875,-47.86
57.890,-39.67
57.906,-32.31
57.921,-25.93
57.937,-20.23
57.953,-14.92
57.968,-9.93
57.984,-5.55
58.000,-2.2
58.015,-0.15
58.031,0.73
58.046,0.95
58.062,1.22
58.078,2.23
58.093,4.34
58.109,7.5
58.125,11.36
58.140,15.45
58.156,19.36
58.171,22.89
58.187,26.06
58.203,28.95
58.218,31.61
58.234,33.94
58.250,35.73
58.265,36.7
58.281,36.62
58.296,35.37
58.312,33.04
58.328,29.92
58.343,26.48
58.359,23.19
58.375,20.33
58.390,17.84
58.406,15.25
58.421,11.84
58.437,6.91
58.453,0.16
58.468,-8.22
58.484,-17.45
58.500,-26.32
58.515,-33.58
58.531,-38.11
58.546,-39.23
58.562,-36.76
58.578,-30.96
58.593,-22.36
58.609,-11.55
58.625,1.11
58.640,15.56
58.656,31.82
58.671,49.78
58.687,68.84
58.703,87.77
58.718,104.69
58.734,117.34
58.750,123.44
58.765,121.28
58.781,110.26
58.796,91.44
58.812,67.57
58.828,42.54
58.843,20.13
58.859,2.52
58.875,-10.48
58.890,-21.16
58.906,-32.43
58.921,-46.02
58.937,-61.36
58.953,-75.82
58.968,-86.32
58.984,-91.05
59.000,-90.41
59.015,-86.63
59.031,-82.31
59.046,-79.03
59.062,-76.77
59.078,-74.47
59.093,-71.05
59.109,-66.22
59.125,-60.66
59.140,-55.61
59.156,-52.25
59.171,-51.37
59.187,-53.39
59.203,-58.45
59.218,-66.43
59.234,-77.0
59.250,-89.58
59.265,-103.47
59.281,-118.03
59.296,-132.64
59.312,-146.51
59.328,-158.49
59.343,-167.0
59.359,-170.41
59.375,-167.67
59.390,-158.76
59.406,-144.82
59.421,-127.8
59.437,-109.73
59.453,-92.06
59.468,-75.45
59.484,-59.9
59.500,-45.16
59.515,-31.17
59.531,-18.21
59.546,-6.84
59.562,2.38
59.578,9.17
59.593,13.69
59.609,16.61
59.625,18.86
59.640,21.35
59.656,24.58
59.671,28.47
59.687,32.52
59.703,36.01
59.718,38.38
59.734,39.42
59.750,39.27
59.765,38.32
59.781,36.94
59.796,35.41
59.812,33.8
59.828,32.02
59.843,29.95
59.859,27.5
59.875,24.73
59.890,21.82
59.906,19.03
59.921,16.58
59.937,14.69
59.953,13.51
59.968,13.1
59.984,13.39
