timestamp,value
00.000,-1.38
00.015,10.51
00.031,22.1
00.046,34.05
00.062,47.4
00.078,63.02
00.093,81.12
00.109,100.93
00.125,120.66
00.140,137.6
00.156,148.65
00.171,150.94
00.187,142.56
00.203,123.12
00.218,93.82
00.234,57.22
00.250,16.48
00.265,-25.34
00.281,-65.9
00.296,-103.72
00.312,-137.89
00.328,-167.62
00.343,-191.98
00.359,-209.97
00.375,-220.91
00.390,-224.88
00.406,-222.98
00.421,-217.02
00.437,-209.11
00.453,-200.99
00.468,-193.8
00.484,-188.11
00.500,-184.08
00.515,-181.81
00.531,-181.27
00.546,-182.08
00.562,-183.21
00.578,-182.89
00.593,-178.94
00.609,-169.38
00.625,-153.08
00.640,-130.17
00.656,-102.02
00.671,-70.8
00.687,-38.77
00.703,-7.71
00.718,21.38
00.734,48.29
00.750,73.22
00.765,96.41
00.781,117.8
00.796,137.0
00.812,153.54
00.828,167.08
00.843,177.68
00.859,185.83
00.875,192.26
00.890,197.61
00.906,202.16
00.921,205.84
00.937,208.37
00.953,209.7
00.968,210.16
00.984,210.51
01.000,211.55
01.015,213.56
01.031,216.07
01.046,217.92
01.062,217.8
01.078,214.9
01.093,209.37
01.109,202.15
01.125,194.36
01.140,186.53
01.156,177.9
01.171,166.39
01.187,149.0
01.203,122.58
01.218,84.63
01.234,34.19
01.250,-27.32
01.265,-95.48
01.281,-162.96
01.296,-220.7
01.312,-259.99
01.328,-275.04
01.343,-264.82
01.359,-233.57
01.375,-189.57
01.390,-142.8
01.406,-102.24
01.421,-73.92
01.437,-60.12
01.453,-59.77
01.468,-69.75
01.484,-86.19
01.500,-105.68
01.515,-125.82
01.531,-145.25
01.546,-163.27
01.562,-179.21
01.578,-191.96
01.593,-199.82
01.609,-200.81
01.625,-193.27
01.640,-176.41
01.656,-150.65
01.671,-117.53
01.687,-79.47
01.703,-39.39
01.718,-0.26
01.734,35.23
01.750,64.95
01.765,87.56
01.781,102.72
01.796,111.31
01.812,115.43
01.828,118.11
01.843,122.65
01.859,131.33
01.875,144.53
01.890,160.08
01.906,173.69
01.921,180.18
01.937,175.13
01.953,156.18
01.968,123.81
01.984,81.44
02.000,34.85
02.015,-8.63
02.031,-41.4
02.046,-57.23
02.062,-52.86
02.078,-29.14
02.093,8.85
02.109,52.97
02.125,93.96
02.140,123.51
02.156,135.72
02.171,127.76
02.187,99.8
02.203,54.86
02.218,-1.51
02.234,-61.86
02.250,-118.07
02.265,-163.21
02.281,-193.36
02.296,-208.69
02.312,-213.0
02.328,-212.02
02.343,-210.89
02.359,-212.43
02.375,-216.39
02.390,-220.13
02.406,-220.17
02.421,-213.85
02.437,-200.31
02.453,-180.65
02.468,-157.27
02.484,-132.81
02.500,-109.4
02.515,-88.36
02.531,-70.32
02.546,-55.73
02.562,-44.99
02.578,-38.5
02.593,-36.34
02.609,-38.07
02.625,-42.7
02.640,-48.94
02.656,-55.52
02.671,-61.34
02.687,-65.48
02.703,-67.09
02.718,-65.33
02.734,-59.47
02.750,-49.2
02.765,-34.84
02.781,-17.41
02.796,1.64
02.812,20.76
02.828,38.69
02.843,54.7
02.859,68.49
02.875,80.11
02.890,89.68
02.906,97.31
02.921,103.01
02.937,106.72
02.953,108.44
02.968,108.27
02.984,106.49
03.000,103.47
03.015,99.65
03.031,95.4
03.046,90.95
03.062,86.41
03.078,81.85
03.093,77.31
03.109,72.84
03.125,68.46
03.140,64.04
03.156,59.25
03.171,53.74
03.187,47.17
03.203,39.52
03.218,31.1
03.234,22.44
03.250,14.13
03.265,6.55
03.281,-0.3
03.296,-6.68
03.312,-13.07
03.328,-19.95
03.343,-27.73
03.359,-36.6
03.375,-46.39
03.390,-56.44
03.406,-65.46
03.421,-71.69
03.437,-73.23
03.453,-68.6
03.468,-57.28
03.484,-39.91
03.500,-18.07
03.515,6.18
03.531,30.96
03.546,54.99
03.562,77.6
03.578,98.55
03.593,117.62
03.609,134.38
03.625,148.24
03.640,158.73
03.656,165.87
03.671,170.3
03.687,173.33
03.703,176.44
03.718,180.87
03.734,187.0
03.750,194.2
03.765,200.9
03.781,205.1
03.796,204.99
03.812,199.43
03.828,188.24
03.843,172.11
03.859,152.38
03.875,130.68
03.890,108.63
03.906,87.53
03.921,68.07
03.937,50.07
03.953,32.61
03.968,14.46
03.984,-5.2
04.000,-26.22
04.015,-47.51
04.031,-67.66
04.046,-86.04
04.062,-103.5
04.078,-122.27
04.093,-144.94
04.109,-173.04
04.125,-206.02
04.140,-241.02
04.156,-273.61
04.171,-298.88
04.187,-312.52
04.203,-311.67
04.218,-295.4
04.234,-264.98
04.250,-223.7
04.265,-176.37
04.281,-128.21
04.296,-83.8
04.312,-46.12
04.328,-16.44
04.343,5.31
04.359,19.95
04.375,28.54
04.390,32.31
04.406,32.75
04.421,31.58
04.437,30.43
04.453,30.37
04.468,31.59
04.484,33.43
04.500,34.91
04.515,35.2
04.531,34.04
04.546,31.75
04.562,28.97
04.578,26.26
04.593,23.78
04.609,21.29
04.625,18.28
04.640,14.27
04.656,9.05
04.671,2.81
04.687,-3.97
04.703,-10.7
04.718,-16.91
04.734,-22.46
04.750,-27.49
04.765,-32.48
04.781,-38.09
04.796,-44.93
04.812,-53.28
04.828,-62.73
04.843,-72.01
04.859,-79.14
04.875,-81.81
04.890,-78.12
04.906,-67.19
04.921,-49.5
04.937,-26.73
04.953,-1.2
04.968,24.86
04.984,49.78
05.000,72.58
05.015,92.84
05.031,110.38
05.046,125.03
05.062,136.66
05.078,145.24
05.093,150.96
05.109,154.24
05.125,155.71
05.140,156.01
05.156,155.69
05.171,155.16
05.187,154.61
05.203,154.09
05.218,153.53
05.234,152.85
05.250,152.04
05.265,151.17
05.281,150.25
05.296,149.11
05.312,147.26
05.328,144.04
05.343,138.91
05.359,131.84
05.375,123.47
05.390,114.87
05.406,107.23
05.421,101.24
05.437,97.02
05.453,94.12
05.468,91.92
05.484,89.92
05.500,87.8
05.515,85.2
05.531,81.49
05.546,75.64
05.562,66.44
05.578,53.05
05.593,35.34
05.609,14.24
05.625,-8.34
05.640,-29.9
05.656,-47.92
05.671,-60.43
05.687,-66.33
05.703,-65.55
05.718,-59.07
05.734,-48.9
05.750,-38.03
05.765,-30.27
05.781,-29.58
05.796,-39.15
05.812,-60.31
05.828,-91.83
05.843,-130.08
05.859,-170.1
05.875,-207.04
05.890,-237.51
05.906,-260.26
05.921,-275.8
05.937,-285.56
05.953,-290.79
05.968,-291.97
05.984,-288.72
06.000,-280.15
06.015,-265.47
06.031,-244.56
06.046,-218.24
06.062,-188.25
06.078,-156.78
06.093,-125.98
06.109,-97.57
06.125,-72.67
06.140,-51.95
06.156,-35.91
06.171,-24.99
06.187,-19.38
06.203,-18.76
06.218,-22.15
06.234,-28.04
06.250,-34.82
06.265,-41.33
06.281,-47.13
06.296,-52.43
06.312,-57.71
06.328,-63.13
06.343,-68.25
06.359,-71.93
06.375,-72.61
06.390,-68.87
06.406,-59.88
06.421,-45.77
06.437,-27.62
06.453,-7.17
06.468,13.69
06.484,33.42
06.500,51.12
06.515,66.65
06.531,80.23
06.546,92.14
06.562,102.35
06.578,110.47
06.593,115.98
06.609,118.58
06.625,118.48
06.640,116.38
06.656,113.22
06.671,109.86
06.687,106.72
06.703,103.77
06.718,100.66
06.734,97.04
06.750,92.77
06.765,87.98
06.781,83.0
06.796,78.1
06.812,73.35
06.828,68.54
06.843,63.27
06.859,57.23
06.875,50.39
06.890,43.0
06.906,35.52
06.921,28.33
06.937,21.37
06.953,14.14
06.968,5.86
06.984,-4.2
07.000,-16.4
07.015,-30.56
07.031,-46.06
07.046,-61.97
07.062,-77.09
07.078,-90.0
07.093,-99.09
07.109,-102.81
07.125,-100.1
07.140,-90.83
07.156,-75.98
07.171,-57.5
07.187,-37.76
07.203,-18.89
07.218,-2.28
07.234,11.53
07.250,22.56
07.265,31.12
07.281,37.41
07.296,41.53
07.312,43.53
07.328,43.62
07.343,42.26
07.359,40.09
07.375,37.78
07.390,35.77
07.406,34.23
07.421,33.0
07.437,31.84
07.453,30.53
07.468,29.06
07.484,27.55
07.500,26.18
07.515,25.0
07.531,23.84
07.546,22.32
07.562,19.93
07.578,16.24
07.593,11.1
07.609,4.72
07.625,-2.33
07.640,-9.37
07.656,-15.82
07.671,-21.49
07.687,-26.67
07.703,-32.08
07.718,-38.58
07.734,-46.79
07.750,-56.83
07.765,-68.11
07.781,-79.37
07.796,-88.88
07.812,-94.78
07.828,-95.55
07.843,-90.36
07.859,-79.35
07.875,-63.59
07.890,-44.84
07.906,-25.12
07.921,-6.2
07.937,10.66
07.953,24.85
07.968,36.29
07.984,45.18
08.000,51.81
08.015,56.4
08.031,59.17
08.046,60.38
08.062,60.42
08.078,59.77
08.093,58.85
08.109,57.96
08.125,57.14
08.140,56.25
08.156,55.11
08.171,53.64
08.187,51.96
08.203,50.28
08.218,48.77
08.234,47.35
08.250,45.65
08.265,43.14
08.281,39.27
08.296,33.83
08.312,26.94
08.328,19.05
08.343,10.81
08.359,2.73
08.375,-4.9
08.390,-12.15
08.406,-19.35
08.421,-27.05
08.437,-35.78
08.453,-45.79
08.468,-56.89
08.484,-68.18
08.500,-78.09
08.515,-84.66
08.531,-86.01
08.546,-80.87
08.562,-69.1
08.578,-51.73
08.593,-30.65
08.609,-8.15
08.625,13.75
08.640,33.66
08.656,50.85
08.671,65.06
08.687,76.23
08.703,84.34
08.718,89.31
08.734,91.25
08.750,90.56
08.765,88.01
08.781,84.57
08.796,81.09
08.812,78.13
08.828,75.75
08.843,73.66
08.859,71.4
08.875,68.66
08.890,65.38
08.906,61.73
08.921,57.97
08.937,54.21
08.953,50.31
08.968,45.91
08.984,40.57
09.000,34.01
09.015,26.2
09.031,17.4
09.046,8.1
09.062,-1.22
09.078,-10.2
09.093,-18.75
09.109,-27.1
09.125,-35.69
09.140,-45.08
09.156,-55.69
09.171,-67.64
09.187,-80.54
09.203,-93.32
09.218,-104.35
09.234,-111.7
09.250,-113.64
09.265,-109.16
09.281,-98.27
09.296,-82.05
09.312,-62.28
09.328,-40.88
09.343,-19.44
09.359,1.04
09.375,20.11
09.390,37.65
09.406,53.54
09.421,67.6
09.437,79.63
09.453,89.51
09.468,97.39
09.484,103.65
09.500,108.79
09.515,113.3
09.531,117.51
09.546,121.49
09.562,125.14
09.578,128.24
09.593,130.59
09.609,132.09
09.625,132.78
09.640,132.88
09.656,132.7
09.671,132.62
09.687,132.97
09.703,133.88
09.718,135.29
09.734,136.94
09.750,138.48
09.765,139.68
09.781,140.58
09.796,141.5
09.812,142.87
09.828,144.88
09.843,147.21
09.859,148.93
09.875,148.69
09.890,145.13
09.906,137.32
09.921,125.08
09.937,109.03
09.953,90.46
09.968,71.15
09.984,53.13
10.000,38.37
10.015,28.29
10.031,23.21
10.046,21.97
10.062,22.2
10.078,21.16
10.093,16.94
10.109,9.18
10.125,-0.86
10.140,-11.36
10.156,-21.11
10.171,-30.27
10.187,-40.09
10.203,-51.95
10.218,-66.0
10.234,-80.65
10.250,-92.97
10.265,-99.9
10.281,-99.29
10.296,-90.24
10.312,-72.84
10.328,-47.88
10.343,-16.93
10.359,17.19
10.375,50.08
10.390,76.37
10.406,91.1
10.421,91.44
10.437,77.66
10.453,52.99
10.468,22.3
10.484,-9.5
10.500,-38.57
10.515,-62.51
10.531,-80.13
10.546,-91.08
10.562,-95.86
10.578,-95.95
10.593,-93.76
10.609,-92.22
10.625,-94.0
10.640,-100.66
10.656,-112.26
10.671,-127.35
10.687,-143.38
10.703,-157.46
10.718,-167.1
10.734,-170.86
10.750,-168.54
10.765,-161.11
10.781,-150.0
10.796,-136.46
10.812,-121.14
10.828,-104.33
10.843,-86.5
10.859,-68.96
10.875,-53.88
10.890,-43.68
10.906,-40.21
10.921,-43.93
10.937,-53.94
10.953,-68.59
10.968,-86.3
10.984,-105.94
11.000,-126.65
11.015,-147.14
11.031,-165.34
11.046,-178.71
11.062,-185.14
11.078,-184.15
11.093,-177.38
11.109,-168.14
11.125,-160.18
11.140,-156.28
11.156,-157.44
11.171,-162.91
11.187,-170.94
11.203,-179.71
11.218,-187.9
11.234,-194.95
11.250,-200.88
11.265,-206.14
11.281,-211.39
11.296,-217.13
11.312,-223.25
11.328,-228.48
11.343,-230.27
11.359,-225.25
11.375,-210.2
11.390,-183.23
11.406,-144.6
11.421,-96.94
11.437,-44.66
11.453,7.23
11.468,54.2
11.484,93.16
11.500,122.72
11.515,143.08
11.531,155.51
11.546,161.79
11.562,163.78
11.578,163.11
11.593,161.1
11.609,158.75
11.625,156.7
11.640,155.26
11.656,154.28
11.671,153.12
11.687,150.91
11.703,146.8
11.718,140.37
11.734,131.86
11.750,122.1
11.765,112.24
11.781,103.32
11.796,95.91
11.812,90.09
11.828,85.41
11.843,81.29
11.859,77.25
11.875,73.11
11.890,68.97
11.906,65.08
11.921,61.61
11.937,58.5
11.953,55.5
11.968,52.33
11.984,48.84
12.000,44.92
12.015,40.43
12.031,34.96
12.046,27.85
12.062,18.48
12.078,6.8
12.093,-6.33
12.109,-19.13
12.125,-29.41
12.140,-35.34
12.156,-36.08
12.171,-32.03
12.187,-24.43
12.203,-14.75
12.218,-4.0
12.234,7.49
12.250,19.85
12.265,33.35
12.281,47.94
12.296,63.19
12.312,78.49
12.328,93.3
12.343,107.46
12.359,121.15
12.375,134.81
12.390,148.86
12.406,163.5
12.421,178.82
12.437,194.92
12.453,211.93
12.468,229.65
12.484,246.99
12.500,261.5
12.515,269.56
12.531,267.35
12.546,252.13
12.562,223.21
12.578,182.1
12.593,131.77
12.609,75.68
12.625,17.05
12.640,-41.09
12.656,-95.62
12.671,-143.28
12.687,-181.09
12.703,-207.35
12.718,-222.34
12.734,-228.47
12.750,-229.49
12.765,-229.25
12.781,-230.57
12.796,-234.76
12.812,-241.68
12.828,-250.15
12.843,-258.63
12.859,-265.75
12.875,-270.82
12.890,-274.08
12.906,-276.57
12.921,-279.71
12.937,-284.44
12.953,-290.49
12.968,-295.9
12.984,-297.35
13.000,-290.92
13.015,-273.38
13.031,-243.32
13.046,-201.75
13.062,-152.06
13.078,-99.1
13.093,-47.95
13.109,-2.74
13.125,34.06
13.140,61.7
13.156,80.72
13.171,92.39
13.187,98.33
13.203,100.31
13.218,100.21
13.234,99.86
13.250,100.55
13.265,102.78
13.281,105.96
13.296,108.81
13.312,109.88
13.328,108.37
13.343,104.55
13.359,99.8
13.375,96.26
13.390,96.2
13.406,101.44
13.421,112.95
13.437,130.54
13.453,152.68
13.468,176.47
13.484,197.95
13.500,213.01
13.515,218.54
13.531,213.36
13.546,198.52
13.562,176.65
13.578,150.83
13.593,123.6
13.609,96.51
13.625,70.59
13.640,46.99
13.656,27.26
13.671,12.73
13.687,3.55
13.703,-2.16
13.718,-8.01
13.734,-18.05
13.750,-34.91
13.765,-58.54
13.781,-86.23
13.796,-113.78
13.812,-137.22
13.828,-154.13
13.843,-163.9
13.859,-167.27
13.875,-165.48
13.890,-159.77
13.906,-151.32
13.921,-141.63
13.937,-132.68
13.953,-126.67
13.968,-125.31
13.984,-129.08
14.000,-136.72
14.015,-145.33
14.031,-151.11
14.046,-150.42
14.062,-140.83
14.078,-121.82
14.093,-94.88
14.109,-62.94
14.125,-29.53
14.140,2.26
14.156,30.35
14.171,53.87
14.187,72.8
14.203,87.53
14.218,98.45
14.234,105.89
14.250,110.3
14.265,112.41
14.281,113.35
14.296,114.29
14.312,116.07
14.328,118.73
14.343,121.52
14.359,123.23
14.375,122.93
14.390,120.44
14.406,116.56
14.421,112.68
14.437,110.18
14.453,109.75
14.468,110.97
14.484,112.27
14.500,111.32
14.515,105.51
14.531,92.8
14.546,72.27
14.562,44.55
14.578,11.77
14.593,-23.07
14.609,-56.93
14.625,-87.75
14.640,-114.88
14.656,-138.91
14.671,-160.62
14.687,-179.93
14.703,-195.08
14.718,-202.82
14.734,-199.72
14.750,-183.7
14.765,-155.41
14.781,-118.37
14.796,-77.93
14.812,-39.45
14.828,-6.51
14.843,19.85
14.859,40.83
14.875,58.58
14.890,74.85
14.906,90.05
14.921,103.03
14.937,111.65
14.953,113.46
14.968,106.54
14.984,90.08
15.000,64.89
15.015,33.46
15.031,-0.15
15.046,-31.21
15.062,-55.39
15.078,-69.74
15.093,-73.3
15.109,-66.92
15.125,-52.86
15.140,-34.05
15.156,-13.8
15.171,4.37
15.187,16.85
15.203,20.46
15.218,13.18
15.234,-5.07
15.250,-31.94
15.265,-63.1
15.281,-93.38
15.296,-118.18
15.312,-134.68
15.328,-142.31
15.343,-142.36
15.359,-137.19
15.375,-129.35
15.390,-120.96
15.406,-113.55
15.421,-108.1
15.437,-105.16
15.453,-104.82
15.468,-106.47
15.484,-108.73
15.500,-109.51
15.515,-106.55
15.531,-98.0
15.546,-83.05
15.562,-62.24
15.578,-37.3
15.593,-10.68
15.609,15.11
15.625,38.05
15.640,56.84
15.656,70.94
15.671,80.47
15.687,85.94
15.703,88.22
15.718,88.37
15.734,87.44
15.750,86.41
15.765,85.98
15.781,86.57
15.796,88.24
15.812,90.82
15.828,93.93
15.843,97.1
15.859,99.82
15.875,101.69
15.890,102.46
15.906,102.11
15.921,100.83
15.937,98.95
15.953,96.81
15.968,94.58
15.984,92.18
16.000,89.39
16.015,85.92
16.031,81.67
16.046,76.77
16.062,71.56
16.078,66.51
16.093,62.04
16.109,58.27
16.125,55.04
16.140,51.86
16.156,48.11
16.171,43.19
16.187,36.86
16.203,29.38
16.218,21.68
16.234,15.31
16.250,12.17
16.265,14.06
16.281,22.13
16.296,36.46
16.312,55.99
16.328,78.66
16.343,101.92
16.359,123.33
16.375,140.94
16.390,153.56
16.406,160.84
16.421,163.02
16.437,160.79
16.453,155.03
16.468,146.66
16.484,136.56
16.500,125.4
16.515,113.72
16.531,101.9
16.546,90.25
16.562,79.12
16.578,68.92
16.593,60.06
16.609,52.83
16.625,47.2
16.640,42.74
16.656,38.6
16.671,33.8
16.687,27.57
16.703,19.77
16.718,11.15
16.734,3.22
16.750,-2.15
16.765,-3.35
16.781,0.39
16.796,8.46
16.812,18.71
16.828,27.53
16.843,30.58
16.859,23.86
16.875,4.84
16.890,-26.44
16.906,-67.09
16.921,-111.83
16.937,-154.25
16.953,-188.45
16.968,-210.37
16.984,-218.43
17.000,-213.45
17.015,-197.88
17.031,-174.95
17.046,-147.95
17.062,-119.83
17.078,-92.97
17.093,-69.03
17.109,-48.88
17.125,-32.48
17.140,-19.12
17.156,-7.71
17.171,2.72
17.187,12.68
17.203,22.13
17.218,30.69
17.234,38.05
17.250,44.16
17.265,49.3
17.281,53.79
17.296,57.76
17.312,60.95
17.328,62.73
17.343,62.28
17.359,58.92
17.375,52.29
17.390,42.56
17.406,30.42
17.421,17.07
17.437,3.9
17.453,-7.75
17.468,-16.95
17.484,-23.35
17.500,-27.05
17.515,-28.55
17.531,-28.47
17.546,-27.38
17.562,-25.75
17.578,-24.0
17.593,-22.48
17.609,-21.58
17.625,-21.68
17.640,-23.15
17.656,-26.22
17.671,-30.84
17.687,-36.4
17.703,-41.67
17.718,-44.85
17.734,-44.05
17.750,-37.89
17.765,-26.0
17.781,-9.23
17.796,10.6
17.812,31.24
17.828,50.65
17.843,67.41
17.859,80.74
17.875,90.36
17.890,96.28
17.906,98.69
17.921,98.04
17.937,94.97
17.953,90.19
17.968,84.19
17.984,76.91
18.000,67.76
18.015,55.81
18.031,40.33
18.046,21.3
18.062,-0.38
18.078,-23.0
18.093,-44.37
18.109,-62.4
18.125,-75.52
18.140,-83.07
18.156,-85.39
18.171,-83.75
18.187,-80.14
18.203,-76.65
18.218,-74.93
18.234,-75.62
18.250,-78.17
18.265,-81.16
18.281,-82.8
18.296,-81.66
18.312,-77.02
18.328,-69.07
18.343,-58.78
18.359,-47.7
18.375,-37.73
18.390,-30.86
18.406,-28.8
18.421,-32.47
18.437,-41.44
18.453,-53.71
18.468,-65.92
18.484,-74.17
18.500,-75.11
18.515,-66.99
18.531,-50.13
18.546,-26.83
18.562,-0.4
18.578,25.95
18.593,50.05
18.609,71.19
18.625,89.87
18.640,106.99
18.656,123.12
18.671,138.12
18.687,151.19
18.703,161.45
18.718,168.45
18.734,172.41
18.750,174.09
18.765,174.36
18.781,173.96
18.796,173.4
18.812,173.19
18.828,173.87
18.843,175.77
18.859,178.62
18.875,181.28
18.890,181.81
18.906,178.37
18.921,170.05
18.937,157.18
18.953,141.12
18.968,123.42
18.984,105.16
19.000,87.05
19.015,70.03
19.031,55.91
19.046,47.14
19.062,45.73
19.078,51.67
19.093,62.06
19.109,71.47
19.125,73.68
19.140,63.77
19.156,39.59
19.171,2.05
19.187,-45.56
19.203,-98.47
19.218,-151.28
19.234,-198.42
19.250,-234.88
19.265,-257.38
19.281,-265.45
19.296,-262.11
19.312,-253.11
19.328,-245.14
19.343,-243.44
19.359,-250.2
19.375,-264.08
19.390,-281.26
19.406,-297.05
19.421,-307.26
19.437,-308.9
19.453,-300.17
19.468,-280.37
19.484,-249.82
19.500,-209.94
19.515,-163.4
19.531,-113.8
19.546,-65.11
19.562,-20.99
19.578,15.87
19.593,43.93
19.609,62.69
19.625,72.45
19.640,73.91
19.656,68.16
19.671,56.67
19.687,41.36
19.703,24.49
19.718,8.38
19.734,-5.05
19.750,-14.67
19.765,-20.22
19.781,-22.19
19.796,-21.44
19.812,-18.8
19.828,-14.92
19.843,-10.28
19.859,-5.29
19.875,-0.36
19.890,4.13
19.906,8.03
19.921,11.41
19.937,14.44
19.953,17.31
19.968,19.98
19.984,22.23
20.000,23.76
20.015,24.41
20.031,24.29
20.046,23.86
20.062,23.8
20.078,24.8
20.093,27.34
20.109,31.46
20.125,36.79
20.140,42.62
20.156,48.16
20.171,52.84
20.187,56.47
20.203,59.28
20.218,61.71
20.234,64.17
20.250,66.86
20.265,69.65
20.281,72.23
20.296,74.26
20.312,75.46
20.328,75.68
20.343,74.78
20.359,72.58
20.375,68.81
20.390,63.24
20.406,55.77
20.421,46.51
20.437,35.81
20.453,24.2
20.468,12.3
20.484,0.71
20.500,-10.11
20.515,-19.89
20.531,-28.59
20.546,-36.37
20.562,-43.55
20.578,-50.49
20.593,-57.5
20.609,-64.79
20.625,-72.32
20.640,-79.77
20.656,-86.36
20.671,-90.84
20.687,-91.68
20.703,-87.43
20.718,-77.19
20.734,-61.02
20.750,-39.89
20.765,-15.41
20.781,10.59
20.796,36.34
20.812,60.09
20.828,79.92
20.843,93.67
20.859,99.3
20.875,95.48
20.890,82.42
20.906,62.05
20.921,37.79
20.937,13.61
20.953,-7.05
20.968,-22.03
20.984,-30.67
21.000,-33.48
21.015,-31.57
21.031,-26.13
21.046,-18.28
21.062,-8.94
21.078,0.99
21.093,10.63
21.109,19.1
21.125,25.75
21.140,30.32
21.156,32.97
21.171,34.21
21.187,34.56
21.203,34.25
21.218,33.08
21.234,30.59
21.250,26.36
21.265,20.35
21.281,13.01
21.296,5.03
21.312,-2.96
21.328,-10.75
21.343,-18.36
21.359,-25.69
21.375,-31.99
21.390,-35.67
21.406,-34.56
21.421,-26.75
21.437,-11.38
21.453,10.78
21.468,37.32
21.484,64.75
21.500,89.42
21.515,108.4
21.531,120.17
21.546,124.84
21.562,123.95
21.578,120.02
21.593,115.85
21.609,113.74
21.625,114.65
21.640,117.76
21.656,120.34
21.671,118.54
21.687,108.59
21.703,88.21
21.718,57.6
21.734,19.49
21.750,-21.75
21.765,-61.43
21.781,-95.84
21.796,-123.02
21.812,-142.65
21.828,-155.53
21.843,-162.91
21.859,-166.04
21.875,-165.98
21.890,-163.69
21.906,-160.05
21.921,-155.78
21.937,-151.37
21.953,-147.1
21.968,-143.09
21.984,-139.59
22.000,-137.16
22.015,-136.68
22.031,-138.93
22.046,-143.95
22.062,-150.51
22.078,-155.95
22.093,-156.75
22.109,-149.74
22.125,-133.38
22.140,-108.43
22.156,-77.78
22.171,-45.4
22.187,-14.91
22.203,11.43
22.218,32.94
22.234,50.11
22.250,63.68
22.265,74.06
22.281,81.16
22.296,84.71
22.312,84.73
22.328,81.73
22.343,76.68
22.359,70.72
22.375,65.14
22.390,61.16
22.406,59.95
22.421,62.4
22.437,68.7
22.453,77.92
22.468,87.82
22.484,95.22
22.500,96.78
22.515,90.05
22.531,74.18
22.546,50.19
22.562,20.61
22.578,-11.25
22.593,-42.04
22.609,-69.05
22.625,-90.52
22.640,-105.83
22.656,-115.42
22.671,-120.6
22.687,-123.16
22.703,-124.84
22.718,-126.82
22.734,-129.2
22.750,-130.87
22.765,-129.73
22.781,-123.45
22.796,-110.37
22.812,-90.25
22.828,-64.59
22.843,-36.08
22.859,-7.9
22.875,17.33
22.890,38.14
22.906,54.32
22.921,66.64
22.937,76.1
22.953,83.36
22.968,88.17
22.984,89.38
23.000,85.26
23.015,74.32
23.031,56.17
23.046,32.09
23.062,5.02
23.078,-21.27
23.093,-43.19
23.109,-58.39
23.125,-66.08
23.140,-66.95
23.156,-62.65
23.171,-55.32
23.187,-47.29
23.203,-40.89
23.218,-38.11
23.234,-40.16
23.250,-47.1
23.265,-57.68
23.281,-69.69
23.296,-80.71
23.312,-88.82
23.328,-93.18
23.343,-94.14
23.359,-92.98
23.375,-91.46
23.390,-91.35
23.406,-93.92
23.421,-99.59
23.437,-107.6
23.453,-116.06
23.468,-122.42
23.484,-124.07
23.500,-119.18
23.515,-107.28
23.531,-89.24
23.546,-66.91
23.562,-42.42
23.578,-17.53
23.593,6.64
23.609,29.52
23.625,50.85
23.640,70.31
23.656,87.43
23.671,101.53
23.687,111.92
23.703,118.01
23.718,119.56
23.734,116.81
23.750,110.53
23.765,102.03
23.781,92.84
23.796,84.38
23.812,77.7
23.828,73.24
23.843,70.95
23.859,70.52
23.875,71.65
23.890,73.95
23.906,76.87
23.921,79.43
23.937,80.24
23.953,77.81
23.968,71.04
23.984,59.7
24.000,44.61
24.015,27.47
24.031,10.19
24.046,-5.66
24.062,-19.35
24.078,-31.01
24.093,-41.32
24.109,-51.14
24.125,-61.02
24.140,-70.98
24.156,-80.43
24.171,-88.25
24.187,-92.96
24.203,-93.07
24.218,-87.35
24.234,-75.22
24.250,-56.97
24.265,-33.72
24.281,-7.22
24.296,20.61
24.312,47.99
24.328,73.57
24.343,96.39
24.359,115.79
24.375,131.34
24.390,142.71
24.406,149.7
24.421,152.34
24.437,150.93
24.453,146.14
24.468,138.98
24.484,130.75
24.500,122.72
24.515,115.78
24.531,110.11
24.546,105.24
24.562,100.32
24.578,94.59
24.593,87.8
24.609,80.3
24.625,72.77
24.640,65.87
24.656,59.83
24.671,54.47
24.687,49.37
24.703,44.16
24.718,38.73
24.734,33.19
24.750,27.72
24.765,22.44
24.781,17.35
24.796,12.36
24.812,7.35
24.828,2.17
24.843,-3.46
24.859,-9.87
24.875,-17.46
24.890,-26.45
24.906,-36.62
24.921,-47.09
24.937,-56.35
24.953,-62.58
24.968,-64.12
24.984,-60.04
25.000,-50.42
25.015,-36.31
25.031,-19.42
25.046,-1.68
25.062,15.09
25.078,29.48
25.093,40.61
25.109,48.13
25.125,52.01
25.140,52.34
25.156,49.11
25.171,42.22
25.187,31.73
25.203,18.17
25.218,2.66
25.234,-13.22
25.250,-27.89
25.265,-40.31
25.281,-50.21
25.296,-57.92
25.312,-64.02
25.328,-68.84
25.343,-72.4
25.359,-74.52
25.375,-75.18
25.390,-74.61
25.406,-73.35
25.421,-72.19
25.437,-72.18
25.453,-74.52
25.468,-80.25
25.484,-89.72
25.500,-102.14
25.515,-115.65
25.531,-127.9
25.546,-137.12
25.562,-142.87
25.578,-146.25
25.593,-149.25
25.609,-153.83
25.625,-160.97
25.640,-170.52
25.656,-181.43
25.671,-192.34
25.687,-201.97
25.703,-209.25
25.718,-213.26
25.734,-213.13
25.750,-208.14
25.765,-198.03
25.781,-183.31
25.796,-165.35
25.812,-146.16
25.828,-127.82
25.843,-111.63
25.859,-97.69
25.875,-84.89
25.890,-71.72
25.906,-57.13
25.921,-41.16
25.937,-24.76
25.953,-9.11
25.968,5.3
25.984,19.14
26.000,33.87
26.015,50.86
26.031,70.47
26.046,91.83
26.062,113.21
26.078,132.89
26.093,149.92
26.109,164.35
26.125,176.95
26.140,188.64
26.156,199.95
26.171,210.69
26.187,220.13
26.203,227.23
26.218,231.14
26.234,231.49
26.250,228.51
26.265,222.93
26.281,215.55
26.296,206.87
26.312,196.71
26.328,184.18
26.343,167.97
26.359,147.08
26.375,121.49
26.390,92.37
26.406,61.62
26.421,31.09
26.437,1.96
26.453,-25.18
26.468,-49.68
26.484,-69.96
26.500,-83.37
26.515,-87.0
26.531,-79.21
26.546,-60.74
26.562,-34.93
26.578,-6.65
26.593,19.5
26.609,40.59
26.625,55.83
26.640,65.96
26.656,72.31
26.671,75.95
26.687,77.61
26.703,77.92
26.718,77.69
26.734,77.85
26.750,79.13
26.765,81.76
26.781,85.3
26.796,88.87
26.812,91.46
26.828,92.38
26.843,91.38
26.859,88.7
26.875,84.85
26.890,80.36
26.906,75.59
26.921,70.57
26.937,65.08
26.953,58.8
26.968,51.58
26.984,43.53
27.000,35.03
27.015,26.6
27.031,18.6
27.046,11.13
27.062,3.98
27.078,-3.28
27.093,-11.03
27.109,-19.49
27.125,-28.51
27.140,-37.51
27.156,-45.49
27.171,-51.29
27.187,-53.81
27.203,-52.37
27.218,-46.96
27.234,-38.15
27.250,-27.0
27.265,-14.68
27.281,-2.17
27.296,9.87
27.312,21.1
27.328,31.31
27.343,40.33
27.359,47.87
27.375,53.61
27.390,57.32
27.406,58.97
27.421,58.84
27.437,57.45
27.453,55.44
27.468,53.33
27.484,51.44
27.500,49.79
27.515,48.27
27.531,46.71
27.546,45.04
27.562,43.27
27.578,41.41
27.593,39.44
27.609,37.18
27.625,34.37
27.640,30.75
27.656,26.24
27.671,20.94
27.687,15.16
27.703,9.33
27.718,3.77
27.734,-1.39
27.750,-6.3
27.765,-11.32
27.781,-16.85
27.796,-23.17
27.812,-30.34
27.828,-38.18
27.843,-46.27
27.859,-54.0
27.875,-60.56
27.890,-65.03
27.906,-66.58
27.921,-64.61
27.937,-59.04
27.953,-50.35
27.968,-39.44
27.984,-27.42
28.000,-15.26
28.015,-3.67
28.031,6.97
28.046,16.46
28.062,24.63
28.078,31.23
28.093,36.04
28.109,38.96
28.125,40.13
28.140,39.92
28.156,38.86
28.171,37.45
28.187,36.02
28.203,34.7
28.218,33.42
28.234,32.06
28.250,30.54
28.265,28.87
28.281,27.09
28.296,25.19
28.312,23.02
28.328,20.3
28.343,16.74
28.359,12.13
28.375,6.55
28.390,0.26
28.406,-6.27
28.421,-12.58
28.437,-18.38
28.453,-23.62
28.468,-28.54
28.484,-33.49
28.500,-38.87
28.515,-44.95
28.531,-51.67
28.546,-58.64
28.562,-65.1
28.578,-70.05
28.593,-72.49
28.609,-71.62
28.625,-67.1
28.640,-59.12
28.656,-48.39
28.671,-35.96
28.687,-22.97
28.703,-10.47
28.718,0.83
28.734,10.54
28.750,18.5
28.765,24.69
28.781,29.08
28.796,31.64
28.812,32.38
28.828,31.48
28.843,29.33
28.859,26.46
28.875,23.5
28.890,20.92
28.906,18.99
28.921,17.71
28.937,16.92
28.953,16.39
28.968,15.91
28.984,15.32
29.000,14.44
29.015,13.06
29.031,10.95
29.046,7.91
29.062,3.86
29.078,-1.04
29.093,-6.46
29.109,-11.95
29.125,-17.13
29.140,-21.84
29.156,-26.27
29.171,-30.83
29.187,-35.99
29.203,-42.04
29.218,-48.91
29.234,-56.04
29.250,-62.45
29.265,-66.94
29.281,-68.4
29.296,-66.15
29.312,-60.13
29.328,-50.91
29.343,-39.49
29.359,-27.03
29.375,-14.56
29.390,-2.85
29.406,7.6
29.421,16.49
29.437,23.64
29.453,28.97
29.468,32.51
29.484,34.46
29.500,35.09
29.515,34.71
29.531,33.67
29.546,32.22
29.562,30.54
29.578,28.76
29.593,26.96
29.609,25.18
29.625,23.5
29.640,21.97
29.656,20.58
29.671,19.17
29.687,17.45
29.703,15.01
29.718,11.53
29.734,6.93
29.750,1.41
29.765,-4.55
29.781,-10.43
29.796,-15.83
29.812,-20.67
29.828,-25.18
29.843,-29.78
29.859,-34.97
29.875,-41.08
29.890,-48.14
29.906,-55.74
29.921,-63.03
29.937,-68.78
29.953,-71.75
29.968,-70.96
29.984,-66.04
30.000,-57.39
30.015,-45.97
30.031,-33.05
30.046,-19.81
30.062,-7.14
30.078,4.48
30.093,14.8
30.109,23.74
30.125,31.23
30.140,37.23
30.156,41.76
30.171,44.89
30.187,46.78
30.203,47.62
30.218,47.67
30.234,47.16
30.250,46.37
30.265,45.51
30.281,44.73
30.296,44.07
30.312,43.5
30.328,42.91
30.343,42.14
30.359,40.99
30.375,39.2
30.390,36.54
30.406,32.78
30.421,27.82
30.437,21.73
30.453,14.72
30.468,7.17
30.484,-0.52
30.500,-8.02
30.515,-15.17
30.531,-22.02
30.546,-28.82
30.562,-35.96
30.578,-43.8
30.593,-52.55
30.609,-62.07
30.625,-71.78
30.640,-80.67
30.656,-87.52
30.671,-91.15
30.687,-90.77
30.703,-86.21
30.718,-77.89
30.734,-66.77
30.750,-53.99
30.765,-40.62
30.781,-27.48
30.796,-15.1
30.812,-3.79
30.828,6.34
30.843,15.16
30.859,22.6
30.875,28.54
30.890,32.88
30.906,35.65
30.921,36.99
30.937,37.19
30.953,36.63
30.968,35.74
30.984,34.85
31.000,34.21
31.015,33.94
31.031,34.08
31.046,34.55
31.062,35.18
31.078,35.74
31.093,35.97
31.109,35.69
31.125,34.81
31.140,33.37
31.156,31.5
31.171,29.41
31.187,27.31
31.203,25.37
31.218,23.72
31.234,22.4
31.250,21.39
31.265,20.56
31.281,19.82
31.296,19.11
31.312,18.49
31.328,18.16
31.343,18.4
31.359,19.45
31.375,21.44
31.390,24.32
31.406,27.83
31.421,31.59
31.437,35.27
31.453,38.53
31.468,41.22
31.484,43.29
31.500,44.72
31.515,45.58
31.531,45.91
31.546,45.85
31.562,45.55
31.578,45.21
31.593,44.95
31.609,44.85
31.625,44.94
31.640,45.18
31.656,45.58
31.671,46.26
31.687,47.31
31.703,48.76
31.718,50.49
31.734,52.15
31.750,53.35
31.765,53.78
31.781,53.31
31.796,52.02
31.812,50.06
31.828,47.52
31.843,44.34
31.859,40.21
31.875,34.76
31.890,27.57
31.906,18.37
31.921,7.13
31.937,-5.92
31.953,-20.24
31.968,-35.08
31.984,-49.6
32.000,-63.07
32.015,-75.07
32.031,-85.64
32.046,-95.21
32.062,-104.49
32.078,-114.2
32.093,-124.84
32.109,-136.41
32.125,-148.31
32.140,-159.25
32.156,-167.52
32.171,-171.37
32.187,-169.58
32.203,-161.89
32.218,-149.11
32.234,-132.84
32.250,-114.93
32.265,-96.98
32.281,-80.13
32.296,-65.27
32.312,-53.28
32.328,-45.08
32.343,-41.38
32.359,-42.21
32.375,-46.52
32.390,-52.39
32.406,-57.53
32.421,-60.06
32.437,-58.98
32.453,-54.34
32.468,-46.91
32.484,-37.84
32.500,-28.45
32.515,-20.07
32.531,-13.91
32.546,-10.76
32.562,-10.59
32.578,-12.45
32.593,-14.61
32.609,-15.26
32.625,-13.25
32.640,-8.7
32.656,-2.91
32.671,2.02
32.687,4.06
32.703,1.95
32.718,-4.47
32.734,-14.32
32.750,-26.11
32.765,-38.32
32.781,-49.83
32.796,-60.24
32.812,-69.69
32.828,-78.6
32.843,-87.14
32.859,-94.91
32.875,-100.96
32.890,-104.06
32.906,-103.28
32.921,-98.3
32.937,-89.58
32.953,-78.05
32.968,-64.71
32.984,-50.34
33.000,-35.42
33.015,-20.25
33.031,-5.26
33.046,8.85
33.062,21.26
33.078,31.21
33.093,38.34
33.109,42.86
33.125,45.42
33.140,46.85
33.156,47.81
33.171,48.63
33.187,49.19
33.203,49.24
33.218,48.58
33.234,47.31
33.250,45.78
33.265,44.46
33.281,43.63
33.296,43.2
33.312,42.77
33.328,41.71
33.343,39.47
33.359,35.7
33.375,30.42
33.390,23.91
33.406,16.64
33.421,9.14
33.437,1.85
33.453,-5.0
33.468,-11.46
33.484,-17.82
33.500,-24.55
33.515,-32.11
33.531,-40.71
33.546,-50.12
33.562,-59.53
33.578,-67.71
33.593,-73.24
33.609,-74.85
33.625,-71.82
33.640,-64.19
33.656,-52.74
33.671,-38.76
33.687,-23.7
33.703,-8.82
33.718,5.0
33.734,17.29
33.750,27.82
33.765,36.53
33.781,43.39
33.796,48.39
33.812,51.6
33.828,53.22
33.843,53.57
33.859,53.11
33.875,52.31
33.890,51.51
33.906,50.9
33.921,50.46
33.937,50.02
33.953,49.41
33.968,48.52
33.984,47.3
34.000,45.76
34.015,43.82
34.031,41.27
34.046,37.83
34.062,33.27
34.078,27.59
34.093,21.05
34.109,14.12
34.125,7.24
34.140,0.67
34.156,-5.65
34.171,-12.11
34.187,-19.2
34.203,-27.33
34.218,-36.6
34.234,-46.63
34.250,-56.52
34.265,-64.99
34.281,-70.57
34.296,-72.02
34.312,-68.69
34.328,-60.71
34.343,-48.98
34.359,-34.94
34.375,-20.08
34.390,-5.56
34.406,7.89
34.421,19.96
34.437,30.52
34.453,39.34
34.468,46.15
34.484,50.7
34.500,53.01
34.515,53.46
34.531,52.73
34.546,51.49
34.562,50.23
34.578,49.03
34.593,47.73
34.609,46.14
34.625,44.26
34.640,42.28
34.656,40.49
34.671,39.01
34.687,37.59
34.703,35.72
34.718,32.74
34.734,28.22
34.750,22.12
34.765,14.82
34.781,6.98
34.796,-0.73
34.812,-7.84
34.828,-14.25
34.843,-20.27
34.859,-26.43
34.875,-33.36
34.890,-41.51
34.906,-50.89
34.921,-60.97
34.937,-70.68
34.953,-78.49
34.968,-82.87
34.984,-82.59
35.000,-77.14
35.015,-66.9
35.031,-53.03
35.046,-37.14
35.062,-20.83
35.078,-5.3
35.093,8.81
35.109,21.34
35.125,32.32
35.140,41.74
35.156,49.4
35.171,55.05
35.187,58.57
35.203,60.1
35.218,60.07
35.234,59.04
35.250,57.57
35.265,56.0
35.281,54.48
35.296,52.94
35.312,51.31
35.328,49.59
35.343,47.83
35.359,46.14
35.375,44.55
35.390,42.89
35.406,40.79
35.421,37.8
35.437,33.5
35.453,27.75
35.468,20.74
35.484,12.97
35.500,5.09
35.515,-2.34
35.531,-9.1
35.546,-15.38
35.562,-21.71
35.578,-28.75
35.593,-37.07
35.609,-46.8
35.625,-57.59
35.640,-68.48
35.656,-78.07
35.671,-84.78
35.687,-87.22
35.703,-84.6
35.718,-76.98
35.734,-65.31
35.750,-51.2
35.765,-36.39
35.781,-22.26
35.796,-9.5
35.812,1.84
35.828,12.07
35.843,21.47
35.859,30.03
35.875,37.43
35.890,43.23
35.906,47.19
35.921,49.42
35.937,50.41
35.953,50.83
35.968,51.29
35.984,52.09
36.000,53.15
36.015,54.12
36.031,54.53
36.046,54.12
36.062,52.85
36.078,50.95
36.093,48.75
36.109,46.42
36.125,43.9
36.140,40.89
36.156,37.03
36.171,32.07
36.187,25.97
36.203,18.99
36.218,11.53
36.234,4.01
36.250,-3.22
36.265,-10.0
36.281,-16.39
36.296,-22.56
36.312,-28.81
36.328,-35.47
36.343,-42.78
36.359,-50.82
36.375,-59.3
36.390,-67.55
36.406,-74.48
36.421,-78.83
36.437,-79.41
36.453,-75.55
36.468,-67.29
36.484,-55.48
36.500,-41.46
36.515,-26.7
36.531,-12.41
36.546,0.67
36.562,12.32
36.578,22.58
36.593,31.56
36.609,39.3
36.625,45.67
36.640,50.53
36.656,53.82
36.671,55.59
36.687,56.13
36.703,55.79
36.718,54.96
36.734,53.87
36.750,52.59
36.765,51.07
36.781,49.21
36.796,47.02
36.812,44.62
36.828,42.2
36.843,39.89
36.859,37.68
36.875,35.37
36.890,32.63
36.906,29.14
36.921,24.73
36.937,19.49
36.953,13.71
36.968,7.72
36.984,1.82
37.000,-3.94
37.015,-9.65
37.031,-15.53
37.046,-21.78
37.062,-28.5
37.078,-35.66
37.093,-43.2
37.109,-51.02
37.125,-58.91
37.140,-66.45
37.156,-72.87
37.171,-77.12
37.187,-78.16
37.203,-75.26
37.218,-68.36
37.234,-58.11
37.250,-45.72
37.265,-32.52
37.281,-19.63
37.296,-7.64
37.312,3.24
37.328,13.02
37.343,21.66
37.359,28.92
37.375,34.49
37.390,38.16
37.406,40.01
37.421,40.41
37.437,39.96
37.453,39.23
37.468,38.56
37.484,38.05
37.500,37.63
37.515,37.13
37.531,36.48
37.546,35.66
37.562,34.65
37.578,33.43
37.593,31.93
37.609,30.0
37.625,27.53
37.640,24.39
37.656,20.49
37.671,15.82
37.687,10.43
37.703,4.48
37.718,-1.72
37.734,-7.83
37.750,-13.57
37.765,-18.81
37.781,-23.63
37.796,-28.31
37.812,-33.2
37.828,-38.57
37.843,-44.56
37.859,-51.05
37.875,-57.61
37.890,-63.54
37.906,-67.9
37.921,-69.76
37.937,-68.38
37.953,-63.51
37.968,-55.45
37.984,-44.99
38.000,-33.19
38.015,-21.06
38.031,-9.38
38.046,1.4
38.062,11.05
38.078,19.44
38.093,26.43
38.109,31.9
38.125,35.76
38.140,38.07
38.156,39.03
38.171,38.99
38.187,38.37
38.203,37.59
38.218,36.93
38.234,36.52
38.250,36.3
38.265,36.01
38.281,35.37
38.296,34.15
38.312,32.3
38.328,29.96
38.343,27.4
38.359,24.87
38.375,22.4
38.390,19.86
38.406,16.94
38.421,13.41
38.437,9.22
38.453,4.55
38.468,-0.32
38.484,-5.12
38.500,-9.75
38.515,-14.3
38.531,-18.97
38.546,-23.91
38.562,-29.21
38.578,-34.9
38.593,-41.05
38.609,-47.68
38.625,-54.72
38.640,-61.8
38.656,-68.16
38.671,-72.72
38.687,-74.38
38.703,-72.35
38.718,-66.47
38.734,-57.27
38.750,-45.77
38.765,-33.22
38.781,-20.74
38.796,-9.07
38.812,1.43
38.828,10.67
38.843,18.68
38.859,25.45
38.875,30.88
38.890,34.91
38.906,37.51
38.921,38.83
38.937,39.16
38.953,38.9
38.968,38.37
38.984,37.8
39.000,37.29
39.015,36.85
39.031,36.45
39.046,36.09
39.062,35.73
39.078,35.3
39.093,34.63
39.109,33.53
39.125,31.76
39.140,29.16
39.156,25.7
39.171,21.51
39.187,16.85
39.203,12.11
39.218,7.55
39.234,3.34
39.250,-0.6
39.265,-4.45
39.281,-8.39
39.296,-12.51
39.312,-16.77
39.328,-21.02
39.343,-25.15
39.359,-29.22
39.375,-33.45
39.390,-38.17
39.406,-43.62
39.421,-49.84
39.437,-56.49
39.453,-62.89
39.468,-68.02
39.484,-70.83
39.500,-70.37
39.515,-66.22
39.531,-58.55
39.546,-48.15
39.562,-36.19
39.578,-23.89
39.593,-12.24
39.609,-1.74
39.625,7.47
39.640,15.45
39.656,22.3
39.671,27.96
39.687,32.34
39.703,35.37
39.718,37.16
39.734,37.99
39.750,38.23
39.765,38.18
39.781,37.98
39.796,37.62
39.812,36.99
39.828,36.02
39.843,34.77
39.859,33.45
39.875,32.31
39.890,31.53
39.906,31.08
39.921,30.66
39.937,29.86
39.953,28.31
39.968,25.91
39.984,22.78
40.000,19.3
40.015,15.82
40.031,12.5
40.046,9.28
40.062,5.89
40.078,2.06
40.093,-2.24
40.109,-6.87
40.125,-11.5
40.140,-15.82
40.156,-19.69
40.171,-23.21
40.187,-26.61
40.203,-30.22
40.218,-34.28
40.234,-38.93
40.250,-44.21
40.265,-50.07
40.281,-56.24
40.296,-62.22
40.312,-67.16
40.328,-70.02
40.343,-69.79
40.359,-65.89
40.375,-58.41
40.390,-48.16
40.406,-36.41
40.421,-24.49
40.437,-13.44
40.453,-3.75
40.468,4.56
40.484,11.73
40.500,17.99
40.515,23.41
40.531,27.87
40.546,31.15
40.562,33.15
40.578,33.99
40.593,34.05
40.609,33.78
40.625,33.6
40.640,33.68
40.656,34.01
40.671,34.41
40.687,34.72
40.703,34.89
40.718,34.95
40.734,34.95
40.750,34.86
40.765,34.48
40.781,33.56
40.796,31.86
40.812,29.31
40.828,25.99
40.843,22.15
40.859,18.14
40.875,14.29
40.890,10.79
40.906,7.69
40.921,4.87
40.937,2.06
40.953,-0.99
40.968,-4.45
40.984,-8.35
41.000,-12.52
41.015,-16.73
41.031,-20.75
41.046,-24.51
41.062,-28.12
41.078,-31.79
41.093,-35.85
41.109,-40.57
41.125,-46.08
41.140,-52.22
41.156,-58.46
41.171,-63.94
41.187,-67.58
41.203,-68.4
41.218,-65.77
41.234,-59.67
41.250,-50.64
41.265,-39.7
41.281,-27.95
41.296,-16.45
41.312,-5.92
41.328,3.22
41.343,10.79
41.359,16.86
41.375,21.58
41.390,25.24
41.406,28.12
41.421,30.42
41.437,32.22
41.453,33.47
41.468,34.14
41.484,34.26
41.500,34.0
41.515,33.58
41.531,33.23
41.546,33.08
41.562,33.1
41.578,33.17
41.593,33.12
41.609,32.85
41.625,32.24
41.640,31.22
41.656,29.69
41.671,27.57
41.687,24.84
41.703,21.59
41.718,18.05
41.734,14.51
41.750,11.23
41.765,8.32
41.781,5.69
41.796,3.12
41.812,0.32
41.828,-2.89
41.843,-6.56
41.859,-10.57
41.875,-14.71
41.890,-18.76
41.906,-22.62
41.921,-26.32
41.937,-30.08
41.953,-34.26
41.968,-39.16
41.984,-44.88
42.000,-51.1
42.015,-57.12
42.031,-61.87
42.046,-64.27
42.062,-63.55
42.078,-59.41
42.093,-52.18
42.109,-42.62
42.125,-31.74
42.140,-20.49
42.156,-9.67
42.171,0.17
42.187,8.69
42.203,15.74
42.218,21.3
42.234,25.45
42.250,28.34
42.265,30.12
42.281,31.03
42.296,31.3
42.312,31.2
42.328,30.99
42.343,30.91
42.359,31.07
42.375,31.48
42.390,32.0
42.406,32.43
42.421,32.67
42.437,32.69
42.453,32.53
42.468,32.24
42.484,31.72
42.500,30.78
42.515,29.18
42.531,26.77
42.546,23.65
42.562,20.07
42.578,16.4
42.593,12.91
42.609,9.7
42.625,6.63
42.640,3.49
42.656,0.06
42.671,-3.72
42.687,-7.75
42.703,-11.79
42.718,-15.63
42.734,-19.14
42.750,-22.4
42.765,-25.63
42.781,-29.17
42.796,-33.31
42.812,-38.17
42.828,-43.59
42.843,-49.06
42.859,-53.8
42.875,-56.9
42.890,-57.45
42.906,-54.9
42.921,-49.15
42.937,-40.68
42.953,-30.41
42.968,-19.44
42.984,-8.76
43.000,0.95
43.015,9.39
43.031,16.46
43.046,22.16
43.062,26.44
43.078,29.25
43.093,30.64
43.109,30.88
43.125,30.4
43.140,29.72
43.156,29.26
43.171,29.22
43.187,29.59
43.203,30.16
43.218,30.75
43.234,31.16
43.250,31.35
43.265,31.31
43.281,31.05
43.296,30.54
43.312,29.65
43.328,28.22
43.343,26.13
43.359,23.41
43.375,20.24
43.390,16.91
43.406,13.67
43.421,10.65
43.437,7.77
43.453,4.8
43.468,1.56
43.484,-2.03
43.500,-5.84
43.515,-9.66
43.531,-13.26
43.546,-16.58
43.562,-19.7
43.578,-22.84
43.593,-26.32
43.609,-30.38
43.625,-35.12
43.640,-40.35
43.656,-45.56
43.671,-49.97
43.687,-52.69
43.703,-52.9
43.718,-50.11
43.734,-44.34
43.750,-36.16
43.765,-26.48
43.781,-16.36
43.796,-6.68
43.812,1.93
43.828,9.2
43.843,15.09
43.859,19.65
43.875,22.99
43.890,25.21
43.906,26.42
43.921,26.75
43.937,26.44
43.953,25.72
43.968,24.87
43.984,24.12
44.000,23.62
44.015,23.4
44.031,23.4
44.046,23.42
44.062,23.28
44.078,22.87
44.093,22.17
44.109,21.24
44.125,20.16
44.140,18.92
44.156,17.4
44.171,15.44
44.187,12.9
44.203,9.74
44.218,6.08
44.234,2.18
44.250,-1.67
44.265,-5.24
44.281,-8.43
44.296,-11.31
44.312,-14.06
44.328,-16.9
44.343,-20.01
44.359,-23.53
44.375,-27.5
44.390,-31.83
44.406,-36.23
44.421,-40.21
44.437,-43.06
44.453,-44.03
44.468,-42.49
44.484,-38.19
44.500,-31.41
44.515,-22.87
44.531,-13.58
44.546,-4.53
44.562,3.54
44.578,10.26
44.593,15.54
44.609,19.5
44.625,22.25
44.640,23.9
44.656,24.53
44.671,24.27
44.687,23.4
44.703,22.29
44.718,21.31
44.734,20.73
44.750,20.58
44.765,20.67
44.781,20.68
44.796,20.31
44.812,19.4
44.828,18.01
44.843,16.33
44.859,14.59
44.875,12.97
44.890,11.44
44.906,9.87
44.921,7.99
44.937,5.62
44.953,2.72
44.968,-0.57
44.984,-3.96
45.000,-7.13
45.015,-9.87
45.031,-12.19
45.046,-14.25
45.062,-16.36
45.078,-18.84
45.093,-21.93
45.109,-25.72
45.125,-30.08
45.140,-34.66
45.156,-38.8
45.171,-41.69
45.187,-42.48
45.203,-40.54
45.218,-35.74
45.234,-28.5
45.250,-19.72
45.265,-10.46
45.281,-1.7
45.296,5.92
45.312,12.17
45.328,17.03
45.343,20.65
45.359,23.19
45.375,24.75
45.390,25.47
45.406,25.52
45.421,25.15
45.437,24.61
45.453,24.11
45.468,23.78
45.484,23.63
45.500,23.6
45.515,23.58
45.531,23.51
45.546,23.29
45.562,22.9
45.578,22.32
45.593,21.52
45.609,20.47
45.625,19.11
45.640,17.35
45.656,15.09
45.671,12.25
45.687,8.83
45.703,4.98
45.718,0.93
45.734,-3.01
45.750,-6.6
45.765,-9.7
45.781,-12.38
45.796,-14.83
45.812,-17.37
45.828,-20.29
45.843,-23.79
45.859,-27.96
45.875,-32.68
45.890,-37.61
45.906,-42.16
45.921,-45.5
45.937,-46.78
45.953,-45.36
45.968,-40.99
45.984,-33.97
46.000,-25.07
46.015,-15.33
46.031,-5.76
46.046,2.88
46.062,10.21
46.078,16.15
46.093,20.83
46.109,24.46
46.125,27.19
46.140,29.13
46.156,30.31
46.171,30.81
46.187,30.71
46.203,30.19
46.218,29.41
46.234,28.54
46.250,27.7
46.265,26.93
46.281,26.27
46.296,25.75
46.312,25.36
46.328,25.04
46.343,24.65
46.359,23.97
46.375,22.8
46.390,21.01
46.406,18.64
46.421,15.91
46.437,13.06
46.453,10.28
46.468,7.61
46.484,4.98
46.500,2.23
46.515,-0.7
46.531,-3.8
46.546,-6.93
46.562,-9.95
46.578,-12.79
46.593,-15.51
46.609,-18.29
46.625,-21.42
46.640,-25.09
46.656,-29.31
46.671,-33.83
46.687,-38.07
46.703,-41.28
46.718,-42.73
46.734,-41.88
46.750,-38.52
46.765,-32.87
46.781,-25.47
46.796,-17.06
46.812,-8.39
46.828,-0.14
46.843,7.2
46.859,13.35
46.875,18.25
46.890,22.03
46.906,24.89
46.921,27.03
46.937,28.53
46.953,29.41
46.968,29.67
46.984,29.35
47.000,28.66
47.015,27.88
47.031,27.24
47.046,26.81
47.062,26.5
47.078,26.13
47.093,25.52
47.109,24.63
47.125,23.51
47.140,22.23
47.156,20.83
47.171,19.29
47.187,17.57
47.203,15.66
47.218,13.64
47.234,11.63
47.250,9.73
47.265,7.9
47.281,6.03
47.296,3.95
47.312,1.53
47.328,-1.25
47.343,-4.26
47.359,-7.3
47.375,-10.2
47.390,-12.85
47.406,-15.36
47.421,-17.93
47.437,-20.85
47.453,-24.25
47.468,-28.07
47.484,-31.94
47.500,-35.24
47.515,-37.28
47.531,-37.4
47.546,-35.22
47.562,-30.73
47.578,-24.3
47.593,-16.63
47.609,-8.6
47.625,-1.01
47.640,5.53
47.656,10.78
47.671,14.81
47.687,17.9
47.703,20.35
47.718,22.38
47.734,24.02
47.750,25.23
47.765,25.88
47.781,26.02
47.796,25.76
47.812,25.31
47.828,24.88
47.843,24.59
47.859,24.41
47.875,24.26
47.890,24.05
47.906,23.74
47.921,23.38
47.937,23.01
47.953,22.59
47.968,21.96
47.984,20.94
48.000,19.33
48.015,17.11
48.031,14.44
48.046,11.62
48.062,8.96
48.078,6.62
48.093,4.58
48.109,2.65
48.125,0.59
48.140,-1.74
48.156,-4.34
48.171,-7.02
48.187,-9.63
48.203,-12.02
48.218,-14.18
48.234,-16.2
48.250,-18.23
48.265,-20.45
48.281,-22.96
48.296,-25.76
48.312,-28.72
48.328,-31.51
48.343,-33.58
48.359,-34.3
48.375,-33.18
48.390,-29.96
48.406,-24.85
48.421,-18.4
48.437,-11.4
48.453,-4.64
48.468,1.3
48.484,6.17
48.500,9.98
48.515,12.97
48.531,15.36
48.546,17.27
48.562,18.67
48.578,19.47
48.593,19.63
48.609,19.19
48.625,18.35
48.640,17.32
48.656,16.31
48.671,15.49
48.687,14.9
48.703,14.59
48.718,14.55
48.734,14.75
48.750,15.07
48.765,15.31
48.781,15.24
48.796,14.7
48.812,13.6
48.828,12.04
48.843,10.18
48.859,8.21
48.875,6.26
48.890,4.37
48.906,2.55
48.921,0.75
48.937,-1.04
48.953,-2.82
48.968,-4.59
48.984,-6.31
49.000,-7.97
49.015,-9.54
49.031,-11.05
49.046,-12.53
49.062,-14.05
49.078,-15.7
49.093,-17.5
49.109,-19.44
49.125,-21.34
49.140,-22.88
49.156,-23.59
49.171,-22.98
49.187,-20.71
49.203,-16.65
49.218,-11.04
49.234,-4.39
49.250,2.6
49.265,9.31
49.281,15.3
49.296,20.38
49.312,24.53
49.328,27.81
49.343,30.24
49.359,31.79
49.375,32.51
49.390,32.5
49.406,32.01
49.421,31.29
49.437,30.52
49.453,29.77
49.468,28.96
49.484,28.02
49.500,26.89
49.515,25.66
49.531,24.37
49.546,23.08
49.562,21.74
49.578,20.32
49.593,18.75
49.609,17.05
49.625,15.27
49.640,13.41
49.656,11.42
49.671,9.17
49.687,6.54
49.703,3.52
49.718,0.24
49.734,-3.03
49.750,-6.06
49.765,-8.71
49.781,-10.98
49.796,-13.0
49.812,-14.95
49.828,-17.03
49.843,-19.4
49.859,-22.23
49.875,-25.59
49.890,-29.37
49.906,-33.25
49.921,-36.63
49.937,-38.76
49.953,-39.02
49.968,-37.09
49.984,-33.08
50.000,-27.46
50.015,-20.89
50.031,-14.02
50.046,-7.34
50.062,-1.16
50.078,4.34
50.093,9.0
50.109,12.73
50.125,15.5
50.140,17.28
50.156,18.19
50.171,18.32
50.187,17.78
50.203,16.67
50.218,15.14
50.234,13.39
50.250,11.71
50.265,10.34
50.281,9.5
50.296,9.26
50.312,9.5
50.328,10.0
50.343,10.42
50.359,10.47
50.375,9.94
50.390,8.81
50.406,7.21
50.421,5.33
50.437,3.37
50.453,1.36
50.468,-0.71
50.484,-2.98
50.500,-5.49
50.515,-8.25
50.531,-11.11
50.546,-13.91
50.562,-16.46
50.578,-18.67
50.593,-20.56
50.609,-22.2
50.625,-23.71
50.640,-25.26
50.656,-27.04
50.671,-29.23
50.687,-31.85
50.703,-34.76
50.718,-37.57
50.734,-39.72
50.750,-40.6
50.765,-39.72
50.781,-36.83
50.796,-32.04
50.812,-25.78
50.828,-18.72
50.843,-11.57
50.859,-4.93
50.875,0.88
50.890,5.73
50.906,9.74
50.921,13.02
50.937,15.63
50.953,17.57
50.968,18.79
50.984,19.29
51.000,19.17
51.015,18.64
51.031,17.88
51.046,17.03
51.062,16.13
51.078,15.2
51.093,14.29
51.109,13.48
51.125,12.86
51.140,12.43
51.156,12.12
51.171,11.77
51.187,11.22
51.203,10.41
51.218,9.33
51.234,8.07
51.250,6.67
51.265,5.14
51.281,3.48
51.296,1.62
51.312,-0.45
51.328,-2.68
51.343,-5.01
51.359,-7.38
51.375,-9.74
51.390,-12.06
51.406,-14.28
51.421,-16.37
51.437,-18.33
51.453,-20.23
51.468,-22.22
51.484,-24.51
51.500,-27.26
51.515,-30.42
51.531,-33.67
51.546,-36.4
51.562,-37.9
51.578,-37.53
51.593,-34.98
51.609,-30.37
51.625,-24.23
51.640,-17.34
51.656,-10.47
51.671,-4.23
51.687,1.08
51.703,5.45
51.718,8.99
51.734,11.87
51.750,14.19
51.765,16.03
51.781,17.43
51.796,18.46
51.812,19.2
51.828,19.7
51.843,20.02
51.859,20.18
51.875,20.18
51.890,20.05
51.906,19.86
51.921,19.71
51.937,19.63
51.953,19.61
51.968,19.58
51.984,19.46
52.000,19.16
52.015,18.64
52.031,17.9
52.046,16.93
52.062,15.75
52.078,14.37
52.093,12.81
52.109,11.12
52.125,9.37
52.140,7.67
52.156,6.06
52.171,4.57
52.187,3.14
52.203,1.69
52.218,0.12
52.234,-1.62
52.250,-3.51
52.265,-5.52
52.281,-7.62
52.296,-9.87
52.312,-12.35
52.328,-15.13
52.343,-18.12
52.359,-21.0
52.375,-23.21
52.390,-24.15
52.406,-23.3
52.421,-20.44
52.437,-15.76
52.453,-9.79
52.468,-3.25
52.484,3.16
52.500,8.95
52.515,13.9
52.531,18.0
52.546,21.27
52.562,23.72
52.578,25.25
52.593,25.79
52.609,25.36
52.625,24.2
52.640,22.68
52.656,21.13
52.671,19.8
52.687,18.75
52.703,17.95
52.718,17.37
52.734,16.97
52.750,16.76
52.765,16.69
52.781,16.6
52.796,16.31
52.812,15.65
52.828,14.59
52.843,13.2
52.859,11.58
52.875,9.81
52.890,7.89
52.906,5.77
52.921,3.42
52.937,0.89
52.953,-1.72
52.968,-4.27
52.984,-6.66
53.000,-8.87
53.015,-10.9
53.031,-12.79
53.046,-14.62
53.062,-16.53
53.078,-18.63
53.093,-21.03
53.109,-23.68
53.125,-26.33
53.140,-28.55
53.156,-29.76
53.171,-29.42
53.187,-27.19
53.203,-23.02
53.218,-17.24
53.234,-10.5
53.250,-3.52
53.265,3.02
53.281,8.66
53.296,13.2
53.312,16.58
53.328,18.79
53.343,19.89
53.359,19.9
53.375,18.96
53.390,17.32
53.406,15.32
53.421,13.29
53.437,11.44
53.453,9.87
53.468,8.55
53.484,7.49
53.500,6.67
53.515,6.12
53.531,5.85
53.546,5.77
53.562,5.76
53.578,5.7
53.593,5.48
53.609,5.01
53.625,4.22
53.640,2.96
53.656,1.17
53.671,-1.19
53.687,-4.0
53.703,-7.0
53.718,-9.88
53.734,-12.37
53.750,-14.34
53.765,-15.76
53.781,-16.81
53.796,-17.75
53.812,-18.87
53.828,-20.4
53.843,-22.33
53.859,-24.39
53.875,-26.01
53.890,-26.44
53.906,-24.96
53.921,-21.18
53.937,-15.12
53.953,-7.27
53.968,1.58
53.984,10.68
54.000,19.49
54.015,27.81
54.031,35.79
54.046,43.76
54.062,52.11
54.078,61.12
54.093,70.88
54.109,81.23
54.125,91.73
54.140,101.68
54.156,110.24
54.171,116.7
54.187,120.89
54.203,123.42
54.218,125.74
54.234,129.56
54.250,136.09
54.265,145.32
54.281,155.94
54.296,165.86
54.312,173.31
54.328,177.76
54.343,180.29
54.359,183.03
54.375,188.16
54.390,196.95
54.406,209.37
54.421,224.37
54.437,240.41
54.453,255.97
54.468,269.55
54.484,279.54
54.500,284.15
54.515,281.78
54.531,271.64
54.546,254.29
54.562,231.71
54.578,206.8
54.593,182.52
54.609,161.1
54.625,143.63
54.640,130.21
54.656,120.33
54.671,113.33
54.687,108.57
54.703,105.48
54.718,103.42
54.734,101.71
54.750,99.71
54.765,96.95
54.781,93.29
54.796,88.84
54.812,83.87
54.828,78.51
54.843,72.61
54.859,65.71
54.875,57.24
54.890,46.76
54.906,34.28
54.921,20.4
54.937,6.06
54.953,-7.69
54.968,-20.26
54.984,-31.79
55.000,-43.13
55.015,-55.54
55.031,-70.03
55.046,-86.94
55.062,-105.62
55.078,-124.75
55.093,-142.83
55.109,-158.85
55.125,-172.77
55.140,-185.5
55.156,-198.57
55.171,-213.65
55.187,-232.01
55.203,-254.07
55.218,-279.07
55.234,-304.91
55.250,-328.35
55.265,-345.78
55.281,-354.4
55.296,-353.54
55.312,-345.45
55.328,-335.04
55.343,-328.5
55.359,-331.2
55.375,-345.64
55.390,-370.39
55.406,-400.5
55.421,-429.24
55.437,-450.42
55.453,-460.26
55.468,-458.07
55.484,-445.68
55.500,-426.11
55.515,-402.22
55.531,-375.99
55.546,-348.56
55.562,-320.66
55.578,-293.03
55.593,-266.23
55.609,-240.11
55.625,-213.29
55.640,-183.35
55.656,-147.78
55.671,-105.43
55.687,-57.48
55.703,-7.45
55.718,39.78
55.734,79.69
55.750,109.6
55.765,129.41
55.781,141.23
55.796,148.15
55.812,152.93
55.828,157.08
55.843,160.73
55.859,163.16
55.875,163.45
55.890,161.05
55.906,155.82
55.921,147.91
55.937,137.54
55.953,124.87
55.968,109.97
55.984,92.79
56.000,73.22
56.015,51.16
56.031,26.74
56.046,0.6
56.062,-25.9
56.078,-50.73
56.093,-71.66
56.109,-86.75
56.125,-94.86
56.140,-95.85
56.156,-90.51
56.171,-80.4
56.187,-67.58
56.203,-54.23
56.218,-42.21
56.234,-32.67
56.250,-25.78
56.265,-20.89
56.281,-17.01
56.296,-13.41
56.312,-9.93
56.328,-6.91
56.343,-4.69
56.359,-3.29
56.375,-2.22
56.390,-0.86
56.406,1.14
56.421,3.56
56.437,5.8
56.453,7.26
56.468,7.74
56.484,7.49
56.500,7.19
56.515,7.59
56.531,9.24
56.546,12.27
56.562,16.38
56.578,21.1
56.593,25.95
56.609,30.65
56.625,35.09
56.640,39.23
56.656,42.87
56.671,45.52
56.687,46.51
56.703,45.2
56.718,41.33
56.734,35.26
56.750,27.87
56.765,20.23
56.781,13.21
56.796,7.12
56.812,1.66
56.828,-3.84
56.843,-10.07
56.859,-17.36
56.875,-25.57
56.890,-34.0
56.906,-41.62
56.921,-47.2
56.937,-49.54
56.953,-47.79
56.968,-41.62
56.984,-31.47
57.000,-18.44
57.015,-4.12
57.031,9.77
57.046,21.81
57.062,31.07
57.078,37.24
57.093,40.58
57.109,41.7
57.125,41.29
57.140,39.85
57.156,37.55
57.171,34.07
57.187,28.87
57.203,21.44
57.218,11.78
57.234,0.44
57.250,-11.51
57.265,-22.87
57.281,-32.72
57.296,-40.68
57.312,-46.86
57.328,-51.62
57.343,-55.32
57.359,-58.15
57.375,-60.18
57.390,-61.51
57.406,-62.31
57.421,-62.8
57.437,-63.1
57.453,-63.14
57.468,-62.75
57.484,-61.91
57.500,-60.84
57.515,-60.15
57.531,-60.64
57.546,-63.01
57.562,-67.48
57.578,-73.61
57.593,-80.27
57.609,-85.86
57.625,-88.74
57.640,-87.66
57.656,-82.07
57.671,-72.3
57.687,-59.34
57.703,-44.65
57.718,-29.68
57.734,-15.6
57.750,-3.13
57.765,7.44
57.781,16.08
57.796,22.89
57.812,27.99
57.828,31.54
57.843,33.74
57.859,34.9
57.875,35.36
57.890,35.43
57.906,35.39
57.921,35.43
57.937,35.71
57.953,36.31
57.968,37.3
57.984,38.58
58.000,40.0
58.015,41.29
58.031,42.16
58.046,42.36
58.062,41.66
58.078,39.89
58.093,36.99
58.109,32.94
58.125,27.73
58.140,21.22
58.156,13.23
58.171,3.4
58.187,-8.52
58.203,-22.48
58.218,-37.9
58.234,-53.6
58.250,-67.95
58.265,-79.22
58.281,-86.03
58.296,-87.63
58.312,-84.09
58.328,-76.21
58.343,-65.23
58.359,-52.58
58.375,-39.49
58.390,-26.85
58.406,-15.15
58.421,-4.57
58.437,4.85
58.453,13.09
58.468,20.07
58.484,25.64
58.500,29.68
58.515,32.18
58.531,33.28
58.546,33.3
58.562,32.67
58.578,31.85
58.593,31.25
58.609,31.13
58.625,31.47
58.640,31.95
58.656,31.96
58.671,30.75
58.687,27.66
58.703,22.36
58.718,14.95
58.734,5.9
58.750,-4.02
58.765,-13.96
58.781,-23.26
58.796,-31.59
58.812,-39.05
58.828,-46.1
58.843,-53.33
58.859,-61.13
58.875,-69.29
58.890,-76.96
58.906,-82.69
58.921,-84.85
58.937,-82.19
58.953,-74.25
58.968,-61.54
58.984,-45.42
59.000,-27.65
59.015,-9.99
59.031,6.17
59.046,20.04
59.062,31.4
59.078,40.45
59.093,47.59
59.109,53.23
59.125,57.61
59.140,60.79
59.156,62.74
59.171,63.51
59.187,63.22
59.203,62.17
59.218,60.67
59.234,59.06
59.250,57.53
59.265,56.18
59.281,54.96
59.296,53.68
59.312,52.06
59.328,49.8
59.343,46.67
59.359,42.59
59.375,37.69
59.390,32.27
59.406,26.65
59.421,21.15
59.437,15.93
59.453,11.03
59.468,6.28
59.484,1.36
59.500,-4.19
59.515,-10.86
59.531,-18.84
59.546,-27.85
59.562,-36.83
59.578,-44.12
59.593,-47.87
59.609,-46.57
59.625,-39.65
59.640,-27.62
59.656,-11.94
59.671,5.5
59.687,22.98
59.703,39.35
59.718,54.16
59.734,67.48
59.750,79.6
59.765,90.63
59.781,100.38
59.796,108.42
59.812,114.34
59.828,118.0
59.843,119.67
59.859,120.01
59.875,119.8
59.890,119.6
59.906,119.63
59.921,119.74
59.937,119.58
59.953,118.85
59.968,117.46
59.984,115.51
