timestamp,value
00.000,50.82
00.015,52.28
00.031,53.95
00.046,55.71
00.062,57.26
00.078,58.29
00.093,58.62
00.109,58.39
00.125,58.05
00.140,58.12
00.156,58.95
00.171,60.49
00.187,62.3
00.203,63.77
00.218,64.35
00.234,63.76
00.250,62.09
00.265,59.66
00.281,56.9
00.296,54.22
00.312,51.84
00.328,49.83
00.343,48.01
00.359,46.09
00.375,43.73
00.390,40.82
00.406,37.47
00.421,34.04
00.437,31.0
00.453,28.72
00.468,27.3
00.484,26.58
00.500,26.15
00.515,25.51
00.531,24.2
00.546,21.89
00.562,18.45
00.578,14.24
00.593,10.09
00.609,7.17
00.625,6.34
00.640,7.63
00.656,9.88
00.671,11.06
00.687,9.22
00.703,3.43
00.718,-5.56
00.734,-15.55
00.750,-23.84
00.765,-28.31
00.781,-28.23
00.796,-24.25
00.812,-17.96
00.828,-10.99
00.843,-4.6
00.859,0.52
00.875,3.94
00.890,5.27
00.906,4.14
00.921,0.26
00.937,-6.2
00.953,-14.6
00.968,-23.88
00.984,-32.97
01.000,-41.13
01.015,-48.21
01.031,-54.64
01.046,-61.1
01.062,-68.2
01.078,-76.16
01.093,-84.71
01.109,-93.11
01.125,-100.43
01.140,-105.74
01.156,-108.45
01.171,-108.44
01.187,-106.11
01.203,-102.25
01.218,-97.71
01.234,-93.09
01.250,-88.63
01.265,-84.19
01.281,-79.41
01.296,-73.86
01.312,-67.2
01.328,-59.13
01.343,-49.61
01.359,-38.86
01.375,-27.45
01.390,-16.13
01.406,-5.59
01.421,3.74
01.437,11.82
01.453,18.86
01.468,25.1
01.484,30.57
01.500,35.1
01.515,38.43
01.531,40.43
01.546,41.14
01.562,40.81
01.578,39.74
01.593,38.2
01.609,36.44
01.625,34.63
01.640,32.86
01.656,31.09
01.671,29.07
01.687,26.54
01.703,23.37
01.718,19.76
01.734,16.27
01.750,13.64
01.765,12.43
01.781,12.8
01.796,14.44
01.812,16.67
01.828,18.82
01.843,20.46
01.859,21.55
01.875,22.44
01.890,23.7
01.906,25.94
01.921,29.66
01.937,35.17
01.953,42.55
01.968,51.68
01.984,62.22
02.000,73.69
02.015,85.51
02.031,96.99
02.046,107.42
02.062,116.17
02.078,122.82
02.093,127.16
02.109,129.2
02.125,128.89
02.140,126.13
02.156,120.72
02.171,112.56
02.187,101.87
02.203,89.35
02.218,76.12
02.234,63.44
02.250,52.32
02.265,43.23
02.281,36.03
02.296,30.11
02.312,24.68
02.328,19.09
02.343,13.03
02.359,6.62
02.375,0.3
02.390,-5.37
02.406,-10.07
02.421,-13.83
02.437,-17.1
02.453,-20.61
02.468,-25.08
02.484,-30.82
02.500,-37.7
02.515,-45.06
02.531,-51.93
02.546,-57.29
02.562,-60.26
02.578,-60.22
02.593,-56.85
02.609,-50.14
02.625,-40.48
02.640,-28.68
02.656,-15.96
02.671,-3.73
02.687,6.65
02.703,14.25
02.718,18.71
02.734,20.13
02.750,18.85
02.765,15.08
02.781,8.87
02.796,0.18
02.812,-10.75
02.828,-23.2
02.843,-35.89
02.859,-47.27
02.875,-55.97
02.890,-61.12
02.906,-62.58
02.921,-60.8
02.937,-56.53
02.953,-50.55
02.968,-43.47
02.984,-35.79
03.000,-27.9
03.015,-20.22
03.031,-13.23
03.046,-7.44
03.062,-3.34
03.078,-1.34
03.093,-1.76
03.109,-4.78
03.125,-10.44
03.140,-18.62
03.156,-29.05
03.171,-41.29
03.187,-54.78
03.203,-68.84
03.218,-82.69
03.234,-95.51
03.250,-106.53
03.265,-115.11
03.281,-120.7
03.296,-122.89
03.312,-121.4
03.328,-116.12
03.343,-107.23
03.359,-95.22
03.375,-80.92
03.390,-65.34
03.406,-49.47
03.421,-34.17
03.437,-19.98
03.453,-7.19
03.468,4.15
03.484,14.14
03.500,23.03
03.515,31.17
03.531,38.89
03.546,46.49
03.562,54.03
03.578,61.31
03.593,67.77
03.609,72.57
03.625,74.57
03.640,72.57
03.656,65.52
03.671,52.94
03.687,35.28
03.703,14.09
03.718,-8.19
03.734,-28.84
03.750,-45.62
03.765,-57.51
03.781,-64.84
03.796,-69.09
03.812,-72.1
03.828,-75.3
03.843,-79.23
03.859,-83.63
03.875,-87.85
03.890,-91.4
03.906,-94.21
03.921,-96.39
03.937,-97.88
03.953,-98.09
03.968,-95.93
03.984,-90.28
04.000,-80.56
04.015,-67.07
04.031,-51.03
04.046,-34.11
04.062,-17.89
04.078,-3.43
04.093,8.91
04.109,19.27
04.125,27.99
04.140,35.26
04.156,40.93
04.171,44.61
04.187,45.8
04.203,44.21
04.218,39.94
04.234,33.68
04.250,26.64
04.265,20.22
04.281,15.75
04.296,14.13
04.312,15.8
04.328,20.76
04.343,28.8
04.359,39.56
04.375,52.51
04.390,66.77
04.406,80.97
04.421,93.41
04.437,102.37
04.453,106.63
04.468,105.8
04.484,100.49
04.500,92.06
04.515,82.21
04.531,72.42
04.546,63.6
04.562,56.09
04.578,49.73
04.593,44.23
04.609,39.37
04.625,35.17
04.640,31.82
04.656,29.49
04.671,28.25
04.687,28.05
04.703,28.85
04.718,30.72
04.734,33.96
04.750,38.83
04.765,45.42
04.781,53.41
04.796,62.2
04.812,71.16
04.828,79.9
04.843,88.36
04.859,96.54
04.875,104.2
04.890,110.54
04.906,114.37
04.921,114.48
04.937,110.12
04.953,101.42
04.968,89.33
04.984,75.37
05.000,61.11
05.015,47.9
05.031,36.67
05.046,27.89
05.062,21.72
05.078,18.04
05.093,16.53
05.109,16.66
05.125,17.76
05.140,19.01
05.156,19.6
05.171,18.94
05.187,16.82
05.203,13.49
05.218,9.57
05.234,5.91
05.250,3.26
05.265,2.17
05.281,2.89
05.296,5.4
05.312,9.5
05.328,14.77
05.343,20.65
05.359,26.5
05.375,31.7
05.390,35.81
05.406,38.62
05.421,40.13
05.437,40.42
05.453,39.57
05.468,37.64
05.484,34.72
05.500,30.91
05.515,26.33
05.531,20.98
05.546,14.83
05.562,7.88
05.578,0.33
05.593,-7.33
05.609,-14.43
05.625,-20.33
05.640,-24.71
05.656,-27.64
05.671,-29.51
05.687,-30.74
05.703,-31.55
05.718,-31.9
05.734,-31.62
05.750,-30.63
05.765,-29.05
05.781,-27.19
05.796,-25.39
05.812,-23.79
05.828,-22.33
05.843,-20.73
05.859,-18.79
05.875,-16.52
05.890,-14.18
05.906,-12.15
05.921,-10.73
05.937,-10.04
05.953,-9.99
05.968,-10.34
05.984,-10.88
06.000,-11.46
06.015,-12.0
06.031,-12.38
06.046,-12.45
06.062,-12.14
06.078,-11.45
06.093,-10.59
06.109,-9.88
06.125,-9.68
06.140,-10.2
06.156,-11.45
06.171,-13.21
06.187,-15.25
06.203,-17.36
06.218,-19.38
06.234,-21.17
06.250,-22.46
06.265,-22.92
06.281,-22.19
06.296,-20.13
06.312,-16.88
06.328,-12.84
06.343,-8.52
06.359,-4.27
06.375,-0.23
06.390,3.62
06.406,7.34
06.421,10.92
06.437,14.18
06.453,16.9
06.468,18.99
06.484,20.51
06.500,21.55
06.515,22.14
06.531,22.09
06.546,21.05
06.562,18.69
06.578,14.85
06.593,9.68
06.609,3.55
06.625,-3.12
06.640,-10.07
06.656,-17.29
06.671,-24.9
06.687,-32.87
06.703,-40.85
06.718,-48.13
06.734,-53.81
06.750,-57.09
06.765,-57.51
06.781,-55.06
06.796,-50.11
06.812,-43.31
06.828,-35.39
06.843,-27.07
06.859,-18.99
06.875,-11.58
06.890,-5.09
06.906,0.43
06.921,5.13
06.937,9.23
06.953,13.0
06.968,16.57
06.984,19.96
07.000,23.07
07.015,25.75
07.031,27.84
07.046,29.24
07.062,29.97
07.078,30.15
07.093,30.0
07.109,29.77
07.125,29.69
07.140,29.89
07.156,30.41
07.171,31.17
07.187,32.01
07.203,32.75
07.218,33.15
07.234,33.03
07.250,32.26
07.265,30.8
07.281,28.67
07.296,25.89
07.312,22.46
07.328,18.4
07.343,13.84
07.359,9.08
07.375,4.66
07.390,1.27
07.406,-0.48
07.421,-0.27
07.437,1.76
07.453,5.05
07.468,8.78
07.484,12.11
07.500,14.48
07.515,15.67
07.531,15.84
07.546,15.36
07.562,14.59
07.578,13.63
07.593,12.35
07.609,10.36
07.625,7.34
07.640,3.2
07.656,-1.8
07.671,-7.24
07.687,-12.72
07.703,-18.14
07.718,-23.7
07.734,-29.66
07.750,-36.17
07.765,-43.02
07.781,-49.75
07.796,-55.82
07.812,-60.88
07.828,-64.99
07.843,-68.5
07.859,-71.9
07.875,-75.51
07.890,-79.36
07.906,-83.27
07.921,-86.89
07.937,-90.0
07.953,-92.55
07.968,-94.67
07.984,-96.53
08.000,-98.31
08.015,-100.01
08.031,-101.56
08.046,-102.79
08.062,-103.55
08.078,-103.71
08.093,-103.12
08.109,-101.67
08.125,-99.27
08.140,-95.89
08.156,-91.63
08.171,-86.61
08.187,-80.95
08.203,-74.72
08.218,-68.0
08.234,-60.93
08.250,-53.77
08.265,-46.8
08.281,-40.26
08.296,-34.28
08.312,-28.73
08.328,-23.43
08.343,-18.31
08.359,-13.44
08.375,-9.17
08.390,-5.84
08.406,-3.69
08.421,-2.68
08.437,-2.6
08.453,-3.2
08.468,-4.32
08.484,-5.9
08.500,-7.94
08.515,-10.42
08.531,-13.17
08.546,-15.95
08.562,-18.62
08.578,-21.16
08.593,-23.72
08.609,-26.34
08.625,-28.76
08.640,-30.41
08.656,-30.53
08.671,-28.44
08.687,-23.9
08.703,-17.23
08.718,-9.25
08.734,-1.03
08.750,6.49
08.765,12.74
08.781,17.6
08.796,21.3
08.812,24.12
08.828,26.28
08.843,27.78
08.859,28.53
08.875,28.5
08.890,27.86
08.906,26.92
08.921,26.04
08.937,25.35
08.953,24.67
08.968,23.57
08.984,21.6
09.000,18.57
09.015,14.72
09.031,10.62
09.046,6.9
09.062,3.98
09.078,1.85
09.093,0.23
09.109,-1.34
09.125,-3.17
09.140,-5.41
09.156,-8.02
09.171,-10.94
09.187,-14.12
09.203,-17.53
09.218,-21.01
09.234,-24.19
09.250,-26.48
09.265,-27.2
09.281,-25.87
09.296,-22.38
09.312,-17.03
09.328,-10.47
09.343,-3.46
09.359,3.32
09.375,9.48
09.390,14.9
09.406,19.64
09.421,23.78
09.437,27.28
09.453,30.0
09.468,31.77
09.484,32.53
09.500,32.42
09.515,31.78
09.531,30.96
09.546,30.18
09.562,29.5
09.578,28.7
09.593,27.54
09.609,25.84
09.625,23.6
09.640,20.98
09.656,18.22
09.671,15.48
09.687,12.8
09.703,10.0
09.718,6.79
09.734,2.88
09.750,-1.87
09.765,-7.35
09.781,-13.15
09.796,-18.64
09.812,-23.17
09.828,-26.14
09.843,-27.2
09.859,-26.24
09.875,-23.41
09.890,-19.03
09.906,-13.56
09.921,-7.46
09.937,-1.22
09.953,4.74
09.968,10.11
09.984,14.77
10.000,18.75
10.015,22.2
10.031,25.33
10.046,28.24
10.062,30.97
10.078,33.47
10.093,35.71
10.109,37.76
10.125,39.81
10.140,42.09
10.156,44.71
10.171,47.55
10.187,50.24
10.203,52.31
10.218,53.32
10.234,52.97
10.250,51.12
10.265,47.7
10.281,42.77
10.296,36.46
10.312,29.06
10.328,20.99
10.343,12.68
10.359,4.49
10.375,-3.34
10.390,-10.58
10.406,-16.85
10.421,-21.53
10.437,-23.94
10.453,-23.61
10.468,-20.48
10.484,-14.94
10.500,-7.7
10.515,0.56
10.531,9.3
10.546,18.09
10.562,26.51
10.578,33.97
10.593,39.82
10.609,43.58
10.625,45.19
10.640,44.99
10.656,43.62
10.671,41.69
10.687,39.61
10.703,37.54
10.718,35.47
10.734,33.37
10.750,31.22
10.765,29.01
10.781,26.75
10.796,24.42
10.812,22.0
10.828,19.47
10.843,16.82
10.859,14.01
10.875,11.0
10.890,7.77
10.906,4.29
10.921,0.54
10.937,-3.51
10.953,-8.02
10.968,-13.16
10.984,-19.04
11.000,-25.43
11.015,-31.67
11.031,-36.77
11.046,-39.68
11.062,-39.68
11.078,-36.69
11.093,-31.24
11.109,-24.28
11.125,-16.78
11.140,-9.43
11.156,-2.54
11.171,3.91
11.187,9.98
11.203,15.57
11.218,20.41
11.234,24.14
11.250,26.58
11.265,27.86
11.281,28.37
11.296,28.57
11.312,28.7
11.328,28.73
11.343,28.31
11.359,27.09
11.375,24.94
11.390,21.99
11.406,18.59
11.421,15.02
11.437,11.36
11.453,7.48
11.468,3.25
11.484,-1.33
11.500,-5.99
11.515,-10.31
11.531,-13.99
11.546,-16.93
11.562,-19.34
11.578,-21.67
11.593,-24.4
11.609,-27.87
11.625,-32.16
11.640,-37.02
11.656,-41.95
11.671,-46.3
11.687,-49.42
11.703,-50.79
11.718,-50.21
11.734,-47.7
11.750,-43.57
11.765,-38.33
11.781,-32.53
11.796,-26.7
11.812,-21.3
11.828,-16.59
11.843,-12.7
11.859,-9.69
11.875,-7.51
11.890,-6.11
11.906,-5.44
11.921,-5.32
11.937,-5.54
11.953,-5.89
11.968,-6.17
11.984,-6.35
12.000,-6.52
12.015,-6.8
12.031,-7.31
12.046,-8.02
12.062,-8.78
12.078,-9.43
12.093,-9.88
12.109,-10.22
12.125,-10.61
12.140,-11.22
12.156,-12.0
12.171,-12.6
12.187,-12.48
12.203,-11.03
12.218,-7.84
12.234,-2.86
12.250,3.61
12.265,11.07
12.281,18.98
12.296,26.98
12.312,34.94
12.328,42.89
12.343,50.87
12.359,58.84
12.375,66.52
12.390,73.58
12.406,79.62
12.421,84.37
12.437,87.76
12.453,89.88
12.468,90.87
12.484,90.82
12.500,89.73
12.515,87.58
12.531,84.41
12.546,80.42
12.562,75.88
12.578,70.98
12.593,65.72
12.609,59.89
12.625,53.28
12.640,45.88
12.656,37.98
12.671,30.08
12.687,22.62
12.703,15.76
12.718,9.31
12.734,2.88
12.750,-3.82
12.765,-10.9
12.781,-18.27
12.796,-25.81
12.812,-33.47
12.828,-41.24
12.843,-49.09
12.859,-56.8
12.875,-63.97
12.890,-70.11
12.906,-74.88
12.921,-78.19
12.937,-80.32
12.953,-81.69
12.968,-82.73
12.984,-83.58
13.000,-83.94
13.015,-83.1
13.031,-80.15
13.046,-74.38
13.062,-65.59
13.078,-54.25
13.093,-41.28
13.109,-27.82
13.125,-14.8
13.140,-2.7
13.156,8.37
13.171,18.57
13.187,28.17
13.203,37.43
13.218,46.59
13.234,55.77
13.250,64.96
13.265,73.95
13.281,82.28
13.296,89.3
13.312,94.3
13.328,96.65
13.343,95.99
13.359,92.32
13.375,86.04
13.390,77.88
13.406,68.63
13.421,58.87
13.437,48.7
13.453,37.8
13.468,25.68
13.484,12.0
13.500,-3.18
13.515,-19.3
13.531,-35.49
13.546,-50.85
13.562,-64.72
13.578,-76.75
13.593,-86.8
13.609,-94.85
13.625,-100.81
13.640,-104.6
13.656,-106.09
13.671,-105.28
13.687,-102.32
13.703,-97.52
13.718,-91.26
13.734,-83.86
13.750,-75.5
13.765,-66.2
13.781,-56.04
13.796,-45.31
13.812,-34.59
13.828,-24.72
13.843,-16.53
13.859,-10.48
13.875,-6.57
13.890,-4.32
13.906,-2.92
13.921,-1.55
13.937,0.5
13.953,3.66
13.968,7.94
13.984,12.9
14.000,17.65
14.015,21.12
14.031,22.45
14.046,21.4
14.062,18.57
14.078,15.25
14.093,13.08
14.109,13.41
14.125,17.09
14.140,24.16
14.156,34.1
14.171,46.0
14.187,58.85
14.203,71.61
14.218,83.33
14.234,93.3
14.250,101.18
14.265,107.18
14.281,112.1
14.296,117.15
14.312,123.61
14.328,132.56
14.343,144.42
14.359,158.96
14.375,175.44
14.390,192.91
14.406,210.64
14.421,228.33
14.437,246.08
14.453,264.14
14.468,282.6
14.484,301.09
14.500,318.64
14.515,333.78
14.531,344.71
14.546,349.65
14.562,347.11
14.578,336.21
14.593,317.01
14.609,290.51
14.625,258.62
14.640,223.64
14.656,187.88
14.671,153.01
14.687,119.96
14.703,88.89
14.718,59.58
14.734,31.75
14.750,5.24
14.765,-19.94
14.781,-43.93
14.796,-67.09
14.812,-90.13
14.828,-113.99
14.843,-139.72
14.859,-168.18
14.875,-199.64
14.890,-233.48
14.906,-268.01
14.921,-300.63
14.937,-328.35
14.953,-348.48
14.968,-359.3
14.984,-360.42
15.000,-352.71
15.015,-337.96
15.031,-318.33
15.046,-295.91
15.062,-272.4
15.078,-249.04
15.093,-226.67
15.109,-205.86
15.125,-186.91
15.140,-169.82
15.156,-154.26
15.171,-139.63
15.187,-125.18
15.203,-110.29
15.218,-94.84
15.234,-79.49
15.250,-65.7
15.265,-55.46
15.281,-50.7
15.296,-52.76
15.312,-61.83
15.328,-76.92
15.343,-95.97
15.359,-116.41
15.375,-135.77
15.390,-152.33
15.406,-165.36
15.421,-175.13
15.437,-182.42
15.453,-187.95
15.468,-191.86
15.484,-193.75
15.500,-192.84
15.515,-188.45
15.531,-180.29
15.546,-168.51
15.562,-153.51
15.578,-135.68
15.593,-115.31
15.609,-92.63
15.625,-68.2
15.640,-43.12
15.656,-19.03
15.671,2.23
15.687,19.29
15.703,31.64
15.718,39.95
15.734,45.82
15.750,51.3
15.765,58.14
15.781,67.3
15.796,78.61
15.812,90.92
15.828,102.57
15.843,111.82
15.859,117.38
15.875,118.62
15.890,115.72
15.906,109.58
15.921,101.6
15.937,93.33
15.953,86.02
15.968,80.26
15.984,75.83
16.000,71.86
16.015,67.16
16.031,60.65
16.046,51.76
16.062,40.62
16.078,28.12
16.093,15.61
16.109,4.62
16.125,-3.64
16.140,-8.55
16.156,-10.27
16.171,-9.51
16.187,-7.34
16.203,-4.81
16.218,-2.82
16.234,-1.91
16.250,-2.26
16.265,-3.66
16.281,-5.47
16.296,-6.72
16.312,-6.55
16.328,-4.48
16.343,-0.86
16.359,3.11
16.375,5.72
16.390,5.45
16.406,1.6
16.421,-5.31
16.437,-13.67
16.453,-21.37
16.468,-26.66
16.484,-28.79
16.500,-28.27
16.515,-26.57
16.531,-25.52
16.546,-26.62
16.562,-30.58
16.578,-37.28
16.593,-46.08
16.609,-56.09
16.625,-66.41
16.640,-76.21
16.656,-84.73
16.671,-91.44
16.687,-96.11
16.703,-98.87
16.718,-100.21
16.734,-100.64
16.750,-100.42
16.765,-99.43
16.781,-97.19
16.796,-93.03
16.812,-86.39
16.828,-77.0
16.843,-65.07
16.859,-51.33
16.875,-36.96
16.890,-23.4
16.906,-12.05
16.921,-3.89
16.937,0.79
16.953,2.49
16.968,2.28
16.984,1.51
17.000,1.34
17.015,2.48
17.031,5.09
17.046,8.73
17.062,12.61
17.078,15.82
17.093,17.55
17.109,17.36
17.125,15.31
17.140,11.97
17.156,8.24
17.171,5.01
17.187,2.8
17.203,1.51
17.218,0.54
17.234,-1.0
17.250,-3.92
17.265,-8.67
17.281,-15.23
17.296,-23.07
17.312,-31.23
17.328,-38.38
17.343,-42.98
17.359,-43.53
17.375,-39.06
17.390,-29.47
17.406,-15.8
17.421,0.03
17.437,15.75
17.453,29.43
17.468,39.94
17.484,47.1
17.500,51.4
17.515,53.63
17.531,54.49
17.546,54.48
17.562,53.86
17.578,52.82
17.593,51.5
17.609,50.02
17.625,48.47
17.640,46.89
17.656,45.36
17.671,43.98
17.687,42.91
17.703,42.23
17.718,41.92
17.734,41.78
17.750,41.48
17.765,40.67
17.781,39.04
17.796,36.38
17.812,32.58
17.828,27.62
17.843,21.59
17.859,14.7
17.875,7.3
17.890,-0.1
17.906,-6.79
17.921,-11.96
17.937,-14.8
17.953,-14.68
17.968,-11.29
17.984,-4.74
18.000,4.37
18.015,15.11
18.031,26.41
18.046,37.31
18.062,47.16
18.078,55.76
18.093,63.21
18.109,69.71
18.125,75.38
18.140,80.08
18.156,83.56
18.171,85.55
18.187,86.0
18.203,85.1
18.218,83.21
18.234,80.76
18.250,78.02
18.265,75.12
18.281,71.93
18.296,68.17
18.312,63.43
18.328,57.34
18.343,49.75
18.359,40.99
18.375,31.87
18.390,23.51
18.406,16.94
18.421,12.72
18.437,10.72
18.453,10.16
18.468,9.97
18.484,8.99
18.500,6.21
18.515,0.89
18.531,-7.28
18.546,-17.93
18.562,-29.79
18.578,-40.89
18.593,-48.97
18.609,-52.26
18.625,-50.18
18.640,-43.46
18.656,-33.85
18.671,-23.4
18.687,-13.8
18.703,-5.95
18.718,-0.13
18.734,3.88
18.750,6.56
18.765,8.58
18.781,10.67
18.796,13.56
18.812,17.62
18.828,22.69
18.843,28.01
18.859,32.42
18.875,34.79
18.890,34.43
18.906,31.26
18.921,25.81
18.937,18.97
18.953,11.7
18.968,4.73
18.984,-1.48
19.000,-6.75
19.015,-11.01
19.031,-14.09
19.046,-15.78
19.062,-15.83
19.078,-14.18
19.093,-11.12
19.109,-7.36
19.125,-3.96
19.140,-2.0
19.156,-2.29
19.171,-5.23
19.187,-10.65
19.203,-17.87
19.218,-25.82
19.234,-33.23
19.250,-38.79
19.265,-41.36
19.281,-40.21
19.296,-35.22
19.312,-26.95
19.328,-16.59
19.343,-5.64
19.359,4.41
19.375,12.54
19.390,18.51
19.406,22.84
19.421,26.49
19.437,30.35
19.453,34.71
19.468,39.13
19.484,42.66
19.500,44.38
19.515,43.88
19.531,41.5
19.546,38.14
19.562,34.78
19.578,32.2
19.593,30.77
19.609,30.55
19.625,31.48
19.640,33.42
19.656,36.05
19.671,38.76
19.687,40.69
19.703,40.93
19.718,38.84
19.734,34.23
19.750,27.34
19.765,18.73
19.781,9.07
19.796,-0.92
19.812,-10.46
19.828,-18.75
19.843,-25.14
19.859,-29.36
19.875,-31.68
19.890,-32.84
19.906,-33.7
19.921,-34.8
19.937,-36.07
19.953,-36.86
19.968,-36.2
19.984,-33.31
20.000,-27.88
20.015,-20.19
20.031,-10.95
20.046,-1.02
20.062,8.82
20.078,18.03
20.093,26.24
20.109,33.19
20.125,38.65
20.140,42.34
20.156,44.12
20.171,44.03
20.187,42.49
20.203,40.27
20.218,38.29
20.234,37.28
20.250,37.54
20.265,38.85
20.281,40.62
20.296,42.28
20.312,43.43
20.328,43.9
20.343,43.61
20.359,42.31
20.375,39.61
20.390,35.13
20.406,28.83
20.421,21.25
20.437,13.47
20.453,6.68
20.468,1.77
20.484,-1.12
20.500,-2.55
20.515,-3.61
20.531,-5.41
20.546,-8.78
20.562,-14.02
20.578,-20.86
20.593,-28.63
20.609,-36.26
20.625,-42.53
20.640,-46.14
20.656,-46.06
20.671,-41.73
20.687,-33.29
20.703,-21.68
20.718,-8.33
20.734,5.11
20.750,17.22
20.765,27.01
20.781,34.02
20.796,38.17
20.812,39.67
20.828,38.89
20.843,36.23
20.859,32.23
20.875,27.52
20.890,22.85
20.906,18.98
20.921,16.59
20.937,16.12
20.953,17.69
20.968,21.09
20.984,25.84
21.000,31.28
21.015,36.74
21.031,41.57
21.046,45.25
21.062,47.37
21.078,47.59
21.093,45.71
21.109,41.71
21.125,35.89
21.140,29.02
21.156,22.23
21.171,16.74
21.187,13.53
21.203,12.98
21.218,14.76
21.234,17.95
21.250,21.46
21.265,24.25
21.281,25.68
21.296,25.44
21.312,23.56
21.328,20.42
21.343,16.75
21.359,13.66
21.375,12.43
21.390,14.14
21.406,19.22
21.421,27.17
21.437,36.7
21.453,46.08
21.468,53.75
21.484,58.66
21.500,60.49
21.515,59.52
21.531,56.35
21.546,51.71
21.562,46.35
21.578,40.92
21.593,36.1
21.609,32.44
21.625,30.23
21.640,29.48
21.656,29.9
21.671,31.02
21.687,32.54
21.703,34.33
21.718,36.51
21.734,39.26
21.750,42.71
21.765,46.73
21.781,51.0
21.796,55.06
21.812,58.5
21.828,61.11
21.843,62.94
21.859,64.26
21.875,65.64
21.890,67.93
21.906,71.91
21.921,77.9
21.937,85.05
21.953,90.96
21.968,91.98
21.984,84.05
22.000,63.94
22.015,30.19
22.031,-16.57
22.046,-73.8
22.062,-137.44
22.078,-202.31
22.093,-262.55
22.109,-312.16
22.125,-346.07
22.140,-361.29
22.156,-357.81
22.171,-338.64
22.187,-308.8
22.203,-273.76
22.218,-237.96
22.234,-204.1
22.250,-173.29
22.265,-145.7
22.281,-121.23
22.296,-99.8
22.312,-81.41
22.328,-66.0
22.343,-53.46
22.359,-43.58
22.375,-36.16
22.390,-30.93
22.406,-27.5
22.421,-25.32
22.437,-23.59
22.453,-21.38
22.468,-17.81
22.484,-12.32
22.500,-5.03
22.515,3.26
22.531,11.13
22.546,17.21
22.562,20.73
22.578,22.02
22.593,22.36
22.609,23.52
22.625,27.01
22.640,33.45
22.656,42.56
22.671,53.37
22.687,64.81
22.703,76.11
22.718,86.99
22.734,97.47
22.750,107.63
22.765,117.51
22.781,127.05
22.796,136.27
22.812,145.32
22.828,154.31
22.843,163.16
22.859,171.43
22.875,178.35
22.890,182.98
22.906,184.65
22.921,183.19
22.937,179.07
22.953,173.24
22.968,166.72
22.984,160.34
23.000,154.46
23.015,149.03
23.031,143.71
23.046,138.11
23.062,131.81
23.078,124.43
23.093,115.6
23.109,104.89
23.125,91.93
23.140,76.63
23.156,59.18
23.171,40.22
23.187,20.61
23.203,1.22
23.218,-17.28
23.234,-34.56
23.250,-50.52
23.265,-65.26
23.281,-79.0
23.296,-92.03
23.312,-104.62
23.328,-117.0
23.343,-129.06
23.359,-140.2
23.375,-149.29
23.390,-154.93
23.406,-155.9
23.421,-151.71
23.437,-142.92
23.453,-131.01
23.468,-117.92
23.484,-105.5
23.500,-94.92
23.515,-86.63
23.531,-80.42
23.546,-75.72
23.562,-72.0
23.578,-68.78
23.593,-65.74
23.609,-62.63
23.625,-59.23
23.640,-55.36
23.656,-50.93
23.671,-46.04
23.687,-40.91
23.703,-35.94
23.718,-31.53
23.734,-28.04
23.750,-25.72
23.765,-24.62
23.781,-24.66
23.796,-25.65
23.812,-27.35
23.828,-29.52
23.843,-31.95
23.859,-34.49
23.875,-36.93
23.890,-39.15
23.906,-40.99
23.921,-42.36
23.937,-43.22
23.953,-43.64
23.968,-43.74
23.984,-43.68
24.000,-43.57
24.015,-43.38
24.031,-42.87
24.046,-41.7
24.062,-39.56
24.078,-36.32
24.093,-32.18
24.109,-27.63
24.125,-23.34
24.140,-19.87
24.156,-17.56
24.171,-16.43
24.187,-16.26
24.203,-16.72
24.218,-17.51
24.234,-18.44
24.250,-19.4
24.265,-20.36
24.281,-21.26
24.296,-22.07
24.312,-22.68
24.328,-22.92
24.343,-22.53
24.359,-21.23
24.375,-18.81
24.390,-15.27
24.406,-10.89
24.421,-6.17
24.437,-1.75
24.453,1.86
24.468,4.44
24.484,6.21
24.500,7.8
24.515,9.94
24.531,13.13
24.546,17.35
24.562,22.03
24.578,26.28
24.593,29.21
24.609,30.28
24.625,29.34
24.640,26.57
24.656,22.31
24.671,16.98
24.687,11.17
24.703,5.72
24.718,1.74
24.734,0.2
24.750,1.6
24.765,5.57
24.781,10.95
24.796,16.24
24.812,20.27
24.828,22.71
24.843,24.11
24.859,25.49
24.875,27.74
24.890,31.19
24.906,35.43
24.921,39.59
24.937,42.79
24.953,44.49
24.968,44.64
24.984,43.54
25.000,41.6
25.015,39.11
25.031,36.18
25.046,32.82
25.062,28.94
25.078,24.49
25.093,19.22
25.109,12.64
25.125,4.08
25.140,-7.09
25.156,-21.02
25.171,-37.0
25.187,-53.46
25.203,-68.31
25.218,-79.58
25.234,-86.12
25.250,-87.91
25.265,-85.9
25.281,-81.56
25.296,-76.29
25.312,-70.97
25.328,-66.0
25.343,-61.39
25.359,-57.05
25.375,-52.85
25.390,-48.57
25.406,-43.85
25.421,-38.27
25.437,-31.51
25.453,-23.59
25.468,-14.96
25.484,-6.35
25.500,1.51
25.515,8.22
25.531,13.81
25.546,18.63
25.562,23.06
25.578,27.29
25.593,31.32
25.609,34.94
25.625,38.03
25.640,40.57
25.656,42.67
25.671,44.52
25.687,46.24
25.703,47.88
25.718,49.46
25.734,50.95
25.750,52.25
25.765,53.22
25.781,53.67
25.796,53.32
25.812,51.9
25.828,49.26
25.843,45.32
25.859,40.17
25.875,34.07
25.890,27.42
25.906,20.64
25.921,14.13
25.937,8.17
25.953,2.92
25.968,-1.47
25.984,-4.82
26.000,-6.91
26.015,-7.49
26.031,-6.51
26.046,-4.08
26.062,-0.53
26.078,3.72
26.093,8.31
26.109,12.89
26.125,17.17
26.140,20.85
26.156,23.66
26.171,25.42
26.187,26.14
26.203,25.92
26.218,24.88
26.234,23.03
26.250,20.24
26.265,16.38
26.281,11.57
26.296,6.22
26.312,0.93
26.328,-3.7
26.343,-7.43
26.359,-10.35
26.375,-12.82
26.390,-15.16
26.406,-17.44
26.421,-19.44
26.437,-20.78
26.453,-21.21
26.468,-20.71
26.484,-19.49
26.500,-17.9
26.515,-16.18
26.531,-14.37
26.546,-12.43
26.562,-10.36
26.578,-8.36
26.593,-6.83
26.609,-6.26
26.625,-6.98
26.640,-9.01
26.656,-11.94
26.671,-15.03
26.687,-17.39
26.703,-18.26
26.718,-17.21
26.734,-14.14
26.750,-9.3
26.765,-3.18
26.781,3.63
26.796,10.47
26.812,16.76
26.828,22.05
26.843,26.08
26.859,28.89
26.875,30.74
26.890,32.08
26.906,33.4
26.921,35.01
26.937,37.03
26.953,39.28
26.968,41.41
26.984,43.03
27.000,43.83
27.015,43.7
27.031,42.69
27.046,40.95
27.062,38.57
27.078,35.61
27.093,31.99
27.109,27.59
27.125,22.28
27.140,16.07
27.156,9.17
27.171,2.04
27.187,-4.73
27.203,-10.55
27.218,-15.04
27.234,-18.27
27.250,-20.66
27.265,-22.95
27.281,-25.9
27.296,-30.03
27.312,-35.44
27.328,-41.76
27.343,-48.25
27.359,-53.89
27.375,-57.68
27.390,-58.77
27.406,-56.73
27.421,-51.56
27.437,-43.69
27.453,-33.81
27.468,-22.59
27.484,-10.52
27.500,2.17
27.515,15.34
27.531,28.82
27.546,42.17
27.562,54.59
27.578,65.03
27.593,72.36
27.609,75.67
27.625,74.58
27.640,69.37
27.656,60.92
27.671,50.64
27.687,40.08
27.703,30.58
27.718,23.07
27.734,18.03
27.750,15.43
27.765,14.93
27.781,15.9
27.796,17.58
27.812,19.06
27.828,19.49
27.843,18.13
27.859,14.49
27.875,8.46
27.890,0.28
27.906,-9.49
27.921,-20.05
27.937,-30.39
27.953,-39.44
27.968,-46.15
27.984,-49.7
28.000,-49.71
28.015,-46.31
28.031,-40.11
28.046,-32.02
28.062,-22.98
28.078,-13.72
28.093,-4.72
28.109,3.7
28.125,11.14
28.140,16.92
28.156,20.13
28.171,19.87
28.187,15.6
28.203,7.52
28.218,-3.47
28.234,-15.87
28.250,-27.91
28.265,-37.94
28.281,-44.67
28.296,-47.29
28.312,-45.55
28.328,-39.74
28.343,-30.71
28.359,-19.67
28.375,-8.07
28.390,2.79
28.406,11.92
28.421,18.86
28.437,23.7
28.453,26.99
28.468,29.48
28.484,31.89
28.500,34.72
28.515,38.1
28.531,41.83
28.546,45.44
28.562,48.46
28.578,50.48
28.593,51.4
28.609,51.51
28.625,51.57
28.640,52.59
28.656,55.49
28.671,60.69
28.687,67.79
28.703,75.56
28.718,82.38
28.734,86.86
28.750,88.32
28.765,87.01
28.781,83.74
28.796,79.38
28.812,74.39
28.828,68.7
28.843,61.91
28.859,53.61
28.875,43.75
28.890,32.69
28.906,21.05
28.921,9.52
28.937,-1.27
28.953,-10.94
28.968,-19.38
28.984,-26.85
29.000,-33.93
29.015,-41.35
29.031,-49.74
29.046,-59.36
29.062,-69.83
29.078,-80.3
29.093,-89.68
29.109,-97.14
29.125,-102.4
29.140,-105.81
29.156,-108.13
29.171,-110.17
29.187,-112.37
29.203,-114.56
29.218,-116.06
29.234,-115.84
29.250,-112.98
29.265,-106.98
29.281,-97.92
29.296,-86.43
29.312,-73.46
29.328,-59.95
29.343,-46.67
29.359,-34.14
29.375,-22.69
29.390,-12.57
29.406,-3.94
29.421,3.05
29.437,8.43
29.453,12.38
29.468,15.19
29.484,17.16
29.500,18.42
29.515,18.92
29.531,18.45
29.546,16.81
29.562,13.82
29.578,9.45
29.593,3.84
29.609,-2.7
29.625,-9.78
29.640,-16.95
29.656,-23.79
29.671,-29.95
29.687,-35.17
29.703,-39.25
29.718,-42.09
29.734,-43.62
29.750,-43.8
29.765,-42.63
29.781,-40.15
29.796,-36.42
29.812,-31.62
29.828,-25.94
29.843,-19.49
29.859,-12.21
29.875,-3.89
29.890,5.81
29.906,17.1
29.921,29.86
29.937,43.57
29.953,57.37
29.968,70.32
29.984,81.71
30.000,91.19
30.015,98.78
30.031,104.63
30.046,108.85
30.062,111.34
30.078,111.9
30.093,110.38
30.109,106.82
30.125,101.47
30.140,94.68
30.156,86.78
30.171,77.96
30.187,68.28
30.203,57.76
30.218,46.47
30.234,34.53
30.250,22.2
30.265,9.8
30.281,-2.31
30.296,-13.83
30.312,-24.52
30.328,-34.26
30.343,-42.98
30.359,-50.65
30.375,-57.28
30.390,-62.86
30.406,-67.56
30.421,-71.73
30.437,-75.91
30.453,-80.51
30.468,-85.55
30.484,-90.34
30.500,-93.67
30.515,-94.18
30.531,-90.94
30.546,-83.9
30.562,-73.9
30.578,-62.25
30.593,-50.24
30.609,-38.7
30.625,-28.01
30.640,-18.17
30.656,-9.13
30.671,-0.94
30.687,6.28
30.703,12.43
30.718,17.57
30.734,21.89
30.750,25.66
30.765,29.13
30.781,32.47
30.796,35.68
30.812,38.58
30.828,40.89
30.843,42.33
30.859,42.79
30.875,42.35
30.890,41.31
30.906,40.01
30.921,38.68
30.937,37.34
30.953,35.85
30.968,34.0
30.984,31.62
31.000,28.57
31.015,24.72
31.031,19.83
31.046,13.69
31.062,6.24
31.078,-2.19
31.093,-10.93
31.109,-18.95
31.125,-25.25
31.140,-29.03
31.156,-29.84
31.171,-27.59
31.187,-22.47
31.203,-14.84
31.218,-5.33
31.234,5.15
31.250,15.39
31.265,23.99
31.281,29.68
31.296,31.6
31.312,29.52
31.328,23.85
31.343,15.53
31.359,5.68
31.375,-4.53
31.390,-14.12
31.406,-22.4
31.421,-29.07
31.437,-34.14
31.453,-37.87
31.468,-40.6
31.484,-42.55
31.500,-43.69
31.515,-43.77
31.531,-42.52
31.546,-39.96
31.562,-36.43
31.578,-32.6
31.593,-29.14
31.609,-26.49
31.625,-24.63
31.640,-23.27
31.656,-22.07
31.671,-20.92
31.687,-20.05
31.703,-19.76
31.718,-20.13
31.734,-20.79
31.750,-20.91
31.765,-19.53
31.781,-16.05
31.796,-10.5
31.812,-3.62
31.828,3.46
31.843,9.66
31.859,14.45
31.875,17.94
31.890,20.78
31.906,23.8
31.921,27.7
31.937,32.72
31.953,38.5
31.968,44.07
31.984,48.17
32.000,49.69
32.015,48.23
32.031,44.56
32.046,40.51
32.062,38.43
32.078,40.41
32.093,47.51
32.109,59.36
32.125,74.38
32.140,90.44
32.156,105.56
32.171,118.52
32.187,129.05
32.203,137.63
32.218,145.14
32.234,152.3
32.250,159.37
32.265,166.06
32.281,171.88
32.296,176.58
32.312,180.78
32.328,186.09
32.343,194.73
32.359,208.62
32.375,228.32
32.390,252.24
32.406,276.7
32.421,296.87
32.437,308.3
32.453,308.38
32.468,297.13
32.484,276.82
32.500,250.87
32.515,222.33
32.531,192.92
32.546,162.92
32.562,131.9
32.578,99.76
32.593,67.41
32.609,36.6
32.625,9.02
32.640,-14.61
32.656,-35.16
32.671,-54.79
32.687,-76.1
32.703,-101.24
32.718,-131.5
32.734,-167.35
32.750,-208.52
32.765,-253.8
32.781,-300.5
32.796,-344.37
32.812,-380.16
32.828,-403.1
32.843,-410.76
32.859,-403.99
32.875,-386.54
32.890,-363.27
32.906,-338.06
32.921,-312.46
32.937,-285.87
32.953,-257.01
32.968,-225.55
32.984,-192.91
33.000,-161.85
33.015,-135.12
33.031,-114.26
33.046,-99.17
33.062,-88.45
33.078,-80.33
33.093,-73.34
33.109,-66.58
33.125,-59.73
33.140,-52.59
33.156,-44.9
33.171,-36.21
33.187,-26.19
33.203,-14.81
33.218,-2.52
33.234,9.72
33.250,20.81
33.265,29.8
33.281,36.33
33.296,40.71
33.312,43.65
33.328,45.91
33.343,47.8
33.359,49.15
33.375,49.4
33.390,48.03
33.406,44.92
33.421,40.42
33.437,35.32
33.453,30.54
33.468,26.85
33.484,24.66
33.500,24.0
33.515,24.44
33.531,25.27
33.546,25.7
33.562,25.1
33.578,23.29
33.593,20.54
33.609,17.36
33.625,14.22
33.640,11.12
33.656,7.57
33.671,2.82
33.687,-3.7
33.703,-11.92
33.718,-21.07
33.734,-29.89
33.750,-37.11
33.765,-41.89
33.781,-44.02
33.796,-43.83
33.812,-41.85
33.828,-38.58
33.843,-34.41
33.859,-29.6
33.875,-24.44
33.890,-19.31
33.906,-14.51
33.921,-10.26
33.937,-6.61
33.953,-3.5
33.968,-0.85
33.984,1.37
34.000,3.14
34.015,4.44
34.031,5.3
34.046,5.84
34.062,6.17
34.078,6.32
34.093,6.19
34.109,5.56
34.125,4.23
34.140,2.02
34.156,-0.99
34.171,-4.58
34.187,-8.4
34.203,-12.14
34.218,-15.61
34.234,-18.76
34.250,-21.61
34.265,-24.13
34.281,-26.23
34.296,-27.8
34.312,-28.8
34.328,-29.34
34.343,-29.75
34.359,-30.35
34.375,-31.32
34.390,-32.55
34.406,-33.53
34.421,-33.55
34.437,-31.92
34.453,-28.26
34.468,-22.64
34.484,-15.53
34.500,-7.65
34.515,0.31
34.531,7.77
34.546,14.38
34.562,19.97
34.578,24.47
34.593,27.83
34.609,30.08
34.625,31.38
34.640,32.06
34.656,32.54
34.671,33.19
34.687,34.14
34.703,35.2
34.718,36.01
34.734,36.18
34.750,35.44
34.765,33.8
34.781,31.38
34.796,28.34
34.812,24.79
34.828,20.75
34.843,16.25
34.859,11.4
34.875,6.49
34.890,1.86
34.906,-2.21
34.921,-5.65
34.937,-8.63
34.953,-11.48
34.968,-14.58
34.984,-18.15
35.000,-22.1
35.015,-25.92
35.031,-28.78
35.046,-29.79
35.062,-28.31
35.078,-24.21
35.093,-17.89
35.109,-10.17
35.125,-1.96
35.140,5.97
35.156,13.27
35.171,19.91
35.187,26.1
35.203,32.1
35.218,38.03
35.234,43.92
35.250,49.62
35.265,54.99
35.281,59.84
35.296,63.91
35.312,66.89
35.328,68.44
35.343,68.23
35.359,66.14
35.375,62.32
35.390,57.13
35.406,51.0
35.421,44.17
35.437,36.53
35.453,27.74
35.468,17.44
35.484,5.59
35.500,-7.34
35.515,-20.35
35.531,-32.05
35.546,-41.05
35.562,-46.38
35.578,-47.78
35.593,-45.83
35.609,-41.87
35.625,-37.53
35.640,-34.23
35.656,-32.66
35.671,-32.51
35.687,-32.7
35.703,-31.94
35.718,-29.3
35.734,-24.61
35.750,-18.45
35.765,-11.8
35.781,-5.6
35.796,-0.46
35.812,3.45
35.828,6.37
35.843,8.79
35.859,11.44
35.875,15.13
35.890,20.61
35.906,28.26
35.921,37.72
35.937,47.79
35.953,56.76
35.968,63.14
35.984,66.33
36.000,67.03
36.015,67.0
36.031,68.2
36.046,71.9
36.062,78.1
36.078,85.58
36.093,92.63
36.109,97.71
36.125,100.02
36.140,99.47
36.156,96.33
36.171,90.73
36.187,82.3
36.203,70.04
36.218,52.35
36.234,27.39
36.250,-6.33
36.265,-49.14
36.281,-99.46
36.296,-153.51
36.312,-205.82
36.328,-250.42
36.343,-282.37
36.359,-298.97
36.375,-300.26
36.390,-288.55
36.406,-267.61
36.421,-241.59
36.437,-214.39
36.453,-189.29
36.468,-168.72
36.484,-154.1
36.500,-145.6
36.515,-142.19
36.531,-141.92
36.546,-142.53
36.562,-142.16
36.578,-139.91
36.593,-135.86
36.609,-130.83
36.625,-125.85
36.640,-121.57
36.656,-118.07
36.671,-114.84
36.687,-111.05
36.703,-105.82
36.718,-98.5
36.734,-88.81
36.750,-77.04
36.765,-64.14
36.781,-51.57
36.796,-41.05
36.812,-33.97
36.828,-30.91
36.843,-31.37
36.859,-33.89
36.875,-36.65
36.890,-38.12
36.906,-37.53
36.921,-34.88
36.937,-30.62
36.953,-25.15
36.968,-18.54
36.984,-10.54
37.000,-0.89
37.015,10.42
37.031,22.93
37.046,35.77
37.062,48.0
37.078,58.73
37.093,67.39
37.109,73.81
37.125,78.12
37.140,80.62
37.156,81.7
37.171,81.71
37.187,80.87
37.203,79.36
37.218,77.26
37.234,74.61
37.250,71.52
37.265,68.14
37.281,64.7
37.296,61.53
37.312,58.99
37.328,57.39
37.343,56.92
37.359,57.58
37.375,59.18
37.390,61.36
37.406,63.63
37.421,65.36
37.437,65.77
37.453,64.01
37.468,59.21
37.484,50.8
37.500,38.78
37.515,23.99
37.531,8.13
37.546,-6.58
37.562,-17.99
37.578,-24.6
37.593,-26.03
37.609,-23.01
37.625,-16.99
37.640,-9.65
37.656,-2.27
37.671,4.47
37.687,10.55
37.703,16.35
37.718,22.39
37.734,29.0
37.750,36.22
37.765,43.75
37.781,51.04
37.796,57.38
37.812,62.06
37.828,64.61
37.843,65.0
37.859,63.88
37.875,62.51
37.890,62.36
37.906,64.65
37.921,69.69
37.937,76.63
37.953,83.62
37.968,88.59
37.984,90.11
38.000,88.02
38.015,83.59
38.031,78.82
38.046,75.5
38.062,74.48
38.078,75.39
38.093,76.98
38.109,77.74
38.125,76.4
38.140,72.16
38.156,64.69
38.171,54.09
38.187,41.26
38.203,28.45
38.218,19.15
38.234,17.27
38.250,25.43
38.265,43.45
38.281,68.1
38.296,94.34
38.312,117.57
38.328,135.58
38.343,149.08
38.359,160.35
38.375,171.42
38.390,182.67
38.406,192.95
38.421,200.76
38.437,205.55
38.453,207.95
38.468,208.95
38.484,208.38
38.500,203.99
38.515,192.09
38.531,169.09
38.546,133.3
38.562,86.54
38.578,34.45
38.593,-14.72
38.609,-52.65
38.625,-74.06
38.640,-78.98
38.656,-72.73
38.671,-63.71
38.687,-59.86
38.703,-65.66
38.718,-81.27
38.734,-103.81
38.750,-129.74
38.765,-156.44
38.781,-182.2
38.796,-205.01
38.812,-221.83
38.828,-229.07
38.843,-224.4
38.859,-208.35
38.875,-184.53
38.890,-157.98
38.906,-132.63
38.921,-109.85
38.937,-88.68
38.953,-67.52
38.968,-45.79
38.984,-24.72
39.000,-6.75
39.015,5.74
39.031,11.59
39.046,11.16
39.062,5.95
39.078,-2.15
39.093,-11.35
39.109,-20.21
39.125,-27.75
39.140,-33.59
39.156,-38.09
39.171,-42.35
39.187,-47.87
39.203,-55.94
39.218,-67.05
39.234,-80.51
39.250,-94.65
39.265,-107.27
39.281,-116.29
39.296,-120.22
39.312,-118.41
39.328,-111.02
39.343,-98.97
39.359,-83.75
39.375,-67.2
39.390,-51.22
39.406,-37.2
39.421,-25.73
39.437,-16.47
39.453,-8.4
39.468,-0.35
39.484,8.54
39.500,18.54
39.515,29.33
39.531,40.22
39.546,50.45
39.562,59.4
39.578,66.75
39.593,72.34
39.609,76.2
39.625,78.37
39.640,78.87
39.656,77.62
39.671,74.54
39.687,69.55
39.703,62.69
39.718,54.22
39.734,44.67
39.750,34.72
39.765,25.16
39.781,16.63
39.796,9.55
39.812,4.03
39.828,-0.03
39.843,-2.8
39.859,-4.45
39.875,-5.07
39.890,-4.8
39.906,-3.89
39.921,-2.79
39.937,-2.03
39.953,-2.15
39.968,-3.43
39.984,-5.82
40.000,-8.82
40.015,-11.61
40.031,-13.25
40.046,-12.98
40.062,-10.44
40.078,-5.84
40.093,0.24
40.109,7.06
40.125,14.08
40.140,21.17
40.156,28.55
40.171,36.63
40.187,45.72
40.203,55.68
40.218,65.87
40.234,75.13
40.250,81.92
40.265,84.71
40.281,82.32
40.296,74.44
40.312,61.88
40.328,46.65
40.343,31.41
40.359,18.75
40.375,10.36
40.390,6.57
40.406,6.44
40.421,8.39
40.437,10.94
40.453,13.32
40.468,15.53
40.484,18.04
40.500,21.25
40.515,25.08
40.531,29.04
40.546,32.53
40.562,35.25
40.578,37.46
40.593,39.75
40.609,42.71
40.625,46.47
40.640,50.53
40.656,53.98
40.671,55.99
40.687,56.22
40.703,55.06
40.718,53.38
40.734,51.94
40.750,50.93
40.765,49.83
40.781,47.64
40.796,43.52
40.812,37.27
40.828,29.47
40.843,21.15
40.859,13.26
40.875,6.16
40.890,-0.55
40.906,-7.73
40.921,-16.2
40.937,-26.27
40.953,-37.44
40.968,-48.57
40.984,-58.14
41.000,-64.76
41.015,-67.59
41.031,-66.49
41.046,-61.88
41.062,-54.53
41.078,-45.21
41.093,-34.47
41.109,-22.71
41.125,-10.3
41.140,2.25
41.156,14.25
41.171,24.98
41.187,33.93
41.203,40.88
41.218,45.92
41.234,49.3
41.250,51.22
41.265,51.67
41.281,50.44
41.296,47.25
41.312,41.97
41.328,34.8
41.343,26.29
41.359,17.39
41.375,9.16
41.390,2.63
41.406,-1.4
41.421,-2.44
41.437,-0.41
41.453,4.47
41.468,11.7
41.484,20.63
41.500,30.53
41.515,40.74
41.531,50.65
41.546,59.77
41.562,67.62
41.578,73.75
41.593,77.71
41.609,79.09
41.625,77.65
41.640,73.47
41.656,67.01
41.671,59.11
41.687,50.81
41.703,43.04
41.718,36.31
41.734,30.55
41.750,25.17
41.765,19.34
41.781,12.25
41.796,3.42
41.812,-7.33
41.828,-19.93
41.843,-34.2
41.859,-49.87
41.875,-66.56
41.890,-83.69
41.906,-100.5
41.921,-116.06
41.937,-129.52
41.953,-140.04
41.968,-146.88
41.984,-149.38
42.000,-147.08
42.015,-139.84
42.031,-128.04
42.046,-112.61
42.062,-94.85
42.078,-76.12
42.093,-57.49
42.109,-39.6
42.125,-22.68
42.140,-6.77
42.156,8.19
42.171,22.24
42.187,35.52
42.203,48.29
42.218,60.91
42.234,73.6
42.250,86.2
42.265,98.11
42.281,108.35
42.296,115.84
42.312,119.69
42.328,119.37
42.343,114.7
42.359,105.67
42.375,92.34
42.390,74.76
42.406,53.04
42.421,27.48
42.437,-1.37
42.453,-32.54
42.468,-64.54
42.484,-95.33
42.500,-122.5
42.515,-143.78
42.531,-157.64
42.546,-163.82
42.562,-163.48
42.578,-158.75
42.593,-151.97
42.609,-144.78
42.625,-137.69
42.640,-130.14
42.656,-121.17
42.671,-110.06
42.687,-96.8
42.703,-82.03
42.718,-66.72
42.734,-51.78
42.750,-37.78
42.765,-24.97
42.781,-13.41
42.796,-3.07
42.812,6.04
42.828,13.91
42.843,20.61
42.859,26.24
42.875,30.9
42.890,34.47
42.906,36.53
42.921,36.4
42.937,33.36
42.953,26.94
42.968,17.3
42.984,5.32
43.000,-7.48
43.015,-19.27
43.031,-28.39
43.046,-33.79
43.062,-35.29
43.078,-33.48
43.093,-29.57
43.109,-24.83
43.125,-20.37
43.140,-16.84
43.156,-14.39
43.171,-12.84
43.187,-11.87
43.203,-11.2
43.218,-10.59
43.234,-9.85
43.250,-8.63
43.265,-6.49
43.281,-2.97
43.296,2.23
43.312,9.07
43.328,17.2
43.343,26.06
43.359,35.2
43.375,44.34
43.390,53.43
43.406,62.47
43.421,71.32
43.437,79.46
43.453,85.99
43.468,89.81
43.484,89.89
43.500,85.59
43.515,76.83
43.531,64.14
43.546,48.44
43.562,30.78
43.578,12.2
43.593,-6.44
43.609,-24.29
43.625,-40.48
43.640,-54.12
43.656,-64.45
43.671,-71.07
43.687,-74.12
43.703,-74.3
43.718,-72.61
43.734,-70.07
43.750,-67.51
43.765,-65.38
43.781,-63.88
43.796,-62.99
43.812,-62.68
43.828,-62.81
43.843,-63.28
43.859,-63.92
43.875,-64.54
43.890,-64.87
43.906,-64.75
43.921,-64.07
43.937,-62.82
43.953,-61.03
43.968,-58.7
43.984,-55.71
44.000,-51.88
44.015,-47.07
44.031,-41.32
44.046,-34.98
44.062,-28.66
44.078,-23.05
44.093,-18.73
44.109,-15.96
44.125,-14.71
44.140,-14.67
44.156,-15.41
44.171,-16.59
44.187,-17.9
44.203,-19.12
44.218,-20.01
44.234,-20.26
44.250,-19.58
44.265,-17.74
44.281,-14.75
44.296,-10.88
44.312,-6.66
44.328,-2.69
44.343,0.52
44.359,2.69
44.375,3.85
44.390,4.25
44.406,4.19
44.421,4.0
44.437,3.92
44.453,4.08
44.468,4.45
44.484,4.75
44.500,4.52
44.515,3.24
44.531,0.61
44.546,-3.19
44.562,-7.51
44.578,-11.34
44.593,-13.68
44.609,-13.92
44.625,-12.11
44.640,-8.76
44.656,-4.73
44.671,-0.79
44.687,2.59
44.703,5.27
44.718,7.32
44.734,8.89
44.750,10.12
44.765,11.14
44.781,12.14
44.796,13.38
44.812,15.07
44.828,17.37
44.843,20.21
44.859,23.35
44.875,26.48
44.890,29.35
44.906,31.83
44.921,33.97
44.937,35.86
44.953,37.6
44.968,39.19
44.984,40.52
45.000,41.45
45.015,41.76
45.031,41.34
45.046,40.26
45.062,38.73
45.078,37.14
45.093,35.79
45.109,34.79
45.125,33.86
45.140,32.47
45.156,29.91
45.171,25.64
45.187,19.42
45.203,11.42
45.218,2.19
45.234,-7.48
45.250,-16.69
45.265,-24.56
45.281,-30.31
45.296,-33.38
45.312,-33.6
45.328,-31.15
45.343,-26.63
45.359,-20.81
45.375,-14.53
45.390,-8.44
45.406,-3.02
45.421,1.54
45.437,5.16
45.453,7.91
45.468,9.92
45.484,11.33
45.500,12.41
45.515,13.43
45.531,14.65
45.546,16.32
45.562,18.55
45.578,21.31
45.593,24.44
45.609,27.68
45.625,30.75
45.640,33.41
45.656,35.57
45.671,37.23
45.687,38.43
45.703,39.19
45.718,39.36
45.734,38.56
45.750,36.24
45.765,31.76
45.781,24.65
45.796,14.76
45.812,2.5
45.828,-11.15
45.843,-24.67
45.859,-36.32
45.875,-44.46
45.890,-47.92
45.906,-46.37
45.921,-40.31
45.937,-30.93
45.953,-19.8
45.968,-8.39
45.984,2.2
46.000,11.38
46.015,19.06
46.031,25.41
46.046,30.67
46.062,35.07
46.078,38.78
46.093,41.99
46.109,44.85
46.125,47.5
46.140,49.96
46.156,52.12
46.171,53.78
46.187,54.68
46.203,54.69
46.218,53.75
46.234,51.9
46.250,49.15
46.265,45.29
46.281,39.86
46.296,32.27
46.312,22.04
46.328,9.04
46.343,-6.2
46.359,-22.63
46.375,-38.76
46.390,-53.06
46.406,-64.29
46.421,-71.65
46.437,-74.84
46.453,-73.97
46.468,-69.43
46.484,-61.84
46.500,-52.01
46.515,-40.8
46.531,-29.05
46.546,-17.47
46.562,-6.53
46.578,3.51
46.593,12.55
46.609,20.54
46.625,27.41
46.640,33.1
46.656,37.6
46.671,41.04
46.687,43.69
46.703,45.91
46.718,48.04
46.734,50.32
46.750,52.85
46.765,55.57
46.781,58.27
46.796,60.59
46.812,61.98
46.828,61.7
46.843,58.93
46.859,52.97
46.875,43.45
46.890,30.6
46.906,15.27
46.921,-1.24
46.937,-17.52
46.953,-32.3
46.968,-44.74
46.984,-54.38
47.000,-61.12
47.015,-65.12
47.031,-66.59
47.046,-65.71
47.062,-62.6
47.078,-57.28
47.093,-49.7
47.109,-39.9
47.125,-28.07
47.140,-14.74
47.156,-0.71
47.171,13.11
47.187,25.9
47.203,37.17
47.218,46.8
47.234,55.01
47.250,62.09
47.265,68.32
47.281,73.81
47.296,78.48
47.312,82.0
47.328,83.9
47.343,83.6
47.359,80.49
47.375,74.07
47.390,64.09
47.406,50.7
47.421,34.49
47.437,16.5
47.453,-1.94
47.468,-19.48
47.484,-34.96
47.500,-47.57
47.515,-56.89
47.531,-62.87
47.546,-65.65
47.562,-65.52
47.578,-62.91
47.593,-58.37
47.609,-52.62
47.625,-46.39
47.640,-40.23
47.656,-34.31
47.671,-28.48
47.687,-22.25
47.703,-15.12
47.718,-6.71
47.734,3.07
47.750,14.04
47.765,25.75
47.781,37.67
47.796,49.17
47.812,59.67
47.828,68.76
47.843,76.21
47.859,81.96
47.875,86.09
47.890,88.64
47.906,89.55
47.921,88.61
47.937,85.53
47.953,80.03
47.968,72.0
47.984,61.51
48.000,48.94
48.015,34.99
48.031,20.62
48.046,6.98
48.062,-4.77
48.078,-13.66
48.093,-19.16
48.109,-21.34
48.125,-20.95
48.140,-19.26
48.156,-17.76
48.171,-17.82
48.187,-20.25
48.203,-25.06
48.218,-31.56
48.234,-38.68
48.250,-45.35
48.265,-50.97
48.281,-55.42
48.296,-59.03
48.312,-62.31
48.328,-65.58
48.343,-68.82
48.359,-71.61
48.375,-73.28
48.390,-73.13
48.406,-70.77
48.421,-66.25
48.437,-60.07
48.453,-53.01
48.468,-45.85
48.484,-39.19
48.500,-33.37
48.515,-28.6
48.531,-25.13
48.546,-23.27
48.562,-23.25
48.578,-25.02
48.593,-28.05
48.609,-31.39
48.625,-33.97
48.640,-34.91
48.656,-33.84
48.671,-30.92
48.687,-26.71
48.703,-21.83
48.718,-16.78
48.734,-11.86
48.750,-7.15
48.765,-2.62
48.781,1.79
48.796,6.09
48.812,10.25
48.828,14.18
48.843,17.72
48.859,20.78
48.875,23.28
48.890,25.28
48.906,26.95
48.921,28.5
48.937,30.22
48.953,32.19
48.968,34.4
48.984,36.55
49.000,38.21
49.015,38.84
49.031,37.9
49.046,34.89
49.062,29.47
49.078,21.56
49.093,11.38
49.109,-0.45
49.125,-13.04
49.140,-25.27
49.156,-36.07
49.171,-44.52
49.187,-50.04
49.203,-52.47
49.218,-52.0
49.234,-49.13
49.250,-44.56
49.265,-39.06
49.281,-33.3
49.296,-27.81
49.312,-22.83
49.328,-18.38
49.343,-14.37
49.359,-10.68
49.375,-7.32
49.390,-4.39
49.406,-2.06
49.421,-0.45
49.437,0.4
49.453,0.55
49.468,0.17
49.484,-0.57
49.500,-1.47
49.515,-2.4
49.531,-3.2
49.546,-3.75
49.562,-3.95
49.578,-3.84
49.593,-3.53
49.609,-3.28
49.625,-3.33
49.640,-3.84
49.656,-4.77
49.671,-5.8
49.687,-6.48
49.703,-6.38
49.718,-5.26
49.734,-3.17
49.750,-0.45
49.765,2.45
49.781,5.14
49.796,7.44
49.812,9.4
49.828,11.2
49.843,13.02
49.859,15.01
49.875,17.2
49.890,19.55
49.906,21.94
49.921,24.24
49.937,26.3
49.953,28.05
49.968,29.46
49.984,30.65
50.000,31.8
50.015,33.13
50.031,34.74
50.046,36.61
50.062,38.6
50.078,40.47
50.093,41.97
50.109,42.75
50.125,42.39
50.140,40.43
50.156,36.45
50.171,30.29
50.187,22.14
50.203,12.59
50.218,2.45
50.234,-7.48
50.250,-16.5
50.265,-24.08
50.281,-29.76
50.296,-33.16
50.312,-34.0
50.328,-32.27
50.343,-28.3
50.359,-22.77
50.375,-16.54
50.390,-10.34
50.406,-4.62
50.421,0.5
50.437,5.14
50.453,9.51
50.468,13.77
50.484,17.95
50.500,21.98
50.515,25.82
50.531,29.41
50.546,32.77
50.562,35.91
50.578,38.86
50.593,41.59
50.609,43.89
50.625,45.4
50.640,45.51
50.656,43.54
50.671,38.89
50.687,31.31
50.703,20.92
50.718,8.33
50.734,-5.59
50.750,-19.87
50.765,-33.53
50.781,-45.69
50.796,-55.55
50.812,-62.46
50.828,-65.9
50.843,-65.69
50.859,-62.08
50.875,-55.84
50.890,-48.08
50.906,-40.01
50.921,-32.6
50.937,-26.43
50.953,-21.57
50.968,-17.7
50.984,-14.32
51.000,-10.92
51.015,-7.21
51.031,-3.11
51.046,1.23
51.062,5.57
51.078,9.64
51.093,13.29
51.109,16.49
51.125,19.4
51.140,22.18
51.156,25.04
51.171,28.09
51.187,31.33
51.203,34.67
51.218,37.83
51.234,40.4
51.250,41.73
51.265,41.06
51.281,37.7
51.296,31.21
51.312,21.68
51.328,9.72
51.343,-3.65
51.359,-17.23
51.375,-29.89
51.390,-40.69
51.406,-48.93
51.421,-54.13
51.437,-56.01
51.453,-54.6
51.468,-50.3
51.484,-43.89
51.500,-36.3
51.515,-28.46
51.531,-21.03
51.546,-14.31
51.562,-8.29
51.578,-2.87
51.593,2.08
51.609,6.54
51.625,10.46
51.640,13.79
51.656,16.58
51.671,18.94
51.687,20.97
51.703,22.77
51.718,24.34
51.734,25.76
51.750,27.12
51.765,28.4
51.781,29.36
51.796,29.35
51.812,27.48
51.828,22.76
51.843,14.59
51.859,3.01
51.875,-11.12
51.890,-26.33
51.906,-40.83
51.921,-52.98
51.937,-61.49
51.953,-65.64
51.968,-65.33
51.984,-61.07
52.000,-53.88
52.015,-45.01
52.031,-35.71
52.046,-26.97
52.062,-19.32
52.078,-12.91
52.093,-7.66
52.109,-3.44
52.125,-0.15
52.140,2.29
52.156,4.08
52.171,5.57
52.187,7.16
52.203,9.23
52.218,11.94
52.234,15.24
52.250,18.86
52.265,22.48
52.281,25.8
52.296,28.64
52.312,31.03
52.328,33.11
52.343,35.14
52.359,37.31
52.375,39.65
52.390,41.8
52.406,43.07
52.421,42.5
52.437,39.13
52.453,32.36
52.468,22.18
52.484,9.3
52.500,-4.98
52.515,-19.01
52.531,-31.14
52.546,-40.05
52.562,-44.93
52.578,-45.68
52.593,-42.73
52.609,-37.02
52.625,-29.64
52.640,-21.69
52.656,-14.04
52.671,-7.23
52.687,-1.48
52.703,3.27
52.718,7.26
52.734,10.85
52.750,14.39
52.765,18.13
52.781,22.12
52.796,26.23
52.812,30.16
52.828,33.65
52.843,36.56
52.859,38.99
52.875,41.25
52.890,43.62
52.906,46.23
52.921,48.83
52.937,50.81
52.953,51.3
52.968,49.36
52.984,44.24
53.000,35.57
53.015,23.56
53.031,8.87
53.046,-7.37
53.062,-23.77
53.078,-38.95
53.093,-51.67
53.109,-61.08
53.125,-66.82
53.140,-68.96
53.156,-68.02
53.171,-64.7
53.187,-59.74
53.203,-53.77
53.218,-47.25
53.234,-40.49
53.250,-33.7
53.265,-26.98
53.281,-20.43
53.296,-14.08
53.312,-7.92
53.328,-1.94
53.343,3.83
53.359,9.3
53.375,14.38
53.390,18.99
53.406,23.11
53.421,26.77
53.437,30.05
53.453,33.04
53.468,35.89
53.484,38.76
53.500,41.8
53.515,45.06
53.531,48.32
53.546,51.0
53.562,52.27
53.578,51.23
53.593,47.21
53.609,40.01
53.625,29.94
53.640,17.84
53.656,4.86
53.671,-7.78
53.687,-18.99
53.703,-28.08
53.718,-34.72
53.734,-39.01
53.750,-41.31
53.765,-42.04
53.781,-41.58
53.796,-40.23
53.812,-38.21
53.828,-35.73
53.843,-32.95
53.859,-29.92
53.875,-26.48
53.890,-22.31
53.906,-17.13
53.921,-10.77
53.937,-3.36
53.953,4.7
53.968,12.79
53.984,20.3
54.000,26.75
54.015,31.88
54.031,35.72
54.046,38.58
54.062,40.94
54.078,43.2
54.093,45.57
54.109,47.87
54.125,49.58
54.140,49.97
54.156,48.28
54.171,43.97
54.187,36.89
54.203,27.23
54.218,15.52
54.234,2.56
54.250,-10.75
54.265,-23.48
54.281,-34.86
54.296,-44.33
54.312,-51.62
54.328,-56.59
54.343,-59.26
54.359,-59.73
54.375,-58.13
54.390,-54.74
54.406,-49.95
54.421,-44.28
54.437,-38.3
54.453,-32.54
54.468,-27.37
54.484,-22.97
54.500,-19.2
54.515,-15.83
54.531,-12.57
54.546,-9.23
54.562,-5.77
54.578,-2.27
54.593,1.15
54.609,4.41
54.625,7.49
54.640,10.42
54.656,13.19
54.671,15.77
54.687,18.11
54.703,20.19
54.718,22.06
54.734,23.73
54.750,25.2
54.765,26.23
54.781,26.33
54.796,24.83
54.812,21.06
54.828,14.67
54.843,5.73
54.859,-5.12
54.875,-16.83
54.890,-28.15
54.906,-37.9
54.921,-45.14
54.937,-49.27
54.953,-50.05
54.968,-47.59
54.984,-42.38
55.000,-35.24
55.015,-27.26
55.031,-19.48
55.046,-12.75
55.062,-7.47
55.078,-3.53
55.093,-0.51
55.109,2.14
55.125,4.85
55.140,7.78
55.156,10.82
55.171,13.74
55.187,16.31
55.203,18.44
55.218,20.18
55.234,21.59
55.250,22.76
55.265,23.71
55.281,24.49
55.296,25.16
55.312,25.85
55.328,26.57
55.343,27.17
55.359,27.21
55.375,26.12
55.390,23.45
55.406,19.04
55.421,13.24
55.437,6.8
55.453,0.62
55.468,-4.44
55.484,-7.89
55.500,-9.56
55.515,-9.53
55.531,-7.98
55.546,-5.07
55.562,-0.98
55.578,4.04
55.593,9.63
55.609,15.36
55.625,20.82
55.640,25.75
55.656,30.07
55.671,33.9
55.687,37.4
55.703,40.71
55.718,43.99
55.734,47.36
55.750,50.98
55.765,55.05
55.781,59.78
55.796,65.27
55.812,71.51
55.828,78.32
55.843,85.44
55.859,92.52
55.875,99.13
55.890,104.78
55.906,108.82
55.921,110.52
55.937,109.1
55.953,103.94
55.968,94.73
55.984,81.64
56.000,65.26
56.015,46.4
56.031,25.87
56.046,4.36
56.062,-17.56
56.078,-39.29
56.093,-59.94
56.109,-78.39
56.125,-93.44
56.140,-104.19
56.156,-110.34
56.171,-112.27
56.187,-110.93
56.203,-107.45
56.218,-102.9
56.234,-98.02
56.250,-93.2
56.265,-88.54
56.281,-83.96
56.296,-79.35
56.312,-74.53
56.328,-69.34
56.343,-63.67
56.359,-57.49
56.375,-50.87
56.390,-44.05
56.406,-37.35
56.421,-31.06
56.437,-25.37
56.453,-20.25
56.468,-15.59
56.484,-11.29
56.500,-7.55
56.515,-4.83
56.531,-3.84
56.546,-5.13
56.562,-8.91
56.578,-14.83
56.593,-22.04
56.609,-29.54
56.625,-36.43
56.640,-42.06
56.656,-46.08
56.671,-48.33
56.687,-48.68
56.703,-47.05
56.718,-43.52
56.734,-38.35
56.750,-32.06
56.765,-25.31
56.781,-18.71
56.796,-12.76
56.812,-7.79
56.828,-3.93
56.843,-1.15
56.859,0.68
56.875,1.87
56.890,2.79
56.906,3.83
56.921,5.28
56.937,7.2
56.953,9.42
56.968,11.64
56.984,13.59
57.000,15.14
57.015,16.35
57.031,17.39
57.046,18.52
57.062,19.9
57.078,21.46
57.093,22.9
57.109,23.67
57.125,23.12
57.140,20.66
57.156,16.03
57.171,9.37
57.187,1.26
57.203,-7.37
57.218,-15.34
57.234,-21.55
57.250,-25.07
57.265,-25.45
57.281,-22.73
57.296,-17.53
57.312,-10.84
57.328,-3.83
57.343,2.49
57.359,7.47
57.375,10.87
57.390,12.73
57.406,13.28
57.421,12.83
57.437,11.71
57.453,10.36
57.468,9.25
57.484,8.75
57.500,8.97
57.515,9.7
57.531,10.46
57.546,10.74
57.562,10.26
57.578,9.1
57.593,7.7
57.609,6.59
57.625,6.16
57.640,6.44
57.656,7.07
57.671,7.5
57.687,7.13
57.703,5.56
57.718,2.73
57.734,-1.03
57.750,-5.07
57.765,-8.55
57.781,-10.67
57.796,-10.91
57.812,-9.12
57.828,-5.54
57.843,-0.68
57.859,4.95
57.875,10.86
57.890,16.73
57.906,22.37
57.921,27.61
57.937,32.26
57.953,36.1
57.968,38.97
57.984,40.82
58.000,41.79
58.015,42.21
58.031,42.5
58.046,43.06
58.062,44.14
58.078,45.75
58.093,47.72
58.109,49.83
58.125,51.99
58.140,54.39
58.156,57.31
58.171,60.89
58.187,64.78
58.203,67.95
58.218,68.84
58.234,65.88
58.250,57.98
58.265,45.06
58.281,28.01
58.296,8.31
58.312,-12.49
58.328,-33.15
58.343,-52.8
58.359,-70.67
58.375,-85.81
58.390,-97.08
58.406,-103.35
58.421,-104.0
58.437,-99.31
58.453,-90.4
58.468,-78.91
58.484,-66.49
58.500,-54.28
58.515,-42.86
58.531,-32.35
58.546,-22.68
58.562,-13.86
58.578,-6.03
58.593,0.65
58.609,6.24
58.625,11.05
58.640,15.6
58.656,20.42
58.671,25.78
58.687,31.72
58.703,37.96
58.718,44.12
58.734,49.89
58.750,55.05
58.765,59.36
58.781,62.44
58.796,63.74
58.812,62.73
58.828,59.02
58.843,52.39
58.859,42.79
58.875,30.28
58.890,14.98
58.906,-2.7
58.921,-21.78
58.937,-40.62
58.953,-57.12
58.968,-69.21
58.984,-75.47
59.000,-75.44
59.015,-69.76
59.031,-59.82
59.046,-47.34
59.062,-34.04
59.078,-21.38
59.093,-10.38
59.109,-1.48
59.125,5.48
59.140,11.28
59.156,16.93
59.171,23.35
59.187,31.0
59.203,39.74
59.218,48.89
59.234,57.5
59.250,64.74
59.265,70.18
59.281,73.84
59.296,75.93
59.312,76.63
59.328,75.67
59.343,72.26
59.359,65.12
59.375,52.9
59.390,34.58
59.406,9.89
59.421,-20.44
59.437,-54.62
59.453,-89.83
59.468,-122.57
59.484,-149.24
59.500,-166.74
59.515,-173.31
59.531,-168.95
59.546,-155.54
59.562,-136.33
59.578,-115.04
59.593,-94.86
59.609,-77.83
59.625,-64.57
59.640,-54.55
59.656,-46.7
59.671,-39.89
59.687,-33.34
59.703,-26.64
59.718,-19.71
59.734,-12.58
59.750,-5.28
59.765,2.15
59.781,9.58
59.796,16.74
59.812,23.11
59.828,28.04
59.843,30.88
59.859,31.12
59.875,28.45
59.890,22.8
59.906,14.36
59.921,3.5
59.937,-9.09
59.953,-22.42
59.968,-35.26
59.984,-46.38
