timestamp,value
00.000,2.61
00.015,-12.94
00.031,-28.72
00.046,-43.45
00.062,-56.06
00.078,-65.75
00.093,-72.01
00.109,-74.64
00.125,-73.79
00.140,-70.03
00.156,-64.26
00.171,-57.57
00.187,-50.85
00.203,-44.72
00.218,-39.33
00.234,-34.52
00.250,-30.01
00.265,-25.62
00.281,-21.28
00.296,-17.02
00.312,-12.92
00.328,-8.92
00.343,-4.96
00.359,-0.95
00.375,3.16
00.390,7.35
00.406,11.52
00.421,15.55
00.437,19.35
00.453,22.92
00.468,26.34
00.484,29.79
00.500,33.44
00.515,37.3
00.531,41.11
00.546,44.21
00.562,45.69
00.578,44.58
00.593,40.21
00.609,32.52
00.625,22.06
00.640,9.91
00.656,-2.63
00.671,-14.29
00.687,-24.03
00.703,-30.96
00.718,-34.45
00.734,-34.12
00.750,-30.0
00.765,-22.67
00.781,-13.25
00.796,-3.12
00.812,6.37
00.828,14.35
00.843,20.48
00.859,24.95
00.875,28.15
00.890,30.56
00.906,32.54
00.921,34.3
00.937,35.92
00.953,37.32
00.968,38.22
00.984,38.17
01.000,36.57
01.015,32.84
01.031,26.67
01.046,18.08
01.062,7.51
01.078,-4.23
01.093,-16.13
01.109,-27.13
01.125,-36.3
01.140,-43.0
01.156,-46.98
01.171,-48.41
01.187,-47.8
01.203,-45.89
01.218,-43.42
01.234,-40.97
01.250,-38.87
01.265,-37.2
01.281,-35.82
01.296,-34.46
01.312,-32.86
01.328,-30.79
01.343,-28.12
01.359,-24.8
01.375,-20.96
01.390,-16.77
01.406,-12.4
01.421,-7.97
01.437,-3.48
01.453,1.1
01.468,5.83
01.484,10.67
01.500,15.5
01.515,20.19
01.531,24.56
01.546,28.58
01.562,32.29
01.578,35.87
01.593,39.55
01.609,43.5
01.625,47.6
01.640,51.3
01.656,53.53
01.671,52.94
01.687,48.36
01.703,39.19
01.718,25.84
01.734,9.72
01.750,-7.05
01.765,-22.2
01.781,-33.79
01.796,-40.59
01.812,-42.19
01.828,-38.94
01.843,-31.82
01.859,-22.19
01.875,-11.53
01.890,-1.1
01.906,8.22
01.921,16.06
01.937,22.46
01.953,27.62
01.968,31.75
01.984,34.96
02.000,37.3
02.015,38.79
02.031,39.37
02.046,38.85
02.062,36.85
02.078,32.89
02.093,26.55
02.109,17.76
02.125,6.88
02.140,-5.35
02.156,-18.02
02.171,-30.27
02.187,-41.46
02.203,-51.02
02.218,-58.44
02.234,-63.24
02.250,-65.07
02.265,-63.89
02.281,-60.11
02.296,-54.61
02.312,-48.4
02.328,-42.41
02.343,-37.11
02.359,-32.61
02.375,-28.72
02.390,-25.21
02.406,-21.96
02.421,-18.97
02.437,-16.22
02.453,-13.56
02.468,-10.71
02.484,-7.32
02.500,-3.22
02.515,1.54
02.531,6.66
02.546,11.76
02.562,16.56
02.578,21.02
02.593,25.27
02.609,29.55
02.625,34.02
02.640,38.72
02.656,43.57
02.671,48.48
02.687,53.34
02.703,58.02
02.718,62.18
02.734,65.19
02.750,66.16
02.765,64.15
02.781,58.55
02.796,49.25
02.812,36.81
02.828,22.22
02.843,6.8
02.859,-8.12
02.875,-21.2
02.890,-31.3
02.906,-37.5
02.921,-39.37
02.937,-37.14
02.953,-31.65
02.968,-24.2
02.984,-16.09
03.000,-8.29
03.015,-1.24
03.031,5.05
03.046,10.8
03.062,16.24
03.078,21.41
03.093,26.3
03.109,30.69
03.125,34.2
03.140,36.23
03.156,36.01
03.171,32.83
03.187,26.29
03.203,16.57
03.218,4.37
03.234,-9.26
03.250,-23.24
03.265,-36.6
03.281,-48.53
03.296,-58.14
03.312,-64.59
03.328,-67.16
03.343,-65.63
03.359,-60.58
03.375,-53.31
03.390,-45.51
03.406,-38.62
03.421,-33.41
03.437,-29.86
03.453,-27.43
03.468,-25.53
03.484,-23.86
03.500,-22.44
03.515,-21.38
03.531,-20.7
03.546,-20.11
03.562,-19.12
03.578,-17.25
03.593,-14.26
03.609,-10.2
03.625,-5.4
03.640,-0.27
03.656,4.82
03.671,9.67
03.687,14.22
03.703,18.55
03.718,22.82
03.734,27.24
03.750,32.11
03.765,37.77
03.781,44.52
03.796,52.41
03.812,60.99
03.828,69.16
03.843,75.33
03.859,77.8
03.875,75.26
03.890,67.26
03.906,54.37
03.921,38.03
03.937,20.12
03.953,2.56
03.968,-12.94
03.984,-25.03
04.000,-32.74
04.015,-35.57
04.031,-33.64
04.046,-27.68
04.062,-19.01
04.078,-9.2
04.093,0.25
04.109,8.26
04.125,14.21
04.140,17.91
04.156,19.47
04.171,19.27
04.187,17.85
04.203,15.8
04.218,13.5
04.234,10.96
04.250,7.71
04.265,3.09
04.281,-3.34
04.296,-11.37
04.312,-20.01
04.328,-27.87
04.343,-33.63
04.359,-36.65
04.375,-37.09
04.390,-35.76
04.406,-33.63
04.421,-31.47
04.437,-29.69
04.453,-28.47
04.468,-27.98
04.484,-28.38
04.500,-29.76
04.515,-31.99
04.531,-34.68
04.546,-37.25
04.562,-39.19
04.578,-40.17
04.593,-40.13
04.609,-39.16
04.625,-37.39
04.640,-34.91
04.656,-31.75
04.671,-27.97
04.687,-23.67
04.703,-19.0
04.718,-14.07
04.734,-8.98
04.750,-3.72
04.765,1.78
04.781,7.68
04.796,14.21
04.812,21.65
04.828,30.24
04.843,40.06
04.859,50.89
04.875,62.04
04.890,72.39
04.906,80.51
04.921,84.9
04.937,84.41
04.953,78.58
04.968,67.76
04.984,53.05
05.000,36.0
05.015,18.22
05.031,1.19
05.046,-13.89
05.062,-25.96
05.078,-34.14
05.093,-37.83
05.109,-36.91
05.125,-31.96
05.140,-24.2
05.156,-15.23
05.171,-6.51
05.187,0.92
05.203,6.65
05.218,10.73
05.234,13.49
05.250,15.27
05.265,16.34
05.281,16.87
05.296,17.01
05.312,16.81
05.328,16.31
05.343,15.43
05.359,14.1
05.375,12.22
05.390,9.71
05.406,6.51
05.421,2.54
05.437,-2.23
05.453,-7.72
05.468,-13.74
05.484,-19.84
05.500,-25.42
05.515,-29.86
05.531,-32.73
05.546,-33.89
05.562,-33.6
05.578,-32.32
05.593,-30.56
05.609,-28.8
05.625,-27.33
05.640,-26.39
05.656,-26.15
05.671,-26.63
05.687,-27.61
05.703,-28.61
05.718,-28.97
05.734,-28.13
05.750,-25.85
05.765,-22.33
05.781,-18.1
05.796,-13.69
05.812,-9.34
05.828,-4.89
05.843,0.09
05.859,6.02
05.875,13.12
05.890,21.32
05.906,30.36
05.921,39.86
05.937,49.39
05.953,58.53
05.968,66.78
05.984,73.6
06.000,78.33
06.015,80.26
06.031,78.69
06.046,73.16
06.062,63.62
06.078,50.56
06.093,35.04
06.109,18.45
06.125,2.35
06.140,-11.83
06.156,-22.98
06.171,-30.33
06.187,-33.58
06.203,-32.86
06.218,-28.73
06.234,-22.14
06.250,-14.22
06.265,-6.16
06.281,1.0
06.296,6.52
06.312,10.06
06.328,11.84
06.343,12.51
06.359,12.95
06.375,13.88
06.390,15.43
06.406,16.96
06.421,17.31
06.437,15.23
06.453,9.98
06.468,1.64
06.484,-8.98
06.500,-20.73
06.515,-32.44
06.531,-43.15
06.546,-52.13
06.562,-58.75
06.578,-62.46
06.593,-62.97
06.609,-60.4
06.625,-55.38
06.640,-48.92
06.656,-42.09
06.671,-35.74
06.687,-30.31
06.703,-25.82
06.718,-22.1
06.734,-18.95
06.750,-16.27
06.765,-14.04
06.781,-12.22
06.796,-10.64
06.812,-9.0
06.828,-6.93
06.843,-4.05
06.859,-0.12
06.875,4.96
06.890,11.16
06.906,18.37
06.921,26.42
06.937,35.08
06.953,44.07
06.968,53.08
06.984,61.83
07.000,70.13
07.015,77.95
07.031,85.29
07.046,92.0
07.062,97.58
07.078,101.04
07.093,101.02
07.109,96.26
07.125,86.02
07.140,70.41
07.156,50.53
07.171,28.09
07.187,5.02
07.203,-16.94
07.218,-36.46
07.234,-52.57
07.250,-64.6
07.265,-72.15
07.281,-75.17
07.296,-73.99
07.312,-69.38
07.328,-62.36
07.343,-53.97
07.359,-45.12
07.375,-36.5
07.390,-28.57
07.406,-21.58
07.421,-15.55
07.437,-10.35
07.453,-5.78
07.468,-1.72
07.484,1.7
07.500,4.09
07.515,4.94
07.531,3.94
07.546,1.11
07.562,-3.11
07.578,-8.11
07.593,-13.35
07.609,-18.54
07.625,-23.56
07.640,-28.31
07.656,-32.57
07.671,-35.93
07.687,-38.03
07.703,-38.7
07.718,-38.09
07.734,-36.57
07.750,-34.48
07.765,-32.01
07.781,-29.21
07.796,-26.1
07.812,-22.93
07.828,-20.11
07.843,-18.05
07.859,-16.85
07.875,-16.21
07.890,-15.52
07.906,-14.22
07.921,-12.05
07.937,-9.06
07.953,-5.44
07.968,-1.24
07.984,3.81
08.000,10.08
08.015,17.7
08.031,26.27
08.046,34.91
08.062,42.53
08.078,48.37
08.093,52.16
08.109,54.15
08.125,54.73
08.140,54.05
08.156,51.79
08.171,47.37
08.187,40.3
08.203,30.55
08.218,18.82
08.234,6.3
08.250,-5.62
08.265,-15.71
08.281,-23.17
08.296,-27.67
08.312,-29.28
08.328,-28.37
08.343,-25.45
08.359,-21.14
08.375,-16.04
08.390,-10.68
08.406,-5.34
08.421,-0.1
08.437,5.16
08.453,10.58
08.468,16.18
08.484,21.79
08.500,27.15
08.515,31.97
08.531,36.05
08.546,39.31
08.562,41.58
08.578,42.53
08.593,41.56
08.609,38.02
08.625,31.54
08.640,22.32
08.656,11.28
08.671,-0.2
08.687,-10.7
08.703,-19.3
08.718,-25.77
08.734,-30.48
08.750,-34.01
08.765,-36.78
08.781,-38.87
08.796,-40.01
08.812,-39.9
08.828,-38.41
08.843,-35.71
08.859,-32.25
08.875,-28.58
08.890,-25.22
08.906,-22.48
08.921,-20.47
08.937,-19.09
08.953,-18.08
08.968,-17.12
08.984,-15.95
09.000,-14.34
09.015,-12.19
09.031,-9.44
09.046,-6.01
09.062,-1.87
09.078,3.0
09.093,8.47
09.109,14.26
09.125,20.0
09.140,25.36
09.156,30.2
09.171,34.69
09.187,39.32
09.203,44.68
09.218,51.13
09.234,58.45
09.250,65.7
09.265,71.31
09.281,73.48
09.296,70.71
09.312,62.3
09.328,48.65
09.343,31.02
09.359,11.21
09.375,-9.0
09.390,-28.19
09.406,-45.29
09.421,-59.41
09.437,-69.69
09.453,-75.26
09.468,-75.53
09.484,-70.53
09.500,-61.18
09.515,-49.13
09.531,-36.31
09.546,-24.32
09.562,-14.01
09.578,-5.42
09.593,1.96
09.609,8.69
09.625,15.03
09.640,20.93
09.656,26.07
09.671,30.07
09.687,32.65
09.703,33.68
09.718,33.07
09.734,30.83
09.750,27.08
09.765,22.06
09.781,16.19
09.796,9.9
09.812,3.54
09.828,-2.75
09.843,-9.02
09.859,-15.41
09.875,-22.01
09.890,-28.76
09.906,-35.42
09.921,-41.61
09.937,-46.86
09.953,-50.68
09.968,-52.67
09.984,-52.65
10.000,-50.7
10.015,-47.19
10.031,-42.71
10.046,-37.92
10.062,-33.33
10.078,-29.17
10.093,-25.36
10.109,-21.57
10.125,-17.4
10.140,-12.59
10.156,-7.06
10.171,-0.98
10.187,5.35
10.203,11.68
10.218,17.85
10.234,23.83
10.250,29.7
10.265,35.63
10.281,41.71
10.296,48.1
10.312,54.91
10.328,62.21
10.343,69.95
10.359,77.73
10.375,84.66
10.390,89.3
10.406,89.97
10.421,85.17
10.437,74.11
10.453,57.14
10.468,35.83
10.484,12.61
10.500,-9.83
10.515,-29.15
10.531,-43.89
10.546,-53.5
10.562,-58.14
10.578,-58.35
10.593,-54.69
10.609,-47.79
10.625,-38.35
10.640,-27.34
10.656,-15.97
10.671,-5.37
10.687,3.58
10.703,10.56
10.718,15.68
10.734,19.32
10.750,21.75
10.765,23.14
10.781,23.49
10.796,22.92
10.812,21.79
10.828,20.46
10.843,19.06
10.859,17.23
10.875,14.11
10.890,8.68
10.906,0.25
10.921,-11.18
10.937,-24.83
10.953,-39.38
10.968,-53.34
10.984,-65.36
11.000,-74.46
11.015,-79.98
11.031,-81.61
11.046,-79.41
11.062,-73.8
11.078,-65.58
11.093,-55.8
11.109,-45.62
11.125,-36.05
11.140,-27.82
11.156,-21.3
11.171,-16.44
11.187,-12.91
11.203,-10.12
11.218,-7.44
11.234,-4.3
11.250,-0.4
11.265,4.33
11.281,9.66
11.296,15.16
11.312,20.44
11.328,25.21
11.343,29.45
11.359,33.36
11.375,37.3
11.390,41.69
11.406,46.89
11.421,53.1
11.437,60.19
11.453,67.59
11.468,74.23
11.484,78.65
11.500,79.31
11.515,75.14
11.531,66.0
11.546,52.8
11.562,37.37
11.578,21.7
11.593,7.42
11.609,-4.75
11.625,-14.88
11.640,-23.45
11.656,-30.8
11.671,-36.82
11.687,-40.98
11.703,-42.67
11.718,-41.55
11.734,-37.79
11.750,-32.05
11.765,-25.14
11.781,-17.84
11.796,-10.69
11.812,-3.97
11.828,2.16
11.843,7.67
11.859,12.56
11.875,16.91
11.890,20.82
11.906,24.33
11.921,27.21
11.937,28.9
11.953,28.61
11.968,25.45
11.984,18.86
12.000,8.82
12.015,-4.02
12.031,-18.41
12.046,-32.77
12.062,-45.41
12.078,-54.9
12.093,-60.32
12.109,-61.44
12.125,-58.73
12.140,-53.28
12.156,-46.43
12.171,-39.46
12.187,-33.22
12.203,-28.09
12.218,-24.06
12.234,-20.95
12.250,-18.63
12.265,-16.96
12.281,-15.79
12.296,-14.77
12.312,-13.36
12.328,-11.01
12.343,-7.31
12.359,-2.23
12.375,3.92
12.390,10.61
12.406,17.31
12.421,23.66
12.437,29.62
12.453,35.38
12.468,41.22
12.484,47.34
12.500,53.79
12.515,60.5
12.531,67.35
12.546,74.15
12.562,80.53
12.578,85.88
12.593,89.28
12.609,89.71
12.625,86.31
12.640,78.71
12.656,67.19
12.671,52.57
12.687,35.96
12.703,18.44
12.718,0.9
12.734,-15.89
12.750,-31.21
12.765,-44.25
12.781,-54.18
12.796,-60.4
12.812,-62.76
12.828,-61.54
12.843,-57.42
12.859,-51.17
12.875,-43.48
12.890,-34.84
12.906,-25.62
12.921,-16.24
12.937,-7.21
12.953,0.86
12.968,7.4
12.984,12.1
13.000,14.88
13.015,15.87
13.031,15.11
13.046,12.52
13.062,7.9
13.078,1.15
13.093,-7.43
13.109,-16.99
13.125,-26.22
13.140,-33.78
13.156,-38.65
13.171,-40.45
13.187,-39.43
13.203,-36.35
13.218,-32.21
13.234,-28.01
13.250,-24.62
13.265,-22.59
13.281,-22.14
13.296,-22.99
13.312,-24.54
13.328,-25.99
13.343,-26.69
13.359,-26.39
13.375,-25.26
13.390,-23.76
13.406,-22.37
13.421,-21.25
13.437,-20.23
13.453,-18.84
13.468,-16.56
13.484,-13.05
13.500,-8.24
13.515,-2.33
13.531,4.33
13.546,11.3
13.562,18.16
13.578,24.61
13.593,30.49
13.609,35.93
13.625,41.34
13.640,47.39
13.656,54.86
13.671,64.34
13.687,75.89
13.703,88.74
13.718,101.23
13.734,111.1
13.750,115.93
13.765,113.96
13.781,104.52
13.796,88.36
13.812,67.33
13.828,43.92
13.843,20.55
13.859,-0.87
13.875,-19.12
13.890,-33.55
13.906,-43.9
13.921,-50.15
13.937,-52.49
13.953,-51.33
13.968,-47.22
13.984,-40.79
14.000,-32.63
14.015,-23.29
14.031,-13.25
14.046,-3.08
14.062,6.52
14.078,14.72
14.093,20.69
14.109,23.68
14.125,23.2
14.140,19.05
14.156,11.43
14.171,0.97
14.187,-11.28
14.203,-23.94
14.218,-35.54
14.234,-44.9
14.250,-51.37
14.265,-54.96
14.281,-56.2
14.296,-55.88
14.312,-54.76
14.328,-53.33
14.343,-51.86
14.359,-50.47
14.375,-49.25
14.390,-48.32
14.406,-47.64
14.421,-47.01
14.437,-46.07
14.453,-44.43
14.468,-41.9
14.484,-38.56
14.500,-34.8
14.515,-31.07
14.531,-27.73
14.546,-24.83
14.562,-22.09
14.578,-19.12
14.593,-15.56
14.609,-11.33
14.625,-6.64
14.640,-1.95
14.656,2.37
14.671,6.19
14.687,9.74
14.703,13.61
14.718,18.53
14.734,25.09
14.750,33.56
14.765,43.79
14.781,55.11
14.796,66.43
14.812,76.39
14.828,83.47
14.843,86.4
14.859,84.4
14.875,77.47
14.890,66.35
14.906,52.41
14.921,37.18
14.937,22.06
14.953,8.03
14.968,-4.41
14.984,-15.05
15.000,-23.8
15.015,-30.57
15.031,-35.24
15.046,-37.67
15.062,-37.78
15.078,-35.61
15.093,-31.37
15.109,-25.49
15.125,-18.55
15.140,-11.28
15.156,-4.41
15.171,1.49
15.187,6.11
15.203,9.46
15.218,11.82
15.234,13.53
15.250,14.88
15.265,15.96
15.281,16.73
15.296,17.01
15.312,16.59
15.328,15.28
15.343,12.84
15.359,9.1
15.375,3.91
15.390,-2.73
15.406,-10.54
15.421,-18.95
15.437,-27.21
15.453,-34.55
15.468,-40.38
15.484,-44.41
15.500,-46.67
15.515,-47.39
15.531,-46.91
15.546,-45.49
15.562,-43.4
15.578,-40.9
15.593,-38.22
15.609,-35.57
15.625,-32.99
15.640,-30.38
15.656,-27.47
15.671,-23.98
15.687,-19.82
15.703,-15.11
15.718,-10.14
15.734,-5.23
15.750,-0.49
15.765,4.25
15.781,9.42
15.796,15.5
15.812,22.8
15.828,31.34
15.843,40.86
15.859,50.98
15.875,61.33
15.890,71.64
15.906,81.64
15.921,90.84
15.937,98.31
15.953,102.72
15.968,102.69
15.984,97.21
16.000,86.16
16.015,70.35
16.031,51.34
16.046,30.85
16.062,10.29
16.078,-9.47
16.093,-27.93
16.109,-44.66
16.125,-59.06
16.140,-70.27
16.156,-77.47
16.171,-80.19
16.187,-78.55
16.203,-73.31
16.218,-65.68
16.234,-57.0
16.250,-48.49
16.265,-41.07
16.281,-35.25
16.296,-31.1
16.312,-28.31
16.328,-26.32
16.343,-24.4
16.359,-21.95
16.375,-18.66
16.390,-14.66
16.406,-10.55
16.421,-7.14
16.437,-5.16
16.453,-4.98
16.468,-6.48
16.484,-9.1
16.500,-12.09
16.515,-14.77
16.531,-16.79
16.546,-18.17
16.562,-19.14
16.578,-20.05
16.593,-21.08
16.609,-22.24
16.625,-23.25
16.640,-23.75
16.656,-23.41
16.671,-22.12
16.687,-20.07
16.703,-17.64
16.718,-15.24
16.734,-13.11
16.750,-11.25
16.765,-9.46
16.781,-7.49
16.796,-5.17
16.812,-2.47
16.828,0.56
16.843,3.94
16.859,7.83
16.875,12.56
16.890,18.49
16.906,25.86
16.921,34.64
16.937,44.48
16.953,54.75
16.968,64.75
16.984,73.95
17.000,82.09
17.015,89.23
17.031,95.48
17.046,100.72
17.062,104.24
17.078,104.89
17.093,101.26
17.109,92.33
17.125,77.98
17.140,59.12
17.156,37.61
17.171,15.61
17.187,-4.94
17.203,-22.79
17.218,-37.43
17.234,-48.89
17.250,-57.45
17.265,-63.35
17.281,-66.82
17.296,-68.08
17.312,-67.47
17.328,-65.36
17.343,-62.07
17.359,-57.74
17.375,-52.22
17.390,-45.31
17.406,-36.9
17.421,-27.33
17.437,-17.36
17.453,-8.07
17.468,-0.49
17.484,4.78
17.500,7.71
17.515,8.85
17.531,8.99
17.546,8.89
17.562,8.95
17.578,9.25
17.593,9.61
17.609,9.83
17.625,9.76
17.640,9.43
17.656,8.86
17.671,8.0
17.687,6.69
17.703,4.72
17.718,1.94
17.734,-1.67
17.750,-5.97
17.765,-10.83
17.781,-16.11
17.796,-21.64
17.812,-27.06
17.828,-31.87
17.843,-35.41
17.859,-37.18
17.875,-36.99
17.890,-34.95
17.906,-31.28
17.921,-26.07
17.937,-19.22
17.953,-10.58
17.968,-0.23
17.984,11.33
18.000,23.37
18.015,35.22
18.031,46.66
18.046,57.95
18.062,69.52
18.078,81.6
18.093,93.92
18.109,105.83
18.125,116.72
18.140,126.29
18.156,134.63
18.171,142.04
18.187,148.47
18.203,153.32
18.218,155.46
18.234,153.6
18.250,146.82
18.265,134.95
18.281,118.59
18.296,98.8
18.312,76.74
18.328,53.23
18.343,28.67
18.359,3.22
18.375,-22.86
18.390,-48.98
18.406,-74.07
18.421,-96.73
18.437,-115.5
18.453,-129.03
18.468,-136.38
18.484,-137.06
18.500,-131.15
18.515,-119.37
18.531,-102.96
18.546,-83.51
18.562,-62.69
18.578,-42.06
18.593,-22.85
18.609,-5.98
18.625,7.91
18.640,18.4
18.656,25.16
18.671,27.85
18.687,26.13
18.703,19.75
18.718,8.84
18.734,-5.74
18.750,-22.29
18.765,-38.43
18.781,-51.78
18.796,-60.73
18.812,-64.97
18.828,-65.48
18.843,-64.01
18.859,-62.28
18.875,-61.47
18.890,-62.03
18.906,-63.98
18.921,-67.23
18.937,-71.72
18.953,-77.23
18.968,-83.19
18.984,-88.6
19.000,-92.21
19.015,-92.94
19.031,-90.19
19.046,-84.06
19.062,-75.18
19.078,-64.46
19.093,-52.82
19.109,-40.98
19.125,-29.36
19.140,-18.13
19.156,-7.28
19.171,3.26
19.187,13.45
19.203,23.14
19.218,32.02
19.234,39.87
19.250,46.64
19.265,52.61
19.281,58.32
19.296,64.45
19.312,71.45
19.328,79.36
19.343,87.55
19.359,94.67
19.375,98.9
19.390,98.33
19.406,91.54
19.421,78.0
19.437,58.33
19.453,34.25
19.468,8.19
19.484,-17.16
19.500,-39.27
19.515,-56.04
19.531,-66.0
19.546,-68.47
19.562,-63.66
19.578,-52.7
19.593,-37.5
19.609,-20.37
19.625,-3.59
19.640,11.12
19.656,22.76
19.671,30.99
19.687,36.02
19.703,38.33
19.718,38.54
19.734,37.29
19.750,35.09
19.765,32.16
19.781,28.35
19.796,23.19
19.812,16.18
19.828,7.13
19.843,-3.52
19.859,-14.74
19.875,-25.15
19.890,-33.49
19.906,-39.03
19.921,-41.76
19.937,-42.36
19.953,-41.88
19.968,-41.41
19.984,-41.75
20.000,-43.19
20.015,-45.52
20.031,-48.13
20.046,-50.2
20.062,-51.08
20.078,-50.41
20.093,-48.29
20.109,-45.07
20.125,-41.21
20.140,-36.97
20.156,-32.3
20.171,-26.97
20.187,-20.81
20.203,-13.95
20.218,-6.92
20.234,-0.38
20.250,5.24
20.265,9.98
20.281,14.49
20.296,19.56
20.312,25.76
20.328,33.11
20.343,41.0
20.359,48.63
20.375,55.43
20.390,61.33
20.406,66.67
20.421,71.84
20.437,76.66
20.453,80.2
20.468,80.9
20.484,77.11
20.500,67.8
20.515,52.98
20.531,33.78
20.546,12.15
20.562,-9.57
20.578,-29.13
20.593,-44.64
20.609,-54.66
20.625,-58.48
20.640,-56.14
20.656,-48.63
20.671,-37.65
20.687,-25.32
20.703,-13.5
20.718,-3.32
20.734,4.98
20.750,11.82
20.765,17.83
20.781,23.36
20.796,28.34
20.812,32.38
20.828,35.08
20.843,36.31
20.859,36.36
20.875,35.76
20.890,35.03
20.906,34.28
20.921,33.21
20.937,31.13
20.953,27.38
20.968,21.64
20.984,14.15
21.000,5.64
21.015,-2.99
21.031,-10.97
21.046,-17.97
21.062,-24.04
21.078,-29.45
21.093,-34.42
21.109,-38.98
21.125,-43.01
21.140,-46.33
21.156,-48.85
21.171,-50.57
21.187,-51.6
21.203,-51.99
21.218,-51.73
21.234,-50.75
21.250,-48.93
21.265,-46.29
21.281,-42.89
21.296,-38.93
21.312,-34.55
21.328,-29.91
21.343,-25.03
21.359,-19.91
21.375,-14.49
21.390,-8.71
21.406,-2.54
21.421,4.03
21.437,10.93
21.453,18.09
21.468,25.42
21.484,32.85
21.500,40.35
21.515,47.88
21.531,55.45
21.546,62.99
21.562,70.39
21.578,77.53
21.593,84.25
21.609,90.26
21.625,95.06
21.640,97.91
21.656,97.89
21.671,94.25
21.687,86.67
21.703,75.54
21.718,61.79
21.734,46.6
21.750,31.01
21.765,15.61
21.781,0.61
21.796,-13.9
21.812,-27.68
21.828,-40.17
21.843,-50.63
21.859,-58.37
21.875,-63.0
21.890,-64.42
21.906,-62.76
21.921,-58.22
21.937,-51.04
21.953,-41.57
21.968,-30.42
21.984,-18.56
22.000,-7.19
22.015,2.48
22.031,9.58
22.046,13.76
22.062,15.18
22.078,14.23
22.093,11.3
22.109,6.56
22.125,0.02
22.140,-8.23
22.156,-17.75
22.171,-27.66
22.187,-36.7
22.203,-43.57
22.218,-47.36
22.234,-47.79
22.250,-45.32
22.265,-40.95
22.281,-35.91
22.296,-31.32
22.312,-27.94
22.328,-26.11
22.343,-25.72
22.359,-26.44
22.375,-27.77
22.390,-29.15
22.406,-30.02
22.421,-29.92
22.437,-28.51
22.453,-25.78
22.468,-21.94
22.484,-17.42
22.500,-12.68
22.515,-8.0
22.531,-3.39
22.546,1.37
22.562,6.56
22.578,12.34
22.593,18.59
22.609,25.04
22.625,31.36
22.640,37.33
22.656,42.95
22.671,48.4
22.687,53.98
22.703,60.03
22.718,66.85
22.734,74.66
22.750,83.59
22.765,93.49
22.781,103.69
22.796,112.89
22.812,119.14
22.828,120.29
22.843,114.62
22.859,101.54
22.875,81.91
22.890,57.77
22.906,31.76
22.921,6.25
22.937,-17.15
22.953,-37.7
22.968,-55.13
22.984,-69.2
23.000,-79.47
23.015,-85.42
23.031,-86.82
23.046,-83.97
23.062,-77.71
23.078,-69.12
23.093,-59.18
23.109,-48.51
23.125,-37.4
23.140,-25.97
23.156,-14.53
23.171,-3.65
23.187,5.9
23.203,13.32
23.218,18.04
23.234,19.79
23.250,18.65
23.265,14.99
23.281,9.54
23.296,3.2
23.312,-3.02
23.328,-8.22
23.343,-11.86
23.359,-13.84
23.375,-14.59
23.390,-14.73
23.406,-14.93
23.421,-15.63
23.437,-17.07
23.453,-19.31
23.468,-22.37
23.484,-26.18
23.500,-30.46
23.515,-34.68
23.531,-38.07
23.546,-39.93
23.562,-39.9
23.578,-38.25
23.593,-35.76
23.609,-33.39
23.625,-31.83
23.640,-31.09
23.656,-30.55
23.671,-29.14
23.687,-25.98
23.703,-20.76
23.718,-13.97
23.734,-6.63
23.750,0.2
23.765,5.91
23.781,10.58
23.796,14.94
23.812,20.02
23.828,26.68
23.843,35.41
23.859,46.22
23.875,58.67
23.890,71.89
23.906,84.59
23.921,95.03
23.937,101.29
23.953,101.65
23.968,95.17
23.984,82.13
24.000,64.11
24.015,43.59
24.031,23.44
24.046,6.22
24.062,-6.18
24.078,-12.7
24.093,-13.1
24.109,-7.89
24.125,1.75
24.140,14.08
24.156,27.02
24.171,38.6
24.187,47.39
24.203,52.87
24.218,55.58
24.234,56.76
24.250,57.79
24.265,59.58
24.281,62.09
24.296,64.41
24.312,65.2
24.328,63.58
24.343,59.72
24.359,55.15
24.375,52.34
24.390,53.8
24.406,60.95
24.421,73.41
24.437,88.86
24.453,103.65
24.468,113.68
24.484,115.5
24.500,107.13
24.515,88.64
24.531,62.19
24.546,31.53
24.562,0.98
24.578,-25.86
24.593,-47.27
24.609,-63.77
24.625,-77.73
24.640,-92.04
24.656,-108.79
24.671,-128.28
24.687,-148.93
24.703,-167.95
24.718,-182.46
24.734,-190.39
24.750,-190.91
24.765,-184.4
24.781,-172.05
24.796,-155.55
24.812,-136.69
24.828,-117.25
24.843,-98.78
24.859,-82.41
24.875,-68.73
24.890,-57.65
24.906,-48.35
24.921,-39.54
24.937,-29.81
24.953,-18.08
24.968,-4.0
24.984,11.97
25.000,28.74
25.015,45.03
25.031,59.81
25.046,72.57
25.062,83.38
25.078,92.7
25.093,101.12
25.109,109.11
25.125,116.77
25.140,123.76
25.156,129.26
25.171,132.15
25.187,131.31
25.203,125.91
25.218,115.76
25.234,101.3
25.250,83.46
25.265,63.27
25.281,41.58
25.296,18.9
25.312,-4.48
25.328,-28.26
25.343,-51.87
25.359,-74.38
25.375,-94.59
25.390,-111.16
25.406,-122.91
25.421,-129.02
25.437,-129.3
25.453,-124.22
25.468,-114.91
25.484,-102.96
25.500,-90.06
25.515,-77.66
25.531,-66.79
25.546,-57.88
25.562,-50.8
25.578,-45.01
25.593,-39.68
25.609,-34.05
25.625,-27.72
25.640,-20.96
25.656,-14.73
25.671,-10.38
25.687,-9.09
25.703,-11.29
25.718,-16.48
25.734,-23.35
25.750,-30.37
25.765,-36.35
25.781,-40.79
25.796,-43.79
25.812,-45.85
25.828,-47.47
25.843,-49.0
25.859,-50.61
25.875,-52.35
25.890,-54.23
25.906,-56.15
25.921,-57.85
25.937,-58.87
25.953,-58.67
25.968,-56.75
25.984,-52.79
26.000,-46.77
26.015,-38.95
26.031,-29.81
26.046,-19.98
26.062,-10.14
26.078,-0.87
26.093,7.42
26.109,14.6
26.125,20.85
26.140,26.53
26.156,32.06
26.171,37.74
26.187,43.56
26.203,49.36
26.218,54.89
26.234,60.0
26.250,64.73
26.265,69.32
26.281,74.02
26.296,78.97
26.312,83.97
26.328,88.44
26.343,91.43
26.359,91.74
26.375,88.19
26.390,79.94
26.406,66.81
26.421,49.37
26.437,28.92
26.453,7.23
26.468,-13.76
26.484,-32.28
26.500,-46.81
26.515,-56.19
26.531,-59.69
26.546,-57.14
26.562,-49.03
26.578,-36.57
26.593,-21.49
26.609,-5.86
26.625,8.35
26.640,19.52
26.656,26.72
26.671,29.98
26.687,30.2
26.703,28.94
26.718,27.94
26.734,28.37
26.750,30.44
26.765,33.21
26.781,35.09
26.796,34.45
26.812,30.3
26.828,22.52
26.843,11.78
26.859,-0.91
26.875,-14.46
26.890,-27.93
26.906,-40.56
26.921,-51.75
26.937,-61.1
26.953,-68.43
26.968,-73.7
26.984,-76.87
27.000,-77.75
27.015,-76.12
27.031,-71.89
27.046,-65.36
27.062,-57.28
27.078,-48.67
27.093,-40.37
27.109,-32.75
27.125,-25.58
27.140,-18.38
27.156,-10.79
27.171,-2.78
27.187,5.26
27.203,12.82
27.218,19.59
27.234,25.69
27.250,31.54
27.265,37.66
27.281,44.39
27.296,51.73
27.312,59.42
27.328,67.08
27.343,74.31
27.359,80.67
27.375,85.48
27.390,87.73
27.406,86.16
27.421,79.64
27.437,67.6
27.453,50.45
27.468,29.59
27.484,7.12
27.500,-14.83
27.515,-34.5
27.531,-50.84
27.546,-63.3
27.562,-71.52
27.578,-75.17
27.593,-73.91
27.609,-67.71
27.625,-57.09
27.640,-43.31
27.656,-28.08
27.671,-13.12
27.687,0.32
27.703,11.67
27.718,20.94
27.734,28.45
27.750,34.52
27.765,39.36
27.781,43.02
27.796,45.5
27.812,46.79
27.828,46.79
27.843,45.33
27.859,42.05
27.875,36.6
27.890,28.71
27.906,18.37
27.921,5.92
27.937,-7.91
27.953,-22.1
27.968,-35.45
27.984,-46.83
28.000,-55.46
28.015,-61.09
28.031,-64.02
28.046,-64.92
28.062,-64.47
28.078,-63.06
28.093,-60.68
28.109,-57.08
28.125,-52.06
28.140,-45.74
28.156,-38.63
28.171,-31.42
28.187,-24.68
28.203,-18.61
28.218,-13.01
28.234,-7.46
28.250,-1.63
28.265,4.52
28.281,10.78
28.296,16.89
28.312,22.74
28.328,28.53
28.343,34.67
28.359,41.52
28.375,49.22
28.390,57.54
28.406,66.02
28.421,74.01
28.437,80.89
28.453,85.95
28.468,88.39
28.484,87.29
28.500,81.82
28.515,71.49
28.531,56.51
28.546,37.8
28.562,16.85
28.578,-4.6
28.593,-24.92
28.609,-42.68
28.625,-56.7
28.640,-65.9
28.656,-69.39
28.671,-66.72
28.687,-58.19
28.703,-45.11
28.718,-29.64
28.734,-14.25
28.750,-0.96
28.765,9.22
28.781,16.39
28.796,21.49
28.812,25.58
28.828,29.41
28.843,33.22
28.859,36.91
28.875,40.26
28.890,43.08
28.906,45.04
28.921,45.6
28.937,43.99
28.953,39.55
28.968,32.0
28.984,21.8
29.000,9.92
29.015,-2.52
29.031,-14.69
29.046,-26.19
29.062,-36.99
29.078,-47.01
29.093,-55.96
29.109,-63.26
29.125,-68.26
29.140,-70.54
29.156,-69.93
29.171,-66.59
29.187,-60.82
29.203,-53.03
29.218,-43.83
29.234,-33.99
29.250,-24.54
29.265,-16.49
29.281,-10.64
29.296,-7.24
29.312,-5.94
29.328,-5.83
29.343,-5.72
29.359,-4.61
29.375,-1.87
29.390,2.58
29.406,8.38
29.421,15.01
29.437,21.98
29.453,29.03
29.468,36.11
29.484,43.32
29.500,50.77
29.515,58.5
29.531,66.44
29.546,74.33
29.562,81.7
29.578,87.71
29.593,91.18
29.609,90.74
29.625,85.22
29.640,74.12
29.656,57.98
29.671,38.33
29.687,17.43
29.703,-2.38
29.718,-19.26
29.734,-32.25
29.750,-41.12
29.765,-46.11
29.781,-47.53
29.796,-45.57
29.812,-40.38
29.828,-32.28
29.843,-21.91
29.859,-10.26
29.875,1.54
29.890,12.5
29.906,21.98
29.921,29.7
29.937,35.77
29.953,40.41
29.968,43.95
29.984,46.69
30.000,48.94
30.015,50.83
30.031,52.24
30.046,52.65
30.062,51.17
30.078,46.7
30.093,38.24
30.109,25.29
30.125,8.03
30.140,-12.58
30.156,-34.86
30.171,-56.65
30.187,-75.56
30.203,-89.41
30.218,-96.63
30.234,-96.71
30.250,-90.46
30.265,-79.81
30.281,-67.33
30.296,-55.5
30.312,-46.15
30.328,-40.08
30.343,-37.22
30.359,-36.9
30.375,-38.24
30.390,-40.29
30.406,-42.14
30.421,-42.96
30.437,-42.1
30.453,-39.35
30.468,-34.91
30.484,-29.41
30.500,-23.51
30.515,-17.64
30.531,-11.77
30.546,-5.58
30.562,1.27
30.578,8.85
30.593,16.83
30.609,24.58
30.625,31.49
30.640,37.17
30.656,41.56
30.671,44.66
30.687,46.36
30.703,46.33
30.718,44.2
30.734,39.8
30.750,33.41
30.765,25.71
30.781,17.52
30.796,9.52
30.812,2.05
30.828,-4.76
30.843,-10.68
30.859,-15.2
30.875,-17.45
30.890,-16.64
30.906,-12.44
30.921,-5.24
30.937,3.92
30.953,13.8
30.968,23.36
30.984,32.01
31.000,39.44
31.015,45.42
31.031,49.57
31.046,51.33
31.062,50.34
31.078,46.73
31.093,41.29
31.109,35.25
31.125,29.73
31.140,25.11
31.156,20.87
31.171,15.82
31.187,8.69
31.203,-1.05
31.218,-12.89
31.234,-25.36
31.250,-36.64
31.265,-45.21
31.281,-50.43
31.296,-52.58
31.312,-52.59
31.328,-51.52
31.343,-50.21
31.359,-48.96
31.375,-47.58
31.390,-45.57
31.406,-42.35
31.421,-37.62
31.437,-31.52
31.453,-24.66
31.468,-17.79
31.484,-11.49
31.500,-5.8
31.515,-0.28
31.531,5.74
31.546,12.72
31.562,20.59
31.578,28.73
31.593,36.31
31.609,42.7
31.625,47.81
31.640,52.09
31.656,56.29
31.671,61.1
31.687,66.89
31.703,73.68
31.718,81.23
31.734,89.09
31.750,96.63
31.765,102.89
31.781,106.54
31.796,106.08
31.812,100.23
31.828,88.44
31.843,71.17
31.859,49.96
31.875,26.93
31.890,4.27
31.906,-16.38
31.921,-34.14
31.937,-48.81
31.953,-60.47
31.968,-69.21
31.984,-74.94
32.000,-77.5
32.015,-76.95
32.031,-73.7
32.046,-68.54
32.062,-62.37
32.078,-55.85
32.093,-49.2
32.109,-42.26
32.125,-34.67
32.140,-26.3
32.156,-17.44
32.171,-8.74
32.187,-0.95
32.203,5.29
32.218,9.61
32.234,11.9
32.250,12.24
32.265,10.84
32.281,8.09
32.296,4.51
32.312,0.74
32.328,-2.76
32.343,-5.89
32.359,-8.99
32.375,-12.75
32.390,-17.84
32.406,-24.54
32.421,-32.56
32.437,-40.98
32.453,-48.56
32.468,-54.04
32.484,-56.55
32.500,-55.72
32.515,-51.8
32.531,-45.6
32.546,-38.24
32.562,-30.89
32.578,-24.46
32.593,-19.44
32.609,-15.79
32.625,-13.09
32.640,-10.68
32.656,-8.0
32.671,-4.68
32.687,-0.7
32.703,3.74
32.718,8.26
32.734,12.54
32.750,16.48
32.765,20.27
32.781,24.42
32.796,29.59
32.812,36.47
32.828,45.48
32.843,56.57
32.859,69.02
32.875,81.31
32.890,91.3
32.906,96.7
32.921,95.7
32.937,87.56
32.953,72.95
32.968,53.7
32.984,32.26
33.000,10.93
33.015,-8.7
33.031,-25.81
33.046,-40.1
33.062,-51.3
33.078,-58.97
33.093,-62.59
33.109,-61.91
33.125,-57.28
33.140,-49.69
33.156,-40.48
33.171,-30.92
33.187,-21.9
33.203,-13.79
33.218,-6.62
33.234,-0.38
33.250,4.88
33.265,9.0
33.281,11.96
33.296,13.93
33.312,15.42
33.328,17.0
33.343,19.01
33.359,21.35
33.375,23.28
33.390,23.68
33.406,21.35
33.421,15.5
33.437,6.01
33.453,-6.43
33.468,-20.54
33.484,-34.69
33.500,-47.3
33.515,-57.06
33.531,-63.11
33.546,-65.16
33.562,-63.47
33.578,-58.78
33.593,-52.14
33.609,-44.68
33.625,-37.44
33.640,-31.09
33.656,-25.94
33.671,-21.98
33.687,-18.99
33.703,-16.64
33.718,-14.54
33.734,-12.34
33.750,-9.73
33.765,-6.57
33.781,-2.91
33.796,1.04
33.812,5.02
33.828,8.94
33.843,12.95
33.859,17.49
33.875,23.11
33.890,30.28
33.906,39.19
33.921,49.75
33.937,61.48
33.953,73.57
33.968,84.71
33.984,93.2
34.000,97.17
34.015,95.02
34.031,86.03
34.046,70.7
34.062,50.74
34.078,28.59
34.093,6.7
34.109,-13.09
34.125,-29.76
34.140,-42.92
34.156,-52.44
34.171,-58.07
34.187,-59.6
34.203,-57.05
34.218,-51.01
34.234,-42.67
34.250,-33.52
34.265,-24.88
34.281,-17.49
34.296,-11.48
34.312,-6.54
34.328,-2.3
34.343,1.44
34.359,4.75
34.375,7.72
34.390,10.65
34.406,14.01
34.421,18.11
34.437,22.82
34.453,27.39
34.468,30.56
34.484,31.11
34.500,28.22
34.515,21.89
34.531,12.83
34.546,2.24
34.562,-8.52
34.578,-18.24
34.593,-26.0
34.609,-31.29
34.625,-34.06
34.640,-34.72
34.656,-34.13
34.671,-33.25
34.687,-32.92
34.703,-33.51
34.718,-34.93
34.734,-36.71
34.750,-38.32
34.765,-39.29
34.781,-39.33
34.796,-38.32
34.812,-36.13
34.828,-32.78
34.843,-28.39
34.859,-23.3
34.875,-18.02
34.890,-13.07
34.906,-8.7
34.921,-4.86
34.937,-1.17
34.953,2.9
34.968,7.84
34.984,13.93
35.000,21.22
35.015,29.55
35.031,38.61
35.046,47.93
35.062,56.7
35.078,63.75
35.093,67.59
35.109,66.79
35.125,60.42
35.140,48.57
35.156,32.54
35.171,14.54
35.187,-2.89
35.203,-17.69
35.218,-28.68
35.234,-35.64
35.250,-38.94
35.265,-39.14
35.281,-36.78
35.296,-32.43
35.312,-26.85
35.328,-21.06
35.343,-16.1
35.359,-12.59
35.375,-10.44
35.390,-8.89
35.406,-6.83
35.421,-3.31
35.437,1.97
35.453,8.62
35.468,15.81
35.484,22.7
35.500,28.8
35.515,34.02
35.531,38.58
35.546,42.62
35.562,46.0
35.578,48.22
35.593,48.5
35.609,46.09
35.625,40.5
35.640,31.71
35.656,20.2
35.671,6.86
35.687,-7.14
35.703,-20.52
35.718,-32.1
35.734,-40.94
35.750,-46.52
35.765,-48.81
35.781,-48.24
35.796,-45.59
35.812,-41.74
35.828,-37.43
35.843,-33.12
35.859,-29.06
35.875,-25.41
35.890,-22.25
35.906,-19.58
35.921,-17.13
35.937,-14.31
35.953,-10.33
35.968,-4.49
35.984,3.45
36.000,13.07
36.015,23.45
36.031,33.52
36.046,42.55
36.062,50.32
36.078,57.16
36.093,63.69
36.109,70.54
36.125,78.17
36.140,86.74
36.156,95.97
36.171,104.96
36.187,112.08
36.203,115.15
36.218,111.95
36.234,100.91
36.250,81.72
36.265,55.55
36.281,24.84
36.296,-7.36
36.312,-38.06
36.328,-64.86
36.343,-86.09
36.359,-100.81
36.375,-108.67
36.390,-109.9
36.406,-105.32
36.421,-96.33
36.437,-84.61
36.453,-71.87
36.468,-59.3
36.484,-47.45
36.500,-36.31
36.515,-25.65
36.531,-15.39
36.546,-5.72
36.562,3.01
36.578,10.56
36.593,17.01
36.609,22.69
36.625,27.84
36.640,32.39
36.656,35.84
36.671,37.51
36.687,36.9
36.703,33.96
36.718,28.99
36.734,22.35
36.750,14.21
36.765,4.49
36.781,-6.9
36.796,-19.73
36.812,-33.23
36.828,-46.16
36.843,-57.13
36.859,-65.01
36.875,-69.24
36.890,-69.84
36.906,-67.36
36.921,-62.72
36.937,-56.89
36.953,-50.75
36.968,-44.87
36.984,-39.34
37.000,-33.88
37.015,-27.96
37.031,-21.19
37.046,-13.5
37.062,-5.3
37.078,2.78
37.093,10.2
37.109,16.79
37.125,22.84
37.140,28.85
37.156,35.18
37.171,41.88
37.187,48.55
37.203,54.65
37.218,59.83
37.234,63.95
37.250,66.96
37.265,68.5
37.281,67.68
37.296,63.11
37.312,53.55
37.328,38.51
37.343,18.81
37.359,-3.42
37.375,-25.41
37.390,-44.54
37.406,-59.02
37.421,-68.21
37.437,-72.33
37.453,-72.08
37.468,-68.27
37.484,-61.68
37.500,-53.06
37.515,-43.17
37.531,-32.77
37.546,-22.39
37.562,-12.26
37.578,-2.32
37.593,7.52
37.609,17.1
37.625,25.85
37.640,32.83
37.656,37.03
37.671,37.79
37.687,35.15
37.703,29.94
37.718,23.61
37.734,17.74
37.750,13.5
37.765,11.25
37.781,10.44
37.796,9.9
37.812,8.4
37.828,5.12
37.843,-0.09
37.859,-6.69
37.875,-13.8
37.890,-20.51
37.906,-26.16
37.921,-30.4
37.937,-33.17
37.953,-34.58
37.968,-34.84
37.984,-34.18
38.000,-32.79
38.015,-30.78
38.031,-28.15
38.046,-24.82
38.062,-20.71
38.078,-15.76
38.093,-9.94
38.109,-3.22
38.125,4.45
38.140,13.03
38.156,22.17
38.171,31.18
38.187,39.08
38.203,44.94
38.218,48.25
38.234,49.2
38.250,48.61
38.265,47.67
38.281,47.44
38.296,48.57
38.312,51.22
38.328,55.12
38.343,59.72
38.359,64.37
38.375,68.19
38.390,70.11
38.406,69.03
38.421,63.93
38.437,54.27
38.453,40.14
38.468,22.34
38.484,2.21
38.500,-18.61
38.515,-38.42
38.531,-55.63
38.546,-68.85
38.562,-76.95
38.578,-79.25
38.593,-75.7
38.609,-66.96
38.625,-54.38
38.640,-39.73
38.656,-24.84
38.671,-11.2
38.687,0.34
38.703,9.51
38.718,16.6
38.734,22.1
38.750,26.46
38.765,29.85
38.781,32.08
38.796,32.74
38.812,31.46
38.828,28.21
38.843,23.49
38.859,18.22
38.875,13.46
38.890,9.91
38.906,7.65
38.921,6.1
38.937,4.29
38.953,1.22
38.968,-3.72
38.984,-10.64
39.000,-19.2
39.015,-28.66
39.031,-38.13
39.046,-46.59
39.062,-53.09
39.078,-56.94
39.093,-57.91
39.109,-56.27
39.125,-52.71
39.140,-48.09
39.156,-43.17
39.171,-38.45
39.187,-34.16
39.203,-30.29
39.218,-26.66
39.234,-23.02
39.250,-19.0
39.265,-14.27
39.281,-8.59
39.296,-1.99
39.312,5.2
39.328,12.38
39.343,18.95
39.359,24.53
39.375,29.07
39.390,32.88
39.406,36.49
39.421,40.44
39.437,45.16
39.453,50.81
39.468,57.43
39.484,64.86
39.500,72.69
39.515,80.09
39.531,85.68
39.546,87.71
39.562,84.55
39.578,75.23
39.593,60.03
39.609,40.49
39.625,18.96
39.640,-2.12
39.656,-20.94
39.671,-36.59
39.687,-48.83
39.703,-57.62
39.718,-62.75
39.734,-63.8
39.750,-60.57
39.765,-53.49
39.781,-43.76
39.796,-33.08
39.812,-23.09
39.828,-14.84
39.843,-8.52
39.859,-3.67
39.875,0.34
39.890,3.91
39.906,7.01
39.921,9.41
39.937,11.01
39.953,11.93
39.968,12.44
39.984,12.56
40.000,11.88
40.015,9.52
40.031,4.62
40.046,-3.15
40.062,-13.24
40.078,-24.2
40.093,-34.14
40.109,-41.31
40.125,-44.71
40.140,-44.25
40.156,-40.65
40.171,-35.2
40.187,-29.3
40.203,-24.19
40.218,-20.68
40.234,-19.02
40.250,-18.9
40.265,-19.62
40.281,-20.3
40.296,-20.18
40.312,-18.81
40.328,-16.1
40.343,-12.26
40.359,-7.59
40.375,-2.46
40.390,2.89
40.406,8.24
40.421,13.41
40.437,18.25
40.453,22.64
40.468,26.59
40.484,30.21
40.500,33.71
40.515,37.26
40.531,40.98
40.546,44.91
40.562,49.15
40.578,53.95
40.593,59.67
40.609,66.54
40.625,74.31
40.640,81.94
40.656,87.6
40.671,89.19
40.687,84.94
40.703,74.15
40.718,57.51
40.734,36.79
40.750,14.36
40.765,-7.6
40.781,-27.4
40.796,-43.99
40.812,-56.63
40.828,-64.75
40.843,-67.96
40.859,-66.24
40.875,-60.21
40.890,-51.13
40.906,-40.69
40.921,-30.4
40.937,-21.31
40.953,-13.75
40.968,-7.59
40.984,-2.57
41.000,1.4
41.015,4.07
41.031,5.14
41.046,4.5
41.062,2.43
41.078,-0.42
41.093,-3.27
41.109,-5.58
41.125,-7.24
41.140,-8.55
41.156,-10.0
41.171,-12.03
41.187,-14.82
41.203,-18.19
41.218,-21.71
41.234,-24.83
41.250,-27.06
41.265,-28.14
41.281,-28.14
41.296,-27.39
41.312,-26.4
41.328,-25.63
41.343,-25.27
41.359,-25.21
41.375,-25.08
41.390,-24.51
41.406,-23.34
41.421,-21.64
41.437,-19.6
41.453,-17.31
41.468,-14.72
41.484,-11.6
41.500,-7.78
41.515,-3.33
41.531,1.39
41.546,5.88
41.562,9.73
41.578,12.89
41.593,15.74
41.609,18.89
41.625,23.0
41.640,28.51
41.656,35.48
41.671,43.8
41.687,53.19
41.703,63.25
41.718,73.3
41.734,82.14
41.750,88.0
41.765,88.93
41.781,83.35
41.796,70.79
41.812,52.25
41.828,30.01
41.843,6.95
41.859,-14.28
41.875,-31.89
41.890,-45.09
41.906,-53.74
41.921,-57.99
41.937,-58.03
41.953,-54.17
41.968,-47.13
41.984,-38.09
42.000,-28.56
42.015,-19.88
42.031,-12.87
42.046,-7.74
42.062,-4.31
42.078,-2.52
42.093,-2.62
42.109,-5.09
42.125,-10.07
42.140,-16.84
42.156,-23.78
42.171,-28.81
42.187,-30.34
42.203,-28.03
42.218,-22.96
42.234,-17.09
42.250,-12.4
42.265,-10.02
42.281,-9.97
42.296,-11.48
42.312,-13.59
42.328,-15.7
42.343,-17.72
42.359,-19.76
42.375,-21.9
42.390,-23.9
42.406,-25.27
42.421,-25.62
42.437,-24.84
42.453,-23.27
42.468,-21.45
42.484,-19.88
42.500,-18.75
42.515,-17.92
42.531,-16.97
42.546,-15.47
42.562,-13.12
42.578,-9.86
42.593,-5.82
42.609,-1.2
42.625,3.77
42.640,8.9
42.656,13.97
42.671,18.81
42.687,23.31
42.703,27.48
42.718,31.47
42.734,35.51
42.750,39.78
42.765,44.33
42.781,49.01
42.796,53.58
42.812,57.82
42.828,61.65
42.843,65.01
42.859,67.78
42.875,69.48
42.890,69.29
42.906,66.14
42.921,59.05
42.937,47.59
42.953,32.05
42.968,13.48
42.984,-6.56
43.000,-26.36
43.015,-44.42
43.031,-59.51
43.046,-70.63
43.062,-77.02
43.078,-78.18
43.093,-74.16
43.109,-65.74
43.125,-54.39
43.140,-41.9
43.156,-29.91
43.171,-19.39
43.187,-10.6
43.203,-3.26
43.218,3.1
43.234,8.73
43.250,13.69
43.265,17.93
43.281,21.45
43.296,24.33
43.312,26.69
43.328,28.47
43.343,29.37
43.359,29.05
43.375,27.2
43.390,23.74
43.406,18.8
43.421,12.54
43.437,5.08
43.453,-3.45
43.468,-12.81
43.484,-22.5
43.500,-31.69
43.515,-39.43
43.531,-44.89
43.546,-47.7
43.562,-48.08
43.578,-46.66
43.593,-44.3
43.609,-41.69
43.625,-39.21
43.640,-36.92
43.656,-34.71
43.671,-32.42
43.687,-29.94
43.703,-27.14
43.718,-23.87
43.734,-19.94
43.750,-15.25
43.765,-9.89
43.781,-4.14
43.796,1.52
43.812,6.71
43.828,11.19
43.843,15.01
43.859,18.37
43.875,21.57
43.890,24.84
43.906,28.39
43.921,32.46
43.937,37.22
43.953,42.67
43.968,48.37
43.984,53.25
44.000,55.79
44.015,54.38
44.031,47.86
44.046,36.03
44.062,19.87
44.078,1.31
44.093,-17.14
44.109,-33.0
44.125,-44.28
44.140,-49.82
44.156,-49.42
44.171,-43.8
44.187,-34.44
44.203,-23.2
44.218,-11.87
44.234,-1.84
44.250,6.16
44.265,12.06
44.281,16.25
44.296,19.3
44.312,21.71
44.328,23.79
44.343,25.67
44.359,27.32
44.375,28.63
44.390,29.52
44.406,29.87
44.421,29.72
44.437,29.09
44.453,28.03
44.468,26.51
44.484,24.27
44.500,20.82
44.515,15.61
44.531,8.12
44.546,-1.84
44.562,-13.85
44.578,-26.81
44.593,-39.06
44.609,-48.73
44.625,-54.33
44.640,-55.21
44.656,-51.74
44.671,-45.25
44.687,-37.47
44.703,-30.0
44.718,-23.87
44.734,-19.37
44.750,-16.24
44.765,-14.0
44.781,-12.25
44.796,-10.76
44.812,-9.4
44.828,-7.97
44.843,-6.17
44.859,-3.67
44.875,-0.3
44.890,3.81
44.906,8.25
44.921,12.53
44.937,16.28
44.953,19.43
44.968,22.22
44.984,24.97
45.000,27.9
45.015,31.1
45.031,34.54
45.046,38.23
45.062,42.4
45.078,47.37
45.093,53.34
45.109,60.02
45.125,66.36
45.140,70.65
45.156,70.96
45.171,65.76
45.187,54.53
45.203,38.05
45.218,18.26
45.234,-2.27
45.250,-20.93
45.265,-35.69
45.281,-45.29
45.296,-49.32
45.312,-48.13
45.328,-42.66
45.343,-34.3
45.359,-24.63
45.375,-15.12
45.390,-6.81
45.406,-0.07
45.421,5.31
45.437,9.87
45.453,14.03
45.468,17.81
45.484,20.69
45.500,21.94
45.515,20.96
45.531,17.68
45.546,12.65
45.562,6.8
45.578,1.02
45.593,-4.09
45.609,-8.38
45.625,-12.0
45.640,-15.23
45.656,-18.31
45.671,-21.39
45.687,-24.64
45.703,-28.2
45.718,-32.06
45.734,-35.87
45.750,-39.05
45.765,-40.86
45.781,-40.77
45.796,-38.69
45.812,-34.97
45.828,-30.25
45.843,-25.12
45.859,-20.01
45.875,-15.21
45.890,-10.96
45.906,-7.46
45.921,-4.87
45.937,-3.09
45.953,-1.78
45.968,-0.42
45.984,1.45
46.000,3.94
46.015,6.84
46.031,9.73
46.046,12.34
46.062,14.8
46.078,17.6
46.093,21.44
46.109,26.92
46.125,34.25
46.140,43.24
46.156,53.34
46.171,63.68
46.187,73.15
46.203,80.4
46.218,83.87
46.234,82.16
46.250,74.41
46.265,60.71
46.281,42.3
46.296,21.34
46.312,0.38
46.328,-18.3
46.343,-33.17
46.359,-43.61
46.375,-49.67
46.390,-51.7
46.406,-50.14
46.421,-45.43
46.437,-38.18
46.453,-29.36
46.468,-20.09
46.484,-11.51
46.500,-4.37
46.515,1.18
46.531,5.51
46.546,9.17
46.562,12.51
46.578,15.51
46.593,17.83
46.609,19.22
46.625,19.81
46.640,20.13
46.656,20.89
46.671,22.5
46.687,24.74
46.703,26.78
46.718,27.54
46.734,26.12
46.750,22.16
46.765,15.89
46.781,7.81
46.796,-1.56
46.812,-11.89
46.828,-22.98
46.843,-34.52
46.859,-45.83
46.875,-55.87
46.890,-63.42
46.906,-67.46
46.921,-67.59
46.937,-64.13
46.953,-58.13
46.968,-50.96
46.984,-43.88
47.000,-37.74
47.015,-32.79
47.031,-28.84
47.046,-25.51
47.062,-22.48
47.078,-19.65
47.093,-17.09
47.109,-14.88
47.125,-12.95
47.140,-11.02
47.156,-8.73
47.171,-5.78
47.187,-2.02
47.203,2.46
47.218,7.51
47.234,13.0
47.250,18.87
47.265,25.05
47.281,31.29
47.296,36.97
47.312,41.06
47.328,42.39
47.343,39.97
47.359,33.44
47.375,23.28
47.390,10.79
47.406,-2.27
47.421,-14.13
47.437,-23.39
47.453,-29.26
47.468,-31.58
47.484,-30.65
47.500,-27.12
47.515,-21.84
47.531,-15.72
47.546,-9.63
47.562,-4.26
47.578,-0.02
47.593,3.05
47.609,5.24
47.625,7.0
47.640,8.8
47.656,10.98
47.671,13.7
47.687,17.02
47.703,20.93
47.718,25.3
47.734,29.83
47.750,33.91
47.765,36.67
47.781,37.17
47.796,34.74
47.812,29.31
47.828,21.57
47.843,12.78
47.859,4.34
47.875,-2.66
47.890,-7.81
47.906,-11.31
47.921,-13.78
47.937,-15.84
47.953,-17.87
47.968,-19.97
47.984,-22.05
48.000,-23.93
48.015,-25.5
48.031,-26.63
48.046,-27.17
48.062,-27.01
48.078,-26.09
48.093,-24.53
48.109,-22.63
48.125,-20.66
48.140,-18.74
48.156,-16.73
48.171,-14.28
48.187,-11.05
48.203,-6.88
48.218,-1.9
48.234,3.61
48.250,9.32
48.265,15.07
48.281,20.93
48.296,27.07
48.312,33.65
48.328,40.72
48.343,48.14
48.359,55.62
48.375,62.66
48.390,68.5
48.406,72.11
48.421,72.33
48.437,68.15
48.453,59.15
48.468,45.77
48.484,29.35
48.500,11.85
48.515,-4.71
48.531,-18.75
48.546,-29.48
48.562,-36.81
48.578,-41.15
48.593,-42.95
48.609,-42.47
48.625,-39.85
48.640,-35.24
48.656,-29.03
48.671,-21.86
48.687,-14.42
48.703,-7.22
48.718,-0.38
48.734,6.34
48.750,13.31
48.765,20.69
48.781,28.28
48.796,35.44
48.812,41.26
48.828,44.9
48.843,45.77
48.859,43.67
48.875,38.85
48.890,31.8
48.906,23.11
48.921,13.3
48.937,2.72
48.953,-8.43
48.968,-19.93
48.984,-31.34
49.000,-41.96
49.015,-50.88
49.031,-57.3
49.046,-60.84
49.062,-61.74
49.078,-60.69
49.093,-58.6
49.109,-56.21
49.125,-53.86
49.140,-51.57
49.156,-49.22
49.171,-46.8
49.187,-44.38
49.203,-42.11
49.218,-39.96
49.234,-37.59
49.250,-34.47
49.265,-30.05
49.281,-24.09
49.296,-16.75
49.312,-8.63
49.328,-0.39
49.343,7.39
49.359,14.46
49.375,20.9
49.390,27.05
49.406,33.35
49.421,40.09
49.437,47.35
49.453,54.69
49.468,61.25
49.484,65.73
49.500,66.78
49.515,63.32
49.531,55.05
49.546,42.6
49.562,27.47
49.578,11.64
49.593,-2.9
49.609,-14.63
49.625,-22.68
49.640,-26.76
49.656,-26.98
49.671,-23.8
49.687,-17.83
49.703,-9.9
49.718,-0.99
49.734,7.94
49.750,16.13
49.765,23.2
49.781,29.29
49.796,34.95
49.812,40.85
49.828,47.51
49.843,54.99
49.859,62.92
49.875,70.61
49.890,77.48
49.906,83.1
49.921,87.23
49.937,89.57
49.953,89.54
49.968,86.5
49.984,80.14
50.000,70.94
50.015,59.95
50.031,48.14
50.046,35.55
50.062,21.12
50.078,3.35
50.093,-18.52
50.109,-43.42
50.125,-68.48
50.140,-89.96
50.156,-104.8
50.171,-111.76
50.187,-111.62
50.203,-106.37
50.218,-98.2
50.234,-88.7
50.250,-78.76
50.265,-68.92
50.281,-59.59
50.296,-50.98
50.312,-43.0
50.328,-35.08
50.343,-26.47
50.359,-16.55
50.375,-5.17
50.390,7.33
50.406,20.25
50.421,32.84
50.437,44.56
50.453,55.18
50.468,64.85
50.484,73.91
50.500,82.77
50.515,91.8
50.531,101.1
50.546,110.4
50.562,118.91
50.578,125.54
50.593,129.15
50.609,129.02
50.625,125.0
50.640,117.51
50.656,107.34
50.671,95.2
50.687,81.59
50.703,66.76
50.718,51.01
50.734,35.01
50.750,19.99
50.765,7.64
50.781,-0.12
50.796,-1.68
50.812,3.88
50.828,16.43
50.843,34.77
50.859,56.9
50.875,80.57
50.890,103.87
50.906,125.69
50.921,145.81
50.937,164.5
50.953,181.99
50.968,197.9
50.984,211.21
51.000,220.63
51.015,225.22
51.031,224.88
51.046,220.43
51.062,213.22
51.078,204.53
51.093,195.05
51.109,184.74
51.125,173.12
51.140,159.7
51.156,144.28
51.171,127.05
51.187,108.54
51.203,89.41
51.218,70.38
51.234,52.15
51.250,35.41
51.265,20.62
51.281,7.96
51.296,-2.93
51.312,-12.89
51.328,-23.09
51.343,-34.74
51.359,-48.66
51.375,-64.9
51.390,-82.58
51.406,-100.06
51.421,-115.51
51.437,-127.56
51.453,-135.8
51.468,-140.84
51.484,-143.8
51.500,-145.72
51.515,-147.02
51.531,-147.56
51.546,-147.06
51.562,-145.56
51.578,-143.6
51.593,-141.86
51.609,-140.71
51.625,-139.88
51.640,-138.61
51.656,-136.17
51.671,-132.32
51.687,-127.58
51.703,-122.84
51.718,-118.9
51.734,-116.06
51.750,-114.07
51.765,-112.45
51.781,-110.92
51.796,-109.73
51.812,-109.63
51.828,-111.55
51.843,-116.08
51.859,-123.1
51.875,-131.63
51.890,-140.02
51.906,-146.4
51.921,-149.27
51.937,-147.92
51.953,-142.68
51.968,-134.7
51.984,-125.53
52.000,-116.55
52.015,-108.58
52.031,-101.66
52.046,-95.28
52.062,-88.7
52.078,-81.38
52.093,-73.19
52.109,-64.45
52.125,-55.6
52.140,-47.03
52.156,-38.87
52.171,-31.04
52.187,-23.38
52.203,-15.8
52.218,-8.29
52.234,-0.88
52.250,6.46
52.265,13.86
52.281,21.33
52.296,28.56
52.312,34.68
52.328,38.32
52.343,37.85
52.359,31.91
52.375,19.88
52.390,2.22
52.406,-19.43
52.421,-42.66
52.437,-64.78
52.453,-83.4
52.468,-96.96
52.484,-104.86
52.500,-107.45
52.515,-105.74
52.531,-101.11
52.546,-95.09
52.562,-89.13
52.578,-84.35
52.593,-81.27
52.609,-79.7
52.625,-78.66
52.640,-76.82
52.656,-73.01
52.671,-66.71
52.687,-58.31
52.703,-48.84
52.718,-39.38
52.734,-30.56
52.750,-22.37
52.765,-14.26
52.781,-5.74
52.796,3.22
52.812,11.97
52.828,19.44
52.843,24.61
52.859,27.0
52.875,26.93
52.890,25.32
52.906,23.29
52.921,21.64
52.937,20.56
52.953,19.66
52.968,18.28
52.984,15.89
53.000,12.48
53.015,8.63
53.031,5.3
53.046,3.65
53.062,4.58
53.078,8.54
53.093,15.35
53.109,24.27
53.125,34.11
53.140,43.55
53.156,51.47
53.171,57.19
53.187,60.6
53.203,61.99
53.218,61.8
53.234,60.36
53.250,57.74
53.265,53.88
53.281,48.71
53.296,42.27
53.312,34.75
53.328,26.35
53.343,17.21
53.359,7.35
53.375,-3.26
53.390,-14.58
53.406,-26.38
53.421,-38.39
53.437,-50.4
53.453,-62.51
53.468,-75.0
53.484,-88.12
53.500,-101.55
53.515,-114.13
53.531,-123.98
53.546,-129.12
53.562,-128.36
53.578,-121.99
53.593,-111.88
53.609,-100.89
53.625,-91.82
53.640,-86.52
53.656,-85.38
53.671,-87.58
53.687,-91.74
53.703,-96.5
53.718,-100.91
53.734,-104.38
53.750,-106.49
53.765,-106.88
53.781,-105.3
53.796,-101.79
53.812,-96.84
53.828,-91.44
53.843,-86.7
53.859,-83.46
53.875,-81.92
53.890,-81.58
53.906,-81.49
53.921,-80.69
53.937,-78.54
53.953,-74.89
53.968,-69.89
53.984,-63.68
54.000,-56.22
54.015,-47.36
54.031,-37.02
54.046,-25.48
54.062,-13.52
54.078,-2.35
54.093,6.76
54.109,12.85
54.125,15.62
54.140,15.56
54.156,13.73
54.171,11.5
54.187,10.11
54.203,10.33
54.218,12.28
54.234,15.5
54.250,19.12
54.265,22.2
54.281,24.02
54.296,24.29
54.312,23.25
54.328,21.55
54.343,19.89
54.359,18.64
54.375,17.59
54.390,15.87
54.406,12.44
54.421,6.71
54.437,-0.8
54.453,-8.47
54.468,-14.16
54.484,-16.23
54.500,-14.26
54.515,-9.29
54.531,-3.07
54.546,2.97
54.562,8.5
54.578,14.12
54.593,20.69
54.609,28.55
54.625,37.07
54.640,45.05
54.656,51.41
54.671,55.61
54.687,57.42
54.703,56.58
54.718,52.53
54.734,44.93
54.750,34.38
54.765,22.81
54.781,13.13
54.796,7.87
54.812,7.94
54.828,11.99
54.843,17.05
54.859,20.02
54.875,19.19
54.890,14.86
54.906,8.83
54.921,3.32
54.937,-0.11
54.953,-0.89
54.968,0.8
54.984,4.6
55.000,10.34
55.015,18.0
55.031,27.26
55.046,37.31
55.062,46.84
55.078,54.41
55.093,59.07
55.109,60.79
55.125,60.47
55.140,59.5
55.156,59.03
55.171,59.47
55.187,60.23
55.203,60.2
55.218,58.37
55.234,54.56
55.250,49.62
55.265,45.26
55.281,43.38
55.296,45.35
55.312,51.54
55.328,61.14
55.343,72.4
55.359,83.06
55.375,90.83
55.390,93.81
55.406,90.95
55.421,82.3
55.437,69.13
55.453,53.78
55.468,39.13
55.484,27.85
55.500,21.72
55.515,21.11
55.531,25.08
55.546,31.77
55.562,39.12
55.578,45.48
55.593,49.92
55.609,52.24
55.625,52.65
55.640,51.5
55.656,48.94
55.671,45.11
55.687,40.16
55.703,34.49
55.718,28.81
55.734,23.91
55.750,20.36
55.765,18.29
55.781,17.3
55.796,16.66
55.812,15.64
55.828,13.89
55.843,11.51
55.859,8.97
55.875,6.86
55.890,5.5
55.906,4.78
55.921,4.1
55.937,2.63
55.953,-0.36
55.968,-5.11
55.984,-11.26
56.000,-17.86
56.015,-23.67
56.031,-27.49
56.046,-28.4
56.062,-25.79
56.078,-19.33
56.093,-9.01
56.109,4.78
56.125,20.97
56.140,37.58
56.156,51.86
56.171,60.84
56.187,62.14
56.203,54.84
56.218,39.83
56.234,19.55
56.250,-2.8
56.265,-24.22
56.281,-42.54
56.296,-56.62
56.312,-66.03
56.328,-70.73
56.343,-70.84
56.359,-66.7
56.375,-59.19
56.390,-49.72
56.406,-40.14
56.421,-32.17
56.437,-26.78
56.453,-23.87
56.468,-22.33
56.484,-20.57
56.500,-17.19
56.515,-11.52
56.531,-3.81
56.546,4.95
56.562,13.56
56.578,20.99
56.593,26.71
56.609,30.58
56.625,32.64
56.640,32.96
56.656,31.47
56.671,28.18
56.687,23.23
56.703,16.97
56.718,9.95
56.734,2.66
56.750,-4.51
56.765,-11.42
56.781,-18.11
56.796,-24.68
56.812,-31.22
56.828,-37.7
56.843,-43.89
56.859,-49.43
56.875,-53.9
56.890,-57.0
56.906,-58.81
56.921,-59.81
56.937,-60.71
56.953,-62.14
56.968,-64.16
56.984,-66.17
57.000,-67.07
57.015,-65.74
57.031,-61.59
57.046,-54.82
57.062,-46.22
57.078,-36.86
57.093,-27.49
57.109,-18.44
57.125,-9.63
57.140,-0.88
57.156,7.77
57.171,15.98
57.187,23.15
57.203,28.67
57.218,32.09
57.234,33.27
57.250,32.4
57.265,30.05
57.281,27.12
57.296,24.55
57.312,23.12
57.328,23.14
57.343,24.35
57.359,26.16
57.375,27.91
57.390,29.19
57.406,29.88
57.421,30.04
57.437,29.8
57.453,29.29
57.468,28.75
57.484,28.75
57.500,30.1
57.515,33.7
57.531,40.17
57.546,49.56
57.562,61.23
57.578,74.11
57.593,87.05
57.609,99.17
57.625,110.04
57.640,119.71
57.656,128.49
57.671,136.72
57.687,144.41
57.703,151.05
57.718,155.58
57.734,156.66
57.750,153.1
57.765,144.37
57.781,130.79
57.796,113.48
57.812,93.98
57.828,73.76
57.843,53.93
57.859,35.18
57.875,17.89
57.890,2.29
57.906,-11.49
57.921,-23.48
57.937,-33.88
57.953,-43.0
57.968,-50.98
57.984,-57.59
58.000,-62.3
58.015,-64.48
58.031,-63.81
58.046,-60.45
58.062,-55.06
58.078,-48.47
58.093,-41.37
58.109,-34.16
58.125,-27.07
58.140,-20.43
58.156,-14.77
58.171,-10.62
58.187,-8.17
58.203,-6.94
58.218,-5.82
58.234,-3.53
58.250,0.78
58.265,7.05
58.281,14.27
58.296,20.94
58.312,25.71
58.328,27.88
58.343,27.5
58.359,25.04
58.375,20.9
58.390,15.1
58.406,7.18
58.421,-3.35
58.437,-16.57
58.453,-31.81
58.468,-47.67
58.484,-62.22
58.500,-73.47
58.515,-79.84
58.531,-80.37
58.546,-74.94
58.562,-64.21
58.578,-49.51
58.593,-32.58
58.609,-15.23
58.625,1.02
58.640,15.22
58.656,27.05
58.671,36.7
58.687,44.59
58.703,51.1
58.718,56.54
58.734,61.15
58.750,65.23
58.765,69.12
58.781,73.11
58.796,77.13
58.812,80.58
58.828,82.32
58.843,80.92
58.859,75.14
58.875,64.37
58.890,48.88
58.906,29.71
58.921,8.36
58.937,-13.62
58.953,-34.83
58.968,-54.16
58.984,-70.6
59.000,-83.16
59.015,-90.85
59.031,-92.88
59.046,-88.94
59.062,-79.47
59.078,-65.72
59.093,-49.53
59.109,-32.93
59.125,-17.7
59.140,-4.89
59.156,5.28
59.171,13.41
59.187,20.47
59.203,27.33
59.218,34.39
59.234,41.45
59.250,47.89
59.265,53.12
59.281,56.93
59.296,59.66
59.312,62.11
59.328,65.15
59.343,69.38
59.359,74.89
59.375,81.23
59.390,87.52
59.406,92.52
59.421,94.8
59.437,92.86
59.453,85.39
59.468,71.66
59.484,51.87
59.500,27.38
59.515,0.64
59.531,-25.31
59.546,-47.53
59.562,-63.87
59.578,-73.37
59.593,-76.31
59.609,-73.75
59.625,-67.13
59.640,-57.87
59.656,-47.19
59.671,-36.22
59.687,-25.96
59.703,-17.24
59.718,-10.47
59.734,-5.46
59.750,-1.49
59.765,2.39
59.781,6.83
59.796,11.88
59.812,17.0
59.828,21.47
59.843,24.8
59.859,27.02
59.875,28.63
59.890,30.1
59.906,31.6
59.921,32.73
59.937,32.59
59.953,30.05
59.968,24.1
59.984,14.17
