timestamp,value
00.000,94.51
00.015,92.16
00.031,86.42
00.046,77.19
00.062,65.62
00.078,53.81
00.093,43.73
00.109,36.27
00.125,30.59
00.140,24.53
00.156,15.73
00.171,3.18
00.187,-11.85
00.203,-25.94
00.218,-34.75
00.234,-34.82
00.250,-24.94
00.265,-6.56
00.281,16.9
00.296,41.33
00.312,63.1
00.328,79.91
00.343,90.92
00.359,96.72
00.375,99.06
00.390,100.32
00.406,102.77
00.421,107.71
00.437,114.77
00.453,121.97
00.468,126.39
00.484,125.32
00.500,117.37
00.515,102.96
00.531,84.17
00.546,63.87
00.562,44.9
00.578,29.29
00.593,17.98
00.609,10.91
00.625,7.13
00.640,5.16
00.656,3.34
00.671,0.13
00.687,-5.68
00.703,-14.65
00.718,-26.62
00.734,-40.48
00.750,-54.44
00.765,-66.34
00.781,-74.3
00.796,-77.15
00.812,-74.72
00.828,-67.44
00.843,-55.79
00.859,-39.88
00.875,-19.39
00.890,5.76
00.906,34.8
00.921,65.56
00.937,94.78
00.953,118.93
00.968,135.33
00.984,142.91
01.000,142.3
01.015,135.43
01.031,124.81
01.046,112.85
01.062,101.48
01.078,91.96
01.093,84.78
01.109,79.84
01.125,76.36
01.140,73.06
01.156,68.42
01.171,61.04
01.187,50.05
01.203,35.55
01.218,18.58
01.234,0.85
01.250,-15.69
01.265,-29.52
01.281,-39.89
01.296,-47.05
01.312,-51.91
01.328,-55.76
01.343,-59.63
01.359,-64.12
01.375,-69.26
01.390,-74.72
01.406,-80.11
01.421,-85.13
01.437,-89.77
01.453,-94.18
01.468,-98.42
01.484,-102.24
01.500,-105.02
01.515,-105.82
01.531,-103.62
01.546,-97.7
01.562,-87.77
01.578,-74.22
01.593,-57.94
01.609,-40.25
01.625,-22.47
01.640,-5.91
01.656,8.48
01.671,20.1
01.687,28.73
01.703,34.63
01.718,38.43
01.734,41.06
01.750,43.52
01.765,46.54
01.781,50.32
01.796,54.5
01.812,58.38
01.828,61.27
01.843,62.92
01.859,63.54
01.875,63.7
01.890,63.96
01.906,64.53
01.921,65.21
01.937,65.49
01.953,64.97
01.968,63.46
01.984,61.13
02.000,58.25
02.015,54.99
02.031,51.31
02.046,46.97
02.062,41.75
02.078,35.54
02.093,28.46
02.109,20.69
02.125,12.52
02.140,4.13
02.156,-4.39
02.171,-12.95
02.187,-21.39
02.203,-29.41
02.218,-36.62
02.234,-42.66
02.250,-47.23
02.265,-50.08
02.281,-50.9
02.296,-49.26
02.312,-44.58
02.328,-36.31
02.343,-24.29
02.359,-8.91
02.375,8.82
02.390,27.48
02.406,45.62
02.421,62.18
02.437,76.49
02.453,88.32
02.468,97.69
02.484,104.66
02.500,109.49
02.515,112.47
02.531,114.0
02.546,114.36
02.562,113.62
02.578,111.55
02.593,107.73
02.609,101.99
02.625,94.58
02.640,86.42
02.656,78.72
02.671,72.52
02.687,68.28
02.703,65.65
02.718,63.74
02.734,61.63
02.750,58.87
02.765,55.72
02.781,53.04
02.796,51.75
02.812,52.31
02.828,54.46
02.843,57.31
02.859,59.77
02.875,61.06
02.890,60.91
02.906,59.6
02.921,57.6
02.937,55.33
02.953,53.07
02.968,51.03
02.984,49.4
03.000,48.6
03.015,49.15
03.031,51.67
03.046,56.86
03.062,65.27
03.078,77.2
03.093,92.45
03.109,110.16
03.125,128.82
03.140,146.51
03.156,161.17
03.171,171.04
03.187,174.8
03.203,171.73
03.218,161.8
03.234,145.68
03.250,124.77
03.265,101.05
03.281,76.93
03.296,54.72
03.312,36.34
03.328,22.85
03.343,14.13
03.359,8.96
03.375,5.26
03.390,0.68
03.406,-6.54
03.421,-16.99
03.437,-29.93
03.453,-43.75
03.468,-56.74
03.484,-67.75
03.500,-76.36
03.515,-82.52
03.531,-86.26
03.546,-87.33
03.562,-85.5
03.578,-80.85
03.593,-74.05
03.609,-66.26
03.625,-58.65
03.640,-52.07
03.656,-46.86
03.671,-43.2
03.687,-41.39
03.703,-42.13
03.718,-46.26
03.734,-54.22
03.750,-65.52
03.765,-78.6
03.781,-91.1
03.796,-100.69
03.812,-105.71
03.828,-105.62
03.843,-100.99
03.859,-93.06
03.875,-83.36
03.890,-73.41
03.906,-64.75
03.921,-58.9
03.937,-57.1
03.953,-59.82
03.968,-66.33
03.984,-74.46
04.000,-81.26
04.015,-83.76
04.031,-79.99
04.046,-69.48
04.062,-53.04
04.078,-32.08
04.093,-7.74
04.109,19.16
04.125,47.73
04.140,76.12
04.156,101.15
04.171,118.61
04.187,124.56
04.203,116.65
04.218,95.07
04.234,62.55
04.250,23.57
04.265,-17.01
04.281,-54.98
04.296,-87.52
04.312,-113.26
04.328,-132.29
04.343,-145.66
04.359,-155.08
04.375,-162.39
04.390,-169.02
04.406,-175.54
04.421,-181.61
04.437,-186.27
04.453,-188.41
04.468,-187.26
04.484,-182.47
04.500,-174.0
04.515,-162.0
04.531,-146.7
04.546,-128.59
04.562,-108.46
04.578,-87.64
04.593,-67.65
04.609,-49.91
04.625,-35.28
04.640,-23.86
04.656,-15.13
04.671,-8.35
04.687,-2.92
04.703,1.31
04.718,4.24
04.734,5.71
04.750,5.88
04.765,5.31
04.781,4.81
04.796,5.15
04.812,6.78
04.828,9.65
04.843,13.25
04.859,16.88
04.875,19.89
04.890,21.95
04.906,23.13
04.921,23.77
04.937,24.24
04.953,24.79
04.968,25.41
04.984,25.82
05.000,25.75
05.015,25.03
05.031,23.64
05.046,21.77
05.062,19.71
05.078,17.67
05.093,15.81
05.109,14.16
05.125,12.62
05.140,11.04
05.156,9.18
05.171,6.86
05.187,4.05
05.203,0.99
05.218,-1.71
05.234,-3.24
05.250,-2.76
05.265,0.32
05.281,6.21
05.296,14.51
05.312,24.4
05.328,34.9
05.343,45.01
05.359,54.03
05.375,61.54
05.390,67.41
05.406,71.65
05.421,74.45
05.437,76.07
05.453,76.96
05.468,77.75
05.484,79.17
05.500,81.93
05.515,86.47
05.531,92.81
05.546,100.44
05.562,108.25
05.578,114.7
05.593,118.06
05.609,116.91
05.625,110.52
05.640,99.18
05.656,84.01
05.671,66.61
05.687,48.51
05.703,30.9
05.718,14.66
05.734,0.58
05.750,-10.38
05.765,-17.23
05.781,-19.15
05.796,-15.91
05.812,-7.89
05.828,3.96
05.843,18.49
05.859,34.43
05.875,50.36
05.890,64.52
05.906,74.77
05.921,79.05
05.937,75.92
05.953,65.29
05.968,48.5
05.984,27.92
06.000,6.09
06.015,-15.16
06.031,-35.05
06.046,-53.71
06.062,-71.38
06.078,-87.83
06.093,-102.11
06.109,-112.91
06.125,-119.28
06.140,-121.27
06.156,-120.08
06.171,-117.47
06.187,-115.03
06.203,-113.4
06.218,-112.24
06.234,-110.59
06.250,-107.64
06.265,-103.27
06.281,-98.15
06.296,-93.32
06.312,-89.66
06.328,-87.44
06.343,-86.06
06.359,-84.29
06.375,-80.43
06.390,-72.71
06.406,-59.68
06.421,-40.79
06.437,-16.92
06.453,9.14
06.468,32.65
06.484,47.86
06.500,49.62
06.515,35.42
06.531,6.91
06.546,-30.17
06.562,-67.7
06.578,-98.1
06.593,-116.97
06.609,-124.22
06.625,-123.05
06.640,-117.64
06.656,-110.93
06.671,-103.58
06.687,-94.54
06.703,-82.47
06.718,-67.01
06.734,-49.18
06.750,-30.94
06.765,-14.51
06.781,-1.9
06.796,5.27
06.812,5.81
06.828,-0.73
06.843,-13.71
06.859,-31.21
06.875,-50.29
06.890,-67.75
06.906,-80.94
06.921,-88.27
06.937,-89.3
06.953,-84.47
06.968,-74.91
06.984,-62.29
07.000,-48.58
07.015,-35.74
07.031,-25.28
07.046,-17.86
07.062,-13.19
07.078,-10.4
07.093,-8.44
07.109,-6.76
07.125,-5.5
07.140,-5.41
07.156,-7.5
07.171,-12.56
07.187,-20.74
07.203,-31.3
07.218,-42.75
07.234,-53.0
07.250,-59.98
07.265,-62.03
07.281,-58.46
07.296,-49.64
07.312,-36.9
07.328,-22.13
07.343,-7.14
07.359,6.69
07.375,18.72
07.390,28.81
07.406,37.05
07.421,43.48
07.437,47.92
07.453,50.15
07.468,50.12
07.484,48.23
07.500,45.28
07.515,42.36
07.531,40.49
07.546,40.31
07.562,41.99
07.578,45.14
07.593,49.1
07.609,53.18
07.625,56.76
07.640,59.45
07.656,61.08
07.671,61.6
07.687,61.07
07.703,59.68
07.718,57.59
07.734,54.9
07.750,51.53
07.765,47.14
07.781,41.29
07.796,33.7
07.812,24.45
07.828,14.17
07.843,4.03
07.859,-4.69
07.875,-10.86
07.890,-13.83
07.906,-13.49
07.921,-10.07
07.937,-4.03
07.953,4.08
07.968,13.49
07.984,23.32
08.000,32.52
08.015,40.17
08.031,45.79
08.046,49.42
08.062,51.68
08.078,53.3
08.093,54.91
08.109,56.65
08.125,58.29
08.140,59.25
08.156,58.95
08.171,56.87
08.187,52.66
08.203,46.25
08.218,37.75
08.234,27.56
08.250,16.25
08.265,4.5
08.281,-7.12
08.296,-18.16
08.312,-28.32
08.328,-37.39
08.343,-45.17
08.359,-51.51
08.375,-56.39
08.390,-60.03
08.406,-63.0
08.421,-66.17
08.437,-70.39
08.453,-76.09
08.468,-82.91
08.484,-89.67
08.500,-94.6
08.515,-96.0
08.531,-92.81
08.546,-85.02
08.562,-73.71
08.578,-60.62
08.593,-47.55
08.609,-35.93
08.625,-26.5
08.640,-19.52
08.656,-14.98
08.671,-12.79
08.687,-12.92
08.703,-15.21
08.718,-19.29
08.734,-24.52
08.750,-30.07
08.765,-35.03
08.781,-38.73
08.796,-40.77
08.812,-41.14
08.828,-40.11
08.843,-38.11
08.859,-35.51
08.875,-32.5
08.890,-29.12
08.906,-25.3
08.921,-21.08
08.937,-16.61
08.953,-12.19
08.968,-8.15
08.984,-4.83
09.000,-2.39
09.015,-0.96
09.031,-0.64
09.046,-1.47
09.062,-3.37
09.078,-5.91
09.093,-8.27
09.109,-9.25
09.125,-7.59
09.140,-2.27
09.156,7.08
09.171,20.08
09.187,35.69
09.203,52.5
09.218,69.18
09.234,84.67
09.250,98.32
09.265,109.75
09.281,118.73
09.296,125.03
09.312,128.54
09.328,129.31
09.343,127.65
09.359,124.17
09.375,119.6
09.390,114.6
09.406,109.54
09.421,104.52
09.437,99.33
09.453,93.85
09.468,88.02
09.484,82.04
09.500,76.19
09.515,70.78
09.531,65.96
09.546,61.81
09.562,58.2
09.578,54.92
09.593,51.66
09.609,48.07
09.625,43.87
09.640,38.87
09.656,33.15
09.671,26.99
09.687,20.8
09.703,14.87
09.718,9.23
09.734,3.53
09.750,-2.85
09.765,-10.51
09.781,-19.76
09.796,-30.47
09.812,-42.07
09.828,-53.72
09.843,-64.62
09.859,-74.05
09.875,-81.58
09.890,-87.05
09.906,-90.51
09.921,-92.18
09.937,-92.4
09.953,-91.51
09.968,-89.77
09.984,-87.26
10.000,-83.87
10.015,-79.41
10.031,-73.89
10.046,-67.53
10.062,-60.84
10.078,-54.39
10.093,-48.55
10.109,-43.42
10.125,-38.9
10.140,-34.82
10.156,-31.25
10.171,-28.31
10.187,-26.0
10.203,-23.98
10.218,-21.63
10.234,-18.26
10.250,-13.63
10.265,-8.09
10.281,-2.33
10.296,3.09
10.312,8.47
10.328,15.08
10.343,24.73
10.359,38.86
10.375,57.79
10.390,80.34
10.406,104.17
10.421,126.72
10.437,145.94
10.453,160.77
10.468,171.06
10.484,177.17
10.500,179.51
10.515,178.44
10.531,174.38
10.546,167.99
10.562,160.33
10.578,152.56
10.593,145.76
10.609,140.47
10.625,136.6
10.640,133.63
10.656,130.83
10.671,127.67
10.687,123.89
10.703,119.51
10.718,114.52
10.734,108.71
10.750,101.58
10.765,92.44
10.781,80.73
10.796,66.21
10.812,49.13
10.828,30.16
10.843,10.23
10.859,-9.77
10.875,-29.17
10.890,-47.5
10.906,-64.51
10.921,-79.96
10.937,-93.66
10.953,-105.49
10.968,-115.49
10.984,-123.77
11.000,-130.28
11.015,-134.69
11.031,-136.15
11.046,-133.62
11.062,-126.21
11.078,-113.78
11.093,-97.15
11.109,-78.05
11.125,-58.58
11.140,-40.56
11.156,-25.07
11.171,-12.17
11.187,-1.22
11.203,8.75
11.218,18.71
11.234,29.33
11.250,40.89
11.265,53.37
11.281,66.43
11.296,79.54
11.312,92.08
11.328,103.42
11.343,113.07
11.359,120.79
11.375,126.65
11.390,130.95
11.406,134.18
11.421,136.91
11.437,139.62
11.453,142.54
11.468,145.51
11.484,147.96
11.500,149.04
11.515,147.94
11.531,144.27
11.546,138.36
11.562,131.07
11.578,123.31
11.593,115.34
11.609,106.29
11.625,94.29
11.640,77.16
11.656,53.4
11.671,23.06
11.687,-11.97
11.703,-48.4
11.718,-82.42
11.734,-110.66
11.750,-130.98
11.765,-142.68
11.781,-146.31
11.796,-143.22
11.812,-135.11
11.828,-123.53
11.843,-109.78
11.859,-94.75
11.875,-78.82
11.890,-62.05
11.906,-44.29
11.921,-25.66
11.937,-6.94
11.953,10.21
11.968,23.32
11.984,29.71
12.000,27.22
12.015,15.05
12.031,-6.05
12.046,-33.79
12.062,-64.92
12.078,-95.91
12.093,-123.53
12.109,-145.25
12.125,-159.48
12.140,-165.6
12.156,-163.76
12.171,-154.76
12.187,-139.6
12.203,-119.45
12.218,-95.61
12.234,-69.76
12.250,-44.0
12.265,-20.74
12.281,-2.15
12.296,10.46
12.312,16.97
12.328,18.5
12.343,16.8
12.359,13.54
12.375,9.82
12.390,6.03
12.406,2.19
12.421,-1.55
12.437,-4.64
12.453,-6.33
12.468,-6.13
12.484,-4.35
12.500,-2.15
12.515,-1.15
12.531,-2.68
12.546,-7.19
12.562,-14.11
12.578,-22.33
12.593,-30.8
12.609,-39.03
12.625,-47.12
12.640,-55.3
12.656,-63.51
12.671,-71.05
12.687,-76.83
12.703,-79.88
12.718,-79.93
12.734,-77.59
12.750,-74.21
12.765,-71.35
12.781,-70.2
12.796,-71.3
12.812,-74.4
12.828,-78.73
12.843,-83.33
12.859,-87.39
12.875,-90.4
12.890,-92.07
12.906,-92.17
12.921,-90.44
12.937,-86.7
12.953,-80.88
12.968,-73.32
12.984,-64.75
13.000,-56.13
13.015,-48.3
13.031,-41.81
13.046,-36.89
13.062,-33.53
13.078,-31.69
13.093,-31.25
13.109,-31.81
13.125,-32.49
13.140,-31.84
13.156,-28.18
13.171,-20.16
13.187,-7.4
13.203,9.35
13.218,28.31
13.234,47.36
13.250,64.64
13.265,78.97
13.281,90.01
13.296,97.96
13.312,103.27
13.328,106.36
13.343,107.63
13.359,107.47
13.375,106.42
13.390,105.15
13.406,104.25
13.421,104.11
13.437,104.65
13.453,105.35
13.468,105.39
13.484,103.9
13.500,100.29
13.515,94.42
13.531,86.78
13.546,78.2
13.562,69.8
13.578,62.65
13.593,57.61
13.609,55.07
13.625,54.84
13.640,56.12
13.656,57.64
13.671,57.94
13.687,55.61
13.703,49.74
13.718,40.07
13.734,27.04
13.750,11.68
13.765,-4.69
13.781,-20.77
13.796,-35.44
13.812,-47.82
13.828,-57.24
13.843,-63.15
13.859,-65.17
13.875,-63.26
13.890,-57.8
13.906,-49.74
13.921,-40.56
13.937,-32.04
13.953,-26.08
13.968,-24.3
13.984,-27.84
14.000,-37.13
14.015,-51.81
14.031,-70.66
14.046,-91.73
14.062,-112.59
14.078,-130.77
14.093,-144.09
14.109,-150.98
14.125,-150.45
14.140,-141.98
14.156,-125.41
14.171,-101.1
14.187,-70.18
14.203,-35.0
14.218,1.06
14.234,34.18
14.250,61.1
14.265,80.17
14.281,91.78
14.296,97.92
14.312,101.15
14.328,103.41
14.343,105.34
14.359,106.5
14.375,106.01
14.390,103.05
14.406,97.01
14.421,87.11
14.437,72.12
14.453,50.48
14.468,21.15
14.484,-15.38
14.500,-56.57
14.515,-98.06
14.531,-134.86
14.546,-162.91
14.562,-180.11
14.578,-186.61
14.593,-184.23
14.609,-175.53
14.625,-162.95
14.640,-148.51
14.656,-133.69
14.671,-119.61
14.687,-107.03
14.703,-96.38
14.718,-87.74
14.734,-80.84
14.750,-75.27
14.765,-70.62
14.781,-66.65
14.796,-63.28
14.812,-60.69
14.828,-59.2
14.843,-59.24
14.859,-61.24
14.875,-65.43
14.890,-71.79
14.906,-79.95
14.921,-89.27
14.937,-99.04
14.953,-108.59
14.968,-117.43
14.984,-125.23
15.000,-131.82
15.015,-137.13
15.031,-141.19
15.046,-144.15
15.062,-146.31
15.078,-147.96
15.093,-149.28
15.109,-150.07
15.125,-149.52
15.140,-146.27
15.156,-138.78
15.171,-125.85
15.187,-107.04
15.203,-83.08
15.218,-55.67
15.234,-27.04
15.250,0.69
15.265,26.03
15.281,48.33
15.296,67.61
15.312,84.14
15.328,98.14
15.343,109.64
15.359,118.53
15.375,124.73
15.390,128.28
15.406,129.37
15.421,128.26
15.437,125.15
15.453,120.27
15.468,113.91
15.484,106.51
15.500,98.66
15.515,90.89
15.531,83.54
15.546,76.62
15.562,69.83
15.578,62.78
15.593,55.22
15.609,47.16
15.625,38.94
15.640,31.13
15.656,24.34
15.671,19.06
15.687,15.63
15.703,14.11
15.718,14.3
15.734,15.7
15.750,17.62
15.765,19.35
15.781,20.55
15.796,21.44
15.812,22.9
15.828,26.34
15.843,33.04
15.859,43.65
15.875,57.8
15.890,74.11
15.906,90.6
15.921,105.35
15.937,116.9
15.953,124.36
15.968,127.33
15.984,125.63
16.000,119.22
16.015,108.32
16.031,93.63
16.046,76.25
16.062,57.6
16.078,39.16
16.093,22.22
16.109,7.94
16.125,-2.67
16.140,-8.59
16.156,-9.04
16.171,-3.74
16.187,6.75
16.203,20.94
16.218,36.76
16.234,52.01
16.250,65.02
16.265,74.97
16.281,81.9
16.296,86.51
16.312,89.6
16.328,91.78
16.343,93.22
16.359,93.62
16.375,92.37
16.390,88.84
16.406,82.69
16.421,74.16
16.437,64.22
16.453,54.34
16.468,46.19
16.484,41.16
16.500,39.95
16.515,42.37
16.531,47.49
16.546,53.96
16.562,60.48
16.578,66.12
16.593,70.36
16.609,72.98
16.625,73.83
16.640,72.88
16.656,70.3
16.671,66.64
16.687,62.94
16.703,60.42
16.718,60.11
16.734,62.31
16.750,66.46
16.765,71.38
16.781,75.73
16.796,78.61
16.812,79.76
16.828,79.49
16.843,78.31
16.859,76.58
16.875,74.36
16.890,71.44
16.906,67.46
16.921,62.1
16.937,55.12
16.953,46.49
16.968,36.32
16.984,24.94
17.000,12.88
17.015,0.8
17.031,-10.7
17.046,-21.15
17.062,-30.42
17.078,-38.51
17.093,-45.5
17.109,-51.35
17.125,-55.83
17.140,-58.48
17.156,-58.62
17.171,-55.58
17.187,-48.86
17.203,-38.6
17.218,-25.83
17.234,-12.4
17.250,-0.53
17.265,7.94
17.281,12.09
17.296,12.15
17.312,9.01
17.328,3.78
17.343,-2.88
17.359,-10.57
17.375,-19.03
17.390,-27.89
17.406,-36.77
17.421,-45.46
17.437,-53.85
17.453,-61.56
17.468,-67.55
17.484,-70.4
17.500,-69.02
17.515,-63.74
17.531,-56.67
17.546,-51.01
17.562,-49.5
17.578,-52.89
17.593,-59.64
17.609,-66.91
17.625,-72.39
17.640,-75.55
17.656,-77.75
17.671,-80.91
17.687,-85.86
17.703,-91.44
17.718,-94.81
17.734,-92.94
17.750,-84.17
17.765,-69.15
17.781,-50.63
17.796,-32.58
17.812,-18.68
17.828,-11.1
17.843,-10.03
17.859,-13.77
17.875,-19.73
17.890,-25.34
17.906,-28.94
17.921,-30.01
17.937,-28.85
17.953,-26.1
17.968,-22.11
17.984,-16.99
18.000,-10.7
18.015,-3.52
18.031,3.71
18.046,9.68
18.062,13.07
18.078,13.06
18.093,9.73
18.109,4.05
18.125,-2.66
18.140,-9.16
18.156,-14.8
18.171,-19.61
18.187,-24.09
18.203,-28.84
18.218,-34.25
18.234,-40.42
18.250,-47.18
18.265,-54.27
18.281,-61.25
18.296,-67.47
18.312,-71.93
18.328,-73.45
18.343,-70.99
18.359,-64.11
18.375,-53.2
18.390,-39.44
18.406,-24.46
18.421,-9.83
18.437,3.27
18.453,14.18
18.468,22.53
18.484,28.09
18.500,30.68
18.515,30.23
18.531,27.01
18.546,21.72
18.562,15.41
18.578,9.2
18.593,3.98
18.609,0.11
18.625,-2.61
18.640,-4.79
18.656,-7.14
18.671,-10.03
18.687,-13.42
18.703,-16.9
18.718,-19.99
18.734,-22.39
18.750,-24.16
18.765,-25.68
18.781,-27.48
18.796,-30.02
18.812,-33.56
18.828,-38.14
18.843,-43.56
18.859,-49.38
18.875,-54.82
18.890,-58.8
18.906,-60.14
18.921,-57.77
18.937,-51.16
18.953,-40.5
18.968,-26.72
18.984,-11.26
19.000,4.31
19.015,18.65
19.031,30.81
19.046,40.29
19.062,46.9
19.078,50.67
19.093,51.82
19.109,50.69
19.125,47.83
19.140,43.81
19.156,39.2
19.171,34.52
19.187,30.13
19.203,26.27
19.218,22.96
19.234,20.15
19.250,17.61
19.265,15.19
19.281,12.74
19.296,10.24
19.312,7.75
19.328,5.42
19.343,3.39
19.359,1.6
19.375,-0.14
19.390,-2.14
19.406,-4.77
19.421,-8.25
19.437,-12.37
19.453,-16.49
19.468,-19.47
19.484,-19.98
19.500,-16.88
19.515,-9.66
19.531,1.43
19.546,15.43
19.562,30.99
19.578,46.87
19.593,62.25
19.609,76.89
19.625,90.98
19.640,104.85
19.656,118.56
19.671,131.82
19.687,143.91
19.703,153.85
19.718,160.74
19.734,163.95
19.750,163.16
19.765,158.42
19.781,150.06
19.796,138.78
19.812,125.57
19.828,111.67
19.843,98.37
19.859,86.93
19.875,78.45
19.890,73.93
19.906,74.15
19.921,79.34
19.937,88.66
19.953,99.99
19.968,110.03
19.984,115.08
20.000,112.35
20.015,101.14
20.031,83.36
20.046,63.03
20.062,44.87
20.078,32.54
20.093,27.47
20.109,28.74
20.125,33.73
20.140,39.38
20.156,42.92
20.171,42.26
20.187,36.12
20.203,24.0
20.218,6.54
20.234,-14.23
20.250,-35.11
20.265,-52.63
20.281,-64.37
20.296,-70.08
20.312,-71.8
20.328,-72.67
20.343,-75.28
20.359,-80.29
20.375,-86.4
20.390,-91.49
20.406,-94.11
20.421,-94.45
20.437,-94.04
20.453,-94.64
20.468,-97.02
20.484,-100.52
20.500,-103.53
20.515,-104.36
20.531,-102.2
20.546,-97.34
20.562,-90.84
20.578,-83.94
20.593,-77.59
20.609,-72.31
20.625,-68.32
20.640,-65.63
20.656,-64.09
20.671,-63.24
20.687,-62.17
20.703,-59.6
20.718,-54.14
20.734,-44.75
20.750,-31.06
20.765,-13.6
20.781,6.24
20.796,26.46
20.812,44.84
20.828,59.34
20.843,68.37
20.859,71.09
20.875,67.29
20.890,57.43
20.906,42.46
20.921,23.69
20.937,2.62
20.953,-19.24
20.968,-40.61
20.984,-60.58
21.000,-78.64
21.015,-94.6
21.031,-108.38
21.046,-119.8
21.062,-128.6
21.078,-134.48
21.093,-137.36
21.109,-137.6
21.125,-135.98
21.140,-133.51
21.156,-131.23
21.171,-129.9
21.187,-129.93
21.203,-131.39
21.218,-134.05
21.234,-137.42
21.250,-140.64
21.265,-142.56
21.281,-141.83
21.296,-137.26
21.312,-128.17
21.328,-114.69
21.343,-97.75
21.359,-78.8
21.375,-59.44
21.390,-41.04
21.406,-24.52
21.421,-10.28
21.437,1.6
21.453,11.29
21.468,19.0
21.484,24.96
21.500,29.45
21.515,32.77
21.531,35.24
21.546,37.14
21.562,38.69
21.578,39.97
21.593,41.02
21.609,41.78
21.625,42.17
21.640,42.07
21.656,41.38
21.671,40.03
21.687,37.98
21.703,35.25
21.718,31.9
21.734,28.01
21.750,23.71
21.765,19.12
21.781,14.33
21.796,9.39
21.812,4.34
21.828,-0.88
21.843,-6.44
21.859,-12.49
21.875,-19.12
21.890,-26.14
21.906,-32.92
21.921,-38.43
21.937,-41.51
21.953,-41.13
21.968,-36.86
21.984,-28.99
22.000,-18.52
22.015,-6.78
22.031,4.9
22.046,15.56
22.062,24.7
22.078,32.12
22.093,37.82
22.109,41.82
22.125,44.19
22.140,45.11
22.156,44.86
22.171,43.89
22.187,42.66
22.203,41.46
22.218,40.42
22.234,39.42
22.250,38.31
22.265,36.93
22.281,35.24
22.296,33.23
22.312,30.94
22.328,28.33
22.343,25.31
22.359,21.82
22.375,17.88
22.390,13.63
22.406,9.27
22.421,4.97
22.437,0.9
22.453,-2.9
22.468,-6.46
22.484,-9.89
22.500,-13.39
22.515,-17.26
22.531,-21.78
22.546,-27.09
22.562,-32.96
22.578,-38.7
22.593,-43.19
22.609,-45.14
22.625,-43.54
22.640,-37.96
22.656,-28.8
22.671,-17.18
22.687,-4.59
22.703,7.51
22.718,18.05
22.734,26.51
22.750,32.8
22.765,37.11
22.781,39.73
22.796,40.92
22.812,40.91
22.828,40.03
22.843,38.64
22.859,37.14
22.875,35.83
22.890,34.83
22.906,34.09
22.921,33.4
22.937,32.5
22.953,31.25
22.968,29.62
22.984,27.67
23.000,25.51
23.015,23.1
23.031,20.32
23.046,17.03
23.062,13.1
23.078,8.53
23.093,3.6
23.109,-1.31
23.125,-5.82
23.140,-9.71
23.156,-13.08
23.171,-16.25
23.187,-19.67
23.203,-23.81
23.218,-28.9
23.234,-34.9
23.250,-41.31
23.265,-47.29
23.281,-51.7
23.296,-53.38
23.312,-51.45
23.328,-45.55
23.343,-36.06
23.359,-24.01
23.375,-10.84
23.390,1.92
23.406,13.11
23.421,22.03
23.437,28.46
23.453,32.52
23.468,34.47
23.484,34.62
23.500,33.36
23.515,31.13
23.531,28.4
23.546,25.71
23.562,23.41
23.578,21.68
23.593,20.4
23.609,19.35
23.625,18.27
23.640,17.05
23.656,15.67
23.671,14.2
23.687,12.66
23.703,10.99
23.718,9.02
23.734,6.57
23.750,3.55
23.765,0.03
23.781,-3.81
23.796,-7.72
23.812,-11.54
23.828,-15.26
23.843,-18.98
23.859,-23.01
23.875,-27.6
23.890,-32.9
23.906,-38.79
23.921,-44.78
23.937,-50.07
23.953,-53.67
23.968,-54.58
23.984,-52.06
24.000,-45.88
24.015,-36.43
24.031,-24.61
24.046,-11.66
24.062,1.14
24.078,12.69
24.093,22.26
24.109,29.44
24.125,34.2
24.140,36.68
24.156,37.25
24.171,36.35
24.187,34.5
24.203,32.16
24.218,29.74
24.234,27.52
24.250,25.66
24.265,24.3
24.281,23.49
24.296,23.2
24.312,23.3
24.328,23.56
24.343,23.66
24.359,23.27
24.375,22.22
24.390,20.42
24.406,17.95
24.421,14.92
24.437,11.45
24.453,7.62
24.468,3.52
24.484,-0.81
24.500,-5.29
24.515,-9.84
24.531,-14.53
24.546,-19.48
24.562,-24.88
24.578,-30.77
24.593,-36.73
24.609,-41.87
24.625,-44.89
24.640,-44.47
24.656,-39.75
24.671,-30.77
24.687,-18.38
24.703,-4.09
24.718,10.42
24.734,23.76
24.750,35.02
24.765,43.73
24.781,49.81
24.796,53.35
24.812,54.58
24.828,53.91
24.843,51.86
24.859,48.98
24.875,45.77
24.890,42.57
24.906,39.58
24.921,36.82
24.937,34.25
24.953,31.76
24.968,29.34
24.984,27.06
25.000,25.0
25.015,23.23
25.031,21.66
25.046,20.04
25.062,18.01
25.078,15.24
25.093,11.54
25.109,7.02
25.125,2.01
25.140,-3.11
25.156,-7.99
25.171,-12.54
25.187,-16.84
25.203,-21.16
25.218,-25.81
25.234,-31.0
25.250,-36.7
25.265,-42.41
25.281,-47.24
25.296,-49.96
25.312,-49.37
25.328,-44.75
25.343,-36.06
25.359,-24.08
25.375,-10.11
25.390,4.32
25.406,17.9
25.421,29.65
25.437,38.99
25.453,45.63
25.468,49.52
25.484,50.83
25.500,49.93
25.515,47.44
25.531,44.08
25.546,40.55
25.562,37.36
25.578,34.78
25.593,32.8
25.609,31.19
25.625,29.68
25.640,28.01
25.656,26.09
25.671,23.98
25.687,21.81
25.703,19.73
25.718,17.69
25.734,15.52
25.750,12.91
25.765,9.62
25.781,5.58
25.796,1.0
25.812,-3.72
25.828,-8.19
25.843,-12.14
25.859,-15.6
25.875,-18.75
25.890,-21.94
25.906,-25.55
25.921,-29.87
25.937,-34.97
25.953,-40.59
25.968,-46.08
25.984,-50.42
26.000,-52.45
26.015,-51.11
26.031,-45.87
26.046,-36.9
26.062,-25.09
26.078,-11.83
26.093,1.44
26.109,13.5
26.125,23.57
26.140,31.32
26.156,36.66
26.171,39.73
26.187,40.74
26.203,40.04
26.218,38.09
26.234,35.46
26.250,32.69
26.265,30.18
26.281,28.13
26.296,26.53
26.312,25.26
26.328,24.2
26.343,23.23
26.359,22.33
26.375,21.48
26.390,20.66
26.406,19.8
26.421,18.76
26.437,17.34
26.453,15.33
26.468,12.55
26.484,9.0
26.500,4.83
26.515,0.37
26.531,-4.06
26.546,-8.17
26.562,-11.9
26.578,-15.37
26.593,-18.86
26.609,-22.76
26.625,-27.33
26.640,-32.59
26.656,-38.23
26.671,-43.49
26.687,-47.29
26.703,-48.53
26.718,-46.37
26.734,-40.56
26.750,-31.52
26.765,-20.24
26.781,-7.95
26.796,4.11
26.812,14.99
26.828,24.06
26.843,30.99
26.859,35.68
26.875,38.23
26.890,38.8
26.906,37.74
26.921,35.48
26.937,32.54
26.953,29.48
26.968,26.8
26.984,24.78
27.000,23.48
27.015,22.68
27.031,22.02
27.046,21.2
27.062,20.02
27.078,18.52
27.093,16.87
27.109,15.22
27.125,13.56
27.140,11.75
27.156,9.51
27.171,6.61
27.187,3.01
27.203,-1.11
27.218,-5.44
27.234,-9.56
27.250,-13.21
27.265,-16.37
27.281,-19.15
27.296,-21.83
27.312,-24.67
27.328,-27.84
27.343,-31.36
27.359,-35.24
27.375,-39.26
27.390,-43.06
27.406,-46.05
27.421,-47.39
27.437,-46.25
27.453,-42.08
27.468,-34.83
27.484,-25.09
27.500,-13.99
27.515,-2.78
27.531,7.44
27.546,15.96
27.562,22.49
27.578,26.98
27.593,29.54
27.609,30.33
27.625,29.59
27.640,27.69
27.656,25.17
27.671,22.63
27.687,20.55
27.703,19.19
27.718,18.43
27.734,17.99
27.750,17.53
27.765,16.85
27.781,15.89
27.796,14.76
27.812,13.58
27.828,12.3
27.843,10.8
27.859,8.83
27.875,6.19
27.890,2.92
27.906,-0.83
27.921,-4.72
27.937,-8.43
27.953,-11.73
27.968,-14.64
27.984,-17.3
28.000,-19.98
28.015,-22.95
28.031,-26.35
28.046,-30.19
28.062,-34.29
28.078,-38.28
28.093,-41.63
28.109,-43.65
28.125,-43.64
28.140,-41.0
28.156,-35.52
28.171,-27.46
28.187,-17.54
28.203,-6.78
28.218,3.72
28.234,13.08
28.250,20.78
28.265,26.67
28.281,30.87
28.296,33.62
28.312,35.13
28.328,35.6
28.343,35.21
28.359,34.2
28.375,32.88
28.390,31.58
28.406,30.55
28.421,29.9
28.437,29.54
28.453,29.31
28.468,29.06
28.484,28.69
28.500,28.28
28.515,27.9
28.531,27.63
28.546,27.4
28.562,27.13
28.578,26.71
28.593,26.1
28.609,25.31
28.625,24.38
28.640,23.32
28.656,22.14
28.671,20.82
28.687,19.41
28.703,18.0
28.718,16.73
28.734,15.71
28.750,14.93
28.765,14.31
28.781,13.71
28.796,12.99
28.812,12.08
28.828,11.03
28.843,9.86
28.859,8.65
28.875,7.4
28.890,6.13
28.906,4.85
28.921,3.56
28.937,2.24
28.953,0.89
28.968,-0.53
28.984,-2.07
29.000,-3.69
29.015,-5.36
29.031,-6.98
29.046,-8.49
29.062,-9.87
29.078,-11.21
29.093,-12.62
29.109,-14.18
29.125,-16.0
29.140,-17.97
29.156,-20.03
29.171,-22.06
29.187,-24.04
29.203,-26.0
29.218,-27.99
29.234,-30.03
29.250,-32.08
29.265,-34.09
29.281,-35.92
29.296,-37.58
29.312,-39.06
29.328,-40.5
29.343,-42.1
29.359,-44.11
29.375,-46.78
29.390,-50.28
29.406,-54.53
29.421,-59.09
29.437,-63.14
29.453,-65.58
29.468,-65.33
29.484,-61.66
29.500,-54.51
29.515,-44.4
29.531,-32.42
29.546,-19.79
29.562,-7.64
29.578,3.22
29.593,12.29
29.609,19.38
29.625,24.4
29.640,27.38
29.656,28.48
29.671,28.04
29.687,26.55
29.703,24.59
29.718,22.66
29.734,21.07
29.750,19.9
29.765,19.03
29.781,18.26
29.796,17.4
29.812,16.42
29.828,15.3
29.843,14.03
29.859,12.56
29.875,10.75
29.890,8.44
29.906,5.54
29.921,2.1
29.937,-1.71
29.953,-5.6
29.968,-9.29
29.984,-12.62
30.000,-15.62
30.015,-18.46
30.031,-21.47
30.046,-24.91
30.062,-28.84
30.078,-32.99
30.093,-36.76
30.109,-39.29
30.125,-39.78
30.140,-37.66
30.156,-32.85
30.171,-25.8
30.187,-17.38
30.203,-8.62
30.218,-0.42
30.234,6.57
30.250,12.05
30.265,15.97
30.281,18.42
30.296,19.57
30.312,19.58
30.328,18.67
30.343,17.1
30.359,15.17
30.375,13.22
30.390,11.5
30.406,10.17
30.421,9.26
30.437,8.67
30.453,8.21
30.468,7.69
30.484,6.97
30.500,5.94
30.515,4.59
30.531,2.84
30.546,0.64
30.562,-2.06
30.578,-5.22
30.593,-8.74
30.609,-12.35
30.625,-15.82
30.640,-19.07
30.656,-22.12
30.671,-25.21
30.687,-28.59
30.703,-32.38
30.718,-36.37
30.734,-39.98
30.750,-42.38
30.765,-42.66
30.781,-40.22
30.796,-34.87
30.812,-26.94
30.828,-17.29
30.843,-6.96
30.859,3.03
30.875,11.89
30.890,19.13
30.906,24.55
30.921,28.1
30.937,29.9
30.953,30.12
30.968,29.08
30.984,27.19
31.000,24.92
31.015,22.72
31.031,20.89
31.046,19.55
31.062,18.62
31.078,17.91
31.093,17.23
31.109,16.42
31.125,15.46
31.140,14.29
31.156,12.86
31.171,11.11
31.187,8.98
31.203,6.46
31.218,3.61
31.234,0.54
31.250,-2.66
31.265,-5.83
31.281,-8.92
31.296,-11.92
31.312,-14.91
31.328,-18.02
31.343,-21.42
31.359,-25.1
31.375,-28.81
31.390,-31.94
31.406,-33.65
31.421,-33.11
31.437,-29.77
31.453,-23.62
31.468,-15.13
31.484,-5.22
31.500,5.11
31.515,14.9
31.531,23.45
31.546,30.36
31.562,35.46
31.578,38.82
31.593,40.64
31.609,41.18
31.625,40.69
31.640,39.42
31.656,37.53
31.671,35.19
31.687,32.6
31.703,29.92
31.718,27.28
31.734,24.8
31.750,22.53
31.765,20.47
31.781,18.63
31.796,16.97
31.812,15.41
31.828,13.89
31.843,12.26
31.859,10.41
31.875,8.25
31.890,5.73
31.906,2.88
31.921,-0.27
31.937,-3.66
31.953,-7.29
31.968,-11.14
31.984,-15.22
32.000,-19.46
32.015,-23.65
32.031,-27.36
32.046,-29.93
32.062,-30.61
32.078,-28.79
32.093,-24.19
32.109,-17.04
32.125,-7.99
32.140,2.03
32.156,12.12
32.171,21.54
32.187,29.77
32.203,36.51
32.218,41.56
32.234,44.82
32.250,46.31
32.265,46.22
32.281,44.91
32.296,42.89
32.312,40.66
32.328,38.55
32.343,36.7
32.359,35.01
32.375,33.31
32.390,31.48
32.406,29.47
32.421,27.37
32.437,25.26
32.453,23.14
32.468,20.93
32.484,18.43
32.500,15.5
32.515,12.1
32.531,8.31
32.546,4.27
32.562,0.18
32.578,-3.86
32.593,-7.76
32.609,-11.44
32.625,-14.79
32.640,-17.78
32.656,-20.52
32.671,-23.29
32.687,-26.48
32.703,-30.44
32.718,-35.2
32.734,-40.33
32.750,-44.94
32.765,-47.86
32.781,-47.99
32.796,-44.71
32.812,-38.0
32.828,-28.44
32.843,-17.04
32.859,-4.96
32.875,6.74
32.890,17.27
32.906,26.06
32.921,32.83
32.937,37.52
32.953,40.3
32.968,41.49
32.984,41.46
33.000,40.6
33.015,39.21
33.031,37.47
33.046,35.47
33.062,33.24
33.078,30.82
33.093,28.36
33.109,26.0
33.125,23.92
33.140,22.16
33.156,20.68
33.171,19.26
33.187,17.67
33.203,15.71
33.218,13.36
33.234,10.73
33.250,7.97
33.265,5.17
33.281,2.33
33.296,-0.65
33.312,-3.88
33.328,-7.36
33.343,-11.01
33.359,-14.66
33.375,-18.08
33.390,-21.17
33.406,-23.93
33.421,-26.43
33.437,-28.87
33.453,-31.39
33.468,-34.13
33.484,-37.21
33.500,-40.63
33.515,-44.26
33.531,-47.75
33.546,-50.59
33.562,-52.1
33.578,-51.59
33.593,-48.54
33.609,-42.76
33.625,-34.48
33.640,-24.29
33.656,-13.05
33.671,-1.66
33.687,9.02
33.703,18.37
33.718,25.97
33.734,31.65
33.750,35.45
33.765,37.49
33.781,38.03
33.796,37.33
33.812,35.71
33.828,33.58
33.843,31.34
33.859,29.3
33.875,27.61
33.890,26.29
33.906,25.2
33.921,24.15
33.937,23.03
33.953,21.76
33.968,20.38
33.984,18.87
34.000,17.17
34.015,15.16
34.031,12.76
34.046,9.95
34.062,6.93
34.078,3.91
34.093,1.11
34.109,-1.37
34.125,-3.64
34.140,-5.89
34.156,-8.32
34.171,-10.96
34.187,-13.76
34.203,-16.55
34.218,-19.2
34.234,-21.68
34.250,-23.99
34.265,-26.29
34.281,-28.66
34.296,-31.24
34.312,-34.14
34.328,-37.5
34.343,-41.29
34.359,-45.32
34.375,-49.08
34.390,-51.72
34.406,-52.47
34.421,-50.7
34.437,-46.24
34.453,-39.35
34.468,-30.67
34.484,-20.99
34.500,-11.1
34.515,-1.67
34.531,6.76
34.546,13.75
34.562,19.06
34.578,22.59
34.593,24.45
34.609,24.94
34.625,24.48
34.640,23.47
34.656,22.25
34.671,21.02
34.687,19.84
34.703,18.74
34.718,17.73
34.734,16.82
34.750,16.0
34.765,15.2
34.781,14.28
34.796,13.14
34.812,11.8
34.828,10.28
34.843,8.71
34.859,7.07
34.875,5.29
34.890,3.22
34.906,0.77
34.921,-2.06
34.937,-5.04
34.953,-7.92
34.968,-10.56
34.984,-12.92
35.000,-15.16
35.015,-17.41
35.031,-19.81
35.046,-22.31
35.062,-24.76
35.078,-26.99
35.093,-28.9
35.109,-30.57
35.125,-32.18
35.140,-34.02
35.156,-36.3
35.171,-39.1
35.187,-42.22
35.203,-45.16
35.218,-47.23
35.234,-47.65
35.250,-45.91
35.265,-41.78
35.281,-35.48
35.296,-27.51
35.312,-18.56
35.328,-9.27
35.343,-0.24
35.359,7.99
35.375,14.99
35.390,20.38
35.406,24.01
35.421,25.95
35.437,26.52
35.453,26.25
35.468,25.64
35.484,25.05
35.500,24.58
35.515,24.13
35.531,23.54
35.546,22.79
35.562,21.95
35.578,21.2
35.593,20.73
35.609,20.53
35.625,20.51
35.640,20.41
35.656,20.03
35.671,19.21
35.687,17.93
35.703,16.22
35.718,14.16
35.734,11.88
35.750,9.42
35.765,6.84
35.781,4.19
35.796,1.53
35.812,-1.11
35.828,-3.69
35.843,-6.18
35.859,-8.58
35.875,-10.86
35.890,-13.04
35.906,-15.14
35.921,-17.2
35.937,-19.35
35.953,-21.69
35.968,-24.37
35.984,-27.4
36.000,-30.6
36.015,-33.49
36.031,-35.36
36.046,-35.45
36.062,-33.17
36.078,-28.4
36.093,-21.47
36.109,-13.1
36.125,-4.16
36.140,4.61
36.156,12.71
36.171,19.84
36.187,25.82
36.203,30.53
36.218,33.8
36.234,35.59
36.250,36.04
36.265,35.47
36.281,34.36
36.296,33.15
36.312,32.13
36.328,31.33
36.343,30.65
36.359,29.94
36.375,29.1
36.390,28.19
36.406,27.25
36.421,26.22
36.437,24.87
36.453,22.93
36.468,20.2
36.484,16.72
36.500,12.83
36.515,9.01
36.531,5.69
36.546,2.98
36.562,0.74
36.578,-1.39
36.593,-3.7
36.609,-6.27
36.625,-9.01
36.640,-11.7
36.656,-14.19
36.671,-16.46
36.687,-18.65
36.703,-20.9
36.718,-23.36
36.734,-26.08
36.750,-29.1
36.765,-32.43
36.781,-36.0
36.796,-39.66
36.812,-43.0
36.828,-45.41
36.843,-46.13
36.859,-44.55
36.875,-40.44
36.890,-34.06
36.906,-26.04
36.921,-17.21
36.937,-8.33
36.953,0.12
36.968,7.87
36.984,14.76
37.000,20.63
37.015,25.24
37.031,28.42
37.046,30.17
37.062,30.73
37.078,30.48
37.093,29.84
37.109,29.1
37.125,28.31
37.140,27.44
37.156,26.39
37.171,25.16
37.187,23.81
37.203,22.45
37.218,21.14
37.234,19.88
37.250,18.61
37.265,17.18
37.281,15.5
37.296,13.48
37.312,11.1
37.328,8.39
37.343,5.48
37.359,2.54
37.375,-0.27
37.390,-2.88
37.406,-5.37
37.421,-7.86
37.437,-10.52
37.453,-13.36
37.468,-16.29
37.484,-19.17
37.500,-21.93
37.515,-24.58
37.531,-27.25
37.546,-30.12
37.562,-33.26
37.578,-36.71
37.593,-40.35
37.609,-43.97
37.625,-47.29
37.640,-49.84
37.656,-51.04
37.671,-50.26
37.687,-47.07
37.703,-41.33
37.718,-33.38
37.734,-23.86
37.750,-13.59
37.765,-3.38
37.781,6.16
37.796,14.6
37.812,21.67
37.828,27.2
37.843,31.16
37.859,33.61
37.875,34.8
37.890,35.03
37.906,34.66
37.921,33.95
37.937,33.01
37.953,31.83
37.968,30.35
37.984,28.59
38.000,26.62
38.015,24.64
38.031,22.86
38.046,21.39
38.062,20.17
38.078,19.03
38.093,17.68
38.109,15.91
38.125,13.62
38.140,10.84
38.156,7.75
38.171,4.52
38.187,1.28
38.203,-1.94
38.218,-5.18
38.234,-8.51
38.250,-12.0
38.265,-15.65
38.281,-19.38
38.296,-23.05
38.312,-26.52
38.328,-29.73
38.343,-32.7
38.359,-35.52
38.375,-38.35
38.390,-41.4
38.406,-44.83
38.421,-48.64
38.437,-52.66
38.453,-56.43
38.468,-59.34
38.484,-60.61
38.500,-59.58
38.515,-55.89
38.531,-49.56
38.546,-41.06
38.562,-31.13
38.578,-20.62
38.593,-10.32
38.609,-0.8
38.625,7.48
38.640,14.24
38.656,19.35
38.671,22.79
38.687,24.72
38.703,25.47
38.718,25.48
38.734,25.19
38.750,24.95
38.765,24.91
38.781,25.06
38.796,25.29
38.812,25.46
38.828,25.45
38.843,25.2
38.859,24.64
38.875,23.73
38.890,22.44
38.906,20.72
38.921,18.56
38.937,16.07
38.953,13.38
38.968,10.63
38.984,7.91
39.000,5.26
39.015,2.66
39.031,0.03
39.046,-2.66
39.062,-5.45
39.078,-8.24
39.093,-10.9
39.109,-13.25
39.125,-15.18
39.140,-16.74
39.156,-18.13
39.171,-19.7
39.187,-21.87
39.203,-24.95
39.218,-28.94
39.234,-33.47
39.250,-37.8
39.265,-40.89
39.281,-41.78
39.296,-39.82
39.312,-34.79
39.328,-27.04
39.343,-17.31
39.359,-6.59
39.375,4.1
39.390,13.84
39.406,21.99
39.421,28.16
39.437,32.31
39.453,34.69
39.468,35.68
39.484,35.71
39.500,35.1
39.515,34.05
39.531,32.67
39.546,31.06
39.562,29.34
39.578,27.69
39.593,26.28
39.609,25.21
39.625,24.48
39.640,23.98
39.656,23.56
39.671,23.08
39.687,22.42
39.703,21.51
39.718,20.25
39.734,18.59
39.750,16.44
39.765,13.78
39.781,10.7
39.796,7.33
39.812,3.89
39.828,0.6
39.843,-2.43
39.859,-5.17
39.875,-7.7
39.890,-10.16
39.906,-12.69
39.921,-15.49
39.937,-18.75
39.953,-22.56
39.968,-26.86
39.984,-31.29
40.000,-35.23
40.015,-37.86
40.031,-38.41
40.046,-36.33
40.062,-31.51
40.078,-24.28
40.093,-15.3
40.109,-5.38
40.125,4.66
40.140,14.12
40.156,22.48
40.171,29.39
40.187,34.63
40.203,38.11
40.218,39.83
40.234,39.91
40.250,38.63
40.265,36.4
40.281,33.74
40.296,31.19
40.312,29.1
40.328,27.58
40.343,26.56
40.359,25.81
40.375,25.1
40.390,24.23
40.406,23.13
40.421,21.76
40.437,20.09
40.453,18.12
40.468,15.81
40.484,13.19
40.500,10.25
40.515,7.01
40.531,3.45
40.546,-0.4
40.562,-4.46
40.578,-8.63
40.593,-12.78
40.609,-16.8
40.625,-20.63
40.640,-24.32
40.656,-27.93
40.671,-31.56
40.687,-35.3
40.703,-39.2
40.718,-43.22
40.734,-47.14
40.750,-50.5
40.765,-52.64
40.781,-52.81
40.796,-50.44
40.812,-45.28
40.828,-37.59
40.843,-28.06
40.859,-17.58
40.875,-7.03
40.890,2.89
40.906,11.69
40.921,19.07
40.937,24.86
40.953,29.06
40.968,31.76
40.984,33.21
41.000,33.69
41.015,33.49
41.031,32.78
41.046,31.68
41.062,30.28
41.078,28.75
41.093,27.3
41.109,26.07
41.125,25.08
41.140,24.17
41.156,23.09
41.171,21.57
41.187,19.56
41.203,17.17
41.218,14.59
41.234,11.98
41.250,9.31
41.265,6.4
41.281,2.98
41.296,-1.04
41.312,-5.6
41.328,-10.42
41.343,-15.11
41.359,-19.42
41.375,-23.24
41.390,-26.64
41.406,-29.76
41.421,-32.82
41.437,-35.99
41.453,-39.4
41.468,-43.2
41.484,-47.35
41.500,-51.62
41.515,-55.42
41.531,-57.89
41.546,-58.09
41.562,-55.39
41.578,-49.65
41.593,-41.29
41.609,-31.12
41.625,-20.1
41.640,-9.15
41.656,1.06
41.671,10.04
41.687,17.49
41.703,23.22
41.718,27.17
41.734,29.42
41.750,30.17
41.765,29.78
41.781,28.59
41.796,27.01
41.812,25.34
41.828,23.81
41.843,22.5
41.859,21.28
41.875,20.02
41.890,18.51
41.906,16.71
41.921,14.69
41.937,12.64
41.953,10.71
41.968,8.92
41.984,7.18
42.000,5.33
42.015,3.25
42.031,0.92
42.046,-1.57
42.062,-4.09
42.078,-6.61
42.093,-9.19
42.109,-11.93
42.125,-14.88
42.140,-17.99
42.156,-21.05
42.171,-23.86
42.187,-26.32
42.203,-28.49
42.218,-30.66
42.234,-33.17
42.250,-36.23
42.265,-39.75
42.281,-43.28
42.296,-46.02
42.312,-47.09
42.328,-45.81
42.343,-41.87
42.359,-35.43
42.375,-27.04
42.390,-17.53
42.406,-7.69
42.421,1.73
42.437,10.22
42.453,17.42
42.468,23.11
42.484,27.19
42.500,29.65
42.515,30.61
42.531,30.32
42.546,29.16
42.562,27.53
42.578,25.8
42.593,24.24
42.609,22.97
42.625,22.01
42.640,21.28
42.656,20.64
42.671,19.93
42.687,19.01
42.703,17.77
42.718,16.18
42.734,14.3
42.750,12.23
42.765,10.13
42.781,8.06
42.796,5.98
42.812,3.78
42.828,1.39
42.843,-1.21
42.859,-3.89
42.875,-6.43
42.890,-8.64
42.906,-10.47
42.921,-12.05
42.937,-13.68
42.953,-15.63
42.968,-18.05
42.984,-21.03
43.000,-24.49
43.015,-28.21
43.031,-31.81
43.046,-34.7
43.062,-36.15
43.078,-35.4
43.093,-31.94
43.109,-25.64
43.125,-16.99
43.140,-6.86
43.156,3.69
43.171,13.67
43.187,22.38
43.203,29.44
43.218,34.72
43.234,38.24
43.250,40.19
43.265,40.74
43.281,40.24
43.296,39.01
43.312,37.37
43.328,35.63
43.343,34.05
43.359,32.79
43.375,31.86
43.390,31.14
43.406,30.43
43.421,29.55
43.437,28.48
43.453,27.28
43.468,26.12
43.484,25.07
43.500,24.02
43.515,22.61
43.531,20.48
43.546,17.37
43.562,13.31
43.578,8.58
43.593,3.59
43.609,-1.23
43.625,-5.68
43.640,-9.71
43.656,-13.45
43.671,-17.1
43.687,-20.85
43.703,-24.88
43.718,-29.27
43.734,-33.98
43.750,-38.68
43.765,-42.79
43.781,-45.48
43.796,-45.93
43.812,-43.54
43.828,-38.23
43.843,-30.42
43.859,-20.95
43.875,-10.78
43.890,-0.8
43.906,8.4
43.921,16.42
43.937,23.07
43.953,28.22
43.968,31.83
43.984,33.93
44.000,34.68
44.015,34.35
44.031,33.22
44.046,31.59
44.062,29.67
44.078,27.64
44.093,25.69
44.109,23.92
44.125,22.44
44.140,21.23
44.156,20.21
44.171,19.22
44.187,18.15
44.203,16.86
44.218,15.31
44.234,13.43
44.250,11.12
44.265,8.3
44.281,4.93
44.296,1.05
44.312,-3.21
44.328,-7.59
44.343,-11.84
44.359,-15.77
44.375,-19.33
44.390,-22.59
44.406,-25.67
44.421,-28.73
44.437,-31.91
44.453,-35.34
44.468,-39.1
44.484,-43.18
44.500,-47.34
44.515,-51.05
44.531,-53.54
44.546,-53.94
44.562,-51.56
44.578,-46.15
44.593,-38.0
44.609,-27.92
44.625,-16.93
44.640,-6.0
44.656,4.22
44.671,13.34
44.687,21.17
44.703,27.54
44.718,32.27
44.734,35.25
44.750,36.53
44.765,36.37
44.781,35.29
44.796,33.78
44.812,32.18
44.828,30.65
44.843,29.13
44.859,27.53
44.875,25.78
44.890,23.91
44.906,21.97
44.921,20.02
44.937,18.06
44.953,16.07
44.968,14.03
44.984,11.91
45.000,9.65
45.015,7.12
45.031,4.13
45.046,0.53
45.062,-3.67
45.078,-8.32
45.093,-13.05
45.109,-17.46
45.125,-21.28
45.140,-24.43
45.156,-27.12
45.171,-29.67
45.187,-32.43
45.203,-35.64
45.218,-39.35
45.234,-43.43
45.250,-47.54
45.265,-51.19
45.281,-53.69
45.296,-54.32
45.312,-52.48
45.328,-47.92
45.343,-40.86
45.359,-31.96
45.375,-22.16
45.390,-12.41
45.406,-3.46
45.421,4.27
45.437,10.61
45.453,15.51
45.468,19.0
45.484,21.14
45.500,22.11
45.515,22.13
45.531,21.53
45.546,20.63
45.562,19.67
45.578,18.81
45.593,18.06
45.609,17.39
45.625,16.66
45.640,15.8
45.656,14.72
45.671,13.48
45.687,12.12
45.703,10.74
45.718,9.37
45.734,7.92
45.750,6.2
45.765,3.97
45.781,1.09
45.796,-2.39
45.812,-6.21
45.828,-10.02
45.843,-13.52
45.859,-16.53
45.875,-19.08
45.890,-21.35
45.906,-23.54
45.921,-25.9
45.937,-28.58
45.953,-31.64
45.968,-34.99
45.984,-38.33
46.000,-41.08
46.015,-42.5
46.031,-41.92
46.046,-38.87
46.062,-33.28
46.078,-25.53
46.093,-16.34
46.109,-6.53
46.125,3.04
46.140,11.72
46.156,19.06
46.171,24.85
46.187,29.06
46.203,31.78
46.218,33.18
46.234,33.5
46.250,33.06
46.265,32.16
46.281,31.09
46.296,30.09
46.312,29.21
46.328,28.45
46.343,27.71
46.359,26.94
46.375,26.16
46.390,25.5
46.406,25.08
46.421,24.96
46.437,25.06
46.453,25.15
46.468,24.99
46.484,24.37
46.500,23.25
46.515,21.75
46.531,20.12
46.546,18.6
46.562,17.36
46.578,16.46
46.593,15.79
46.609,15.22
46.625,14.58
46.640,13.81
46.656,12.95
46.671,12.26
46.687,12.16
46.703,13.19
46.718,15.92
46.734,20.82
46.750,28.06
46.765,37.47
46.781,48.52
46.796,60.51
46.812,72.65
46.828,84.36
46.843,95.23
46.859,104.98
46.875,113.17
46.890,119.05
46.906,121.53
46.921,119.45
46.937,112.15
46.953,99.79
46.968,83.56
46.984,65.37
47.000,47.33
47.015,31.1
47.031,17.57
47.046,6.81
47.062,-1.67
47.078,-8.48
47.093,-14.14
47.109,-18.98
47.125,-23.14
47.140,-26.6
47.156,-29.19
47.171,-30.56
47.187,-30.26
47.203,-27.88
47.218,-23.41
47.234,-17.39
47.250,-10.96
47.265,-5.73
47.281,-3.31
47.296,-4.94
47.312,-11.07
47.328,-21.37
47.343,-34.72
47.359,-49.56
47.375,-64.11
47.390,-76.71
47.406,-86.08
47.421,-91.55
47.437,-93.16
47.453,-91.59
47.468,-87.91
47.484,-83.25
47.500,-78.54
47.515,-74.27
47.531,-70.46
47.546,-66.91
47.562,-63.27
47.578,-59.22
47.593,-54.61
47.609,-49.43
47.625,-43.84
47.640,-38.2
47.656,-32.95
47.671,-28.51
47.687,-25.11
47.703,-22.7
47.718,-20.94
47.734,-19.32
47.750,-17.35
47.765,-14.75
47.781,-11.52
47.796,-7.91
47.812,-4.32
47.828,-1.34
47.843,0.37
47.859,0.05
47.875,-2.94
47.890,-8.94
47.906,-17.77
47.921,-28.6
47.937,-40.17
47.953,-51.16
47.968,-60.69
47.984,-68.57
48.000,-75.18
48.015,-81.06
48.031,-86.46
48.046,-91.0
48.062,-93.78
48.078,-93.78
48.093,-90.33
48.109,-83.42
48.125,-73.56
48.140,-61.55
48.156,-48.06
48.171,-33.41
48.187,-17.67
48.203,-0.96
48.218,16.3
48.234,33.3
48.250,49.08
48.265,62.79
48.281,74.04
48.296,82.89
48.312,89.79
48.328,95.23
48.343,99.48
48.359,102.6
48.375,104.44
48.390,104.98
48.406,104.34
48.421,102.85
48.437,100.78
48.453,98.21
48.468,94.94
48.484,90.6
48.500,84.96
48.515,78.13
48.531,70.65
48.546,63.28
48.562,56.61
48.578,50.9
48.593,45.97
48.609,41.38
48.625,36.65
48.640,31.41
48.656,25.4
48.671,18.43
48.687,10.47
48.703,1.72
48.718,-7.2
48.734,-15.22
48.750,-21.11
48.765,-23.92
48.781,-23.32
48.796,-19.76
48.812,-14.28
48.828,-8.02
48.843,-1.98
48.859,3.32
48.875,7.71
48.890,11.14
48.906,13.53
48.921,14.74
48.937,14.64
48.953,13.24
48.968,10.77
48.984,7.59
49.000,4.08
49.015,0.55
49.031,-2.83
49.046,-5.93
49.062,-8.72
49.078,-11.19
49.093,-13.45
49.109,-15.81
49.125,-18.66
49.140,-22.36
49.156,-27.11
49.171,-32.83
49.187,-39.21
49.203,-45.84
49.218,-52.27
49.234,-58.15
49.250,-63.15
49.265,-66.95
49.281,-69.26
49.296,-69.96
49.312,-69.24
49.328,-67.62
49.343,-65.84
49.359,-64.63
49.375,-64.33
49.390,-64.82
49.406,-65.47
49.421,-65.47
49.437,-64.01
49.453,-60.56
49.468,-54.93
49.484,-47.31
49.500,-38.2
49.515,-28.21
49.531,-18.02
49.546,-8.16
49.562,0.9
49.578,8.82
49.593,15.37
49.609,20.43
49.625,23.95
49.640,26.0
49.656,26.86
49.671,26.96
49.687,26.84
49.703,26.94
49.718,27.51
49.734,28.53
49.750,29.82
49.765,31.19
49.781,32.53
49.796,33.87
49.812,35.13
49.828,36.05
49.843,36.18
49.859,35.01
49.875,32.34
49.890,28.44
49.906,24.03
49.921,19.92
49.937,16.55
49.953,13.72
49.968,10.65
49.984,6.5
50.000,0.75
50.015,-6.42
50.031,-14.17
50.046,-21.32
50.062,-26.75
50.078,-29.71
50.093,-30.0
50.109,-27.78
50.125,-23.5
50.140,-17.76
50.156,-11.16
50.171,-4.25
50.187,2.44
50.203,8.44
50.218,13.34
50.234,16.75
50.250,18.51
50.265,18.69
50.281,17.74
50.296,16.37
50.312,15.28
50.328,14.93
50.343,15.37
50.359,16.33
50.375,17.44
50.390,18.52
50.406,19.63
50.421,21.03
50.437,22.88
50.453,25.1
50.468,27.29
50.484,28.97
50.500,29.76
50.515,29.5
50.531,28.32
50.546,26.5
50.562,24.37
50.578,22.24
50.593,20.41
50.609,19.14
50.625,18.59
50.640,18.71
50.656,19.18
50.671,19.58
50.687,19.51
50.703,18.83
50.718,17.69
50.734,16.39
50.750,15.22
50.765,14.31
50.781,13.51
50.796,12.57
50.812,11.28
50.828,9.51
50.843,7.36
50.859,5.05
50.875,2.84
50.890,0.95
50.906,-0.5
50.921,-1.48
50.937,-2.05
50.953,-2.31
50.968,-2.38
50.984,-2.38
51.000,-2.34
51.015,-2.36
51.031,-2.55
51.046,-3.07
51.062,-4.06
51.078,-5.61
51.093,-7.68
51.109,-10.08
51.125,-12.61
51.140,-15.1
51.156,-17.53
51.171,-20.05
51.187,-22.9
51.203,-26.2
51.218,-29.97
51.234,-34.0
51.250,-37.99
51.265,-41.59
51.281,-44.6
51.296,-46.97
51.312,-48.86
51.328,-50.61
51.343,-52.7
51.359,-55.61
51.375,-59.7
51.390,-64.89
51.406,-70.64
51.421,-75.81
51.437,-79.01
51.453,-78.98
51.468,-75.05
51.484,-67.35
51.500,-56.82
51.515,-44.83
51.531,-32.72
51.546,-21.54
51.562,-11.87
51.578,-3.95
51.593,2.21
51.609,6.68
51.625,9.56
51.640,10.99
51.656,11.28
51.671,10.79
51.687,9.94
51.703,9.12
51.718,8.59
51.734,8.39
51.750,8.43
51.765,8.54
51.781,8.57
51.796,8.43
51.812,8.11
51.828,7.64
51.843,7.07
51.859,6.38
51.875,5.51
51.890,4.39
51.906,2.96
51.921,1.27
51.937,-0.61
51.953,-2.55
51.968,-4.58
51.984,-6.73
52.000,-9.12
52.015,-11.91
52.031,-15.21
52.046,-19.08
52.062,-23.48
52.078,-28.24
52.093,-32.96
52.109,-37.0
52.125,-39.5
52.140,-39.64
52.156,-36.94
52.171,-31.47
52.187,-23.91
52.203,-15.37
52.218,-7.01
52.234,0.25
52.250,5.98
52.265,10.19
52.281,13.09
52.296,14.92
52.312,15.83
52.328,15.86
52.343,15.11
52.359,13.79
52.375,12.29
52.390,11.03
52.406,10.34
52.421,10.26
52.437,10.58
52.453,10.92
52.468,10.93
52.484,10.46
52.500,9.59
52.515,8.46
52.531,7.17
52.546,5.68
52.562,3.78
52.578,1.31
52.593,-1.8
52.609,-5.37
52.625,-9.05
52.640,-12.53
52.656,-15.6
52.671,-18.26
52.687,-20.73
52.703,-23.31
52.718,-26.28
52.734,-29.77
52.750,-33.64
52.765,-37.39
52.781,-40.22
52.796,-41.17
52.812,-39.37
52.828,-34.41
52.843,-26.48
52.859,-16.44
52.875,-5.53
52.890,4.95
52.906,14.05
52.921,21.33
52.937,26.84
52.953,30.88
52.968,33.72
52.984,35.48
53.000,36.22
53.015,36.03
53.031,35.13
53.046,33.95
53.062,32.9
53.078,32.33
53.093,32.24
53.109,32.44
53.125,32.65
53.140,32.67
53.156,32.4
53.171,31.8
53.187,30.82
53.203,29.26
53.218,26.97
53.234,23.84
53.250,20.0
53.265,15.75
53.281,11.43
53.296,7.32
53.312,3.46
53.328,-0.29
53.343,-4.12
53.359,-8.28
53.375,-13.01
53.390,-18.5
53.406,-24.84
53.421,-31.79
53.437,-38.61
53.453,-44.15
53.468,-47.09
53.484,-46.35
53.500,-41.67
53.515,-33.7
53.531,-23.83
53.546,-13.7
53.562,-4.59
53.578,2.96
53.593,9.04
53.609,14.1
53.625,18.55
53.640,22.48
53.656,25.74
53.671,28.15
53.687,29.75
53.703,30.8
53.718,31.71
53.734,32.74
53.750,33.93
53.765,35.04
53.781,35.75
53.796,35.86
53.812,35.34
53.828,34.31
53.843,32.96
53.859,31.42
53.875,29.66
53.890,27.6
53.906,25.07
53.921,21.97
53.937,18.22
53.953,13.87
53.968,9.03
53.984,3.98
54.000,-1.03
54.015,-5.81
54.031,-10.37
54.046,-15.0
54.062,-20.12
54.078,-26.11
54.093,-32.93
54.109,-39.99
54.125,-46.08
54.140,-49.74
54.156,-49.81
54.171,-45.86
54.187,-38.41
54.203,-28.76
54.218,-18.35
54.234,-8.25
54.250,1.04
54.265,9.57
54.281,17.5
54.296,24.72
54.312,30.76
54.328,34.97
54.343,36.91
54.359,36.69
54.375,34.95
54.390,32.58
54.406,30.25
54.421,28.25
54.437,26.43
54.453,24.44
54.468,22.02
54.484,19.19
54.500,16.13
54.515,13.07
54.531,10.1
54.546,7.13
54.562,3.95
54.578,0.36
54.593,-3.57
54.609,-7.6
54.625,-11.35
54.640,-14.51
54.656,-16.96
54.671,-18.78
54.687,-20.22
54.703,-21.63
54.718,-23.42
54.734,-25.98
54.750,-29.64
54.765,-34.63
54.781,-40.84
54.796,-47.67
54.812,-53.95
54.828,-58.21
54.843,-59.06
54.859,-55.68
54.875,-48.11
54.890,-37.23
54.906,-24.48
54.921,-11.29
54.937,1.2
54.953,12.33
54.968,21.79
54.984,29.47
55.000,35.27
55.015,39.14
55.031,41.14
55.046,41.47
55.062,40.52
55.078,38.71
55.093,36.41
55.109,33.86
55.125,31.25
55.140,28.64
55.156,26.09
55.171,23.66
55.187,21.4
55.203,19.42
55.218,17.78
55.234,16.44
55.250,15.21
55.265,13.76
55.281,11.68
55.296,8.6
55.312,4.37
55.328,-0.88
55.343,-6.74
55.359,-12.68
55.375,-18.23
55.390,-23.13
55.406,-27.39
55.421,-31.26
55.437,-35.15
55.453,-39.47
55.468,-44.55
55.484,-50.49
55.500,-57.05
55.515,-63.55
55.531,-68.85
55.546,-71.61
55.562,-70.62
55.578,-65.22
55.593,-55.55
55.609,-42.54
55.625,-27.61
55.640,-12.29
55.656,2.15
55.671,14.88
55.687,25.51
55.703,33.95
55.718,40.24
55.734,44.47
55.750,46.82
55.765,47.54
55.781,47.17
55.796,46.24
55.812,45.36
55.828,44.98
55.843,45.23
55.859,46.06
55.875,47.18
55.890,48.31
55.906,49.28
55.921,50.12
55.937,50.89
55.953,51.59
55.968,52.09
55.984,52.13
56.000,51.52
56.015,50.22
56.031,48.42
56.046,46.49
56.062,44.81
56.078,43.62
56.093,42.93
56.109,42.62
56.125,42.44
56.140,42.27
56.156,42.04
56.171,41.78
56.187,41.57
56.203,41.51
56.218,41.59
56.234,41.71
56.250,41.7
56.265,41.3
56.281,40.34
56.296,38.8
56.312,36.85
56.328,34.86
56.343,33.22
56.359,32.13
56.375,31.6
56.390,31.38
56.406,31.11
56.421,30.49
56.437,29.34
56.453,27.64
56.468,25.51
56.484,23.06
56.500,20.32
56.515,17.18
56.531,13.46
56.546,8.94
56.562,3.59
56.578,-2.44
56.593,-8.72
56.609,-14.68
56.625,-19.91
56.640,-24.23
56.656,-27.79
56.671,-31.04
56.687,-34.51
56.703,-38.54
56.718,-43.25
56.734,-48.43
56.750,-53.53
56.765,-57.98
56.781,-61.19
56.796,-62.85
56.812,-63.02
56.828,-62.19
56.843,-61.1
56.859,-60.7
56.875,-61.84
56.890,-65.02
56.906,-70.2
56.921,-76.67
56.937,-82.97
56.953,-87.19
56.968,-87.41
56.984,-82.33
57.000,-71.77
57.015,-56.84
57.031,-39.55
57.046,-22.22
57.062,-6.76
57.078,5.72
57.093,14.91
57.109,21.08
57.125,24.8
57.140,26.69
57.156,27.35
57.171,27.43
57.187,27.48
57.203,27.93
57.218,28.92
57.234,30.25
57.250,31.54
57.265,32.34
57.281,32.37
57.296,31.57
57.312,30.1
57.328,28.29
57.343,26.42
57.359,24.62
57.375,22.79
57.390,20.62
57.406,17.72
57.421,13.85
57.437,9.04
57.453,3.68
57.468,-1.71
57.484,-6.68
57.500,-11.03
57.515,-14.93
57.531,-18.81
57.546,-23.15
57.562,-28.35
57.578,-34.52
57.593,-41.35
57.609,-48.19
57.625,-54.06
57.640,-57.82
57.656,-58.39
57.671,-55.08
57.687,-47.83
57.703,-37.25
57.718,-24.59
57.734,-11.33
57.750,1.16
57.765,11.86
57.781,20.26
57.796,26.28
57.812,30.1
57.828,32.08
57.843,32.65
57.859,32.24
57.875,31.33
57.890,30.37
57.906,29.62
57.921,29.18
57.937,28.96
57.953,28.67
57.968,28.05
57.984,26.92
58.000,25.3
58.015,23.39
58.031,21.42
58.046,19.52
58.062,17.6
58.078,15.36
58.093,12.43
58.109,8.58
58.125,3.82
58.140,-1.56
58.156,-7.06
58.171,-12.19
58.187,-16.7
58.203,-20.66
58.218,-24.52
58.234,-28.9
58.250,-34.37
58.265,-41.2
58.281,-49.18
58.296,-57.49
58.312,-64.88
58.328,-69.91
58.343,-71.33
58.359,-68.44
58.375,-61.37
58.390,-50.88
58.406,-38.3
58.421,-25.1
58.437,-12.53
58.453,-1.46
58.468,7.69
58.484,14.83
58.500,20.01
58.515,23.37
58.531,25.07
58.546,25.39
58.562,24.7
58.578,23.52
58.593,22.28
58.609,21.32
58.625,20.8
58.640,20.65
58.656,20.75
58.671,20.92
58.687,21.04
58.703,21.09
58.718,21.14
58.734,21.29
58.750,21.62
58.765,22.21
58.781,22.99
58.796,23.84
58.812,24.57
58.828,25.04
58.843,25.2
58.859,25.19
58.875,25.21
58.890,25.48
58.906,26.09
58.921,26.99
58.937,27.92
58.953,28.67
58.968,29.02
58.984,28.91
59.000,28.31
59.015,27.28
59.031,25.82
59.046,24.0
59.062,21.93
59.078,19.75
59.093,17.67
59.109,15.8
59.125,14.16
59.140,12.65
59.156,11.16
59.171,9.67
59.187,8.25
59.203,7.01
59.218,6.02
59.234,5.26
59.250,4.52
59.265,3.57
59.281,2.23
59.296,0.45
59.312,-1.73
59.328,-4.17
59.343,-6.76
59.359,-9.44
59.375,-12.19
59.390,-15.08
59.406,-18.17
59.421,-21.44
59.437,-24.86
59.453,-28.28
59.468,-31.58
59.484,-34.7
59.500,-37.66
59.515,-40.57
59.531,-43.63
59.546,-46.99
59.562,-50.75
59.578,-55.03
59.593,-59.94
59.609,-65.56
59.625,-71.77
59.640,-78.0
59.656,-83.15
59.671,-85.8
59.687,-84.57
59.703,-78.68
59.718,-68.37
59.734,-54.78
59.750,-39.68
59.765,-24.85
59.781,-11.65
59.796,-0.74
59.812,7.8
59.828,14.2
59.843,18.84
59.859,22.01
59.875,23.97
59.890,24.93
59.906,25.16
59.921,24.94
59.937,24.54
59.953,24.17
59.968,23.93
59.984,23.8
