timestamp,value
00.000,-33.96
00.015,-37.77
00.031,-41.89
00.046,-45.86
00.062,-48.99
00.078,-50.59
00.093,-50.06
00.109,-47.18
00.125,-42.12
00.140,-35.39
00.156,-27.71
00.171,-19.8
00.187,-12.22
00.203,-5.26
00.218,0.96
00.234,6.55
00.250,11.58
00.265,16.02
00.281,19.8
00.296,22.77
00.312,24.88
00.328,26.24
00.343,27.05
00.359,27.59
00.375,28.11
00.390,28.7
00.406,29.34
00.421,29.92
00.437,30.34
00.453,30.52
00.468,30.38
00.484,29.89
00.500,28.97
00.515,27.62
00.531,25.83
00.546,23.67
00.562,21.26
00.578,18.76
00.593,16.31
00.609,14.03
00.625,11.96
00.640,10.04
00.656,8.2
00.671,6.4
00.687,4.63
00.703,2.95
00.718,1.38
00.734,-0.12
00.750,-1.68
00.765,-3.49
00.781,-5.66
00.796,-8.21
00.812,-11.02
00.828,-13.92
00.843,-16.75
00.859,-19.51
00.875,-22.28
00.890,-25.15
00.906,-28.21
00.921,-31.38
00.937,-34.47
00.953,-37.11
00.968,-38.8
00.984,-39.0
01.000,-37.2
01.015,-33.11
01.031,-26.76
01.046,-18.54
01.062,-9.05
01.078,1.0
01.093,11.06
01.109,20.81
01.125,30.15
01.140,39.13
01.156,47.82
01.171,56.21
01.187,64.22
01.203,71.75
01.218,78.75
01.234,85.26
01.250,91.43
01.265,97.48
01.281,103.76
01.296,110.56
01.312,118.09
01.328,126.35
01.343,135.13
01.359,143.99
01.375,152.5
01.390,160.38
01.406,167.65
01.421,174.59
01.437,181.42
01.453,188.03
01.468,193.79
01.484,197.71
01.500,198.77
01.515,196.31
01.531,190.08
01.546,179.93
01.562,165.63
01.578,146.55
01.593,122.1
01.609,92.28
01.625,58.17
01.640,21.87
01.656,-14.21
01.671,-48.33
01.687,-79.8
01.703,-108.62
01.718,-134.66
01.734,-156.73
01.750,-172.5
01.765,-179.42
01.781,-175.84
01.796,-161.94
01.812,-139.87
01.828,-112.79
01.843,-83.93
01.859,-56.05
01.875,-31.39
01.890,-12.08
01.906,-0.26
01.921,2.61
01.937,-3.39
01.953,-16.07
01.968,-31.36
01.984,-44.61
02.000,-52.35
02.015,-53.38
02.031,-48.9
02.046,-41.63
02.062,-34.22
02.078,-28.2
02.093,-23.72
02.109,-20.08
02.125,-16.6
02.140,-13.21
02.156,-10.39
02.171,-8.72
02.187,-8.37
02.203,-8.82
02.218,-9.09
02.234,-8.25
02.250,-5.89
02.265,-2.33
02.281,1.5
02.296,4.56
02.312,6.04
02.328,5.58
02.343,3.37
02.359,-0.21
02.375,-4.75
02.390,-10.11
02.406,-16.38
02.421,-23.78
02.437,-32.3
02.453,-41.46
02.468,-50.25
02.484,-57.15
02.500,-60.63
02.515,-59.4
02.531,-52.86
02.546,-41.18
02.562,-25.3
02.578,-6.69
02.593,12.96
02.609,32.25
02.625,50.53
02.640,68.25
02.656,86.75
02.671,107.52
02.687,131.05
02.703,155.71
02.718,177.48
02.734,190.99
02.750,191.33
02.765,176.12
02.781,146.67
02.796,107.65
02.812,65.56
02.828,26.74
02.843,-4.24
02.859,-25.39
02.875,-37.18
02.890,-41.98
02.906,-43.39
02.921,-45.39
02.937,-51.46
02.953,-63.59
02.968,-81.43
02.984,-102.11
03.000,-121.07
03.015,-133.69
03.031,-137.3
03.046,-132.55
03.062,-123.44
03.078,-115.96
03.093,-115.87
03.109,-126.47
03.125,-147.38
03.140,-174.95
03.156,-203.7
03.171,-228.4
03.187,-245.59
03.203,-254.05
03.218,-254.33
03.234,-247.94
03.250,-236.52
03.265,-221.75
03.281,-205.47
03.296,-189.72
03.312,-176.55
03.328,-167.5
03.343,-163.05
03.359,-162.33
03.375,-163.3
03.390,-163.42
03.406,-160.4
03.421,-152.95
03.437,-141.0
03.453,-125.66
03.468,-108.64
03.484,-91.72
03.500,-76.13
03.515,-62.33
03.531,-50.09
03.546,-38.78
03.562,-27.79
03.578,-16.7
03.593,-5.24
03.609,6.83
03.625,19.95
03.640,34.64
03.656,51.26
03.671,69.71
03.687,89.41
03.703,109.48
03.718,129.35
03.734,148.96
03.750,168.63
03.765,188.46
03.781,207.51
03.796,223.57
03.812,233.6
03.828,234.84
03.843,225.94
03.859,207.57
03.875,182.45
03.890,154.43
03.906,127.79
03.921,106.18
03.937,91.9
03.953,85.25
03.968,84.16
03.984,84.63
04.000,81.9
04.015,72.26
04.031,54.39
04.046,30.07
04.062,3.25
04.078,-21.42
04.093,-40.23
04.109,-51.26
04.125,-54.48
04.140,-51.36
04.156,-44.58
04.171,-37.83
04.187,-35.37
04.203,-41.18
04.218,-57.66
04.234,-84.34
04.250,-117.59
04.265,-151.53
04.281,-179.86
04.296,-197.9
04.312,-203.74
04.328,-198.43
04.343,-185.16
04.359,-168.06
04.375,-151.07
04.390,-137.14
04.406,-127.74
04.421,-122.56
04.437,-119.52
04.453,-115.05
04.468,-105.02
04.484,-86.1
04.500,-56.95
04.515,-18.9
04.531,24.41
04.546,68.39
04.562,109.18
04.578,145.0
04.593,176.64
04.609,206.63
04.625,237.92
04.640,272.07
04.656,307.87
04.671,341.2
04.687,365.95
04.703,376.32
04.718,368.94
04.734,344.53
04.750,307.79
04.765,266.18
04.781,227.61
04.796,198.11
04.812,180.32
04.828,173.09
04.843,172.44
04.859,173.13
04.875,170.65
04.890,162.7
04.906,149.93
04.921,135.36
04.937,122.72
04.953,114.4
04.968,109.95
04.984,106.14
05.000,98.5
05.015,83.45
05.031,60.05
05.046,30.19
05.062,-2.5
05.078,-34.35
05.093,-62.98
05.109,-87.97
05.125,-110.41
05.140,-132.06
05.156,-154.5
05.171,-178.43
05.187,-203.44
05.203,-228.22
05.218,-250.82
05.234,-269.45
05.250,-283.47
05.265,-293.98
05.281,-303.56
05.296,-315.09
05.312,-330.0
05.328,-347.13
05.343,-362.79
05.359,-372.16
05.375,-371.24
05.390,-358.49
05.406,-335.08
05.421,-304.06
05.437,-269.02
05.453,-232.93
05.468,-197.82
05.484,-164.9
05.500,-134.81
05.515,-107.6
05.531,-82.77
05.546,-59.27
05.562,-35.99
05.578,-12.2
05.593,12.38
05.609,37.63
05.625,63.4
05.640,89.36
05.656,114.62
05.671,137.32
05.687,155.0
05.703,165.47
05.718,168.15
05.734,164.61
05.750,157.94
05.765,151.27
05.781,146.16
05.796,141.95
05.812,136.41
05.828,127.45
05.843,114.49
05.859,98.87
05.875,83.03
05.890,69.0
05.906,57.17
05.921,45.83
05.937,32.02
05.953,12.68
05.968,-13.98
05.984,-47.77
06.000,-86.64
06.015,-127.55
06.031,-167.57
06.046,-204.57
06.062,-237.13
06.078,-263.96
06.093,-283.36
06.109,-293.47
06.125,-293.36
06.140,-284.11
06.156,-269.14
06.171,-253.21
06.187,-240.54
06.203,-232.92
06.218,-229.1
06.234,-225.78
06.250,-219.48
06.265,-208.42
06.281,-193.06
06.296,-175.37
06.312,-157.47
06.328,-140.52
06.343,-124.65
06.359,-109.39
06.375,-94.43
06.390,-79.95
06.406,-66.42
06.421,-54.28
06.437,-43.64
06.453,-34.13
06.468,-25.19
06.484,-16.37
06.500,-7.66
06.515,0.45
06.531,7.06
06.546,11.27
06.562,12.71
06.578,11.7
06.593,9.35
06.609,7.18
06.625,6.46
06.640,7.86
06.656,11.15
06.671,15.41
06.687,19.35
06.703,21.85
06.718,22.19
06.734,20.11
06.750,15.8
06.765,9.66
06.781,2.24
06.796,-5.89
06.812,-14.13
06.828,-21.95
06.843,-28.92
06.859,-34.92
06.875,-40.11
06.890,-45.07
06.906,-50.62
06.921,-57.56
06.937,-66.24
06.953,-76.28
06.968,-86.34
06.984,-94.3
07.000,-97.86
07.015,-95.12
07.031,-85.26
07.046,-68.82
07.062,-47.52
07.078,-23.79
07.093,-0.04
07.109,21.81
07.125,40.73
07.140,56.47
07.156,69.27
07.171,79.7
07.187,88.24
07.203,95.28
07.218,101.06
07.234,105.79
07.250,109.66
07.265,112.84
07.281,115.56
07.296,118.01
07.312,120.41
07.328,122.89
07.343,125.55
07.359,128.29
07.375,130.91
07.390,133.02
07.406,134.14
07.421,133.78
07.437,131.6
07.453,127.53
07.468,121.76
07.484,114.8
07.500,107.26
07.515,99.72
07.531,92.56
07.546,85.88
07.562,79.48
07.578,73.04
07.593,66.23
07.609,58.9
07.625,51.14
07.640,43.23
07.656,35.45
07.671,28.01
07.687,20.88
07.703,13.86
07.718,6.57
07.734,-1.31
07.750,-9.85
07.765,-18.7
07.781,-26.9
07.796,-32.99
07.812,-35.3
07.828,-32.54
07.843,-24.25
07.859,-11.11
07.875,5.29
07.890,22.86
07.906,39.77
07.921,54.76
07.937,67.41
07.953,77.9
07.968,86.58
07.984,93.77
08.000,99.61
08.015,104.19
08.031,107.59
08.046,110.07
08.062,111.97
08.078,113.64
08.093,115.33
08.109,117.12
08.125,118.91
08.140,120.55
08.156,121.91
08.171,122.91
08.187,123.54
08.203,123.8
08.218,123.65
08.234,123.1
08.250,122.17
08.265,120.94
08.281,119.54
08.296,118.11
08.312,116.75
08.328,115.57
08.343,114.61
08.359,113.91
08.375,113.47
08.390,113.2
08.406,113.0
08.421,112.72
08.437,112.28
08.453,111.56
08.468,110.47
08.484,108.83
08.500,106.3
08.515,102.62
08.531,97.78
08.546,92.33
08.562,87.43
08.578,84.56
08.593,85.08
08.609,89.73
08.625,98.27
08.640,109.55
08.656,121.94
08.671,133.77
08.687,143.8
08.703,151.53
08.718,157.08
08.734,161.02
08.750,164.18
08.765,167.24
08.781,170.6
08.796,174.29
08.812,178.05
08.828,181.62
08.843,185.09
08.859,189.02
08.875,194.26
08.890,201.72
08.906,211.65
08.921,223.34
08.937,234.89
08.953,243.57
08.968,246.47
08.984,241.38
09.000,227.52
09.015,205.72
09.031,178.29
09.046,148.09
09.062,117.72
09.078,88.63
09.093,61.04
09.109,34.4
09.125,8.21
09.140,-17.11
09.156,-40.07
09.171,-58.82
09.187,-72.02
09.203,-79.81
09.218,-84.07
09.234,-87.84
09.250,-94.31
09.265,-106.1
09.281,-124.72
09.296,-150.69
09.312,-183.04
09.328,-218.97
09.343,-253.48
09.359,-280.34
09.375,-294.17
09.390,-292.91
09.406,-279.32
09.421,-260.23
09.437,-243.62
09.453,-234.97
09.468,-234.89
09.484,-239.15
09.500,-241.32
09.515,-236.4
09.531,-223.25
09.546,-204.84
09.562,-186.24
09.578,-171.74
09.593,-162.76
09.609,-157.51
09.625,-152.51
09.640,-144.7
09.656,-133.13
09.671,-119.54
09.687,-107.3
09.703,-99.41
09.718,-96.93
09.734,-98.27
09.750,-100.11
09.765,-99.41
09.781,-95.09
09.796,-88.7
09.812,-83.52
09.828,-82.71
09.843,-87.4
09.859,-95.93
09.875,-104.65
09.890,-109.71
09.906,-109.01
09.921,-103.12
09.937,-94.78
09.953,-87.32
09.968,-83.01
09.984,-82.11
10.000,-83.05
10.015,-83.69
10.031,-82.54
10.046,-79.6
10.062,-76.16
10.078,-74.01
10.093,-74.35
10.109,-77.03
10.125,-80.54
10.140,-82.41
10.156,-80.28
10.171,-72.63
10.187,-59.3
10.203,-41.32
10.218,-20.48
10.234,1.51
10.250,23.35
10.265,44.36
10.281,64.18
10.296,82.36
10.312,98.29
10.328,111.23
10.343,120.62
10.359,126.31
10.375,128.68
10.390,128.45
10.406,126.44
10.421,123.43
10.437,120.0
10.453,116.57
10.468,113.47
10.484,110.88
10.500,108.84
10.515,107.26
10.531,105.96
10.546,104.67
10.562,103.2
10.578,101.31
10.593,98.81
10.609,95.56
10.625,91.43
10.640,86.51
10.656,80.93
10.671,74.93
10.687,68.62
10.703,62.03
10.718,54.95
10.734,47.1
10.750,38.27
10.765,28.4
10.781,17.74
10.796,6.8
10.812,-3.73
10.828,-13.12
10.843,-20.83
10.859,-26.74
10.875,-31.2
10.890,-34.87
10.906,-38.52
10.921,-42.63
10.937,-47.23
10.953,-51.82
10.968,-55.53
10.984,-57.41
11.000,-56.75
11.015,-53.25
11.031,-46.96
11.046,-38.27
11.062,-27.67
11.078,-15.75
11.093,-3.11
11.109,9.61
11.125,21.84
11.140,33.1
11.156,43.0
11.171,51.29
11.187,57.81
11.203,62.52
11.218,65.61
11.234,67.49
11.250,68.65
11.265,69.36
11.281,69.34
11.296,67.54
11.312,62.43
11.328,52.61
11.343,37.56
11.359,18.12
11.375,-3.57
11.390,-24.75
11.406,-42.93
11.421,-56.49
11.437,-65.02
11.453,-68.98
11.468,-69.25
11.484,-66.81
11.500,-62.48
11.515,-57.05
11.531,-51.31
11.546,-46.12
11.562,-42.22
11.578,-40.0
11.593,-39.38
11.609,-39.88
11.625,-40.78
11.640,-41.42
11.656,-41.48
11.671,-41.05
11.687,-40.57
11.703,-40.57
11.718,-41.47
11.734,-43.18
11.750,-45.12
11.765,-46.16
11.781,-44.95
11.796,-40.24
11.812,-31.31
11.828,-18.09
11.843,-1.19
11.859,18.34
11.875,39.3
11.890,60.62
11.906,81.46
11.921,101.21
11.937,119.5
11.953,136.11
11.968,151.05
11.984,164.48
12.000,176.79
12.015,188.42
12.031,199.84
12.046,211.36
12.062,223.22
12.078,235.48
12.093,248.11
12.109,260.93
12.125,273.63
12.140,285.82
12.156,297.17
12.171,307.62
12.187,317.35
12.203,326.65
12.218,335.41
12.234,342.7
12.250,346.66
12.265,344.91
12.281,335.52
12.296,317.95
12.312,293.51
12.328,265.09
12.343,236.11
12.359,209.36
12.375,186.16
12.390,166.39
12.406,148.92
12.421,132.56
12.437,116.64
12.453,101.22
12.468,86.81
12.484,73.98
12.500,62.92
12.515,53.31
12.531,44.4
12.546,35.18
12.562,24.71
12.578,12.47
12.593,-1.46
12.609,-16.49
12.625,-31.77
12.640,-46.55
12.656,-60.59
12.671,-74.18
12.687,-88.14
12.703,-103.51
12.718,-121.23
12.734,-141.95
12.750,-165.66
12.765,-191.42
12.781,-217.1
12.796,-239.61
12.812,-255.58
12.828,-262.81
12.843,-261.4
12.859,-254.27
12.875,-246.41
12.890,-243.01
12.906,-247.5
12.921,-260.37
12.937,-279.3
12.953,-300.43
12.968,-320.13
12.984,-336.04
13.000,-347.27
13.015,-353.86
13.031,-356.05
13.046,-353.73
13.062,-346.27
13.078,-332.57
13.093,-311.41
13.109,-282.09
13.125,-245.57
13.140,-205.24
13.156,-167.06
13.171,-138.2
13.187,-124.8
13.203,-129.48
13.218,-150.36
13.234,-181.62
13.250,-215.7
13.265,-245.65
13.281,-266.87
13.296,-277.4
13.312,-277.43
13.328,-268.53
13.343,-253.25
13.359,-234.98
13.375,-217.46
13.390,-203.9
13.406,-195.75
13.421,-192.04
13.437,-189.61
13.453,-184.38
13.468,-173.05
13.484,-154.35
13.500,-129.37
13.515,-100.88
13.531,-72.22
13.546,-46.21
13.562,-24.64
13.578,-8.04
13.593,4.07
13.609,12.73
13.625,19.28
13.640,24.91
13.656,30.53
13.671,36.57
13.687,42.94
13.703,49.01
13.718,54.01
13.734,57.26
13.750,58.48
13.765,57.87
13.781,56.11
13.796,54.08
13.812,52.56
13.828,52.07
13.843,52.59
13.859,53.71
13.875,54.73
13.890,54.93
13.906,53.79
13.921,51.26
13.937,47.7
13.953,43.78
13.968,40.16
13.984,37.3
14.000,35.18
14.015,33.4
14.031,31.28
14.046,28.27
14.062,24.14
14.078,19.05
14.093,13.48
14.109,7.9
14.125,2.67
14.140,-2.16
14.156,-6.74
14.171,-11.39
14.187,-16.4
14.203,-22.0
14.218,-28.21
14.234,-34.69
14.250,-40.72
14.265,-45.17
14.281,-46.7
14.296,-44.1
14.312,-36.78
14.328,-25.03
14.343,-10.03
14.359,6.46
14.375,22.6
14.390,36.94
14.406,48.58
14.421,57.19
14.437,62.8
14.453,65.58
14.468,65.86
14.484,64.09
14.500,60.93
14.515,57.3
14.531,54.15
14.546,52.25
14.562,51.93
14.578,53.05
14.593,55.07
14.609,57.37
14.625,59.46
14.640,61.16
14.656,62.53
14.671,63.73
14.687,64.79
14.703,65.55
14.718,65.63
14.734,64.66
14.750,62.43
14.765,58.97
14.781,54.5
14.796,49.41
14.812,44.11
14.828,38.9
14.843,33.94
14.859,29.24
14.875,24.62
14.890,19.81
14.906,14.53
14.921,8.55
14.937,1.89
14.953,-5.25
14.968,-12.47
14.984,-19.24
15.000,-25.01
15.015,-29.32
15.031,-31.77
15.046,-32.12
15.062,-30.27
15.078,-26.33
15.093,-20.56
15.109,-13.34
15.125,-5.12
15.140,3.68
15.156,12.57
15.171,21.08
15.187,28.68
15.203,34.93
15.218,39.49
15.234,42.26
15.250,43.34
15.265,43.02
15.281,41.6
15.296,39.34
15.312,36.42
15.328,33.0
15.343,29.26
15.359,25.5
15.375,22.1
15.390,19.4
15.406,17.69
15.421,17.04
15.437,17.27
15.453,18.0
15.468,18.73
15.484,19.01
15.500,18.63
15.515,17.62
15.531,16.2
15.546,14.62
15.562,13.01
15.578,11.26
15.593,9.23
15.609,6.75
15.625,3.9
15.640,0.92
15.656,-1.8
15.671,-4.0
15.687,-5.6
15.703,-6.68
15.718,-7.5
15.734,-8.28
15.750,-9.32
15.765,-10.88
15.781,-13.2
15.796,-16.35
15.812,-20.03
15.828,-23.41
15.843,-25.23
15.859,-24.07
15.875,-18.91
15.890,-9.48
15.906,3.63
15.921,19.24
15.937,36.08
15.953,53.17
15.968,69.99
15.984,86.47
16.000,102.58
16.015,118.18
16.031,132.84
16.046,146.0
16.062,157.09
16.078,165.84
16.093,172.44
16.109,177.5
16.125,182.01
16.140,187.04
16.156,193.47
16.171,201.58
16.187,210.78
16.203,219.49
16.218,225.35
16.234,225.8
16.250,218.78
16.265,203.6
16.281,181.36
16.296,154.94
16.312,128.27
16.328,105.09
16.343,87.88
16.359,77.19
16.375,71.84
16.390,69.72
16.406,68.75
16.421,67.69
16.437,66.18
16.453,64.43
16.468,62.8
16.484,61.57
16.500,61.05
16.515,61.56
16.531,63.1
16.546,64.85
16.562,64.76
16.578,59.9
16.593,47.39
16.609,25.71
16.625,-4.63
16.640,-41.25
16.656,-81.18
16.671,-122.1
16.687,-163.01
16.703,-203.5
16.718,-242.53
16.734,-277.41
16.750,-304.02
16.765,-318.37
16.781,-318.26
16.796,-304.53
16.812,-280.56
16.828,-250.89
16.843,-219.49
16.859,-188.74
16.875,-159.67
16.890,-132.67
16.906,-108.45
16.921,-88.19
16.937,-73.09
16.953,-63.51
16.968,-58.49
16.984,-55.91
17.000,-53.16
17.015,-48.09
17.031,-39.66
17.046,-28.13
17.062,-14.81
17.078,-1.47
17.093,10.37
17.109,19.84
17.125,26.84
17.140,31.88
17.156,35.6
17.171,38.42
17.187,40.35
17.203,41.08
17.218,40.15
17.234,37.3
17.250,32.6
17.265,26.44
17.281,19.46
17.296,12.34
17.312,5.63
17.328,-0.44
17.343,-5.85
17.359,-10.76
17.375,-15.44
17.390,-20.11
17.406,-25.01
17.421,-30.34
17.437,-36.25
17.453,-42.65
17.468,-49.11
17.484,-54.7
17.500,-58.26
17.515,-58.64
17.531,-55.17
17.546,-47.91
17.562,-37.68
17.578,-25.77
17.593,-13.53
17.609,-2.0
17.625,8.31
17.640,17.23
17.656,24.82
17.671,31.12
17.687,35.99
17.703,39.22
17.718,40.57
17.734,39.99
17.750,37.65
17.765,33.94
17.781,29.26
17.796,23.85
17.812,17.77
17.828,10.82
17.843,2.86
17.859,-6.05
17.875,-15.59
17.890,-25.28
17.906,-34.71
17.921,-43.75
17.937,-52.63
17.953,-61.63
17.968,-71.01
17.984,-80.72
18.000,-90.42
18.015,-99.55
18.031,-107.6
18.046,-114.1
18.062,-118.73
18.078,-121.21
18.093,-121.32
18.109,-118.98
18.125,-114.34
18.140,-107.87
18.156,-100.33
18.171,-92.68
18.187,-85.86
18.203,-80.59
18.218,-77.21
18.234,-75.59
18.250,-75.16
18.265,-74.85
18.281,-73.42
18.296,-69.63
18.312,-62.59
18.328,-52.03
18.343,-38.38
18.359,-22.73
18.375,-6.48
18.390,8.95
18.406,22.56
18.421,33.84
18.437,42.84
18.453,49.89
18.468,55.48
18.484,59.91
18.500,63.29
18.515,65.59
18.531,66.76
18.546,66.93
18.562,66.41
18.578,65.66
18.593,65.14
18.609,65.09
18.625,65.48
18.640,65.95
18.656,66.11
18.671,65.69
18.687,64.6
18.703,62.97
18.718,61.05
18.734,58.96
18.750,56.65
18.765,53.88
18.781,50.37
18.796,45.96
18.812,40.75
18.828,34.95
18.843,28.93
18.859,23.01
18.875,17.45
18.890,12.35
18.906,7.63
18.921,3.11
18.937,-1.49
18.953,-6.45
18.968,-11.94
18.984,-17.94
19.000,-24.17
19.015,-30.04
19.031,-34.71
19.046,-37.23
19.062,-36.76
19.078,-32.75
19.093,-25.17
19.109,-14.51
19.125,-1.72
19.140,11.95
19.156,25.25
19.171,37.15
19.187,47.01
19.203,54.55
19.218,59.8
19.234,62.98
19.250,64.37
19.265,64.32
19.281,63.15
19.296,61.17
19.312,58.67
19.328,55.89
19.343,53.02
19.359,50.15
19.375,47.33
19.390,44.6
19.406,42.07
19.421,39.93
19.437,38.37
19.453,37.52
19.468,37.34
19.484,37.65
19.500,38.16
19.515,38.63
19.531,38.91
19.546,38.95
19.562,38.72
19.578,38.2
19.593,37.25
19.609,35.63
19.625,33.07
19.640,29.34
19.656,24.38
19.671,18.27
19.687,11.34
19.703,3.98
19.718,-3.43
19.734,-10.68
19.750,-17.67
19.765,-24.4
19.781,-30.74
19.796,-36.25
19.812,-40.18
19.828,-41.62
19.843,-39.74
19.859,-34.15
19.875,-25.14
19.890,-13.63
19.906,-0.96
19.921,11.41
19.937,22.22
19.953,30.77
19.968,36.89
19.984,40.79
20.000,42.92
20.015,43.71
20.031,43.53
20.046,42.64
20.062,41.32
20.078,39.89
20.093,38.71
20.109,38.13
20.125,38.41
20.140,39.62
20.156,41.71
20.171,44.41
20.187,47.25
20.203,49.6
20.218,50.68
20.234,49.73
20.250,46.27
20.265,40.34
20.281,32.48
20.296,23.63
20.312,14.87
20.328,7.08
20.343,0.72
20.359,-4.1
20.375,-7.55
20.390,-9.76
20.406,-10.86
20.421,-11.04
20.437,-10.72
20.453,-10.68
20.468,-11.89
20.484,-15.17
20.500,-20.81
20.515,-28.46
20.531,-37.25
20.546,-46.1
20.562,-54.0
20.578,-60.21
20.593,-64.1
20.609,-65.13
20.625,-62.67
20.640,-56.33
20.656,-46.2
20.671,-33.16
20.687,-18.87
20.703,-5.36
20.718,5.56
20.734,12.9
20.750,16.7
20.765,17.86
20.781,17.64
20.796,17.2
20.812,17.17
20.828,17.7
20.843,18.65
20.859,19.89
20.875,21.43
20.890,23.38
20.906,25.89
20.921,28.85
20.937,31.93
20.953,34.64
20.968,36.43
20.984,36.9
21.000,35.81
21.015,33.2
21.031,29.26
21.046,24.39
21.062,19.06
21.078,13.77
21.093,9.06
21.109,5.26
21.125,2.61
21.140,1.04
21.156,0.3
21.171,0.05
21.187,-0.12
21.203,-0.52
21.218,-1.4
21.234,-2.91
21.250,-5.12
21.265,-7.95
21.281,-11.21
21.296,-14.7
21.312,-18.22
21.328,-21.73
21.343,-25.17
21.359,-28.43
21.375,-31.09
21.390,-32.51
21.406,-31.83
21.421,-28.45
21.437,-22.24
21.453,-13.65
21.468,-3.61
21.484,6.81
21.500,16.78
21.515,25.92
21.531,34.17
21.546,41.71
21.562,48.68
21.578,55.1
21.593,60.94
21.609,66.22
21.625,70.96
21.640,75.33
21.656,79.57
21.671,83.86
21.687,88.34
21.703,93.12
21.718,98.26
21.734,103.87
21.750,110.08
21.765,116.97
21.781,124.54
21.796,132.54
21.812,140.55
21.828,147.96
21.843,154.3
21.859,159.38
21.875,163.56
21.890,167.51
21.906,171.94
21.921,177.06
21.937,182.25
21.953,186.06
21.968,186.63
21.984,182.4
22.000,172.63
22.015,157.64
22.031,138.66
22.046,117.48
22.062,95.89
22.078,75.41
22.093,57.08
22.109,41.45
22.125,28.59
22.140,18.2
22.156,9.79
22.171,2.85
22.187,-3.04
22.203,-8.25
22.218,-13.3
22.234,-18.85
22.250,-25.69
22.265,-34.47
22.281,-45.4
22.296,-58.05
22.312,-71.32
22.328,-83.63
22.343,-93.28
22.359,-98.81
22.375,-99.35
22.390,-95.02
22.406,-87.09
22.421,-77.86
22.437,-70.06
22.453,-66.08
22.468,-67.25
22.484,-73.48
22.500,-83.43
22.515,-95.25
22.531,-107.15
22.546,-117.82
22.562,-126.28
22.578,-131.66
22.593,-132.93
22.609,-129.1
22.625,-119.63
22.640,-105.11
22.656,-87.74
22.671,-71.2
22.687,-59.94
22.703,-57.87
22.718,-67.12
22.734,-86.87
22.750,-113.27
22.765,-140.3
22.781,-161.46
22.796,-171.75
22.812,-168.99
22.828,-154.24
22.843,-131.0
22.859,-103.78
22.875,-76.66
22.890,-52.42
22.906,-32.44
22.921,-17.18
22.937,-6.55
22.953,-0.11
22.968,3.14
22.984,4.74
23.000,6.55
23.015,10.0
23.031,15.35
23.046,21.32
23.062,25.46
23.078,25.23
23.093,19.21
23.109,7.86
23.125,-6.54
23.140,-20.5
23.156,-30.39
23.171,-33.4
23.187,-28.28
23.203,-15.87
23.218,0.91
23.234,17.44
23.250,28.46
23.265,29.73
23.281,19.46
23.296,-0.87
23.312,-26.94
23.328,-53.05
23.343,-74.09
23.359,-86.94
23.375,-90.91
23.390,-87.31
23.406,-78.2
23.421,-65.6
23.437,-51.05
23.453,-35.74
23.468,-20.71
23.484,-6.91
23.500,5.07
23.515,15.25
23.531,24.45
23.546,34.0
23.562,45.25
23.578,58.94
23.593,74.86
23.609,91.96
23.625,108.77
23.640,123.92
23.656,136.71
23.671,147.12
23.687,155.55
23.703,162.17
23.718,166.52
23.734,167.25
23.750,162.49
23.765,150.44
23.781,130.02
23.796,101.37
23.812,65.84
23.828,25.76
23.843,-15.98
23.859,-56.18
23.875,-91.76
23.890,-120.23
23.906,-140.46
23.921,-153.23
23.937,-161.14
23.953,-167.56
23.968,-174.86
23.984,-183.07
24.000,-189.68
24.015,-190.93
24.031,-183.76
24.046,-167.44
24.062,-143.77
24.078,-116.01
24.093,-87.67
24.109,-61.56
24.125,-39.94
24.140,-24.92
24.156,-18.34
24.171,-21.0
24.187,-31.67
24.203,-46.88
24.218,-61.66
24.234,-71.3
24.250,-72.62
24.265,-64.63
24.281,-48.08
24.296,-24.96
24.312,1.88
24.328,28.59
24.343,50.53
24.359,63.28
24.375,64.16
24.390,53.62
24.406,35.63
24.421,16.35
24.437,1.93
24.453,-3.73
24.468,-0.42
24.484,8.82
24.500,19.22
24.515,26.32
24.531,27.43
24.546,22.34
24.562,12.96
24.578,2.57
24.593,-5.5
24.609,-9.08
24.625,-8.17
24.640,-5.39
24.656,-5.61
24.671,-14.32
24.687,-35.25
24.703,-68.39
24.718,-109.1
24.734,-149.42
24.750,-180.69
24.765,-196.59
24.781,-195.01
24.796,-178.07
24.812,-150.58
24.828,-118.06
24.843,-85.52
24.859,-57.06
24.875,-36.05
24.890,-25.01
24.906,-24.97
24.921,-34.62
24.937,-50.2
24.953,-66.13
24.968,-76.86
24.984,-78.7
25.000,-70.93
25.015,-55.61
25.031,-36.54
25.046,-17.71
25.062,-2.01
25.078,9.33
25.093,16.71
25.109,21.42
25.125,24.91
25.140,28.19
25.156,31.66
25.171,35.06
25.187,37.79
25.203,39.22
25.218,38.82
25.234,36.39
25.250,31.99
25.265,25.85
25.281,18.22
25.296,9.32
25.312,-0.78
25.328,-12.2
25.343,-25.11
25.359,-39.69
25.375,-55.8
25.390,-72.98
25.406,-90.38
25.421,-106.98
25.437,-121.81
25.453,-134.25
25.468,-144.15
25.484,-151.83
25.500,-157.93
25.515,-163.04
25.531,-167.42
25.546,-170.86
25.562,-172.64
25.578,-171.8
25.593,-167.44
25.609,-159.06
25.625,-146.83
25.640,-131.51
25.656,-114.26
25.671,-96.25
25.687,-78.39
25.703,-61.13
25.718,-44.68
25.734,-29.13
25.750,-14.66
25.765,-1.58
25.781,9.79
25.796,19.22
25.812,26.8
25.828,32.86
25.843,37.8
25.859,41.98
25.875,45.61
25.890,48.76
25.906,51.45
25.921,53.66
25.937,55.38
25.953,56.59
25.968,57.22
25.984,57.24
26.000,56.62
26.015,55.45
26.031,53.92
26.046,52.21
26.062,50.41
26.078,48.48
26.093,46.26
26.109,43.62
26.125,40.49
26.140,36.95
26.156,33.21
26.171,29.44
26.187,25.72
26.203,21.96
26.218,17.95
26.234,13.45
26.250,8.27
26.265,2.29
26.281,-4.49
26.296,-11.89
26.312,-19.52
26.328,-26.57
26.343,-31.88
26.359,-34.09
26.375,-32.01
26.390,-25.09
26.406,-13.62
26.421,1.22
26.437,17.74
26.453,34.19
26.468,49.25
26.484,62.26
26.500,73.18
26.515,82.23
26.531,89.67
26.546,95.55
26.562,99.69
26.578,101.91
26.593,102.14
26.609,100.64
26.625,98.0
26.640,94.97
26.656,92.19
26.671,90.0
26.687,88.38
26.703,87.03
26.718,85.66
26.734,84.11
26.750,82.45
26.765,80.83
26.781,79.29
26.796,77.69
26.812,75.68
26.828,72.89
26.843,69.16
26.859,64.59
26.875,59.56
26.890,54.6
26.906,50.21
26.921,46.66
26.937,43.98
26.953,41.96
26.968,40.18
26.984,38.11
27.000,35.27
27.015,31.33
27.031,26.29
27.046,20.45
27.062,14.53
27.078,9.54
27.093,6.63
27.109,6.82
27.125,10.72
27.140,18.29
27.156,28.85
27.171,41.24
27.187,54.21
27.203,66.82
27.218,78.6
27.234,89.55
27.250,99.74
27.265,108.87
27.281,115.91
27.296,119.25
27.312,117.1
27.328,108.33
27.343,93.07
27.359,72.77
27.375,49.96
27.390,27.4
27.406,7.42
27.421,-8.54
27.437,-19.92
27.453,-26.73
27.468,-29.25
27.484,-27.95
27.500,-23.64
27.515,-17.45
27.531,-10.78
27.546,-4.97
27.562,-0.97
27.578,0.9
27.593,0.89
27.609,-0.4
27.625,-2.33
27.640,-4.55
27.656,-6.91
27.671,-9.45
27.687,-12.25
27.703,-15.25
27.718,-18.35
27.734,-21.35
27.750,-24.11
27.765,-26.56
27.781,-28.88
27.796,-31.31
27.812,-34.17
27.828,-37.65
27.843,-41.57
27.859,-45.4
27.875,-48.16
27.890,-48.68
27.906,-45.93
27.921,-39.45
27.937,-29.42
27.953,-16.79
27.968,-2.91
27.984,10.94
28.000,23.69
28.015,34.83
28.031,44.27
28.046,52.14
28.062,58.55
28.078,63.51
28.093,66.91
28.109,68.66
28.125,68.94
28.140,68.14
28.156,66.77
28.171,65.25
28.187,63.79
28.203,62.33
28.218,60.75
28.234,58.99
28.250,57.15
28.265,55.51
28.281,54.19
28.296,53.11
28.312,51.94
28.328,50.19
28.343,47.52
28.359,43.88
28.375,39.59
28.390,35.1
28.406,30.92
28.421,27.3
28.437,24.3
28.453,21.74
28.468,19.31
28.484,16.69
28.500,13.64
28.515,10.04
28.531,5.95
28.546,1.62
28.562,-2.72
28.578,-6.87
28.593,-10.8
28.609,-14.67
28.625,-18.77
28.640,-23.39
28.656,-28.64
28.671,-34.35
28.687,-40.0
28.703,-44.78
28.718,-47.73
28.734,-47.96
28.750,-44.91
28.765,-38.56
28.781,-29.46
28.796,-18.72
28.812,-7.62
28.828,2.68
28.843,11.41
28.859,18.33
28.875,23.6
28.890,27.59
28.906,30.64
28.921,32.91
28.937,34.36
28.953,34.95
28.968,34.75
28.984,33.94
29.000,32.76
29.015,31.39
29.031,29.83
29.046,27.97
29.062,25.73
29.078,23.14
29.093,20.47
29.109,18.01
29.125,15.99
29.140,14.4
29.156,12.97
29.171,11.27
29.187,9.0
29.203,6.08
29.218,2.76
29.234,-0.58
29.250,-3.54
29.265,-5.95
29.281,-7.89
29.296,-9.67
29.312,-11.63
29.328,-14.01
29.343,-16.8
29.359,-19.71
29.375,-22.43
29.390,-24.74
29.406,-26.62
29.421,-28.33
29.437,-30.23
29.453,-32.67
29.468,-35.85
29.484,-39.71
29.500,-43.98
29.515,-48.29
29.531,-52.19
29.546,-55.15
29.562,-56.65
29.578,-56.12
29.593,-53.2
29.609,-47.85
29.625,-40.48
29.640,-31.9
29.656,-23.05
29.671,-14.7
29.687,-7.27
29.703,-0.84
29.718,4.73
29.734,9.59
29.750,13.69
29.765,16.9
29.781,19.07
29.796,20.2
29.812,20.51
29.828,20.37
29.843,20.09
29.859,19.85
29.875,19.57
29.890,19.09
29.906,18.3
29.921,17.24
29.937,16.05
29.953,14.99
29.968,14.16
29.984,13.51
30.000,12.85
30.015,11.92
30.031,10.6
30.046,8.95
30.062,7.17
30.078,5.52
30.093,4.12
30.109,2.93
30.125,1.72
30.140,0.26
30.156,-1.61
30.171,-3.85
30.187,-6.24
30.203,-8.5
30.218,-10.44
30.234,-12.04
30.250,-13.55
30.265,-15.33
30.281,-17.72
30.296,-20.94
30.312,-24.96
30.328,-29.45
30.343,-33.85
30.359,-37.49
30.375,-39.67
30.390,-39.84
30.406,-37.72
30.421,-33.33
30.437,-27.07
30.453,-19.61
30.468,-11.68
30.484,-3.97
30.500,3.08
30.515,9.23
30.531,14.5
30.546,18.95
30.562,22.65
30.578,25.57
30.593,27.67
30.609,28.9
30.625,29.35
30.640,29.26
30.656,28.96
30.671,28.84
30.687,29.12
30.703,29.86
30.718,30.87
30.734,31.87
30.750,32.55
30.765,32.7
30.781,32.29
30.796,31.37
30.812,30.08
30.828,28.57
30.843,27.03
30.859,25.63
30.875,24.58
30.890,24.01
30.906,24.0
30.921,24.55
30.937,25.56
30.953,26.91
30.968,28.51
30.984,30.26
31.000,32.06
31.015,33.73
31.031,34.99
31.046,35.53
31.062,35.03
31.078,33.28
31.093,30.25
31.109,26.07
31.125,21.12
31.140,15.95
31.156,11.21
31.171,7.42
31.187,4.69
31.203,2.5
31.218,-0.26
31.234,-4.88
31.250,-12.4
31.265,-22.97
31.281,-35.75
31.296,-49.13
31.312,-61.39
31.328,-71.15
31.343,-77.84
31.359,-81.51
31.375,-82.51
31.390,-81.18
31.406,-77.75
31.421,-72.34
31.437,-65.24
31.453,-57.0
31.468,-48.33
31.484,-39.97
31.500,-32.46
31.515,-26.06
31.531,-20.85
31.546,-16.81
31.562,-14.01
31.578,-12.63
31.593,-12.76
31.609,-14.35
31.625,-17.02
31.640,-20.13
31.656,-22.92
31.671,-24.74
31.687,-25.26
31.703,-24.51
31.718,-22.89
31.734,-20.88
31.750,-18.88
31.765,-17.17
31.781,-15.8
31.796,-14.72
31.812,-13.81
31.828,-13.01
31.843,-12.32
31.859,-11.84
31.875,-11.72
31.890,-12.14
31.906,-13.32
31.921,-15.35
31.937,-18.28
31.953,-21.87
31.968,-25.68
31.984,-29.02
32.000,-31.14
32.015,-31.33
32.031,-29.31
32.046,-25.15
32.062,-19.32
32.078,-12.56
32.093,-5.58
32.109,1.1
32.125,7.2
32.140,12.58
32.156,17.23
32.171,21.13
32.187,24.24
32.203,26.58
32.218,28.19
32.234,29.21
32.250,29.8
32.265,30.1
32.281,30.2
32.296,30.1
32.312,29.75
32.328,29.14
32.343,28.29
32.359,27.24
32.375,26.08
32.390,24.87
32.406,23.61
32.421,22.32
32.437,20.96
32.453,19.54
32.468,18.06
32.484,16.53
32.500,14.89
32.515,13.08
32.531,11.01
32.546,8.64
32.562,6.01
32.578,3.24
32.593,0.5
32.609,-2.07
32.625,-4.41
32.640,-6.55
32.656,-8.56
32.671,-10.51
32.687,-12.45
32.703,-14.42
32.718,-16.45
32.734,-18.65
32.750,-21.12
32.765,-23.92
32.781,-26.93
32.796,-29.83
32.812,-32.1
32.828,-33.12
32.843,-32.4
32.859,-29.69
32.875,-25.12
32.890,-19.09
32.906,-12.17
32.921,-4.94
32.937,2.08
32.953,8.59
32.968,14.42
32.984,19.62
33.000,24.36
33.015,28.79
33.031,33.01
33.046,36.96
33.062,40.48
33.078,43.38
33.093,45.62
33.109,47.41
33.125,49.16
33.140,51.39
33.156,54.43
33.171,58.34
33.187,62.88
33.203,67.63
33.218,72.18
33.234,76.31
33.250,80.05
33.265,83.71
33.281,87.73
33.296,92.58
33.312,98.46
33.328,105.37
33.343,112.95
33.359,120.7
33.375,128.06
33.390,134.63
33.406,140.24
33.421,145.15
33.437,150.0
33.453,155.73
33.468,163.32
33.484,173.31
33.500,185.58
33.515,199.08
33.531,211.92
33.546,221.82
33.562,226.73
33.578,225.6
33.593,218.68
33.609,207.41
33.625,193.81
33.640,179.69
33.656,165.93
33.671,152.35
33.687,138.06
33.703,122.25
33.718,104.89
33.734,87.09
33.750,70.79
33.765,58.14
33.781,50.79
33.796,49.36
33.812,53.35
33.828,61.47
33.843,71.9
33.859,82.56
33.875,91.34
33.890,96.26
33.906,95.79
33.921,89.29
33.937,77.19
33.953,61.09
33.968,43.28
33.984,26.12
34.000,11.4
34.015,0.01
34.031,-8.12
34.046,-13.69
34.062,-17.69
34.078,-21.12
34.093,-24.87
34.109,-29.75
34.125,-36.46
34.140,-45.66
34.156,-57.76
34.171,-72.88
34.187,-90.86
34.203,-111.2
34.218,-133.38
34.234,-157.12
34.250,-182.61
34.265,-210.36
34.281,-240.47
34.296,-272.04
34.312,-302.81
34.328,-329.57
34.343,-349.0
34.359,-358.83
34.375,-358.47
34.390,-348.93
34.406,-332.32
34.421,-311.02
34.437,-287.14
34.453,-262.49
34.468,-238.85
34.484,-218.27
34.500,-203.1
34.515,-195.61
34.531,-197.36
34.546,-208.86
34.562,-229.52
34.578,-258.28
34.593,-293.97
34.609,-335.28
34.625,-379.91
34.640,-423.73
34.656,-460.41
34.671,-482.53
34.687,-484.04
34.703,-462.63
34.718,-420.98
34.734,-365.83
34.750,-305.33
34.765,-246.21
34.781,-192.23
34.796,-144.47
34.812,-102.85
34.828,-67.71
34.843,-40.05
34.859,-20.82
34.875,-9.78
34.890,-5.04
34.906,-3.63
34.921,-2.73
34.937,-0.66
34.953,2.91
34.968,7.25
34.984,11.47
35.000,14.96
35.015,17.6
35.031,19.62
35.046,21.31
35.062,22.85
35.078,24.32
35.093,25.64
35.109,26.73
35.125,27.7
35.140,29.0
35.156,31.32
35.171,35.6
35.187,42.58
35.203,52.54
35.218,64.97
35.234,78.68
35.250,92.03
35.265,103.41
35.281,111.83
35.296,117.03
35.312,119.55
35.328,120.33
35.343,120.31
35.359,119.9
35.375,118.96
35.390,117.05
35.406,113.8
35.421,109.22
35.437,103.77
35.453,98.03
35.468,92.39
35.484,87.04
35.500,82.08
35.515,77.81
35.531,74.76
35.546,73.43
35.562,73.89
35.578,75.5
35.593,77.01
35.609,77.15
35.625,75.17
35.640,71.23
35.656,66.23
35.671,61.33
35.687,57.4
35.703,54.86
35.718,53.6
35.734,53.3
35.750,53.7
35.765,54.55
35.781,55.67
35.796,56.85
35.812,57.87
35.828,58.67
35.843,59.6
35.859,61.46
35.875,65.16
35.890,71.17
35.906,78.94
35.921,86.73
35.937,92.07
35.953,92.6
35.968,87.03
35.984,75.59
36.000,59.98
36.015,42.54
36.031,25.47
36.046,10.16
36.062,-2.72
36.078,-12.86
36.093,-19.73
36.109,-22.34
36.125,-19.59
36.140,-10.88
36.156,3.11
36.171,20.2
36.187,37.18
36.203,50.84
36.218,59.14
36.234,61.93
36.250,60.86
36.265,58.63
36.281,57.72
36.296,59.53
36.312,64.1
36.328,70.33
36.343,76.56
36.359,81.36
36.375,83.9
36.390,84.35
36.406,83.83
36.421,84.26
36.437,87.69
36.453,95.61
36.468,108.09
36.484,123.3
36.500,137.81
36.515,147.5
36.531,149.19
36.546,141.89
36.562,127.39
36.578,109.67
36.593,93.55
36.609,82.98
36.625,79.72
36.640,82.93
36.656,89.36
36.671,94.23
36.687,92.57
36.703,80.49
36.718,56.47
36.734,21.93
36.750,-19.0
36.765,-60.76
36.781,-98.15
36.796,-127.98
36.812,-149.83
36.828,-165.55
36.843,-177.95
36.859,-189.17
36.875,-200.0
36.890,-209.72
36.906,-216.94
36.921,-220.42
36.937,-219.52
36.953,-214.33
36.968,-205.54
36.984,-194.22
37.000,-181.63
37.015,-169.06
37.031,-157.63
37.046,-148.12
37.062,-140.77
37.078,-135.23
37.093,-130.61
37.109,-125.82
37.125,-119.94
37.140,-112.45
37.156,-103.34
37.171,-92.92
37.187,-81.62
37.203,-69.7
37.218,-57.15
37.234,-43.81
37.250,-29.41
37.265,-13.8
37.281,2.99
37.296,20.73
37.312,38.92
37.328,56.86
37.343,73.58
37.359,88.1
37.375,99.61
37.390,107.82
37.406,113.09
37.421,116.22
37.437,118.14
37.453,119.48
37.468,120.42
37.484,120.72
37.500,120.05
37.515,118.19
37.531,115.15
37.546,111.16
37.562,106.48
37.578,101.32
37.593,95.72
37.609,89.72
37.625,83.32
37.640,76.53
37.656,69.35
37.671,61.81
37.687,53.96
37.703,45.95
37.718,37.98
37.734,30.22
37.750,22.84
37.765,15.87
37.781,9.35
37.796,3.22
37.812,-2.69
37.828,-8.64
37.843,-14.95
37.859,-21.82
37.875,-29.06
37.890,-35.87
37.906,-41.02
37.921,-43.15
37.937,-41.37
37.953,-35.65
37.968,-26.86
37.984,-16.45
38.000,-5.96
38.015,3.45
38.031,11.21
38.046,17.29
38.062,21.92
38.078,25.38
38.093,27.83
38.109,29.31
38.125,29.79
38.140,29.21
38.156,27.59
38.171,25.0
38.187,21.63
38.203,17.7
38.218,13.47
38.234,9.12
38.250,4.77
38.265,0.5
38.281,-3.63
38.296,-7.52
38.312,-11.04
38.328,-14.02
38.343,-16.39
38.359,-18.08
38.375,-19.19
38.390,-19.88
38.406,-20.33
38.421,-20.74
38.437,-21.34
38.453,-22.32
38.468,-23.9
38.484,-26.18
38.500,-28.97
38.515,-31.85
38.531,-34.18
38.546,-35.21
38.562,-34.39
38.578,-31.44
38.593,-26.51
38.609,-20.05
38.625,-12.68
38.640,-5.03
38.656,2.34
38.671,8.91
38.687,14.34
38.703,18.35
38.718,20.78
38.734,21.68
38.750,21.17
38.765,19.58
38.781,17.38
38.796,15.07
38.812,13.06
38.828,11.54
38.843,10.44
38.859,9.48
38.875,8.37
38.890,6.85
38.906,4.97
38.921,2.91
38.937,0.99
38.953,-0.64
38.968,-1.93
38.984,-3.11
39.000,-4.49
39.015,-6.38
39.031,-9.05
39.046,-12.55
39.062,-16.71
39.078,-21.11
39.093,-25.21
39.109,-28.35
39.125,-30.01
39.140,-29.88
39.156,-27.83
39.171,-24.07
39.187,-18.95
39.203,-12.91
39.218,-6.39
39.234,0.23
39.250,6.66
39.265,12.69
39.281,18.23
39.296,23.31
39.312,27.96
39.328,32.2
39.343,35.99
39.359,39.22
39.375,41.88
39.390,44.06
39.406,45.9
39.421,47.52
39.437,48.96
39.453,50.08
39.468,50.75
39.484,50.96
39.500,50.95
39.515,51.24
39.531,52.48
39.546,55.12
39.562,59.14
39.578,64.04
39.593,68.76
39.609,72.12
39.625,73.09
39.640,71.13
39.656,66.51
39.671,60.29
39.687,54.19
39.703,50.16
39.718,49.76
39.734,53.65
39.750,61.46
39.765,71.8
39.781,82.83
39.796,92.98
39.812,101.61
39.828,109.28
39.843,117.45
39.859,127.47
39.875,139.63
39.890,152.58
39.906,163.47
39.921,168.93
39.937,166.39
39.953,155.08
39.968,136.53
39.984,113.95
40.000,91.1
40.015,70.66
40.031,53.35
40.046,37.76
40.062,21.26
40.078,1.23
40.093,-23.74
40.109,-53.14
40.125,-84.67
40.140,-114.89
40.156,-140.21
40.171,-157.7
40.187,-165.59
40.203,-163.78
40.218,-154.06
40.234,-140.24
40.250,-127.42
40.265,-120.4
40.281,-121.97
40.296,-131.7
40.312,-146.21
40.328,-160.99
40.343,-172.68
40.359,-180.42
40.375,-185.64
40.390,-190.43
40.406,-195.69
40.421,-200.36
40.437,-202.1
40.453,-199.01
40.468,-190.94
40.484,-179.78
40.500,-168.13
40.515,-157.73
40.531,-148.5
40.546,-138.84
40.562,-126.69
40.578,-110.87
40.593,-91.73
40.609,-70.83
40.625,-50.25
40.640,-31.62
40.656,-15.66
40.671,-2.22
40.687,9.34
40.703,19.68
40.718,29.2
40.734,37.78
40.750,44.95
40.765,50.09
40.781,52.7
40.796,52.65
40.812,50.24
40.828,46.19
40.843,41.44
40.859,36.78
40.875,32.69
40.890,29.3
40.906,26.43
40.921,23.92
40.937,21.83
40.953,20.49
40.968,20.45
40.984,22.13
41.000,25.57
41.015,30.28
41.031,35.35
41.046,39.71
41.062,42.37
41.078,42.68
41.093,40.39
41.109,35.63
41.125,28.83
41.140,20.68
41.156,11.94
41.171,3.26
41.187,-4.92
41.203,-12.44
41.218,-19.24
41.234,-25.29
41.250,-30.51
41.265,-34.73
41.281,-37.86
41.296,-40.0
41.312,-41.41
41.328,-42.52
41.343,-43.8
41.359,-45.64
41.375,-48.41
41.390,-52.37
41.406,-57.62
41.421,-63.82
41.437,-70.12
41.453,-75.13
41.468,-77.33
41.484,-75.61
41.500,-69.66
41.515,-60.14
41.531,-48.36
41.546,-35.78
41.562,-23.61
41.578,-12.61
41.593,-3.11
41.609,4.61
41.625,10.15
41.640,13.1
41.656,13.2
41.671,10.61
41.687,6.08
41.703,0.68
41.718,-4.52
41.734,-8.82
41.750,-12.24
41.765,-15.31
41.781,-18.88
41.796,-23.69
41.812,-30.1
41.828,-37.87
41.843,-46.36
41.859,-54.66
41.875,-61.92
41.890,-67.55
41.906,-71.35
41.921,-73.52
41.937,-74.57
41.953,-75.17
41.968,-75.9
41.984,-77.23
42.000,-79.29
42.015,-81.8
42.031,-84.01
42.046,-84.79
42.062,-82.86
42.078,-77.21
42.093,-67.47
42.109,-54.11
42.125,-38.34
42.140,-21.76
42.156,-5.84
42.171,8.43
42.187,20.7
42.203,31.07
42.218,39.77
42.234,46.91
42.250,52.36
42.265,55.98
42.281,57.85
42.296,58.42
42.312,58.39
42.328,58.47
42.343,59.07
42.359,60.08
42.375,61.04
42.390,61.28
42.406,60.3
42.421,57.96
42.437,54.39
42.453,49.92
42.468,44.92
42.484,39.66
42.500,34.29
42.515,28.74
42.531,22.71
42.546,15.58
42.562,6.55
42.578,-5.18
42.593,-20.02
42.609,-37.8
42.625,-57.53
42.640,-77.52
42.656,-95.64
42.671,-109.71
42.687,-117.95
42.703,-119.25
42.718,-113.42
42.734,-101.11
42.750,-83.66
42.765,-62.87
42.781,-40.54
42.796,-18.35
42.812,2.31
42.828,20.41
42.843,35.2
42.859,46.29
42.875,53.71
42.890,57.89
42.906,59.59
42.921,59.68
42.937,59.0
42.953,58.14
42.968,57.39
42.984,56.8
43.000,56.28
43.015,55.74
43.031,55.11
43.046,54.29
43.062,53.19
43.078,51.72
43.093,49.84
43.109,47.58
43.125,45.0
43.140,42.19
43.156,39.19
43.171,36.05
43.187,32.75
43.203,29.26
43.218,25.5
43.234,21.35
43.250,16.91
43.265,12.53
43.281,9.0
43.296,7.45
43.312,9.13
43.328,15.05
43.343,25.57
43.359,40.28
43.375,58.08
43.390,77.52
43.406,97.19
43.421,115.98
43.437,133.05
43.453,147.83
43.468,159.88
43.484,168.78
43.500,174.24
43.515,176.12
43.531,174.52
43.546,169.83
43.562,162.69
43.578,153.93
43.593,144.44
43.609,134.98
43.625,125.91
43.640,117.11
43.656,107.95
43.671,97.59
43.687,85.37
43.703,71.28
43.718,56.03
43.734,40.9
43.750,27.15
43.765,15.61
43.781,6.41
43.796,-1.09
43.812,-8.01
43.828,-15.58
43.843,-24.9
43.859,-36.72
43.875,-51.32
43.890,-68.47
43.906,-87.15
43.921,-105.47
43.937,-121.02
43.953,-131.28
43.968,-134.48
43.984,-130.22
44.000,-119.58
44.015,-104.71
44.031,-88.08
44.046,-71.62
44.062,-56.52
44.078,-43.29
44.093,-32.21
44.109,-23.69
44.125,-18.33
44.140,-16.66
44.156,-18.57
44.171,-22.94
44.187,-27.62
44.203,-29.9
44.218,-27.43
44.234,-19.13
44.250,-5.95
44.265,9.27
44.281,22.58
44.296,30.42
44.312,30.79
44.328,23.71
44.343,10.98
44.359,-4.94
44.375,-21.71
44.390,-37.73
44.406,-52.03
44.421,-63.85
44.437,-72.44
44.453,-77.1
44.468,-77.71
44.484,-74.98
44.500,-70.53
44.515,-66.4
44.531,-64.46
44.546,-65.67
44.562,-69.73
44.578,-75.08
44.593,-79.34
44.609,-80.07
44.625,-75.54
44.640,-65.34
44.656,-50.44
44.671,-32.8
44.687,-14.6
44.703,2.43
44.718,17.42
44.734,30.26
44.750,41.21
44.765,50.36
44.781,57.5
44.796,62.2
44.812,64.2
44.828,63.75
44.843,61.58
44.859,58.7
44.875,55.88
44.890,53.45
44.906,51.15
44.921,48.41
44.937,44.71
44.953,39.96
44.968,34.52
44.984,29.0
45.000,23.9
45.015,19.28
45.031,14.82
45.046,9.98
45.062,4.35
45.078,-2.14
45.093,-9.1
45.109,-15.87
45.125,-21.84
45.140,-26.82
45.156,-31.06
45.171,-35.24
45.187,-40.12
45.203,-46.25
45.218,-53.6
45.234,-61.58
45.250,-68.95
45.265,-74.2
45.281,-75.88
45.296,-72.95
45.312,-65.09
45.328,-52.81
45.343,-37.3
45.359,-20.12
45.375,-2.87
45.390,13.1
45.406,26.86
45.421,37.88
45.437,45.98
45.453,51.14
45.468,53.5
45.484,53.35
45.500,51.18
45.515,47.56
45.531,43.14
45.546,38.48
45.562,33.95
45.578,29.81
45.593,26.27
45.609,23.65
45.625,22.34
45.640,22.7
45.656,24.66
45.671,27.62
45.687,30.34
45.703,31.27
45.718,29.14
45.734,23.31
45.750,14.09
45.765,2.57
45.781,-9.81
45.796,-21.8
45.812,-32.61
45.828,-42.07
45.843,-50.51
45.859,-58.43
45.875,-66.29
45.890,-74.25
45.906,-81.9
45.921,-88.38
45.937,-92.41
45.953,-92.66
45.968,-88.17
45.984,-78.7
46.000,-64.81
46.015,-47.85
46.031,-29.52
46.046,-11.4
46.062,5.36
46.078,20.2
46.093,33.1
46.109,44.23
46.125,53.71
46.140,61.56
46.156,67.59
46.171,71.55
46.187,73.18
46.203,72.33
46.218,68.96
46.234,63.14
46.250,55.04
46.265,45.04
46.281,33.84
46.296,22.37
46.312,11.71
46.328,2.8
46.343,-3.87
46.359,-8.34
46.375,-11.18
46.390,-13.28
46.406,-15.44
46.421,-18.17
46.437,-21.59
46.453,-25.53
46.468,-29.67
46.484,-33.73
46.500,-37.56
46.515,-41.04
46.531,-44.08
46.546,-46.45
46.562,-47.66
46.578,-47.06
46.593,-43.82
46.609,-37.16
46.625,-26.47
46.640,-11.54
46.656,7.42
46.671,29.62
46.687,53.7
46.703,77.85
46.718,99.9
46.734,117.69
46.750,129.41
46.765,133.95
46.781,131.12
46.796,121.82
46.812,107.74
46.828,91.1
46.843,74.25
46.859,59.26
46.875,47.67
46.890,40.13
46.906,36.39
46.921,35.34
46.937,35.36
46.953,34.78
46.968,32.2
46.984,26.95
47.000,19.07
47.015,9.25
47.031,-1.57
47.046,-12.38
47.062,-22.36
47.078,-30.98
47.093,-38.01
47.109,-43.54
47.125,-47.97
47.140,-51.96
47.156,-56.33
47.171,-61.85
47.187,-69.07
47.203,-78.1
47.218,-88.46
47.234,-99.12
47.250,-108.55
47.265,-114.97
47.281,-116.73
47.296,-112.69
47.312,-102.45
47.328,-86.56
47.343,-66.35
47.359,-43.65
47.375,-20.5
47.390,1.08
47.406,19.28
47.421,32.63
47.437,40.35
47.453,42.58
47.468,40.32
47.484,35.29
47.500,29.26
47.515,23.56
47.531,18.77
47.546,14.67
47.562,10.76
47.578,6.61
47.593,2.19
47.609,-2.08
47.625,-5.58
47.640,-7.75
47.656,-8.24
47.671,-7.02
47.687,-4.4
47.703,-1.05
47.718,2.04
47.734,3.66
47.750,2.87
47.765,-0.51
47.781,-5.57
47.796,-10.37
47.812,-12.64
47.828,-10.83
47.843,-5.1
47.859,2.48
47.875,8.34
47.890,8.85
47.906,1.81
47.921,-12.46
47.937,-31.07
47.953,-49.5
47.968,-63.17
47.984,-68.88
48.000,-65.52
48.015,-54.04
48.031,-36.69
48.046,-16.09
48.062,5.43
48.078,26.14
48.093,44.8
48.109,60.48
48.125,72.42
48.140,80.21
48.156,83.95
48.171,84.34
48.187,82.64
48.203,80.16
48.218,78.0
48.234,76.67
48.250,76.04
48.265,75.59
48.281,74.72
48.296,73.15
48.312,71.02
48.328,68.84
48.343,67.19
48.359,66.4
48.375,66.39
48.390,66.67
48.406,66.47
48.421,65.04
48.437,61.87
48.453,56.82
48.468,50.23
48.484,42.63
48.500,34.63
48.515,26.65
48.531,18.82
48.546,10.96
48.562,2.66
48.578,-6.59
48.593,-17.32
48.609,-29.8
48.625,-43.99
48.640,-59.45
48.656,-75.15
48.671,-89.66
48.687,-101.31
48.703,-108.57
48.718,-110.5
48.734,-106.99
48.750,-98.66
48.765,-86.73
48.781,-72.66
48.796,-57.77
48.812,-43.17
48.828,-29.68
48.843,-17.93
48.859,-8.48
48.875,-1.82
48.890,1.69
48.906,1.92
48.921,-0.95
48.937,-6.44
48.953,-13.8
48.968,-22.16
48.984,-30.55
49.000,-38.03
49.015,-43.73
49.031,-46.93
49.046,-47.17
49.062,-44.3
49.078,-38.49
49.093,-30.31
49.109,-20.55
49.125,-10.15
49.156,9.17
49.171,16.85
49.187,22.88
49.203,27.38
49.218,30.8
49.234,33.65
49.250,36.41
49.265,39.39
49.281,42.65
49.296,45.99
49.312,49.11
49.328,51.75
49.343,53.9
49.359,56.03
49.375,59.07
49.390,64.42
49.406,73.56
49.421,87.67
49.437,107.25
49.453,131.89
49.468,160.15
49.484,189.66
49.500,217.42
49.515,240.1
49.531,254.61
49.546,258.7
49.562,251.51
49.578,233.91
49.593,208.37
49.609,178.26
49.625,146.98
49.640,117.18
49.656,90.26
49.671,66.44
49.687,45.22
49.703,26.02
49.718,8.75
49.734,-5.95
49.750,-16.82
49.765,-22.65
49.781,-22.77
49.796,-17.83
49.812,-9.88
49.828,-2.21
49.843,1.34
49.859,-2.54
49.875,-15.68
49.890,-38.03
49.906,-67.7
49.921,-101.7
49.937,-136.68
49.953,-169.51
49.968,-197.88
49.984,-220.67
50.000,-238.0
50.015,-251.04
50.031,-261.07
50.046,-268.32
50.062,-271.08
50.078,-265.97
50.093,-249.46
50.109,-220.23
50.125,-181.04
50.140,-138.48
50.156,-100.93
50.171,-75.0
50.187,-62.82
50.203,-61.46
50.218,-64.81
50.234,-66.88
50.250,-64.28
50.265,-57.19
50.281,-48.01
50.296,-39.36
50.312,-32.31
50.328,-26.08
50.343,-18.94
50.359,-9.51
50.375,2.23
50.390,14.95
50.406,26.76
50.421,36.36
50.437,43.64
50.453,49.77
50.468,56.49
50.484,65.05
50.500,75.54
50.515,86.72
50.531,96.75
50.546,104.05
50.562,108.28
50.578,110.5
50.593,112.74
50.609,117.02
50.625,124.3
50.640,134.02
50.656,144.27
50.671,152.69
50.687,157.32
50.703,157.31
50.718,153.14
50.734,146.26
50.750,138.6
50.765,131.96
50.781,127.55
50.796,125.42
50.812,124.43
50.828,122.28
50.843,116.13
50.859,103.64
50.875,83.78
50.890,57.39
50.906,26.88
50.921,-4.5
50.937,-33.87
50.953,-59.45
50.968,-80.47
50.984,-96.66
51.000,-107.37
51.015,-111.37
51.031,-107.46
51.046,-95.57
51.062,-77.56
51.078,-57.24
51.093,-39.09
51.109,-26.55
51.125,-20.81
51.140,-20.44
51.156,-22.13
51.171,-21.73
51.187,-15.29
51.203,-0.1
51.218,24.56
51.234,56.63
51.250,90.81
51.265,119.3
51.281,133.78
51.296,127.94
51.312,99.87
51.328,52.97
51.343,-5.03
51.359,-64.5
51.375,-116.87
51.390,-157.21
51.406,-185.46
51.421,-205.81
51.437,-224.82
51.453,-248.57
51.468,-279.84
51.484,-316.47
51.500,-351.79
51.515,-376.85
51.531,-383.71
51.546,-368.24
51.562,-331.34
51.578,-278.2
51.593,-216.29
51.609,-153.15
51.625,-94.79
51.640,-44.98
51.656,-5.37
51.671,24.02
51.687,44.16
51.703,56.38
51.718,61.92
51.734,62.03
51.750,57.97
51.765,51.2
51.781,43.36
51.796,36.16
51.812,31.09
51.828,29.04
51.843,30.16
51.859,33.74
51.875,38.26
51.890,41.73
51.906,42.13
51.921,37.98
51.937,28.95
51.953,16.02
51.968,1.23
51.984,-12.93
52.000,-24.39
52.015,-32.16
52.031,-36.49
52.046,-38.52
52.062,-39.63
52.078,-40.81
52.093,-42.39
52.109,-44.04
52.125,-45.16
52.140,-45.22
52.156,-43.93
52.171,-41.33
52.187,-37.8
52.203,-33.95
52.218,-30.51
52.234,-28.09
52.250,-26.87
52.265,-26.2
52.281,-24.47
52.296,-19.44
52.312,-8.72
52.328,9.21
52.343,34.3
52.359,64.59
52.375,96.48
52.390,125.65
52.406,148.19
52.421,161.67
52.437,165.82
52.453,162.62
52.468,155.66
52.484,149.1
52.500,146.28
52.515,148.49
52.531,154.37
52.546,160.41
52.562,162.3
52.578,156.5
52.593,141.75
52.609,119.25
52.625,92.22
52.640,64.74
52.656,40.52
52.671,22.13
52.687,10.71
52.703,5.96
52.718,6.27
52.734,9.14
52.750,11.65
52.765,11.34
52.781,7.14
52.796,-0.4
52.812,-9.33
52.828,-17.22
52.843,-22.31
52.859,-24.26
52.875,-24.08
52.890,-23.51
52.906,-24.21
52.921,-26.85
52.937,-30.89
52.953,-34.73
52.968,-36.46
52.984,-34.8
53.000,-29.76
53.015,-22.45
53.031,-14.48
53.046,-6.95
53.062,0.1
53.078,7.36
53.093,15.45
53.109,23.94
53.125,31.15
53.140,34.74
53.156,33.17
53.171,26.61
53.187,17.04
53.203,7.36
53.218,-0.12
53.234,-4.52
53.250,-6.37
53.265,-6.65
53.281,-5.82
53.296,-3.62
53.312,0.25
53.328,5.11
53.343,8.79
53.359,8.23
53.375,0.85
53.390,-13.82
53.406,-33.58
53.421,-54.24
53.437,-71.38
53.453,-82.17
53.468,-86.33
53.484,-85.58
53.500,-82.38
53.515,-78.47
53.531,-74.26
53.546,-69.41
53.562,-63.86
53.578,-58.79
53.593,-56.84
53.609,-61.4
53.625,-75.13
53.640,-98.39
53.656,-128.31
53.671,-159.11
53.687,-183.6
53.703,-195.61
53.718,-192.04
53.734,-173.97
53.750,-146.07
53.765,-114.58
53.781,-85.13
53.796,-61.13
53.812,-43.52
53.828,-31.56
53.843,-23.94
53.859,-19.42
53.875,-16.87
53.890,-14.85
53.906,-11.48
53.921,-4.83
53.937,6.24
53.953,21.39
53.968,38.68
53.984,55.17
54.000,67.93
54.015,74.99
54.031,75.95
54.046,71.92
54.062,64.96
54.078,57.36
54.093,50.79
54.109,45.94
54.125,42.5
54.140,39.63
54.156,36.47
54.171,32.65
54.187,28.27
54.203,23.7
54.218,19.14
54.234,14.39
54.250,8.91
54.265,2.05
54.281,-6.55
54.296,-16.81
54.312,-28.17
54.328,-39.75
54.343,-50.52
54.359,-59.51
54.375,-65.94
54.390,-69.48
54.406,-70.47
54.421,-69.9
54.437,-69.17
54.453,-69.4
54.468,-70.92
54.484,-72.88
54.500,-73.46
54.515,-70.64
54.531,-63.06
54.546,-50.7
54.562,-34.83
54.578,-17.48
54.593,-0.58
54.609,14.6
54.625,27.66
54.640,38.78
54.656,48.16
54.671,55.73
54.687,61.11
54.703,63.93
54.718,64.2
54.734,62.44
54.750,59.6
54.765,56.68
54.781,54.45
54.796,53.13
54.812,52.46
54.828,52.0
54.843,51.32
54.859,50.24
54.875,48.86
54.890,47.46
54.906,46.33
54.921,45.69
54.937,45.57
54.953,45.94
54.968,46.71
54.984,47.81
55.000,49.08
55.015,50.27
55.031,51.02
55.046,50.94
55.062,49.8
55.078,47.6
55.093,44.66
55.109,41.53
55.125,38.68
55.140,36.4
55.156,34.6
55.171,32.89
55.187,30.66
55.203,27.33
55.218,22.57
55.234,16.49
55.250,9.81
55.265,3.64
55.281,-0.65
55.296,-1.86
55.312,0.74
55.328,7.13
55.343,16.68
55.359,28.33
55.375,40.88
55.390,53.39
55.406,65.22
55.421,76.09
55.437,85.93
55.453,94.81
55.468,102.81
55.484,110.03
55.500,116.59
55.515,122.61
55.531,128.26
55.546,133.63
55.562,138.77
55.578,143.57
55.593,147.69
55.609,150.66
55.625,152.06
55.640,151.78
55.656,150.21
55.671,148.34
55.687,147.34
55.703,148.11
55.718,150.48
55.734,152.88
55.750,152.52
55.765,146.23
55.781,131.58
55.796,107.9
55.812,76.68
55.828,41.03
55.843,4.76
55.859,-28.6
55.875,-56.58
55.890,-77.95
55.906,-92.66
55.921,-101.68
55.937,-106.78
55.953,-110.31
55.968,-114.66
55.984,-121.47
56.000,-131.05
56.015,-142.05
56.031,-151.85
56.046,-157.54
56.062,-156.91
56.078,-149.19
56.093,-135.18
56.109,-116.75
56.125,-96.13
56.140,-75.27
56.156,-55.57
56.171,-37.83
56.187,-22.55
56.203,-9.92
56.218,0.01
56.234,7.38
56.250,12.56
56.265,16.0
56.281,18.2
56.296,19.61
56.312,20.56
56.328,21.22
56.343,21.71
56.359,22.1
56.375,22.43
56.390,22.71
56.406,22.94
56.421,23.01
56.437,22.9
56.453,22.47
56.468,21.66
56.484,20.47
56.500,18.93
56.515,17.12
56.531,15.2
56.546,13.33
56.562,11.66
56.578,10.33
56.593,9.34
56.609,8.61
56.625,7.97
56.640,7.26
56.656,6.39
56.671,5.4
56.687,4.27
56.703,2.9
56.718,1.07
56.734,-1.51
56.750,-4.81
56.765,-8.33
56.781,-10.98
56.796,-11.27
56.812,-7.78
56.828,0.32
56.843,12.99
56.859,29.31
56.875,47.62
56.890,66.11
56.906,83.18
56.921,97.68
56.937,109.17
56.953,117.74
56.968,124.04
56.984,128.91
57.000,133.22
57.015,137.53
57.031,141.96
57.046,146.07
57.062,148.93
57.078,149.42
57.093,146.5
57.109,139.71
57.125,129.32
57.140,116.36
57.156,102.34
57.171,88.9
57.187,77.4
57.203,68.68
57.218,63.06
57.234,60.23
57.250,59.57
57.265,60.18
57.281,61.18
57.296,61.94
57.312,62.23
57.328,62.22
57.343,62.39
57.359,63.31
57.375,65.37
57.390,68.65
57.406,72.73
57.421,76.85
57.437,80.19
57.453,81.99
57.468,81.86
57.484,79.76
57.500,75.96
57.515,70.6
57.531,63.53
57.546,54.23
57.562,42.09
57.578,26.93
57.593,9.26
57.609,-9.58
57.625,-27.8
57.640,-43.51
57.656,-55.16
57.671,-61.73
57.687,-62.99
57.703,-59.69
57.718,-53.75
57.734,-48.23
57.750,-46.61
57.765,-51.89
57.781,-65.47
57.796,-86.57
57.812,-112.32
57.828,-138.59
57.843,-161.1
57.859,-176.62
57.875,-183.62
57.890,-182.49
57.906,-175.23
57.921,-164.81
57.937,-154.29
57.953,-146.18
57.968,-142.08
57.984,-142.74
58.000,-148.26
58.015,-158.29
58.031,-171.86
58.046,-187.09
58.062,-201.14
58.078,-210.64
58.093,-212.66
58.109,-205.82
58.125,-190.88
58.140,-170.47
58.156,-148.24
58.171,-127.65
58.187,-111.1
58.203,-99.64
58.218,-93.07
58.234,-90.43
58.250,-90.32
58.265,-91.25
58.281,-91.91
58.296,-91.37
58.312,-89.26
58.328,-85.78
58.343,-81.5
58.359,-77.08
58.375,-72.99
58.390,-69.21
58.406,-65.26
58.421,-60.45
58.437,-54.03
58.453,-45.56
58.468,-35.02
58.484,-22.83
58.500,-9.84
58.515,2.94
58.531,14.42
58.546,23.68
58.562,29.98
58.578,32.96
58.593,32.6
58.609,29.26
58.625,23.69
58.640,16.91
58.656,10.04
58.671,4.07
58.687,-0.28
58.703,-2.73
58.718,-3.4
58.734,-2.65
58.750,-0.98
58.765,1.11
58.781,3.23
58.796,5.14
58.812,6.69
58.828,7.83
58.843,8.46
58.859,8.53
58.875,7.94
58.890,6.68
58.906,4.9
58.921,2.8
58.937,0.64
58.953,-1.38
58.968,-3.21
58.984,-4.92
59.000,-6.62
59.015,-8.39
59.031,-10.28
59.046,-12.29
59.062,-14.46
59.078,-16.89
59.093,-19.73
59.109,-23.09
59.125,-27.04
59.140,-31.43
59.156,-35.93
59.171,-39.92
59.187,-42.5
59.203,-42.75
59.218,-39.95
59.234,-33.81
59.250,-24.69
59.265,-13.5
59.281,-1.42
59.296,10.41
59.312,21.06
59.328,30.05
59.343,37.11
59.359,42.16
59.375,45.18
59.390,46.29
59.406,45.75
59.421,44.01
59.437,41.64
59.453,39.12
59.468,36.77
59.484,34.55
59.500,32.22
59.515,29.53
59.531,26.41
59.546,23.09
59.562,20.09
59.578,18.02
59.593,17.3
59.609,17.9
59.625,19.28
59.640,20.48
59.656,20.52
59.671,18.63
59.687,14.59
59.703,8.69
59.718,1.61
59.734,-5.89
59.750,-13.16
59.765,-19.79
59.781,-25.59
59.796,-30.4
59.812,-34.15
59.828,-36.8
59.843,-38.52
59.859,-39.68
59.875,-40.9
59.890,-42.87
59.906,-46.08
59.921,-50.68
59.937,-56.17
59.953,-61.54
59.968,-65.45
59.984,-66.57
