timestamp,value
00.000,22.42
00.015,20.24
00.031,17.69
00.046,14.87
00.062,11.81
00.078,8.48
00.093,4.87
00.109,1.04
00.125,-2.97
00.140,-7.07
00.156,-11.16
00.171,-15.1
00.187,-18.7
00.203,-21.81
00.218,-24.32
00.234,-26.22
00.250,-27.65
00.265,-28.82
00.281,-29.98
00.296,-31.3
00.312,-32.83
00.328,-34.52
00.343,-36.22
00.359,-37.71
00.375,-38.71
00.390,-38.81
00.406,-37.59
00.421,-34.62
00.437,-29.77
00.453,-23.16
00.468,-15.31
00.484,-6.92
00.500,1.28
00.515,8.69
00.531,14.99
00.546,20.01
00.562,23.71
00.578,26.07
00.593,27.08
00.609,26.86
00.625,25.58
00.640,23.54
00.656,21.04
00.671,18.31
00.687,15.53
00.703,12.76
00.718,10.02
00.734,7.3
00.750,4.62
00.765,2.01
00.781,-0.49
00.796,-2.79
00.812,-4.81
00.828,-6.5
00.843,-7.77
00.859,-8.55
00.875,-8.83
00.890,-8.62
00.906,-8.04
00.921,-7.3
00.937,-6.59
00.953,-6.13
00.968,-6.02
00.984,-6.37
01.000,-7.23
01.015,-8.66
01.031,-10.61
01.046,-12.8
01.062,-14.61
01.078,-15.26
01.093,-14.01
01.109,-10.47
01.125,-4.82
01.140,2.25
01.156,9.83
01.171,17.03
01.187,23.32
01.203,28.45
01.218,32.4
01.234,35.13
01.250,36.56
01.265,36.55
01.281,35.11
01.296,32.47
01.312,29.05
01.328,25.33
01.343,21.68
01.359,18.25
01.375,14.96
01.390,11.63
01.406,8.13
01.421,4.5
01.437,0.95
01.453,-2.29
01.468,-5.03
01.484,-7.22
01.500,-8.98
01.515,-10.52
01.531,-12.02
01.546,-13.6
01.562,-15.26
01.578,-16.92
01.593,-18.45
01.609,-19.81
01.625,-21.04
01.640,-22.37
01.656,-24.07
01.671,-26.41
01.687,-29.45
01.703,-32.98
01.718,-36.45
01.734,-39.1
01.750,-40.1
01.765,-38.86
01.781,-35.14
01.796,-29.15
01.812,-21.48
01.828,-12.93
01.843,-4.35
01.859,3.7
01.875,10.79
01.890,16.78
01.906,21.59
01.921,25.18
01.937,27.55
01.953,28.78
01.968,29.09
01.984,28.78
02.000,28.15
02.015,27.35
02.031,26.37
02.046,25.12
02.062,23.48
02.078,21.46
02.093,19.26
02.109,17.09
02.125,15.16
02.140,13.57
02.156,12.2
02.171,10.9
02.187,9.48
02.203,7.85
02.218,6.01
02.234,4.08
02.250,2.22
02.265,0.51
02.281,-1.02
02.296,-2.53
02.312,-4.27
02.328,-6.5
02.343,-9.39
02.359,-12.86
02.375,-16.64
02.390,-20.19
02.406,-22.82
02.421,-23.85
02.437,-22.75
02.453,-19.28
02.468,-13.5
02.484,-5.89
02.500,2.87
02.515,11.92
02.531,20.5
02.546,27.97
02.562,34.02
02.578,38.55
02.593,41.65
02.609,43.52
02.625,44.35
02.640,44.37
02.656,43.79
02.671,42.87
02.687,41.85
02.703,40.97
02.718,40.35
02.734,40.0
02.750,39.8
02.765,39.61
02.781,39.28
02.796,38.77
02.812,38.09
02.828,37.28
02.843,36.42
02.859,35.52
02.875,34.57
02.890,33.53
02.906,32.29
02.921,30.75
02.937,28.9
02.953,26.77
02.968,24.44
02.984,21.93
03.000,19.24
03.015,16.28
03.031,12.98
03.046,9.34
03.062,5.4
03.078,1.31
03.093,-2.78
03.109,-6.77
03.125,-10.54
03.140,-14.03
03.156,-17.16
03.171,-19.91
03.187,-22.25
03.203,-24.22
03.218,-25.82
03.234,-26.96
03.250,-27.58
03.265,-27.63
03.281,-27.2
03.296,-26.47
03.312,-25.67
03.328,-24.92
03.343,-24.19
03.359,-23.35
03.375,-22.24
03.390,-20.82
03.406,-19.11
03.421,-17.19
03.437,-15.17
03.453,-13.23
03.468,-11.59
03.484,-10.59
03.500,-10.53
03.515,-11.58
03.531,-13.65
03.546,-16.41
03.562,-19.46
03.578,-22.45
03.593,-25.18
03.609,-27.6
03.625,-29.79
03.640,-31.84
03.656,-33.89
03.671,-36.08
03.687,-38.43
03.703,-40.77
03.718,-42.8
03.734,-43.97
03.750,-43.79
03.765,-41.98
03.781,-38.52
03.796,-33.67
03.812,-27.87
03.828,-21.56
03.843,-15.19
03.859,-9.26
03.875,-4.16
03.890,-0.27
03.906,2.23
03.921,3.39
03.937,3.55
03.953,3.14
03.968,2.58
03.984,2.17
04.000,2.03
04.015,2.19
04.031,2.57
04.046,3.12
04.062,3.73
04.078,4.35
04.093,4.84
04.109,5.15
04.125,5.32
04.140,5.4
04.156,5.53
04.171,5.74
04.187,6.02
04.203,6.23
04.218,6.11
04.234,5.32
04.250,3.55
04.265,0.67
04.281,-3.26
04.296,-7.91
04.312,-12.84
04.328,-17.48
04.343,-21.25
04.359,-23.65
04.375,-24.29
04.390,-22.97
04.406,-19.72
04.421,-14.88
04.437,-9.02
04.453,-2.88
04.468,2.91
04.484,7.88
04.500,11.81
04.515,14.65
04.531,16.43
04.546,17.17
04.562,16.82
04.578,15.46
04.593,13.25
04.609,10.5
04.625,7.63
04.640,5.0
04.656,2.82
04.671,1.06
04.687,-0.48
04.703,-2.07
04.718,-3.92
04.734,-6.01
04.750,-8.2
04.765,-10.29
04.781,-12.25
04.796,-14.17
04.812,-16.36
04.828,-19.12
04.843,-22.62
04.859,-26.82
04.875,-31.54
04.890,-36.46
04.906,-41.35
04.921,-46.03
04.937,-50.23
04.953,-53.61
04.968,-55.68
04.984,-55.9
05.000,-53.96
05.015,-49.88
05.031,-44.06
05.046,-37.18
05.062,-30.02
05.078,-23.27
05.093,-17.47
05.109,-13.01
05.125,-10.12
05.140,-8.92
05.156,-9.36
05.171,-11.17
05.187,-13.88
05.203,-16.77
05.218,-19.18
05.234,-20.53
05.250,-20.51
05.265,-19.1
05.281,-16.57
05.296,-13.38
05.312,-9.98
05.328,-6.75
05.343,-3.79
05.359,-0.98
05.375,1.94
05.390,5.28
05.406,9.27
05.421,13.96
05.437,19.25
05.453,24.9
05.468,30.55
05.484,35.78
05.500,40.15
05.515,43.32
05.531,45.22
05.546,46.16
05.562,46.84
05.578,48.22
05.593,51.21
05.609,56.22
05.625,62.99
05.640,70.59
05.656,77.78
05.671,83.43
05.687,86.97
05.703,88.56
05.718,88.92
05.734,89.01
05.750,89.63
05.765,91.1
05.781,93.26
05.796,95.61
05.812,97.54
05.828,98.62
05.843,98.73
05.859,98.05
05.875,96.95
05.890,95.74
05.906,94.5
05.921,92.84
05.937,89.8
05.953,84.06
05.968,74.2
05.984,59.31
06.000,39.32
06.015,15.39
06.031,-10.18
06.046,-34.4
06.062,-54.32
06.078,-67.78
06.093,-74.0
06.109,-73.77
06.125,-69.11
06.140,-62.63
06.156,-56.75
06.171,-53.0
06.187,-51.82
06.203,-52.64
06.218,-54.45
06.234,-56.15
06.250,-57.07
06.265,-57.02
06.281,-56.34
06.296,-55.61
06.312,-55.64
06.328,-57.27
06.343,-61.09
06.359,-67.32
06.375,-75.54
06.390,-84.68
06.406,-93.28
06.421,-99.89
06.437,-103.53
06.453,-103.99
06.468,-101.85
06.484,-98.12
06.500,-93.85
06.515,-89.82
06.531,-86.3
06.546,-83.17
06.562,-79.99
06.578,-76.33
06.593,-71.88
06.609,-66.62
06.625,-60.72
06.640,-54.52
06.656,-48.33
06.671,-42.37
06.687,-36.77
06.703,-31.6
06.718,-26.93
06.734,-22.77
06.750,-19.07
06.765,-15.58
06.781,-11.98
06.796,-7.99
06.812,-3.53
06.828,1.09
06.843,5.27
06.859,8.33
06.875,9.81
06.890,9.66
06.906,8.31
06.921,6.45
06.937,4.75
06.953,3.68
06.968,3.32
06.984,3.46
07.000,3.72
07.015,3.63
07.031,2.75
07.046,0.8
07.062,-2.27
07.078,-6.23
07.093,-10.63
07.109,-14.86
07.125,-18.34
07.140,-20.65
07.156,-21.59
07.171,-21.21
07.187,-19.76
07.203,-17.64
07.218,-15.27
07.234,-13.01
07.250,-11.05
07.265,-9.47
07.281,-8.17
07.296,-7.12
07.312,-6.4
07.328,-6.29
07.343,-7.08
07.359,-8.99
07.375,-11.97
07.390,-15.74
07.406,-19.81
07.421,-23.57
07.437,-26.44
07.453,-27.85
07.468,-27.28
07.484,-24.33
07.500,-18.84
07.515,-11.0
07.531,-1.4
07.546,9.11
07.562,19.58
07.578,29.28
07.593,37.89
07.609,45.53
07.625,52.64
07.640,59.64
07.656,66.76
07.671,73.81
07.687,80.38
07.703,85.99
07.718,90.35
07.734,93.43
07.750,95.39
07.765,96.36
07.781,96.3
07.796,94.97
07.812,92.06
07.828,87.42
07.843,81.22
07.859,73.91
07.875,66.02
07.890,57.96
07.906,49.85
07.921,41.55
07.937,32.82
07.953,23.56
07.968,13.99
07.984,4.78
08.000,-3.2
08.015,-9.01
08.031,-11.94
08.046,-11.73
08.062,-8.61
08.078,-3.2
08.093,3.66
08.109,11.1
08.125,18.41
08.140,25.03
08.156,30.55
08.171,34.69
08.187,37.21
08.203,38.0
08.218,37.13
08.234,34.83
08.250,31.46
08.265,27.39
08.281,22.94
08.296,18.29
08.312,13.52
08.328,8.61
08.343,3.53
08.359,-1.65
08.375,-6.77
08.390,-11.47
08.406,-15.34
08.421,-17.92
08.437,-18.93
08.453,-18.22
08.468,-15.91
08.484,-12.28
08.500,-7.73
08.515,-2.82
08.531,1.77
08.546,5.28
08.562,6.91
08.578,6.08
08.593,2.61
08.609,-3.16
08.625,-10.4
08.640,-18.01
08.656,-24.99
08.671,-30.54
08.687,-34.26
08.703,-36.04
08.718,-36.03
08.734,-34.58
08.750,-32.17
08.765,-29.48
08.781,-27.12
08.796,-25.63
08.812,-25.21
08.828,-25.77
08.843,-26.96
08.859,-28.37
08.875,-29.6
08.890,-30.29
08.906,-30.11
08.921,-28.68
08.937,-25.71
08.953,-21.12
08.968,-15.21
08.984,-8.64
09.000,-2.21
09.015,3.4
09.031,7.79
09.046,10.97
09.062,13.15
09.078,14.58
09.093,15.36
09.109,15.46
09.125,14.74
09.140,13.17
09.156,10.91
09.171,8.31
09.187,5.81
09.203,3.81
09.218,2.56
09.234,2.13
09.250,2.41
09.265,3.12
09.281,3.97
09.296,4.66
09.312,5.05
09.328,5.14
09.343,5.04
09.359,4.84
09.375,4.54
09.390,4.04
09.406,3.16
09.421,1.81
09.437,0.04
09.453,-1.83
09.468,-3.47
09.484,-4.6
09.500,-5.14
09.515,-5.22
09.531,-5.02
09.546,-4.71
09.562,-4.34
09.578,-3.84
09.593,-3.1
09.609,-2.03
09.625,-0.58
09.640,1.24
09.656,3.39
09.671,5.87
09.687,8.7
09.703,12.0
09.718,15.87
09.734,20.44
09.750,25.78
09.765,31.93
09.781,38.78
09.796,46.1
09.812,53.53
09.828,60.64
09.843,66.91
09.859,71.85
09.875,75.11
09.890,76.54
09.906,76.33
09.921,74.92
09.937,72.94
09.953,71.05
09.968,69.73
09.984,69.23
10.000,69.52
10.015,70.39
10.031,71.53
10.046,72.76
10.062,74.0
10.078,75.27
10.093,76.66
10.109,78.21
10.125,79.89
10.140,81.55
10.156,82.93
10.171,83.59
10.187,83.04
10.203,80.74
10.218,76.34
10.234,69.82
10.250,61.58
10.265,52.37
10.281,43.12
10.296,34.68
10.312,27.62
10.328,22.13
10.343,18.14
10.359,15.39
10.375,13.55
10.390,12.25
10.406,11.09
10.421,9.72
10.437,7.82
10.453,5.32
10.468,2.4
10.484,-0.59
10.500,-3.32
10.515,-5.59
10.531,-7.56
10.546,-9.58
10.562,-12.01
10.578,-15.0
10.593,-18.42
10.609,-21.8
10.625,-24.58
10.640,-26.23
10.656,-26.42
10.671,-25.17
10.687,-22.83
10.703,-20.04
10.718,-17.67
10.734,-16.59
10.750,-17.46
10.765,-20.5
10.781,-25.35
10.796,-31.28
10.812,-37.26
10.828,-42.31
10.843,-45.66
10.859,-46.86
10.875,-45.78
10.890,-42.53
10.906,-37.44
10.921,-30.88
10.937,-23.23
10.953,-14.86
10.968,-6.18
10.984,2.26
11.000,9.83
11.015,15.89
11.031,20.02
11.046,22.17
11.062,22.61
11.078,21.8
11.093,20.13
11.109,17.83
11.125,15.02
11.140,11.93
11.156,9.0
11.171,6.76
11.187,5.52
11.203,5.09
11.218,4.73
11.234,3.39
11.250,0.16
11.265,-5.38
11.281,-13.04
11.296,-22.17
11.312,-31.99
11.328,-41.77
11.343,-50.91
11.359,-58.9
11.375,-65.32
11.390,-69.86
11.406,-72.4
11.421,-73.13
11.437,-72.46
11.453,-70.93
11.468,-69.09
11.484,-67.42
11.500,-66.19
11.515,-65.46
11.531,-65.03
11.546,-64.46
11.562,-63.19
11.578,-60.71
11.593,-56.69
11.609,-51.12
11.625,-44.36
11.640,-37.07
11.656,-29.94
11.671,-23.56
11.687,-18.31
11.703,-14.23
11.718,-11.13
11.734,-8.62
11.750,-6.31
11.765,-3.84
11.781,-1.02
11.796,2.31
11.812,6.19
11.828,10.54
11.843,15.12
11.859,19.55
11.875,23.45
11.890,26.62
11.906,29.22
11.921,31.66
11.937,34.4
11.953,37.56
11.968,40.67
11.984,42.72
12.000,42.42
12.015,38.76
12.031,31.39
12.046,20.9
12.062,8.46
12.078,-4.49
12.093,-16.76
12.109,-27.69
12.125,-37.18
12.140,-45.52
12.156,-53.06
12.171,-60.02
12.187,-66.4
12.203,-71.98
12.218,-76.44
12.234,-79.46
12.250,-80.84
12.265,-80.53
12.281,-78.75
12.296,-75.91
12.312,-72.49
12.328,-69.0
12.343,-65.7
12.359,-62.67
12.375,-59.73
12.390,-56.73
12.406,-53.56
12.421,-50.25
12.437,-46.88
12.453,-43.48
12.468,-39.97
12.484,-36.15
12.500,-31.91
12.515,-27.28
12.531,-22.39
12.546,-17.48
12.562,-12.75
12.578,-8.24
12.593,-3.92
12.609,0.3
12.625,4.43
12.640,8.34
12.656,11.86
12.671,14.89
12.687,17.57
12.703,20.24
12.718,23.43
12.734,27.64
12.750,33.16
12.765,39.97
12.781,47.69
12.796,55.73
12.812,63.49
12.828,70.51
12.843,76.63
12.859,81.87
12.875,86.4
12.890,90.19
12.906,92.92
12.921,93.89
12.937,92.19
12.953,86.94
12.968,77.61
12.984,64.28
13.000,47.65
13.015,28.95
13.031,9.7
13.046,-8.58
13.062,-24.64
13.078,-37.67
13.093,-47.32
13.109,-53.76
13.125,-57.44
13.140,-59.05
13.156,-59.29
13.171,-58.8
13.187,-58.01
13.203,-57.1
13.218,-56.01
13.234,-54.57
13.250,-52.68
13.265,-50.44
13.281,-48.09
13.296,-45.91
13.312,-44.07
13.328,-42.41
13.343,-40.54
13.359,-38.01
13.375,-34.56
13.390,-30.25
13.406,-25.45
13.421,-20.54
13.437,-15.8
13.453,-11.33
13.468,-7.16
13.484,-3.4
13.500,-0.25
13.515,1.98
13.531,3.14
13.546,3.23
13.562,2.5
13.578,1.28
13.593,-0.07
13.609,-1.39
13.625,-2.6
13.640,-3.7
13.656,-4.69
13.671,-5.5
13.687,-5.99
13.703,-5.99
13.718,-5.37
13.734,-4.06
13.750,-2.15
13.765,0.1
13.781,2.34
13.796,4.11
13.812,5.01
13.828,4.74
13.843,3.11
13.859,0.16
13.875,-3.85
13.890,-8.45
13.906,-13.0
13.921,-16.73
13.937,-18.91
13.953,-18.98
13.968,-16.68
13.984,-12.21
14.000,-6.07
14.015,0.95
14.031,8.04
14.046,14.48
14.062,19.84
14.078,23.91
14.093,26.69
14.109,28.25
14.125,28.67
14.140,28.09
14.156,26.74
14.171,24.96
14.187,23.17
14.203,21.73
14.218,20.79
14.234,20.26
14.250,19.85
14.265,19.24
14.281,18.31
14.296,17.09
14.312,15.73
14.328,14.38
14.343,13.02
14.359,11.5
14.375,9.61
14.390,7.25
14.406,4.4
14.421,1.19
14.437,-2.25
14.453,-5.82
14.468,-9.38
14.484,-12.7
14.500,-15.33
14.515,-16.69
14.531,-16.25
14.546,-13.76
14.562,-9.36
14.578,-3.6
14.593,2.82
14.609,9.24
14.625,15.23
14.640,20.56
14.656,25.14
14.671,28.78
14.687,31.26
14.703,32.4
14.718,32.19
14.734,30.84
14.750,28.79
14.765,26.47
14.781,24.28
14.796,22.42
14.812,20.94
14.828,19.78
14.843,18.81
14.859,17.85
14.875,16.74
14.890,15.32
14.906,13.52
14.921,11.39
14.937,9.04
14.953,6.64
14.968,4.3
14.984,2.0
15.000,-0.48
15.015,-3.44
15.031,-7.12
15.046,-11.63
15.062,-16.69
15.078,-21.6
15.093,-25.41
15.109,-27.13
15.125,-26.1
15.140,-22.25
15.156,-16.21
15.171,-9.0
15.187,-1.78
15.203,4.59
15.218,9.7
15.234,13.52
15.250,16.23
15.265,17.97
15.281,18.78
15.296,18.64
15.312,17.62
15.328,15.91
15.343,13.84
15.359,11.76
15.375,9.9
15.390,8.33
15.406,6.98
15.421,5.68
15.437,4.31
15.453,2.73
15.468,1.01
15.484,-0.75
15.500,-2.38
15.515,-3.77
15.531,-4.92
15.546,-6.01
15.562,-7.29
15.578,-9.02
15.593,-11.37
15.609,-14.35
15.625,-17.82
15.640,-21.57
15.656,-25.27
15.671,-28.43
15.687,-30.46
15.703,-30.65
15.718,-28.48
15.734,-23.77
15.750,-16.86
15.765,-8.58
15.781,0.01
15.796,7.94
15.812,14.49
15.828,19.39
15.843,22.66
15.859,24.49
15.875,25.15
15.890,24.84
15.906,23.86
15.921,22.41
15.937,20.77
15.953,19.09
15.968,17.5
15.984,16.02
16.000,14.59
16.015,13.12
16.031,11.56
16.046,9.88
16.062,8.08
16.078,6.2
16.093,4.2
16.109,2.04
16.125,-0.35
16.140,-2.94
16.156,-5.69
16.171,-8.38
16.187,-10.87
16.203,-13.11
16.218,-15.2
16.234,-17.39
16.250,-20.0
16.265,-23.23
16.281,-27.01
16.296,-30.92
16.312,-34.17
16.328,-35.8
16.343,-34.9
16.359,-30.95
16.375,-24.06
16.390,-15.01
16.406,-5.02
16.421,4.65
16.437,13.04
16.453,19.69
16.468,24.58
16.484,27.88
16.500,29.84
16.515,30.58
16.531,30.18
16.546,28.79
16.562,26.68
16.578,24.21
16.593,21.79
16.609,19.67
16.625,17.91
16.640,16.39
16.656,14.88
16.671,13.22
16.687,11.42
16.703,9.62
16.718,7.97
16.734,6.54
16.750,5.2
16.765,3.64
16.781,1.49
16.796,-1.49
16.812,-5.23
16.828,-9.44
16.843,-13.65
16.859,-17.49
16.875,-20.77
16.890,-23.6
16.906,-26.28
16.921,-29.18
16.937,-32.56
16.953,-36.5
16.968,-40.81
16.984,-45.02
17.000,-48.4
17.015,-50.0
17.031,-48.85
17.046,-44.14
17.062,-35.56
17.078,-23.39
17.093,-8.59
17.109,7.49
17.125,23.35
17.140,37.71
17.156,49.76
17.171,59.13
17.187,65.92
17.203,70.3
17.218,72.58
17.234,72.93
17.250,71.56
17.265,68.67
17.281,64.59
17.296,59.71
17.312,54.49
17.328,49.28
17.343,44.25
17.359,39.42
17.375,34.71
17.390,30.0
17.406,25.27
17.421,20.61
17.437,16.13
17.453,11.93
17.468,8.03
17.484,4.29
17.500,0.55
17.515,-3.31
17.531,-7.36
17.546,-11.49
17.562,-15.54
17.578,-19.35
17.593,-22.77
17.609,-25.75
17.625,-28.3
17.640,-30.48
17.656,-32.41
17.671,-34.24
17.687,-36.06
17.703,-38.01
17.718,-40.12
17.734,-42.36
17.750,-44.53
17.765,-46.23
17.781,-46.91
17.796,-45.97
17.812,-42.94
17.828,-37.56
17.843,-30.03
17.859,-20.89
17.875,-10.99
17.890,-1.28
17.906,7.41
17.921,14.53
17.937,19.89
17.953,23.57
17.968,25.84
17.984,26.98
18.000,27.27
18.015,26.98
18.031,26.33
18.046,25.56
18.062,24.82
18.078,24.18
18.093,23.61
18.109,23.01
18.125,22.28
18.140,21.43
18.156,20.49
18.171,19.55
18.187,18.61
18.203,17.56
18.218,16.24
18.234,14.48
18.250,12.24
18.265,9.58
18.281,6.7
18.296,3.81
18.312,1.09
18.328,-1.4
18.343,-3.73
18.359,-5.99
18.375,-8.33
18.390,-10.8
18.406,-13.41
18.421,-16.1
18.437,-18.78
18.453,-21.36
18.468,-23.79
18.484,-26.1
18.500,-28.36
18.515,-30.66
18.531,-33.05
18.546,-35.48
18.562,-37.72
18.578,-39.35
18.593,-39.81
18.609,-38.57
18.625,-35.28
18.640,-29.95
18.656,-22.95
18.671,-14.98
18.687,-6.81
18.703,0.96
18.718,7.9
18.734,13.87
18.750,18.84
18.765,22.75
18.781,25.49
18.796,26.95
18.812,27.13
18.828,26.27
18.843,24.78
18.859,23.15
18.875,21.76
18.890,20.8
18.906,20.19
18.921,19.76
18.937,19.32
18.953,18.78
18.968,18.2
18.984,17.67
19.000,17.21
19.015,16.82
19.031,16.35
19.046,15.66
19.062,14.6
19.078,13.11
19.093,11.22
19.109,9.02
19.125,6.63
19.140,4.15
19.156,1.63
19.171,-0.95
19.187,-3.6
19.203,-6.31
19.218,-9.03
19.234,-11.62
19.250,-13.99
19.265,-16.14
19.281,-18.1
19.296,-20.02
19.312,-22.03
19.328,-24.22
19.343,-26.6
19.359,-29.14
19.375,-31.79
19.390,-34.45
19.406,-36.94
19.421,-38.9
19.437,-39.85
19.453,-39.2
19.468,-36.48
19.484,-31.49
19.500,-24.48
19.515,-16.09
19.531,-7.24
19.546,1.13
19.562,8.33
19.578,14.01
19.593,18.21
19.609,21.18
19.625,23.26
19.640,24.64
19.656,25.42
19.671,25.57
19.687,25.14
19.703,24.27
19.718,23.25
19.734,22.37
19.750,21.85
19.765,21.69
19.781,21.76
19.796,21.84
19.812,21.77
19.828,21.46
19.843,20.93
19.859,20.18
19.875,19.19
19.890,17.87
19.906,16.15
19.921,14.05
19.937,11.66
19.953,9.13
19.968,6.59
19.984,4.08
20.000,1.56
20.015,-1.04
20.031,-3.71
20.046,-6.36
20.062,-8.85
20.078,-11.1
20.093,-13.18
20.109,-15.23
20.125,-17.38
20.140,-19.64
20.156,-21.95
20.171,-24.2
20.187,-26.38
20.203,-28.62
20.218,-31.08
20.234,-33.76
20.250,-36.34
20.265,-38.25
20.281,-38.77
20.296,-37.32
20.312,-33.71
20.328,-28.17
20.343,-21.23
20.359,-13.61
20.375,-6.0
20.390,1.05
20.406,7.11
20.421,11.99
20.437,15.64
20.453,18.15
20.468,19.68
20.484,20.44
20.500,20.57
20.515,20.23
20.531,19.56
20.546,18.77
20.562,18.0
20.578,17.4
20.593,17.01
20.609,16.79
20.625,16.65
20.640,16.49
20.656,16.28
20.671,15.94
20.687,15.41
20.703,14.56
20.718,13.28
20.734,11.56
20.750,9.53
20.765,7.39
20.781,5.34
20.796,3.41
20.812,1.5
20.828,-0.58
20.843,-2.97
20.859,-5.69
20.875,-8.55
20.890,-11.31
20.906,-13.76
20.921,-15.83
20.937,-17.61
20.953,-19.33
20.968,-21.21
20.984,-23.43
21.000,-26.02
21.015,-28.94
21.031,-31.96
21.046,-34.74
21.062,-36.82
21.078,-37.66
21.093,-36.8
21.109,-33.96
21.125,-29.14
21.140,-22.67
21.156,-15.14
21.171,-7.28
21.187,0.22
21.203,6.84
21.218,12.31
21.234,16.53
21.250,19.5
21.265,21.3
21.281,21.98
21.296,21.71
21.312,20.74
21.328,19.44
21.343,18.18
21.359,17.19
21.375,16.57
21.390,16.21
21.406,15.94
21.421,15.62
21.437,15.2
21.453,14.68
21.468,14.07
21.484,13.31
21.500,12.32
21.515,11.03
21.531,9.45
21.546,7.67
21.562,5.83
21.578,4.08
21.593,2.5
21.609,1.03
21.625,-0.42
21.640,-2.02
21.656,-3.9
21.671,-6.07
21.687,-8.44
21.703,-10.8
21.718,-12.95
21.734,-14.79
21.750,-16.36
21.765,-17.81
21.781,-19.36
21.796,-21.13
21.812,-23.18
21.828,-25.54
21.843,-28.18
21.859,-31.0
21.875,-33.83
21.890,-36.22
21.906,-37.62
21.921,-37.39
21.937,-35.03
21.953,-30.45
21.968,-23.95
21.984,-16.17
22.000,-7.92
22.015,0.07
22.031,7.3
22.046,13.48
22.062,18.48
22.078,22.27
22.093,24.87
22.109,26.3
22.125,26.74
22.140,26.41
22.156,25.6
22.171,24.57
22.187,23.5
22.203,22.48
22.218,21.52
22.234,20.63
22.250,19.8
22.265,19.08
22.281,18.5
22.296,18.07
22.312,17.76
22.328,17.45
22.343,17.0
22.359,16.27
22.375,15.18
22.390,13.76
22.406,12.06
22.421,10.2
22.437,8.23
22.453,6.18
22.468,3.96
22.484,1.47
22.500,-1.35
22.515,-4.45
22.531,-7.73
22.546,-11.04
22.562,-14.2
22.578,-17.07
22.593,-19.55
22.609,-21.68
22.625,-23.51
22.640,-25.22
22.656,-26.99
22.671,-29.08
22.687,-31.67
22.703,-34.8
22.718,-38.36
22.734,-41.91
22.750,-44.88
22.765,-46.53
22.781,-46.2
22.796,-43.49
22.812,-38.39
22.828,-31.35
22.843,-23.08
22.859,-14.37
22.875,-5.84
22.890,2.11
22.906,9.29
22.921,15.57
22.937,20.86
22.953,25.01
22.968,27.89
22.984,29.53
23.000,30.1
23.015,29.89
23.031,29.21
23.046,28.31
23.062,27.33
23.078,26.4
23.093,25.6
23.109,24.99
23.125,24.65
23.140,24.55
23.156,24.59
23.171,24.58
23.187,24.36
23.203,23.82
23.218,22.88
23.234,21.54
23.250,19.8
23.265,17.69
23.281,15.24
23.296,12.54
23.312,9.76
23.328,7.02
23.343,4.38
23.359,1.75
23.375,-1.0
23.390,-4.05
23.406,-7.43
23.421,-10.99
23.437,-14.5
23.453,-17.65
23.468,-20.3
23.484,-22.4
23.500,-24.12
23.515,-25.66
23.531,-27.26
23.546,-29.12
23.562,-31.44
23.578,-34.32
23.593,-37.64
23.609,-41.01
23.625,-43.76
23.640,-45.08
23.656,-44.27
23.671,-40.96
23.687,-35.3
23.703,-27.84
23.718,-19.34
23.734,-10.56
23.750,-2.13
23.765,5.51
23.781,12.1
23.796,17.42
23.812,21.38
23.828,23.98
23.843,25.32
23.859,25.64
23.875,25.27
23.890,24.56
23.906,23.78
23.921,23.1
23.937,22.54
23.953,22.09
23.968,21.84
23.984,21.95
24.000,22.69
24.015,24.28
24.031,26.72
24.046,29.67
24.062,32.54
24.078,34.7
24.093,35.64
24.109,35.22
24.125,33.58
24.140,31.02
24.156,27.83
24.171,24.2
24.187,20.25
24.203,16.09
24.218,11.78
24.234,7.44
24.250,3.09
24.265,-1.21
24.281,-5.44
24.296,-9.47
24.312,-13.11
24.328,-16.18
24.343,-18.61
24.359,-20.57
24.375,-22.36
24.390,-24.37
24.406,-26.85
24.421,-29.92
24.437,-33.45
24.453,-37.13
24.468,-40.51
24.484,-43.02
24.500,-44.06
24.515,-43.08
24.531,-39.78
24.546,-34.28
24.562,-27.13
24.578,-19.15
24.593,-11.24
24.609,-4.07
24.625,1.97
24.640,6.77
24.656,10.41
24.671,12.99
24.687,14.65
24.703,15.52
24.718,15.85
24.734,15.9
24.750,15.92
24.765,16.07
24.781,16.38
24.796,16.79
24.812,17.24
24.828,17.66
24.843,18.05
24.859,18.4
24.875,18.67
24.890,18.75
24.906,18.59
24.921,18.11
24.937,17.32
24.953,16.24
24.968,14.93
24.984,13.41
25.000,11.7
25.015,9.83
25.031,7.8
25.046,5.63
25.062,3.26
25.078,0.62
25.093,-2.3
25.109,-5.45
25.125,-8.67
25.140,-11.76
25.156,-14.56
25.171,-17.07
25.187,-19.4
25.203,-21.82
25.218,-24.58
25.234,-27.74
25.250,-31.13
25.265,-34.27
25.281,-36.56
25.296,-37.31
25.312,-36.07
25.328,-32.59
25.343,-27.05
25.359,-19.97
25.375,-12.03
25.390,-4.02
25.406,3.44
25.421,9.93
25.437,15.25
25.453,19.34
25.468,22.23
25.484,23.91
25.500,24.44
25.515,24.04
25.531,23.0
25.546,21.75
25.562,20.65
25.578,19.9
25.593,19.49
25.609,19.28
25.625,19.08
25.640,18.77
25.656,18.36
25.671,17.87
25.687,17.37
25.703,16.77
25.718,15.99
25.734,14.88
25.750,13.32
25.765,11.26
25.781,8.71
25.796,5.76
25.812,2.53
25.828,-0.84
25.843,-4.22
25.859,-7.49
25.875,-10.53
25.890,-13.25
25.906,-15.62
25.921,-17.72
25.937,-19.73
25.953,-21.92
25.968,-24.46
25.984,-27.32
26.000,-30.26
26.015,-32.73
26.031,-34.13
26.046,-33.93
26.062,-31.86
26.078,-27.97
26.093,-22.63
26.109,-16.36
26.125,-9.7
26.140,-3.19
26.156,2.84
26.171,8.13
26.187,12.59
26.203,16.16
26.218,18.81
26.234,20.51
26.250,21.31
26.265,21.33
26.281,20.81
26.296,20.06
26.312,19.35
26.328,18.85
26.343,18.59
26.359,18.43
26.375,18.2
26.390,17.77
26.406,17.09
26.421,16.2
26.437,15.21
26.453,14.16
26.468,13.02
26.484,11.67
26.500,9.96
26.515,7.78
26.531,5.18
26.546,2.35
26.562,-0.48
26.578,-3.1
26.593,-5.44
26.609,-7.6
26.625,-9.69
26.640,-11.8
26.656,-13.98
26.671,-16.23
26.687,-18.61
26.703,-21.22
26.718,-24.15
26.734,-27.25
26.750,-30.09
26.765,-31.93
26.781,-32.0
26.796,-29.75
26.812,-25.13
26.828,-18.67
26.843,-11.22
26.859,-3.69
26.875,3.25
26.890,9.2
26.906,14.04
26.921,17.7
26.937,20.14
26.953,21.31
26.968,21.25
26.984,20.2
27.000,18.57
27.015,16.84
27.031,15.39
27.046,14.39
27.062,13.8
27.078,13.37
27.093,12.83
27.109,12.02
27.125,10.94
27.140,9.79
27.156,8.76
27.171,8.06
27.187,7.66
27.203,7.35
27.218,6.74
27.234,5.5
27.250,3.44
27.265,0.63
27.281,-2.62
27.296,-5.93
27.312,-9.0
27.328,-11.66
27.343,-13.95
27.359,-16.0
27.375,-18.0
27.390,-20.16
27.406,-22.67
27.421,-25.57
27.437,-28.74
27.453,-31.72
27.468,-33.84
27.484,-34.33
27.500,-32.62
27.515,-28.5
27.531,-22.31
27.546,-14.79
27.562,-6.83
27.578,0.81
27.593,7.62
27.609,13.45
27.625,18.27
27.640,22.15
27.656,25.09
27.671,27.05
27.687,28.03
27.703,28.2
27.718,27.82
27.734,27.19
27.750,26.6
27.765,26.14
27.781,25.87
27.796,25.72
27.812,25.68
27.828,25.81
27.843,26.19
27.859,26.85
27.875,27.67
27.890,28.41
27.906,28.75
27.921,28.46
27.937,27.45
27.953,25.76
27.968,23.59
27.984,21.17
28.000,18.75
28.015,16.56
28.031,14.75
28.046,13.39
28.062,12.44
28.078,11.76
28.093,11.13
28.109,10.41
28.125,9.51
28.140,8.47
28.156,7.36
28.171,6.3
28.187,5.31
28.203,4.4
28.218,3.57
28.234,2.81
28.250,2.15
28.265,1.57
28.281,1.06
28.296,0.6
28.312,0.15
28.328,-0.28
28.343,-0.69
28.359,-1.1
28.375,-1.65
28.390,-2.46
28.406,-3.6
28.421,-5.05
28.437,-6.68
28.453,-8.31
28.468,-9.83
28.484,-11.2
28.500,-12.45
28.515,-13.65
28.531,-14.8
28.546,-15.82
28.562,-16.64
28.578,-17.24
28.593,-17.75
28.609,-18.4
28.625,-19.52
28.640,-21.32
28.656,-23.85
28.671,-26.89
28.687,-30.12
28.703,-33.13
28.718,-35.65
28.734,-37.57
28.750,-39.0
28.765,-40.17
28.781,-41.39
28.796,-42.93
28.812,-44.98
28.828,-47.61
28.843,-50.66
28.859,-53.67
28.875,-55.86
28.890,-56.26
28.906,-53.94
28.921,-48.39
28.937,-39.73
28.953,-28.81
28.968,-16.93
28.984,-5.49
29.000,4.43
29.015,12.27
29.031,17.98
29.046,21.86
29.062,24.35
29.078,25.83
29.093,26.61
29.109,26.85
29.125,26.64
29.140,26.1
29.156,25.33
29.171,24.42
29.187,23.45
29.203,22.44
29.218,21.35
29.234,20.05
29.250,18.51
29.265,16.7
29.281,14.73
29.296,12.74
29.312,10.86
29.328,9.08
29.343,7.32
29.359,5.42
29.375,3.29
29.390,0.95
29.406,-1.53
29.421,-4.04
29.437,-6.5
29.453,-8.98
29.468,-11.64
29.484,-14.63
29.500,-18.03
29.515,-21.7
29.531,-25.25
29.546,-28.07
29.562,-29.39
29.578,-28.58
29.593,-25.31
29.609,-19.72
29.625,-12.38
29.640,-4.2
29.656,3.92
29.671,11.24
29.687,17.35
29.703,22.17
29.718,25.79
29.734,28.31
29.750,29.84
29.765,30.5
29.781,30.46
29.796,30.0
29.812,29.43
29.828,28.98
29.843,28.72
29.859,28.58
29.875,28.35
29.890,27.87
29.906,27.04
29.921,25.89
29.937,24.55
29.953,23.14
29.968,21.73
29.984,20.33
30.000,18.91
30.015,17.48
30.031,16.07
30.046,14.74
30.062,13.56
30.078,12.57
30.093,11.79
30.109,11.11
30.125,10.41
30.140,9.54
30.156,8.35
30.171,6.81
30.187,4.99
30.203,3.08
30.218,1.31
30.234,-0.18
30.250,-1.31
30.265,-2.12
30.281,-2.69
30.296,-3.13
30.312,-3.5
30.328,-3.88
30.343,-4.3
30.359,-4.81
30.375,-5.42
30.390,-6.18
30.406,-7.12
30.421,-8.3
30.437,-9.77
30.453,-11.52
30.468,-13.48
30.484,-15.52
30.500,-17.48
30.515,-19.27
30.531,-20.89
30.546,-22.43
30.562,-24.01
30.578,-25.72
30.593,-27.54
30.609,-29.36
30.625,-31.09
30.640,-32.6
30.656,-33.89
30.671,-35.03
30.687,-36.17
30.703,-37.48
30.718,-39.11
30.734,-41.17
30.750,-43.64
30.765,-46.28
30.781,-48.56
30.796,-49.69
30.812,-48.84
30.828,-45.33
30.843,-38.97
30.859,-30.16
30.875,-19.82
30.890,-9.15
30.906,0.71
30.921,8.99
30.937,15.34
30.953,19.77
30.968,22.48
30.984,23.73
31.000,23.76
31.015,22.77
31.031,21.02
31.046,18.8
31.062,16.43
31.078,14.26
31.093,12.57
31.109,11.47
31.125,10.95
31.140,10.79
31.156,10.67
31.171,10.26
31.187,9.35
31.203,7.91
31.218,6.07
31.234,3.97
31.250,1.74
31.265,-0.61
31.281,-3.17
31.296,-6.05
31.312,-9.31
31.328,-12.97
31.343,-16.94
31.359,-21.04
31.375,-24.91
31.390,-28.03
31.406,-29.73
31.421,-29.39
31.437,-26.65
31.453,-21.64
31.468,-14.9
31.484,-7.3
31.500,0.27
31.515,7.17
31.531,13.12
31.546,18.02
31.562,21.87
31.578,24.56
31.593,25.88
31.609,25.65
31.625,23.9
31.640,20.99
31.656,17.54
31.671,14.23
31.687,11.53
31.703,9.54
31.718,7.98
31.734,6.39
31.750,4.39
31.765,1.84
31.781,-1.08
31.796,-4.07
31.812,-6.9
31.828,-9.57
31.843,-12.29
31.859,-15.26
31.875,-18.6
31.890,-22.22
31.906,-25.95
31.921,-29.71
31.937,-33.51
31.953,-37.35
31.968,-40.93
31.984,-43.43
32.000,-43.62
32.015,-40.32
32.031,-32.86
32.046,-21.52
32.062,-7.45
32.078,7.76
32.093,22.62
32.109,36.16
32.125,47.87
32.140,57.5
32.156,64.81
32.171,69.48
32.187,71.25
32.203,70.19
32.218,66.77
32.234,61.8
32.250,56.2
32.265,50.6
32.281,45.3
32.296,40.27
32.312,35.28
32.328,30.09
32.343,24.6
32.359,18.82
32.375,12.8
32.390,6.63
32.406,0.35
32.421,-6.01
32.437,-12.37
32.453,-18.52
32.468,-24.21
32.484,-29.19
32.500,-33.33
32.515,-36.73
32.531,-39.71
32.546,-42.71
32.562,-46.1
32.578,-50.04
32.593,-54.18
32.609,-57.71
32.625,-59.46
32.640,-58.26
32.656,-53.35
32.671,-44.69
32.687,-33.08
32.703,-19.85
32.718,-6.54
32.734,5.67
32.750,16.12
32.765,24.73
32.781,31.73
32.796,37.39
32.812,41.84
32.828,45.08
32.843,47.14
32.859,48.15
32.875,48.41
32.890,48.26
32.906,47.93
32.921,47.46
32.937,46.68
32.953,45.35
32.968,43.3
32.984,40.6
33.000,37.47
33.015,34.23
33.031,31.09
33.046,28.05
33.062,24.97
33.078,21.54
33.093,17.55
33.109,12.84
33.125,7.47
33.140,1.65
33.156,-4.28
33.171,-9.9
33.187,-14.88
33.203,-18.95
33.218,-22.15
33.234,-24.75
33.250,-27.23
33.265,-30.1
33.281,-33.74
33.296,-38.16
33.312,-43.06
33.328,-47.85
33.343,-51.73
33.359,-53.85
33.375,-53.43
33.390,-49.92
33.406,-43.19
33.421,-33.54
33.437,-21.74
33.453,-8.83
33.468,4.05
33.484,15.94
33.500,26.14
33.515,34.34
33.531,40.51
33.546,44.74
33.562,47.21
33.578,48.11
33.593,47.66
33.609,46.16
33.625,43.98
33.640,41.53
33.656,39.1
33.671,36.9
33.687,34.96
33.703,33.2
33.718,31.53
33.734,29.9
33.750,28.33
33.765,26.83
33.781,25.3
33.796,23.54
33.812,21.31
33.828,18.47
33.843,15.03
33.859,11.2
33.875,7.24
33.890,3.34
33.906,-0.43
33.921,-4.13
33.937,-7.85
33.953,-11.62
33.968,-15.35
33.984,-18.94
34.000,-22.31
34.015,-25.53
34.031,-28.73
34.046,-32.06
34.062,-35.59
34.078,-39.32
34.093,-43.07
34.109,-46.51
34.125,-49.12
34.140,-50.21
34.156,-49.13
34.171,-45.43
34.187,-39.06
34.203,-30.46
34.218,-20.48
34.234,-10.1
34.250,-0.18
34.265,8.71
34.281,16.32
34.296,22.58
34.312,27.51
34.328,31.13
34.343,33.45
34.359,34.55
34.375,34.57
34.390,33.77
34.406,32.4
34.421,30.74
34.437,29.0
34.453,27.36
34.468,25.87
34.484,24.52
34.500,23.19
34.515,21.76
34.531,20.09
34.546,18.16
34.562,16.07
34.578,14.0
34.593,12.11
34.609,10.44
34.625,8.91
34.640,7.37
34.656,5.66
34.671,3.69
34.687,1.48
34.703,-0.89
34.718,-3.35
34.734,-5.89
34.750,-8.61
34.765,-11.53
34.781,-14.62
34.796,-17.74
34.812,-20.71
34.828,-23.38
34.843,-25.82
34.859,-28.29
34.875,-31.09
34.890,-34.34
34.906,-37.75
34.921,-40.54
34.937,-41.69
34.953,-40.34
34.968,-36.08
34.984,-29.23
35.000,-20.69
35.015,-11.55
35.031,-2.8
35.046,4.98
35.062,11.67
35.078,17.3
35.093,22.01
35.109,25.82
35.125,28.6
35.140,30.18
35.156,30.58
35.171,29.9
35.187,28.46
35.203,26.64
35.218,24.71
35.234,22.82
35.250,21.01
35.265,19.33
35.281,17.92
35.296,16.98
35.312,16.63
35.328,16.78
35.343,17.09
35.359,17.06
35.375,16.37
35.390,14.94
35.406,12.94
35.421,10.66
35.437,8.28
35.453,5.74
35.468,2.86
35.484,-0.46
35.500,-4.13
35.515,-7.79
35.531,-11.03
35.546,-13.58
35.562,-15.49
35.578,-17.03
35.593,-18.68
35.609,-20.77
35.625,-23.52
35.640,-26.81
35.656,-30.28
35.671,-33.39
35.687,-35.55
35.703,-36.19
35.718,-34.93
35.734,-31.6
35.750,-26.28
35.765,-19.33
35.781,-11.3
35.796,-2.8
35.812,5.48
35.828,13.01
35.843,19.37
35.859,24.31
35.875,27.73
35.890,29.67
35.906,30.26
35.921,29.75
35.937,28.48
35.953,26.74
35.968,24.87
35.984,23.03
36.000,21.28
36.015,19.56
36.031,17.79
36.046,15.95
36.062,14.05
36.078,12.2
36.093,10.42
36.109,8.72
36.125,7.01
36.140,5.2
36.156,3.18
36.171,0.85
36.187,-1.83
36.203,-4.81
36.218,-8.01
36.234,-11.26
36.250,-14.33
36.265,-17.1
36.281,-19.48
36.296,-21.57
36.312,-23.51
36.328,-25.5
36.343,-27.66
36.359,-30.04
36.375,-32.54
36.390,-34.91
36.406,-36.75
36.421,-37.56
36.437,-36.84
36.453,-34.2
36.468,-29.53
36.484,-23.16
36.500,-15.69
36.515,-7.85
36.531,-0.31
36.546,6.52
36.562,12.47
36.578,17.48
36.593,21.56
36.609,24.69
36.625,26.86
36.640,28.12
36.656,28.65
36.671,28.63
36.687,28.16
36.703,27.19
36.718,25.56
36.734,23.2
36.750,20.23
36.765,16.97
36.781,13.94
36.796,11.59
36.812,10.18
36.828,9.61
36.843,9.51
36.859,9.34
36.875,8.65
36.890,7.21
36.906,5.02
36.921,2.32
36.937,-0.6
36.953,-3.53
36.968,-6.38
36.984,-9.14
37.000,-11.87
37.015,-14.59
37.031,-17.27
37.046,-19.94
37.062,-22.71
37.078,-25.69
37.093,-28.9
37.109,-32.09
37.125,-34.69
37.140,-36.05
37.156,-35.53
37.171,-32.88
37.187,-28.23
37.203,-22.05
37.218,-14.97
37.234,-7.6
37.250,-0.4
37.265,6.3
37.281,12.18
37.296,16.99
37.312,20.5
37.328,22.62
37.343,23.47
37.359,23.32
37.375,22.55
37.390,21.47
37.406,20.3
37.421,19.03
37.437,17.65
37.453,16.08
37.468,14.3
37.484,12.41
37.500,10.51
37.515,8.72
37.531,7.12
37.546,5.71
37.562,4.42
37.578,3.13
37.593,1.68
37.609,-0.14
37.625,-2.46
37.640,-5.33
37.656,-8.59
37.671,-11.98
37.687,-15.17
37.703,-17.9
37.718,-20.04
37.734,-21.73
37.750,-23.23
37.765,-24.85
37.781,-26.81
37.796,-29.21
37.812,-31.97
37.828,-34.82
37.843,-37.3
37.859,-38.83
37.875,-38.8
37.890,-36.74
37.906,-32.47
37.921,-26.19
37.937,-18.45
37.953,-9.97
37.968,-1.51
37.984,6.31
38.000,13.08
38.015,18.54
38.031,22.6
38.046,25.23
38.062,26.46
38.078,26.39
38.093,25.24
38.109,23.26
38.125,20.82
38.140,18.27
38.156,15.93
38.171,13.98
38.187,12.41
38.203,11.05
38.218,9.67
38.234,8.07
38.250,6.23
38.265,4.26
38.281,2.39
38.296,0.7
38.312,-0.95
38.328,-2.86
38.343,-5.43
38.359,-8.86
38.375,-13.09
38.390,-17.8
38.406,-22.61
38.421,-27.2
38.437,-31.5
38.453,-35.61
38.468,-39.75
38.484,-44.09
38.500,-48.71
38.515,-53.63
38.531,-58.82
38.546,-64.27
38.562,-69.83
38.578,-75.15
38.593,-79.64
38.609,-82.64
38.625,-83.66
38.640,-82.53
38.656,-79.55
38.671,-75.26
38.687,-70.2
38.703,-64.66
38.718,-58.62
38.734,-51.78
38.750,-43.93
38.765,-35.07
38.781,-25.49
38.796,-15.7
38.812,-6.24
38.828,2.51
38.843,10.42
38.859,17.5
38.875,23.9
38.890,29.75
38.906,35.09
38.921,39.95
38.937,44.25
38.953,47.98
38.968,51.21
38.984,54.0
39.000,56.41
39.015,58.36
39.031,59.63
39.046,59.94
39.062,59.09
39.078,56.98
39.093,53.77
39.109,49.73
39.125,45.14
39.140,40.2
39.156,34.99
39.171,29.57
39.187,24.01
39.203,18.49
39.218,13.23
39.234,8.46
39.250,4.3
39.265,0.64
39.281,-2.76
39.296,-6.22
39.312,-10.02
39.328,-14.22
39.343,-18.53
39.359,-22.38
39.375,-24.92
39.390,-25.36
39.406,-23.21
39.421,-18.43
39.437,-11.5
39.453,-3.28
39.468,5.32
39.484,13.5
39.500,20.82
39.515,27.13
39.531,32.54
39.546,37.22
39.562,41.37
39.578,45.08
39.593,48.44
39.609,51.41
39.625,53.99
39.640,56.15
39.656,57.83
39.671,59.04
39.687,59.82
39.703,60.25
39.718,60.45
39.734,60.61
39.750,60.94
39.765,61.77
39.781,63.35
39.796,65.79
39.812,69.0
39.828,72.61
39.843,76.14
39.859,79.19
39.875,81.51
39.890,83.09
39.906,83.95
39.921,84.0
39.937,82.99
39.953,80.5
39.968,76.14
39.984,69.69
40.000,61.22
40.015,51.02
40.031,39.47
40.046,26.87
40.062,13.41
40.078,-0.76
40.093,-15.4
40.109,-30.12
40.125,-44.32
40.140,-57.32
40.156,-68.41
40.171,-77.02
40.187,-82.72
40.203,-85.31
40.218,-84.82
40.234,-81.43
40.250,-75.61
40.265,-67.97
40.281,-59.25
40.296,-50.21
40.312,-41.54
40.328,-33.73
40.343,-27.09
40.359,-21.72
40.375,-17.54
40.390,-14.4
40.406,-12.15
40.421,-10.63
40.437,-9.7
40.453,-9.29
40.468,-9.24
40.484,-9.38
40.500,-9.52
40.515,-9.45
40.531,-9.11
40.546,-8.55
40.562,-7.94
40.578,-7.51
40.593,-7.43
40.609,-7.73
40.625,-8.31
40.640,-9.0
40.656,-9.61
40.671,-10.13
40.687,-10.69
40.703,-11.5
40.718,-12.76
40.734,-14.53
40.750,-16.72
40.765,-19.11
40.781,-21.48
40.796,-23.63
40.812,-25.56
40.828,-27.38
40.843,-29.28
40.859,-31.44
40.875,-33.95
40.890,-36.74
40.906,-39.62
40.921,-42.22
40.937,-43.99
40.953,-44.37
40.968,-42.82
40.984,-39.0
41.000,-32.93
41.015,-25.0
41.031,-15.88
41.046,-6.41
41.062,2.66
41.078,10.8
41.093,17.71
41.109,23.28
41.125,27.48
41.140,30.23
41.156,31.51
41.171,31.36
41.187,29.97
41.203,27.72
41.218,25.03
41.234,22.3
41.250,19.77
41.265,17.47
41.281,15.31
41.296,13.18
41.312,11.05
41.328,8.97
41.343,7.07
41.359,5.45
41.375,4.11
41.390,2.9
41.406,1.61
41.421,0.05
41.437,-1.85
41.453,-4.05
41.468,-6.32
41.484,-8.41
41.500,-10.16
41.515,-11.58
41.531,-12.87
41.546,-14.32
41.562,-16.2
41.578,-18.58
41.593,-21.4
41.609,-24.46
41.625,-27.56
41.640,-30.49
41.656,-33.0
41.671,-34.69
41.687,-35.11
41.703,-33.83
41.718,-30.59
41.734,-25.55
41.750,-19.17
41.765,-12.16
41.781,-5.14
41.796,1.44
41.812,7.46
41.828,12.91
41.843,17.72
41.859,21.72
41.875,24.6
41.890,26.06
41.906,25.99
41.921,24.59
41.937,22.29
41.953,19.69
41.968,17.28
41.984,15.26
42.000,13.61
42.015,12.11
42.031,10.55
42.046,8.87
42.062,7.13
42.078,5.48
42.093,3.97
42.109,2.51
42.125,0.93
42.140,-0.95
42.156,-3.21
42.171,-5.74
42.187,-8.38
42.203,-10.9
42.218,-13.17
42.234,-15.15
42.250,-16.93
42.265,-18.56
42.281,-20.13
42.296,-21.72
42.312,-23.37
42.328,-25.12
42.343,-26.93
42.359,-28.57
42.375,-29.69
42.390,-29.8
42.406,-28.42
42.421,-25.28
42.437,-20.4
42.453,-14.13
42.468,-7.0
42.484,0.38
42.500,7.45
42.515,13.82
42.531,19.29
42.546,23.76
42.562,27.14
42.578,29.31
42.593,30.1
42.609,29.47
42.625,27.52
42.640,24.62
42.656,21.32
42.671,18.23
42.687,15.78
42.703,14.13
42.718,13.14
42.734,12.52
42.750,12.02
42.765,11.47
42.781,10.85
42.796,10.23
42.812,9.69
42.828,9.18
42.843,8.58
42.859,7.7
42.875,6.35
42.890,4.46
42.906,2.09
42.921,-0.63
42.937,-3.48
42.953,-6.32
42.968,-9.08
42.984,-11.76
43.000,-14.4
43.015,-17.09
43.031,-19.92
43.046,-22.88
43.062,-25.98
43.078,-29.14
43.093,-32.11
43.109,-34.54
43.125,-35.89
43.140,-35.62
43.156,-33.34
43.171,-28.94
43.187,-22.67
43.203,-15.13
43.218,-7.06
43.234,0.78
43.250,7.83
43.265,13.74
43.281,18.39
43.296,21.77
43.312,23.95
43.328,25.02
43.343,25.08
43.359,24.31
43.375,22.96
43.390,21.29
43.406,19.59
43.421,18.03
43.437,16.69
43.453,15.55
43.468,14.5
43.484,13.45
43.500,12.39
43.515,11.38
43.531,10.45
43.546,9.67
43.562,8.94
43.578,8.07
43.593,6.84
43.609,5.0
43.625,2.5
43.640,-0.54
43.656,-3.82
43.671,-6.97
43.687,-9.71
43.703,-11.93
43.718,-13.76
43.734,-15.51
43.750,-17.47
43.765,-19.79
43.781,-22.49
43.796,-25.43
43.812,-28.37
43.828,-31.05
43.843,-33.08
43.859,-34.03
43.875,-33.39
43.890,-30.76
43.906,-26.06
43.921,-19.6
43.937,-12.04
43.953,-4.18
43.968,3.24
43.984,9.75
44.000,15.14
44.015,19.43
44.031,22.68
44.046,24.95
44.062,26.25
44.078,26.62
44.093,26.12
44.109,24.9
44.125,23.16
44.140,21.16
44.156,19.12
44.171,17.3
44.187,15.8
44.203,14.67
44.218,13.78
44.234,12.95
44.250,11.98
44.265,10.75
44.281,9.27
44.296,7.65
44.312,6.01
44.328,4.36
44.343,2.65
44.359,0.73
44.375,-1.45
44.390,-3.87
44.406,-6.34
44.421,-8.73
44.437,-10.94
44.453,-12.97
44.468,-14.99
44.484,-17.13
44.500,-19.53
44.515,-22.28
44.531,-25.33
44.546,-28.58
44.562,-31.84
44.578,-34.77
44.593,-36.89
44.609,-37.66
44.625,-36.59
44.640,-33.4
44.656,-28.14
44.671,-21.19
44.687,-13.23
44.703,-5.02
44.718,2.72
44.734,9.5
44.750,15.0
44.765,19.16
44.781,22.05
44.796,23.82
44.812,24.67
44.828,24.81
44.843,24.5
44.859,24.04
44.875,23.7
44.890,23.68
44.906,24.01
44.921,24.54
44.937,24.97
44.953,25.02
44.968,24.49
44.984,23.37
45.000,21.88
45.015,20.26
45.031,18.69
45.046,17.17
45.062,15.53
45.078,13.51
45.093,10.93
45.109,7.81
45.125,4.36
45.140,0.88
45.156,-2.33
45.171,-5.11
45.187,-7.44
45.203,-9.47
45.218,-11.42
45.234,-13.52
45.250,-15.96
45.265,-18.81
45.281,-21.97
45.296,-25.18
45.312,-27.93
45.328,-29.62
45.343,-29.7
45.359,-27.81
45.375,-23.87
45.390,-18.15
45.406,-11.18
45.421,-3.6
45.437,3.93
45.453,10.88
45.468,16.91
45.484,21.74
45.500,25.24
45.515,27.35
45.531,28.12
45.546,27.68
45.562,26.36
45.578,24.5
45.593,22.44
45.609,20.45
45.625,18.6
45.640,16.91
45.656,15.36
45.671,13.96
45.687,12.72
45.703,11.63
45.718,10.62
45.734,9.59
45.750,8.45
45.765,7.14
45.781,5.62
45.796,3.88
45.812,1.87
45.828,-0.44
45.843,-3.08
45.859,-6.03
45.875,-9.17
45.890,-12.35
45.906,-15.41
45.921,-18.27
45.937,-20.93
45.953,-23.52
45.968,-26.17
45.984,-28.96
46.000,-31.83
46.015,-34.48
46.031,-36.39
46.046,-36.93
46.062,-35.57
46.078,-32.01
46.093,-26.4
46.109,-19.21
46.125,-11.14
46.140,-2.94
46.156,4.77
46.171,11.57
46.187,17.21
46.203,21.52
46.218,24.43
46.234,25.92
46.250,26.08
46.265,25.11
46.281,23.33
46.296,21.15
46.312,18.91
46.328,16.84
46.343,15.05
46.359,13.55
46.375,12.25
46.390,11.04
46.406,9.91
46.421,8.83
46.437,7.84
46.453,6.89
46.468,5.92
46.484,4.82
46.500,3.5
46.515,1.91
46.531,0.1
46.546,-1.8
46.562,-3.66
46.578,-5.39
46.593,-7.03
46.609,-8.74
46.625,-10.7
46.640,-13.13
46.656,-16.15
46.671,-19.75
46.687,-23.7
46.703,-27.55
46.718,-30.69
46.734,-32.46
46.750,-32.28
46.765,-29.83
46.781,-25.16
46.796,-18.67
46.812,-11.04
46.828,-3.04
46.843,4.67
46.859,11.54
46.875,17.28
46.890,21.7
46.906,24.71
46.921,26.3
46.937,26.57
46.953,25.74
46.968,24.12
46.984,22.08
47.000,19.97
47.015,18.0
47.031,16.32
47.046,14.92
47.062,13.73
47.078,12.68
47.093,11.64
47.109,10.52
47.125,9.22
47.140,7.66
47.156,5.76
47.171,3.53
47.187,0.99
47.203,-1.8
47.218,-4.73
47.234,-7.67
47.250,-10.47
47.265,-12.99
47.281,-15.18
47.296,-17.17
47.312,-19.19
47.328,-21.58
47.343,-24.57
47.359,-28.12
47.375,-31.84
47.390,-34.99
47.406,-36.67
47.421,-36.13
47.437,-33.03
47.453,-27.55
47.468,-20.28
47.484,-12.03
47.500,-3.55
47.515,4.58
47.531,12.02
47.546,18.57
47.562,24.05
47.578,28.2
47.593,30.79
47.609,31.67
47.625,30.96
47.640,29.03
47.656,26.44
47.671,23.78
47.687,21.55
47.703,19.97
47.718,18.97
47.734,18.34
47.750,17.68
47.765,16.64
47.781,15.06
47.796,12.89
47.812,10.28
47.828,7.49
47.843,4.71
47.859,2.02
47.875,-0.57
47.890,-3.16
47.906,-5.8
47.921,-8.43
47.937,-10.91
47.953,-13.11
47.968,-15.03
47.984,-16.77
48.000,-18.58
48.015,-20.7
48.031,-23.31
48.046,-26.38
48.062,-29.6
48.078,-32.5
48.093,-34.46
48.109,-34.93
48.125,-33.46
48.140,-29.93
48.156,-24.48
48.171,-17.53
48.187,-9.67
48.203,-1.51
48.218,6.38
48.234,13.58
48.250,19.77
48.265,24.76
48.281,28.45
48.296,30.76
48.312,31.73
48.328,31.45
48.343,30.13
48.359,28.08
48.375,25.64
48.390,23.18
48.406,20.93
48.421,18.96
48.437,17.17
48.453,15.45
48.468,13.69
48.484,11.94
48.500,10.3
48.515,8.91
48.531,7.77
48.546,6.73
48.562,5.57
48.578,4.05
48.593,2.09
48.609,-0.26
48.625,-2.82
48.640,-5.34
48.656,-7.69
48.671,-9.81
48.687,-11.79
48.703,-13.77
48.718,-15.93
48.734,-18.37
48.750,-21.13
48.765,-24.15
48.781,-27.3
48.796,-30.31
48.812,-32.74
48.828,-34.06
48.843,-33.67
48.859,-31.11
48.875,-26.24
48.890,-19.31
48.906,-10.98
48.921,-2.09
48.937,6.56
48.953,14.34
48.968,20.92
48.984,26.12
49.000,29.85
49.015,32.06
49.031,32.75
49.046,32.09
49.062,30.38
49.078,28.1
49.093,25.72
49.109,23.59
49.125,21.88
49.140,20.54
49.156,19.47
49.171,18.55
49.187,17.69
49.203,16.87
49.218,16.01
49.234,15.02
49.250,13.77
49.265,12.16
49.281,10.11
49.296,7.61
49.312,4.72
49.328,1.5
49.343,-1.92
49.359,-5.43
49.375,-8.88
49.390,-12.17
49.406,-15.16
49.421,-17.78
49.437,-20.03
49.453,-21.98
49.468,-23.78
49.484,-25.65
49.500,-27.8
49.515,-30.35
49.531,-33.2
49.546,-35.99
49.562,-38.11
49.578,-38.9
49.593,-37.79
49.609,-34.52
49.625,-29.23
49.640,-22.37
49.656,-14.62
49.671,-6.66
49.687,0.96
49.703,7.84
49.718,13.71
49.734,18.4
49.750,21.77
49.765,23.74
49.781,24.35
49.796,23.78
49.812,22.36
49.828,20.54
49.843,18.73
49.859,17.22
49.875,16.08
49.890,15.25
49.906,14.57
49.921,13.91
49.937,13.21
49.953,12.47
49.968,11.73
49.984,11.04
50.000,10.38
50.015,9.7
50.031,8.94
50.046,7.95
50.062,6.71
50.078,5.11
50.093,3.16
50.109,0.9
50.125,-1.57
50.140,-4.11
50.156,-6.66
50.171,-9.15
50.187,-11.56
50.203,-13.89
50.218,-16.16
50.234,-18.45
50.250,-20.85
50.265,-23.45
50.281,-26.21
50.296,-28.88
50.312,-30.97
50.328,-31.87
50.343,-31.01
50.359,-28.09
50.375,-23.19
50.390,-16.7
50.406,-9.28
50.421,-1.58
50.437,5.84
50.453,12.62
50.468,18.5
50.484,23.32
50.500,26.94
50.515,29.22
50.531,30.15
50.546,29.79
50.562,28.39
50.578,26.35
50.593,24.14
50.609,22.17
50.625,20.63
50.640,19.54
50.656,18.71
50.671,17.84
50.687,16.71
50.703,15.21
50.718,13.41
50.734,11.48
50.750,9.6
50.765,7.85
50.781,6.22
50.796,4.61
50.812,2.87
50.828,0.88
50.843,-1.35
50.859,-3.72
50.875,-6.09
50.890,-8.32
50.906,-10.34
50.921,-12.18
50.937,-13.97
50.953,-15.86
50.968,-17.96
50.984,-20.37
51.000,-23.12
51.015,-26.15
51.031,-29.29
51.046,-32.1
51.062,-34.02
51.078,-34.41
51.093,-32.8
51.109,-29.07
51.125,-23.51
51.140,-16.74
51.156,-9.49
51.171,-2.43
51.187,4.03
51.203,9.67
51.218,14.41
51.234,18.22
51.250,21.02
51.265,22.76
51.281,23.41
51.296,23.05
51.312,21.87
51.328,20.14
51.343,18.15
51.359,16.2
51.375,14.44
51.390,12.91
51.406,11.56
51.421,10.31
51.437,9.08
51.453,7.89
51.468,6.81
51.484,5.84
51.500,4.96
51.515,4.0
51.531,2.77
51.546,1.1
51.562,-1.05
51.578,-3.59
51.593,-6.29
51.609,-8.89
51.625,-11.24
51.640,-13.29
51.656,-15.17
51.671,-17.04
51.687,-19.1
51.703,-21.47
51.718,-24.18
51.734,-27.08
51.750,-29.79
51.765,-31.8
51.781,-32.49
51.796,-31.35
51.812,-28.12
51.828,-22.94
51.843,-16.34
51.859,-9.07
51.875,-1.88
51.890,4.71
51.906,10.44
51.921,15.23
51.937,19.11
51.953,22.07
51.968,23.99
51.984,24.77
52.000,24.39
52.015,23.01
52.031,20.97
52.046,18.7
52.062,16.56
52.078,14.75
52.093,13.31
52.109,12.15
52.125,11.17
52.140,10.33
52.156,9.67
52.171,9.22
52.187,8.9
52.203,8.47
52.218,7.62
52.234,6.05
52.250,3.65
52.265,0.5
52.281,-3.11
52.296,-6.81
52.312,-10.25
52.328,-13.17
52.343,-15.47
52.359,-17.2
52.375,-18.51
52.390,-19.68
52.406,-21.02
52.421,-22.81
52.437,-25.14
52.453,-27.86
52.468,-30.52
52.484,-32.42
52.500,-32.83
52.515,-31.25
52.531,-27.48
52.546,-21.8
52.562,-14.81
52.578,-7.29
52.593,0.11
52.609,6.87
52.625,12.76
52.640,17.67
52.656,21.48
52.671,24.13
52.687,25.55
52.703,25.82
52.718,25.16
52.734,23.95
52.750,22.54
52.765,21.19
52.781,19.96
52.796,18.76
52.812,17.47
52.828,15.99
52.843,14.33
52.859,12.56
52.875,10.79
52.890,9.11
52.906,7.6
52.921,6.25
52.937,4.99
52.953,3.74
52.968,2.39
52.984,0.84
53.000,-0.91
53.015,-2.85
53.031,-4.89
53.046,-6.96
53.062,-9.1
53.078,-11.38
53.093,-13.95
53.109,-16.89
53.125,-20.24
53.140,-23.89
53.156,-27.76
53.171,-31.65
53.187,-35.2
53.203,-37.91
53.218,-39.15
53.234,-38.31
53.250,-35.06
53.265,-29.47
53.281,-22.04
53.296,-13.59
53.312,-4.98
53.328,3.2
53.343,10.62
53.359,17.13
53.375,22.62
53.390,26.88
53.406,29.67
53.421,30.86
53.437,30.63
53.453,29.36
53.468,27.61
53.484,25.8
53.500,24.13
53.515,22.54
53.531,20.88
53.546,19.11
53.562,17.3
53.578,15.63
53.593,14.25
53.609,13.15
53.625,12.2
53.640,11.21
53.656,10.02
53.671,8.55
53.687,6.82
53.703,4.79
53.718,2.5
53.734,-0.02
53.750,-2.69
53.765,-5.39
53.781,-7.95
53.796,-10.31
53.812,-12.46
53.828,-14.43
53.843,-16.36
53.859,-18.37
53.875,-20.62
53.890,-23.27
53.906,-26.42
53.921,-30.03
53.937,-33.77
53.953,-36.98
53.968,-38.79
53.984,-38.41
54.000,-35.34
54.015,-29.67
54.031,-22.0
54.046,-13.22
54.062,-4.24
54.078,4.23
54.093,11.79
54.109,18.24
54.125,23.49
54.140,27.47
54.156,30.08
54.171,31.36
54.187,31.48
54.203,30.71
54.218,29.34
54.234,27.65
54.250,25.83
54.265,24.0
54.281,22.26
54.296,20.63
54.312,19.11
54.328,17.64
54.343,16.15
54.359,14.63
54.375,13.1
54.390,11.61
54.406,10.19
54.421,8.85
54.437,7.5
54.453,6.03
54.468,4.36
54.484,2.43
54.500,0.27
54.515,-2.04
54.531,-4.42
54.546,-6.83
54.562,-9.28
54.578,-11.84
54.593,-14.55
54.609,-17.37
54.625,-20.27
54.640,-23.14
54.656,-25.95
54.671,-28.71
54.687,-31.36
54.703,-33.71
54.718,-35.38
54.734,-35.82
54.750,-34.49
54.765,-31.08
54.781,-25.59
54.796,-18.46
54.812,-10.3
54.828,-1.81
54.843,6.45
54.859,14.04
54.875,20.65
54.890,26.02
54.906,29.89
54.921,32.14
54.937,32.82
54.953,32.14
54.968,30.54
54.984,28.53
55.000,26.49
55.015,24.73
55.031,23.34
55.046,22.25
55.062,21.34
55.078,20.43
55.093,19.35
55.109,17.97
55.125,16.27
55.140,14.3
55.156,12.28
55.171,10.48
55.187,9.06
55.203,8.07
55.218,7.35
55.234,6.59
55.250,5.48
55.265,3.89
55.281,1.89
55.296,-0.31
55.312,-2.49
55.328,-4.6
55.343,-6.73
55.359,-9.11
55.375,-11.93
55.390,-15.25
55.406,-18.98
55.421,-22.92
55.437,-26.76
55.453,-30.12
55.468,-32.59
55.484,-33.66
55.500,-32.93
55.515,-30.17
55.531,-25.49
55.546,-19.27
55.562,-12.16
55.578,-4.83
55.593,2.16
55.609,8.35
55.625,13.49
55.640,17.44
55.656,20.18
55.671,21.75
55.687,22.3
55.703,22.01
55.718,21.13
55.734,19.9
55.750,18.49
55.765,17.02
55.781,15.55
55.796,14.08
55.812,12.59
55.828,11.09
55.843,9.63
55.859,8.25
55.875,7.03
55.890,5.97
55.906,5.02
55.921,4.06
55.937,2.94
55.953,1.51
55.968,-0.3
55.984,-2.49
56.000,-4.91
56.015,-7.39
56.031,-9.71
56.046,-11.72
56.062,-13.42
56.078,-14.96
56.093,-16.58
56.109,-18.54
56.125,-21.02
56.140,-24.04
56.156,-27.33
56.171,-30.42
56.187,-32.65
56.203,-33.38
56.218,-32.13
56.234,-28.76
56.250,-23.47
56.265,-16.85
56.281,-9.62
56.296,-2.49
56.312,4.03
56.328,9.65
56.343,14.26
56.359,17.88
56.375,20.5
56.390,22.15
56.406,22.84
56.421,22.63
56.437,21.66
56.453,20.11
56.468,18.16
56.484,16.0
56.500,13.78
56.515,11.66
56.531,9.8
56.546,8.3
56.562,7.21
56.578,6.47
56.593,5.91
56.609,5.35
56.625,4.55
56.640,3.33
56.656,1.6
56.671,-0.63
56.687,-3.25
56.703,-6.08
56.718,-8.89
56.734,-11.53
56.750,-13.87
56.765,-15.91
56.781,-17.71
56.796,-19.44
56.812,-21.3
56.828,-23.43
56.843,-25.87
56.859,-28.37
56.875,-30.49
56.890,-31.59
56.906,-31.08
56.921,-28.64
56.937,-24.29
56.953,-18.46
56.968,-11.75
56.984,-4.77
57.000,2.04
57.015,8.4
57.031,14.12
57.046,19.03
57.062,22.96
57.078,25.69
57.093,27.11
57.109,27.22
57.125,26.17
57.140,24.28
57.156,21.98
57.171,19.6
57.187,17.4
57.203,15.5
57.218,13.85
57.234,12.32
57.250,10.79
57.265,9.24
57.281,7.69
57.296,6.23
57.312,4.8
57.328,3.26
57.343,1.48
57.359,-0.62
57.375,-2.96
57.390,-5.36
57.406,-7.64
57.421,-9.72
57.437,-11.63
57.453,-13.5
57.468,-15.42
57.484,-17.5
57.500,-19.78
57.515,-22.3
57.531,-25.09
57.546,-28.04
57.562,-30.79
57.578,-32.73
57.593,-33.14
57.609,-31.48
57.625,-27.59
57.640,-21.8
57.656,-14.72
57.671,-7.11
57.687,0.43
57.703,7.56
57.718,14.11
57.734,19.97
57.750,24.97
57.765,28.85
57.781,31.38
57.796,32.46
57.812,32.21
57.828,30.96
57.843,29.21
57.859,27.41
57.875,25.92
57.890,24.88
57.906,24.23
57.921,23.79
57.937,23.36
57.953,22.81
57.968,22.16
57.984,21.45
58.000,20.73
58.015,20.03
58.031,19.3
58.046,18.45
58.062,17.44
58.078,16.26
58.093,14.95
58.109,13.6
58.125,12.31
58.140,11.08
58.156,9.97
58.171,9.0
58.187,8.2
58.203,7.64
58.218,7.32
58.234,7.17
58.250,7.08
58.265,6.86
58.281,6.34
58.296,5.48
58.312,4.3
58.328,2.93
58.343,1.55
58.359,0.34
58.375,-0.59
58.390,-1.19
58.406,-1.55
58.421,-1.77
58.437,-1.98
58.453,-2.29
58.468,-2.73
58.484,-3.25
58.500,-3.78
58.515,-4.25
58.531,-4.66
58.546,-5.03
58.562,-5.45
58.578,-5.99
58.593,-6.67
58.609,-7.51
58.625,-8.47
58.640,-9.48
58.656,-10.47
58.671,-11.35
58.687,-12.13
58.703,-12.9
58.718,-13.82
58.734,-15.1
58.750,-16.9
58.765,-19.28
58.781,-22.14
58.796,-25.25
58.812,-28.33
58.828,-31.15
58.843,-33.56
58.859,-35.53
58.875,-37.18
58.890,-38.71
58.906,-40.4
58.921,-42.51
58.937,-45.18
58.953,-48.28
58.968,-51.34
58.984,-53.64
59.000,-54.32
59.015,-52.69
59.031,-48.41
59.046,-41.68
59.062,-33.13
59.078,-23.66
59.093,-14.18
59.109,-5.34
59.125,2.47
59.140,9.08
59.156,14.44
59.171,18.48
59.187,21.2
59.203,22.68
59.218,23.12
59.234,22.91
59.250,22.42
59.265,21.99
59.281,21.73
59.296,21.65
59.312,21.65
59.328,21.64
59.343,21.57
59.359,21.42
59.375,21.2
59.390,20.89
59.406,20.42
59.421,19.65
59.437,18.38
59.453,16.46
59.468,13.81
59.484,10.54
59.500,6.97
59.515,3.51
59.531,0.51
59.546,-1.85
59.562,-3.65
59.578,-5.21
59.593,-6.87
59.609,-8.96
59.625,-11.64
59.640,-14.89
59.656,-18.47
59.671,-21.94
59.687,-24.69
59.703,-26.03
59.718,-25.42
59.734,-22.57
59.750,-17.63
59.765,-11.11
59.781,-3.75
59.796,3.69
59.812,10.59
59.828,16.56
59.843,21.42
59.859,25.09
59.875,27.57
59.890,28.81
59.906,28.86
59.921,27.82
59.937,25.92
59.953,23.46
59.968,20.82
59.984,18.27
