timestamp,value
00.000,113.2
00.015,110.64
00.031,107.75
00.046,104.3
00.062,100.07
00.078,94.93
00.093,88.91
00.109,82.21
00.125,75.07
00.140,67.72
00.156,60.38
00.171,53.18
00.187,46.23
00.203,39.55
00.218,33.07
00.234,26.55
00.250,19.71
00.265,12.32
00.281,4.33
00.296,-4.01
00.312,-12.36
00.328,-20.31
00.343,-27.69
00.359,-34.61
00.375,-41.44
00.390,-48.72
00.406,-57.02
00.421,-66.76
00.437,-78.05
00.453,-90.52
00.468,-103.17
00.484,-114.37
00.500,-122.12
00.515,-124.54
00.531,-120.47
00.546,-109.9
00.562,-94.01
00.578,-74.67
00.593,-53.94
00.609,-33.41
00.625,-13.96
00.640,4.13
00.656,20.96
00.671,36.62
00.687,51.07
00.703,64.05
00.718,75.18
00.734,84.11
00.750,90.67
00.765,94.87
00.781,96.97
00.796,97.41
00.812,96.7
00.828,95.29
00.843,93.57
00.859,91.85
00.875,90.4
00.890,89.45
00.906,89.16
00.921,89.47
00.937,90.04
00.953,90.39
00.968,90.02
00.984,88.7
01.000,86.5
01.015,83.81
01.031,81.17
01.046,79.07
01.062,77.77
01.078,77.28
01.093,77.43
01.109,77.94
01.125,78.57
01.140,79.11
01.156,79.41
01.171,79.31
01.187,78.64
01.203,77.14
01.218,74.59
01.234,70.8
01.250,65.63
01.265,59.06
01.281,51.06
01.296,41.6
01.312,30.59
01.328,17.94
01.343,3.58
01.359,-12.44
01.375,-29.91
01.390,-48.33
01.406,-66.88
01.421,-84.42
01.437,-99.63
01.453,-111.32
01.468,-118.67
01.484,-121.44
01.500,-120.06
01.515,-115.33
01.531,-108.22
01.546,-99.48
01.562,-89.58
01.578,-78.73
01.593,-67.07
01.609,-54.91
01.625,-42.82
01.640,-31.6
01.656,-22.15
01.671,-15.17
01.687,-10.91
01.703,-9.09
01.718,-8.98
01.734,-9.57
01.750,-9.98
01.765,-9.64
01.781,-8.39
01.796,-6.38
01.812,-3.97
01.828,-1.49
01.843,0.75
01.859,2.46
01.875,3.36
01.890,3.14
01.906,1.56
01.921,-1.34
01.937,-5.28
01.953,-9.71
01.968,-14.07
01.984,-17.91
02.000,-21.15
02.015,-24.04
02.031,-27.06
02.046,-30.65
02.062,-34.98
02.078,-39.9
02.093,-44.96
02.109,-49.67
02.125,-53.66
02.140,-56.82
02.156,-59.2
02.171,-60.92
02.187,-62.06
02.203,-62.63
02.218,-62.66
02.234,-62.26
02.250,-61.63
02.265,-60.99
02.281,-60.35
02.296,-59.46
02.312,-57.8
02.328,-54.73
02.343,-49.69
02.359,-42.39
02.375,-32.8
02.390,-21.17
02.406,-7.83
02.421,6.74
02.437,22.04
02.453,37.43
02.468,52.13
02.484,65.24
02.500,75.85
02.515,83.21
02.531,87.02
02.546,87.47
02.562,85.34
02.578,81.72
02.593,77.82
02.609,74.62
02.625,72.69
02.640,72.21
02.656,72.98
02.671,74.67
02.687,76.8
02.703,78.9
02.718,80.42
02.734,80.8
02.750,79.53
02.765,76.32
02.781,71.17
02.796,64.37
02.812,56.47
02.828,48.1
02.843,39.8
02.859,31.99
02.875,24.87
02.890,18.47
02.906,12.61
02.921,6.99
02.937,1.15
02.953,-5.36
02.968,-12.82
02.984,-21.18
03.000,-30.03
03.015,-38.67
03.031,-46.38
03.046,-52.7
03.062,-57.59
03.078,-61.44
03.093,-64.9
03.109,-68.69
03.125,-73.31
03.140,-78.97
03.156,-85.38
03.171,-91.83
03.187,-97.26
03.203,-100.52
03.218,-100.62
03.234,-97.04
03.250,-89.86
03.265,-79.66
03.281,-67.34
03.296,-53.78
03.312,-39.76
03.328,-25.87
03.343,-12.52
03.359,-0.05
03.375,11.32
03.390,21.41
03.406,30.09
03.421,37.28
03.437,42.87
03.453,46.83
03.468,49.21
03.484,50.24
03.500,50.28
03.515,49.77
03.531,49.14
03.546,48.63
03.562,48.29
03.578,48.0
03.593,47.57
03.609,46.8
03.625,45.58
03.640,43.83
03.656,41.55
03.671,38.68
03.687,35.23
03.703,31.18
03.718,26.6
03.734,21.68
03.750,16.65
03.765,11.7
03.781,6.89
03.796,2.09
03.812,-2.88
03.828,-8.22
03.843,-13.96
03.859,-19.98
03.875,-26.03
03.890,-31.87
03.906,-37.38
03.921,-42.62
03.937,-47.75
03.953,-53.04
03.968,-58.72
03.984,-64.96
04.000,-71.83
04.015,-79.22
04.031,-86.85
04.046,-94.18
04.062,-100.46
04.078,-104.73
04.093,-106.07
04.109,-103.8
04.125,-97.63
04.140,-87.79
04.156,-74.94
04.171,-59.97
04.187,-43.8
04.203,-27.24
04.218,-10.92
04.234,4.62
04.250,18.94
04.265,31.7
04.281,42.78
04.296,52.29
04.312,60.64
04.328,68.35
04.343,75.88
04.359,83.46
04.375,90.97
04.390,98.03
04.406,104.3
04.421,109.67
04.437,114.41
04.453,119.18
04.468,124.71
04.484,131.59
04.500,139.94
04.515,149.36
04.531,158.94
04.546,167.58
04.562,174.27
04.578,178.46
04.593,180.34
04.609,180.85
04.625,181.55
04.640,184.08
04.656,189.59
04.671,197.9
04.687,207.27
04.703,214.59
04.718,216.17
04.734,209.1
04.750,192.2
04.765,166.61
04.781,135.32
04.796,102.04
04.812,70.03
04.828,41.11
04.843,15.53
04.859,-7.62
04.875,-29.75
04.890,-52.36
04.906,-76.87
04.921,-104.36
04.937,-135.07
04.953,-167.7
04.968,-199.16
04.984,-225.08
05.000,-241.27
05.015,-245.48
05.031,-238.49
05.046,-223.8
05.062,-206.21
05.078,-189.72
05.093,-176.23
05.109,-165.35
05.125,-155.35
05.140,-144.55
05.156,-132.17
05.171,-118.45
05.187,-104.07
05.203,-89.61
05.218,-75.32
05.234,-61.4
05.250,-48.39
05.265,-37.27
05.281,-29.25
05.296,-25.31
05.312,-25.69
05.328,-29.69
05.343,-35.92
05.359,-42.78
05.375,-49.04
05.390,-54.13
05.406,-58.14
05.421,-61.5
05.437,-64.54
05.453,-67.25
05.468,-69.16
05.484,-69.62
05.500,-68.07
05.515,-64.39
05.531,-59.02
05.546,-52.96
05.562,-47.47
05.578,-43.73
05.593,-42.44
05.609,-43.72
05.625,-47.07
05.640,-51.69
05.656,-56.77
05.671,-61.75
05.687,-66.46
05.703,-71.02
05.718,-75.7
05.734,-80.75
05.750,-86.37
05.765,-92.6
05.781,-99.26
05.796,-105.68
05.812,-110.67
05.828,-112.57
05.843,-109.82
05.859,-101.54
05.875,-88.01
05.890,-70.69
05.906,-51.64
05.921,-32.82
05.937,-15.41
05.953,0.29
05.968,14.45
05.984,27.17
06.000,38.15
06.015,46.73
06.031,52.31
06.046,54.77
06.062,54.58
06.078,52.62
06.093,49.79
06.109,46.69
06.125,43.53
06.140,40.28
06.156,36.95
06.171,33.7
06.187,30.95
06.203,29.16
06.218,28.58
06.234,29.14
06.250,30.36
06.265,31.49
06.281,31.78
06.296,30.73
06.312,28.23
06.328,24.57
06.343,20.23
06.359,15.71
06.375,11.26
06.390,6.91
06.406,2.5
06.421,-2.26
06.437,-7.56
06.453,-13.51
06.468,-20.07
06.484,-27.07
06.500,-34.33
06.515,-41.68
06.531,-49.07
06.546,-56.54
06.562,-64.31
06.578,-72.62
06.593,-81.71
06.609,-91.64
06.625,-102.19
06.640,-112.73
06.656,-122.26
06.671,-129.53
06.687,-133.31
06.703,-132.66
06.718,-127.22
06.734,-117.26
06.750,-103.69
06.765,-87.79
06.781,-70.96
06.796,-54.42
06.812,-39.13
06.828,-25.64
06.843,-14.18
06.859,-4.7
06.875,3.0
06.890,9.12
06.906,13.93
06.921,17.62
06.937,20.49
06.953,22.88
06.968,25.22
06.984,27.87
07.000,31.07
07.015,34.75
07.031,38.67
07.046,42.43
07.062,45.71
07.078,48.3
07.093,50.13
07.109,51.15
07.125,51.31
07.140,50.45
07.156,48.43
07.171,45.19
07.187,40.77
07.203,35.36
07.218,29.21
07.234,22.59
07.250,15.74
07.265,8.88
07.281,2.15
07.296,-4.36
07.312,-10.73
07.328,-17.18
07.343,-24.06
07.359,-31.75
07.375,-40.5
07.390,-50.29
07.406,-60.67
07.421,-70.72
07.437,-79.05
07.453,-84.13
07.468,-84.55
07.484,-79.45
07.500,-68.85
07.515,-53.65
07.531,-35.37
07.546,-15.77
07.562,3.53
07.578,21.42
07.593,37.25
07.609,50.76
07.625,61.91
07.640,70.7
07.656,77.19
07.671,81.46
07.687,83.74
07.703,84.37
07.718,83.79
07.734,82.5
07.750,80.97
07.765,79.58
07.781,78.54
07.796,77.94
07.812,77.66
07.828,77.5
07.843,77.18
07.859,76.41
07.875,74.89
07.890,72.41
07.906,68.84
07.921,64.18
07.937,58.56
07.953,52.12
07.968,45.02
07.984,37.41
08.000,29.35
08.015,20.94
08.031,12.27
08.046,3.58
08.062,-4.88
08.078,-12.87
08.093,-20.27
08.109,-27.2
08.125,-34.05
08.140,-41.35
08.156,-49.62
08.171,-59.12
08.187,-69.61
08.203,-80.22
08.218,-89.58
08.234,-95.95
08.250,-97.69
08.265,-93.66
08.281,-83.55
08.296,-67.98
08.312,-48.51
08.328,-27.1
08.343,-5.8
08.359,13.83
08.375,30.86
08.390,45.1
08.406,56.82
08.421,66.4
08.437,74.14
08.453,80.12
08.468,84.33
08.484,86.9
08.500,88.09
08.515,88.43
08.531,88.44
08.546,88.49
08.562,88.73
08.578,89.08
08.593,89.34
08.609,89.37
08.625,89.07
08.640,88.43
08.656,87.37
08.671,85.72
08.687,83.19
08.703,79.46
08.718,74.36
08.734,67.97
08.750,60.66
08.765,53.02
08.781,45.58
08.796,38.69
08.812,32.31
08.828,26.17
08.843,19.86
08.859,13.1
08.875,5.87
08.890,-1.63
08.906,-9.05
08.921,-16.08
08.937,-22.64
08.953,-28.92
08.968,-35.35
08.984,-42.51
09.000,-50.96
09.015,-61.02
09.031,-72.46
09.046,-84.32
09.062,-94.95
09.078,-102.22
09.093,-104.17
09.109,-99.59
09.125,-88.49
09.140,-72.11
09.156,-52.47
09.171,-31.81
09.187,-11.91
09.203,6.15
09.218,21.96
09.234,35.56
09.250,47.11
09.265,56.7
09.281,64.36
09.296,70.16
09.312,74.24
09.328,76.88
09.343,78.45
09.359,79.34
09.375,79.86
09.390,80.21
09.406,80.48
09.421,80.67
09.437,80.78
09.453,80.84
09.468,80.88
09.484,80.9
09.500,80.78
09.515,80.26
09.531,78.95
09.546,76.51
09.562,72.72
09.578,67.63
09.593,61.5
09.609,54.77
09.625,47.91
09.640,41.26
09.656,34.96
09.671,28.98
09.687,23.14
09.703,17.21
09.718,11.03
09.734,4.57
09.750,-2.07
09.765,-8.7
09.781,-15.1
09.796,-21.15
09.812,-26.89
09.828,-32.49
09.843,-38.3
09.859,-44.71
09.875,-52.09
09.890,-60.61
09.906,-70.11
09.921,-79.89
09.937,-88.75
09.953,-95.12
09.968,-97.41
09.984,-94.38
10.000,-85.58
10.015,-71.48
10.031,-53.42
10.046,-33.2
10.062,-12.69
10.078,6.59
10.093,23.71
10.109,38.33
10.125,50.53
10.140,60.64
10.156,69.02
10.171,75.95
10.187,81.63
10.203,86.19
10.218,89.73
10.234,92.39
10.250,94.39
10.265,96.05
10.281,97.72
10.296,99.71
10.312,102.17
10.328,105.06
10.343,108.18
10.359,111.18
10.375,113.74
10.390,115.65
10.406,116.8
10.421,117.25
10.437,117.14
10.453,116.63
10.468,115.79
10.484,114.53
10.500,112.46
10.515,108.91
10.531,102.98
10.546,93.68
10.562,80.24
10.578,62.26
10.593,39.88
10.609,13.75
10.625,-15.14
10.640,-45.69
10.656,-76.84
10.671,-107.61
10.687,-137.21
10.703,-164.86
10.718,-189.89
10.734,-211.77
10.750,-230.3
10.765,-245.62
10.781,-258.24
10.796,-268.68
10.812,-277.15
10.828,-283.24
10.843,-285.81
10.859,-283.29
10.875,-274.21
10.890,-257.75
10.906,-234.11
10.921,-204.58
10.937,-171.25
10.953,-136.51
10.968,-102.52
10.984,-70.85
11.000,-42.45
11.015,-17.68
11.031,3.46
11.046,21.12
11.062,35.59
11.078,47.28
11.093,56.77
11.109,64.72
11.125,71.74
11.140,78.24
11.156,84.38
11.171,90.11
11.187,95.24
11.203,99.56
11.218,102.87
11.234,105.01
11.250,105.88
11.265,105.51
11.281,104.25
11.296,102.63
11.312,101.16
11.328,99.97
11.343,98.68
11.359,96.61
11.375,93.24
11.390,88.52
11.406,82.96
11.421,77.44
11.437,72.6
11.453,68.56
11.468,64.83
11.484,60.68
11.500,55.59
11.515,49.52
11.531,42.91
11.546,36.32
11.562,30.13
11.578,24.36
11.593,18.79
11.609,13.18
11.625,7.4
11.640,1.45
11.656,-4.56
11.671,-10.63
11.687,-16.99
11.703,-23.99
11.718,-32.01
11.734,-41.03
11.750,-50.44
11.765,-59.02
11.781,-65.29
11.796,-67.97
11.812,-66.48
11.828,-61.08
11.843,-52.69
11.859,-42.57
11.875,-31.83
11.890,-21.25
11.906,-11.31
11.921,-2.27
11.937,5.58
11.953,11.89
11.968,16.22
11.984,18.3
12.000,18.06
12.015,15.8
12.031,12.12
12.046,7.8
12.062,3.63
12.078,0.2
12.093,-2.13
12.109,-3.27
12.125,-3.27
12.140,-2.29
12.156,-0.5
12.171,1.91
12.187,4.65
12.203,7.42
12.218,9.87
12.234,11.77
12.250,13.04
12.265,13.71
12.281,13.91
12.296,13.79
12.312,13.52
12.328,13.24
12.343,13.11
12.359,13.22
12.375,13.58
12.390,14.21
12.406,15.11
12.421,16.38
12.437,18.17
12.453,20.59
12.468,23.61
12.484,26.97
12.500,30.28
12.515,33.1
12.531,35.19
12.546,36.57
12.562,37.62
12.578,39.0
12.593,41.46
12.609,45.65
12.625,51.97
12.640,60.35
12.656,70.26
12.671,80.76
12.687,90.72
12.703,99.03
12.718,104.81
12.734,107.56
12.750,107.16
12.765,103.83
12.781,97.97
12.796,90.08
12.812,80.69
12.828,70.27
12.843,59.17
12.859,47.6
12.875,35.73
12.890,23.67
12.906,11.56
12.921,-0.44
12.937,-12.15
12.953,-23.41
12.968,-34.13
12.984,-44.25
13.000,-53.62
13.015,-61.99
13.031,-69.0
13.046,-74.34
13.062,-77.88
13.078,-79.78
13.093,-80.53
13.109,-80.78
13.125,-81.13
13.140,-81.93
13.156,-83.2
13.171,-84.78
13.187,-86.42
13.203,-88.0
13.218,-89.57
13.234,-91.34
13.250,-93.55
13.265,-96.41
13.281,-100.04
13.296,-104.39
13.312,-109.24
13.328,-114.01
13.343,-117.75
13.359,-119.3
13.375,-117.54
13.390,-111.81
13.406,-102.15
13.421,-89.45
13.437,-75.04
13.453,-60.43
13.468,-46.75
13.484,-34.64
13.500,-24.3
13.515,-15.65
13.531,-8.61
13.546,-3.11
13.562,0.89
13.578,3.55
13.593,5.11
13.609,5.96
13.625,6.49
13.640,7.01
13.656,7.75
13.671,8.81
13.687,10.19
13.703,11.82
13.718,13.58
13.734,15.31
13.750,16.84
13.765,17.99
13.781,18.62
13.796,18.59
13.812,17.81
13.828,16.15
13.843,13.62
13.859,10.24
13.875,6.17
13.890,1.65
13.906,-3.09
13.921,-7.88
13.937,-12.67
13.953,-17.53
13.968,-22.57
13.984,-27.87
14.000,-33.51
14.015,-39.52
14.031,-45.97
14.046,-52.91
14.062,-60.37
14.078,-68.19
14.093,-75.92
14.109,-82.79
14.125,-87.72
14.140,-89.64
14.156,-87.73
14.171,-81.73
14.187,-72.09
14.203,-59.86
14.218,-46.35
14.234,-32.75
14.250,-19.92
14.265,-8.25
14.281,2.14
14.296,11.26
14.312,19.12
14.328,25.62
14.343,30.7
14.359,34.34
14.375,36.64
14.390,37.8
14.406,38.06
14.421,37.73
14.437,37.13
14.453,36.57
14.468,36.27
14.484,36.29
14.500,36.5
14.515,36.68
14.531,36.57
14.546,36.02
14.562,34.94
14.578,33.35
14.593,31.21
14.609,28.43
14.625,24.9
14.640,20.53
14.656,15.35
14.671,9.55
14.687,3.41
14.703,-2.8
14.718,-8.89
14.734,-14.81
14.750,-20.67
14.765,-26.69
14.781,-33.13
14.796,-40.28
14.812,-48.32
14.828,-57.26
14.843,-66.81
14.859,-76.19
14.875,-84.2
14.890,-89.37
14.906,-90.36
14.921,-86.41
14.937,-77.57
14.953,-64.78
14.968,-49.54
14.984,-33.44
15.000,-17.77
15.015,-3.28
15.031,9.72
15.046,21.15
15.062,31.01
15.078,39.23
15.093,45.76
15.109,50.63
15.125,54.08
15.140,56.45
15.156,58.11
15.171,59.36
15.187,60.35
15.203,61.12
15.218,61.7
15.234,62.11
15.250,62.38
15.265,62.57
15.281,62.61
15.296,62.36
15.312,61.61
15.328,60.07
15.343,57.63
15.359,54.28
15.375,50.25
15.390,45.79
15.406,41.22
15.421,36.77
15.437,32.65
15.453,29.17
15.468,26.75
15.484,25.98
15.500,27.46
15.515,31.58
15.531,38.31
15.546,47.15
15.562,57.25
15.578,67.73
15.593,78.02
15.609,87.94
15.625,97.7
15.640,107.65
15.656,118.05
15.671,129.0
15.687,140.4
15.703,152.06
15.718,163.73
15.734,175.22
15.750,186.41
15.765,197.34
15.781,208.33
15.796,219.86
15.812,232.38
15.828,245.93
15.843,259.8
15.859,272.47
15.875,281.79
15.890,285.46
15.906,281.6
15.921,269.13
15.937,248.08
15.953,219.5
15.968,185.27
15.984,147.74
16.000,109.3
16.015,72.03
16.031,37.38
16.046,6.06
16.062,-21.94
16.078,-47.05
16.093,-69.97
16.109,-91.62
16.125,-113.07
16.140,-135.27
16.156,-158.6
16.171,-182.38
16.187,-204.93
16.203,-224.06
16.218,-238.23
16.234,-247.43
16.250,-253.49
16.265,-259.49
16.281,-268.53
16.296,-282.56
16.312,-301.62
16.328,-323.9
16.343,-346.13
16.359,-364.23
16.375,-374.08
16.390,-372.39
16.406,-357.69
16.421,-330.98
16.437,-295.84
16.453,-257.38
16.468,-220.52
16.484,-188.46
16.500,-162.09
16.515,-140.41
16.531,-121.8
16.546,-105.06
16.562,-89.77
16.578,-75.94
16.593,-63.25
16.609,-50.88
16.625,-37.78
16.640,-23.33
16.656,-7.78
16.671,7.81
16.687,22.01
16.703,33.56
16.718,41.75
16.734,46.61
16.750,48.76
16.765,49.23
16.781,49.14
16.796,49.44
16.812,50.45
16.828,51.77
16.843,52.33
16.859,50.94
16.875,46.84
16.890,40.09
16.906,31.6
16.921,22.67
16.937,14.38
16.953,7.12
16.968,0.57
16.984,-6.06
17.000,-13.51
17.015,-22.09
17.031,-31.47
17.046,-40.57
17.062,-47.86
17.078,-51.75
17.093,-51.01
17.109,-45.27
17.125,-35.16
17.140,-22.1
17.156,-7.89
17.171,5.91
17.187,18.36
17.203,29.18
17.218,38.52
17.234,46.57
17.250,53.33
17.265,58.55
17.281,61.86
17.296,63.14
17.312,62.57
17.328,60.67
17.343,58.11
17.359,55.47
17.375,53.01
17.390,50.64
17.406,48.08
17.421,45.03
17.437,41.41
17.453,37.32
17.468,33.0
17.484,28.6
17.500,24.17
17.515,19.62
17.531,14.96
17.546,10.43
17.562,6.51
17.578,3.8
17.593,2.75
17.609,3.44
17.625,5.51
17.640,8.21
17.656,10.59
17.671,11.68
17.687,10.51
17.703,6.18
17.718,-1.89
17.734,-13.55
17.750,-27.58
17.765,-41.6
17.781,-52.58
17.796,-57.71
17.812,-55.5
17.828,-46.35
17.843,-32.41
17.859,-16.71
17.875,-2.09
17.890,9.62
17.906,17.79
17.921,22.5
17.937,24.11
17.953,22.91
17.968,19.16
17.984,13.4
18.000,6.57
18.015,-0.15
18.031,-5.74
18.046,-9.71
18.062,-12.19
18.078,-13.73
18.093,-14.94
18.109,-16.18
18.125,-17.46
18.140,-18.63
18.156,-19.64
18.171,-20.64
18.187,-22.0
18.203,-24.12
18.218,-27.18
18.234,-31.07
18.250,-35.43
18.265,-39.82
18.281,-43.94
18.296,-47.71
18.312,-51.32
18.328,-55.22
18.343,-59.94
18.359,-65.96
18.375,-73.45
18.390,-82.05
18.406,-90.73
18.421,-97.84
18.437,-101.47
18.453,-99.94
18.468,-92.34
18.484,-78.88
18.500,-60.88
18.515,-40.4
18.531,-19.73
18.546,-0.76
18.562,15.32
18.578,28.05
18.593,37.56
18.609,44.25
18.625,48.5
18.640,50.65
18.656,50.98
18.671,49.86
18.687,47.82
18.703,45.46
18.718,43.34
18.734,41.78
18.750,40.85
18.765,40.39
18.781,40.24
18.796,40.31
18.812,40.65
18.828,41.27
18.843,42.02
18.859,42.46
18.875,41.92
18.890,39.86
18.906,36.04
18.921,30.69
18.937,24.52
18.953,18.33
18.968,12.8
18.984,8.14
19.000,4.09
19.015,-0.09
19.031,-5.29
19.046,-12.28
19.062,-21.4
19.078,-32.3
19.093,-43.79
19.109,-53.94
19.125,-60.46
19.140,-61.24
19.156,-55.06
19.171,-41.99
19.187,-23.47
19.203,-1.84
19.218,20.35
19.234,41.01
19.250,58.91
19.265,73.67
19.281,85.54
19.296,95.11
19.312,102.99
19.328,109.61
19.343,115.02
19.359,118.77
19.375,119.85
19.390,117.02
19.406,109.17
19.421,95.86
19.437,77.63
19.453,55.96
19.468,32.93
19.484,10.64
19.500,-9.16
19.515,-25.35
19.531,-37.47
19.546,-45.66
19.562,-50.49
19.578,-52.86
19.593,-53.78
19.609,-54.22
19.625,-54.87
19.640,-56.09
19.656,-57.9
19.671,-60.1
19.687,-62.47
19.703,-64.89
19.718,-67.49
19.734,-70.7
19.750,-75.11
19.765,-81.37
19.781,-89.9
19.796,-100.58
19.812,-112.53
19.828,-124.05
19.843,-132.94
19.859,-136.99
19.875,-134.64
19.890,-125.48
19.906,-110.34
19.921,-91.04
19.937,-69.8
19.953,-48.62
19.968,-28.83
19.984,-11.02
20.000,4.74
20.015,18.67
20.031,30.92
20.046,41.47
20.062,50.2
20.078,56.92
20.093,61.61
20.109,64.5
20.125,66.12
20.140,67.18
20.156,68.43
20.171,70.47
20.187,73.59
20.203,77.72
20.218,82.48
20.234,87.29
20.250,91.46
20.265,94.33
20.281,95.37
20.296,94.28
20.312,91.05
20.328,85.92
20.343,79.34
20.359,71.75
20.375,63.58
20.390,55.1
20.406,46.6
20.421,38.36
20.437,30.69
20.453,23.84
20.468,17.87
20.484,12.53
20.500,7.29
20.515,1.39
20.531,-5.95
20.546,-15.26
20.562,-26.58
20.578,-39.28
20.593,-52.0
20.609,-62.88
20.625,-69.94
20.640,-71.62
20.656,-67.21
20.671,-57.12
20.687,-42.7
20.703,-25.89
20.718,-8.58
20.734,7.8
20.750,22.45
20.765,35.19
20.781,46.11
20.796,55.37
20.812,62.98
20.828,68.88
20.843,73.04
20.859,75.59
20.875,76.85
20.890,77.28
20.906,77.32
20.921,77.32
20.937,77.5
20.953,78.05
20.968,79.15
20.984,80.93
21.000,83.46
21.015,86.67
21.031,90.23
21.046,93.71
21.062,96.63
21.078,98.68
21.093,99.81
21.109,100.22
21.125,100.39
21.140,100.82
21.156,101.94
21.171,103.89
21.187,106.52
21.203,109.41
21.218,112.06
21.234,114.09
21.250,115.44
21.265,116.35
21.281,117.29
21.296,118.68
21.312,120.72
21.328,123.19
21.343,125.44
21.359,126.44
21.375,124.94
21.390,119.79
21.406,110.25
21.421,96.3
21.437,78.76
21.453,59.19
21.468,39.45
21.484,21.29
21.500,5.93
21.515,-6.06
21.531,-14.64
21.546,-20.01
21.562,-22.46
21.578,-22.27
21.593,-19.77
21.609,-15.51
21.625,-10.21
21.640,-4.64
21.656,0.63
21.671,5.44
21.687,10.12
21.703,15.25
21.718,21.34
21.734,28.5
21.750,36.25
21.765,43.79
21.781,50.39
21.796,55.83
21.812,60.56
21.828,65.47
21.843,71.34
21.859,78.12
21.875,84.63
21.890,88.68
21.906,87.71
21.921,79.76
21.937,64.28
21.953,42.32
21.968,16.08
21.984,-12.11
22.000,-40.78
22.015,-69.81
22.031,-100.15
22.046,-132.98
22.062,-168.87
22.078,-207.34
22.093,-246.65
22.109,-283.93
22.125,-315.2
22.140,-335.67
22.156,-340.56
22.171,-326.66
22.187,-293.91
22.203,-246.53
22.218,-192.47
22.234,-141.4
22.250,-101.79
22.265,-78.47
22.281,-71.7
22.296,-77.97
22.312,-91.97
22.328,-108.53
22.343,-123.76
22.359,-135.25
22.375,-141.59
22.390,-141.89
22.406,-135.77
22.421,-123.55
22.437,-106.48
22.453,-86.67
22.468,-66.64
22.484,-48.61
22.500,-33.78
22.515,-22.11
22.531,-12.58
22.546,-3.92
22.562,4.64
22.578,13.01
22.593,20.28
22.609,25.32
22.625,27.38
22.640,26.37
22.656,22.91
22.671,18.02
22.687,12.64
22.703,7.4
22.718,2.52
22.734,-2.13
22.750,-6.86
22.765,-11.96
22.781,-17.71
22.796,-24.27
22.812,-31.72
22.828,-40.04
22.843,-48.97
22.859,-57.98
22.875,-66.17
22.890,-72.4
22.906,-75.46
22.921,-74.48
22.937,-69.11
22.953,-59.67
22.968,-47.08
22.984,-32.57
23.000,-17.45
23.015,-2.82
23.031,10.6
23.046,22.46
23.062,32.63
23.078,41.13
23.093,47.98
23.109,53.17
23.125,56.74
23.140,58.8
23.156,59.58
23.171,59.42
23.187,58.72
23.203,57.75
23.218,56.67
23.234,55.48
23.250,54.05
23.265,52.22
23.281,49.92
23.296,47.11
23.312,43.9
23.328,40.41
23.343,36.81
23.359,33.18
23.375,29.53
23.390,25.73
23.406,21.57
23.421,16.85
23.437,11.45
23.453,5.39
23.468,-1.13
23.484,-7.84
23.500,-14.5
23.515,-21.0
23.531,-27.46
23.546,-34.14
23.562,-41.46
23.578,-49.74
23.593,-59.11
23.609,-69.27
23.625,-79.44
23.640,-88.28
23.656,-94.15
23.671,-95.49
23.687,-91.31
23.703,-81.61
23.718,-67.4
23.734,-50.48
23.750,-32.9
23.765,-16.37
23.781,-1.9
23.796,10.3
23.812,20.51
23.828,29.12
23.843,36.36
23.859,42.13
23.875,46.17
23.890,48.36
23.906,48.81
23.921,48.01
23.937,46.63
23.953,45.32
23.968,44.46
23.984,44.1
24.000,44.05
24.015,43.93
24.031,43.45
24.046,42.42
24.062,40.84
24.078,38.73
24.093,36.1
24.109,32.92
24.125,29.07
24.140,24.43
24.156,18.91
24.171,12.55
24.187,5.53
24.203,-1.93
24.218,-9.56
24.234,-17.13
24.250,-24.5
24.265,-31.61
24.281,-38.55
24.296,-45.47
24.312,-52.64
24.328,-60.36
24.343,-68.92
24.359,-78.42
24.375,-88.56
24.390,-98.45
24.406,-106.61
24.421,-111.23
24.437,-110.69
24.453,-104.08
24.468,-91.67
24.484,-74.82
24.500,-55.57
24.515,-36.02
24.531,-17.7
24.546,-1.41
24.562,12.71
24.578,24.83
24.593,35.1
24.609,43.49
24.625,49.86
24.640,54.13
24.656,56.43
24.671,57.15
24.687,56.85
24.703,56.14
24.718,55.53
24.734,55.32
24.750,55.62
24.765,56.42
24.781,57.58
24.796,58.88
24.812,60.08
24.828,60.84
24.843,60.79
24.859,59.59
24.875,57.02
24.890,53.14
24.906,48.27
24.921,42.81
24.937,37.1
24.953,31.24
24.968,25.14
24.984,18.58
25.000,11.42
25.015,3.7
25.031,-4.34
25.046,-12.38
25.062,-20.21
25.078,-27.72
25.093,-34.96
25.109,-42.15
25.125,-49.6
25.140,-57.7
25.156,-66.79
25.171,-76.98
25.187,-87.8
25.203,-98.11
25.218,-106.07
25.234,-109.65
25.250,-107.22
25.265,-98.15
25.281,-83.06
25.296,-63.71
25.312,-42.45
25.328,-21.57
25.343,-2.78
25.359,13.13
25.375,26.11
25.390,36.6
25.406,45.15
25.421,52.17
25.437,57.76
25.453,61.9
25.468,64.62
25.484,66.08
25.500,66.72
25.515,67.08
25.531,67.64
25.546,68.63
25.562,70.0
25.578,71.46
25.593,72.68
25.609,73.4
25.625,73.45
25.640,72.76
25.656,71.22
25.671,68.66
25.687,64.92
25.703,59.95
25.718,53.91
25.734,47.23
25.750,40.46
25.765,34.09
25.781,28.29
25.796,22.89
25.812,17.47
25.828,11.6
25.843,5.1
25.859,-1.9
25.875,-9.04
25.890,-15.93
25.906,-22.46
25.921,-28.85
25.937,-35.63
25.953,-43.4
25.968,-52.49
25.984,-62.69
26.000,-73.11
26.015,-82.19
26.031,-88.03
26.046,-88.89
26.062,-83.75
26.078,-72.66
26.093,-56.79
26.109,-38.1
26.125,-18.79
26.140,-0.76
26.156,14.83
26.171,27.6
26.187,37.73
26.203,45.66
26.218,51.73
26.234,56.07
26.250,58.7
26.265,59.69
26.281,59.29
26.296,58.07
26.312,56.7
26.328,55.79
26.343,55.65
26.359,56.23
26.375,57.17
26.390,58.01
26.406,58.39
26.421,58.08
26.437,57.0
26.453,55.13
26.468,52.49
26.484,49.12
26.500,45.11
26.515,40.6
26.531,35.72
26.546,30.57
26.562,25.15
26.578,19.49
26.593,13.62
26.609,7.59
26.625,1.53
26.640,-4.54
26.656,-10.63
26.671,-16.83
26.687,-23.24
26.703,-29.92
26.718,-36.94
26.734,-44.39
26.750,-52.33
26.765,-60.64
26.781,-68.79
26.796,-75.68
26.812,-79.73
26.828,-79.31
26.843,-73.27
26.859,-61.52
26.875,-45.14
26.890,-26.15
26.906,-6.86
26.921,10.79
26.937,25.65
26.953,37.45
26.968,46.49
26.984,53.3
27.000,58.25
27.015,61.5
27.031,63.15
27.046,63.42
27.062,62.73
27.078,61.69
27.093,60.91
27.109,60.79
27.125,61.44
27.140,62.68
27.156,64.19
27.171,65.64
27.187,66.78
27.203,67.48
27.218,67.67
27.234,67.31
27.250,66.39
27.265,64.92
27.281,62.95
27.296,60.56
27.312,57.84
27.328,54.93
27.343,51.98
27.359,49.16
27.375,46.61
27.390,44.36
27.406,42.34
27.421,40.38
27.437,38.26
27.453,35.93
27.468,33.48
27.484,31.2
27.500,29.37
27.515,28.12
27.531,27.34
27.546,26.64
27.562,25.62
27.578,23.98
27.593,21.72
27.609,19.11
27.625,16.59
27.640,14.46
27.656,12.87
27.671,11.73
27.687,10.79
27.703,9.85
27.718,8.78
27.734,7.57
27.750,6.3
27.765,5.04
27.781,3.86
27.796,2.77
27.812,1.72
27.828,0.62
27.843,-0.63
27.859,-2.1
27.875,-3.79
27.890,-5.64
27.906,-7.54
27.921,-9.36
27.937,-11.03
27.953,-12.52
27.968,-13.92
27.984,-15.31
28.000,-16.85
28.015,-18.7
28.031,-21.02
28.046,-23.83
28.062,-27.04
28.078,-30.41
28.093,-33.68
28.109,-36.81
28.125,-39.95
28.140,-43.52
28.156,-47.99
28.171,-53.54
28.187,-59.97
28.203,-66.78
28.218,-73.27
28.234,-78.94
28.250,-83.67
28.265,-87.76
28.281,-91.8
28.296,-96.55
28.312,-102.62
28.328,-110.3
28.343,-119.24
28.359,-128.32
28.375,-135.66
28.390,-139.03
28.406,-136.43
28.421,-126.88
28.437,-110.71
28.453,-89.59
28.468,-66.0
28.484,-42.51
28.500,-21.09
28.515,-2.87
28.531,11.87
28.546,23.38
28.562,32.09
28.578,38.46
28.593,42.86
28.609,45.71
28.625,47.46
28.640,48.65
28.656,49.76
28.671,51.17
28.687,53.06
28.703,55.42
28.718,58.06
28.734,60.82
28.750,63.61
28.765,66.48
28.781,69.54
28.796,72.86
28.812,76.31
28.828,79.62
28.843,82.36
28.859,84.1
28.875,84.48
28.890,83.19
28.906,79.96
28.921,74.57
28.937,66.91
28.953,57.1
28.968,45.59
28.984,33.13
29.000,20.59
29.015,8.69
29.031,-2.13
29.046,-11.84
29.062,-20.69
29.078,-29.03
29.093,-37.2
29.109,-45.45
29.125,-53.79
29.140,-61.94
29.156,-69.21
29.171,-74.51
29.187,-76.53
29.203,-74.13
29.218,-66.81
29.234,-55.03
29.250,-40.15
29.265,-24.12
29.281,-8.85
29.296,4.25
29.312,14.58
29.328,22.26
29.343,27.76
29.359,31.61
29.375,34.06
29.390,35.13
29.406,34.76
29.421,33.02
29.437,30.27
29.453,27.07
29.468,23.92
29.484,21.09
29.500,18.55
29.515,16.06
29.531,13.38
29.546,10.51
29.562,7.61
29.578,4.91
29.593,2.55
29.609,0.35
29.625,-2.03
29.640,-5.07
29.656,-9.12
29.671,-14.34
29.687,-20.65
29.703,-27.74
29.718,-35.18
29.734,-42.51
29.750,-49.33
29.765,-55.48
29.781,-61.02
29.796,-66.22
29.812,-71.45
29.828,-77.03
29.843,-83.21
29.859,-90.06
29.875,-97.46
29.890,-104.93
29.906,-111.58
29.921,-116.14
29.937,-117.16
29.953,-113.44
29.968,-104.44
29.984,-90.59
30.000,-73.19
30.015,-54.11
30.031,-35.18
30.046,-17.79
30.062,-2.66
30.078,10.06
30.093,20.54
30.109,28.96
30.125,35.44
30.140,40.02
30.156,42.79
30.171,44.06
30.187,44.31
30.203,44.17
30.218,44.16
30.234,44.65
30.250,45.74
30.265,47.33
30.281,49.26
30.296,51.38
30.312,53.61
30.328,55.87
30.343,58.02
30.359,59.79
30.375,60.87
30.390,60.94
30.406,59.9
30.421,57.83
30.437,55.06
30.453,52.03
30.468,49.17
30.484,46.71
30.500,44.69
30.515,42.94
30.531,41.18
30.546,39.14
30.562,36.67
30.578,33.83
30.593,30.84
30.609,27.96
30.625,25.4
30.640,23.21
30.656,21.32
30.671,19.5
30.687,17.53
30.703,15.25
30.718,12.57
30.734,9.55
30.750,6.34
30.765,3.12
30.781,0.02
30.796,-2.83
30.812,-5.4
30.828,-7.68
30.843,-9.68
30.859,-11.45
30.875,-13.02
30.890,-14.43
30.906,-15.71
30.921,-16.89
30.937,-18.0
30.953,-19.05
30.968,-20.0
30.984,-20.81
31.000,-21.41
31.015,-21.7
31.031,-21.67
31.046,-21.41
31.062,-21.13
31.078,-21.12
31.093,-21.59
31.109,-22.51
31.125,-23.54
31.140,-24.15
31.156,-23.83
31.171,-22.39
31.187,-20.15
31.203,-17.86
31.218,-16.51
31.234,-16.85
31.250,-19.17
31.265,-23.14
31.281,-28.03
31.296,-33.02
31.312,-37.57
31.328,-41.67
31.343,-45.86
31.359,-51.18
31.375,-58.87
31.390,-70.08
31.406,-85.44
31.421,-104.59
31.437,-125.9
31.453,-146.55
31.468,-163.08
31.484,-172.46
31.500,-173.11
31.515,-165.47
31.531,-151.94
31.546,-135.83
31.562,-120.11
31.578,-106.22
31.593,-93.76
31.609,-81.01
31.625,-66.21
31.640,-48.69
31.656,-29.4
31.671,-10.57
31.687,5.31
31.703,16.48
31.718,22.53
31.734,24.35
31.750,23.46
31.765,21.36
31.781,18.96
31.796,16.54
31.812,13.89
31.828,10.74
31.843,6.85
31.859,2.19
31.875,-3.1
31.890,-8.71
31.906,-14.3
31.921,-19.58
31.937,-24.35
31.953,-28.55
31.968,-32.14
31.984,-35.04
32.000,-37.1
32.015,-38.22
32.031,-38.56
32.046,-38.58
32.062,-39.02
32.078,-40.66
32.093,-44.03
32.109,-49.22
32.125,-56.0
32.140,-63.92
32.156,-72.55
32.171,-81.44
32.187,-89.8
32.203,-96.25
32.218,-98.75
32.234,-95.02
32.250,-83.4
32.265,-63.84
32.281,-38.23
32.296,-10.02
32.312,16.87
32.328,39.55
32.343,56.87
32.359,69.46
32.375,78.79
32.390,86.17
32.406,92.08
32.421,96.34
32.437,98.72
32.453,99.55
32.468,99.7
32.484,100.18
32.500,101.42
32.515,103.0
32.531,103.82
32.546,102.76
32.562,99.28
32.578,93.74
32.593,87.2
32.609,80.78
32.625,75.13
32.640,70.04
32.656,64.66
32.671,57.97
32.687,49.33
32.703,38.88
32.718,27.56
32.734,16.6
32.750,7.08
32.765,-0.59
32.781,-6.75
32.796,-12.22
32.812,-17.95
32.828,-24.61
32.843,-32.38
32.859,-40.97
32.875,-49.68
32.890,-57.39
32.906,-62.72
32.921,-64.23
32.937,-60.86
32.953,-52.31
32.968,-39.19
32.984,-22.94
33.000,-5.3
33.015,12.17
33.031,28.46
33.046,43.14
33.062,56.07
33.078,67.12
33.093,76.05
33.109,82.52
33.125,86.41
33.140,87.92
33.156,87.57
33.171,86.07
33.187,84.02
33.203,81.78
33.218,79.45
33.234,77.0
33.250,74.41
33.265,71.81
33.281,69.32
33.296,66.98
33.312,64.6
33.328,61.74
33.343,57.86
33.359,52.56
33.375,45.81
33.390,37.98
33.406,29.7
33.421,21.57
33.437,13.93
33.453,6.79
33.468,-0.21
33.484,-7.54
33.500,-15.61
33.515,-24.63
33.531,-34.44
33.546,-44.47
33.562,-53.7
33.578,-60.8
33.593,-64.42
33.609,-63.52
33.625,-57.71
33.640,-47.47
33.656,-34.01
33.671,-18.94
33.687,-3.87
33.703,10.03
33.718,22.16
33.734,32.37
33.750,40.69
33.765,47.1
33.781,51.44
33.796,53.46
33.812,53.09
33.828,50.63
33.843,46.79
33.859,42.45
33.875,38.41
33.890,35.06
33.906,32.37
33.921,29.97
33.937,27.48
33.953,24.75
33.968,21.86
33.984,19.03
34.000,16.36
34.015,13.76
34.031,10.88
34.046,7.35
34.062,2.97
34.078,-2.26
34.093,-8.07
34.109,-14.2
34.125,-20.45
34.140,-26.82
34.156,-33.48
34.171,-40.63
34.187,-48.38
34.203,-56.52
34.218,-64.47
34.234,-71.24
34.250,-75.57
34.265,-76.26
34.281,-72.53
34.296,-64.28
34.312,-52.28
34.328,-37.86
34.343,-22.55
34.359,-7.66
34.375,5.99
34.390,18.12
34.406,28.74
34.421,37.88
34.437,45.51
34.453,51.47
34.468,55.62
34.484,57.96
34.500,58.67
34.515,58.11
34.531,56.69
34.546,54.76
34.562,52.59
34.578,50.34
34.593,48.08
34.609,45.92
34.625,43.92
34.640,42.1
34.656,40.22
34.671,37.91
34.687,34.72
34.703,30.41
34.718,25.05
34.734,19.08
34.750,13.1
34.765,7.65
34.781,2.91
34.796,-1.35
34.812,-5.67
34.828,-10.63
34.843,-16.59
34.859,-23.55
34.875,-31.05
34.890,-38.3
34.906,-44.27
34.921,-47.91
34.937,-48.38
34.953,-45.23
34.968,-38.56
34.984,-29.06
35.000,-17.78
35.015,-5.96
35.031,5.3
35.046,15.27
35.062,23.75
35.078,30.94
35.093,37.14
35.109,42.57
35.125,47.1
35.140,50.44
35.156,52.26
35.171,52.46
35.187,51.27
35.203,49.17
35.218,46.71
35.234,44.28
35.250,42.04
35.265,39.92
35.281,37.79
35.296,35.56
35.312,33.21
35.328,30.86
35.343,28.61
35.359,26.51
35.375,24.44
35.390,22.14
35.406,19.25
35.421,15.48
35.437,10.82
35.453,5.48
35.468,-0.09
35.484,-5.43
35.500,-10.22
35.515,-14.46
35.531,-18.37
35.546,-22.31
35.562,-26.64
35.578,-31.57
35.593,-37.16
35.609,-43.21
35.625,-49.28
35.640,-54.58
35.656,-58.18
35.671,-59.1
35.687,-56.68
35.703,-50.79
35.718,-41.95
35.734,-31.23
35.750,-19.89
35.765,-9.08
35.781,0.46
35.796,8.49
35.812,15.21
35.828,20.95
35.843,25.99
35.859,30.38
35.875,33.92
35.890,36.34
35.906,37.41
35.921,37.15
35.937,35.78
35.953,33.69
35.968,31.32
35.984,29.03
36.000,27.05
36.015,25.46
36.031,24.28
36.046,23.44
36.062,22.86
36.078,22.39
36.093,21.83
36.109,21.03
36.125,19.76
36.140,17.96
36.156,15.59
36.171,12.72
36.187,9.46
36.203,5.94
36.218,2.32
36.234,-1.29
36.250,-4.8
36.265,-8.16
36.281,-11.42
36.296,-14.73
36.312,-18.29
36.328,-22.33
36.343,-27.02
36.359,-32.38
36.375,-38.25
36.390,-44.24
36.406,-49.77
36.421,-54.12
36.437,-56.53
36.453,-56.37
36.468,-53.32
36.484,-47.5
36.500,-39.5
36.515,-30.23
36.531,-20.71
36.546,-11.8
36.562,-3.98
36.578,2.64
36.593,8.19
36.609,12.87
36.625,16.73
36.640,19.66
36.656,21.5
36.671,22.13
36.687,21.69
36.703,20.52
36.718,19.15
36.734,18.02
36.750,17.4
36.765,17.27
36.781,17.48
36.796,17.77
36.812,18.0
36.828,18.08
36.843,17.96
36.859,17.59
36.875,16.85
36.890,15.66
36.906,14.04
36.921,12.14
36.937,10.16
36.953,8.29
36.968,6.57
36.984,4.88
37.000,3.03
37.015,0.89
37.031,-1.53
37.046,-4.04
37.062,-6.43
37.078,-8.54
37.093,-10.37
37.109,-12.1
37.125,-13.99
37.140,-16.34
37.156,-19.29
37.171,-22.87
37.187,-26.84
37.203,-30.69
37.218,-33.75
37.234,-35.23
37.250,-34.49
37.265,-31.26
37.281,-25.68
37.296,-18.35
37.312,-10.11
37.328,-1.83
37.343,5.89
37.359,12.74
37.375,18.69
37.390,23.84
37.406,28.19
37.421,31.67
37.437,34.04
37.453,35.13
37.468,34.93
37.484,33.74
37.500,32.03
37.515,30.33
37.531,29.01
37.546,28.17
37.562,27.63
37.578,27.15
37.593,26.49
37.609,25.56
37.625,24.41
37.640,23.14
37.656,21.8
37.671,20.41
37.687,18.92
37.703,17.31
37.718,15.57
37.734,13.71
37.750,11.72
37.765,9.58
37.781,7.24
37.796,4.68
37.812,1.95
37.828,-0.88
37.843,-3.64
37.859,-6.23
37.875,-8.61
37.890,-10.8
37.906,-12.94
37.921,-15.23
37.937,-17.82
37.953,-20.81
37.968,-24.13
37.984,-27.51
38.000,-30.56
38.015,-32.78
38.031,-33.65
38.046,-32.78
38.062,-30.03
38.078,-25.54
38.093,-19.75
38.109,-13.32
38.125,-6.91
38.140,-1.1
38.156,3.81
38.171,7.79
38.187,11.01
38.203,13.67
38.218,15.89
38.234,17.62
38.250,18.67
38.265,18.91
38.281,18.36
38.296,17.24
38.312,15.94
38.328,14.82
38.343,14.1
38.359,13.8
38.375,13.78
38.390,13.85
38.406,13.85
38.421,13.71
38.437,13.41
38.453,12.93
38.468,12.23
38.484,11.27
38.500,10.06
38.515,8.62
38.531,7.06
38.546,5.43
38.562,3.77
38.578,2.07
38.593,0.32
38.609,-1.48
38.625,-3.31
38.640,-5.14
38.656,-6.99
38.671,-8.83
38.687,-10.71
38.703,-12.6
38.718,-14.53
38.734,-16.54
38.750,-18.71
38.765,-21.12
38.781,-23.7
38.796,-26.2
38.812,-28.15
38.828,-28.95
38.843,-28.12
38.859,-25.47
38.875,-21.21
38.890,-15.86
38.906,-10.1
38.921,-4.51
38.937,0.5
38.953,4.8
38.968,8.42
38.984,11.41
39.000,13.82
39.015,15.59
39.031,16.65
39.046,16.98
39.062,16.69
39.078,16.01
39.093,15.25
39.109,14.65
39.125,14.38
39.140,14.45
39.156,14.78
39.171,15.2
39.187,15.57
39.203,15.72
39.218,15.59
39.234,15.15
39.250,14.45
39.265,13.52
39.281,12.46
39.296,11.31
39.312,10.12
39.328,8.97
39.343,7.92
39.359,7.1
39.375,6.59
39.390,6.36
39.406,6.25
39.421,6.04
39.437,5.57
39.453,4.81
39.468,3.95
39.484,3.24
39.500,2.92
39.515,2.99
39.531,3.32
39.546,3.65
39.562,3.83
39.578,3.77
39.593,3.52
39.609,3.2
39.625,2.87
39.640,2.62
39.656,2.47
39.671,2.42
39.687,2.5
39.703,2.61
39.718,2.62
39.734,2.4
39.750,1.88
39.765,1.1
39.781,0.21
39.796,-0.62
39.812,-1.26
39.828,-1.67
39.843,-1.91
39.859,-2.09
39.875,-2.32
39.890,-2.73
39.906,-3.38
39.921,-4.24
39.937,-5.18
39.953,-6.02
39.968,-6.6
39.984,-6.86
40.000,-6.9
40.015,-6.92
40.031,-7.15
40.046,-7.77
40.062,-8.77
40.078,-10.05
40.093,-11.47
40.109,-12.85
40.125,-14.11
40.140,-15.15
40.156,-15.96
40.171,-16.65
40.187,-17.4
40.203,-18.42
40.218,-19.87
40.234,-21.79
40.250,-24.03
40.265,-26.36
40.281,-28.53
40.296,-30.42
40.312,-32.12
40.328,-33.86
40.343,-35.9
40.359,-38.4
40.375,-41.24
40.390,-43.96
40.406,-45.87
40.421,-46.21
40.437,-44.4
40.453,-40.28
40.468,-34.19
40.484,-26.86
40.500,-19.13
40.515,-11.73
40.531,-5.15
40.546,0.41
40.562,4.87
40.578,8.23
40.593,10.5
40.609,11.78
40.625,12.27
40.640,12.3
40.656,12.21
40.671,12.23
40.687,12.43
40.703,12.73
40.718,12.98
40.734,13.06
40.750,12.96
40.765,12.7
40.781,12.4
40.796,12.14
40.812,11.95
40.828,11.82
40.843,11.66
40.859,11.34
40.875,10.7
40.890,9.68
40.906,8.27
40.921,6.58
40.937,4.78
40.953,3.0
40.968,1.29
40.984,-0.39
41.000,-2.17
41.015,-4.14
41.031,-6.3
41.046,-8.59
41.062,-10.88
41.078,-13.1
41.093,-15.24
41.109,-17.41
41.125,-19.73
41.140,-22.27
41.156,-24.94
41.171,-27.44
41.187,-29.29
41.203,-29.94
41.218,-29.0
41.234,-26.32
41.250,-22.09
41.265,-16.77
41.281,-10.98
41.296,-5.29
41.312,-0.14
41.328,4.25
41.343,7.82
41.359,10.57
41.375,12.54
41.390,13.79
41.406,14.44
41.421,14.63
41.437,14.57
41.453,14.43
41.468,14.29
41.484,14.19
41.500,14.05
41.515,13.8
41.531,13.4
41.546,12.88
41.562,12.29
41.578,11.69
41.593,11.13
41.609,10.66
41.625,10.3
41.640,10.1
41.656,10.0
41.671,9.88
41.687,9.54
41.703,8.75
41.718,7.39
41.734,5.46
41.750,3.14
41.765,0.67
41.781,-1.7
41.796,-3.81
41.812,-5.63
41.828,-7.2
41.843,-8.68
41.859,-10.25
41.875,-12.14
41.890,-14.53
41.906,-17.49
41.921,-20.91
41.937,-24.42
41.953,-27.43
41.968,-29.29
41.984,-29.45
42.000,-27.59
42.015,-23.76
42.031,-18.34
42.046,-11.87
42.062,-4.96
42.078,1.85
42.093,8.14
42.109,13.63
42.125,18.18
42.140,21.75
42.156,24.39
42.171,26.18
42.187,27.22
42.203,27.62
42.218,27.47
42.234,26.89
42.250,26.05
42.265,25.14
42.281,24.31
42.296,23.62
42.312,23.05
42.328,22.55
42.343,22.09
42.359,21.68
42.375,21.39
42.390,21.24
42.406,21.2
42.421,21.14
42.437,20.91
42.453,20.44
42.468,19.69
42.484,18.71
42.500,17.54
42.515,16.26
42.531,14.92
42.546,13.62
42.562,12.43
42.578,11.41
42.593,10.57
42.609,9.83
42.625,9.08
42.640,8.27
42.656,7.4
42.671,6.54
42.687,5.76
42.703,5.09
42.718,4.53
42.734,4.02
42.750,3.59
42.765,3.24
42.781,3.03
42.796,2.96
42.812,2.94
42.828,2.88
42.843,2.66
42.859,2.24
42.875,1.67
42.890,1.09
42.906,0.62
42.921,0.32
42.937,0.15
42.953,0.01
42.968,-0.19
42.984,-0.5
43.000,-0.87
43.015,-1.23
43.031,-1.55
43.046,-1.89
43.062,-2.39
43.078,-3.17
43.093,-4.23
43.109,-5.45
43.125,-6.66
43.140,-7.7
43.156,-8.55
43.171,-9.31
43.187,-10.16
43.203,-11.2
43.218,-12.38
43.234,-13.59
43.250,-14.68
43.265,-15.69
43.281,-16.74
43.296,-18.08
43.312,-19.88
43.328,-22.11
43.343,-24.61
43.359,-27.09
43.375,-29.3
43.390,-31.12
43.406,-32.66
43.421,-34.15
43.437,-35.92
43.453,-38.21
43.468,-41.08
43.484,-44.33
43.500,-47.53
43.515,-50.05
43.531,-51.21
43.546,-50.4
43.562,-47.26
43.578,-41.78
43.593,-34.31
43.609,-25.54
43.625,-16.29
43.640,-7.41
43.656,0.44
43.671,6.93
43.687,11.95
43.703,15.66
43.718,18.23
43.734,19.85
43.750,20.65
43.765,20.73
43.781,20.27
43.796,19.45
43.812,18.5
43.828,17.54
43.843,16.65
43.859,15.8
43.875,14.97
43.890,14.19
43.906,13.54
43.921,13.09
43.937,12.85
43.953,12.72
43.968,12.49
43.984,12.0
44.000,11.14
44.015,9.92
44.031,8.42
44.046,6.73
44.062,4.9
44.078,2.92
44.093,0.8
44.109,-1.46
44.125,-3.78
44.140,-6.11
44.156,-8.43
44.171,-10.8
44.187,-13.3
44.203,-16.01
44.218,-18.92
44.234,-21.92
44.250,-24.72
44.265,-26.93
44.281,-28.08
44.296,-27.76
44.312,-25.72
44.328,-21.98
44.343,-16.82
44.359,-10.74
44.375,-4.3
44.390,2.04
44.406,7.92
44.421,13.13
44.437,17.52
44.453,20.97
44.468,23.43
44.484,24.82
44.500,25.2
44.515,24.74
44.531,23.69
44.546,22.29
44.562,20.81
44.578,19.41
44.593,18.19
44.609,17.18
44.625,16.37
44.640,15.69
44.656,15.07
44.671,14.4
44.687,13.56
44.703,12.48
44.718,11.08
44.734,9.4
44.750,7.46
44.765,5.38
44.781,3.21
44.796,0.99
44.812,-1.31
44.828,-3.74
44.843,-6.31
44.859,-8.98
44.875,-11.62
44.890,-14.1
44.906,-16.31
44.921,-18.31
44.937,-20.25
44.953,-22.38
44.968,-24.88
44.984,-27.72
45.000,-30.62
45.015,-33.11
45.031,-34.6
45.046,-34.61
45.062,-32.87
45.078,-29.33
45.093,-24.2
45.109,-17.83
45.125,-10.67
45.140,-3.24
45.156,3.91
45.171,10.3
45.187,15.56
45.203,19.48
45.218,22.06
45.234,23.48
45.250,23.98
45.265,23.82
45.281,23.23
45.296,22.38
45.312,21.37
45.328,20.25
45.343,19.06
45.359,17.81
45.375,16.54
45.390,15.25
45.406,13.99
45.421,12.8
45.437,11.69
45.453,10.62
45.468,9.54
45.484,8.37
45.500,7.1
45.515,5.75
45.531,4.32
45.546,2.78
45.562,1.06
45.578,-0.95
45.593,-3.28
45.609,-5.84
45.625,-8.43
45.640,-10.82
45.656,-12.85
45.671,-14.57
45.687,-16.14
45.703,-17.8
45.718,-19.71
45.734,-21.91
45.750,-24.32
45.765,-26.75
45.781,-28.94
45.796,-30.57
45.812,-31.31
45.828,-30.77
45.843,-28.67
45.859,-24.91
45.875,-19.6
45.890,-13.16
45.906,-6.14
45.921,0.86
45.937,7.29
45.953,12.79
45.968,17.15
45.984,20.32
46.000,22.4
46.015,23.57
46.031,24.06
46.046,24.06
46.062,23.7
46.078,23.01
46.093,22.04
46.109,20.86
46.125,19.61
46.140,18.44
46.156,17.49
46.171,16.72
46.187,16.03
46.203,15.27
46.218,14.36
46.234,13.33
46.250,12.29
46.265,11.31
46.281,10.38
46.296,9.33
46.312,7.98
46.328,6.17
46.343,3.87
46.359,1.21
46.375,-1.65
46.390,-4.57
46.406,-7.46
46.421,-10.26
46.437,-12.92
46.453,-15.39
46.468,-17.65
46.484,-19.72
46.500,-21.75
46.515,-23.92
46.531,-26.34
46.546,-28.97
46.562,-31.51
46.578,-33.45
46.593,-34.22
46.609,-33.3
46.625,-30.47
46.640,-25.8
46.656,-19.68
46.671,-12.72
46.687,-5.53
46.703,1.31
46.718,7.36
46.734,12.4
46.750,16.33
46.765,19.16
46.781,20.97
46.796,21.91
46.812,22.12
46.828,21.84
46.843,21.27
46.859,20.58
46.875,19.88
46.890,19.15
46.906,18.37
46.921,17.5
46.937,16.56
46.953,15.62
46.968,14.72
46.984,13.86
47.000,12.98
47.015,12.0
47.031,10.9
47.046,9.72
47.062,8.53
47.078,7.33
47.093,6.07
47.109,4.64
47.125,3.03
47.140,1.27
47.156,-0.49
47.171,-2.16
47.187,-3.74
47.203,-5.32
47.218,-7.07
47.234,-9.04
47.250,-11.21
47.265,-13.45
47.281,-15.62
47.296,-17.65
47.312,-19.63
47.328,-21.7
47.343,-24.02
47.359,-26.64
47.375,-29.55
47.390,-32.57
47.406,-35.35
47.421,-37.34
47.437,-37.95
47.453,-36.66
47.468,-33.24
47.484,-27.82
47.500,-20.94
47.515,-13.31
47.531,-5.67
47.546,1.5
47.562,7.94
47.578,13.58
47.593,18.39
47.609,22.3
47.625,25.2
47.640,26.98
47.656,27.69
47.671,27.51
47.687,26.73
47.703,25.62
47.718,24.41
47.734,23.21
47.750,22.09
47.765,21.07
47.781,20.15
47.796,19.33
47.812,18.56
47.828,17.81
47.843,17.02
47.859,16.15
47.875,15.21
47.890,14.18
47.906,13.08
47.921,11.88
47.937,10.56
47.953,9.08
47.968,7.46
47.984,5.71
48.000,3.9
48.015,2.07
48.031,0.26
48.046,-1.5
48.062,-3.22
48.078,-4.98
48.093,-6.88
48.109,-9.02
48.125,-11.39
48.140,-13.9
48.156,-16.33
48.171,-18.48
48.187,-20.22
48.203,-21.61
48.218,-22.89
48.234,-24.4
48.250,-26.42
48.265,-29.04
48.281,-32.08
48.296,-35.08
48.312,-37.5
48.328,-38.8
48.343,-38.57
48.359,-36.58
48.375,-32.8
48.390,-27.41
48.406,-20.74
48.421,-13.3
48.437,-5.67
48.453,1.61
48.468,8.1
48.484,13.6
48.500,18.07
48.515,21.63
48.531,24.41
48.546,26.45
48.562,27.76
48.578,28.3
48.593,28.06
48.609,27.08
48.625,25.51
48.640,23.57
48.656,21.53
48.671,19.66
48.687,18.13
48.703,17.02
48.718,16.31
48.734,15.89
48.750,15.6
48.765,15.27
48.781,14.73
48.796,13.86
48.812,12.62
48.828,11.04
48.843,9.23
48.859,7.34
48.875,5.54
48.890,3.93
48.906,2.53
48.921,1.27
48.937,0.03
48.953,-1.28
48.968,-2.76
48.984,-4.43
49.000,-6.27
49.015,-8.25
49.031,-10.31
49.046,-12.41
49.062,-14.52
49.078,-16.58
49.093,-18.55
49.109,-20.44
49.125,-22.27
49.140,-24.12
49.156,-26.09
49.171,-28.23
49.187,-30.58
49.203,-33.04
49.218,-35.42
49.234,-37.46
49.250,-38.85
49.265,-39.24
49.281,-38.31
49.296,-35.84
49.312,-31.77
49.328,-26.27
49.343,-19.69
49.359,-12.57
49.375,-5.44
49.390,1.23
49.406,7.19
49.421,12.29
49.437,16.5
49.453,19.8
49.468,22.18
49.484,23.67
49.500,24.36
49.515,24.41
49.531,24.01
49.546,23.34
49.562,22.49
49.578,21.54
49.593,20.51
49.609,19.47
49.625,18.48
49.640,17.59
49.656,16.8
49.671,16.02
49.687,15.21
49.703,14.29
49.718,13.31
49.734,12.32
49.750,11.37
49.765,10.44
49.781,9.46
49.796,8.26
49.812,6.68
49.828,4.62
49.843,2.12
49.859,-0.6
49.875,-3.22
49.890,-5.4
49.906,-6.97
49.921,-8.0
49.937,-8.79
49.953,-9.72
49.968,-11.08
49.984,-12.92
50.000,-15.0
50.015,-17.03
50.031,-18.73
50.046,-20.08
50.062,-21.21
50.078,-22.36
50.093,-23.74
50.109,-25.41
50.125,-27.37
50.140,-29.52
50.156,-31.66
50.171,-33.51
50.187,-34.64
50.203,-34.51
50.218,-32.64
50.234,-28.8
50.250,-23.14
50.265,-16.2
50.281,-8.72
50.296,-1.42
50.312,5.18
50.328,10.79
50.343,15.32
50.359,18.8
50.375,21.25
50.390,22.76
50.406,23.47
50.421,23.55
50.437,23.2
50.453,22.58
50.468,21.75
50.484,20.77
50.500,19.69
50.515,18.63
50.531,17.74
50.546,17.14
50.562,16.83
50.578,16.74
50.593,16.69
50.609,16.52
50.625,16.08
50.640,15.31
50.656,14.16
50.671,12.63
50.687,10.73
50.703,8.52
50.718,6.14
50.734,3.74
50.750,1.51
50.765,-0.47
50.781,-2.2
50.796,-3.78
50.812,-5.35
50.828,-6.99
50.843,-8.74
50.859,-10.52
50.875,-12.23
50.890,-13.76
50.906,-15.08
50.921,-16.25
50.937,-17.43
50.953,-18.82
50.968,-20.6
50.984,-22.88
51.000,-25.58
51.015,-28.47
51.031,-31.12
51.046,-33.06
51.062,-33.87
51.078,-33.21
51.093,-30.99
51.109,-27.28
51.125,-22.29
51.140,-16.36
51.156,-9.89
51.171,-3.3
51.187,3.04
51.203,8.78
51.218,13.71
51.234,17.68
51.250,20.66
51.265,22.64
51.281,23.66
51.296,23.81
51.312,23.23
51.328,22.12
51.343,20.71
51.359,19.22
51.375,17.83
51.390,16.67
51.406,15.74
51.421,15.02
51.437,14.46
51.453,14.01
51.468,13.65
51.484,13.4
51.500,13.18
51.515,12.9
51.531,12.41
51.546,11.57
51.562,10.34
51.578,8.79
51.593,7.06
51.609,5.3
51.625,3.59
51.640,1.9
51.656,0.21
51.671,-1.51
51.687,-3.19
51.703,-4.77
51.718,-6.23
51.734,-7.66
51.750,-9.2
51.765,-10.98
51.781,-13.04
51.796,-15.25
51.812,-17.4
51.828,-19.33
51.843,-20.97
51.859,-22.46
51.875,-24.09
51.890,-26.11
51.906,-28.64
51.921,-31.56
51.937,-34.46
51.953,-36.74
51.968,-37.76
51.984,-37.04
52.000,-34.31
52.015,-29.66
52.031,-23.47
52.046,-16.32
52.062,-8.9
52.078,-1.81
52.093,4.52
52.109,9.88
52.125,14.21
52.140,17.55
52.156,19.95
52.171,21.47
52.187,22.24
52.203,22.41
52.218,22.23
52.234,21.87
52.250,21.46
52.265,20.98
52.281,20.34
52.296,19.52
52.312,18.58
52.328,17.74
52.343,17.19
52.359,17.07
52.375,17.32
52.390,17.71
52.406,17.93
52.421,17.74
52.437,17.01
52.453,15.8
52.468,14.25
52.484,12.57
52.500,10.86
52.515,9.13
52.531,7.35
52.546,5.45
52.562,3.43
52.578,1.38
52.593,-0.65
52.609,-2.61
52.625,-4.56
52.640,-6.54
52.656,-8.61
52.671,-10.73
52.687,-12.77
52.703,-14.66
52.718,-16.28
52.734,-17.69
52.750,-19.03
52.765,-20.48
52.781,-22.23
52.796,-24.37
52.812,-26.84
52.828,-29.44
52.843,-31.85
52.859,-33.61
52.875,-34.3
52.890,-33.54
52.906,-31.04
52.921,-26.7
52.937,-20.62
52.953,-13.15
52.968,-4.92
52.984,3.33
53.000,10.89
53.015,17.23
53.031,22.13
53.046,25.68
53.062,28.12
53.078,29.72
53.093,30.63
53.109,30.92
53.125,30.58
53.140,29.65
53.156,28.24
53.171,26.52
53.187,24.72
53.203,23.0
53.218,21.49
53.234,20.25
53.250,19.27
53.265,18.5
53.281,17.84
53.296,17.17
53.312,16.41
53.328,15.45
53.343,14.21
53.359,12.65
53.375,10.82
53.390,8.79
53.406,6.69
53.421,4.58
53.437,2.49
53.453,0.42
53.468,-1.68
53.484,-3.8
53.500,-5.91
53.515,-7.87
53.531,-9.59
53.546,-11.01
53.562,-12.17
53.578,-13.19
53.593,-14.21
53.609,-15.36
53.625,-16.73
53.640,-18.31
53.656,-20.04
53.671,-21.88
53.687,-23.83
53.703,-25.96
53.718,-28.4
53.734,-31.24
53.750,-34.43
53.765,-37.67
53.781,-40.49
53.796,-42.25
53.812,-42.37
53.828,-40.43
53.843,-36.36
53.859,-30.4
53.875,-23.06
53.890,-15.0
53.906,-6.88
53.921,0.68
53.937,7.32
53.953,12.83
53.968,17.25
53.984,20.72
54.000,23.4
54.015,25.46
54.031,26.98
54.046,27.99
54.062,28.45
54.078,28.35
54.093,27.67
54.109,26.46
54.125,24.84
54.140,23.0
54.156,21.17
54.171,19.61
54.187,18.46
54.203,17.73
54.218,17.25
54.234,16.79
54.250,16.1
54.265,15.02
54.281,13.53
54.296,11.72
54.312,9.73
54.328,7.66
54.343,5.51
54.359,3.3
54.375,1.03
54.390,-1.26
54.406,-3.48
54.421,-5.61
54.437,-7.66
54.453,-9.65
54.468,-11.64
54.484,-13.64
54.500,-15.62
54.515,-17.5
54.531,-19.24
54.546,-20.78
54.562,-22.14
54.578,-23.41
54.593,-24.74
54.609,-26.35
54.625,-28.38
54.640,-30.91
54.656,-33.76
54.671,-36.56
54.687,-38.76
54.703,-39.81
54.718,-39.24
54.734,-36.85
54.750,-32.65
54.765,-26.85
54.781,-19.85
54.796,-12.15
54.812,-4.35
54.828,3.0
54.843,9.37
54.859,14.44
54.875,18.09
54.890,20.46
54.906,21.84
54.921,22.53
54.937,22.77
54.953,22.68
54.968,22.28
54.984,21.63
55.000,20.81
55.015,19.94
55.031,19.2
55.046,18.65
55.062,18.31
55.078,18.07
55.093,17.83
55.109,17.49
55.125,16.98
55.140,16.31
55.156,15.44
55.171,14.35
55.187,13.01
55.203,11.5
55.218,9.89
55.234,8.31
55.250,6.86
55.265,5.52
55.281,4.22
55.296,2.79
55.312,1.12
55.328,-0.85
55.343,-3.06
55.359,-5.35
55.375,-7.56
55.390,-9.57
55.406,-11.37
55.421,-13.03
55.437,-14.64
55.453,-16.34
55.468,-18.23
55.484,-20.35
55.500,-22.66
55.515,-24.98
55.531,-26.91
55.546,-27.92
55.562,-27.49
55.578,-25.24
55.593,-21.14
55.609,-15.49
55.625,-8.88
55.640,-2.0
55.656,4.53
55.671,10.28
55.687,15.02
55.703,18.71
55.718,21.38
55.734,23.14
55.750,24.09
55.765,24.35
55.781,24.02
55.796,23.19
55.812,21.97
55.828,20.49
55.843,18.98
55.859,17.66
55.875,16.7
55.890,16.16
55.906,15.93
55.921,15.78
55.937,15.49
55.953,14.91
55.968,13.99
55.984,12.75
56.000,11.26
56.015,9.48
56.031,7.36
56.046,4.9
56.062,2.2
56.078,-0.51
56.093,-2.96
56.109,-4.96
56.125,-6.54
56.140,-7.82
56.156,-9.08
56.171,-10.5
56.187,-12.17
56.203,-14.04
56.218,-16.03
56.234,-18.1
56.250,-20.23
56.265,-22.5
56.281,-24.96
56.296,-27.66
56.312,-30.5
56.328,-33.3
56.343,-35.66
56.359,-37.07
56.375,-36.99
56.390,-35.01
56.406,-30.98
56.421,-25.06
56.437,-17.76
56.453,-9.72
56.468,-1.62
56.484,5.96
56.500,12.58
56.515,17.93
56.531,21.82
56.546,24.23
56.562,25.31
56.578,25.37
56.593,24.8
56.609,23.97
56.625,23.09
56.640,22.22
56.656,21.28
56.671,20.18
56.687,18.91
56.703,17.56
56.718,16.25
56.734,15.11
56.750,14.2
56.765,13.48
56.781,12.85
56.796,12.22
56.812,11.49
56.828,10.56
56.843,9.35
56.859,7.82
56.875,5.94
56.890,3.74
56.906,1.25
56.921,-1.47
56.937,-4.36
56.953,-7.3
56.968,-10.19
56.984,-12.89
57.000,-15.29
57.015,-17.35
57.031,-19.12
57.046,-20.74
57.062,-22.38
57.078,-24.14
57.093,-26.09
57.109,-28.22
57.125,-30.46
57.140,-32.71
57.156,-34.75
57.171,-36.22
57.187,-36.61
57.203,-35.39
57.218,-32.15
57.234,-26.8
57.250,-19.71
57.265,-11.53
57.281,-3.11
57.296,4.81
57.312,11.75
57.328,17.49
57.343,22.07
57.359,25.55
57.375,28.02
57.390,29.52
57.406,30.08
57.421,29.76
57.437,28.73
57.453,27.22
57.468,25.49
57.484,23.78
57.500,22.23
57.515,20.91
57.531,19.82
57.546,18.96
57.562,18.31
57.578,17.83
57.593,17.4
57.609,16.87
57.625,16.01
57.640,14.65
57.656,12.77
57.671,10.48
57.687,8.08
57.703,5.82
57.718,3.88
57.734,2.18
57.750,0.55
57.765,-1.23
57.781,-3.27
57.796,-5.56
57.812,-7.99
57.828,-10.43
57.843,-12.82
57.859,-15.16
57.875,-17.46
57.890,-19.71
57.906,-21.94
57.921,-24.23
57.937,-26.75
57.953,-29.7
57.968,-33.16
57.984,-36.98
58.000,-40.69
58.015,-43.53
58.031,-44.68
58.046,-43.46
58.062,-39.61
58.078,-33.27
58.093,-25.03
58.109,-15.72
58.125,-6.21
58.140,2.77
58.156,10.74
58.171,17.42
58.187,22.71
58.203,26.65
58.218,29.39
58.234,31.13
58.250,32.17
58.265,32.73
58.281,32.96
58.296,32.85
58.312,32.29
58.328,31.14
58.343,29.43
58.359,27.31
58.375,25.05
58.390,22.95
58.406,21.21
58.421,19.9
58.437,18.93
58.453,18.16
58.468,17.41
58.484,16.55
58.500,15.43
58.515,13.94
58.531,12.02
58.546,9.65
58.562,6.92
58.578,4.01
58.593,1.11
58.609,-1.62
58.625,-4.09
58.640,-6.33
58.656,-8.42
58.671,-10.48
58.687,-12.54
58.703,-14.58
58.718,-16.54
58.734,-18.35
58.750,-20.03
58.765,-21.67
58.781,-23.44
58.796,-25.55
58.812,-28.14
58.828,-31.23
58.843,-34.59
58.859,-37.84
58.875,-40.39
58.890,-41.64
58.906,-41.05
58.921,-38.3
58.937,-33.31
58.953,-26.31
58.968,-17.76
58.984,-8.36
59.000,1.15
59.015,10.03
59.031,17.69
59.046,23.76
59.062,28.14
59.078,30.93
59.093,32.35
59.109,32.67
59.125,32.14
59.140,30.95
59.156,29.31
59.171,27.45
59.187,25.59
59.203,23.93
59.218,22.59
59.234,21.55
59.250,20.74
59.265,20.03
59.281,19.34
59.296,18.66
59.312,17.96
59.328,17.2
59.343,16.27
59.359,15.04
59.375,13.42
59.390,11.41
59.406,9.11
59.421,6.7
59.437,4.36
59.453,2.16
59.468,0.11
59.484,-1.88
59.500,-3.94
59.515,-6.09
59.531,-8.36
59.546,-10.68
59.562,-12.97
59.578,-15.17
59.593,-17.22
59.609,-19.11
59.625,-20.86
59.640,-22.54
59.656,-24.32
59.671,-26.4
59.687,-28.97
59.703,-31.99
59.718,-35.14
59.734,-37.82
59.750,-39.26
59.765,-38.82
59.781,-36.1
59.796,-31.14
59.812,-24.31
59.828,-16.18
59.843,-7.4
59.859,1.4
59.875,9.64
59.890,16.82
59.906,22.55
59.921,26.65
59.937,29.16
59.953,30.32
59.968,30.49
59.984,29.98
