timestamp,value
00.000,41.1
00.015,52.46
00.031,62.32
00.046,70.85
00.062,78.1
00.078,83.89
00.093,87.9
00.109,89.85
00.125,89.74
00.140,87.89
00.156,84.85
00.171,81.33
00.187,78.0
00.203,75.3
00.218,73.54
00.234,72.71
00.250,72.46
00.265,72.0
00.281,70.24
00.296,66.02
00.312,58.6
00.328,47.83
00.343,34.24
00.359,18.81
00.375,2.39
00.390,-14.39
00.406,-31.32
00.421,-48.31
00.437,-65.07
00.453,-80.92
00.468,-94.84
00.484,-105.72
00.500,-112.46
00.515,-114.26
00.531,-110.58
00.546,-101.13
00.562,-85.99
00.578,-65.64
00.593,-41.03
00.609,-13.66
00.625,14.53
00.640,41.48
00.656,65.28
00.671,84.65
00.687,99.13
00.703,108.97
00.718,114.83
00.734,117.36
00.750,116.98
00.765,113.88
00.781,108.37
00.796,101.09
00.812,92.85
00.828,84.18
00.843,74.65
00.859,62.96
00.875,47.44
00.890,27.28
00.906,3.64
00.921,-20.27
00.937,-39.98
00.953,-51.4
00.968,-52.41
00.984,-43.55
01.000,-27.54
01.015,-8.03
01.031,11.59
01.046,28.96
01.062,42.58
01.078,51.53
01.093,55.15
01.109,53.25
01.125,46.5
01.140,36.72
01.156,26.58
01.171,18.74
01.187,15.01
01.203,15.74
01.218,20.04
01.234,26.54
01.250,34.35
01.265,43.63
01.281,55.53
01.296,71.55
01.312,92.37
01.328,116.88
01.343,141.61
01.359,161.27
01.375,170.01
01.390,163.3
01.406,139.6
01.421,101.31
01.437,54.38
01.453,6.55
01.468,-35.11
01.484,-66.52
01.500,-87.58
01.515,-101.43
01.531,-112.51
01.546,-124.25
01.562,-137.76
01.578,-152.01
01.593,-165.25
01.609,-176.5
01.625,-186.46
01.640,-196.8
01.656,-208.83
01.671,-222.04
01.687,-233.89
01.703,-240.61
01.718,-239.08
01.734,-228.28
01.750,-209.84
01.765,-187.34
01.781,-164.87
01.796,-145.58
01.812,-130.71
01.828,-119.54
01.843,-109.93
01.859,-99.31
01.875,-85.54
01.890,-67.57
01.906,-45.73
01.921,-21.51
01.937,3.02
01.953,25.91
01.968,45.93
01.984,62.84
02.000,77.2
02.015,89.84
02.031,101.47
02.046,112.31
02.062,122.29
02.078,131.41
02.093,140.08
02.109,149.31
02.125,160.15
02.140,173.22
02.156,188.16
02.171,203.59
02.187,217.51
02.203,228.11
02.218,234.58
02.234,237.46
02.250,238.53
02.265,239.97
02.281,243.53
02.296,249.6
02.312,256.9
02.328,262.71
02.343,263.58
02.359,256.37
02.375,239.01
02.390,211.09
02.406,174.09
02.421,131.24
02.437,86.95
02.453,45.91
02.468,11.85
02.484,-13.4
02.500,-30.46
02.515,-42.05
02.531,-51.97
02.546,-63.79
02.562,-79.72
02.578,-100.05
02.593,-123.44
02.609,-147.45
02.625,-169.33
02.640,-186.72
02.656,-198.14
02.671,-203.24
02.687,-202.9
02.703,-198.99
02.718,-193.69
02.734,-188.75
02.750,-184.77
02.765,-181.03
02.781,-175.75
02.796,-166.95
02.812,-153.27
02.828,-134.48
02.843,-111.69
02.859,-87.05
02.875,-63.1
02.890,-42.2
02.906,-25.9
02.921,-14.62
02.937,-7.58
02.953,-3.1
02.968,0.8
02.984,5.67
03.000,12.21
03.015,19.98
03.031,27.55
03.046,32.9
03.062,33.92
03.078,28.91
03.093,16.86
03.109,-2.19
03.125,-27.1
03.140,-55.58
03.156,-84.59
03.171,-110.88
03.187,-131.78
03.203,-145.56
03.218,-151.66
03.234,-150.42
03.250,-142.78
03.265,-130.08
03.281,-113.89
03.296,-96.14
03.312,-78.89
03.328,-64.18
03.343,-53.46
03.359,-47.34
03.375,-45.35
03.390,-46.13
03.406,-47.94
03.421,-49.06
03.437,-48.34
03.453,-45.4
03.468,-40.55
03.484,-34.53
03.500,-28.28
03.515,-22.4
03.531,-17.11
03.546,-12.27
03.562,-7.59
03.578,-2.82
03.593,2.06
03.609,6.98
03.625,11.82
03.640,16.46
03.656,20.82
03.671,24.87
03.687,28.52
03.703,31.68
03.718,34.26
03.734,36.23
03.750,37.61
03.765,38.49
03.781,38.95
03.796,39.04
03.812,38.74
03.828,38.0
03.843,36.86
03.859,35.53
03.875,34.5
03.890,34.54
03.906,36.59
03.921,41.49
03.937,49.75
03.953,61.33
03.968,75.51
03.984,91.11
04.000,106.73
04.015,121.01
04.031,132.96
04.046,142.14
04.062,148.76
04.078,153.6
04.093,157.79
04.109,162.38
04.125,168.04
04.140,174.82
04.156,182.11
04.171,188.98
04.187,194.59
04.203,198.52
04.218,200.92
04.234,202.44
04.250,203.85
04.265,205.86
04.281,208.87
04.296,212.63
04.312,216.21
04.328,217.87
04.343,215.35
04.359,206.36
04.375,189.5
04.390,165.02
04.406,135.23
04.421,104.07
04.437,75.76
04.453,53.36
04.468,37.56
04.484,26.47
04.500,16.47
04.515,3.69
04.531,-14.64
04.546,-39.71
04.562,-71.25
04.578,-108.26
04.593,-149.24
04.609,-192.11
04.625,-233.96
04.640,-270.88
04.656,-298.65
04.671,-313.95
04.687,-315.64
04.703,-305.34
04.718,-286.92
04.734,-265.08
04.750,-243.84
04.765,-225.52
04.781,-210.54
04.796,-198.12
04.812,-187.15
04.828,-176.85
04.843,-166.87
04.859,-157.2
04.875,-147.78
04.890,-138.42
04.906,-128.91
04.921,-119.2
04.937,-109.71
04.953,-101.23
04.968,-94.71
04.984,-90.76
05.000,-89.43
05.015,-90.15
05.031,-91.94
05.046,-93.78
05.062,-94.97
05.078,-95.28
05.093,-95.03
05.109,-94.9
05.125,-95.61
05.140,-97.62
05.156,-100.82
05.171,-104.45
05.187,-107.16
05.203,-107.35
05.218,-103.59
05.234,-95.11
05.250,-82.05
05.265,-65.41
05.281,-46.79
05.296,-27.92
05.312,-10.28
05.328,5.23
05.343,18.25
05.359,28.92
05.375,37.44
05.390,43.94
05.406,48.39
05.421,50.7
05.437,50.94
05.453,49.55
05.468,47.25
05.484,44.88
05.500,43.07
05.515,42.07
05.531,41.72
05.546,41.64
05.562,41.41
05.578,40.73
05.593,39.46
05.609,37.58
05.625,35.04
05.640,31.79
05.656,27.79
05.671,23.17
05.687,18.18
05.703,13.15
05.718,8.31
05.734,3.59
05.750,-1.36
05.765,-7.08
05.781,-13.74
05.796,-20.98
05.812,-27.6
05.828,-31.99
05.843,-32.56
05.859,-28.4
05.875,-19.67
05.890,-7.48
05.906,6.32
05.921,19.85
05.937,31.61
05.953,40.73
05.968,47.02
05.984,50.73
06.000,52.32
06.015,52.2
06.031,50.83
06.046,48.66
06.062,46.31
06.078,44.46
06.093,43.74
06.109,44.46
06.125,46.41
06.140,48.92
06.156,50.94
06.171,51.59
06.187,50.32
06.203,47.05
06.218,42.14
06.234,36.07
06.250,29.32
06.265,22.27
06.281,15.31
06.296,8.83
06.312,3.23
06.328,-1.27
06.343,-4.78
06.359,-7.68
06.375,-10.5
06.390,-13.49
06.406,-16.41
06.421,-18.49
06.437,-18.76
06.453,-16.41
06.468,-11.11
06.484,-3.16
06.500,6.77
06.515,17.81
06.531,29.32
06.546,40.78
06.562,51.88
06.578,62.22
06.593,71.37
06.609,78.92
06.625,84.52
06.640,88.15
06.656,89.98
06.671,90.38
06.687,89.81
06.703,88.69
06.718,87.42
06.734,86.24
06.750,85.33
06.765,84.67
06.781,84.16
06.796,83.55
06.812,82.55
06.828,80.78
06.843,77.9
06.859,73.58
06.875,67.57
06.890,59.83
06.906,50.45
06.921,39.63
06.937,27.57
06.953,14.5
06.968,0.56
06.984,-13.9
07.000,-28.23
07.015,-41.33
07.031,-51.77
07.046,-58.15
07.062,-59.57
07.078,-56.05
07.093,-48.54
07.109,-38.64
07.125,-27.97
07.140,-17.57
07.156,-7.68
07.171,2.23
07.187,12.87
07.203,24.61
07.218,37.14
07.234,49.48
07.250,60.49
07.265,69.33
07.281,75.78
07.296,80.18
07.312,83.19
07.328,85.46
07.343,87.32
07.359,88.68
07.375,89.08
07.390,87.72
07.406,83.58
07.421,75.55
07.437,62.63
07.453,44.29
07.468,20.68
07.484,-7.17
07.500,-37.44
07.515,-67.82
07.531,-95.96
07.546,-120.04
07.562,-139.16
07.578,-153.55
07.593,-164.29
07.609,-172.69
07.625,-179.51
07.640,-184.44
07.656,-185.96
07.671,-182.14
07.687,-171.5
07.703,-153.84
07.718,-130.49
07.734,-103.89
07.750,-76.74
07.765,-51.22
07.781,-28.64
07.796,-9.61
07.812,5.56
07.828,16.69
07.843,23.7
07.859,26.91
07.875,27.21
07.890,25.94
07.906,24.52
07.921,23.98
07.937,24.66
07.953,26.17
07.968,27.71
07.984,28.52
08.000,28.17
08.015,26.73
08.031,24.57
08.046,22.23
08.062,20.06
08.078,18.16
08.093,16.31
08.109,14.13
08.125,11.24
08.140,7.34
08.156,2.42
08.171,-3.36
08.187,-9.65
08.203,-15.95
08.218,-21.63
08.234,-26.01
08.250,-28.37
08.265,-28.15
08.281,-25.07
08.296,-19.17
08.312,-10.88
08.328,-0.91
08.343,9.92
08.359,20.81
08.375,31.12
08.390,40.44
08.406,48.52
08.421,55.16
08.437,60.27
08.453,63.76
08.468,65.63
08.484,65.95
08.500,64.93
08.515,62.84
08.531,60.0
08.546,56.65
08.562,52.94
08.578,48.98
08.593,44.89
08.609,40.91
08.625,37.33
08.640,34.39
08.656,32.2
08.671,30.65
08.687,29.37
08.703,27.91
08.718,25.83
08.734,22.83
08.750,18.85
08.765,13.93
08.781,8.17
08.796,1.67
08.812,-5.5
08.828,-13.29
08.843,-21.54
08.859,-29.9
08.875,-37.72
08.890,-44.14
08.906,-48.2
08.921,-49.09
08.937,-46.4
08.953,-40.21
08.968,-31.09
08.984,-19.99
09.000,-8.02
09.015,3.72
09.031,14.4
09.046,23.5
09.062,30.79
09.078,36.25
09.093,39.99
09.109,42.16
09.125,43.02
09.140,42.92
09.156,42.3
09.171,41.68
09.187,41.47
09.203,41.86
09.218,42.72
09.234,43.69
09.250,44.32
09.265,44.28
09.281,43.44
09.296,41.77
09.312,39.32
09.328,36.02
09.343,31.76
09.359,26.34
09.375,19.64
09.390,11.64
09.406,2.58
09.421,-7.1
09.437,-16.82
09.453,-25.97
09.468,-34.1
09.484,-40.97
09.500,-46.53
09.515,-50.89
09.531,-54.23
09.546,-56.78
09.562,-58.78
09.578,-60.5
09.593,-62.0
09.609,-63.18
09.625,-63.51
09.640,-62.19
09.656,-58.46
09.671,-51.81
09.687,-42.39
09.703,-30.91
09.718,-18.52
09.734,-6.34
09.750,4.75
09.765,14.34
09.781,22.46
09.796,29.27
09.812,35.02
09.828,39.86
09.843,43.81
09.859,46.82
09.875,48.88
09.890,49.98
09.906,50.13
09.921,49.32
09.937,47.46
09.953,44.51
09.968,40.5
09.984,35.69
10.000,30.53
10.015,25.57
10.031,21.24
10.046,17.68
10.062,14.75
10.078,12.11
10.093,9.44
10.109,6.58
10.125,3.6
10.140,0.7
10.156,-1.9
10.171,-4.11
10.187,-5.97
10.203,-7.58
10.218,-9.13
10.234,-10.75
10.250,-12.49
10.265,-14.32
10.281,-16.18
10.296,-17.96
10.312,-19.69
10.328,-21.44
10.343,-23.4
10.359,-25.77
10.375,-28.67
10.390,-31.92
10.406,-35.04
10.421,-37.34
10.437,-38.04
10.453,-36.6
10.468,-32.88
10.484,-27.14
10.500,-19.99
10.515,-12.12
10.531,-4.09
10.546,3.78
10.562,11.4
10.578,18.8
10.593,25.94
10.609,32.67
10.625,38.68
10.640,43.62
10.656,47.13
10.671,48.92
10.687,48.83
10.703,46.85
10.718,43.17
10.734,38.22
10.750,32.71
10.765,27.54
10.781,23.62
10.796,21.64
10.812,21.81
10.828,23.81
10.843,26.82
10.859,29.86
10.875,32.0
10.890,32.68
10.906,31.75
10.921,29.39
10.937,25.89
10.953,21.54
10.968,16.54
10.984,11.06
11.000,5.42
11.015,0.08
11.031,-4.35
11.046,-7.35
11.062,-8.67
11.078,-8.54
11.093,-7.6
11.109,-6.6
11.125,-6.21
11.140,-6.72
11.156,-8.11
11.171,-10.17
11.187,-12.63
11.203,-15.14
11.218,-17.27
11.234,-18.45
11.250,-18.11
11.265,-15.93
11.281,-12.02
11.296,-7.0
11.312,-1.85
11.328,2.51
11.343,5.62
11.359,7.65
11.375,9.24
11.390,11.2
11.406,14.05
11.421,17.94
11.437,22.44
11.453,26.86
11.468,30.44
11.484,32.62
11.500,33.14
11.515,32.07
11.531,29.75
11.546,26.6
11.562,23.05
11.578,19.44
11.593,16.01
11.609,12.91
11.625,10.29
11.640,8.21
11.656,6.75
11.671,5.9
11.687,5.48
11.703,5.26
11.718,4.92
11.734,4.19
11.750,2.94
11.765,1.11
11.781,-1.3
11.796,-4.23
11.812,-7.67
11.828,-11.63
11.843,-16.13
11.859,-21.19
11.875,-26.88
11.890,-33.25
11.906,-40.28
11.921,-47.84
11.937,-55.63
11.953,-63.21
11.968,-70.07
11.984,-75.62
12.000,-79.33
12.015,-80.74
12.031,-79.61
12.046,-75.92
12.062,-69.94
12.078,-62.23
12.093,-53.49
12.109,-44.44
12.125,-35.58
12.140,-27.2
12.156,-19.35
12.171,-11.99
12.187,-5.07
12.203,1.37
12.218,7.23
12.234,12.36
12.250,16.56
12.265,19.68
12.281,21.52
12.296,22.04
12.312,21.31
12.328,19.56
12.343,17.22
12.359,14.78
12.375,12.74
12.390,11.38
12.406,10.73
12.421,10.62
12.437,10.84
12.453,11.18
12.468,11.53
12.484,11.88
12.500,12.33
12.515,13.11
12.531,14.57
12.546,17.21
12.562,21.44
12.578,27.46
12.593,34.91
12.609,42.78
12.625,49.53
12.640,53.42
12.656,53.1
12.671,48.0
12.687,38.5
12.703,25.67
12.718,11.11
12.734,-3.5
12.750,-16.29
12.765,-25.33
12.781,-28.68
12.796,-24.71
12.812,-12.54
12.828,7.51
12.843,33.92
12.859,64.29
12.875,95.92
12.890,126.31
12.906,153.33
12.921,175.29
12.937,190.8
12.953,198.95
12.968,199.39
12.984,192.71
13.000,180.43
13.015,164.9
13.031,148.78
13.046,134.4
13.062,123.16
13.078,115.15
13.093,109.15
13.109,102.95
13.125,94.0
13.140,79.97
13.156,59.2
13.171,30.97
13.187,-4.38
13.203,-45.44
13.218,-89.72
13.234,-133.96
13.250,-174.6
13.265,-208.65
13.281,-234.34
13.296,-251.64
13.312,-261.93
13.328,-267.32
13.343,-269.68
13.359,-270.09
13.375,-268.76
13.390,-265.51
13.406,-260.26
13.421,-253.46
13.437,-245.98
13.453,-238.81
13.468,-232.58
13.484,-227.31
13.500,-222.51
13.515,-217.37
13.531,-211.07
13.546,-202.98
13.562,-192.59
13.578,-179.56
13.593,-163.67
13.609,-144.94
13.625,-123.72
13.640,-100.73
13.656,-76.97
13.671,-53.46
13.687,-30.99
13.703,-10.03
13.718,9.3
13.734,27.02
13.750,43.12
13.765,57.47
13.781,69.83
13.796,79.96
13.812,87.73
13.828,93.18
13.843,96.4
13.859,97.62
13.875,97.08
13.890,95.0
13.906,91.66
13.921,87.34
13.937,82.28
13.953,76.61
13.968,70.22
13.984,62.82
14.000,54.17
14.015,44.2
14.031,33.2
14.046,21.76
14.062,10.72
14.078,0.96
14.093,-6.88
14.109,-12.42
14.125,-15.54
14.140,-16.37
14.156,-15.16
14.171,-12.28
14.187,-8.3
14.203,-3.94
14.218,-0.03
14.234,2.64
14.250,3.56
14.265,2.62
14.281,0.22
14.296,-2.84
14.312,-5.55
14.328,-6.78
14.343,-5.53
14.359,-1.04
14.375,7.14
14.390,18.96
14.406,33.91
14.421,50.96
14.437,68.71
14.453,85.71
14.468,100.67
14.484,112.71
14.500,121.43
14.515,126.9
14.531,129.59
14.546,130.2
14.562,129.38
14.578,127.62
14.593,125.06
14.609,121.57
14.625,116.99
14.640,111.44
14.656,105.6
14.671,100.75
14.687,98.32
14.703,99.35
14.718,104.0
14.734,111.18
14.750,118.69
14.765,123.78
14.781,123.87
14.796,117.35
14.812,104.1
14.828,85.68
14.843,64.99
14.859,45.49
14.875,29.95
14.890,19.52
14.906,13.28
14.921,8.79
14.937,3.34
14.953,-4.51
14.968,-14.13
14.984,-22.92
15.000,-27.5
15.015,-25.44
15.031,-16.46
15.046,-2.46
15.062,13.5
15.078,28.86
15.093,42.74
15.109,56.08
15.125,70.81
15.140,88.44
15.156,108.92
15.171,130.53
15.187,150.41
15.203,165.67
15.218,174.31
15.234,175.51
15.250,169.27
15.265,155.81
15.281,135.22
15.296,107.47
15.312,72.89
15.328,32.65
15.343,-11.19
15.359,-55.83
15.375,-98.17
15.390,-135.31
15.406,-164.78
15.421,-184.49
15.437,-192.84
15.453,-188.88
15.468,-172.97
15.484,-147.49
15.500,-116.9
15.515,-87.2
15.531,-64.47
15.546,-53.18
15.562,-54.9
15.578,-68.17
15.593,-89.25
15.609,-113.76
15.625,-138.24
15.640,-160.8
15.656,-180.94
15.671,-198.59
15.687,-213.27
15.703,-223.94
15.718,-229.51
15.734,-229.62
15.750,-225.12
15.765,-217.74
15.781,-209.07
15.796,-199.65
15.812,-188.51
15.828,-173.71
15.843,-153.41
15.859,-127.02
15.875,-95.46
15.890,-60.81
15.906,-25.43
15.921,8.78
15.937,40.47
15.953,68.37
15.968,90.92
15.984,106.17
16.000,112.43
16.015,109.03
16.031,96.89
16.046,78.63
16.062,57.98
16.078,38.75
16.093,24.03
16.109,15.59
16.125,13.61
16.140,16.75
16.156,22.57
16.171,28.04
16.187,30.35
16.203,27.61
16.218,19.28
16.234,6.05
16.250,-10.6
16.265,-29.13
16.281,-48.37
16.296,-67.54
16.312,-86.0
16.328,-102.83
16.343,-116.76
16.359,-126.39
16.375,-130.68
16.390,-129.43
16.406,-123.48
16.421,-114.52
16.437,-104.56
16.453,-95.42
16.468,-88.09
16.484,-82.58
16.500,-77.97
16.515,-72.78
16.531,-65.59
16.546,-55.6
16.562,-42.87
16.578,-28.29
16.593,-13.22
16.609,1.07
16.625,13.74
16.640,24.64
16.656,34.32
16.671,43.89
16.687,54.55
16.703,67.17
16.718,81.64
16.734,96.6
16.750,109.66
16.765,118.11
16.781,119.87
16.796,114.37
16.812,102.76
16.828,87.64
16.843,72.2
16.859,59.17
16.875,49.99
16.890,44.57
16.906,41.56
16.921,39.12
16.937,35.93
16.953,31.72
16.968,27.52
16.984,25.07
17.000,25.95
17.015,30.61
17.031,38.04
17.046,46.1
17.062,52.52
17.078,55.86
17.093,56.04
17.109,54.18
17.125,51.98
17.140,50.97
17.156,51.99
17.171,55.03
17.187,59.45
17.203,64.52
17.218,69.68
17.234,74.86
17.250,80.39
17.265,86.83
17.281,94.43
17.296,102.55
17.312,109.43
17.328,112.28
17.343,108.14
17.359,94.91
17.375,72.33
17.390,42.26
17.406,8.09
17.421,-26.61
17.437,-59.22
17.453,-88.85
17.468,-116.11
17.484,-142.3
17.500,-168.51
17.515,-195.0
17.531,-221.38
17.546,-246.87
17.562,-270.73
17.578,-292.11
17.593,-309.8
17.609,-321.99
17.625,-326.51
17.640,-321.48
17.656,-306.06
17.671,-281.09
17.687,-248.96
17.703,-212.96
17.718,-176.37
17.734,-141.84
17.750,-111.05
17.765,-84.81
17.781,-63.36
17.796,-46.49
17.812,-33.7
17.828,-24.18
17.843,-16.95
17.859,-11.08
17.875,-5.85
17.890,-0.93
17.906,3.77
17.921,8.22
17.937,12.44
17.953,16.43
17.968,20.18
17.984,23.55
18.000,26.31
18.015,28.19
18.031,29.01
18.046,28.76
18.062,27.6
18.078,25.84
18.093,23.82
18.109,21.82
18.125,19.91
18.140,17.81
18.156,14.89
18.171,10.33
18.187,3.39
18.203,-6.04
18.218,-17.24
18.234,-28.58
18.250,-37.9
18.265,-43.18
18.281,-43.11
18.296,-37.5
18.312,-27.27
18.328,-14.04
18.343,0.44
18.359,14.7
18.375,27.84
18.390,39.43
18.406,49.32
18.421,57.49
18.437,63.93
18.453,68.73
18.468,72.17
18.484,74.8
18.500,77.3
18.515,80.32
18.531,84.25
18.546,89.04
18.562,94.23
18.578,99.04
18.593,102.61
18.609,104.19
18.625,103.33
18.640,99.89
18.656,94.12
18.671,86.47
18.687,77.39
18.703,67.27
18.718,56.34
18.734,44.67
18.750,32.28
18.765,19.19
18.781,5.44
18.796,-8.75
18.812,-22.93
18.828,-36.33
18.843,-47.73
18.859,-55.71
18.875,-58.93
18.890,-56.64
18.906,-48.97
18.921,-37.05
18.937,-22.74
18.953,-8.04
18.968,5.4
18.984,16.73
19.000,25.79
19.015,32.91
19.031,38.51
19.046,42.85
19.062,45.99
19.078,47.93
19.093,48.82
19.109,48.99
19.125,49.0
19.140,49.29
19.156,49.97
19.171,50.73
19.187,50.93
19.203,49.89
19.218,47.25
19.234,43.12
19.250,38.01
19.265,32.63
19.281,27.51
19.296,22.8
19.312,18.32
19.328,13.69
19.343,8.58
19.359,2.8
19.375,-3.66
19.390,-10.71
19.406,-18.14
19.421,-25.51
19.437,-32.0
19.453,-36.42
19.468,-37.57
19.484,-34.55
19.500,-27.22
19.515,-16.26
19.531,-3.05
19.546,10.83
19.562,24.08
19.578,35.86
19.593,45.89
19.609,54.11
19.625,60.58
19.640,65.34
19.656,68.47
19.671,70.1
19.687,70.43
19.703,69.71
19.718,68.17
19.734,65.99
19.750,63.27
19.765,60.09
19.781,56.55
19.796,52.82
19.812,49.06
19.828,45.35
19.843,41.67
19.859,37.84
19.875,33.69
19.890,29.03
19.906,23.8
19.921,18.07
19.937,12.03
19.953,5.88
19.968,-0.26
19.984,-6.35
20.000,-12.44
20.015,-18.58
20.031,-24.72
20.046,-30.65
20.062,-35.85
20.078,-39.58
20.093,-40.94
20.109,-39.1
20.125,-33.55
20.140,-24.38
20.156,-12.35
20.171,1.34
20.187,15.3
20.203,28.42
20.218,39.97
20.234,49.7
20.250,57.62
20.265,63.9
20.281,68.65
20.296,71.96
20.312,73.87
20.328,74.43
20.343,73.66
20.359,71.61
20.375,68.36
20.390,64.07
20.406,59.0
20.421,53.45
20.437,47.78
20.453,42.28
20.468,37.09
20.484,32.26
20.500,27.67
20.515,23.19
20.531,18.69
20.546,14.01
20.562,9.11
20.578,4.0
20.593,-1.24
20.609,-6.43
20.625,-11.37
20.640,-15.89
20.656,-20.01
20.671,-23.99
20.687,-28.33
20.703,-33.46
20.718,-39.43
20.734,-45.64
20.750,-50.81
20.765,-53.34
20.781,-51.9
20.796,-45.91
20.812,-35.8
20.828,-22.8
20.843,-8.52
20.859,5.61
20.875,18.62
20.890,30.04
20.906,39.73
20.921,47.65
20.937,53.84
20.953,58.31
20.968,61.19
20.984,62.71
21.000,63.19
21.015,62.93
21.031,62.14
21.046,60.87
21.062,59.07
21.078,56.67
21.093,53.67
21.109,50.2
21.125,46.44
21.140,42.61
21.156,38.91
21.171,35.44
21.187,32.25
21.203,29.32
21.218,26.6
21.234,24.05
21.250,21.65
21.265,19.38
21.281,17.31
21.296,15.48
21.312,13.93
21.328,12.63
21.343,11.47
21.359,10.3
21.375,8.95
21.390,7.44
21.406,5.89
21.421,4.54
21.437,3.58
21.453,3.08
21.468,2.93
21.484,2.86
21.500,2.59
21.515,1.93
21.531,0.83
21.546,-0.66
21.562,-2.4
21.578,-4.26
21.593,-6.11
21.609,-7.81
21.625,-9.25
21.640,-10.37
21.656,-11.14
21.671,-11.59
21.687,-11.8
21.703,-11.92
21.718,-12.11
21.734,-12.55
21.750,-13.38
21.765,-14.69
21.781,-16.46
21.796,-18.54
21.812,-20.69
21.828,-22.63
21.843,-24.21
21.859,-25.45
21.875,-26.61
21.890,-28.04
21.906,-30.08
21.921,-32.84
21.937,-36.15
21.953,-39.62
21.968,-42.81
21.984,-45.43
22.000,-47.5
22.015,-49.27
22.031,-51.06
22.046,-53.22
22.062,-55.94
22.078,-59.29
22.093,-63.22
22.109,-67.4
22.125,-71.18
22.140,-73.5
22.156,-73.12
22.171,-68.95
22.187,-60.54
22.203,-48.28
22.218,-33.41
22.234,-17.63
22.250,-2.55
22.265,10.68
22.281,21.55
22.296,30.03
22.312,36.27
22.328,40.43
22.343,42.6
22.359,42.95
22.375,41.82
22.390,39.73
22.406,37.28
22.421,34.94
22.437,32.92
22.453,31.17
22.468,29.51
22.484,27.78
22.500,25.91
22.515,23.88
22.531,21.7
22.546,19.28
22.562,16.49
22.578,13.23
22.593,9.52
22.609,5.55
22.625,1.61
22.640,-2.05
22.656,-5.28
22.671,-8.14
22.687,-10.86
22.703,-13.71
22.718,-16.97
22.734,-20.83
22.750,-25.31
22.765,-30.19
22.781,-35.03
22.796,-39.05
22.812,-41.32
22.828,-40.95
22.843,-37.39
22.859,-30.65
22.875,-21.39
22.890,-10.75
22.906,0.07
22.921,10.1
22.937,18.87
22.953,26.34
22.968,32.68
22.984,38.06
23.000,42.47
23.015,45.77
23.031,47.86
23.046,48.76
23.062,48.62
23.078,47.73
23.093,46.31
23.109,44.5
23.125,42.38
23.140,40.05
23.156,37.68
23.171,35.58
23.187,33.98
23.203,32.97
23.218,32.39
23.234,31.88
23.250,31.02
23.265,29.58
23.281,27.55
23.296,25.14
23.312,22.63
23.328,20.18
23.343,17.84
23.359,15.57
23.375,13.4
23.390,11.39
23.406,9.74
23.421,8.56
23.437,7.81
23.453,7.29
23.468,6.7
23.484,5.77
23.500,4.39
23.515,2.59
23.531,0.47
23.546,-1.75
23.562,-3.89
23.578,-5.79
23.593,-7.32
23.609,-8.47
23.625,-9.36
23.640,-10.18
23.656,-11.14
23.671,-12.33
23.687,-13.71
23.703,-15.11
23.718,-16.34
23.734,-17.24
23.750,-17.84
23.765,-18.32
23.781,-18.9
23.796,-19.82
23.812,-21.17
23.828,-22.94
23.843,-24.96
23.859,-27.04
23.875,-29.03
23.890,-30.88
23.906,-32.72
23.921,-34.79
23.937,-37.29
23.953,-40.22
23.968,-43.36
23.984,-46.34
24.000,-48.77
24.015,-50.4
24.031,-51.3
24.046,-51.78
24.062,-52.34
24.078,-53.54
24.093,-55.75
24.109,-59.11
24.125,-63.42
24.140,-68.04
24.156,-71.99
24.171,-74.07
24.187,-73.12
24.203,-68.37
24.218,-59.72
24.234,-47.86
24.250,-34.09
24.265,-19.99
24.281,-7.0
24.296,3.87
24.312,12.25
24.328,18.22
24.343,22.15
24.359,24.49
24.375,25.61
24.390,25.87
24.406,25.59
24.421,25.08
24.437,24.57
24.453,24.15
24.468,23.72
24.484,23.11
24.500,22.12
24.515,20.62
24.531,18.68
24.546,16.51
24.562,14.35
24.578,12.39
24.593,10.68
24.609,9.13
24.625,7.56
24.640,5.79
24.656,3.71
24.671,1.28
24.687,-1.47
24.703,-4.55
24.718,-8.1
24.734,-12.24
24.750,-16.97
24.765,-22.02
24.781,-26.75
24.796,-30.22
24.812,-31.41
24.828,-29.52
24.843,-24.18
24.859,-15.59
24.875,-4.46
24.890,8.22
24.906,21.41
24.921,34.22
24.937,46.08
24.953,56.72
24.968,66.05
24.984,73.98
25.000,80.42
25.015,85.24
25.031,88.36
25.046,89.95
25.062,90.48
25.078,90.65
25.093,91.26
25.109,92.86
25.125,95.47
25.140,98.49
25.156,100.61
25.171,100.13
25.187,95.41
25.203,85.43
25.218,70.1
25.234,50.34
25.250,27.87
25.265,4.78
25.281,-17.0
25.296,-35.97
25.312,-51.35
25.328,-63.07
25.343,-71.73
25.359,-78.46
25.375,-84.67
25.390,-91.59
25.406,-99.91
25.421,-109.36
25.437,-118.74
25.453,-126.19
25.468,-129.77
25.484,-128.11
25.500,-120.76
25.515,-108.35
25.531,-92.3
25.546,-74.36
25.562,-56.22
25.578,-39.2
25.593,-24.13
25.609,-11.36
25.625,-0.92
25.640,7.42
25.656,14.04
25.671,19.3
25.687,23.55
25.703,26.94
25.718,29.5
25.734,31.03
25.750,31.32
25.765,30.23
25.781,27.85
25.796,24.59
25.812,21.07
25.828,18.02
25.843,15.91
25.859,14.82
25.875,14.31
25.890,13.67
25.906,12.25
25.921,9.71
25.937,6.25
25.953,2.37
25.968,-1.39
25.984,-4.75
26.000,-7.72
26.015,-10.62
26.031,-13.84
26.046,-17.66
26.062,-22.16
26.078,-27.16
26.093,-32.23
26.109,-36.65
26.125,-39.59
26.140,-40.17
26.156,-37.77
26.171,-32.28
26.187,-24.19
26.203,-14.42
26.218,-4.01
26.234,6.22
26.250,15.77
26.265,24.35
26.281,31.55
26.296,36.71
26.312,38.96
26.328,37.55
26.343,32.32
26.359,24.02
26.375,14.21
26.390,4.87
26.406,-2.17
26.421,-5.69
26.437,-5.34
26.453,-1.45
26.468,5.22
26.484,13.78
26.500,23.38
26.515,33.23
26.531,42.59
26.546,50.76
26.562,57.16
26.578,61.48
26.593,63.66
26.609,63.93
26.625,62.7
26.640,60.42
26.656,57.48
26.671,54.18
26.687,50.59
26.703,46.67
26.718,42.28
26.734,37.28
26.750,31.8
26.765,26.27
26.781,21.5
26.796,18.36
26.812,17.43
26.828,18.66
26.843,21.23
26.859,23.8
26.875,24.9
26.890,23.51
26.906,19.36
26.921,12.86
26.937,5.02
26.953,-3.0
26.968,-10.16
26.984,-15.67
27.000,-19.13
27.015,-20.54
27.031,-20.24
27.046,-18.87
27.062,-17.28
27.078,-16.27
27.093,-16.43
27.109,-18.0
27.125,-20.82
27.140,-24.43
27.156,-28.25
27.171,-31.69
27.187,-34.33
27.203,-35.97
27.218,-36.74
27.234,-37.02
27.250,-37.4
27.265,-38.53
27.281,-40.88
27.296,-44.59
27.312,-49.47
27.328,-55.04
27.343,-60.66
27.359,-65.85
27.375,-70.3
27.390,-74.02
27.406,-77.17
27.421,-80.07
27.437,-82.96
27.453,-86.05
27.468,-89.24
27.484,-92.14
27.500,-94.02
27.515,-93.96
27.531,-91.09
27.546,-84.85
27.562,-75.23
27.578,-62.73
27.593,-48.36
27.609,-33.24
27.625,-18.45
27.640,-4.88
27.656,6.94
27.671,16.72
27.687,24.39
27.703,30.02
27.718,33.84
27.734,36.15
27.750,37.36
27.765,37.88
27.781,38.09
27.796,38.3
27.812,38.58
27.828,38.85
27.843,38.92
27.859,38.64
27.875,37.91
27.890,36.76
27.906,35.28
27.921,33.52
27.937,31.52
27.953,29.26
27.968,26.7
27.984,23.86
28.000,20.84
28.015,17.75
28.031,14.71
28.046,11.81
28.062,9.02
28.078,6.14
28.093,2.76
28.109,-1.57
28.125,-7.13
28.140,-13.71
28.156,-20.47
28.171,-25.97
28.187,-28.58
28.203,-27.05
28.218,-20.9
28.234,-10.67
28.250,2.24
28.265,15.99
28.281,28.73
28.296,39.11
28.312,46.47
28.328,50.86
28.343,52.9
28.359,53.53
28.375,53.7
28.390,54.23
28.406,55.64
28.421,58.03
28.437,61.13
28.453,64.32
28.468,66.74
28.484,67.57
28.500,66.36
28.515,63.2
28.531,58.76
28.546,54.05
28.562,50.0
28.578,47.11
28.593,45.24
28.609,43.79
28.625,41.93
28.640,39.11
28.656,35.19
28.671,30.58
28.687,26.08
28.703,22.58
28.718,20.75
28.734,20.78
28.750,22.25
28.765,24.3
28.781,26.05
28.796,26.86
28.812,26.7
28.828,26.03
28.843,25.54
28.859,25.81
28.875,27.01
28.890,28.89
28.906,30.95
28.921,32.73
28.937,33.91
28.953,34.39
28.968,34.13
28.984,33.08
29.000,31.18
29.015,28.33
29.031,24.57
29.046,19.96
29.062,14.63
29.078,8.64
29.093,1.92
29.109,-5.58
29.125,-13.83
29.140,-22.53
29.156,-31.19
29.171,-39.22
29.187,-46.22
29.203,-52.19
29.218,-57.59
29.234,-63.23
29.250,-69.89
29.265,-78.07
29.281,-87.73
29.296,-98.32
29.312,-108.97
29.328,-118.84
29.343,-127.26
29.359,-133.92
29.375,-138.87
29.390,-142.3
29.406,-144.58
29.421,-146.04
29.437,-146.93
29.453,-147.28
29.468,-146.82
29.484,-144.97
29.500,-140.93
29.515,-134.06
29.531,-124.04
29.546,-111.16
29.562,-96.18
29.578,-80.12
29.593,-64.0
29.609,-48.57
29.625,-34.31
29.640,-21.47
29.656,-10.24
29.671,-0.76
29.687,6.78
29.703,12.31
29.718,15.95
29.734,18.12
29.750,19.47
29.765,20.82
29.781,22.94
29.796,26.35
29.812,31.26
29.828,37.56
29.843,44.86
29.859,52.7
29.875,60.66
29.890,68.46
29.906,75.95
29.921,83.09
29.937,89.8
29.953,96.01
29.968,101.59
29.984,106.38
30.000,110.3
30.015,113.36
30.031,115.59
30.046,117.11
30.062,117.97
30.078,118.21
30.093,117.85
30.109,116.93
30.125,115.54
30.140,113.89
30.156,112.14
30.171,110.49
30.187,109.04
30.203,107.81
30.218,106.81
30.234,106.0
30.250,105.28
30.265,104.37
30.281,102.76
30.296,99.72
30.312,94.52
30.328,86.71
30.343,76.36
30.359,64.08
30.375,50.63
30.390,36.41
30.406,20.94
30.421,2.95
30.437,-19.15
30.453,-46.42
30.468,-78.57
30.484,-113.77
30.500,-149.09
30.515,-181.33
30.531,-207.83
30.546,-226.68
30.562,-236.5
30.578,-236.07
30.593,-224.35
30.609,-200.94
30.625,-166.83
30.640,-124.58
30.656,-78.0
30.671,-31.23
30.687,12.18
30.703,49.49
30.718,78.48
30.734,96.96
30.750,102.89
30.765,95.0
30.781,74.0
30.796,42.99
30.812,7.1
30.828,-28.07
30.843,-58.02
30.859,-80.38
30.875,-94.78
30.890,-101.75
30.906,-101.86
30.921,-95.16
30.937,-81.85
30.953,-63.15
30.968,-41.93
30.984,-22.29
31.000,-8.38
31.015,-2.89
31.031,-5.86
31.046,-14.73
31.062,-25.24
31.078,-32.94
31.093,-34.86
31.109,-30.29
31.125,-20.89
31.140,-9.93
31.156,-0.93
31.171,3.48
31.187,2.36
31.203,-3.38
31.218,-11.41
31.234,-18.92
31.250,-23.45
31.265,-23.62
31.281,-19.25
31.296,-11.11
31.312,-0.35
31.328,11.85
31.343,24.57
31.359,37.17
31.375,49.18
31.390,60.35
31.406,70.66
31.421,80.3
31.437,89.71
31.453,99.32
31.468,109.19
31.484,118.84
31.500,127.4
31.515,133.89
31.531,137.94
31.546,140.12
31.562,141.89
31.578,145.16
31.593,151.41
31.609,161.1
31.625,173.34
31.640,186.07
31.656,196.48
31.671,201.74
31.687,199.52
31.703,188.49
31.718,168.71
31.734,141.81
31.750,110.82
31.765,79.64
31.781,52.24
31.796,31.71
31.812,19.82
31.828,16.78
31.843,21.25
31.859,30.67
31.875,41.34
31.890,48.94
31.906,49.27
31.921,39.36
31.937,18.36
31.953,-12.08
31.968,-48.18
31.984,-85.32
32.000,-119.24
32.015,-147.17
32.031,-168.08
32.046,-182.57
32.062,-192.38
32.078,-199.68
32.093,-206.54
32.109,-214.38
32.125,-223.55
32.140,-233.29
32.156,-242.04
32.171,-247.91
32.187,-249.28
32.203,-245.22
32.218,-235.53
32.234,-220.71
32.250,-201.78
32.265,-180.1
32.281,-157.26
32.296,-134.88
32.312,-114.32
32.328,-96.46
32.343,-81.52
32.359,-69.13
32.375,-58.52
32.390,-48.77
32.406,-39.11
32.421,-29.17
32.437,-19.06
32.453,-9.37
32.468,-0.89
32.484,5.62
32.500,9.68
32.515,11.24
32.531,10.56
32.546,8.05
32.562,4.08
32.578,-1.1
32.593,-7.34
32.609,-14.58
32.625,-22.74
32.640,-31.83
32.656,-41.93
32.671,-53.03
32.687,-64.84
32.703,-76.61
32.718,-87.08
32.734,-94.81
32.750,-98.56
32.765,-97.78
32.781,-92.75
32.796,-84.63
32.812,-75.07
32.828,-65.73
32.843,-57.91
32.859,-52.18
32.875,-48.26
32.890,-45.07
32.906,-40.92
32.921,-33.85
32.937,-22.13
32.953,-4.64
32.968,18.87
32.984,47.72
33.000,80.41
33.015,114.77
33.031,148.24
33.046,178.16
33.062,202.25
33.078,219.05
33.093,228.42
33.109,231.75
33.125,231.65
33.140,231.22
33.156,232.8
33.171,237.06
33.187,242.5
33.203,245.94
33.218,243.64
33.234,232.63
33.250,211.69
33.265,181.56
33.281,144.51
33.296,103.49
33.312,61.29
33.328,20.07
33.343,-18.7
33.359,-54.19
33.375,-85.97
33.390,-113.93
33.406,-138.4
33.421,-160.01
33.437,-179.65
33.453,-198.25
33.468,-216.48
33.484,-234.53
33.500,-252.06
33.515,-268.11
33.531,-281.24
33.546,-289.84
33.562,-292.4
33.578,-287.93
33.593,-276.38
33.609,-258.6
33.625,-236.21
33.640,-211.1
33.656,-184.94
33.671,-158.9
33.687,-133.56
33.703,-109.18
33.718,-86.04
33.734,-64.63
33.750,-45.57
33.765,-29.35
33.781,-16.09
33.796,-5.4
33.812,3.45
33.828,11.22
33.843,18.45
33.859,25.32
33.875,31.71
33.890,37.47
33.906,42.54
33.921,47.01
33.937,51.01
33.953,54.57
33.968,57.43
33.984,59.12
34.000,59.11
34.015,56.95
34.031,52.49
34.046,45.9
34.062,37.7
34.078,28.71
34.093,19.93
34.109,12.26
34.125,6.26
34.140,1.94
34.156,-1.27
34.171,-4.28
34.187,-8.0
34.203,-13.01
34.218,-19.37
34.234,-26.51
34.250,-33.35
34.265,-38.55
34.281,-40.75
34.296,-38.92
34.312,-32.66
34.328,-22.28
34.343,-8.84
34.359,6.24
34.375,21.56
34.390,35.98
34.406,48.87
34.421,59.91
34.437,69.0
34.453,76.09
34.468,81.1
34.484,84.04
34.500,85.13
34.515,84.83
34.531,83.77
34.546,82.61
34.562,81.84
34.578,81.57
34.593,81.56
34.609,81.33
34.625,80.39
34.640,78.48
34.656,75.61
34.671,71.97
34.687,67.76
34.703,63.02
34.718,57.6
34.734,51.29
34.750,44.03
34.765,36.03
34.781,27.76
34.796,19.77
34.812,12.57
34.828,6.37
34.843,1.07
34.859,-3.71
34.875,-8.47
34.890,-13.63
34.906,-19.43
34.921,-25.79
34.937,-32.21
34.953,-37.77
34.968,-41.31
34.984,-41.73
35.000,-38.27
35.015,-30.85
35.031,-20.02
35.046,-6.93
35.062,7.13
35.078,20.97
35.093,33.78
35.109,45.18
35.125,55.1
35.140,63.57
35.156,70.53
35.171,75.87
35.187,79.47
35.203,81.32
35.218,81.69
35.234,81.05
35.250,79.98
35.265,78.95
35.281,78.17
35.296,77.57
35.312,76.87
35.328,75.79
35.343,74.15
35.359,71.98
35.375,69.31
35.390,66.21
35.406,62.61
35.421,58.41
35.437,53.58
35.453,48.22
35.468,42.58
35.484,36.98
35.500,31.72
35.515,26.76
35.531,21.76
35.546,16.07
35.562,9.02
35.578,0.17
35.593,-10.47
35.609,-22.48
35.625,-35.08
35.640,-47.33
35.656,-58.36
35.671,-67.28
35.687,-73.26
35.703,-75.6
35.718,-73.83
35.734,-67.91
35.750,-58.33
35.765,-46.06
35.781,-32.35
35.796,-18.46
35.812,-5.34
35.828,6.42
35.843,16.62
35.859,25.36
35.875,32.8
35.890,39.13
35.906,44.41
35.921,48.61
35.937,51.63
35.953,53.44
35.968,54.09
35.984,53.72
36.000,52.53
36.015,50.72
36.031,48.43
36.046,45.74
36.062,42.7
36.078,39.42
36.093,36.07
36.109,32.86
36.125,29.92
36.140,27.28
36.156,24.84
36.171,22.43
36.187,19.87
36.203,17.06
36.218,14.0
36.234,10.75
36.250,7.41
36.265,4.03
36.281,0.61
36.296,-2.92
36.312,-6.6
36.328,-10.37
36.343,-13.97
36.359,-16.98
36.375,-18.81
36.390,-18.89
36.406,-16.82
36.421,-12.41
36.437,-5.81
36.453,2.7
36.468,12.69
36.484,23.73
36.500,35.43
36.515,47.24
36.531,58.44
36.546,68.07
36.562,75.12
36.578,78.75
36.593,78.69
36.609,75.4
36.625,69.93
36.640,63.63
36.656,57.65
36.671,52.56
36.687,48.22
36.703,44.09
36.718,39.5
36.734,34.11
36.750,28.05
36.765,21.93
36.781,16.72
36.796,13.55
36.812,13.33
36.828,16.32
36.843,21.62
36.859,27.09
36.875,29.8
36.890,27.01
36.906,17.25
36.921,1.05
36.937,-19.22
36.953,-40.29
36.968,-59.14
36.984,-73.94
37.000,-84.17
37.015,-90.09
37.031,-92.01
37.046,-89.9
37.062,-83.48
37.078,-72.71
37.093,-58.22
37.109,-41.48
37.125,-24.38
37.140,-8.74
37.156,4.36
37.171,14.9
37.187,23.85
37.203,32.8
37.218,43.37
37.234,56.71
37.250,73.08
37.265,91.81
37.281,111.33
37.296,129.5
37.312,144.12
37.328,153.53
37.343,156.96
37.359,154.66
37.375,147.66
37.390,137.4
37.406,125.31
37.421,112.63
37.437,100.27
37.453,88.86
37.468,78.77
37.484,70.02
37.500,62.44
37.515,55.7
37.531,49.63
37.546,44.34
37.562,39.94
37.578,36.07
37.593,31.62
37.609,24.83
37.625,14.08
37.640,-1.13
37.656,-19.67
37.671,-39.12
37.687,-56.77
37.703,-70.98
37.718,-81.84
37.734,-90.99
37.750,-100.6
37.765,-112.3
37.781,-126.37
37.796,-141.91
37.812,-157.51
37.828,-171.87
37.843,-184.17
37.859,-193.99
37.875,-200.96
37.890,-204.42
37.906,-203.47
37.921,-197.01
37.937,-184.17
37.953,-164.67
37.968,-139.12
37.984,-109.18
38.000,-77.33
38.015,-46.39
38.031,-18.82
38.046,3.86
38.062,21.31
38.078,34.17
38.093,43.45
38.109,50.05
38.125,54.39
38.140,56.48
38.156,56.15
38.171,53.15
38.187,47.15
38.203,37.64
38.218,23.96
38.234,5.56
38.250,-17.35
38.265,-43.46
38.281,-70.06
38.296,-93.35
38.312,-109.14
38.328,-113.89
38.343,-105.64
38.359,-84.69
38.375,-53.53
38.390,-16.2
38.406,22.68
38.421,58.87
38.437,89.08
38.453,111.04
38.468,123.16
38.484,124.5
38.500,114.7
38.515,94.46
38.531,65.9
38.546,32.61
38.562,-0.82
38.578,-29.85
38.593,-51.08
38.609,-62.95
38.625,-65.83
38.640,-61.67
38.656,-53.3
38.671,-43.74
38.687,-35.77
38.703,-31.54
38.718,-32.29
38.734,-38.27
38.750,-48.57
38.765,-61.31
38.781,-74.01
38.796,-84.19
38.812,-89.99
38.828,-90.51
38.843,-85.82
38.859,-76.66
38.875,-64.0
38.890,-48.74
38.906,-31.62
38.921,-13.27
38.937,5.64
38.953,24.34
38.968,41.97
38.984,57.76
39.000,71.13
39.015,81.76
39.031,89.65
39.046,95.05
39.062,98.46
39.078,100.41
39.093,101.38
39.109,101.43
39.125,100.26
39.140,97.39
39.156,92.67
39.171,86.77
39.187,81.33
39.203,78.61
39.218,80.53
39.234,87.76
39.250,99.09
39.265,111.66
39.281,121.98
39.296,127.26
39.312,126.42
39.328,120.47
39.343,111.87
39.359,103.45
39.375,97.23
39.390,93.55
39.406,90.97
39.421,86.76
39.437,77.87
39.453,61.78
39.468,37.14
39.484,3.9
39.500,-36.73
39.515,-82.55
39.531,-130.69
39.546,-177.86
39.562,-220.74
39.578,-256.31
39.593,-282.23
39.609,-297.1
39.625,-300.59
39.640,-293.47
39.656,-277.42
39.671,-254.88
39.687,-228.85
39.703,-202.39
39.718,-178.32
39.734,-158.68
39.750,-144.35
39.765,-134.96
39.781,-129.15
39.796,-125.01
39.812,-120.75
39.828,-115.15
39.843,-107.66
39.859,-98.3
39.875,-87.41
39.890,-75.34
39.906,-62.41
39.921,-48.98
39.937,-35.54
39.953,-22.72
39.968,-11.16
39.984,-1.36
40.000,6.55
40.015,12.84
40.031,17.99
40.046,22.5
40.062,26.68
40.078,30.49
40.093,33.61
40.109,35.58
40.125,35.91
40.140,34.33
40.156,30.83
40.171,25.79
40.187,19.79
40.203,13.55
40.218,7.69
40.234,2.64
40.250,-1.38
40.265,-4.38
40.281,-6.56
40.296,-8.28
40.312,-9.93
40.328,-11.96
40.343,-14.76
40.359,-18.6
40.375,-23.47
40.390,-29.07
40.406,-34.71
40.421,-39.44
40.437,-42.23
40.453,-42.18
40.468,-38.79
40.484,-32.11
40.500,-22.8
40.515,-11.93
40.531,-0.71
40.546,9.82
40.562,19.03
40.578,26.7
40.593,33.03
40.609,38.42
40.625,43.23
40.640,47.67
40.656,51.74
40.671,55.24
40.687,57.96
40.703,59.73
40.718,60.52
40.734,60.52
40.750,60.06
40.765,59.57
40.781,59.42
40.796,59.84
40.812,60.78
40.828,61.96
40.843,62.99
40.859,63.54
40.875,63.51
40.890,63.06
40.906,62.57
40.921,62.43
40.937,62.91
40.953,64.06
40.968,65.7
40.984,67.63
41.000,69.67
41.015,71.81
41.031,74.14
41.046,76.76
41.062,79.67
41.078,82.72
41.093,85.47
41.109,87.42
41.125,88.2
41.140,87.65
41.156,86.01
41.171,83.86
41.187,81.93
41.203,80.93
41.218,81.33
41.234,83.16
41.250,85.89
41.265,88.32
41.281,88.6
41.296,84.51
41.312,74.0
41.328,55.92
41.343,30.64
41.359,0.37
41.375,-31.37
41.390,-60.39
41.406,-83.01
41.421,-96.79
41.437,-101.01
41.453,-96.37
41.468,-84.51
41.484,-67.37
41.500,-46.68
41.515,-23.87
41.531,-0.15
41.546,23.32
41.562,45.28
41.578,64.41
41.593,79.37
41.609,88.92
41.625,91.9
41.640,87.44
41.656,75.19
41.671,55.72
41.687,30.79
41.703,3.4
41.718,-22.61
41.734,-43.48
41.750,-56.53
41.765,-60.97
41.781,-58.12
41.796,-51.07
41.812,-43.83
41.828,-40.21
41.843,-42.83
41.859,-52.33
41.875,-67.43
41.890,-85.34
41.906,-102.85
41.921,-117.34
41.937,-127.52
41.953,-133.53
41.968,-136.3
41.984,-136.71
42.000,-134.83
42.015,-129.87
42.031,-120.71
42.046,-106.79
42.062,-88.76
42.078,-68.54
42.093,-48.68
42.109,-31.42
42.125,-17.95
42.140,-8.3
42.156,-1.72
42.171,2.54
42.187,4.71
42.203,4.53
42.218,1.72
42.234,-3.45
42.250,-9.89
42.265,-16.03
42.281,-20.49
42.296,-22.61
42.312,-22.52
42.328,-20.87
42.343,-18.14
42.359,-14.3
42.375,-8.75
42.390,-0.82
42.406,9.7
42.421,22.26
42.437,35.71
42.453,48.73
42.468,60.51
42.484,71.0
42.500,80.78
42.515,90.66
42.531,101.12
42.546,111.96
42.562,122.32
42.578,130.83
42.593,136.04
42.609,136.61
42.625,131.54
42.640,120.2
42.656,102.51
42.671,79.07
42.687,51.3
42.703,21.39
42.718,-8.01
42.734,-34.35
42.750,-55.72
42.765,-71.32
42.781,-81.74
42.796,-88.7
42.812,-94.62
42.828,-101.91
42.843,-112.15
42.859,-125.67
42.875,-141.39
42.890,-157.16
42.906,-170.41
42.921,-178.83
42.937,-180.83
42.953,-175.74
42.968,-163.74
42.984,-145.66
43.000,-122.83
43.015,-96.97
43.031,-70.02
43.046,-43.86
43.062,-19.98
43.078,0.78
43.093,18.39
43.109,33.45
43.125,46.95
43.140,59.85
43.156,72.69
43.171,85.43
43.187,97.39
43.203,107.4
43.218,114.12
43.234,116.48
43.250,113.94
43.265,106.71
43.281,95.59
43.296,81.73
43.312,66.41
43.328,50.8
43.343,35.96
43.359,22.76
43.375,11.78
43.390,3.13
43.406,-3.7
43.421,-9.66
43.437,-15.68
43.453,-22.1
43.468,-28.48
43.484,-33.64
43.500,-36.29
43.515,-35.65
43.531,-31.84
43.546,-25.72
43.562,-18.43
43.578,-10.83
43.593,-3.28
43.609,4.09
43.625,11.05
43.640,16.97
43.656,21.09
43.671,23.03
43.687,23.32
43.703,23.3
43.718,24.47
43.734,27.53
43.750,31.73
43.765,34.91
43.781,34.45
43.796,28.43
43.812,16.7
43.828,1.02
43.843,-15.7
43.859,-30.49
43.875,-41.37
43.890,-47.75
43.906,-50.29
43.921,-50.29
43.937,-49.16
43.953,-47.97
43.968,-47.41
43.984,-47.83
44.000,-49.26
44.015,-51.42
44.031,-53.77
44.046,-55.54
44.062,-55.92
44.078,-54.23
44.093,-50.25
44.109,-44.3
44.125,-37.24
44.140,-30.31
44.156,-24.77
44.171,-21.45
44.187,-20.49
44.203,-21.32
44.218,-22.83
44.234,-23.63
44.250,-22.38
44.265,-17.95
44.281,-9.49
44.296,3.31
44.312,20.17
44.328,40.11
44.343,61.63
44.359,83.15
44.375,103.35
44.390,121.42
44.406,136.94
44.421,149.44
44.437,158.18
44.453,162.26
44.468,161.06
44.484,154.74
44.500,144.28
44.515,131.02
44.531,116.01
44.546,99.51
44.562,81.18
44.578,60.63
44.593,38.19
44.609,15.08
44.625,-6.89
44.640,-26.23
44.656,-42.39
44.671,-55.99
44.687,-68.34
44.703,-80.67
44.718,-93.43
44.734,-106.08
44.750,-117.31
44.765,-125.64
44.781,-130.01
44.796,-130.16
44.812,-126.65
44.828,-120.68
44.843,-113.68
44.859,-106.95
44.875,-101.42
44.890,-97.55
44.906,-95.31
44.921,-94.23
44.937,-93.32
44.953,-91.3
44.968,-86.78
44.984,-78.62
45.000,-66.33
45.015,-50.2
45.031,-31.2
45.046,-10.74
45.062,9.74
45.078,29.0
45.093,46.17
45.109,60.68
45.125,72.23
45.140,80.79
45.156,86.57
45.171,90.07
45.187,91.95
45.203,92.86
45.218,93.35
45.234,93.65
45.250,93.76
45.265,93.5
45.281,92.62
45.296,90.91
45.312,88.28
45.328,84.77
45.343,80.49
45.359,75.64
45.375,70.39
45.390,64.86
45.406,59.13
45.421,53.23
45.437,47.22
45.453,41.18
45.468,35.24
45.484,29.54
45.500,24.2
45.515,19.33
45.531,15.04
45.546,11.39
45.562,8.39
45.578,6.01
45.593,4.12
45.609,2.59
45.625,1.34
45.640,0.35
45.656,-0.42
45.671,-1.06
45.687,-1.75
45.703,-2.62
45.718,-3.68
45.734,-4.74
45.750,-5.49
45.765,-5.6
45.781,-4.89
45.796,-3.4
45.812,-1.48
45.828,0.46
45.843,2.1
45.859,3.28
45.875,4.0
45.890,4.42
45.906,4.72
45.921,4.99
45.937,5.2
45.953,5.22
45.968,4.84
45.984,3.91
46.000,2.46
46.015,0.59
46.031,-1.49
46.046,-3.64
46.062,-5.88
46.078,-8.31
46.093,-11.04
46.109,-14.04
46.125,-17.13
46.140,-19.96
46.156,-22.22
46.171,-23.76
46.187,-24.65
46.203,-25.16
46.218,-25.59
46.234,-26.23
46.250,-27.31
46.265,-29.01
46.281,-31.48
46.296,-34.54
46.312,-37.67
46.328,-39.8
46.343,-39.52
46.359,-35.45
46.375,-26.68
46.390,-13.1
46.406,4.52
46.421,24.78
46.437,46.06
46.453,66.95
46.468,86.51
46.484,104.25
46.500,120.02
46.515,133.8
46.531,145.6
46.546,155.5
46.562,163.85
46.578,171.29
46.593,178.71
46.609,186.83
46.625,195.69
46.640,204.31
46.656,210.72
46.671,212.41
46.687,207.21
46.703,193.99
46.718,173.15
46.734,146.51
46.750,116.83
46.765,87.15
46.781,60.25
46.796,38.22
46.812,22.32
46.828,13.0
46.843,10.08
46.859,13.0
46.875,21.06
46.890,33.53
46.906,49.73
46.921,68.89
46.937,89.92
46.953,110.95
46.968,129.26
46.984,141.42
47.000,143.94
47.015,134.18
47.031,111.21
47.046,76.46
47.062,33.59
47.078,-12.18
47.093,-55.46
47.109,-92.08
47.125,-120.04
47.140,-139.74
47.156,-153.35
47.171,-163.69
47.187,-173.1
47.203,-182.77
47.218,-192.7
47.234,-202.1
47.250,-210.03
47.265,-215.86
47.281,-219.22
47.296,-219.86
47.312,-217.39
47.328,-211.58
47.343,-202.74
47.359,-192.18
47.375,-182.16
47.390,-175.2
47.406,-173.16
47.421,-176.35
47.437,-183.26
47.453,-190.98
47.468,-196.36
47.484,-197.02
47.500,-192.04
47.515,-182.04
47.531,-168.59
47.546,-153.61
47.562,-138.73
47.578,-125.15
47.593,-113.69
47.609,-104.85
47.625,-98.85
47.640,-95.47
47.656,-94.01
47.671,-93.19
47.687,-91.45
47.703,-87.25
47.718,-79.63
47.734,-68.56
47.750,-55.02
47.765,-40.72
47.781,-27.51
47.796,-16.89
47.812,-9.53
47.828,-5.36
47.843,-3.79
47.859,-4.05
47.875,-5.46
47.890,-7.42
47.906,-9.38
47.921,-10.62
47.937,-10.36
47.953,-7.85
47.968,-2.75
47.984,4.74
48.000,13.94
48.015,23.75
48.031,33.12
48.046,41.13
48.062,47.13
48.078,50.78
48.093,52.09
48.109,51.33
48.125,49.03
48.140,46.01
48.156,42.96
48.171,40.44
48.187,38.57
48.203,37.03
48.218,35.17
48.234,32.28
48.250,27.83
48.265,21.7
48.281,14.42
48.296,6.98
48.312,0.84
48.328,-2.53
48.343,-2.01
48.359,2.83
48.375,11.55
48.390,22.98
48.406,35.65
48.421,48.38
48.437,60.49
48.453,71.99
48.468,83.19
48.484,94.38
48.500,105.53
48.515,116.25
48.531,125.92
48.546,133.95
48.562,139.96
48.578,143.8
48.593,145.63
48.609,145.71
48.625,144.37
48.640,142.02
48.656,138.92
48.671,135.16
48.687,130.63
48.703,125.05
48.718,117.99
48.734,109.12
48.750,98.23
48.765,85.27
48.781,70.29
48.796,53.4
48.812,34.76
48.828,14.69
48.843,-6.32
48.859,-27.68
48.875,-48.84
48.890,-69.39
48.906,-89.13
48.921,-107.81
48.937,-124.97
48.953,-139.75
48.968,-151.05
48.984,-157.8
49.000,-159.42
49.015,-156.06
49.031,-148.61
49.046,-138.41
49.062,-126.85
49.078,-114.99
49.093,-103.29
49.109,-91.82
49.125,-80.39
49.140,-68.93
49.156,-57.59
49.171,-46.81
49.187,-37.15
49.203,-28.99
49.218,-22.44
49.234,-17.28
49.250,-13.13
49.265,-9.61
49.281,-6.61
49.296,-4.19
49.312,-2.47
49.328,-1.49
49.343,-1.12
49.359,-1.04
49.375,-1.0
49.390,-0.87
49.406,-0.75
49.421,-0.9
49.437,-1.58
49.453,-2.93
49.468,-5.02
49.484,-7.79
49.500,-11.23
49.515,-15.35
49.531,-20.17
49.546,-25.42
49.562,-30.54
49.578,-34.58
49.593,-36.41
49.609,-35.06
49.625,-30.0
49.640,-21.36
49.656,-9.96
49.671,2.98
49.687,16.22
49.703,28.74
49.718,39.9
49.734,49.46
49.750,57.41
49.765,63.82
49.781,68.82
49.796,72.47
49.812,74.87
49.828,76.18
49.843,76.53
49.859,76.06
49.875,74.8
49.890,72.69
49.906,69.73
49.921,66.03
49.937,61.89
49.953,57.65
49.968,53.63
49.984,49.93
50.000,46.41
50.015,42.74
50.031,38.56
50.046,33.65
50.062,28.03
50.078,21.96
50.093,15.88
50.109,10.17
50.125,5.13
50.140,0.84
50.156,-2.9
50.171,-6.5
50.187,-10.44
50.203,-15.07
50.218,-20.34
50.234,-25.67
50.250,-30.03
50.265,-32.22
50.281,-31.3
50.296,-26.9
50.312,-19.38
50.328,-9.65
50.343,1.11
50.359,11.86
50.375,21.89
50.390,30.83
50.406,38.47
50.421,44.69
50.437,49.34
50.453,52.3
50.468,53.61
50.484,53.54
50.500,52.54
50.515,51.12
50.531,49.66
50.546,48.31
50.562,46.96
50.578,45.35
50.593,43.17
50.609,40.24
50.625,36.56
50.640,32.37
50.656,28.0
50.671,23.79
50.687,19.94
50.703,16.42
50.718,13.03
50.734,9.47
50.750,5.47
50.765,0.98
50.781,-3.91
50.796,-9.01
50.812,-14.06
50.828,-18.89
50.843,-23.45
50.859,-27.81
50.875,-32.14
50.890,-36.67
50.906,-41.49
50.921,-46.53
50.937,-51.35
50.953,-55.16
50.968,-56.92
50.984,-55.65
51.000,-50.8
51.015,-42.49
51.031,-31.53
51.046,-19.19
51.062,-6.8
51.078,4.62
51.093,14.6
51.109,23.1
51.125,30.37
51.140,36.6
51.156,41.85
51.171,46.02
51.187,49.04
51.203,50.94
51.218,51.99
51.234,52.51
51.250,52.72
51.265,52.63
51.281,52.07
51.296,50.81
51.312,48.7
51.328,45.75
51.343,42.17
51.359,38.23
51.375,34.15
51.390,29.98
51.406,25.62
51.421,20.93
51.437,15.76
51.453,10.11
51.468,4.16
51.484,-1.8
51.500,-7.39
51.515,-12.31
51.531,-16.46
51.546,-19.96
51.562,-23.08
51.578,-26.16
51.593,-29.55
51.609,-33.44
51.625,-38.04
51.640,-43.37
51.656,-49.28
51.671,-55.32
51.687,-60.65
51.703,-64.13
51.718,-64.65
51.734,-61.45
51.750,-54.35
51.765,-43.93
51.781,-31.32
51.796,-17.92
51.812,-5.04
51.828,6.33
51.843,15.65
51.859,22.78
51.875,27.86
51.890,31.26
51.906,33.34
51.921,34.5
51.937,35.0
51.953,35.05
51.968,34.79
51.984,34.37
52.000,33.89
52.015,33.37
52.031,32.77
52.046,31.95
52.062,30.76
52.078,29.1
52.093,26.96
52.109,24.48
52.125,21.8
52.140,19.0
52.156,16.08
52.171,12.92
52.187,9.43
52.203,5.54
52.218,1.32
52.234,-3.11
52.250,-7.6
52.265,-12.02
52.281,-16.22
52.296,-20.12
52.312,-23.6
52.328,-26.63
52.343,-29.32
52.359,-31.82
52.375,-34.35
52.390,-36.93
52.406,-39.29
52.421,-40.83
52.437,-40.79
52.453,-38.5
52.468,-33.61
52.484,-26.31
52.500,-17.25
52.515,-7.37
52.531,2.37
52.546,11.23
52.562,18.82
52.578,25.01
52.593,29.79
52.609,33.14
52.625,35.03
52.640,35.48
52.656,34.74
52.671,33.21
52.687,31.48
52.703,30.05
52.718,29.24
52.734,29.05
52.750,29.24
52.765,29.54
52.781,29.74
52.796,29.82
52.812,29.76
52.828,29.52
52.843,29.0
52.859,28.04
52.875,26.58
52.890,24.72
52.906,22.72
52.921,20.91
52.937,19.61
52.953,19.06
52.968,19.33
52.984,20.28
53.000,21.58
53.015,22.77
53.031,23.37
53.046,23.0
53.062,21.47
53.078,18.86
53.093,15.48
53.109,11.79
53.125,8.26
53.140,5.25
53.156,2.95
53.171,1.4
53.187,0.53
53.203,0.16
53.218,0.03
53.234,-0.12
53.250,-0.56
53.265,-1.48
53.281,-2.94
53.296,-4.83
53.312,-6.89
53.328,-8.79
53.343,-10.26
53.359,-11.15
53.375,-11.46
53.390,-11.4
53.406,-11.16
53.421,-10.94
53.437,-10.88
53.453,-11.07
53.468,-11.56
53.484,-12.4
53.500,-13.6
53.515,-15.12
53.531,-16.84
53.546,-18.55
53.562,-20.06
53.578,-21.28
53.593,-22.33
53.609,-23.41
53.625,-24.76
53.640,-26.52
53.656,-28.7
53.671,-31.21
53.687,-33.85
53.703,-36.44
53.718,-38.86
53.734,-41.06
53.750,-43.06
53.765,-44.95
53.781,-46.86
53.796,-48.93
53.812,-51.27
53.828,-53.76
53.843,-56.01
53.859,-57.41
53.875,-57.23
53.890,-54.91
53.906,-50.26
53.921,-43.59
53.937,-35.6
53.953,-27.26
53.968,-19.52
53.984,-13.04
54.000,-8.24
54.015,-5.11
54.031,-3.41
54.046,-2.8
54.062,-2.87
54.078,-3.27
54.093,-3.73
54.109,-3.99
54.125,-3.86
54.140,-3.23
54.156,-2.09
54.171,-0.61
54.187,0.89
54.203,2.1
54.218,2.8
54.234,2.99
54.250,2.95
54.265,2.95
54.281,3.1
54.296,3.27
54.312,3.08
54.328,2.12
54.343,0.22
54.359,-2.56
54.375,-5.89
54.390,-9.34
54.406,-12.63
54.421,-15.64
54.437,-18.43
54.453,-21.16
54.468,-24.02
54.484,-27.15
54.500,-30.61
54.515,-34.25
54.531,-37.56
54.546,-39.8
54.562,-40.0
54.578,-37.4
54.593,-31.68
54.609,-23.16
54.625,-12.74
54.640,-1.62
54.656,9.02
54.671,18.4
54.687,26.09
54.703,32.09
54.718,36.46
54.734,39.29
54.750,40.69
54.765,40.87
54.781,40.21
54.796,39.22
54.812,38.32
54.828,37.68
54.843,37.21
54.859,36.58
54.875,35.52
54.890,34.01
54.906,32.19
54.921,30.3
54.937,28.48
54.953,26.59
54.968,24.36
54.984,21.52
55.000,17.96
55.015,13.79
55.031,9.31
55.046,4.79
55.062,0.47
55.078,-3.48
55.093,-7.02
55.109,-10.15
55.125,-12.92
55.140,-15.47
55.156,-18.01
55.171,-20.68
55.187,-23.39
55.203,-25.79
55.218,-27.28
55.234,-27.22
55.250,-25.23
55.265,-21.25
55.281,-15.72
55.296,-9.33
55.312,-2.89
55.328,2.91
55.343,7.58
55.359,10.87
55.375,12.76
55.390,13.38
55.406,13.02
55.421,12.04
55.437,10.84
55.453,9.71
55.468,8.8
55.484,8.08
55.500,7.48
55.515,6.91
55.531,6.35
55.546,5.82
55.562,5.28
55.578,4.7
55.593,3.94
55.609,2.91
55.625,1.56
55.640,-0.06
55.656,-1.85
55.671,-3.69
55.687,-5.48
55.703,-7.22
55.718,-8.88
55.734,-10.39
55.750,-11.65
55.765,-12.54
55.781,-13.04
55.796,-13.26
55.812,-13.49
55.828,-13.9
55.843,-14.46
55.859,-14.66
55.875,-13.63
55.890,-10.34
55.906,-4.01
55.921,5.6
55.937,17.96
55.953,31.98
55.968,46.35
55.984,59.86
56.000,71.75
56.015,81.78
56.031,90.13
56.046,97.23
56.062,103.58
56.078,109.57
56.093,115.34
56.109,120.79
56.125,125.42
56.140,128.52
56.156,129.25
56.171,126.95
56.187,121.43
56.203,113.14
56.218,103.11
56.234,92.5
56.250,82.0
56.265,71.21
56.281,58.52
56.296,41.5
56.312,17.93
56.328,-13.06
56.343,-50.13
56.359,-89.72
56.375,-126.87
56.390,-156.64
56.406,-175.59
56.421,-182.47
56.437,-178.24
56.453,-165.16
56.468,-145.63
56.484,-121.45
56.500,-93.48
56.515,-62.0
56.531,-27.19
56.546,10.46
56.562,49.9
56.578,89.48
56.593,126.99
56.609,159.85
56.625,185.38
56.640,201.44
56.656,207.11
56.671,203.2
56.687,192.21
56.703,177.62
56.718,162.63
56.734,149.01
56.750,136.65
56.765,123.73
56.781,107.82
56.796,86.9
56.812,60.18
56.828,28.31
56.843,-7.01
56.859,-43.41
56.875,-78.43
56.890,-109.68
56.906,-135.12
56.921,-153.09
56.937,-162.79
56.953,-164.57
56.968,-160.24
56.984,-152.91
57.000,-146.28
57.015,-143.6
57.031,-146.54
57.046,-154.53
57.062,-165.05
57.078,-174.61
57.093,-180.31
57.109,-181.03
57.125,-177.8
57.140,-173.04
57.156,-169.1
57.171,-166.92
57.187,-165.42
57.203,-162.08
57.218,-154.16
57.234,-140.03
57.250,-119.89
57.265,-95.64
57.281,-69.97
57.296,-45.4
57.312,-23.45
57.328,-4.52
57.343,11.84
57.359,26.39
57.375,40.0
57.390,53.4
57.406,67.18
57.421,81.84
57.437,97.64
57.453,114.51
57.468,131.95
57.484,149.04
57.500,164.56
57.515,177.37
57.531,186.76
57.546,192.65
57.562,195.74
57.578,197.07
57.593,197.75
57.609,198.45
57.625,199.13
57.640,199.05
57.656,197.09
57.671,192.21
57.687,183.8
57.703,171.79
57.718,156.43
57.734,138.14
57.750,117.26
57.765,94.19
57.781,69.36
57.796,43.39
57.812,16.97
57.828,-9.12
57.843,-34.11
57.859,-57.32
57.875,-78.11
57.890,-95.88
57.906,-110.19
57.921,-120.98
57.937,-128.72
57.953,-134.32
57.968,-138.89
57.984,-143.28
58.000,-147.72
58.015,-151.75
58.031,-154.36
58.046,-154.55
58.062,-151.55
58.078,-145.21
58.093,-135.76
58.109,-123.53
58.125,-108.41
58.140,-89.8
58.156,-67.12
58.171,-40.56
58.187,-12.14
58.203,14.28
58.218,33.58
58.234,41.07
58.250,34.31
58.265,14.23
58.281,-14.92
58.296,-47.12
58.312,-76.6
58.328,-99.71
58.343,-115.56
58.359,-125.63
58.375,-132.46
58.390,-138.37
58.406,-144.73
58.421,-151.84
58.437,-159.31
58.453,-166.42
58.468,-172.29
58.484,-175.93
58.500,-176.52
58.515,-173.69
58.531,-168.03
58.546,-161.09
58.562,-154.88
58.578,-150.86
58.593,-149.0
58.609,-147.61
58.625,-143.85
58.640,-134.88
58.656,-119.01
58.671,-96.23
58.687,-68.06
58.703,-36.84
58.718,-4.97
58.734,25.58
58.750,53.45
58.765,77.75
58.781,98.06
58.796,114.37
58.812,127.28
58.828,137.78
58.843,147.14
58.859,156.4
58.875,166.05
58.890,175.88
58.906,185.2
58.921,193.32
58.937,200.01
58.953,205.81
58.968,211.79
58.984,219.07
59.000,228.22
59.015,239.03
59.031,250.73
59.046,262.43
59.062,273.45
59.078,283.13
59.093,290.42
59.109,293.27
59.125,288.98
59.140,274.92
59.156,249.71
59.171,213.92
59.187,169.89
59.203,120.92
59.218,70.42
59.234,21.61
59.250,-22.29
59.265,-57.78
59.281,-81.39
59.296,-90.61
59.312,-84.95
59.328,-66.52
59.343,-39.51
59.359,-8.85
59.375,21.19
59.390,47.64
59.406,68.53
59.421,82.24
59.437,86.86
59.453,80.47
59.468,61.82
59.484,31.12
59.500,-9.63
59.515,-56.87
59.531,-106.33
59.546,-153.92
59.562,-196.46
59.578,-232.36
59.593,-261.48
59.609,-284.75
59.625,-303.26
59.640,-317.52
59.656,-326.99
59.671,-330.38
59.687,-326.36
59.703,-314.52
59.718,-295.85
59.734,-272.58
59.750,-247.51
59.765,-223.07
59.781,-200.79
59.796,-181.27
59.812,-164.56
59.828,-150.62
59.843,-139.64
59.859,-131.91
59.875,-127.54
59.890,-126.1
59.906,-126.62
59.921,-127.82
59.937,-128.62
59.953,-128.59
59.968,-128.08
59.984,-128.12
