timestamp,value
00.000,-158.86
00.015,-151.39
00.031,-141.06
00.046,-128.9
00.062,-116.26
00.078,-104.22
00.093,-93.17
00.109,-82.61
00.125,-71.55
00.140,-59.09
00.156,-45.04
00.171,-30.25
00.187,-16.26
00.203,-4.73
00.218,3.31
00.234,7.76
00.250,9.44
00.265,9.52
00.281,8.99
00.296,8.24
00.312,7.09
00.328,5.06
00.343,1.75
00.359,-2.89
00.375,-8.66
00.390,-15.19
00.406,-22.1
00.421,-29.02
00.437,-35.41
00.453,-40.45
00.468,-43.07
00.484,-42.11
00.500,-36.73
00.515,-26.69
00.531,-12.46
00.546,4.93
00.562,24.27
00.578,44.4
00.593,64.12
00.609,82.05
00.625,96.35
00.640,104.87
00.656,105.65
00.671,97.81
00.687,82.27
00.703,61.91
00.718,40.94
00.734,23.59
00.750,12.92
00.765,10.01
00.781,13.97
00.796,22.72
00.812,33.9
00.828,45.61
00.843,56.68
00.859,66.5
00.875,74.91
00.890,82.05
00.906,88.54
00.921,95.29
00.937,103.25
00.953,112.82
00.968,123.53
00.984,133.93
01.000,142.0
01.015,145.87
01.031,144.28
01.046,136.86
01.062,124.02
01.078,106.79
01.093,86.41
01.109,64.33
01.125,41.9
01.140,20.24
01.156,0.13
01.171,-18.17
01.187,-34.81
01.203,-50.21
01.218,-64.89
01.234,-79.32
01.250,-93.91
01.265,-108.95
01.281,-124.49
01.296,-140.18
01.312,-155.19
01.328,-168.34
01.343,-178.47
01.359,-184.83
01.375,-187.3
01.390,-186.35
01.406,-182.77
01.421,-177.44
01.437,-171.07
01.453,-164.18
01.468,-157.12
01.484,-150.11
01.500,-143.17
01.515,-136.32
01.531,-129.42
01.546,-122.36
01.562,-115.02
01.578,-107.25
01.593,-98.82
01.609,-89.59
01.625,-80.0
01.640,-71.54
01.656,-66.77
01.671,-68.52
01.687,-78.54
01.703,-96.44
01.718,-119.3
01.734,-142.55
01.750,-161.45
01.765,-172.39
01.781,-173.44
01.796,-164.02
01.812,-144.41
01.828,-115.36
01.843,-78.58
01.859,-37.12
01.875,4.46
01.890,40.93
01.906,67.76
01.921,82.51
01.937,85.44
01.953,79.04
01.968,66.9
01.984,52.47
02.000,38.36
02.015,26.13
02.031,16.67
02.046,10.64
02.062,8.72
02.078,11.56
02.093,19.42
02.109,31.87
02.125,47.6
02.140,64.63
02.156,80.67
02.171,93.66
02.187,102.2
02.203,105.71
02.218,104.37
02.234,98.91
02.250,90.24
02.265,79.25
02.281,66.52
02.296,52.32
02.312,36.61
02.328,19.2
02.343,-0.11
02.359,-21.35
02.375,-44.18
02.390,-67.75
02.406,-90.64
02.421,-110.97
02.437,-126.8
02.453,-136.53
02.468,-139.39
02.484,-135.73
02.500,-126.95
02.515,-115.2
02.531,-102.8
02.546,-91.61
02.562,-82.74
02.578,-76.38
02.593,-72.13
02.609,-69.29
02.625,-67.18
02.640,-65.31
02.656,-63.35
02.671,-61.1
02.687,-58.37
02.703,-54.94
02.718,-50.73
02.734,-45.88
02.750,-40.85
02.765,-36.37
02.781,-33.25
02.796,-32.12
02.812,-33.25
02.828,-36.43
02.843,-41.01
02.859,-46.07
02.875,-50.71
02.890,-54.29
02.906,-56.64
02.921,-58.12
02.937,-59.47
02.953,-61.76
02.968,-66.0
02.984,-72.83
03.000,-82.18
03.015,-93.09
03.031,-103.73
03.046,-111.79
03.062,-115.09
03.078,-112.03
03.093,-102.07
03.109,-85.87
03.125,-65.02
03.140,-41.74
03.156,-18.35
03.171,3.15
03.187,21.37
03.203,35.63
03.218,45.94
03.234,52.73
03.250,56.69
03.265,58.46
03.281,58.54
03.296,57.39
03.312,55.41
03.328,53.16
03.343,51.25
03.359,50.3
03.375,50.63
03.390,52.22
03.406,54.64
03.421,57.15
03.437,59.01
03.453,59.63
03.468,58.69
03.484,56.2
03.500,52.38
03.515,47.56
03.531,42.09
03.546,36.22
03.562,30.11
03.578,23.69
03.593,16.71
03.609,8.73
03.625,-0.69
03.640,-11.69
03.656,-23.74
03.671,-35.5
03.687,-44.98
03.703,-49.96
03.718,-48.7
03.734,-40.5
03.750,-25.96
03.765,-6.84
03.781,14.5
03.796,35.69
03.812,54.94
03.828,71.26
03.843,84.33
03.859,94.28
03.875,101.38
03.890,105.85
03.906,107.94
03.921,108.02
03.937,106.67
03.953,104.59
03.968,102.48
03.984,100.8
04.000,99.63
04.015,98.75
04.031,97.8
04.046,96.52
04.062,94.87
04.078,93.03
04.093,91.16
04.109,89.25
04.125,86.98
04.140,83.87
04.156,79.43
04.171,73.5
04.187,66.32
04.203,58.56
04.218,51.05
04.234,44.46
04.250,39.0
04.265,34.31
04.281,29.5
04.296,23.49
04.312,15.34
04.328,4.74
04.343,-7.77
04.359,-20.67
04.375,-31.76
04.390,-38.71
04.406,-39.73
04.421,-34.09
04.437,-22.23
04.453,-5.61
04.468,13.84
04.484,34.2
04.500,53.9
04.515,71.82
04.531,87.22
04.546,99.57
04.562,108.52
04.578,113.97
04.593,116.11
04.609,115.5
04.625,113.03
04.640,109.72
04.656,106.57
04.671,104.26
04.687,103.01
04.703,102.53
04.718,102.19
04.734,101.22
04.750,98.95
04.765,94.95
04.781,89.09
04.796,81.59
04.812,72.81
04.828,63.15
04.843,52.86
04.859,41.89
04.875,29.93
04.890,16.56
04.906,1.53
04.921,-15.0
04.937,-32.31
04.953,-49.34
04.968,-64.95
04.984,-78.46
05.000,-89.85
05.015,-99.73
05.031,-109.08
05.046,-118.81
05.062,-129.39
05.078,-140.54
05.093,-151.28
05.109,-160.0
05.125,-164.88
05.140,-164.34
05.156,-157.39
05.171,-143.97
05.187,-124.95
05.203,-101.84
05.218,-76.57
05.234,-51.01
05.250,-26.7
05.265,-4.81
05.281,13.95
05.296,29.25
05.312,41.15
05.328,50.02
05.343,56.53
05.359,61.38
05.375,65.25
05.390,68.52
05.406,71.31
05.421,73.55
05.437,75.16
05.453,76.22
05.468,77.01
05.484,77.9
05.500,79.11
05.515,80.58
05.531,81.97
05.546,82.72
05.562,82.34
05.578,80.66
05.593,77.9
05.609,74.48
05.625,70.81
05.640,67.06
05.656,63.05
05.671,58.4
05.687,52.73
05.703,45.88
05.718,38.05
05.734,29.74
05.750,21.61
05.765,14.25
05.781,8.01
05.796,2.89
05.812,-1.46
05.828,-5.68
05.843,-10.5
05.859,-16.47
05.875,-23.66
05.890,-31.39
05.906,-38.28
05.921,-42.42
05.937,-41.95
05.953,-35.64
05.968,-23.34
05.984,-6.0
06.000,14.65
06.015,36.73
06.031,58.76
06.046,79.97
06.062,100.12
06.078,119.15
06.093,136.74
06.109,152.24
06.125,164.83
06.140,174.05
06.156,180.19
06.171,184.32
06.187,188.13
06.203,193.4
06.218,201.52
06.234,212.98
06.250,227.12
06.265,241.92
06.281,254.32
06.296,260.88
06.312,258.73
06.328,246.61
06.343,225.23
06.359,196.99
06.375,164.89
06.390,131.39
06.406,97.61
06.421,63.49
06.437,28.55
06.453,-7.26
06.468,-43.06
06.484,-77.3
06.500,-108.38
06.515,-135.3
06.531,-157.69
06.546,-175.51
06.562,-188.44
06.578,-195.66
06.593,-196.06
06.609,-188.81
06.625,-174.05
06.640,-153.23
06.656,-128.88
06.671,-103.96
06.687,-80.96
06.703,-61.3
06.718,-45.13
06.734,-31.43
06.750,-18.46
06.765,-4.21
06.781,13.16
06.796,34.79
06.812,60.51
06.828,88.42
06.843,114.93
06.859,135.46
06.875,145.74
06.890,143.1
06.906,127.3
06.921,100.43
06.937,66.11
06.953,28.29
06.968,-9.68
06.984,-45.44
07.000,-77.54
07.015,-105.23
07.031,-128.21
07.046,-146.6
07.062,-160.9
07.078,-171.91
07.093,-180.49
07.109,-187.17
07.125,-191.88
07.140,-193.97
07.156,-192.37
07.171,-185.99
07.187,-174.32
07.203,-157.71
07.218,-137.47
07.234,-115.62
07.250,-94.29
07.265,-75.08
07.281,-58.86
07.296,-45.71
07.312,-35.4
07.328,-27.9
07.343,-23.58
07.359,-23.14
07.375,-27.18
07.390,-35.74
07.406,-48.02
07.421,-62.55
07.437,-77.63
07.453,-91.84
07.468,-104.52
07.484,-115.83
07.500,-126.55
07.515,-137.52
07.531,-149.09
07.546,-160.71
07.562,-170.93
07.578,-177.69
07.593,-178.95
07.609,-173.34
07.625,-160.54
07.640,-141.37
07.656,-117.52
07.671,-91.07
07.687,-64.11
07.703,-38.45
07.718,-15.46
07.734,3.92
07.750,19.17
07.765,30.18
07.781,37.26
07.796,41.1
07.812,42.7
07.828,43.24
07.843,43.81
07.859,45.15
07.875,47.47
07.890,50.41
07.906,53.22
07.921,55.07
07.937,55.41
07.953,54.16
07.968,51.69
07.984,48.65
08.000,45.62
08.015,42.87
08.031,40.34
08.046,37.71
08.062,34.64
08.078,30.9
08.093,26.54
08.109,21.72
08.125,16.64
08.140,11.41
08.156,6.04
08.171,0.5
08.187,-5.27
08.203,-11.27
08.218,-17.6
08.234,-24.45
08.250,-32.06
08.265,-40.58
08.281,-49.78
08.296,-58.84
08.312,-66.4
08.328,-70.87
08.343,-70.86
08.359,-65.71
08.375,-55.72
08.390,-42.13
08.406,-26.67
08.421,-11.14
08.437,3.11
08.453,15.34
08.468,25.38
08.484,33.38
08.500,39.53
08.515,43.92
08.531,46.59
08.546,47.65
08.562,47.49
08.578,46.72
08.593,46.03
08.609,46.01
08.625,46.84
08.640,48.33
08.656,49.97
08.671,51.24
08.687,51.76
08.703,51.43
08.718,50.4
08.734,48.86
08.750,46.95
08.765,44.68
08.781,41.99
08.796,38.77
08.812,34.99
08.828,30.72
08.843,26.04
08.859,21.04
08.875,15.72
08.890,10.1
08.906,4.23
08.921,-1.79
08.937,-7.74
08.953,-13.45
08.968,-18.82
08.984,-23.95
09.000,-29.14
09.015,-34.88
09.031,-41.64
09.046,-49.63
09.062,-58.55
09.078,-67.45
09.093,-74.84
09.109,-79.02
09.125,-78.62
09.140,-73.01
09.156,-62.53
09.171,-48.35
09.187,-32.08
09.203,-15.35
09.218,0.59
09.234,14.85
09.250,26.96
09.265,36.61
09.281,43.68
09.296,48.17
09.312,50.26
09.328,50.38
09.343,49.13
09.359,47.21
09.375,45.23
09.390,43.61
09.406,42.55
09.421,42.06
09.437,42.04
09.453,42.33
09.468,42.82
09.484,43.34
09.500,43.67
09.515,43.52
09.531,42.6
09.546,40.68
09.562,37.74
09.578,33.96
09.593,29.69
09.609,25.25
09.625,20.87
09.640,16.57
09.656,12.28
09.671,7.91
09.687,3.43
09.703,-1.16
09.718,-5.87
09.734,-10.73
09.750,-15.87
09.765,-21.45
09.781,-27.65
09.796,-34.64
09.812,-42.5
09.828,-51.15
09.843,-60.21
09.859,-68.86
09.875,-75.89
09.890,-79.84
09.906,-79.46
09.921,-74.0
09.937,-63.57
09.953,-49.12
09.968,-32.26
09.984,-14.75
10.000,1.86
10.015,16.5
10.031,28.65
10.046,38.23
10.062,45.37
10.078,50.33
10.093,53.39
10.109,54.86
10.125,55.1
10.140,54.48
10.156,53.34
10.171,51.94
10.187,50.47
10.203,49.1
10.218,47.95
10.234,47.09
10.250,46.51
10.265,46.08
10.281,45.63
10.296,44.97
10.312,43.99
10.328,42.64
10.343,40.92
10.359,38.82
10.375,36.31
10.390,33.3
10.406,29.65
10.421,25.22
10.437,19.95
10.453,13.9
10.468,7.25
10.484,0.32
10.500,-6.53
10.515,-13.01
10.531,-18.95
10.546,-24.41
10.562,-29.62
10.578,-34.95
10.593,-40.75
10.609,-47.29
10.625,-54.62
10.640,-62.46
10.656,-70.05
10.671,-76.16
10.687,-79.29
10.703,-78.08
10.718,-71.69
10.734,-60.2
10.750,-44.71
10.765,-26.99
10.781,-9.05
10.796,7.4
10.812,21.3
10.828,32.26
10.843,40.38
10.859,45.91
10.875,49.06
10.890,50.01
10.906,49.04
10.921,46.64
10.937,43.55
10.953,40.62
10.968,38.55
10.984,37.71
11.000,38.03
11.015,39.12
11.031,40.48
11.046,41.67
11.062,42.44
11.078,42.68
11.093,42.3
11.109,41.2
11.125,39.21
11.140,36.18
11.156,32.12
11.171,27.23
11.187,21.89
11.203,16.53
11.218,11.5
11.234,6.92
11.250,2.64
11.265,-1.64
11.281,-6.18
11.296,-11.06
11.312,-16.2
11.328,-21.41
11.343,-26.58
11.359,-31.87
11.375,-37.68
11.390,-44.51
11.406,-52.6
11.421,-61.68
11.437,-70.75
11.453,-78.22
11.468,-82.28
11.484,-81.46
11.500,-75.13
11.515,-63.68
11.531,-48.46
11.546,-31.34
11.562,-14.22
11.578,1.37
11.593,14.53
11.609,24.92
11.625,32.62
11.640,37.87
11.656,41.03
11.671,42.47
11.687,42.61
11.703,41.91
11.718,40.83
11.734,39.78
11.750,38.95
11.765,38.39
11.781,37.95
11.796,37.41
11.812,36.61
11.828,35.5
11.843,34.29
11.859,33.18
11.875,32.37
11.890,31.81
11.906,31.29
11.921,30.45
11.937,29.07
11.953,27.05
11.968,24.49
11.984,21.5
12.000,18.13
12.015,14.28
12.031,9.73
12.046,4.38
12.062,-1.71
12.078,-8.3
12.093,-14.95
12.109,-21.32
12.125,-27.25
12.140,-32.84
12.156,-38.42
12.171,-44.37
12.187,-50.97
12.203,-58.17
12.218,-65.47
12.234,-71.93
12.250,-76.37
12.265,-77.59
12.281,-74.74
12.296,-67.55
12.312,-56.4
12.328,-42.24
12.343,-26.39
12.359,-10.32
12.375,4.68
12.390,17.6
12.406,27.83
12.421,35.14
12.437,39.61
12.453,41.56
12.468,41.41
12.484,39.63
12.500,36.75
12.515,33.36
12.531,30.08
12.546,27.51
12.562,26.09
12.578,25.97
12.593,27.0
12.609,28.73
12.625,30.61
12.640,32.07
12.656,32.72
12.671,32.34
12.687,30.92
12.703,28.59
12.718,25.48
12.734,21.72
12.750,17.38
12.765,12.46
12.781,7.01
12.796,1.15
12.812,-4.83
12.828,-10.57
12.843,-15.72
12.859,-20.04
12.875,-23.64
12.890,-26.86
12.906,-30.23
12.921,-34.33
12.937,-39.57
12.953,-46.12
12.968,-53.71
12.984,-61.69
13.000,-69.03
13.015,-74.4
13.031,-76.41
13.046,-73.96
13.062,-66.51
13.078,-54.37
13.093,-38.7
13.109,-21.24
13.125,-3.96
13.140,11.47
13.156,23.94
13.171,33.0
13.187,38.8
13.203,41.79
13.218,42.58
13.234,41.75
13.250,39.86
13.265,37.44
13.281,35.03
13.296,33.13
13.312,32.08
13.328,32.03
13.343,32.86
13.359,34.23
13.375,35.63
13.390,36.58
13.406,36.74
13.421,35.97
13.437,34.35
13.453,32.08
13.468,29.38
13.484,26.43
13.500,23.32
13.515,20.07
13.531,16.72
13.546,13.25
13.562,9.66
13.578,5.89
13.593,1.79
13.609,-2.77
13.625,-7.86
13.640,-13.44
13.656,-19.32
13.671,-25.27
13.687,-31.13
13.703,-36.95
13.718,-42.99
13.734,-49.58
13.750,-56.95
13.765,-64.87
13.781,-72.58
13.796,-78.76
13.812,-81.89
13.828,-80.69
13.843,-74.55
13.859,-63.79
13.875,-49.57
13.890,-33.57
13.906,-17.52
13.921,-2.77
13.937,9.84
13.953,20.01
13.968,27.82
13.984,33.4
14.000,36.95
14.015,38.62
14.031,38.67
14.046,37.41
14.062,35.39
14.078,33.23
14.093,31.48
14.109,30.54
14.125,30.5
14.140,31.17
14.156,32.22
14.171,33.25
14.187,34.05
14.203,34.54
14.218,34.77
14.234,34.76
14.250,34.41
14.265,33.42
14.281,31.46
14.296,28.32
14.312,24.03
14.328,18.92
14.343,13.48
14.359,8.21
14.375,3.42
14.390,-0.73
14.406,-4.24
14.421,-7.17
14.437,-9.57
14.453,-11.61
14.468,-13.61
14.484,-16.07
14.500,-19.51
14.515,-24.16
14.531,-29.57
14.546,-34.57
14.562,-37.37
14.578,-36.15
14.593,-29.62
14.609,-17.52
14.625,-0.69
14.640,19.21
14.656,40.29
14.671,60.89
14.687,79.95
14.703,96.96
14.718,111.75
14.734,124.26
14.750,134.45
14.765,142.38
14.781,148.29
14.796,152.84
14.812,157.06
14.828,162.27
14.843,169.75
14.859,180.33
14.875,193.96
14.890,209.5
14.906,224.76
14.921,236.91
14.937,243.05
14.953,240.94
14.968,229.51
14.984,209.28
15.000,182.22
15.015,151.39
15.031,120.15
15.046,91.34
15.062,66.64
15.078,46.41
15.093,30.02
15.109,16.47
15.125,5.07
15.140,-4.21
15.156,-10.59
15.171,-12.71
15.187,-8.91
15.203,2.26
15.218,21.33
15.234,47.14
15.250,76.38
15.265,103.86
15.281,123.9
15.296,132.02
15.312,126.51
15.328,108.89
15.343,82.99
15.359,53.28
15.375,23.02
15.390,-6.5
15.406,-35.84
15.421,-66.19
15.437,-98.1
15.453,-130.53
15.468,-160.84
15.484,-185.43
15.500,-200.96
15.515,-205.52
15.531,-199.2
15.546,-184.04
15.562,-163.17
15.578,-139.77
15.593,-116.23
15.609,-93.95
15.625,-73.85
15.640,-56.85
15.656,-44.2
15.671,-37.19
15.687,-36.45
15.703,-41.46
15.718,-50.53
15.734,-61.34
15.750,-71.78
15.765,-80.59
15.781,-87.57
15.796,-93.47
15.812,-99.38
15.828,-106.28
15.843,-114.68
15.859,-124.64
15.875,-135.9
15.890,-148.13
15.906,-161.24
15.921,-175.21
15.937,-190.11
15.953,-205.88
15.968,-222.3
15.984,-239.02
16.000,-255.72
16.015,-272.09
16.031,-287.53
16.046,-300.81
16.062,-309.91
16.078,-312.33
16.093,-305.93
16.109,-289.85
16.125,-265.09
16.140,-234.31
16.156,-201.03
16.171,-168.5
16.187,-138.95
16.203,-113.42
16.218,-92.17
16.234,-75.14
16.250,-62.23
16.265,-53.14
16.281,-47.15
16.296,-42.96
16.312,-38.96
16.328,-33.71
16.343,-26.51
16.359,-17.6
16.375,-7.97
16.390,1.12
16.406,8.75
16.421,14.64
16.437,19.2
16.453,23.18
16.468,27.18
16.484,31.37
16.500,35.45
16.515,38.75
16.531,40.62
16.546,40.67
16.562,38.84
16.578,35.36
16.593,30.61
16.609,25.0
16.625,18.8
16.640,12.2
16.656,5.26
16.671,-2.16
16.687,-10.28
16.703,-19.4
16.718,-29.61
16.734,-40.58
16.750,-51.35
16.765,-60.39
16.781,-65.87
16.796,-66.18
16.812,-60.38
16.828,-48.62
16.843,-32.06
16.859,-12.62
16.875,7.54
16.890,26.52
16.906,43.01
16.921,56.35
16.937,66.42
16.953,73.39
16.968,77.56
16.984,79.25
17.000,78.85
17.015,76.9
17.031,74.12
17.046,71.31
17.062,69.16
17.078,68.09
17.093,68.13
17.109,69.07
17.125,70.62
17.140,72.55
17.156,74.78
17.171,77.27
17.187,79.9
17.203,82.41
17.218,84.43
17.234,85.55
17.250,85.48
17.265,84.17
17.281,81.77
17.296,78.6
17.312,75.03
17.328,71.37
17.343,67.91
17.359,64.8
17.375,62.14
17.390,59.89
17.406,57.96
17.421,56.16
17.437,54.29
17.453,52.19
17.468,49.74
17.484,46.96
17.500,43.95
17.515,40.78
17.531,37.5
17.546,34.09
17.562,30.59
17.578,27.1
17.593,23.82
17.609,21.0
17.625,18.74
17.640,17.03
17.656,15.69
17.671,14.47
17.687,13.21
17.703,11.81
17.718,10.2
17.734,8.3
17.750,5.94
17.765,2.87
17.781,-1.09
17.796,-5.96
17.812,-11.5
17.828,-17.25
17.843,-22.64
17.859,-27.19
17.875,-30.64
17.890,-33.11
17.906,-35.02
17.921,-36.95
17.937,-39.5
17.953,-43.0
17.968,-47.55
17.984,-52.95
18.000,-58.9
18.015,-65.12
18.031,-71.46
18.046,-77.91
18.062,-84.62
18.078,-91.85
18.093,-99.96
18.109,-109.31
18.125,-119.96
18.140,-131.29
18.156,-141.78
18.171,-149.08
18.187,-150.56
18.203,-144.17
18.218,-129.28
18.234,-106.98
18.250,-79.87
18.265,-51.21
18.281,-24.04
18.296,-0.48
18.312,18.42
18.328,32.45
18.343,41.85
18.359,46.99
18.375,48.35
18.390,46.57
18.406,42.63
18.421,37.68
18.437,32.87
18.453,29.03
18.468,26.5
18.484,25.1
18.500,24.4
18.515,23.97
18.531,23.6
18.546,23.47
18.562,23.91
18.578,25.2
18.593,27.27
18.609,29.52
18.625,31.01
18.640,30.74
18.656,28.12
18.671,23.18
18.687,16.64
18.703,9.54
18.718,2.79
18.734,-3.23
18.750,-8.81
18.765,-14.68
18.781,-21.7
18.796,-30.37
18.812,-40.63
18.828,-51.76
18.843,-62.39
18.859,-70.78
18.875,-75.2
18.890,-74.26
18.906,-67.41
18.921,-55.05
18.937,-38.52
18.953,-19.75
18.968,-0.81
18.984,16.6
19.000,31.36
19.015,43.0
19.031,51.55
19.046,57.27
19.062,60.55
19.078,61.78
19.093,61.35
19.109,59.64
19.125,57.02
19.140,53.88
19.156,50.59
19.171,47.55
19.187,45.06
19.203,43.31
19.218,42.38
19.234,42.16
19.250,42.38
19.265,42.62
19.281,42.4
19.296,41.25
19.312,38.82
19.328,34.89
19.343,29.49
19.359,22.91
19.375,15.59
19.390,8.01
19.406,0.54
19.421,-6.64
19.437,-13.69
19.453,-21.04
19.468,-29.21
19.484,-38.56
19.500,-48.92
19.515,-59.46
19.531,-68.61
19.546,-74.43
19.562,-75.14
19.578,-69.68
19.593,-58.12
19.609,-41.7
19.625,-22.46
19.640,-2.62
19.656,15.9
19.671,31.98
19.687,45.2
19.703,55.62
19.718,63.45
19.734,68.81
19.750,71.76
19.765,72.38
19.781,71.02
19.796,68.31
19.812,65.04
19.828,61.94
19.843,59.45
19.859,57.62
19.875,56.22
19.890,54.96
19.906,53.69
19.921,52.49
19.937,51.56
19.953,51.08
19.968,50.9
19.984,50.52
20.000,49.19
20.015,46.19
20.031,41.17
20.046,34.27
20.062,26.15
20.078,17.68
20.093,9.7
20.109,2.67
20.125,-3.36
20.140,-8.75
20.156,-14.07
20.171,-20.01
20.187,-27.07
20.203,-35.46
20.218,-44.81
20.234,-54.0
20.250,-61.29
20.265,-64.63
20.281,-62.25
20.296,-53.29
20.312,-38.13
20.328,-18.32
20.343,3.92
20.359,26.36
20.375,47.33
20.390,65.95
20.406,82.0
20.421,95.64
20.437,107.05
20.453,116.29
20.468,123.36
20.484,128.38
20.500,131.66
20.515,133.93
20.531,136.19
20.546,139.54
20.562,144.92
20.578,152.75
20.593,162.78
20.609,174.08
20.625,185.4
20.640,195.64
20.656,204.33
20.671,211.79
20.687,218.85
20.703,226.42
20.718,234.83
20.734,243.63
20.750,251.63
20.765,257.16
20.781,258.45
20.796,253.9
20.812,242.44
20.828,223.98
20.843,199.78
20.859,172.62
20.875,146.34
20.890,124.56
20.906,109.21
20.921,99.57
20.937,92.38
20.953,83.27
20.968,68.85
20.984,48.2
21.000,23.15
21.015,-2.81
21.031,-26.4
21.046,-45.92
21.062,-61.67
21.078,-75.12
21.093,-87.65
21.109,-99.69
21.125,-110.61
21.140,-119.28
21.156,-124.86
21.171,-127.11
21.187,-126.15
21.203,-122.11
21.218,-114.9
21.234,-104.63
21.250,-92.24
21.265,-79.8
21.281,-70.26
21.296,-66.56
21.312,-70.46
21.328,-81.92
21.343,-99.13
21.359,-119.19
21.375,-138.92
21.390,-155.5
21.406,-166.74
21.421,-171.15
21.437,-168.2
21.453,-158.49
21.468,-143.84
21.484,-127.06
21.500,-111.46
21.515,-100.02
21.531,-94.75
21.546,-96.1
21.562,-102.89
21.578,-112.56
21.593,-121.82
21.609,-127.59
21.625,-128.04
21.640,-123.18
21.656,-114.96
21.671,-106.42
21.687,-100.55
21.703,-98.89
21.718,-100.87
21.734,-103.88
21.750,-104.32
21.765,-98.85
21.781,-85.56
21.796,-64.58
21.812,-37.8
21.828,-8.19
21.843,21.19
21.859,47.79
21.875,70.1
21.890,87.29
21.906,99.1
21.921,105.62
21.937,107.43
21.953,105.61
21.968,101.85
21.984,98.06
22.000,95.89
22.015,96.11
22.031,98.36
22.046,101.27
22.062,102.95
22.078,101.75
22.093,96.91
22.109,88.75
22.125,78.49
22.140,67.67
22.156,57.43
22.171,48.03
22.187,38.9
22.203,29.02
22.218,17.53
22.234,4.27
22.250,-10.16
22.265,-24.63
22.281,-38.06
22.296,-49.89
22.312,-60.34
22.328,-70.28
22.343,-80.86
22.359,-93.03
22.375,-106.98
22.390,-121.8
22.406,-135.45
22.421,-145.15
22.437,-148.14
22.453,-142.61
22.468,-128.4
22.484,-107.15
22.500,-81.84
22.515,-55.86
22.531,-32.09
22.546,-12.32
22.562,2.83
22.578,13.42
22.593,19.85
22.609,22.41
22.625,21.24
22.640,16.47
22.656,8.4
22.671,-2.42
22.687,-15.19
22.703,-28.89
22.718,-42.44
22.734,-54.86
22.750,-65.4
22.765,-73.65
22.781,-79.55
22.796,-83.18
22.812,-84.74
22.828,-84.34
22.843,-82.18
22.859,-78.72
22.875,-74.83
22.890,-71.66
22.906,-70.35
22.921,-71.62
22.937,-75.38
22.953,-80.87
22.968,-86.95
22.984,-92.61
23.000,-97.39
23.015,-101.5
23.031,-105.6
23.046,-110.49
23.062,-116.64
23.078,-123.8
23.093,-130.88
23.109,-136.06
23.125,-137.16
23.140,-132.29
23.156,-120.48
23.171,-102.07
23.187,-78.72
23.203,-52.91
23.218,-27.18
23.234,-3.48
23.250,17.11
23.265,34.36
23.281,48.42
23.296,59.52
23.312,67.73
23.328,73.2
23.343,76.25
23.359,77.55
23.375,77.99
23.390,78.47
23.406,79.6
23.421,81.5
23.437,83.88
23.453,86.24
23.468,88.21
23.484,89.63
23.500,90.73
23.515,91.82
23.531,93.12
23.546,94.64
23.562,96.06
23.578,96.88
23.593,96.61
23.609,94.91
23.625,91.63
23.640,86.81
23.656,80.57
23.671,73.06
23.687,64.41
23.703,54.64
23.718,43.69
23.734,31.28
23.750,17.07
23.765,0.81
23.781,-17.21
23.796,-35.92
23.812,-53.29
23.828,-66.75
23.843,-73.85
23.859,-73.13
23.875,-64.63
23.890,-49.96
23.906,-31.84
23.921,-13.2
23.937,3.59
23.953,17.22
23.968,27.42
23.984,34.56
24.000,39.18
24.015,41.71
24.031,42.34
24.046,41.22
24.062,38.6
24.078,34.88
24.093,30.62
24.109,26.37
24.125,22.71
24.140,20.16
24.156,19.23
24.171,20.48
24.187,24.44
24.203,31.45
24.218,41.53
24.234,54.22
24.250,68.67
24.265,83.79
24.281,98.49
24.296,111.9
24.312,123.36
24.328,132.34
24.343,138.34
24.359,140.86
24.375,139.43
24.390,133.67
24.406,123.32
24.421,108.26
24.437,88.56
24.453,64.62
24.468,37.2
24.484,7.53
24.500,-22.9
24.515,-52.54
24.531,-80.0
24.546,-103.95
24.562,-122.74
24.578,-134.23
24.593,-135.93
24.609,-125.91
24.625,-104.03
24.640,-72.87
24.656,-37.55
24.671,-4.43
24.687,21.03
24.703,36.13
24.718,41.62
24.734,41.06
24.750,39.01
24.765,39.48
24.781,44.83
24.796,55.67
24.812,71.22
24.828,89.55
24.843,107.7
24.859,121.86
24.875,128.03
24.890,123.12
24.906,106.19
24.921,79.05
24.937,45.83
24.953,11.78
24.968,-18.3
24.984,-41.3
25.000,-56.29
25.015,-64.23
25.031,-67.47
25.046,-68.86
25.062,-71.07
25.078,-75.96
25.093,-84.09
25.109,-94.64
25.125,-105.81
25.140,-115.53
25.156,-122.26
25.171,-125.42
25.187,-125.12
25.203,-121.72
25.218,-115.55
25.234,-106.91
25.250,-96.62
25.265,-86.29
25.281,-78.3
25.296,-75.13
25.312,-78.47
25.328,-88.46
25.343,-103.34
25.359,-119.82
25.375,-134.0
25.390,-142.38
25.406,-142.88
25.421,-135.35
25.437,-121.55
25.453,-104.7
25.468,-88.48
25.484,-76.16
25.500,-69.73
25.515,-69.67
25.531,-75.04
25.546,-84.15
25.562,-95.02
25.578,-105.76
25.593,-114.67
25.609,-120.31
25.625,-121.64
25.640,-118.11
25.656,-109.73
25.671,-97.08
25.687,-81.01
25.703,-62.44
25.718,-42.09
25.734,-20.55
25.750,1.75
25.765,24.28
25.781,46.32
25.796,66.74
25.812,83.99
25.828,96.26
25.843,101.85
25.859,99.77
25.875,90.27
25.890,75.19
25.906,57.63
25.921,41.22
25.937,28.92
25.953,21.97
25.968,19.49
25.984,18.71
26.000,16.05
26.015,8.37
26.031,-5.83
26.046,-25.97
26.062,-49.64
26.078,-73.52
26.093,-94.59
26.109,-110.99
26.125,-122.43
26.140,-129.71
26.156,-134.03
26.171,-136.14
26.187,-136.09
26.203,-133.31
26.218,-127.09
26.234,-116.97
26.250,-102.9
26.265,-85.18
26.281,-64.28
26.296,-41.04
26.312,-17.04
26.328,5.29
26.343,23.08
26.359,33.97
26.375,37.33
26.390,34.81
26.406,29.89
26.421,26.61
26.437,27.9
26.453,34.61
26.468,45.59
26.484,58.65
26.500,71.71
26.515,83.69
26.531,94.44
26.546,104.21
26.562,113.07
26.578,120.59
26.593,126.04
26.609,128.77
26.625,128.57
26.640,125.66
26.656,120.58
26.671,113.99
26.687,106.4
26.703,98.06
26.718,89.09
26.734,79.46
26.750,69.3
26.765,58.86
26.781,48.58
26.796,38.92
26.812,30.09
26.828,21.95
26.843,13.99
26.859,5.53
26.875,-4.01
26.890,-14.93
26.906,-27.21
26.921,-40.47
26.937,-54.05
26.953,-66.9
26.968,-77.56
26.984,-84.29
27.000,-85.51
27.015,-80.25
27.031,-68.59
27.046,-51.74
27.062,-31.73
27.078,-10.81
27.093,9.07
27.109,26.6
27.125,41.02
27.140,51.97
27.156,59.38
27.171,63.51
27.187,65.05
27.203,65.15
27.218,65.15
27.234,66.27
27.250,69.14
27.265,73.73
27.281,79.38
27.296,85.16
27.312,90.16
27.328,93.79
27.343,95.79
27.359,96.14
27.375,94.84
27.390,91.75
27.406,86.54
27.421,78.7
27.437,67.86
27.453,53.93
27.468,37.34
27.484,19.06
27.500,0.25
27.515,-18.04
27.531,-35.15
27.546,-50.71
27.562,-64.46
27.578,-75.86
27.593,-84.15
27.609,-88.63
27.625,-89.23
27.640,-86.93
27.656,-83.78
27.671,-82.47
27.687,-85.65
27.703,-95.32
27.718,-112.44
27.734,-136.89
27.750,-167.46
27.765,-201.77
27.781,-236.19
27.796,-265.92
27.812,-285.76
27.828,-291.24
27.843,-279.94
27.859,-252.28
27.875,-211.37
27.890,-161.88
27.906,-108.46
27.921,-54.62
27.937,-2.25
27.953,48.02
27.968,96.09
27.984,141.83
28.000,184.87
28.015,224.8
28.031,261.2
28.046,293.52
28.062,320.84
28.078,341.77
28.093,354.77
28.109,358.83
28.125,354.02
28.140,341.67
28.156,323.97
28.171,303.24
28.187,281.34
28.203,259.32
28.218,237.55
28.234,216.09
28.250,194.95
28.265,174.28
28.281,154.23
28.296,134.81
28.312,115.89
28.328,97.18
28.343,78.38
28.359,59.32
28.375,39.88
28.390,20.16
28.406,0.49
28.421,-18.5
28.437,-35.85
28.453,-50.57
28.468,-61.84
28.484,-69.5
28.500,-74.21
28.515,-77.47
28.531,-81.22
28.546,-87.39
28.562,-97.05
28.578,-110.1
28.593,-125.04
28.609,-139.37
28.625,-150.25
28.640,-155.4
28.656,-153.73
28.671,-145.64
28.687,-132.73
28.703,-117.17
28.718,-100.97
28.734,-85.53
28.750,-71.47
28.765,-58.86
28.781,-47.6
28.796,-37.65
28.812,-28.97
28.828,-21.51
28.843,-14.95
28.859,-8.82
28.875,-2.7
28.890,3.64
28.906,10.11
28.921,16.39
28.937,22.16
28.953,27.33
28.968,31.92
28.984,36.19
29.000,40.27
29.015,44.09
29.031,47.39
29.046,49.69
29.062,50.59
29.078,49.83
29.093,47.5
29.109,44.05
29.125,40.13
29.140,36.4
29.156,33.3
29.171,30.9
29.187,28.92
29.203,26.88
29.218,24.33
29.234,21.05
29.250,17.1
29.265,12.86
29.281,8.95
29.296,5.94
29.312,4.28
29.328,3.96
29.343,4.45
29.359,4.65
29.375,3.27
29.390,-0.69
29.406,-7.27
29.421,-15.11
29.437,-21.52
29.453,-23.19
29.468,-17.36
29.484,-3.01
29.500,18.32
29.515,42.71
29.531,64.94
29.546,79.99
29.562,84.57
29.578,77.87
29.593,61.57
29.609,39.26
29.625,15.47
29.640,-5.18
29.656,-18.8
29.671,-22.99
29.687,-17.53
29.703,-4.74
29.718,10.97
29.734,24.2
29.750,30.34
29.765,26.98
29.781,14.44
29.796,-4.83
29.812,-27.63
29.828,-51.37
29.843,-74.73
29.859,-97.34
29.875,-119.06
29.890,-139.28
29.906,-156.8
29.921,-170.18
29.937,-178.29
29.953,-180.79
29.968,-178.25
29.984,-172.14
30.000,-164.59
30.015,-158.09
30.031,-154.9
30.046,-156.47
30.062,-163.01
30.078,-173.51
30.093,-186.35
30.109,-199.93
30.125,-213.25
30.140,-225.94
30.156,-237.84
30.171,-248.39
30.187,-256.22
30.203,-259.33
30.218,-255.67
30.234,-244.01
30.250,-224.46
30.265,-198.53
30.281,-168.6
30.296,-137.06
30.312,-105.39
30.328,-73.72
30.343,-40.79
30.359,-4.49
30.375,37.11
30.390,84.39
30.406,135.33
30.421,185.2
30.437,227.62
30.453,256.32
30.468,267.22
30.484,259.75
30.500,236.98
30.515,204.24
30.531,167.16
30.546,129.79
30.562,93.88
30.578,59.39
30.593,25.71
30.609,-7.03
30.625,-37.25
30.640,-62.15
30.656,-78.68
30.671,-84.82
30.687,-80.68
30.703,-68.91
30.718,-54.14
30.734,-41.57
30.750,-35.0
30.765,-35.48
30.781,-41.24
30.796,-48.71
30.812,-54.22
30.828,-55.17
30.843,-50.57
30.859,-40.21
30.875,-23.63
30.890,0.31
30.906,33.19
30.921,76.24
30.937,129.63
30.953,192.06
30.968,260.51
30.984,330.09
31.000,394.15
31.015,445.01
31.031,475.54
31.046,481.06
31.062,460.66
31.078,417.05
31.093,355.04
31.109,279.63
31.125,195.2
31.140,106.24
31.156,18.93
31.171,-58.34
31.187,-116.13
31.203,-147.2
31.218,-149.7
31.234,-128.48
31.250,-93.44
31.265,-55.89
31.281,-24.81
31.296,-4.91
31.312,3.08
31.328,1.06
31.343,-8.01
31.359,-20.87
31.375,-34.27
31.390,-45.47
31.406,-53.08
31.421,-57.79
31.437,-62.21
31.453,-69.38
31.468,-80.89
31.484,-95.56
31.500,-109.59
31.515,-118.22
31.531,-117.93
31.546,-107.84
31.562,-89.83
31.578,-67.22
31.593,-43.45
31.609,-20.98
31.625,-1.23
31.640,15.07
31.656,27.57
31.671,36.05
31.687,40.57
31.703,41.61
31.718,40.13
31.734,37.4
31.750,34.72
31.765,33.06
31.781,32.81
31.796,33.69
31.812,34.94
31.828,35.6
31.843,35.03
31.859,33.13
31.875,30.32
31.890,27.21
31.906,24.17
31.921,21.2
31.937,17.92
31.953,14.06
31.968,9.74
31.984,5.56
32.000,2.45
32.015,1.18
32.031,2.15
32.046,5.16
32.062,9.62
32.078,14.73
32.093,19.64
32.109,23.47
32.125,25.37
32.140,24.56
32.156,20.66
32.171,13.83
32.187,4.9
32.203,-4.87
32.218,-14.25
32.234,-22.61
32.250,-30.1
32.265,-37.49
32.281,-45.59
32.296,-54.72
32.312,-64.37
32.328,-73.51
32.343,-81.01
32.359,-86.24
32.375,-89.36
32.390,-91.15
32.406,-92.68
32.421,-94.95
32.437,-98.54
32.453,-103.6
32.468,-109.88
32.484,-116.74
32.500,-123.15
32.515,-127.64
32.531,-128.46
32.546,-123.9
32.562,-112.8
32.578,-94.95
32.593,-71.34
32.609,-44.05
32.625,-15.78
32.640,10.65
32.656,32.9
32.671,49.61
32.687,60.5
32.703,66.38
32.718,68.91
32.734,70.07
32.750,71.62
32.765,74.53
32.781,78.63
32.796,82.82
32.812,85.69
32.828,86.14
32.843,84.04
32.859,80.15
32.875,75.79
32.890,72.04
32.906,69.39
32.921,67.59
32.937,65.99
32.953,64.03
32.968,61.55
32.984,58.77
33.000,56.03
33.015,53.46
33.031,50.87
33.046,47.89
33.062,44.16
33.078,39.49
33.093,33.88
33.109,27.39
33.125,20.08
33.140,11.92
33.156,2.95
33.171,-6.51
33.187,-15.63
33.203,-23.11
33.218,-27.34
33.234,-27.0
33.250,-21.5
33.265,-11.45
33.281,1.52
33.296,15.14
33.312,27.34
33.328,36.86
33.343,43.55
33.359,48.22
33.375,51.96
33.390,55.57
33.406,59.1
33.421,62.01
33.437,63.53
33.453,63.19
33.468,61.15
33.484,58.13
33.500,55.11
33.515,52.94
33.531,52.26
33.546,53.58
33.562,57.17
33.578,62.86
33.593,69.49
33.609,74.74
33.625,75.49
33.640,68.96
33.656,54.14
33.671,32.65
33.687,8.24
33.703,-14.68
33.718,-33.04
33.734,-46.43
33.750,-56.91
33.765,-67.67
33.781,-81.07
33.796,-97.46
33.812,-115.11
33.828,-131.18
33.843,-143.04
33.859,-149.04
33.875,-148.66
33.890,-142.09
33.906,-130.0
33.921,-113.4
33.937,-93.71
33.953,-72.77
33.968,-52.48
33.984,-34.2
34.000,-18.38
34.015,-4.66
34.031,7.57
34.046,18.56
34.062,27.83
34.078,34.43
34.093,37.64
34.109,37.66
34.125,35.73
34.140,33.65
34.156,32.92
34.171,34.14
34.187,36.78
34.203,39.65
34.218,41.47
34.234,41.45
34.250,39.45
34.265,35.73
34.281,30.75
34.296,24.89
34.312,18.35
34.328,11.22
34.343,3.4
34.359,-5.23
34.375,-14.81
34.390,-25.47
34.406,-37.14
34.421,-49.3
34.437,-60.86
34.453,-70.11
34.468,-74.97
34.484,-73.49
34.500,-64.74
34.515,-49.61
34.531,-31.16
34.546,-14.01
34.562,-2.77
34.578,-0.16
34.593,-5.76
34.609,-16.07
34.625,-26.0
34.640,-31.1
34.656,-29.38
34.671,-21.81
34.687,-11.43
34.703,-1.68
34.718,5.04
34.734,7.86
34.750,7.09
34.765,3.5
34.781,-2.29
34.796,-9.68
34.812,-17.86
34.828,-25.59
34.843,-31.38
34.859,-34.15
34.875,-33.7
34.890,-31.02
34.906,-27.98
34.921,-26.6
34.937,-28.23
34.953,-33.04
34.968,-40.09
34.984,-47.82
35.000,-54.74
35.015,-60.12
35.031,-64.1
35.046,-67.52
35.062,-71.4
35.078,-76.35
35.093,-82.15
35.109,-87.71
35.125,-91.29
35.140,-90.95
35.156,-85.04
35.171,-72.77
35.187,-54.42
35.203,-31.34
35.218,-5.63
35.234,20.26
35.250,44.04
35.265,63.92
35.281,78.88
35.296,88.78
35.312,94.44
35.328,97.4
35.343,99.48
35.359,102.07
35.375,105.59
35.390,109.27
35.406,111.62
35.421,111.23
35.437,107.51
35.453,101.01
35.468,93.08
35.484,85.15
35.500,78.09
35.515,72.0
35.531,66.6
35.546,61.71
35.562,57.48
35.578,54.29
35.593,52.25
35.609,50.8
35.625,48.7
35.640,44.53
35.656,37.37
35.671,27.42
35.687,16.14
35.703,5.83
35.718,-1.16
35.734,-3.34
35.750,-0.46
35.765,6.51
35.781,16.11
35.796,26.96
35.812,38.09
35.828,48.78
35.843,58.27
35.859,65.59
35.875,69.8
35.890,70.67
35.906,68.9
35.921,65.86
35.937,62.64
35.953,59.22
35.968,54.56
35.984,47.4
36.000,37.5
36.015,26.28
36.031,16.33
36.046,10.04
36.062,8.48
36.078,10.88
36.093,15.61
36.109,21.53
36.125,28.73
36.140,38.29
36.156,51.28
36.171,67.58
36.187,85.38
36.203,101.65
36.218,113.42
36.234,118.82
36.250,117.67
36.265,111.06
36.281,100.43
36.296,86.49
36.312,68.64
36.328,44.81
36.343,12.22
36.359,-31.39
36.375,-86.29
36.390,-149.38
36.406,-213.93
36.421,-270.46
36.437,-309.07
36.453,-322.3
36.468,-307.41
36.484,-267.07
36.500,-208.39
36.515,-140.5
36.531,-71.95
36.546,-9.07
36.562,44.34
36.578,85.87
36.593,113.56
36.609,125.73
36.625,122.02
36.640,104.53
36.656,78.19
36.671,49.46
36.687,24.04
36.703,4.7
36.718,-9.46
36.734,-21.88
36.750,-36.07
36.765,-53.28
36.781,-71.91
36.796,-88.65
36.812,-100.68
36.828,-107.42
36.843,-110.7
36.859,-113.45
36.875,-117.84
36.890,-124.18
36.906,-131.03
36.921,-136.43
36.937,-139.11
36.953,-138.93
36.968,-136.58
36.984,-132.79
37.000,-127.86
37.015,-121.69
37.031,-114.23
37.046,-105.7
37.062,-96.53
37.078,-86.82
37.093,-76.0
37.109,-63.03
37.125,-46.85
37.140,-26.97
37.156,-3.66
37.171,22.19
37.187,49.48
37.203,77.23
37.218,104.49
37.234,130.17
37.250,152.97
37.265,171.54
37.281,184.93
37.296,192.86
37.312,195.77
37.328,194.47
37.343,189.75
37.359,182.12
37.375,171.72
37.390,158.61
37.406,143.08
37.421,125.9
37.437,108.41
37.453,92.34
37.468,79.37
37.484,70.59
37.500,65.94
37.515,64.17
37.531,63.29
37.546,61.35
37.562,57.36
37.578,51.71
37.593,46.07
37.609,42.55
37.625,42.87
37.640,47.71
37.656,56.45
37.671,67.61
37.687,79.52
37.703,91.04
37.718,102.04
37.734,113.38
37.750,126.36
37.765,141.75
37.781,159.06
37.796,176.1
37.812,189.63
37.828,196.38
37.843,194.38
37.859,183.6
37.875,165.85
37.890,143.81
37.906,119.86
37.921,95.46
37.937,71.12
37.953,47.05
37.968,23.71
37.984,2.09
38.000,-16.65
38.015,-31.84
38.031,-43.67
38.046,-53.16
38.062,-61.7
38.078,-70.41
38.093,-79.74
38.109,-89.48
38.125,-99.01
38.140,-107.61
38.156,-114.61
38.171,-119.52
38.187,-121.94
38.203,-121.62
38.218,-118.55
38.234,-113.07
38.250,-105.89
38.265,-98.1
38.281,-91.07
38.296,-86.28
38.312,-85.11
38.328,-88.72
38.343,-97.71
38.359,-112.04
38.375,-130.81
38.390,-152.31
38.406,-174.2
38.421,-193.93
38.437,-209.36
38.453,-219.33
38.468,-223.9
38.484,-224.16
38.500,-221.5
38.515,-216.89
38.531,-210.26
38.546,-200.7
38.562,-187.06
38.578,-168.92
38.593,-147.03
38.609,-123.25
38.625,-99.84
38.640,-78.76
38.656,-61.06
38.671,-47.0
38.687,-36.35
38.703,-28.91
38.718,-24.67
38.734,-23.73
38.750,-25.94
38.765,-30.7
38.781,-36.9
38.796,-43.16
38.812,-48.22
38.828,-51.29
38.843,-52.15
38.859,-51.12
38.875,-48.68
38.890,-45.12
38.906,-40.36
38.921,-33.91
38.937,-25.29
38.953,-14.42
38.968,-1.98
38.984,10.56
39.000,21.4
39.015,29.04
39.031,32.78
39.046,33.04
39.062,30.97
39.078,27.95
39.093,24.85
39.109,21.81
39.125,18.26
39.140,13.43
39.156,6.82
39.171,-1.45
39.187,-10.58
39.203,-19.43
39.218,-26.77
39.234,-31.57
39.250,-33.13
39.265,-31.11
39.281,-25.6
39.296,-17.09
39.312,-6.61
39.328,4.39
39.343,14.23
39.359,21.45
39.375,25.23
39.390,25.68
39.406,23.76
39.421,20.88
39.437,18.38
39.453,17.06
39.468,17.08
39.484,18.07
39.500,19.44
39.515,20.71
39.531,21.6
39.546,22.05
39.562,22.18
39.578,22.25
39.593,22.74
39.609,24.24
39.625,27.26
39.640,31.92
39.656,37.77
39.671,43.81
39.687,48.94
39.703,52.35
39.718,53.87
39.734,53.95
39.750,53.27
39.765,52.36
39.781,51.18
39.796,49.22
39.812,45.77
39.828,40.42
39.843,33.37
39.859,25.53
39.875,18.33
39.890,13.36
39.906,11.95
39.921,14.85
39.937,21.97
39.953,32.52
39.968,45.21
39.984,58.5
40.000,70.91
40.015,81.17
40.031,88.26
40.046,91.42
40.062,90.32
40.078,85.13
40.093,76.69
40.109,66.42
40.125,55.98
40.140,46.78
40.156,39.58
40.171,34.32
40.187,30.34
40.203,26.79
40.218,23.11
40.234,19.2
40.250,15.44
40.265,12.31
40.281,10.08
40.296,8.62
40.312,7.42
40.328,5.84
40.343,3.37
40.359,-0.16
40.375,-4.59
40.390,-9.48
40.406,-14.41
40.421,-19.0
40.437,-23.09
40.453,-26.74
40.468,-30.18
40.484,-33.85
40.500,-38.33
40.515,-44.26
40.531,-51.98
40.546,-61.19
40.562,-70.65
40.578,-78.36
40.593,-82.04
40.609,-79.99
40.625,-71.8
40.640,-58.54
40.656,-42.4
40.671,-25.76
40.687,-10.43
40.703,2.79
40.718,14.02
40.734,23.67
40.750,31.99
40.765,38.81
40.781,43.75
40.796,46.56
40.812,47.39
40.828,46.83
40.843,45.52
40.859,44.01
40.875,42.41
40.890,40.59
40.906,38.34
40.921,35.59
40.937,32.57
40.953,29.7
40.968,27.4
40.984,25.84
41.000,24.93
41.015,24.28
41.031,23.33
41.046,21.56
41.062,18.61
41.078,14.35
41.093,8.91
41.109,2.52
41.125,-4.62
41.140,-12.46
41.156,-21.08
41.171,-30.67
41.187,-41.31
41.203,-52.88
41.218,-65.02
41.234,-77.2
41.250,-88.75
41.265,-98.88
41.281,-106.58
41.296,-110.73
41.312,-110.25
41.328,-104.36
41.343,-93.02
41.359,-77.01
41.375,-57.84
41.390,-37.35
41.406,-17.21
41.421,1.42
41.437,18.02
41.453,32.52
41.468,45.01
41.484,55.46
41.500,63.59
41.515,69.04
41.531,71.56
41.546,71.32
41.562,69.01
41.578,65.74
41.593,62.74
41.609,60.99
41.625,61.02
41.640,62.76
41.656,65.79
41.671,69.54
41.687,73.48
41.703,77.11
41.718,79.99
41.734,81.58
41.750,81.38
41.765,78.99
41.781,74.35
41.796,67.81
41.812,60.06
41.828,51.98
41.843,44.32
41.859,37.54
41.875,31.78
41.890,26.89
41.906,22.62
41.921,18.61
41.937,14.46
41.953,9.65
41.968,3.57
41.984,-4.3
42.000,-14.19
42.015,-25.7
42.031,-37.71
42.046,-48.53
42.062,-56.31
42.078,-59.51
42.093,-57.4
42.109,-50.2
42.125,-38.98
42.140,-25.32
42.156,-10.91
42.171,2.8
42.187,14.74
42.203,24.33
42.218,31.37
42.234,35.93
42.250,38.28
42.265,38.8
42.281,37.92
42.296,36.11
42.312,33.87
42.328,31.68
42.343,29.95
42.359,28.89
42.375,28.46
42.390,28.42
42.406,28.39
42.421,28.05
42.437,27.22
42.453,25.91
42.468,24.23
42.484,22.28
42.500,20.02
42.515,17.31
42.531,13.95
42.546,9.78
42.562,4.76
42.578,-0.96
42.593,-7.19
42.609,-13.72
42.625,-20.48
42.640,-27.54
42.656,-35.12
42.671,-43.49
42.687,-52.87
42.703,-63.36
42.718,-74.87
42.734,-87.22
42.750,-100.0
42.765,-112.59
42.781,-124.06
42.796,-133.16
42.812,-138.47
42.828,-138.79
42.843,-133.4
42.859,-122.36
42.875,-106.66
42.890,-87.93
42.906,-68.14
42.921,-49.18
42.937,-32.48
42.953,-18.86
42.968,-8.56
42.984,-1.31
43.000,3.5
43.015,6.66
43.031,9.11
43.046,11.79
43.062,15.55
43.078,20.92
43.093,28.0
43.109,36.43
43.125,45.51
43.140,54.42
43.156,62.43
43.171,69.16
43.187,74.5
43.203,78.53
43.218,81.43
43.234,83.4
43.250,84.51
43.265,84.78
43.281,84.12
43.296,82.32
43.312,79.18
43.328,74.53
43.343,68.39
43.359,61.03
43.375,52.84
43.390,44.26
43.406,35.58
43.421,26.88
43.437,18.04
43.453,8.86
43.468,-0.82
43.484,-11.01
43.500,-21.6
43.515,-32.34
43.531,-42.78
43.546,-52.25
43.562,-59.78
43.578,-64.32
43.593,-64.86
43.609,-60.83
43.625,-52.37
43.640,-40.3
43.656,-25.98
43.671,-10.86
43.687,3.84
43.703,17.32
43.718,29.12
43.734,38.96
43.750,46.56
43.765,51.68
43.781,54.31
43.796,54.81
43.812,54.07
43.828,53.4
43.843,54.18
43.859,57.51
43.875,63.76
43.890,72.38
43.906,82.03
43.921,90.88
43.937,97.24
43.953,100.09
43.968,99.3
43.984,95.55
44.000,89.86
44.015,83.17
44.031,75.86
44.046,67.72
44.062,58.34
44.078,47.4
44.093,35.13
44.109,22.26
44.125,9.83
44.140,-1.22
44.156,-10.44
44.171,-17.95
44.187,-24.41
44.203,-30.65
44.218,-37.37
44.234,-44.98
44.250,-53.46
44.265,-62.38
44.281,-70.96
44.296,-78.25
44.312,-83.11
44.328,-84.49
44.343,-81.54
44.359,-74.0
44.375,-62.24
44.390,-47.37
44.406,-30.97
44.421,-14.7
44.437,0.01
44.453,12.23
44.468,21.47
44.484,27.63
44.500,30.79
44.515,31.14
44.531,29.11
44.546,25.32
44.562,20.69
44.578,16.19
44.593,12.66
44.609,10.54
44.625,9.78
44.640,9.92
44.656,10.33
44.671,10.5
44.687,10.15
44.703,9.24
44.718,7.88
44.734,6.12
44.750,3.83
44.765,0.82
44.781,-3.17
44.796,-8.22
44.812,-14.21
44.828,-20.8
44.843,-27.5
44.859,-33.82
44.875,-39.4
44.890,-44.13
44.906,-48.2
44.921,-52.01
44.937,-56.13
44.953,-61.07
44.968,-67.15
44.984,-74.26
45.000,-81.75
45.015,-88.44
45.031,-92.81
45.046,-93.28
45.062,-88.81
45.078,-79.1
45.093,-64.87
45.109,-47.54
45.125,-28.94
45.140,-10.82
45.156,5.5
45.171,19.21
45.187,29.94
45.203,37.59
45.218,42.24
45.234,44.13
45.250,43.73
45.265,41.74
45.281,39.04
45.296,36.49
45.312,34.67
45.328,33.78
45.343,33.54
45.359,33.5
45.375,33.16
45.390,32.33
45.406,31.11
45.421,29.82
45.437,28.81
45.453,28.15
45.468,27.62
45.484,26.75
45.500,25.06
45.515,22.17
45.531,18.0
45.546,12.71
45.562,6.63
45.578,0.17
45.593,-6.36
45.609,-12.73
45.625,-18.85
45.640,-24.82
45.656,-30.82
45.671,-37.13
45.687,-44.06
45.703,-51.82
45.718,-60.39
45.734,-69.32
45.750,-77.65
45.765,-84.02
45.781,-86.93
45.796,-85.25
45.812,-78.63
45.828,-67.58
45.843,-53.41
45.859,-37.78
45.875,-22.22
45.890,-7.78
45.906,4.96
45.921,15.76
45.937,24.51
45.953,31.1
45.968,35.49
45.984,37.81
46.000,38.44
46.015,38.05
46.031,37.33
46.046,36.85
46.062,36.91
46.078,37.42
46.093,38.13
46.109,38.68
46.125,38.84
46.140,38.57
46.156,37.98
46.171,37.26
46.187,36.54
46.203,35.84
46.218,35.03
46.234,33.87
46.250,32.05
46.265,29.31
46.281,25.52
46.296,20.67
46.312,14.99
46.328,8.81
46.343,2.58
46.359,-3.34
46.375,-8.84
46.390,-14.23
46.406,-20.18
46.421,-27.5
46.437,-36.73
46.453,-47.74
46.468,-59.53
46.484,-70.28
46.500,-77.86
46.515,-80.35
46.531,-76.62
46.546,-66.63
46.562,-51.37
46.578,-32.66
46.593,-12.6
46.609,6.75
46.625,23.77
46.640,37.42
46.656,47.32
46.671,53.57
46.687,56.7
46.703,57.33
46.718,56.16
46.734,53.84
46.750,51.01
46.765,48.25
46.781,46.02
46.796,44.57
46.812,43.91
46.828,43.87
46.843,44.26
46.859,45.02
46.875,46.29
46.890,48.36
46.906,51.35
46.921,55.03
46.937,58.78
46.953,61.68
46.968,62.87
46.984,61.91
47.000,58.89
47.015,54.44
47.031,49.41
47.046,44.57
47.062,40.38
47.078,36.89
47.093,33.88
47.109,31.0
47.125,28.01
47.140,24.8
47.156,21.41
47.171,17.98
47.187,14.69
47.203,11.69
47.218,9.07
47.234,6.85
47.250,4.97
47.265,3.36
47.281,1.94
47.296,0.71
47.312,-0.33
47.328,-1.17
47.343,-1.85
47.359,-2.5
47.375,-3.29
47.390,-4.4
47.406,-5.95
47.421,-7.99
47.437,-10.48
47.453,-13.3
47.468,-16.27
47.484,-19.14
47.500,-21.7
47.515,-23.73
47.531,-25.21
47.546,-26.3
47.562,-27.34
47.578,-28.7
47.593,-30.65
47.609,-33.21
47.625,-36.19
47.640,-39.25
47.656,-42.11
47.671,-44.74
47.687,-47.47
47.703,-50.81
47.718,-55.31
47.734,-61.18
47.750,-68.14
47.765,-75.5
47.781,-82.45
47.796,-88.38
47.812,-93.19
47.828,-97.33
47.843,-101.62
47.859,-106.93
47.875,-113.89
47.890,-122.72
47.906,-133.0
47.921,-143.62
47.937,-152.69
47.953,-157.84
47.968,-156.74
47.984,-147.86
48.000,-131.07
48.015,-107.91
48.031,-81.15
48.046,-53.97
48.062,-29.1
48.078,-8.26
48.093,7.87
48.109,19.37
48.125,26.63
48.140,30.18
48.156,30.61
48.171,28.78
48.187,25.79
48.203,22.88
48.218,21.06
48.234,20.86
48.250,22.15
48.265,24.27
48.281,26.43
48.296,27.96
48.312,28.67
48.328,28.79
48.343,28.76
48.359,28.9
48.375,29.18
48.390,29.2
48.406,28.28
48.421,25.8
48.437,21.49
48.453,15.5
48.468,8.43
48.484,1.08
48.500,-5.83
48.515,-11.89
48.531,-17.18
48.546,-22.2
48.562,-27.71
48.578,-34.5
48.593,-42.98
48.609,-53.06
48.625,-63.95
48.640,-74.27
48.656,-82.15
48.671,-85.71
48.687,-83.54
48.703,-75.08
48.718,-60.87
48.734,-42.46
48.750,-21.99
48.765,-1.69
48.781,16.65
48.796,31.95
48.812,43.78
48.828,52.22
48.843,57.56
48.859,60.15
48.875,60.39
48.890,58.88
48.906,56.39
48.921,53.78
48.937,51.79
48.953,50.8
48.968,50.76
48.984,51.31
49.000,52.07
49.015,52.87
49.031,53.83
49.046,55.24
49.062,57.21
49.078,59.57
49.093,61.82
49.109,63.34
49.125,63.68
49.140,62.74
49.156,60.69
49.171,57.93
49.187,54.8
49.203,51.58
49.218,48.39
49.234,45.25
49.250,42.15
49.265,39.06
49.281,35.99
49.296,33.07
49.312,30.46
49.328,28.31
49.343,26.67
49.359,25.41
49.375,24.29
49.390,23.08
49.406,21.69
49.421,20.22
49.437,18.91
49.453,17.92
49.468,17.28
49.484,16.86
49.500,16.45
49.515,15.87
49.531,15.01
49.546,13.87
49.562,12.39
49.578,10.57
49.593,8.38
49.609,5.88
49.625,3.23
49.640,0.54
49.656,-2.11
49.671,-4.8
49.687,-7.75
49.703,-11.19
49.718,-15.24
49.734,-19.85
49.750,-24.75
49.765,-29.58
49.781,-34.03
49.796,-38.07
49.812,-41.88
49.828,-45.92
49.843,-50.66
49.859,-56.4
49.875,-63.07
49.890,-70.28
49.906,-77.46
49.921,-84.08
49.937,-89.92
49.953,-95.26
49.968,-100.76
49.984,-107.35
50.000,-115.86
50.015,-126.57
50.031,-138.83
50.046,-150.94
50.062,-160.27
50.078,-163.9
50.093,-159.53
50.109,-146.29
50.125,-125.08
50.140,-98.37
50.156,-69.44
50.171,-41.38
50.187,-16.47
50.203,4.09
50.218,19.91
50.234,30.99
50.250,37.46
50.265,39.62
50.281,38.1
50.296,33.94
50.312,28.57
50.328,23.35
50.343,19.31
50.359,16.76
50.375,15.49
50.390,14.97
50.406,14.74
50.421,14.61
50.437,14.67
50.453,15.07
50.468,15.8
50.484,16.52
50.500,16.58
50.515,15.31
50.531,12.29
50.546,7.47
50.562,1.29
50.578,-5.61
50.593,-12.56
50.609,-19.23
50.625,-25.61
50.640,-32.11
50.656,-39.31
50.671,-47.72
50.687,-57.6
50.703,-68.6
50.718,-79.8
50.734,-89.63
50.750,-96.19
50.765,-97.72
50.781,-93.12
50.796,-82.29
50.812,-66.22
50.828,-46.7
50.843,-25.81
50.859,-5.46
50.875,12.95
50.890,28.53
50.906,40.83
50.921,49.65
50.937,54.99
50.953,57.05
50.968,56.36
50.984,53.73
51.000,50.13
51.015,46.49
51.031,43.43
51.046,41.18
51.062,39.63
51.078,38.5
51.093,37.55
51.109,36.76
51.125,36.22
51.140,36.03
51.156,36.09
51.171,35.96
51.187,34.94
51.203,32.32
51.218,27.67
51.234,21.0
51.250,12.86
51.265,4.08
51.281,-4.47
51.296,-12.21
51.312,-19.02
51.328,-25.23
51.343,-31.54
51.359,-38.74
51.375,-47.44
51.390,-57.8
51.406,-69.17
51.421,-80.08
51.437,-88.39
51.453,-91.76
51.468,-88.37
51.484,-77.63
51.500,-60.44
51.515,-38.96
51.531,-15.87
51.546,6.35
51.562,26.07
51.578,42.6
51.593,55.88
51.609,66.07
51.625,73.23
51.640,77.37
51.656,78.63
51.671,77.55
51.687,75.12
51.703,72.52
51.718,70.79
51.734,70.42
51.750,71.27
51.765,72.68
51.781,73.79
51.796,73.92
51.812,72.86
51.828,70.92
51.843,68.63
51.859,66.45
51.875,64.42
51.890,62.09
51.906,58.76
51.921,53.79
51.937,47.01
51.953,38.84
51.968,30.14
51.984,21.85
52.000,14.6
52.015,8.43
52.031,2.91
52.046,-2.76
52.062,-9.44
52.078,-17.78
52.093,-28.07
52.109,-40.13
52.125,-53.12
52.140,-65.55
52.156,-75.43
52.171,-80.61
52.187,-79.37
52.203,-71.03
52.218,-56.24
52.234,-36.82
52.250,-15.28
52.265,5.96
52.281,25.14
52.296,41.3
52.312,54.22
52.328,64.02
52.343,70.96
52.359,75.32
52.375,77.43
52.390,77.81
52.406,77.14
52.421,76.13
52.437,75.32
52.453,74.99
52.468,75.12
52.484,75.53
52.500,76.02
52.515,76.45
52.531,76.88
52.546,77.44
52.562,78.23
52.578,79.17
52.593,79.92
52.609,80.03
52.625,79.08
52.640,76.93
52.656,73.81
52.671,70.19
52.687,66.58
52.703,63.27
52.718,60.26
52.734,57.32
52.750,54.21
52.765,50.88
52.781,47.48
52.796,44.26
52.812,41.39
52.828,38.88
52.843,36.58
52.859,34.37
52.875,32.21
52.890,30.2
52.906,28.5
52.921,27.2
52.937,26.29
52.953,25.57
52.968,24.83
52.984,23.84
53.000,22.45
53.015,20.63
53.031,18.44
53.046,16.05
53.062,13.65
53.078,11.44
53.093,9.54
53.109,7.93
53.125,6.48
53.140,4.96
53.156,3.12
53.171,0.82
53.187,-1.94
53.203,-4.99
53.218,-8.05
53.234,-10.84
53.250,-13.24
53.265,-15.33
53.281,-17.36
53.296,-19.62
53.312,-22.31
53.328,-25.43
53.343,-28.73
53.359,-31.9
53.375,-34.67
53.390,-37.0
53.406,-39.13
53.421,-41.54
53.437,-44.77
53.453,-49.24
53.468,-55.03
53.484,-61.87
53.500,-69.17
53.515,-76.3
53.531,-82.79
53.546,-88.5
53.562,-93.76
53.578,-99.27
53.593,-105.89
53.609,-114.43
53.625,-125.15
53.640,-137.42
53.656,-149.54
53.671,-158.89
53.687,-162.53
53.703,-158.07
53.718,-144.6
53.734,-123.03
53.750,-95.96
53.765,-66.88
53.781,-39.16
53.796,-15.24
53.812,3.74
53.828,17.75
53.843,27.42
53.859,33.55
53.875,36.88
53.890,37.98
53.906,37.47
53.921,36.1
53.937,34.67
53.953,33.99
53.968,34.52
53.984,36.27
54.000,38.82
54.015,41.45
54.031,43.48
54.046,44.52
54.062,44.59
54.078,43.96
54.093,42.97
54.109,41.79
54.125,40.22
54.140,37.86
54.156,34.26
54.171,29.23
54.187,22.98
54.203,16.13
54.218,9.51
54.234,3.8
54.250,-0.76
54.265,-4.47
54.281,-8.1
54.296,-12.54
54.312,-18.52
54.328,-26.33
54.343,-35.79
54.359,-46.28
54.375,-56.78
54.390,-65.97
54.406,-72.26
54.421,-74.09
54.437,-70.26
54.453,-60.42
54.468,-45.24
54.484,-26.43
54.500,-6.16
54.515,13.53
54.531,31.28
54.546,46.42
54.562,58.79
54.578,68.27
54.593,74.55
54.609,77.24
54.625,76.19
54.640,71.92
54.656,65.65
54.671,59.02
54.687,53.48
54.703,49.87
54.718,48.15
54.734,47.62
54.750,47.38
54.765,46.75
54.781,45.45
54.796,43.55
54.812,41.24
54.828,38.63
54.843,35.64
54.859,32.18
54.875,28.2
54.890,23.79
54.906,19.07
54.921,14.11
54.937,8.86
54.953,3.17
54.968,-3.05
54.984,-9.8
55.000,-16.86
55.015,-23.91
55.031,-30.65
55.046,-36.97
55.062,-43.03
55.078,-49.26
55.093,-56.22
55.109,-64.23
55.125,-73.16
55.140,-82.14
55.156,-89.6
55.171,-93.62
55.187,-92.46
55.203,-85.24
55.218,-72.25
55.234,-54.97
55.250,-35.57
55.265,-16.28
55.281,1.25
55.296,16.16
55.312,28.3
55.328,37.87
55.343,45.16
55.359,50.33
55.375,53.48
55.390,54.79
55.406,54.6
55.421,53.37
55.437,51.57
55.453,49.52
55.468,47.41
55.484,45.31
55.500,43.27
55.515,41.41
55.531,39.86
55.546,38.69
55.562,37.89
55.578,37.25
55.593,36.48
55.609,35.32
55.625,33.53
55.640,31.02
55.656,27.83
55.671,24.06
55.687,19.88
55.703,15.47
55.718,11.06
55.734,6.85
55.750,3.03
55.765,-0.38
55.781,-3.51
55.796,-6.62
55.812,-10.1
55.828,-14.38
55.843,-19.79
55.859,-26.53
55.875,-34.45
55.890,-42.95
55.906,-50.8
55.921,-56.34
55.937,-57.81
55.953,-53.96
55.968,-44.49
55.984,-30.32
56.000,-13.28
56.015,4.39
56.031,20.77
56.046,34.59
56.062,45.32
56.078,52.95
56.093,57.61
56.109,59.38
56.125,58.34
56.140,54.72
56.156,49.11
56.171,42.45
56.187,35.81
56.203,30.08
56.218,25.66
56.234,22.4
56.250,19.68
56.265,16.74
56.281,12.99
56.296,8.27
56.312,2.91
56.328,-2.45
56.343,-7.09
56.359,-10.46
56.375,-12.19
56.390,-12.23
56.406,-10.77
56.421,-8.45
56.437,-6.29
56.453,-5.63
56.468,-7.75
56.484,-13.41
56.500,-22.54
56.515,-34.33
56.531,-47.52
56.546,-61.1
56.562,-74.65
56.578,-88.38
56.593,-102.73
56.609,-117.78
56.625,-132.75
56.640,-145.98
56.656,-155.31
56.671,-158.78
56.687,-155.28
56.703,-144.84
56.718,-128.7
56.734,-108.94
56.750,-87.78
56.765,-67.18
56.781,-48.4
56.796,-32.06
56.812,-18.38
56.828,-7.47
56.843,0.57
56.859,5.67
56.875,8.1
56.890,8.56
56.906,8.12
56.921,8.01
56.937,9.13
56.953,11.88
56.968,16.02
56.984,20.93
57.000,25.93
57.015,30.54
57.031,34.65
57.046,38.38
57.062,41.92
57.078,45.34
57.093,48.5
57.109,51.14
57.125,53.04
57.140,54.11
57.156,54.48
57.171,54.44
57.187,54.27
57.203,54.11
57.218,53.97
57.234,53.7
57.250,53.1
57.265,52.07
57.281,50.62
57.296,48.89
57.312,47.1
57.328,45.46
57.343,44.15
57.359,43.26
57.375,42.78
57.390,42.66
57.406,42.85
57.421,43.24
57.437,43.71
57.453,44.06
57.468,44.05
57.484,43.42
57.500,42.05
57.515,40.03
57.531,37.62
57.546,35.23
57.562,33.16
57.578,31.56
57.593,30.35
57.609,29.31
57.625,28.19
57.640,26.95
57.656,25.7
57.671,24.61
57.687,23.82
57.703,23.28
57.718,22.7
57.734,21.72
57.750,20.05
57.765,17.58
57.781,14.48
57.796,11.15
57.812,7.99
57.828,5.22
57.843,2.8
57.859,0.39
57.875,-2.54
57.890,-6.46
57.906,-11.7
57.921,-18.16
57.937,-25.45
57.953,-32.93
57.968,-39.86
57.984,-45.68
58.000,-50.17
58.015,-53.52
58.031,-56.38
58.046,-59.64
58.062,-64.32
58.078,-71.13
58.093,-80.06
58.109,-90.0
58.125,-98.72
58.140,-103.31
58.156,-101.1
58.171,-90.57
58.187,-72.09
58.203,-47.88
58.218,-21.29
58.234,4.27
58.250,26.35
58.265,43.85
58.281,56.79
58.296,65.75
58.312,71.23
58.328,73.48
58.343,72.64
58.359,69.12
58.375,63.84
58.390,58.2
58.406,53.65
58.421,51.22
58.437,51.3
58.453,53.45
58.468,56.78
58.484,60.21
58.500,62.91
58.515,64.42
58.531,64.66
58.546,63.81
58.562,62.08
58.578,59.62
58.593,56.49
58.609,52.7
58.625,48.23
58.640,43.16
58.656,37.59
58.671,31.72
58.687,25.78
58.703,19.97
58.718,14.45
58.734,9.26
58.750,4.26
58.765,-0.92
58.781,-6.79
58.796,-13.95
58.812,-22.84
58.828,-33.57
58.843,-45.71
58.859,-58.17
58.875,-69.31
58.890,-77.16
58.906,-79.99
58.921,-76.8
58.937,-67.65
58.953,-53.78
58.968,-37.21
58.984,-20.36
59.000,-5.32
59.015,6.5
59.031,14.51
59.046,18.94
59.062,20.5
59.078,20.09
59.093,18.49
59.109,16.28
59.125,13.77
59.140,11.11
59.156,8.32
59.171,5.49
59.187,2.74
59.203,0.28
59.218,-1.72
59.234,-3.04
59.250,-3.45
59.265,-2.78
59.281,-0.89
59.296,2.2
59.312,6.3
59.328,10.99
59.343,15.73
59.359,19.91
59.375,23.02
59.390,24.69
59.406,24.72
59.421,23.08
59.437,19.83
59.453,15.12
59.468,9.18
59.484,2.27
59.500,-5.39
59.515,-13.56
59.531,-22.1
59.546,-30.97
59.562,-40.18
59.578,-49.82
59.593,-60.06
59.609,-71.12
59.625,-83.15
59.640,-96.09
59.656,-109.33
59.671,-121.69
59.687,-131.37
59.703,-136.39
59.718,-135.21
59.734,-127.2
59.750,-113.0
59.765,-94.28
59.781,-73.29
59.796,-52.27
59.812,-32.9
59.828,-16.19
59.843,-2.57
59.859,7.9
59.875,15.41
59.890,20.31
59.906,23.18
59.921,24.83
59.937,26.16
59.953,27.98
59.968,30.82
59.984,34.81
