timestamp,value
00.000,15.13
00.015,23.31
00.031,31.42
00.046,39.06
00.062,45.51
00.078,49.91
00.093,51.51
00.109,50.18
00.125,46.74
00.140,42.89
00.156,40.71
00.171,42.0
00.187,47.64
00.203,57.37
00.218,70.03
00.234,84.06
00.250,97.8
00.265,109.46
00.281,117.02
00.296,118.23
00.312,111.2
00.328,95.11
00.343,70.83
00.359,41.06
00.375,9.72
00.390,-19.15
00.406,-42.41
00.421,-58.45
00.437,-67.13
00.453,-69.33
00.468,-66.35
00.484,-59.57
00.500,-50.16
00.515,-39.18
00.531,-27.4
00.546,-15.35
00.562,-3.32
00.578,8.62
00.593,20.31
00.609,31.46
00.625,41.5
00.640,49.93
00.656,56.38
00.671,60.99
00.687,64.21
00.703,66.63
00.718,68.53
00.734,69.63
00.750,69.25
00.765,66.54
00.781,61.09
00.796,52.98
00.812,42.87
00.828,31.44
00.843,19.03
00.859,5.38
00.875,-10.12
00.890,-27.89
00.906,-47.75
00.921,-68.61
00.937,-88.65
00.953,-105.7
00.968,-117.76
00.984,-123.32
01.000,-121.63
01.015,-112.94
01.031,-98.52
01.046,-80.72
01.062,-62.5
01.078,-46.77
01.093,-35.58
01.109,-29.63
01.125,-28.23
01.140,-29.79
01.156,-32.46
01.171,-34.71
01.187,-35.56
01.203,-34.53
01.218,-31.45
01.234,-26.34
01.250,-19.51
01.265,-11.66
01.281,-3.84
01.296,2.88
01.312,7.96
01.328,11.88
01.343,16.2
01.359,23.03
01.375,34.22
01.390,50.58
01.406,71.5
01.421,95.16
01.437,119.17
01.453,141.25
01.468,159.68
01.484,173.22
01.500,180.86
01.515,181.54
01.531,174.3
01.546,158.55
01.562,134.55
01.578,103.51
01.593,67.48
01.609,28.89
01.625,-9.87
01.640,-46.67
01.656,-79.73
01.671,-107.44
01.687,-128.39
01.703,-141.49
01.718,-146.27
01.734,-143.06
01.750,-133.04
01.765,-117.94
01.781,-99.7
01.796,-80.07
01.812,-60.37
01.828,-41.49
01.843,-23.86
01.859,-7.7
01.875,6.96
01.890,20.05
01.906,31.44
01.921,40.81
01.937,47.75
01.953,51.95
01.968,53.5
01.984,53.08
02.000,51.77
02.015,50.81
02.031,51.05
02.046,52.79
02.062,55.73
02.078,59.35
02.093,63.21
02.109,67.03
02.125,70.69
02.140,73.92
02.156,76.17
02.171,76.74
02.187,74.83
02.203,69.88
02.218,61.5
02.234,49.58
02.250,34.13
02.265,15.28
02.281,-6.63
02.296,-30.96
02.312,-56.76
02.328,-82.8
02.343,-107.6
02.359,-129.54
02.375,-146.98
02.390,-158.57
02.406,-163.61
02.421,-162.33
02.437,-155.81
02.453,-145.61
02.468,-133.2
02.484,-119.5
02.500,-104.9
02.515,-89.63
02.531,-74.27
02.546,-59.93
02.562,-47.98
02.578,-39.47
02.593,-34.49
02.609,-32.04
02.625,-30.33
02.640,-27.51
02.656,-22.39
02.671,-14.75
02.687,-5.22
02.703,5.12
02.718,15.29
02.734,24.78
02.750,33.72
02.765,42.67
02.781,52.3
02.796,63.04
02.812,74.87
02.828,87.31
02.843,99.51
02.859,110.48
02.875,119.02
02.890,123.87
02.906,123.65
02.921,117.15
02.937,103.57
02.953,83.02
02.968,56.69
02.984,26.79
03.000,-3.76
03.015,-32.01
03.031,-55.48
03.046,-72.61
03.062,-82.73
03.078,-85.88
03.093,-82.56
03.109,-73.61
03.125,-60.16
03.140,-43.59
03.156,-25.5
03.171,-7.4
03.187,9.54
03.203,24.71
03.218,38.02
03.234,49.52
03.250,58.99
03.265,65.58
03.281,68.01
03.296,65.18
03.312,56.86
03.328,44.33
03.343,30.27
03.359,18.11
03.375,10.85
03.390,10.22
03.406,16.09
03.421,26.85
03.437,40.1
03.453,53.5
03.468,65.35
03.484,74.61
03.500,80.86
03.515,83.96
03.531,83.83
03.546,80.48
03.562,73.97
03.578,64.37
03.593,51.7
03.609,36.02
03.625,17.29
03.640,-4.4
03.656,-28.86
03.671,-55.6
03.687,-83.82
03.703,-112.23
03.718,-138.93
03.734,-161.57
03.750,-177.66
03.765,-185.36
03.781,-184.06
03.796,-174.72
03.812,-159.59
03.828,-141.41
03.843,-122.53
03.859,-104.3
03.875,-87.02
03.890,-70.31
03.906,-53.87
03.921,-37.91
03.937,-23.29
03.953,-11.3
03.968,-3.07
03.984,0.96
04.000,1.35
04.015,-0.48
04.031,-2.62
04.046,-3.26
04.062,-1.28
04.078,3.67
04.093,11.2
04.109,20.65
04.125,31.49
04.140,43.5
04.156,56.63
04.171,70.8
04.187,85.73
04.203,100.87
04.218,115.57
04.234,129.03
04.250,140.16
04.265,147.51
04.281,149.25
04.296,143.53
04.312,128.95
04.328,105.29
04.343,73.85
04.359,37.51
04.375,0.23
04.390,-33.82
04.406,-61.15
04.421,-79.59
04.437,-88.54
04.453,-88.78
04.468,-82.09
04.484,-70.81
04.500,-57.43
04.515,-44.23
04.531,-32.93
04.546,-24.31
04.562,-18.22
04.578,-13.78
04.593,-9.97
04.609,-6.13
04.625,-2.18
04.640,1.64
04.656,5.18
04.671,8.72
04.687,12.83
04.703,17.84
04.718,23.45
04.734,28.67
04.750,32.3
04.765,33.61
04.781,32.77
04.796,30.77
04.812,28.95
04.828,28.34
04.843,29.34
04.859,31.78
04.875,35.26
04.890,39.44
04.906,44.04
04.921,48.7
04.937,52.76
04.953,55.26
04.968,55.17
04.984,51.62
05.000,44.27
05.015,33.36
05.031,19.66
05.046,4.28
05.062,-11.54
05.078,-26.62
05.093,-40.04
05.109,-51.3
05.125,-60.32
05.140,-67.25
05.156,-72.34
05.171,-75.76
05.187,-77.61
05.203,-78.11
05.218,-77.7
05.234,-76.91
05.250,-76.18
05.265,-75.69
05.281,-75.3
05.296,-75.07
05.312,-75.42
05.328,-77.19
05.343,-81.04
05.359,-86.73
05.375,-92.83
05.390,-97.0
05.406,-97.09
05.421,-92.1
05.437,-82.71
05.453,-70.89
05.468,-58.85
05.484,-48.0
05.500,-38.53
05.515,-29.66
05.531,-20.55
05.546,-11.0
05.562,-1.55
05.578,6.73
05.593,12.99
05.609,17.02
05.625,19.36
05.640,21.01
05.656,22.9
05.671,25.47
05.687,28.6
05.703,31.78
05.718,34.57
05.734,36.98
05.750,39.57
05.765,43.33
05.781,49.22
05.796,57.78
05.812,68.88
05.828,81.71
05.843,94.87
05.859,106.65
05.875,115.2
05.890,118.77
05.906,116.0
05.921,106.46
05.937,90.96
05.953,71.77
05.968,52.24
05.984,35.96
06.000,25.6
06.015,22.07
06.031,24.24
06.046,29.34
06.062,34.04
06.078,35.53
06.093,32.24
06.109,24.16
06.125,12.6
06.140,-0.32
06.156,-12.22
06.171,-21.14
06.187,-26.1
06.203,-27.44
06.218,-26.85
06.234,-26.92
06.250,-30.17
06.265,-38.02
06.281,-50.11
06.296,-64.19
06.312,-77.12
06.328,-86.06
06.343,-89.61
06.359,-88.18
06.375,-83.42
06.390,-77.18
06.406,-70.65
06.421,-64.14
06.437,-57.35
06.453,-50.04
06.468,-42.25
06.484,-34.26
06.500,-26.18
06.515,-17.73
06.531,-8.29
06.546,2.58
06.562,14.8
06.578,27.69
06.593,40.19
06.609,51.44
06.625,60.99
06.640,68.9
06.656,75.48
06.671,81.25
06.687,86.7
06.703,92.41
06.718,98.9
06.734,106.51
06.750,115.04
06.765,123.81
06.781,131.67
06.796,137.33
06.812,139.73
06.828,138.13
06.843,132.14
06.859,121.63
06.875,106.72
06.890,87.77
06.906,65.55
06.921,41.24
06.937,16.38
06.953,-7.38
06.968,-28.55
06.984,-46.14
07.000,-59.69
07.015,-69.35
07.031,-75.57
07.046,-78.86
07.062,-79.59
07.078,-77.96
07.093,-74.15
07.109,-68.72
07.125,-62.75
07.140,-57.67
07.156,-54.76
07.171,-54.41
07.187,-55.78
07.203,-56.98
07.218,-56.04
07.234,-51.8
07.250,-44.68
07.265,-36.4
07.281,-29.06
07.296,-24.12
07.312,-21.66
07.328,-20.53
07.343,-19.05
07.359,-15.97
07.375,-10.92
07.390,-4.39
07.406,2.7
07.421,9.59
07.437,15.98
07.453,21.92
07.468,27.6
07.484,33.02
07.500,37.91
07.515,41.98
07.531,44.94
07.546,46.66
07.562,46.98
07.578,45.49
07.593,41.41
07.609,33.63
07.625,21.05
07.640,3.0
07.656,-20.35
07.671,-47.85
07.687,-77.33
07.703,-105.85
07.718,-130.15
07.734,-147.19
07.750,-154.97
07.765,-153.17
07.781,-143.31
07.796,-128.4
07.812,-111.97
07.828,-96.98
07.843,-84.96
07.859,-75.81
07.875,-68.23
07.890,-60.61
07.906,-51.81
07.921,-41.61
07.937,-30.71
07.953,-20.33
07.968,-11.76
07.984,-5.97
08.000,-3.37
08.015,-3.67
08.031,-5.94
08.046,-8.85
08.062,-11.04
08.078,-11.32
08.093,-8.8
08.109,-2.9
08.125,6.68
08.140,19.83
08.156,35.97
08.171,53.89
08.187,71.87
08.203,88.07
08.218,100.92
08.234,109.52
08.250,113.77
08.265,114.16
08.281,111.39
08.296,106.06
08.312,98.34
08.328,88.09
08.343,75.01
08.359,58.75
08.375,39.21
08.390,16.67
08.406,-8.04
08.421,-33.42
08.437,-57.38
08.453,-77.42
08.468,-91.01
08.484,-96.22
08.500,-92.27
08.515,-80.01
08.531,-61.81
08.546,-41.04
08.562,-21.05
08.578,-4.16
08.593,8.92
08.609,19.03
08.625,27.73
08.640,36.3
08.656,44.96
08.671,52.75
08.687,58.19
08.703,60.22
08.718,58.83
08.734,55.1
08.750,50.59
08.765,46.57
08.781,43.58
08.796,41.55
08.812,40.29
08.828,40.02
08.843,41.37
08.859,45.04
08.875,51.28
08.890,59.52
08.906,68.5
08.921,76.71
08.937,82.89
08.953,86.13
08.968,85.86
08.984,81.64
09.000,73.18
09.015,60.5
09.031,44.15
09.046,25.23
09.062,5.14
09.078,-14.87
09.093,-34.14
09.109,-52.8
09.125,-71.53
09.140,-91.17
09.156,-112.06
09.171,-133.7
09.187,-154.45
09.203,-171.81
09.218,-182.97
09.234,-185.66
09.250,-178.97
09.265,-163.73
09.281,-142.37
09.296,-118.14
09.312,-94.28
09.328,-73.11
09.343,-55.73
09.359,-42.21
09.375,-31.95
09.390,-24.15
09.406,-18.03
09.421,-13.03
09.437,-8.68
09.453,-4.75
09.468,-1.26
09.484,1.69
09.500,3.95
09.515,5.61
09.531,7.14
09.546,9.4
09.562,13.28
09.578,19.38
09.593,27.7
09.609,37.6
09.625,48.16
09.640,58.49
09.656,68.13
09.671,77.01
09.687,85.11
09.703,92.0
09.718,96.66
09.734,97.61
09.750,93.45
09.765,83.55
09.781,68.33
09.796,49.25
09.812,28.4
09.828,8.07
09.843,-9.54
09.859,-22.42
09.875,-28.86
09.890,-27.73
09.906,-18.83
09.921,-3.16
09.937,17.29
09.953,40.07
09.968,62.89
09.984,84.18
10.000,102.97
10.015,118.46
10.031,129.56
10.046,134.7
10.062,132.22
10.078,121.2
10.093,101.95
10.109,76.25
10.125,46.95
10.140,17.18
10.156,-10.36
10.171,-33.8
10.187,-52.14
10.203,-65.21
10.218,-73.48
10.234,-78.14
10.250,-80.82
10.265,-83.41
10.281,-87.46
10.296,-93.7
10.312,-101.81
10.328,-110.33
10.343,-117.3
10.359,-120.77
10.375,-119.41
10.390,-112.86
10.406,-101.81
10.421,-87.76
10.437,-72.65
10.453,-58.42
10.468,-46.59
10.484,-38.06
10.500,-32.94
10.515,-30.75
10.531,-30.68
10.546,-31.87
10.562,-33.57
10.578,-35.17
10.593,-36.13
10.609,-35.98
10.625,-34.36
10.640,-31.0
10.656,-25.87
10.671,-19.13
10.687,-11.11
10.703,-2.13
10.718,7.48
10.734,17.41
10.750,27.43
10.765,37.21
10.781,46.4
10.796,54.65
10.812,61.59
10.828,66.94
10.843,70.57
10.859,72.58
10.875,73.26
10.890,73.27
10.906,73.44
10.921,74.69
10.937,77.76
10.953,82.89
10.968,89.63
10.984,96.94
11.000,103.38
11.015,107.51
11.031,108.29
11.046,105.2
11.062,98.2
11.078,87.55
11.093,73.6
11.109,56.76
11.125,37.54
11.140,16.79
11.156,-4.25
11.171,-24.08
11.187,-41.21
11.203,-54.46
11.218,-63.09
11.234,-66.88
11.250,-65.92
11.265,-60.67
11.281,-51.88
11.296,-40.64
11.312,-28.28
11.328,-16.1
11.343,-5.07
11.359,4.45
11.375,12.53
11.390,19.34
11.406,24.64
11.421,27.53
11.437,26.72
11.453,21.09
11.468,10.51
11.484,-3.59
11.500,-18.24
11.515,-29.82
11.531,-35.11
11.546,-32.58
11.562,-22.87
11.578,-8.56
11.593,6.83
11.609,20.0
11.625,28.75
11.640,32.26
11.656,30.69
11.671,24.67
11.687,14.88
11.703,2.07
11.718,-12.75
11.734,-28.08
11.750,-42.12
11.765,-53.23
11.781,-60.4
11.796,-63.63
11.812,-63.77
11.828,-62.09
11.843,-59.79
11.859,-57.65
11.875,-55.92
11.890,-54.53
11.906,-53.36
11.921,-52.4
11.937,-51.7
11.953,-51.19
11.968,-50.52
11.984,-49.11
12.000,-46.22
12.015,-41.34
12.031,-34.31
12.046,-25.4
12.062,-15.22
12.078,-4.56
12.093,5.71
12.109,14.75
12.125,21.76
12.140,26.19
12.156,27.98
12.171,27.57
12.187,25.99
12.203,24.57
12.218,24.65
12.234,27.38
12.250,33.55
12.265,43.64
12.281,57.74
12.296,75.53
12.312,96.19
12.328,118.26
12.343,139.84
12.359,158.77
12.375,173.07
12.390,181.26
12.406,182.68
12.421,177.51
12.437,166.65
12.453,151.37
12.468,133.05
12.484,113.01
12.500,92.57
12.515,73.02
12.531,55.69
12.546,41.59
12.562,31.06
12.578,23.57
12.593,17.69
12.609,11.6
12.625,3.85
12.640,-5.86
12.656,-16.5
12.671,-25.87
12.687,-31.6
12.703,-32.1
12.718,-27.24
12.734,-18.3
12.750,-7.52
12.765,2.91
12.781,11.43
12.796,17.35
12.812,20.7
12.828,21.88
12.843,21.51
12.859,20.52
12.875,19.88
12.890,20.16
12.906,21.22
12.921,21.88
12.937,20.53
12.953,16.07
12.968,8.9
12.984,1.0
13.000,-4.88
13.015,-6.75
13.031,-4.82
13.046,-1.92
13.062,-2.62
13.078,-10.98
13.093,-28.15
13.109,-51.06
13.125,-72.99
13.140,-85.99
13.156,-84.24
13.171,-66.53
13.187,-36.85
13.203,-2.88
13.218,27.13
13.234,47.39
13.250,55.95
13.265,54.33
13.281,45.84
13.296,33.75
13.312,20.52
13.328,8.0
13.343,-2.18
13.359,-8.35
13.375,-9.27
13.390,-5.18
13.406,2.0
13.421,9.11
13.437,13.0
13.453,11.97
13.468,6.99
13.484,1.68
13.500,1.07
13.515,9.82
13.531,30.04
13.546,60.16
13.562,95.0
13.578,127.46
13.593,150.77
13.609,160.96
13.625,157.87
13.640,144.37
13.656,124.73
13.671,102.59
13.687,79.92
13.703,57.05
13.718,33.37
13.734,7.92
13.750,-20.23
13.765,-51.81
13.781,-86.89
13.796,-123.95
13.812,-159.35
13.828,-187.55
13.843,-202.83
13.859,-201.55
13.875,-183.87
13.890,-153.93
13.906,-117.98
13.921,-82.09
13.937,-50.29
13.953,-24.66
13.968,-6.33
13.984,3.16
14.000,1.86
14.015,-11.41
14.031,-35.32
14.046,-65.32
14.062,-94.63
14.078,-116.48
14.093,-126.78
14.109,-125.06
14.125,-113.77
14.140,-96.51
14.156,-76.37
14.171,-55.55
14.187,-35.96
14.203,-20.06
14.218,-10.79
14.234,-10.8
14.250,-21.1
14.265,-40.38
14.281,-65.35
14.296,-91.95
14.312,-116.68
14.328,-137.18
14.343,-152.21
14.359,-161.23
14.375,-164.37
14.390,-162.56
14.406,-157.75
14.421,-152.57
14.437,-149.44
14.453,-149.58
14.468,-152.38
14.484,-155.8
14.500,-157.19
14.515,-154.48
14.531,-146.93
14.546,-135.09
14.562,-120.27
14.578,-103.74
14.593,-86.4
14.609,-68.77
14.625,-51.37
14.640,-35.02
14.656,-20.79
14.671,-9.56
14.687,-1.57
14.703,3.89
14.718,8.39
14.734,13.77
14.750,21.45
14.765,31.88
14.781,44.38
14.796,57.45
14.812,69.34
14.828,78.66
14.843,84.8
14.859,88.25
14.875,90.47
14.890,93.5
14.906,99.37
14.921,109.39
14.937,123.51
14.953,140.09
14.968,156.24
14.984,168.77
15.000,175.4
15.015,175.53
15.031,170.33
15.046,161.93
15.062,152.22
15.078,141.93
15.093,130.16
15.109,114.99
15.125,94.26
15.140,66.63
15.156,32.34
15.171,-6.45
15.187,-45.81
15.203,-80.75
15.218,-106.36
15.234,-119.21
15.250,-118.4
15.265,-105.96
15.281,-86.19
15.296,-64.21
15.312,-44.47
15.328,-29.79
15.343,-21.2
15.359,-18.43
15.375,-20.65
15.390,-26.79
15.406,-35.7
15.421,-46.03
15.437,-56.2
15.453,-64.75
15.468,-70.69
15.484,-73.88
15.500,-75.03
15.515,-75.26
15.531,-75.59
15.546,-76.53
15.562,-77.86
15.578,-78.78
15.593,-78.28
15.609,-75.42
15.625,-69.57
15.640,-60.42
15.656,-48.07
15.671,-33.1
15.687,-16.73
15.703,-0.79
15.718,12.58
15.734,21.6
15.750,25.49
15.765,24.9
15.781,21.62
15.796,18.03
15.812,16.27
15.828,17.74
15.843,22.96
15.859,31.85
15.875,44.03
15.890,59.1
15.906,76.71
15.921,96.33
15.937,117.08
15.953,137.64
15.968,156.25
15.984,170.92
16.000,179.78
16.015,181.39
16.031,175.21
16.046,161.67
16.062,142.03
16.078,118.23
16.093,92.34
16.109,66.32
16.125,41.76
16.140,20.02
16.156,2.19
16.171,-10.78
16.187,-18.17
16.203,-19.72
16.218,-15.71
16.234,-7.18
16.250,4.28
16.265,16.58
16.281,27.31
16.296,33.8
16.312,33.41
16.328,24.29
16.343,6.27
16.359,-18.23
16.375,-44.28
16.390,-65.6
16.406,-76.8
16.421,-75.59
16.437,-63.84
16.453,-46.91
16.468,-31.48
16.484,-22.97
16.500,-23.89
16.515,-33.68
16.531,-49.85
16.546,-69.43
16.562,-89.88
16.578,-109.13
16.593,-125.18
16.609,-136.04
16.625,-140.1
16.640,-136.99
16.656,-127.96
16.671,-115.69
16.687,-103.17
16.703,-92.5
16.718,-83.97
16.734,-76.19
16.750,-67.06
16.765,-55.03
16.781,-39.85
16.796,-22.51
16.812,-4.62
16.828,12.46
16.843,27.91
16.859,41.24
16.875,51.78
16.890,58.53
16.906,60.44
16.921,57.26
16.937,50.0
16.953,40.94
16.968,33.02
16.984,28.76
17.000,29.55
17.015,35.53
17.031,45.91
17.046,59.67
17.062,75.97
17.078,94.13
17.093,113.31
17.109,132.35
17.125,149.55
17.140,163.05
17.156,171.03
17.171,172.11
17.187,165.58
17.203,151.52
17.218,130.83
17.234,105.05
17.250,76.18
17.265,46.4
17.281,17.99
17.296,-6.88
17.312,-26.35
17.328,-39.14
17.343,-44.84
17.359,-44.13
17.375,-38.72
17.390,-30.91
17.406,-23.14
17.421,-17.26
17.437,-14.24
17.453,-14.27
17.468,-17.08
17.484,-22.16
17.500,-28.75
17.515,-35.59
17.531,-40.74
17.546,-42.04
17.562,-37.91
17.578,-28.49
17.593,-16.27
17.609,-5.54
17.625,-1.12
17.640,-6.45
17.656,-22.23
17.671,-46.14
17.687,-73.8
17.703,-100.36
17.718,-121.96
17.734,-136.49
17.750,-143.52
17.765,-143.73
17.781,-138.31
17.796,-128.56
17.812,-115.79
17.828,-101.23
17.843,-85.9
17.859,-70.37
17.875,-54.77
17.890,-38.97
17.906,-23.14
17.921,-8.05
17.937,4.96
17.953,14.4
17.968,19.27
17.984,19.54
18.000,16.29
18.015,11.21
18.031,6.12
18.046,2.37
18.062,0.75
18.078,1.56
18.093,4.8
18.109,10.34
18.125,17.8
18.140,26.56
18.156,35.7
18.171,44.35
18.187,52.04
18.203,59.06
18.218,66.44
18.234,75.47
18.250,86.94
18.265,100.43
18.281,114.12
18.296,125.27
18.312,131.3
18.328,130.79
18.343,123.92
18.359,112.02
18.375,96.77
18.390,79.47
18.406,60.98
18.421,42.25
18.437,24.88
18.453,11.15
18.468,3.28
18.484,2.4
18.500,8.01
18.515,18.21
18.531,30.66
18.546,43.38
18.562,54.99
18.578,64.19
18.593,69.18
18.609,67.71
18.625,58.08
18.640,40.48
18.656,17.75
18.671,-5.36
18.687,-24.02
18.703,-35.49
18.718,-40.22
18.734,-41.39
18.750,-43.11
18.765,-48.45
18.781,-58.21
18.796,-71.2
18.812,-85.26
18.828,-98.65
18.843,-110.63
18.859,-121.35
18.875,-131.1
18.890,-139.66
18.906,-146.1
18.921,-149.08
18.937,-147.39
18.953,-140.56
18.968,-129.03
18.984,-114.15
19.000,-97.83
19.015,-82.11
19.031,-68.53
19.046,-57.74
19.062,-49.27
19.078,-41.84
19.093,-34.09
19.109,-25.4
19.125,-16.52
19.140,-9.42
19.156,-6.56
19.171,-9.61
19.187,-18.55
19.203,-31.34
19.218,-44.4
19.234,-53.79
19.250,-56.39
19.265,-50.69
19.281,-36.99
19.296,-16.81
19.312,7.72
19.328,34.44
19.343,61.52
19.359,87.3
19.375,109.91
19.390,127.35
19.406,137.69
19.421,139.69
19.437,133.49
19.453,120.85
19.468,104.79
19.484,88.91
19.500,76.46
19.515,69.74
19.531,69.84
19.546,76.6
19.562,88.73
19.578,103.94
19.593,119.23
19.609,131.37
19.625,137.73
19.640,137.02
19.656,129.59
19.671,117.13
19.687,101.85
19.703,85.5
19.718,68.83
19.734,51.76
19.750,34.12
19.765,16.44
19.781,0.2
19.796,-12.83
19.812,-21.59
19.828,-26.71
19.843,-30.66
19.859,-36.68
19.875,-47.46
19.890,-63.64
19.906,-83.39
19.921,-103.17
19.937,-119.16
19.953,-128.76
19.968,-131.4
19.984,-128.27
20.000,-121.44
20.015,-112.92
20.031,-104.0
20.046,-95.24
20.062,-86.78
20.078,-78.55
20.093,-70.36
20.109,-61.92
20.125,-52.96
20.140,-43.42
20.156,-33.95
20.171,-25.84
20.187,-20.63
20.203,-19.2
20.218,-21.04
20.234,-24.3
20.250,-26.66
20.265,-26.65
20.281,-24.54
20.296,-22.32
20.312,-22.37
20.328,-25.95
20.343,-32.06
20.359,-37.65
20.375,-38.79
20.390,-32.49
20.406,-17.87
20.421,3.57
20.437,28.71
20.453,54.22
20.468,77.54
20.484,97.36
20.500,113.23
20.515,124.93
20.531,131.86
20.546,132.86
20.562,126.69
20.578,112.72
20.593,91.67
20.609,65.64
20.625,37.79
20.640,11.49
20.656,-10.58
20.671,-26.71
20.687,-36.33
20.703,-39.62
20.718,-37.34
20.734,-30.56
20.750,-20.69
20.765,-9.28
20.781,2.22
20.796,12.79
20.812,22.16
20.828,30.65
20.843,38.93
20.859,47.27
20.875,55.03
20.890,60.59
20.906,61.94
20.921,57.62
20.937,47.82
20.953,34.66
20.968,21.55
20.984,11.73
21.000,6.84
21.015,6.18
21.031,7.21
21.046,6.86
21.062,3.06
21.078,-4.49
21.093,-14.48
21.109,-25.05
21.125,-34.85
21.140,-43.64
21.156,-52.14
21.171,-61.28
21.187,-71.46
21.203,-82.2
21.218,-92.29
21.234,-100.27
21.250,-105.01
21.265,-106.03
21.281,-103.41
21.296,-97.62
21.312,-89.13
21.328,-78.27
21.343,-65.41
21.359,-51.16
21.375,-36.49
21.390,-22.58
21.406,-10.37
21.421,-0.34
21.437,7.53
21.453,13.57
21.468,18.08
21.484,21.26
21.500,23.43
21.515,25.33
21.531,28.22
21.546,33.65
21.562,42.92
21.578,56.52
21.593,74.03
21.609,94.35
21.625,116.07
21.640,137.75
21.656,157.88
21.671,174.65
21.687,185.85
21.703,189.24
21.718,183.11
21.734,166.9
21.750,141.48
21.765,108.98
21.781,72.29
21.796,34.45
21.812,-1.91
21.828,-34.69
21.843,-62.29
21.859,-83.51
21.875,-97.46
21.890,-103.58
21.906,-101.89
21.921,-92.98
21.937,-78.17
21.953,-59.36
21.968,-38.74
21.984,-18.4
22.000,-0.11
22.015,14.73
22.031,24.88
22.046,28.97
22.062,25.85
22.078,15.3
22.093,-1.26
22.109,-20.5
22.125,-37.75
22.140,-48.74
22.156,-51.29
22.171,-46.39
22.187,-37.92
22.203,-30.97
22.218,-29.67
22.234,-35.48
22.250,-46.95
22.265,-60.6
22.281,-72.74
22.296,-80.86
22.312,-84.36
22.328,-84.1
22.343,-81.52
22.359,-77.93
22.375,-74.03
22.390,-70.09
22.406,-66.22
22.421,-62.63
22.437,-59.48
22.453,-56.74
22.468,-54.09
22.484,-50.99
22.500,-47.06
22.515,-42.23
22.531,-36.74
22.546,-30.94
22.562,-25.12
22.578,-19.37
22.593,-13.71
22.609,-8.19
22.625,-2.82
22.640,2.5
22.656,8.24
22.671,15.14
22.687,23.89
22.703,34.75
22.718,47.37
22.734,60.88
22.750,74.36
22.765,87.28
22.781,99.78
22.796,112.39
22.812,125.59
22.828,139.12
22.843,151.68
22.859,161.11
22.875,164.98
22.890,161.36
22.906,149.46
22.921,129.98
22.937,104.89
22.953,76.83
22.968,48.43
22.984,21.77
23.000,-1.7
23.015,-20.86
23.031,-34.52
23.046,-41.41
23.062,-40.5
23.078,-31.77
23.093,-16.54
23.109,2.57
23.125,22.34
23.140,39.77
23.156,52.71
23.171,59.85
23.187,60.47
23.203,54.24
23.218,41.37
23.234,23.0
23.250,1.63
23.265,-19.2
23.281,-35.88
23.296,-46.08
23.312,-49.71
23.328,-48.99
23.343,-47.34
23.359,-47.95
23.375,-52.42
23.390,-60.25
23.406,-69.33
23.421,-77.07
23.437,-81.45
23.453,-81.81
23.468,-78.73
23.484,-73.55
23.500,-67.75
23.515,-62.51
23.531,-58.59
23.546,-56.47
23.562,-56.34
23.578,-58.07
23.593,-61.02
23.609,-64.11
23.625,-66.0
23.640,-65.61
23.656,-62.4
23.671,-56.54
23.687,-48.59
23.703,-39.2
23.718,-29.02
23.734,-18.71
23.750,-9.34
23.765,-2.29
23.781,1.08
23.796,0.24
23.812,-3.93
23.828,-9.01
23.843,-11.76
23.859,-9.35
23.875,-0.44
23.890,14.2
23.906,32.18
23.921,50.45
23.937,66.43
23.953,78.78
23.968,87.48
23.984,93.4
24.000,97.76
24.015,101.59
24.031,105.36
24.046,108.84
24.062,111.21
24.078,111.41
24.093,108.58
24.109,102.61
24.125,94.44
24.140,85.94
24.156,79.59
24.171,77.72
24.187,81.88
24.203,92.21
24.218,107.24
24.234,124.31
24.250,140.2
24.265,152.21
24.281,159.02
24.296,161.37
24.312,161.76
24.328,163.32
24.343,167.97
24.359,174.98
24.375,180.76
24.390,180.11
24.406,168.55
24.421,144.43
24.437,109.85
24.453,69.68
24.468,29.44
24.484,-7.06
24.500,-39.07
24.515,-68.64
24.531,-99.34
24.546,-134.57
24.562,-176.66
24.578,-226.1
24.593,-281.33
24.609,-338.43
24.625,-390.98
24.640,-430.82
24.656,-449.75
24.671,-441.97
24.687,-406.57
24.703,-348.74
24.718,-278.94
24.734,-210.07
24.750,-153.9
24.765,-117.64
24.781,-102.54
24.796,-104.64
24.812,-117.23
24.828,-133.54
24.843,-148.46
24.859,-158.71
24.875,-161.82
24.890,-155.0
24.906,-135.14
24.921,-100.27
24.937,-51.9
24.953,3.73
24.968,56.35
24.984,94.69
25.000,110.53
25.015,101.75
25.031,73.07
25.046,34.18
25.062,-4.18
25.078,-33.88
25.093,-51.36
25.109,-57.4
25.125,-55.04
25.140,-47.09
25.156,-34.51
25.171,-16.19
25.187,9.7
25.203,43.69
25.218,83.54
25.234,124.22
25.250,159.02
25.265,181.77
25.281,189.13
25.296,181.48
25.312,162.56
25.328,137.76
25.343,112.33
25.359,90.07
25.375,72.85
25.390,60.79
25.406,52.99
25.421,48.21
25.437,45.31
25.453,43.79
25.468,43.74
25.484,45.71
25.500,49.99
25.515,55.78
25.531,60.19
25.546,58.3
25.562,44.78
25.578,16.52
25.593,-24.53
25.609,-70.38
25.625,-108.68
25.640,-126.86
25.656,-117.21
25.671,-80.35
25.687,-25.6
25.703,32.25
25.718,78.16
25.734,101.95
25.750,101.08
25.765,80.16
25.781,48.0
25.796,13.85
25.812,-15.36
25.828,-36.24
25.843,-48.37
25.859,-53.21
25.875,-53.05
25.890,-50.59
25.906,-48.64
25.921,-49.77
25.937,-55.33
25.953,-64.37
25.968,-73.16
25.984,-76.18
26.000,-68.25
26.015,-47.0
26.031,-14.18
26.046,24.78
26.062,62.99
26.078,94.69
26.093,116.88
26.109,129.1
26.125,131.99
26.140,125.54
26.156,108.75
26.171,80.67
26.187,42.43
26.203,-1.18
26.218,-41.93
26.234,-70.34
26.250,-79.09
26.265,-65.68
26.281,-33.41
26.296,10.15
26.312,56.19
26.328,97.32
26.343,129.26
26.359,150.5
26.375,161.11
26.390,161.41
26.406,151.74
26.421,132.85
26.437,106.77
26.453,76.96
26.468,47.71
26.484,22.97
26.500,5.15
26.515,-5.2
26.531,-9.1
26.546,-8.33
26.562,-4.79
26.578,0.09
26.593,5.43
26.609,10.86
26.625,16.43
26.640,22.3
26.656,28.48
26.671,34.64
26.687,39.89
26.703,42.78
26.718,41.67
26.734,35.37
26.750,23.6
26.765,7.57
26.781,-10.3
26.796,-26.99
26.812,-39.97
26.828,-47.85
26.843,-50.66
26.859,-49.38
26.875,-45.08
26.890,-38.4
26.906,-29.48
26.921,-18.87
26.937,-8.3
26.953,-0.83
26.968,-0.01
26.984,-8.35
27.000,-25.9
27.015,-49.88
27.031,-75.59
27.046,-98.09
27.062,-113.99
27.078,-122.29
27.093,-124.03
27.109,-121.05
27.125,-114.82
27.140,-105.86
27.156,-94.11
27.171,-79.71
27.187,-63.65
27.203,-47.95
27.218,-35.01
27.234,-26.5
27.250,-22.63
27.265,-22.08
27.281,-22.53
27.296,-21.82
27.312,-19.02
27.328,-14.55
27.343,-9.67
27.359,-5.61
27.375,-2.59
27.390,0.32
27.406,4.74
27.421,12.18
27.437,23.25
27.453,37.44
27.468,53.49
27.484,69.95
27.500,85.7
27.515,100.07
27.531,112.33
27.546,121.42
27.562,125.79
27.578,123.71
27.593,114.01
27.609,96.68
27.625,73.17
27.640,46.07
27.656,18.5
27.671,-6.66
27.687,-27.31
27.703,-42.16
27.718,-50.79
27.734,-53.4
27.750,-50.69
27.765,-43.73
27.781,-33.86
27.796,-22.46
27.812,-10.67
27.828,0.81
27.843,11.69
27.859,21.69
27.875,30.2
27.890,35.96
27.906,37.53
27.921,34.01
27.937,26.06
27.953,16.05
27.968,7.43
27.984,3.3
28.000,4.73
28.015,10.1
28.031,15.58
28.046,16.66
28.062,10.1
28.078,-4.72
28.093,-25.8
28.109,-49.42
28.125,-71.68
28.140,-89.73
28.156,-102.24
28.171,-109.18
28.187,-111.28
28.203,-109.44
28.218,-104.45
28.234,-97.05
28.250,-88.01
28.265,-78.07
28.281,-67.83
28.296,-57.6
28.312,-47.45
28.328,-37.37
28.343,-27.49
28.359,-18.15
28.375,-9.83
28.390,-2.91
28.406,2.53
28.421,6.69
28.437,9.93
28.453,12.47
28.468,14.36
28.484,15.42
28.500,15.56
28.515,14.89
28.531,13.95
28.546,13.5
28.562,14.45
28.578,17.55
28.593,23.21
28.609,31.47
28.625,42.02
28.640,54.24
28.656,67.33
28.671,80.3
28.687,91.86
28.703,100.46
28.718,104.35
28.734,101.9
28.750,92.11
28.765,75.01
28.781,52.03
28.796,25.85
28.812,-0.03
28.828,-22.04
28.843,-37.35
28.859,-44.57
28.875,-44.02
28.890,-37.56
28.906,-27.97
28.921,-18.04
28.937,-9.64
28.953,-3.25
28.968,2.0
28.984,7.77
29.000,15.45
29.015,25.42
29.031,36.45
29.046,45.95
29.062,50.91
29.078,49.12
29.093,40.26
29.109,26.25
29.125,10.63
29.140,-2.66
29.156,-10.86
29.171,-13.34
29.187,-11.73
29.203,-9.12
29.218,-8.78
29.234,-13.14
29.250,-23.22
29.265,-38.6
29.281,-57.73
29.296,-78.31
29.312,-97.55
29.328,-112.54
29.343,-120.86
29.359,-121.09
29.375,-113.36
29.390,-99.32
29.406,-81.68
29.421,-63.4
29.437,-46.84
29.453,-33.38
29.468,-23.31
29.484,-16.2
29.500,-11.34
29.515,-7.97
29.531,-5.42
29.546,-3.13
29.562,-0.57
29.578,2.7
29.593,6.86
29.609,11.69
29.625,16.36
29.640,19.57
29.656,19.96
29.671,16.84
29.687,10.66
29.703,3.23
29.718,-2.73
29.734,-4.49
29.750,-0.26
29.765,10.27
29.781,26.0
29.796,44.91
29.812,64.64
29.828,82.85
29.843,97.2
29.859,105.4
29.875,105.54
29.890,96.72
29.906,79.68
29.921,56.9
29.937,32.06
29.953,8.88
29.968,-9.71
29.984,-22.05
30.000,-27.44
30.015,-25.76
30.031,-17.17
30.046,-2.38
30.062,16.93
30.078,38.13
30.093,58.12
30.109,74.53
30.125,86.6
30.140,95.5
30.156,103.57
30.171,113.09
30.187,125.24
30.203,139.71
30.218,155.05
30.234,169.45
30.250,181.3
30.265,189.6
30.281,193.94
30.296,194.52
30.312,191.94
30.328,187.2
30.343,181.4
30.359,175.43
30.375,169.55
30.390,163.21
30.406,155.3
30.421,144.68
30.437,130.73
30.453,113.68
30.468,94.57
30.484,74.86
30.500,55.92
30.515,38.64
30.531,23.25
30.546,9.35
30.562,-3.74
30.578,-16.71
30.593,-30.13
30.609,-44.22
30.625,-59.03
30.640,-74.52
30.656,-90.61
30.671,-106.98
30.687,-123.09
30.703,-138.25
30.718,-151.85
30.734,-163.86
30.750,-174.93
30.765,-186.2
30.781,-198.62
30.796,-212.09
30.812,-224.9
30.828,-234.17
30.843,-236.78
30.859,-230.89
30.875,-217.09
30.890,-198.29
30.906,-178.73
30.921,-162.28
30.937,-151.06
30.953,-145.06
30.968,-142.76
30.984,-142.48
31.000,-143.39
31.015,-146.19
31.031,-152.58
31.046,-164.57
31.062,-183.73
31.078,-210.75
31.093,-245.52
31.109,-287.18
31.125,-333.26
31.140,-379.0
31.156,-417.31
31.171,-439.07
31.187,-435.91
31.203,-403.37
31.218,-343.0
31.234,-262.12
31.250,-171.57
31.265,-81.37
31.281,1.86
31.296,75.51
31.312,140.39
31.328,198.0
31.343,248.26
31.359,289.29
31.375,318.77
31.390,335.25
31.406,340.3
31.421,337.32
31.437,329.96
31.453,322.28
31.468,318.09
31.484,319.9
31.500,328.72
31.515,343.68
31.531,361.41
31.546,378.17
31.562,390.58
31.578,391.72
31.593,378.56
31.609,353.92
31.625,325.04
31.640,299.81
31.656,286.85
31.671,284.57
31.687,288.28
31.703,293.99
31.718,299.46
31.734,301.21
31.750,296.58
31.765,281.93
31.781,253.11
31.796,207.39
31.812,144.91
31.828,71.39
31.843,-3.27
31.859,-67.66
31.875,-112.17
31.890,-132.18
31.906,-130.54
31.921,-116.64
31.937,-102.89
31.953,-100.72
31.968,-116.09
31.984,-148.98
32.000,-194.6
32.015,-245.12
32.031,-291.52
32.046,-326.18
32.062,-344.51
32.078,-346.3
32.093,-336.28
32.109,-322.09
32.125,-311.77
32.140,-310.49
32.156,-318.17
32.171,-329.05
32.187,-334.7
32.203,-327.74
32.218,-304.78
32.234,-267.34
32.250,-220.25
32.265,-170.19
32.281,-124.4
32.296,-89.8
32.312,-72.06
32.328,-74.16
32.343,-94.84
32.359,-128.07
32.375,-164.77
32.390,-195.6
32.406,-214.32
32.421,-219.52
32.437,-213.95
32.453,-202.01
32.468,-187.28
32.484,-171.31
32.500,-153.89
32.515,-134.63
32.531,-113.93
32.546,-93.03
32.562,-73.28
32.578,-55.1
32.593,-37.69
32.609,-19.62
32.625,0.37
32.640,22.92
32.656,47.71
32.671,73.56
32.687,98.81
32.703,121.51
32.718,139.73
32.734,151.96
32.750,157.67
32.765,157.53
32.781,153.34
32.796,147.34
32.812,141.46
32.828,136.69
32.843,132.79
32.859,128.46
32.875,121.76
32.890,110.88
32.906,94.45
32.921,72.17
32.937,44.93
32.953,14.68
32.968,-15.86
32.984,-43.94
33.000,-67.41
33.015,-85.16
33.031,-97.18
33.046,-104.24
33.062,-107.48
33.078,-108.12
33.093,-107.25
33.109,-105.67
33.125,-103.81
33.140,-101.65
33.156,-98.67
33.171,-94.06
33.187,-86.93
33.203,-76.74
33.218,-63.6
33.234,-48.59
33.250,-33.6
33.265,-20.99
33.281,-12.79
33.296,-9.66
33.312,-10.34
33.328,-11.7
33.343,-9.74
33.359,-1.12
33.375,15.35
33.390,38.49
33.406,65.28
33.421,92.33
33.437,117.08
33.453,138.17
33.468,154.76
33.484,165.65
33.500,168.62
33.515,160.82
33.531,140.07
33.546,106.06
33.562,60.47
33.578,6.19
33.593,-53.76
33.609,-116.45
33.625,-178.14
33.640,-233.26
33.656,-274.32
33.671,-293.65
33.687,-286.37
33.703,-252.99
33.718,-199.89
33.734,-137.18
33.750,-74.97
33.765,-20.06
33.781,25.36
33.796,62.7
33.812,94.67
33.828,123.21
33.843,148.7
33.859,170.61
33.875,188.38
33.890,202.2
33.906,212.91
33.921,221.35
33.937,227.74
33.953,231.35
33.968,230.63
33.984,224.03
34.000,211.06
34.015,192.86
34.031,172.19
34.046,152.51
34.062,136.85
34.078,126.63
34.093,121.25
34.109,118.49
34.125,115.58
34.140,110.21
34.156,101.35
34.171,89.38
34.187,76.02
34.203,63.95
34.218,56.07
34.234,54.63
34.250,60.22
34.265,71.29
34.281,84.14
34.296,93.96
34.312,96.33
34.328,88.77
34.343,71.6
34.359,47.57
34.375,20.8
34.390,-4.65
34.406,-25.78
34.421,-41.06
34.437,-50.14
34.453,-53.47
34.468,-51.95
34.484,-46.94
34.500,-40.19
34.515,-33.72
34.531,-29.3
34.546,-28.12
34.562,-30.34
34.578,-35.12
34.593,-41.12
34.609,-46.95
34.625,-51.77
34.640,-55.61
34.656,-59.31
34.671,-64.12
34.687,-71.23
34.703,-81.23
34.718,-93.8
34.734,-107.77
34.750,-121.36
34.765,-132.76
34.781,-140.66
34.796,-144.57
34.812,-144.84
34.828,-142.49
34.843,-138.71
34.859,-134.46
34.875,-130.17
34.890,-125.53
34.906,-119.74
34.921,-111.73
34.937,-100.6
34.953,-86.02
34.968,-68.35
34.984,-48.6
35.000,-28.23
35.015,-8.83
35.031,8.17
35.046,21.77
35.062,31.72
35.078,38.68
35.093,44.13
35.109,50.09
35.125,58.49
35.140,70.39
35.156,85.46
35.171,102.04
35.187,117.66
35.203,129.95
35.218,137.4
35.234,139.63
35.250,137.29
35.265,131.68
35.281,124.4
35.296,117.12
35.312,111.42
35.328,108.58
35.343,109.08
35.359,112.22
35.375,115.99
35.390,117.67
35.406,114.73
35.421,105.94
35.437,91.88
35.453,74.73
35.468,57.3
35.484,41.82
35.500,29.19
35.515,18.89
35.531,9.6
35.546,-0.01
35.562,-10.66
35.578,-22.4
35.593,-34.94
35.609,-48.09
35.625,-61.82
35.640,-76.08
35.656,-90.23
35.671,-102.89
35.687,-112.05
35.703,-115.66
35.718,-112.4
35.734,-102.25
35.750,-86.47
35.765,-67.34
35.781,-47.34
35.796,-28.62
35.812,-12.63
35.828,-0.05
35.843,8.94
35.859,14.39
35.875,16.34
35.890,14.92
35.906,10.66
35.921,4.74
35.937,-1.08
35.953,-4.89
35.968,-5.35
35.984,-2.35
36.000,2.86
36.015,8.33
36.031,12.33
36.046,14.25
36.062,14.82
36.078,15.75
36.093,18.6
36.109,24.09
36.125,31.7
36.140,40.12
36.156,47.92
36.171,54.23
36.187,58.85
36.203,62.13
36.218,64.52
36.234,66.25
36.250,67.37
36.265,67.8
36.281,67.53
36.296,66.6
36.312,65.02
36.328,62.65
36.343,59.27
36.359,54.86
36.375,49.65
36.390,44.47
36.406,40.43
36.421,38.6
36.437,39.59
36.453,43.15
36.468,48.18
36.484,53.0
36.500,55.99
36.515,56.08
36.531,53.2
36.546,48.19
36.562,42.5
36.578,37.63
36.593,34.63
36.609,33.64
36.625,33.73
36.640,33.19
36.656,30.22
36.671,23.8
36.687,14.28
36.703,3.41
36.718,-6.37
36.734,-13.1
36.750,-16.17
36.765,-16.58
36.781,-16.3
36.796,-17.18
36.812,-20.01
36.828,-24.28
36.843,-28.74
36.859,-32.2
36.875,-34.1
36.890,-34.52
36.906,-33.67
36.921,-31.52
36.937,-27.7
36.953,-21.82
36.968,-13.97
36.984,-4.99
37.000,3.84
37.015,11.15
37.031,16.11
37.046,18.61
37.062,19.22
37.078,18.79
37.093,18.07
37.109,17.52
37.125,17.34
37.140,17.53
37.156,18.01
37.171,18.69
37.187,19.37
37.203,19.79
37.218,19.71
37.234,18.96
37.250,17.65
37.265,16.21
37.281,15.22
37.296,15.25
37.312,16.71
37.328,19.58
37.343,23.53
37.359,28.05
37.375,32.62
37.390,36.96
37.406,41.05
37.421,44.98
37.437,48.69
37.453,51.77
37.468,53.35
37.484,52.3
37.500,47.72
37.515,39.29
37.531,27.58
37.546,13.95
37.562,0.2
37.578,-11.83
37.593,-20.63
37.609,-25.18
37.625,-25.02
37.640,-20.29
37.656,-11.83
37.671,-1.08
37.687,10.1
37.703,19.83
37.718,26.76
37.734,30.31
37.750,30.74
37.765,28.67
37.781,24.66
37.796,18.69
37.812,10.35
37.828,-0.74
37.843,-14.34
37.859,-29.15
37.875,-42.99
37.890,-53.5
37.906,-58.98
37.921,-58.99
37.937,-54.42
37.953,-47.02
37.968,-38.65
37.984,-30.79
38.000,-24.23
38.015,-19.29
38.031,-16.08
38.046,-14.66
38.062,-14.99
38.078,-16.8
38.093,-19.48
38.109,-22.19
38.125,-24.21
38.140,-25.15
38.156,-25.18
38.171,-24.78
38.187,-24.57
38.203,-25.04
38.218,-26.35
38.234,-28.49
38.250,-31.22
38.265,-34.33
38.281,-37.48
38.296,-40.23
38.312,-41.99
38.328,-42.09
38.343,-40.03
38.359,-35.67
38.375,-29.3
38.390,-21.51
38.406,-12.94
38.421,-4.07
38.437,4.83
38.453,13.64
38.468,22.27
38.484,30.53
38.500,38.17
38.515,44.99
38.531,50.97
38.546,56.32
38.562,61.31
38.578,66.16
38.593,70.77
38.609,74.73
38.625,77.32
38.640,77.84
38.656,75.81
38.671,71.32
38.687,65.01
38.703,57.87
38.718,50.9
38.734,44.74
38.750,39.47
38.765,34.69
38.781,29.97
38.796,25.07
38.812,20.24
38.828,16.04
38.843,13.04
38.859,11.5
38.875,11.21
38.890,11.67
38.906,12.3
38.921,12.63
38.937,12.29
38.953,10.8
38.968,7.61
38.984,2.1
39.000,-5.91
39.015,-15.85
39.031,-26.23
39.046,-35.01
39.062,-40.31
39.078,-41.15
39.093,-37.94
39.109,-32.26
39.125,-26.28
39.140,-21.91
39.156,-20.22
39.171,-21.28
39.187,-24.34
39.203,-28.41
39.218,-32.58
39.234,-36.35
39.250,-39.5
39.265,-42.16
39.281,-44.48
39.296,-46.6
39.312,-48.56
39.328,-50.3
39.343,-51.71
39.359,-52.69
39.375,-53.16
39.390,-53.02
39.406,-52.16
39.421,-50.4
39.437,-47.58
39.453,-43.72
39.468,-39.05
39.484,-33.99
39.500,-28.96
39.515,-24.24
39.531,-19.8
39.546,-15.44
39.562,-11.08
39.578,-6.87
39.593,-3.29
39.609,-0.77
39.625,0.54
39.640,1.08
39.656,1.63
39.671,3.08
39.687,5.96
39.703,10.25
39.718,15.46
39.734,20.98
39.750,26.36
39.765,31.43
39.781,36.26
39.796,40.93
39.812,45.41
39.828,49.48
39.843,52.79
39.859,54.9
39.875,55.37
39.890,53.73
39.906,49.64
39.921,42.98
39.937,34.11
39.953,23.86
39.968,13.56
39.984,4.62
40.000,-1.83
40.015,-5.29
40.031,-6.06
40.046,-5.03
40.062,-3.35
40.078,-1.93
40.093,-1.33
40.109,-1.61
40.125,-2.64
40.140,-4.18
40.156,-6.06
40.171,-8.12
40.187,-10.17
40.203,-11.89
40.218,-12.92
40.234,-13.01
40.250,-12.23
40.265,-10.99
40.281,-9.96
40.296,-9.76
40.312,-10.73
40.328,-12.74
40.343,-15.33
40.359,-17.9
40.375,-19.99
40.390,-21.44
40.406,-22.37
40.421,-23.06
40.437,-23.69
40.453,-24.36
40.468,-25.04
40.484,-25.73
40.500,-26.49
40.515,-27.48
40.531,-28.85
40.546,-30.68
40.562,-32.89
40.578,-35.19
40.593,-37.13
40.609,-38.18
40.625,-37.85
40.640,-35.87
40.656,-32.24
40.671,-27.36
40.687,-21.85
40.703,-16.42
40.718,-11.52
40.734,-7.21
40.750,-3.04
40.765,1.79
40.781,8.06
40.796,16.13
40.812,25.73
40.828,35.98
40.843,45.64
40.859,53.54
40.875,59.07
40.890,62.4
40.906,64.4
40.921,66.22
40.937,68.94
40.953,73.21
40.968,79.16
40.984,86.36
41.000,94.03
41.015,101.1
41.031,106.3
41.046,108.28
41.062,105.87
41.078,98.39
41.093,85.92
41.109,69.51
41.125,50.9
41.140,32.16
41.156,15.1
41.171,0.82
41.187,-10.4
41.203,-18.88
41.218,-25.08
41.234,-29.32
41.250,-31.55
41.265,-31.46
41.281,-28.82
41.296,-23.69
41.312,-16.62
41.328,-8.53
41.343,-0.53
41.359,6.22
41.375,10.68
41.390,12.03
41.406,9.69
41.421,3.58
41.437,-5.75
41.453,-17.14
41.468,-28.9
41.484,-39.35
41.500,-47.17
41.515,-51.76
41.531,-53.27
41.546,-52.5
41.562,-50.44
41.578,-48.16
41.593,-46.43
41.609,-45.68
41.625,-45.91
41.640,-46.65
41.656,-47.26
41.671,-47.13
41.687,-45.98
41.703,-44.06
41.718,-42.08
41.734,-40.81
41.750,-40.78
41.765,-41.82
41.781,-43.37
41.796,-44.68
41.812,-45.15
41.828,-44.66
41.843,-43.42
41.859,-41.77
41.875,-39.87
41.890,-37.54
41.906,-34.45
41.921,-30.35
41.937,-25.34
41.953,-19.85
41.968,-14.53
41.984,-9.87
42.000,-5.99
42.015,-2.47
42.031,1.41
42.046,6.34
42.062,12.71
42.078,20.41
42.093,28.99
42.109,37.81
42.125,46.46
42.140,54.9
42.156,63.33
42.171,71.96
42.187,80.76
42.203,89.38
42.218,97.32
42.234,104.13
42.250,109.56
42.265,113.62
42.281,116.25
42.296,117.12
42.312,115.63
42.328,111.1
42.343,103.27
42.359,92.56
42.375,80.08
42.390,67.23
42.406,55.04
42.421,43.7
42.437,32.73
42.453,21.44
42.468,9.79
42.484,-1.24
42.500,-9.73
42.515,-13.59
42.531,-11.74
42.546,-4.85
42.562,4.62
42.578,13.23
42.593,18.28
42.609,18.69
42.625,15.5
42.640,11.06
42.656,7.81
42.671,6.92
42.687,8.12
42.703,10.04
42.718,11.03
42.734,10.18
42.750,7.12
42.765,2.18
42.781,-3.6
42.796,-7.95
42.812,-7.29
42.828,2.41
42.843,23.46
42.859,54.02
42.875,87.33
42.890,113.14
42.906,121.11
42.921,104.45
42.937,62.22
42.953,-0.59
42.968,-74.67
42.984,-148.61
43.000,-211.04
43.015,-252.44
43.031,-267.3
43.046,-255.77
43.062,-224.17
43.078,-183.62
43.093,-146.31
43.109,-121.67
43.125,-113.8
43.140,-121.32
43.156,-139.22
43.171,-161.11
43.187,-180.41
43.203,-190.98
43.218,-188.41
43.234,-171.64
43.250,-144.72
43.265,-116.41
43.281,-97.16
43.296,-94.14
43.312,-107.28
43.328,-128.34
43.343,-144.08
43.359,-142.32
43.375,-117.23
43.390,-71.76
43.406,-16.12
43.421,36.56
43.437,75.16
43.453,93.7
43.468,92.39
43.484,76.42
43.500,53.48
43.515,31.38
43.531,15.93
43.546,9.96
43.562,12.99
43.578,22.15
43.593,33.54
43.609,43.66
43.625,50.53
43.640,54.27
43.656,57.0
43.671,62.01
43.687,72.73
43.703,91.61
43.718,119.14
43.734,153.52
43.750,190.79
43.765,225.68
43.781,252.75
43.796,267.85
43.812,269.24
43.828,258.07
43.843,237.92
43.859,213.33
43.875,188.1
43.890,163.88
43.906,140.02
43.921,114.25
43.937,84.18
43.953,48.3
43.968,6.53
43.984,-39.81
44.000,-88.26
44.015,-135.54
44.031,-177.94
44.046,-211.72
44.062,-233.78
44.078,-242.18
44.093,-236.56
44.109,-218.02
44.125,-188.63
44.140,-151.24
44.156,-109.45
44.171,-67.81
44.187,-31.64
44.203,-6.05
44.218,5.89
44.234,4.48
44.250,-6.14
44.265,-19.08
44.281,-27.05
44.296,-25.13
44.312,-12.64
44.328,6.62
44.343,25.94
44.359,38.7
44.375,41.3
44.390,34.86
44.406,24.89
44.421,18.95
44.437,23.29
44.453,39.78
44.468,64.6
44.484,89.25
44.500,103.53
44.515,98.86
44.531,71.15
44.546,22.19
44.562,-40.49
44.578,-105.38
44.593,-159.81
44.609,-193.42
44.625,-201.02
44.640,-183.71
44.656,-148.27
44.671,-104.44
44.687,-61.76
44.703,-26.98
44.718,-2.75
44.734,12.04
44.750,20.58
44.765,26.2
44.781,30.89
44.796,34.58
44.812,35.72
44.828,32.57
44.843,25.01
44.859,15.58
44.875,9.53
44.890,13.18
44.906,31.2
44.921,64.41
44.937,108.87
44.953,157.18
44.968,200.97
44.984,233.27
45.000,249.84
45.015,249.06
45.031,231.57
45.046,199.76
45.062,157.61
45.078,110.21
45.093,62.81
45.109,19.19
45.125,-19.59
45.140,-55.14
45.156,-90.15
45.171,-126.12
45.187,-161.74
45.203,-193.35
45.218,-217.16
45.234,-231.87
45.250,-239.94
45.265,-246.17
45.281,-254.24
45.296,-263.62
45.312,-268.77
45.328,-261.7
45.343,-236.53
45.359,-193.68
45.375,-140.97
45.390,-90.81
45.406,-54.51
45.421,-36.65
45.437,-33.11
45.453,-33.46
45.468,-26.55
45.484,-5.91
45.500,27.91
45.515,68.79
45.531,109.22
45.546,144.3
45.562,173.23
45.578,198.0
45.593,220.76
45.609,241.53
45.625,257.88
45.640,266.26
45.656,263.83
45.671,249.57
45.687,224.43
45.703,190.19
45.718,148.61
45.734,100.89
45.750,48.2
45.765,-7.55
45.781,-62.78
45.796,-112.33
45.812,-150.59
45.828,-173.17
45.843,-178.32
45.859,-167.03
45.875,-142.08
45.890,-106.5
45.906,-62.94
45.921,-14.03
45.937,36.62
45.953,83.95
45.968,122.2
45.984,146.79
46.000,156.15
46.015,152.31
46.031,139.82
46.046,123.89
46.062,108.9
46.078,97.95
46.093,93.23
46.109,96.12
46.125,106.77
46.140,123.48
46.156,142.61
46.171,159.69
46.187,171.28
46.203,176.12
46.218,175.16
46.234,170.0
46.250,161.31
46.265,147.91
46.281,127.54
46.296,98.72
46.312,62.37
46.328,22.06
46.343,-17.27
46.359,-51.68
46.375,-80.17
46.390,-105.03
46.406,-130.24
46.421,-159.05
46.437,-191.92
46.453,-225.85
46.468,-255.53
46.484,-275.18
46.500,-280.16
46.515,-267.78
46.531,-237.38
46.546,-190.4
46.562,-130.81
46.578,-65.4
46.593,-3.17
46.609,46.68
46.625,77.45
46.640,87.36
46.656,80.19
46.671,63.82
46.687,47.19
46.703,36.95
46.718,35.36
46.734,40.08
46.750,45.88
46.765,47.45
46.781,41.94
46.796,30.34
46.812,16.71
46.828,5.85
46.843,0.29
46.859,-1.46
46.875,-4.6
46.890,-15.62
46.906,-39.1
46.921,-75.73
46.937,-122.51
46.953,-174.52
46.968,-226.94
46.984,-275.97
47.000,-318.55
47.015,-351.53
47.031,-371.52
47.046,-375.62
47.062,-362.48
47.078,-333.03
47.093,-290.38
47.109,-238.7
47.125,-181.98
47.140,-123.09
47.156,-63.8
47.171,-5.41
47.187,50.37
47.203,101.01
47.218,143.55
47.234,175.68
47.250,197.22
47.265,210.79
47.281,221.29
47.296,234.03
47.312,252.19
47.328,275.34
47.343,299.8
47.359,320.67
47.375,334.42
47.390,340.28
47.406,339.64
47.421,334.22
47.437,324.15
47.453,307.55
47.468,281.7
47.484,245.15
47.500,198.92
47.515,146.31
47.531,91.46
47.546,37.77
47.562,-12.48
47.578,-57.63
47.593,-95.83
47.609,-124.93
47.625,-143.54
47.640,-152.29
47.656,-154.16
47.671,-153.35
47.687,-153.16
47.703,-154.26
47.718,-154.55
47.734,-150.74
47.750,-140.65
47.765,-124.69
47.781,-105.96
47.796,-88.95
47.812,-77.73
47.828,-74.69
47.843,-79.79
47.859,-90.5
47.875,-102.04
47.890,-108.47
47.906,-104.47
47.921,-87.44
47.937,-58.88
47.953,-24.18
47.968,9.24
47.984,34.98
48.000,49.97
48.015,55.06
48.031,53.21
48.046,47.02
48.062,36.9
48.078,21.0
48.093,-3.17
48.109,-36.83
48.125,-79.03
48.140,-127.46
48.156,-179.65
48.171,-233.85
48.187,-288.29
48.203,-339.72
48.218,-382.4
48.234,-408.87
48.250,-412.38
48.265,-390.01
48.281,-344.46
48.296,-283.48
48.312,-216.97
48.328,-153.42
48.343,-97.45
48.359,-49.5
48.375,-7.21
48.390,32.45
48.406,71.45
48.421,110.12
48.437,147.23
48.453,180.69
48.468,208.0
48.484,226.85
48.500,235.56
48.515,233.77
48.531,222.57
48.546,204.61
48.562,183.71
48.578,164.11
48.593,149.55
48.609,142.07
48.625,140.94
48.640,142.13
48.656,138.99
48.671,124.12
48.687,92.32
48.703,42.98
48.718,-18.93
48.734,-84.06
48.750,-141.49
48.765,-182.23
48.781,-201.7
48.796,-200.61
48.812,-184.14
48.828,-159.94
48.843,-135.86
48.859,-117.86
48.875,-108.64
48.890,-107.2
48.906,-109.31
48.921,-109.09
48.937,-101.26
48.953,-83.24
48.968,-56.21
48.984,-24.62
49.000,5.55
49.015,29.03
49.031,42.75
49.046,46.39
49.062,41.96
49.078,32.77
49.093,22.27
49.109,13.19
49.125,7.01
49.140,3.91
49.156,3.46
49.171,5.5
49.187,10.99
49.203,21.91
49.218,40.12
49.234,65.41
49.250,94.15
49.265,119.53
49.281,133.66
49.296,131.03
49.312,111.24
49.328,79.68
49.343,45.38
49.359,17.27
49.375,0.82
49.390,-3.4
49.406,1.34
49.421,10.61
49.437,21.25
49.453,32.38
49.468,44.69
49.484,58.79
49.500,73.91
49.515,87.78
49.531,97.6
49.546,101.49
49.562,99.41
49.578,93.21
49.593,85.56
49.609,78.82
49.625,74.05
49.640,70.97
49.656,68.6
49.671,66.19
49.687,63.8
49.703,62.34
49.718,63.03
49.734,66.62
49.750,72.87
49.765,80.59
49.781,88.08
49.796,93.9
49.812,97.26
49.828,98.1
49.843,96.63
49.859,92.98
49.875,86.97
49.890,78.13
49.906,66.12
49.921,50.95
49.937,33.21
49.953,13.95
49.968,-5.45
49.984,-23.58
50.000,-39.1
50.015,-51.07
50.031,-59.15
50.046,-63.72
50.062,-65.87
50.078,-66.96
50.093,-68.24
50.109,-70.39
50.125,-73.34
50.140,-76.37
50.156,-78.49
50.171,-78.85
50.187,-76.94
50.203,-72.85
50.218,-67.08
50.234,-60.29
50.250,-53.11
50.265,-45.81
50.281,-38.45
50.296,-30.99
50.312,-23.63
50.328,-16.9
50.343,-11.56
50.359,-8.15
50.375,-6.55
50.390,-5.89
50.406,-4.84
50.421,-2.3
50.437,1.99
50.453,7.12
50.468,11.34
50.484,12.75
50.500,10.19
50.515,3.77
50.531,-5.04
50.546,-13.91
50.562,-20.38
50.578,-22.62
50.593,-19.78
50.609,-12.04
50.625,-0.29
50.640,14.2
50.656,29.98
50.671,45.54
50.687,59.32
50.703,69.8
50.718,75.68
50.734,76.31
50.750,71.88
50.765,63.44
50.781,52.55
50.796,40.85
50.812,29.64
50.828,19.8
50.843,11.78
50.859,5.78
50.875,1.87
50.890,0.04
50.906,0.23
50.921,2.41
50.937,6.62
50.953,12.95
50.968,21.36
50.984,31.38
51.000,41.77
51.015,50.56
51.031,55.48
51.046,54.68
51.062,47.65
51.078,35.53
51.093,20.86
51.109,6.62
51.125,-4.96
51.140,-13.25
51.156,-19.25
51.171,-25.06
51.187,-32.7
51.203,-43.15
51.218,-55.99
51.234,-69.61
51.250,-81.96
51.265,-91.35
51.281,-96.92
51.296,-98.61
51.312,-96.97
51.328,-92.75
51.343,-86.59
51.359,-79.12
51.375,-70.9
51.390,-62.52
51.406,-54.51
51.421,-47.26
51.437,-40.93
51.453,-35.5
51.468,-30.93
51.484,-27.18
51.500,-24.26
51.515,-22.1
51.531,-20.35
51.546,-18.4
51.562,-15.46
51.578,-10.93
51.593,-4.71
51.609,2.61
51.625,9.96
51.640,16.17
51.656,20.45
51.671,22.67
51.687,23.39
51.703,23.64
51.718,24.53
51.734,26.95
51.750,31.39
51.765,37.99
51.781,46.51
51.796,56.59
51.812,67.63
51.828,78.9
51.843,89.47
51.859,98.4
51.875,104.7
51.890,107.67
51.906,106.95
51.921,102.55
51.937,94.94
51.953,84.88
51.968,73.24
51.984,60.8
52.000,48.14
52.015,35.49
52.031,22.98
52.046,10.73
52.062,-0.9
52.078,-11.36
52.093,-20.06
52.109,-26.49
52.125,-30.46
52.140,-32.03
52.156,-31.45
52.171,-29.08
52.187,-25.37
52.203,-20.97
52.218,-16.71
52.234,-13.53
52.250,-12.28
52.265,-13.43
52.281,-16.91
52.296,-22.11
52.312,-28.05
52.328,-33.69
52.343,-38.15
52.359,-40.94
52.375,-42.06
52.390,-42.0
52.406,-41.62
52.421,-41.85
52.437,-43.42
52.453,-46.57
52.468,-50.92
52.484,-55.6
52.500,-59.47
52.515,-61.49
52.531,-60.98
52.546,-57.82
52.562,-52.46
52.578,-45.84
52.593,-39.15
52.609,-33.47
52.625,-29.53
52.640,-27.47
52.656,-26.84
52.671,-26.88
52.687,-26.76
52.703,-26.03
52.718,-24.75
52.734,-23.41
52.750,-22.59
52.765,-22.6
52.781,-23.23
52.796,-23.72
52.812,-23.09
52.828,-20.53
52.843,-15.77
52.859,-9.17
52.875,-1.57
52.890,6.09
52.906,13.12
52.921,19.28
52.937,24.92
52.953,30.93
52.968,38.41
52.984,48.27
53.000,60.75
53.015,75.2
53.031,90.16
53.046,103.67
53.062,113.96
53.078,119.97
53.093,121.73
53.109,120.34
53.125,117.6
53.140,115.54
53.156,115.79
53.171,119.14
53.187,125.28
53.203,133.02
53.218,140.49
53.234,145.73
53.250,147.12
53.265,143.8
53.281,135.93
53.296,124.58
53.312,111.48
53.328,98.55
53.343,87.53
53.359,79.54
53.375,74.95
53.390,73.29
53.406,73.55
53.421,74.38
53.437,74.52
53.453,73.03
53.468,69.52
53.484,64.17
53.500,57.72
53.515,51.16
53.531,45.41
53.546,41.0
53.562,37.85
53.578,35.45
53.593,33.07
53.609,30.17
53.625,26.6
53.640,22.67
53.656,18.77
53.671,15.11
53.687,11.48
53.703,7.25
53.718,1.71
53.734,-5.67
53.750,-14.94
53.765,-25.7
53.781,-37.32
53.796,-49.23
53.812,-61.08
53.828,-72.72
53.843,-84.17
53.859,-95.34
53.875,-106.05
53.890,-116.05
53.906,-125.05
53.921,-132.91
53.937,-139.52
53.953,-144.69
53.968,-148.11
53.984,-149.45
54.000,-148.47
54.015,-145.29
54.031,-140.46
54.046,-134.78
54.062,-129.1
54.078,-123.77
54.093,-118.55
54.109,-112.6
54.125,-104.86
54.140,-94.38
54.156,-80.65
54.171,-63.65
54.187,-43.67
54.203,-21.27
54.218,2.9
54.234,27.85
54.250,52.15
54.265,73.92
54.281,91.13
54.296,102.08
54.312,105.97
54.328,103.17
54.343,94.95
54.359,83.06
54.375,69.07
54.390,53.96
54.406,38.11
54.421,21.69
54.437,5.0
54.453,-11.11
54.468,-25.35
54.484,-36.3
54.500,-42.99
54.515,-45.26
54.531,-43.85
54.546,-40.16
54.562,-35.74
54.578,-31.84
54.593,-29.18
54.609,-27.92
54.625,-27.92
54.640,-28.99
54.656,-31.05
54.671,-34.07
54.687,-37.8
54.703,-41.58
54.718,-44.36
54.734,-45.06
54.750,-42.88
54.765,-37.79
54.781,-30.5
54.796,-22.18
54.812,-14.1
54.828,-7.18
54.843,-1.96
54.859,1.31
54.875,2.44
54.890,1.22
54.906,-2.5
54.921,-8.62
54.937,-16.56
54.953,-25.47
54.968,-34.33
54.984,-42.38
55.000,-49.11
55.015,-54.3
55.031,-57.72
55.046,-59.1
55.062,-58.18
55.078,-54.92
55.093,-49.79
55.109,-43.79
55.125,-38.16
55.140,-33.88
55.156,-31.28
55.171,-29.96
55.187,-29.07
55.203,-27.77
55.218,-25.66
55.234,-22.85
55.250,-19.75
55.265,-16.71
55.281,-13.8
55.296,-10.92
55.312,-8.0
55.328,-5.23
55.343,-3.04
55.359,-1.77
55.375,-1.34
55.390,-1.17
55.406,-0.3
55.421,2.15
55.437,6.49
55.453,12.37
55.468,18.87
55.484,24.88
55.500,29.62
55.515,32.78
55.531,34.53
55.546,35.29
55.562,35.5
55.578,35.55
55.593,35.72
55.609,36.33
55.625,37.67
55.640,39.91
55.656,43.03
55.671,46.69
55.687,50.34
55.703,53.22
55.718,54.6
55.734,53.87
55.750,50.73
55.765,45.08
55.781,37.14
55.796,27.34
55.812,16.36
55.828,5.01
55.843,-6.06
55.859,-16.39
55.875,-25.83
55.890,-34.39
55.906,-42.06
55.921,-48.66
55.937,-53.81
55.953,-57.12
55.968,-58.27
55.984,-57.3
56.000,-54.42
56.015,-50.01
56.031,-44.5
56.046,-38.3
56.062,-31.9
56.078,-25.74
56.093,-20.28
56.109,-15.72
56.125,-12.07
56.140,-9.01
56.156,-6.04
56.171,-2.67
56.187,1.41
56.203,6.24
56.218,11.59
56.234,16.9
56.250,21.54
56.265,24.78
56.281,26.04
56.296,25.01
56.312,21.8
56.328,17.03
56.343,11.71
56.359,7.04
56.375,3.98
56.390,3.05
56.406,4.12
56.421,6.49
56.437,9.22
56.453,11.38
56.468,12.37
56.484,11.9
56.500,9.9
56.515,6.47
56.531,1.84
56.546,-3.68
56.562,-9.55
56.578,-15.13
56.593,-19.84
56.609,-23.33
56.625,-25.58
56.640,-26.87
56.656,-27.61
56.671,-28.08
56.687,-28.42
56.703,-28.47
56.718,-27.91
56.734,-26.48
56.750,-24.03
56.765,-20.63
56.781,-16.54
56.796,-12.17
56.812,-8.0
56.828,-4.46
56.843,-1.84
56.859,-0.23
56.875,0.44
56.890,0.4
56.906,-0.1
56.921,-0.86
56.937,-1.75
56.953,-2.72
56.968,-3.73
56.984,-4.5
57.000,-4.57
57.015,-3.29
57.031,-0.04
57.046,5.49
57.062,13.11
57.078,21.98
57.093,30.79
57.109,38.02
57.125,42.38
57.140,43.13
57.156,40.26
57.171,34.5
57.187,27.02
57.203,19.11
57.218,11.77
57.234,5.56
57.250,0.52
57.265,-3.73
57.281,-7.64
57.296,-11.62
57.312,-15.79
57.328,-19.99
57.343,-23.88
57.359,-27.1
57.375,-29.36
57.390,-30.55
57.406,-30.73
57.421,-30.02
57.437,-28.6
57.453,-26.54
57.468,-23.78
57.484,-20.19
57.500,-15.58
57.515,-9.87
57.531,-3.21
57.546,3.93
57.562,10.83
57.578,16.69
57.593,20.86
57.609,22.98
57.625,23.07
57.640,21.44
57.656,18.55
57.671,14.93
57.687,11.02
57.703,7.27
57.718,4.03
57.734,1.52
57.750,-0.19
57.765,-1.27
57.781,-2.08
57.796,-2.97
57.812,-4.18
57.828,-5.62
57.843,-6.85
57.859,-7.14
57.875,-5.69
57.890,-1.77
57.906,5.02
57.921,14.77
57.937,27.18
57.953,41.57
57.968,56.92
57.984,71.98
58.000,85.52
58.015,96.58
58.031,104.68
58.046,110.02
58.062,113.32
58.078,115.53
58.093,117.48
58.109,119.61
58.125,121.85
58.140,123.87
58.156,125.22
58.171,125.61
58.187,124.97
58.203,123.3
58.218,120.46
58.234,116.06
58.250,109.45
58.265,99.97
58.281,87.33
58.296,71.75
58.312,53.93
58.328,34.67
58.343,14.52
58.359,-6.35
58.375,-28.07
58.390,-50.67
58.406,-73.79
58.421,-96.51
58.437,-117.63
58.453,-136.07
58.468,-151.26
58.484,-163.33
58.500,-172.96
58.515,-180.91
58.531,-187.73
58.546,-193.35
58.562,-197.15
58.578,-198.08
58.593,-195.08
58.609,-187.48
58.625,-175.37
58.640,-159.73
58.656,-142.14
58.671,-124.48
58.687,-108.37
58.703,-94.83
58.718,-84.17
58.734,-76.07
58.750,-69.97
58.765,-65.36
58.781,-61.92
58.796,-59.55
58.812,-58.14
58.828,-57.46
58.843,-57.09
58.859,-56.57
58.875,-55.63
58.890,-54.27
58.906,-52.79
58.921,-51.53
58.937,-50.62
58.953,-49.9
58.968,-48.91
58.984,-47.11
59.000,-44.08
59.015,-39.68
59.031,-33.94
59.046,-27.02
59.062,-19.06
59.078,-10.23
59.093,-0.7
59.109,9.21
59.125,18.96
59.140,27.73
59.156,34.65
59.171,38.96
59.187,40.28
59.203,38.74
59.218,34.95
59.234,29.87
59.250,24.52
59.265,19.68
59.281,15.8
59.296,12.97
59.312,11.06
59.328,9.88
59.343,9.2
59.359,8.82
59.375,8.53
59.390,8.23
59.406,7.91
59.421,7.79
59.437,8.19
59.453,9.43
59.468,11.6
59.484,14.46
59.500,17.51
59.515,20.13
59.531,21.77
59.546,22.04
59.562,20.79
59.578,18.01
59.593,13.86
59.609,8.57
59.625,2.48
59.640,-4.03
59.656,-10.61
59.671,-16.94
59.687,-22.83
59.703,-28.06
59.718,-32.45
59.734,-35.81
59.750,-37.91
59.765,-38.56
59.781,-37.6
59.796,-34.87
59.812,-30.24
59.828,-23.79
59.843,-15.8
59.859,-6.87
59.875,2.16
59.890,10.4
59.906,17.12
59.921,21.92
59.937,24.69
59.953,25.63
59.968,25.02
59.984,23.15
