timestamp,value
00.000,-112.78
00.015,-106.96
00.031,-99.27
00.046,-89.73
00.062,-78.58
00.078,-66.62
00.093,-55.35
00.109,-46.57
00.125,-41.75
00.140,-41.6
00.156,-45.52
00.171,-51.94
00.187,-58.72
00.203,-63.87
00.218,-66.09
00.234,-65.13
00.250,-61.63
00.265,-56.83
00.281,-52.15
00.296,-48.6
00.312,-46.67
00.328,-46.26
00.343,-46.85
00.359,-47.89
00.375,-49.03
00.390,-50.15
00.406,-51.35
00.421,-52.82
00.437,-54.65
00.453,-56.93
00.468,-59.77
00.484,-63.36
00.500,-67.91
00.515,-73.41
00.531,-79.29
00.546,-84.31
00.562,-86.77
00.578,-84.91
00.593,-77.65
00.609,-65.0
00.625,-48.04
00.640,-28.64
00.656,-8.76
00.671,10.1
00.687,27.14
00.703,42.11
00.718,55.11
00.734,66.26
00.750,75.51
00.765,82.77
00.781,87.96
00.796,91.25
00.812,92.99
00.828,93.68
00.843,93.8
00.859,93.73
00.875,93.69
00.890,93.74
00.906,93.93
00.921,94.25
00.937,94.66
00.953,95.1
00.968,95.33
00.984,95.05
01.000,93.88
01.015,91.57
01.031,88.05
01.046,83.53
01.062,78.37
01.078,72.99
01.093,67.68
01.109,62.53
01.125,57.46
01.140,52.26
01.156,46.81
01.171,41.08
01.187,35.17
01.203,29.27
01.218,23.54
01.234,18.08
01.250,12.83
01.265,7.6
01.281,2.09
01.296,-3.99
01.312,-10.76
01.328,-17.98
01.343,-24.95
01.359,-30.56
01.375,-33.5
01.390,-32.7
01.406,-27.65
01.421,-18.59
01.437,-6.48
01.453,7.28
01.468,21.25
01.484,34.32
01.500,45.78
01.515,55.44
01.531,63.42
01.546,69.95
01.562,75.26
01.578,79.42
01.593,82.39
01.609,84.08
01.625,84.43
01.640,83.63
01.656,82.07
01.671,80.26
01.687,78.71
01.703,77.69
01.718,77.18
01.734,76.95
01.750,76.66
01.765,76.06
01.781,74.98
01.796,73.35
01.812,71.13
01.828,68.29
01.843,64.82
01.859,60.77
01.875,56.28
01.890,51.52
01.906,46.63
01.921,41.64
01.937,36.55
01.953,31.36
01.968,26.18
01.984,21.2
02.000,16.6
02.015,12.52
02.031,8.97
02.046,5.74
02.062,2.49
02.078,-1.18
02.093,-5.65
02.109,-11.01
02.125,-16.99
02.140,-22.9
02.156,-27.64
02.171,-29.97
02.187,-28.84
02.203,-23.73
02.218,-14.87
02.234,-3.23
02.250,9.78
02.265,22.72
02.281,34.54
02.296,44.76
02.312,53.37
02.328,60.64
02.343,66.76
02.359,71.62
02.375,74.93
02.390,76.38
02.406,75.88
02.421,73.74
02.437,70.49
02.453,66.73
02.468,62.87
02.484,59.14
02.500,55.54
02.515,52.06
02.531,48.85
02.546,46.14
02.562,44.12
02.578,42.79
02.593,41.88
02.609,40.9
02.625,39.43
02.640,37.15
02.656,34.08
02.671,30.49
02.687,26.72
02.703,23.14
02.718,19.93
02.734,17.01
02.750,14.18
02.765,11.15
02.781,7.63
02.796,3.58
02.812,-0.87
02.828,-5.44
02.843,-9.8
02.859,-13.71
02.875,-17.2
02.890,-20.55
02.906,-24.19
02.921,-28.62
02.937,-34.1
02.953,-40.46
02.968,-47.06
02.984,-52.79
03.000,-56.41
03.015,-56.89
03.031,-53.74
03.046,-47.08
03.062,-37.71
03.078,-26.74
03.093,-15.32
03.109,-4.38
03.125,5.57
03.140,14.35
03.156,21.98
03.171,28.56
03.187,34.17
03.203,38.73
03.218,42.21
03.234,44.5
03.250,45.58
03.265,45.46
03.281,44.18
03.296,41.85
03.312,38.7
03.328,35.02
03.343,31.19
03.359,27.62
03.375,24.62
03.390,22.32
03.406,20.7
03.421,19.52
03.437,18.53
03.453,17.48
03.468,16.25
03.484,14.75
03.500,12.91
03.515,10.67
03.531,7.96
03.546,4.83
03.562,1.33
03.578,-2.35
03.593,-6.05
03.609,-9.57
03.625,-12.83
03.640,-15.75
03.656,-18.37
03.671,-20.79
03.687,-23.16
03.703,-25.72
03.718,-28.79
03.734,-32.61
03.750,-37.15
03.765,-41.97
03.781,-46.12
03.796,-48.37
03.812,-47.57
03.828,-43.01
03.843,-34.74
03.859,-23.56
03.875,-10.77
03.890,2.23
03.906,14.44
03.921,25.45
03.937,35.41
03.953,44.72
03.968,53.77
03.984,62.6
04.000,70.91
04.015,78.09
04.031,83.69
04.046,87.57
04.062,90.12
04.078,92.15
04.093,94.47
04.109,97.69
04.125,101.84
04.140,106.49
04.156,110.96
04.171,114.7
04.187,117.48
04.203,119.39
04.218,120.54
04.234,120.77
04.250,119.63
04.265,116.58
04.281,111.36
04.296,104.08
04.312,95.12
04.328,84.67
04.343,72.55
04.359,58.24
04.375,41.39
04.390,22.36
04.406,2.52
04.421,-15.94
04.437,-30.69
04.453,-40.03
04.468,-43.37
04.484,-41.14
04.500,-34.29
04.515,-23.71
04.531,-9.85
04.546,7.05
04.562,26.57
04.578,47.52
04.593,67.98
04.609,85.63
04.625,98.63
04.640,106.31
04.656,109.26
04.671,108.88
04.687,106.47
04.703,102.6
04.718,97.02
04.734,89.34
04.750,79.52
04.765,68.51
04.781,57.88
04.796,49.12
04.812,42.94
04.828,38.97
04.843,36.05
04.859,32.87
04.875,28.74
04.890,23.85
04.906,19.14
04.921,15.86
04.937,14.84
04.953,16.04
04.968,18.39
04.984,20.02
05.000,19.0
05.015,14.02
05.031,4.96
05.046,-7.18
05.062,-20.61
05.078,-33.53
05.093,-44.72
05.109,-53.9
05.125,-61.72
05.140,-69.33
05.156,-77.93
05.171,-88.35
05.187,-100.77
05.203,-114.58
05.218,-128.46
05.234,-140.62
05.250,-149.36
05.265,-153.77
05.281,-154.42
05.296,-153.43
05.312,-153.99
05.328,-159.17
05.343,-170.56
05.359,-187.6
05.375,-207.62
05.390,-227.0
05.406,-242.44
05.421,-251.96
05.437,-255.15
05.453,-252.7
05.468,-245.69
05.484,-235.16
05.500,-222.01
05.515,-207.37
05.531,-192.69
05.546,-179.62
05.562,-169.53
05.578,-162.83
05.593,-158.76
05.609,-155.62
05.625,-151.42
05.640,-144.64
05.656,-134.77
05.671,-122.4
05.687,-108.78
05.703,-95.37
05.718,-83.18
05.734,-72.6
05.750,-63.49
05.765,-55.45
05.781,-48.2
05.796,-41.72
05.812,-36.21
05.828,-31.86
05.843,-28.7
05.859,-26.42
05.875,-24.43
05.890,-22.11
05.906,-19.04
05.921,-15.15
05.937,-10.81
05.953,-6.7
05.968,-3.56
05.984,-1.92
06.000,-2.02
06.015,-3.62
06.031,-6.11
06.046,-8.64
06.062,-10.23
06.078,-10.02
06.093,-7.42
06.109,-2.37
06.125,4.72
06.140,12.91
06.156,21.05
06.171,27.92
06.187,32.56
06.203,34.41
06.218,33.43
06.234,30.1
06.250,25.26
06.265,20.04
06.281,15.55
06.296,12.78
06.312,12.44
06.328,14.73
06.343,19.34
06.359,25.35
06.375,31.36
06.390,35.8
06.406,37.45
06.421,35.96
06.437,32.12
06.453,27.74
06.468,25.02
06.484,25.7
06.500,30.39
06.515,38.38
06.531,47.87
06.546,56.66
06.562,62.81
06.578,65.13
06.593,63.53
06.609,58.89
06.625,52.82
06.640,47.0
06.656,42.61
06.671,39.97
06.687,38.57
06.703,37.48
06.718,35.79
06.734,32.83
06.750,28.16
06.765,21.66
06.781,13.92
06.796,6.8
06.812,3.6
06.828,8.63
06.843,25.73
06.859,56.68
06.875,100.21
06.890,152.09
06.906,206.38
06.921,257.22
06.937,300.11
06.953,332.51
06.968,353.82
06.984,365.04
07.000,368.3
07.015,366.48
07.031,362.16
07.046,356.6
07.062,349.03
07.078,337.1
07.093,318.24
07.109,291.25
07.125,257.35
07.140,219.95
07.156,183.44
07.171,151.63
07.187,126.85
07.203,109.87
07.218,100.48
07.234,98.1
07.250,101.93
07.265,110.63
07.281,122.06
07.296,133.25
07.312,140.95
07.328,142.6
07.343,137.13
07.359,125.13
07.375,108.42
07.390,89.2
07.406,68.98
07.421,48.01
07.437,25.26
07.453,-0.94
07.468,-31.96
07.484,-68.04
07.500,-108.08
07.515,-150.12
07.531,-192.03
07.546,-232.26
07.562,-270.37
07.578,-306.86
07.593,-342.98
07.609,-380.43
07.625,-421.15
07.640,-466.54
07.656,-516.3
07.671,-567.22
07.687,-612.91
07.703,-645.29
07.718,-657.24
07.734,-645.58
07.750,-612.23
07.765,-563.19
07.781,-505.71
07.796,-445.18
07.812,-383.59
07.828,-320.49
07.843,-254.94
07.859,-187.2
07.875,-119.03
07.890,-52.79
07.906,9.81
07.921,67.72
07.937,119.59
07.953,162.93
07.968,194.74
07.984,213.65
08.000,222.11
08.015,226.17
08.031,232.72
08.046,245.49
08.062,261.92
08.078,273.35
08.093,268.88
08.109,240.54
08.125,186.78
08.140,112.72
08.156,27.36
08.171,-59.98
08.187,-141.8
08.203,-212.65
08.218,-268.26
08.234,-305.41
08.250,-323.14
08.265,-323.95
08.281,-313.99
08.296,-300.79
08.312,-289.55
08.328,-280.73
08.343,-270.02
08.359,-251.71
08.375,-222.99
08.390,-187.02
08.406,-151.83
08.421,-126.34
08.437,-115.25
08.453,-116.0
08.468,-119.94
08.484,-116.58
08.500,-98.32
08.515,-63.42
08.531,-16.18
08.546,35.46
08.562,82.64
08.578,118.11
08.593,137.92
08.609,142.6
08.625,137.23
08.640,129.87
08.656,127.82
08.671,133.4
08.687,141.7
08.703,142.35
08.718,125.5
08.734,88.68
08.750,40.2
08.765,-3.22
08.781,-23.84
08.796,-11.2
08.812,33.09
08.828,96.62
08.843,161.96
08.859,213.86
08.875,244.06
08.890,252.02
08.906,242.82
08.921,223.67
08.937,201.45
08.953,181.83
08.968,169.24
08.984,166.6
09.000,174.48
09.015,189.9
09.031,206.3
09.046,215.59
09.062,211.35
09.078,192.4
09.093,164.36
09.109,138.03
09.125,125.3
09.140,134.38
09.156,166.67
09.171,216.55
09.187,273.89
09.203,327.42
09.218,367.67
09.234,388.67
09.250,388.11
09.265,366.95
09.281,328.51
09.296,277.56
09.312,219.32
09.328,158.83
09.343,100.58
09.359,48.13
09.375,3.74
09.390,-32.35
09.406,-62.32
09.421,-90.61
09.437,-122.65
09.453,-162.74
09.468,-211.95
09.484,-266.96
09.500,-320.54
09.515,-363.63
09.531,-388.27
09.546,-390.01
09.562,-369.36
09.578,-331.62
09.593,-285.31
09.609,-239.78
09.625,-202.79
09.640,-178.73
09.656,-167.82
09.671,-166.55
09.687,-169.19
09.703,-170.01
09.718,-165.29
09.734,-154.65
09.750,-140.64
09.765,-127.31
09.781,-117.87
09.796,-112.87
09.812,-109.78
09.828,-104.29
09.843,-92.49
09.859,-72.96
09.875,-47.41
09.890,-19.63
09.906,6.51
09.921,28.51
09.937,45.72
09.953,58.63
09.968,67.98
09.984,74.31
10.000,78.45
10.015,82.05
10.031,87.68
10.046,98.01
10.062,114.26
10.078,135.16
10.093,157.02
10.109,175.18
10.125,186.05
10.140,188.62
10.156,184.49
10.171,176.6
10.187,167.35
10.203,157.48
10.218,146.27
10.234,132.6
10.250,116.34
10.265,98.86
10.281,82.51
10.296,69.47
10.312,60.6
10.328,55.18
10.343,51.42
10.359,47.34
10.375,40.83
10.390,29.36
10.406,10.05
10.421,-19.09
10.437,-57.01
10.453,-97.59
10.468,-129.82
10.484,-141.2
10.500,-123.38
10.515,-77.06
10.531,-12.99
10.546,52.22
10.562,103.44
10.578,133.46
10.593,144.61
10.609,145.32
10.625,143.65
10.640,142.17
10.656,137.29
10.671,122.64
10.687,93.77
10.703,50.95
10.718,-1.37
10.734,-56.84
10.750,-109.44
10.765,-154.12
10.781,-186.52
10.796,-202.71
10.812,-200.38
10.828,-180.89
10.843,-150.26
10.859,-117.89
10.875,-93.16
10.890,-82.03
10.906,-85.33
10.921,-99.62
10.937,-119.39
10.953,-139.46
10.968,-155.85
10.984,-165.72
11.000,-166.8
11.015,-157.54
11.031,-137.73
11.046,-109.09
11.062,-74.94
11.078,-38.99
11.093,-4.33
11.109,27.27
11.125,54.87
11.140,77.48
11.156,93.74
11.171,102.36
11.187,103.23
11.203,98.11
11.218,90.28
11.234,83.27
11.250,79.57
11.265,79.89
11.281,83.38
11.296,88.27
11.312,92.34
11.328,93.18
11.343,88.38
11.359,76.02
11.375,55.64
11.390,28.92
11.406,-0.58
11.421,-28.81
11.437,-53.03
11.453,-73.02
11.468,-90.33
11.484,-106.34
11.500,-120.41
11.515,-129.53
11.531,-130.26
11.546,-121.54
11.562,-106.67
11.578,-92.73
11.593,-87.56
11.609,-95.97
11.625,-117.53
11.640,-147.13
11.656,-178.06
11.671,-205.74
11.687,-229.86
11.703,-253.69
11.718,-281.03
11.734,-312.98
11.750,-345.98
11.765,-372.8
11.781,-385.75
11.796,-380.36
11.812,-357.81
11.828,-324.65
11.843,-290.05
11.859,-261.95
11.875,-244.1
11.890,-235.31
11.906,-231.26
11.921,-227.67
11.937,-222.73
11.953,-217.81
11.968,-215.75
11.984,-218.16
12.000,-223.53
12.015,-227.62
12.031,-225.53
12.046,-214.34
12.062,-194.7
12.078,-170.35
12.093,-146.02
12.109,-125.01
12.125,-107.63
12.140,-91.44
12.156,-72.68
12.171,-48.23
12.187,-17.01
12.203,19.59
12.218,58.5
12.234,96.26
12.250,130.19
12.265,159.33
12.281,184.32
12.296,206.93
12.312,229.04
12.328,252.14
12.343,276.93
12.359,303.54
12.375,331.39
12.390,358.9
12.406,383.31
12.421,400.81
12.437,407.67
12.453,401.79
12.468,384.25
12.484,359.49
12.500,334.18
12.515,314.61
12.531,304.25
12.546,302.72
12.562,306.8
12.578,312.68
12.593,318.02
12.609,322.64
12.625,327.46
12.640,332.89
12.656,337.65
12.671,339.1
12.687,334.64
12.703,323.36
12.718,306.62
12.734,287.28
12.750,268.24
12.765,250.8
12.781,234.21
12.796,216.29
12.812,194.75
12.828,168.47
12.843,138.06
12.859,105.74
12.875,74.42
12.890,46.78
12.906,24.66
12.921,8.82
12.937,-0.78
12.953,-4.8
12.968,-4.39
12.984,-1.28
13.000,2.27
13.015,3.75
13.031,1.17
13.046,-6.2
13.062,-17.25
13.078,-29.23
13.093,-38.55
13.109,-42.21
13.125,-39.13
13.140,-30.83
13.156,-21.13
13.171,-14.74
13.187,-15.38
13.203,-24.14
13.218,-38.89
13.234,-55.25
13.250,-68.57
13.265,-76.12
13.281,-78.04
13.296,-76.92
13.312,-75.96
13.328,-77.11
13.343,-80.2
13.359,-83.39
13.375,-84.82
13.390,-84.07
13.406,-82.56
13.421,-82.78
13.437,-86.62
13.453,-94.14
13.468,-103.24
13.484,-110.5
13.500,-112.78
13.515,-108.52
13.531,-98.33
13.546,-84.54
13.562,-70.02
13.578,-57.02
13.593,-46.41
13.609,-37.78
13.625,-30.04
13.640,-22.11
13.656,-13.42
13.671,-4.03
13.687,5.48
13.703,14.04
13.718,20.3
13.734,22.97
13.750,21.16
13.765,14.89
13.781,5.39
13.796,-5.02
13.812,-13.56
13.828,-17.89
13.843,-17.09
13.859,-11.99
13.875,-4.87
13.890,1.3
13.906,4.08
13.921,2.38
13.937,-3.22
13.953,-10.86
13.968,-18.15
13.984,-23.19
14.000,-25.23
14.015,-24.91
14.031,-23.98
14.046,-24.58
14.062,-28.54
14.078,-36.67
14.093,-48.4
14.109,-61.75
14.125,-73.72
14.140,-81.18
14.156,-81.9
14.171,-75.52
14.187,-63.75
14.203,-49.93
14.218,-37.82
14.234,-30.15
14.250,-27.58
14.265,-28.59
14.281,-30.23
14.296,-29.53
14.312,-24.89
14.328,-16.69
14.343,-7.13
14.359,0.8
14.375,4.55
14.390,2.92
14.406,-3.61
14.421,-13.11
14.437,-22.85
14.453,-30.12
14.468,-32.99
14.484,-30.8
14.500,-24.34
14.515,-15.68
14.531,-7.64
14.546,-2.95
14.562,-3.42
14.578,-9.28
14.593,-19.04
14.609,-29.8
14.625,-38.16
14.640,-41.24
14.656,-37.65
14.671,-28.04
14.687,-14.8
14.703,-1.39
14.718,8.88
14.734,13.89
14.750,13.33
14.765,8.56
14.781,2.12
14.796,-3.08
14.812,-4.46
14.828,-0.03
14.843,11.23
14.859,29.25
14.875,52.63
14.890,78.76
14.906,104.17
14.921,125.28
14.937,139.34
14.953,145.08
14.968,143.01
14.984,135.26
15.000,124.98
15.015,115.68
15.031,110.36
15.046,110.87
15.062,117.43
15.078,128.55
15.093,141.55
15.109,153.42
15.125,161.71
15.140,165.11
15.156,163.61
15.171,158.14
15.187,150.24
15.203,141.73
15.218,134.77
15.234,131.62
15.250,134.43
15.265,144.4
15.281,161.1
15.296,182.23
15.312,204.09
15.328,222.84
15.343,235.96
15.359,243.15
15.375,246.1
15.390,247.41
15.406,249.08
15.421,251.5
15.437,253.43
15.453,252.82
15.468,248.1
15.484,239.05
15.500,226.96
15.515,214.14
15.531,202.83
15.546,194.34
15.562,188.55
15.578,184.03
15.593,178.54
15.609,170.0
15.625,157.14
15.640,139.88
15.656,119.19
15.671,96.5
15.687,73.0
15.703,49.28
15.718,25.39
15.734,1.34
15.750,-22.47
15.765,-45.06
15.781,-65.3
15.796,-82.47
15.812,-96.77
15.828,-109.38
15.843,-122.03
15.859,-136.27
15.875,-152.82
15.890,-171.47
15.906,-191.08
15.921,-210.26
15.937,-227.93
15.953,-243.84
15.968,-258.73
15.984,-274.22
16.000,-292.34
16.015,-314.68
16.031,-341.58
16.046,-371.57
16.062,-401.49
16.078,-427.24
16.093,-445.06
16.109,-452.61
16.125,-449.54
16.140,-437.61
16.156,-419.99
16.171,-400.41
16.187,-382.25
16.203,-367.63
16.218,-356.85
16.234,-348.43
16.250,-339.64
16.265,-327.6
16.281,-310.49
16.296,-288.33
16.312,-263.12
16.328,-238.06
16.343,-216.43
16.359,-200.49
16.375,-190.78
16.390,-186.32
16.406,-185.24
16.421,-185.7
16.437,-186.73
16.453,-188.48
16.468,-191.95
16.484,-198.07
16.500,-206.92
16.515,-217.12
16.531,-226.32
16.546,-232.2
16.562,-233.66
16.578,-231.52
16.593,-228.21
16.609,-226.85
16.625,-229.89
16.640,-238.4
16.656,-251.81
16.671,-268.19
16.687,-284.79
16.703,-298.51
16.718,-306.45
16.734,-306.32
16.750,-296.96
16.765,-278.56
16.781,-252.63
16.796,-221.5
16.812,-187.77
16.828,-153.59
16.843,-120.47
16.859,-89.24
16.875,-60.29
16.890,-33.79
16.906,-9.7
16.921,12.22
16.937,32.47
16.953,51.69
16.968,70.42
16.984,88.91
17.000,106.99
17.015,124.22
17.031,140.09
17.046,154.36
17.062,167.27
17.078,179.61
17.093,192.43
17.109,206.68
17.125,222.85
17.140,240.67
17.156,259.32
17.171,278.04
17.187,296.68
17.203,315.71
17.218,335.59
17.234,355.74
17.250,373.87
17.265,386.43
17.281,389.9
17.296,382.52
17.312,364.88
17.328,339.25
17.343,307.85
17.359,271.72
17.375,231.16
17.390,187.42
17.406,144.34
17.421,108.13
17.437,84.96
17.453,77.53
17.468,82.9
17.484,93.12
17.500,98.86
17.515,93.68
17.531,76.68
17.546,51.94
17.562,25.54
17.578,2.39
17.593,-15.29
17.609,-27.13
17.625,-32.85
17.640,-31.41
17.656,-21.87
17.671,-5.18
17.687,14.85
17.703,32.5
17.718,42.63
17.734,43.24
17.750,36.31
17.765,26.47
17.781,18.26
17.796,13.86
17.812,12.59
17.828,12.31
17.843,11.35
17.859,9.77
17.875,9.09
17.890,10.86
17.906,15.35
17.921,21.03
17.937,25.27
17.953,25.62
17.968,21.04
17.984,12.3
18.000,1.76
18.015,-7.52
18.031,-12.81
18.046,-12.6
18.062,-6.97
18.078,2.65
18.093,14.29
18.109,26.4
18.125,38.39
18.140,50.58
18.156,63.43
18.171,76.67
18.187,89.0
18.203,98.45
18.218,103.41
18.234,103.62
18.250,100.46
18.265,96.34
18.281,93.49
18.296,92.87
18.312,93.98
18.328,95.59
18.343,96.65
18.359,96.97
18.375,96.96
18.390,96.92
18.406,96.4
18.421,94.4
18.437,89.93
18.453,82.89
18.468,74.25
18.484,65.6
18.500,58.26
18.515,52.61
18.531,47.87
18.546,42.78
18.562,36.34
18.578,28.4
18.593,19.78
18.609,11.72
18.625,5.3
18.640,0.95
18.656,-1.6
18.671,-3.06
18.687,-4.0
18.703,-4.59
18.718,-4.58
18.734,-3.53
18.750,-1.34
18.765,1.51
18.781,4.1
18.796,5.5
18.812,5.26
18.828,3.6
18.843,1.19
18.859,-1.39
18.875,-4.0
18.890,-6.86
18.906,-10.25
18.921,-14.04
18.937,-17.62
18.953,-20.04
18.968,-20.54
18.984,-18.88
19.000,-15.45
19.015,-11.03
19.031,-6.4
19.046,-2.24
19.062,0.98
19.078,2.71
19.093,2.23
19.109,-1.06
19.125,-7.26
19.140,-15.55
19.156,-24.12
19.171,-30.85
19.187,-34.1
19.203,-33.45
19.218,-29.72
19.234,-24.44
19.250,-18.97
19.265,-13.87
19.281,-8.95
19.296,-3.79
19.312,1.7
19.328,6.97
19.343,11.15
19.359,13.65
19.375,14.44
19.390,14.14
19.406,13.51
19.421,13.06
19.437,12.83
19.453,12.48
19.468,11.68
19.484,10.44
19.500,9.1
19.515,8.12
19.531,7.91
19.546,8.5
19.562,9.59
19.578,10.75
19.593,11.58
19.609,11.92
19.625,11.92
19.640,11.72
19.656,11.33
19.671,10.51
19.687,8.89
19.703,6.27
19.718,2.81
19.734,-0.96
19.750,-4.33
19.765,-6.8
19.781,-8.32
19.796,-9.29
19.812,-10.24
19.828,-11.64
19.843,-13.64
19.859,-16.07
19.875,-18.7
19.890,-21.37
19.906,-24.01
19.921,-26.46
19.937,-28.28
19.953,-28.75
19.968,-27.12
19.984,-23.09
20.000,-17.17
20.015,-10.74
20.031,-5.65
20.046,-3.53
20.062,-5.16
20.078,-10.17
20.093,-17.22
20.109,-24.58
20.125,-30.63
20.140,-34.27
20.156,-35.15
20.171,-33.52
20.187,-30.04
20.203,-25.59
20.218,-21.02
20.234,-17.06
20.250,-14.28
20.265,-13.0
20.281,-13.22
20.296,-14.48
20.312,-15.74
20.328,-15.62
20.343,-12.85
20.359,-6.86
20.375,1.75
20.390,11.36
20.406,19.9
20.421,25.76
20.437,28.35
20.453,28.3
20.468,26.92
20.484,25.56
20.500,25.02
20.515,25.26
20.531,25.67
20.546,25.5
20.562,24.3
20.578,22.17
20.593,19.69
20.609,17.58
20.625,16.42
20.640,16.46
20.656,17.75
20.671,20.38
20.687,24.7
20.703,31.09
20.718,39.63
20.734,49.59
20.750,59.52
20.765,67.52
20.781,72.0
20.796,72.3
20.812,69.03
20.828,63.78
20.843,58.57
20.859,55.23
20.875,54.8
20.890,57.18
20.906,61.09
20.921,64.4
20.937,64.85
20.953,60.89
20.968,52.27
20.984,40.05
21.000,26.09
21.015,12.23
21.031,-0.16
21.046,-10.26
21.062,-17.47
21.078,-21.27
21.093,-21.28
21.109,-17.67
21.125,-11.35
21.140,-3.82
21.156,3.16
21.171,8.31
21.187,11.11
21.203,11.89
21.218,11.44
21.234,10.65
21.250,10.18
21.265,10.45
21.281,11.51
21.296,13.03
21.312,14.27
21.328,14.25
21.343,12.09
21.359,7.46
21.375,0.79
21.390,-6.74
21.406,-13.69
21.421,-18.87
21.437,-21.78
21.453,-22.57
21.468,-21.9
21.484,-20.53
21.500,-19.12
21.515,-18.17
21.531,-17.99
21.546,-18.78
21.562,-20.54
21.578,-23.18
21.593,-26.46
21.609,-30.08
21.625,-33.7
21.640,-36.86
21.656,-38.95
21.671,-39.27
21.687,-37.28
21.703,-32.66
21.718,-25.46
21.734,-15.95
21.750,-4.49
21.765,8.56
21.781,22.74
21.796,37.34
21.812,51.5
21.828,64.55
21.843,76.32
21.859,87.3
21.875,97.99
21.890,108.21
21.906,116.61
21.921,121.03
21.937,119.63
21.953,112.26
21.968,100.86
21.984,88.8
22.000,79.31
22.015,73.93
22.031,71.99
22.046,71.28
22.062,69.52
22.078,65.53
22.093,59.59
22.109,52.86
22.125,46.41
22.140,40.48
22.156,34.37
22.171,26.84
22.187,16.54
22.203,2.49
22.218,-15.84
22.234,-38.41
22.250,-64.49
22.265,-92.72
22.281,-120.96
22.296,-146.61
22.312,-166.92
22.328,-179.45
22.343,-182.65
22.359,-176.29
22.375,-161.57
22.390,-140.94
22.406,-117.42
22.421,-93.72
22.437,-71.79
22.453,-52.67
22.468,-36.8
22.484,-24.52
22.500,-16.27
22.515,-12.25
22.531,-11.92
22.546,-13.85
22.562,-15.91
22.578,-16.12
22.593,-13.33
22.609,-7.39
22.625,1.0
22.640,10.83
22.656,20.81
22.671,29.36
22.687,34.6
22.703,34.9
22.718,29.99
22.734,21.73
22.750,14.06
22.765,11.33
22.781,16.14
22.796,27.7
22.812,41.89
22.828,53.05
22.843,56.8
22.859,51.79
22.875,39.85
22.890,24.64
22.906,9.9
22.921,-1.49
22.937,-7.5
22.953,-6.77
22.968,1.26
22.984,15.49
23.000,32.43
23.015,46.66
23.031,52.61
23.046,47.12
23.062,31.26
23.078,10.33
23.093,-8.34
23.109,-18.47
23.125,-17.7
23.140,-8.4
23.156,3.51
23.171,11.27
23.187,10.2
23.203,-0.8
23.218,-19.15
23.234,-40.09
23.250,-58.62
23.265,-71.06
23.281,-75.71
23.296,-72.6
23.312,-62.7
23.328,-47.43
23.343,-28.45
23.359,-7.68
23.375,12.57
23.390,30.13
23.406,43.55
23.421,52.71
23.437,58.94
23.453,64.28
23.468,70.57
23.484,78.5
23.500,87.18
23.515,94.61
23.531,98.72
23.546,98.65
23.562,95.31
23.578,91.3
23.593,89.76
23.609,93.11
23.625,101.98
23.640,114.86
23.656,128.45
23.671,138.64
23.687,141.78
23.703,135.64
23.718,119.91
23.734,96.08
23.750,66.96
23.765,35.93
23.781,6.49
23.796,-18.35
23.812,-36.8
23.828,-48.63
23.843,-55.35
23.859,-59.47
23.875,-63.39
23.890,-68.11
23.906,-72.85
23.921,-75.67
23.937,-75.01
23.953,-71.02
23.968,-65.95
23.984,-63.05
24.000,-64.83
24.015,-71.91
24.031,-82.96
24.046,-95.82
24.062,-108.68
24.078,-120.53
24.093,-130.89
24.109,-139.17
24.125,-144.66
24.140,-146.92
24.156,-146.49
24.171,-144.86
24.187,-143.59
24.203,-143.38
24.218,-143.53
24.234,-142.55
24.250,-139.27
24.265,-133.72
24.281,-127.2
24.296,-121.22
24.312,-116.59
24.328,-112.84
24.343,-108.78
24.359,-103.37
24.375,-96.5
24.390,-89.05
24.406,-82.26
24.421,-77.05
24.437,-73.45
24.453,-70.71
24.468,-67.8
24.484,-63.81
24.500,-58.32
24.515,-51.47
24.531,-43.99
24.546,-36.95
24.562,-31.36
24.578,-27.74
24.593,-25.87
24.609,-24.73
24.625,-23.05
24.640,-19.94
24.656,-15.43
24.671,-10.53
24.687,-6.54
24.703,-4.3
24.718,-3.7
24.734,-3.7
24.750,-3.01
24.765,-0.82
24.781,2.71
24.796,6.68
24.812,9.87
24.828,11.39
24.843,11.01
24.859,8.94
24.875,5.58
24.890,1.28
24.906,-3.7
24.921,-9.03
24.937,-14.15
24.953,-18.34
24.968,-21.14
24.984,-22.4
25.000,-22.56
25.015,-22.25
25.031,-22.0
25.046,-22.1
25.062,-22.62
25.078,-23.56
25.093,-25.04
25.109,-27.36
25.125,-30.78
25.140,-35.63
25.156,-42.21
25.171,-50.82
25.187,-61.76
25.203,-74.92
25.218,-89.52
25.234,-104.0
25.250,-116.28
25.265,-124.39
25.281,-127.27
25.296,-125.09
25.312,-119.19
25.328,-111.63
25.343,-104.45
25.359,-99.24
25.375,-96.82
25.390,-97.26
25.406,-99.98
25.421,-104.24
25.437,-109.45
25.453,-115.36
25.468,-122.22
25.484,-130.26
25.500,-139.55
25.515,-149.65
25.531,-159.94
25.546,-169.81
25.562,-178.99
25.578,-187.42
25.593,-195.18
25.609,-202.42
25.625,-209.32
25.640,-216.13
25.656,-222.87
25.671,-228.8
25.687,-231.9
25.703,-229.04
25.718,-216.83
25.734,-193.13
25.750,-158.35
25.765,-115.77
25.781,-70.48
25.796,-27.53
25.812,9.77
25.828,40.64
25.843,66.37
25.859,89.26
25.875,111.71
25.890,135.98
25.906,164.13
25.921,197.85
25.937,237.06
25.953,278.41
25.968,314.48
25.984,335.41
26.000,332.59
26.015,303.54
26.031,254.69
26.046,200.14
26.062,156.72
26.078,137.48
26.093,147.25
26.109,182.23
26.125,233.93
26.140,294.12
26.156,357.91
26.171,423.17
26.187,487.6
26.203,546.53
26.218,593.17
26.234,621.68
26.250,630.46
26.265,623.08
26.281,606.22
26.296,585.86
26.312,564.35
26.328,540.12
26.343,509.88
26.359,471.55
26.375,426.02
26.390,376.9
26.406,328.32
26.421,282.82
26.437,240.39
26.453,199.08
26.468,156.26
26.484,110.07
26.500,59.86
26.515,6.25
26.531,-48.83
26.546,-102.41
26.562,-150.63
26.578,-189.21
26.593,-214.08
26.609,-222.55
26.625,-214.11
26.640,-190.91
26.656,-157.48
26.671,-119.52
26.687,-82.7
26.703,-51.53
26.718,-29.21
26.734,-17.73
26.750,-18.12
26.765,-29.98
26.781,-50.96
26.796,-76.62
26.812,-101.09
26.828,-118.72
26.843,-125.98
26.859,-122.92
26.875,-113.25
26.890,-102.78
26.906,-96.97
26.921,-98.94
26.937,-108.72
26.953,-123.89
26.968,-141.11
26.984,-157.76
27.000,-172.56
27.015,-185.51
27.031,-197.32
27.046,-208.74
27.062,-220.11
27.078,-231.23
27.093,-241.36
27.109,-249.27
27.125,-253.52
27.140,-252.98
27.156,-247.23
27.171,-236.87
27.187,-223.31
27.203,-208.2
27.218,-192.75
27.234,-177.38
27.250,-162.0
27.265,-146.61
27.281,-131.69
27.296,-118.19
27.312,-107.14
27.328,-99.08
27.343,-93.8
27.359,-90.46
27.375,-87.91
27.390,-85.06
27.406,-80.97
27.421,-74.91
27.437,-66.46
27.453,-55.73
27.468,-43.44
27.484,-30.85
27.500,-19.34
27.515,-9.84
27.531,-2.44
27.546,3.68
27.562,9.86
27.578,17.35
27.593,26.74
27.609,37.69
27.625,49.06
27.640,59.33
27.656,67.17
27.671,71.66
27.687,72.6
27.703,70.48
27.718,66.42
27.734,61.92
27.750,58.58
27.765,57.63
27.781,59.62
27.796,64.25
27.812,70.3
27.828,76.09
27.843,79.83
27.859,80.2
27.875,76.72
27.890,69.91
27.906,61.19
27.921,52.38
27.937,45.13
27.953,40.29
27.968,37.72
27.984,36.35
28.000,34.77
28.015,31.91
28.031,27.66
28.046,23.07
28.062,19.88
28.078,19.79
28.093,23.51
28.109,30.38
28.125,38.42
28.140,45.08
28.156,48.14
28.171,46.55
28.187,40.74
28.203,32.61
28.218,24.99
28.234,20.81
28.250,22.41
28.265,30.79
28.281,45.43
28.296,64.41
28.312,85.05
28.328,104.58
28.343,120.88
28.359,133.07
28.375,141.56
28.390,147.93
28.406,154.17
28.421,161.96
28.437,171.65
28.453,181.87
28.468,189.56
28.484,190.77
28.500,181.81
28.515,160.44
28.531,126.29
28.546,80.7
28.562,26.18
28.578,-33.65
28.593,-94.06
28.609,-149.19
28.625,-192.87
28.640,-220.55
28.656,-231.25
28.671,-228.69
28.687,-220.32
28.703,-214.6
28.718,-217.61
28.734,-230.62
28.750,-249.63
28.765,-266.94
28.781,-274.22
28.796,-265.67
28.812,-240.35
28.828,-202.75
28.843,-161.48
28.859,-126.5
28.875,-106.05
28.890,-104.13
28.906,-119.67
28.921,-147.18
28.937,-178.62
28.953,-205.18
28.968,-218.63
28.984,-212.58
29.000,-184.04
29.015,-135.19
29.031,-74.36
29.046,-14.6
29.062,30.04
29.078,49.58
29.093,41.85
29.109,12.89
29.125,-25.94
29.140,-62.24
29.156,-85.94
29.171,-90.92
29.187,-74.99
29.203,-40.04
29.218,7.84
29.234,58.37
29.250,98.95
29.265,118.44
29.281,111.4
29.296,80.74
29.312,36.59
29.328,-7.84
29.343,-41.23
29.359,-56.94
29.375,-53.2
29.390,-31.33
29.406,5.52
29.421,52.12
29.437,100.24
29.453,138.75
29.468,156.29
29.484,145.76
29.500,108.15
29.515,53.18
29.531,-4.23
29.546,-49.71
29.562,-74.86
29.578,-79.19
29.593,-68.04
29.609,-48.36
29.625,-24.96
29.640,0.23
29.656,26.23
29.671,50.31
29.687,66.83
29.703,68.88
29.718,52.02
29.734,17.48
29.750,-27.16
29.765,-70.5
29.781,-101.8
29.796,-114.6
29.812,-107.97
29.828,-85.37
29.843,-52.46
29.859,-15.49
29.875,19.12
29.890,44.78
29.906,55.66
29.921,48.57
29.937,25.08
29.953,-8.13
29.968,-41.21
29.984,-64.58
30.000,-72.13
30.015,-62.66
30.031,-39.36
30.046,-8.25
30.062,23.48
30.078,48.56
30.093,60.82
30.109,56.57
30.125,35.93
30.140,3.25
30.156,-34.19
30.171,-68.88
30.187,-95.85
30.203,-113.89
30.218,-124.66
30.234,-130.44
30.250,-132.23
30.265,-129.46
30.281,-121.63
30.296,-110.3
30.312,-99.9
30.328,-96.31
30.343,-103.86
30.359,-122.38
30.375,-146.38
30.390,-166.53
30.406,-173.5
30.421,-161.36
30.437,-129.39
30.453,-81.59
30.468,-25.0
30.484,32.19
30.500,81.57
30.515,115.53
30.531,128.77
30.546,120.0
30.562,93.59
30.578,59.32
30.593,29.3
30.609,13.25
30.625,14.37
30.640,28.54
30.656,47.25
30.671,62.15
30.687,68.38
30.703,64.67
30.718,50.75
30.734,24.4
30.750,-18.51
30.765,-80.88
30.781,-159.94
30.796,-244.83
30.812,-318.91
30.828,-365.64
30.843,-375.46
30.859,-349.54
30.875,-298.81
30.890,-238.4
30.906,-181.09
30.921,-133.06
30.937,-93.6
30.953,-58.21
30.968,-22.9
30.984,13.42
31.000,48.66
31.015,79.61
31.031,104.62
31.046,124.94
31.062,144.25
31.078,167.06
31.093,196.85
31.109,235.1
31.125,281.18
31.140,333.01
31.156,387.43
31.171,440.33
31.187,486.34
31.203,519.27
31.218,533.49
31.234,525.93
31.250,497.6
31.265,453.71
31.281,401.82
31.296,349.24
31.312,300.77
31.328,258.0
31.343,220.24
31.359,186.29
31.375,155.86
31.390,129.67
31.406,108.67
31.421,92.86
31.437,81.02
31.453,71.19
31.468,61.78
31.484,52.3
31.500,43.41
31.515,36.18
31.531,31.08
31.546,27.5
31.562,23.91
31.578,18.7
31.593,11.12
31.609,1.99
31.625,-6.64
31.640,-12.24
31.656,-13.01
31.671,-8.49
31.687,0.37
31.703,11.78
31.718,23.92
31.734,35.58
31.750,46.41
31.765,56.63
31.781,66.71
31.796,76.9
31.812,86.96
31.828,96.25
31.843,103.94
31.859,109.4
31.875,112.55
31.890,114.01
31.906,114.8
31.921,115.91
31.937,117.64
31.953,119.35
31.968,119.5
31.984,116.15
32.000,107.57
32.015,92.76
32.031,71.81
32.046,45.81
32.062,16.75
32.078,-12.72
32.093,-39.62
32.109,-61.11
32.125,-75.3
32.140,-81.71
32.156,-81.55
32.171,-77.38
32.187,-72.17
32.203,-68.32
32.218,-66.86
32.234,-67.42
32.250,-68.63
32.265,-69.01
32.281,-67.61
32.296,-64.31
32.312,-59.65
32.328,-54.54
32.343,-49.77
32.359,-45.89
32.375,-43.12
32.390,-41.31
32.406,-40.03
32.421,-38.67
32.437,-36.62
32.453,-33.6
32.468,-29.79
32.484,-25.91
32.500,-22.93
32.515,-21.62
32.531,-22.19
32.546,-24.01
32.562,-25.9
32.578,-26.61
32.593,-25.35
32.609,-22.21
32.625,-18.0
32.640,-14.03
32.656,-11.57
32.671,-11.55
32.687,-14.2
32.703,-18.95
32.718,-24.46
32.734,-28.85
32.750,-30.3
32.765,-27.77
32.781,-21.55
32.796,-13.54
32.812,-6.57
32.828,-3.44
32.843,-5.7
32.859,-13.09
32.875,-23.63
32.890,-34.68
32.906,-44.01
32.921,-50.58
32.937,-54.5
32.953,-56.38
32.968,-56.49
32.984,-54.4
33.000,-49.29
33.015,-40.67
33.031,-29.32
33.046,-17.6
33.062,-9.14
33.078,-7.7
33.093,-15.9
33.109,-34.34
33.125,-61.24
33.140,-92.95
33.156,-124.98
33.171,-153.11
33.187,-174.2
33.203,-186.82
33.218,-191.11
33.234,-188.49
33.250,-181.05
33.265,-170.85
33.281,-159.28
33.296,-147.0
33.312,-134.05
33.328,-120.25
33.343,-105.61
33.359,-90.43
33.375,-75.15
33.390,-60.08
33.406,-45.27
33.421,-30.69
33.437,-16.56
33.453,-3.58
33.468,7.33
33.484,15.53
33.500,21.11
33.515,24.95
33.531,28.34
33.546,32.37
33.562,37.39
33.578,43.06
33.593,48.82
33.609,54.36
33.625,59.78
33.640,65.24
33.656,70.38
33.671,74.06
33.687,74.61
33.703,70.43
33.718,60.91
33.734,46.9
33.750,30.62
33.765,14.91
33.781,2.43
33.796,-5.26
33.812,-8.17
33.828,-7.87
33.843,-6.95
33.859,-7.98
33.875,-12.65
33.890,-21.08
33.906,-31.87
33.921,-42.84
33.937,-51.9
33.953,-57.88
33.968,-60.76
33.984,-61.32
34.000,-60.44
34.015,-58.61
34.031,-55.97
34.046,-52.57
34.062,-48.75
34.078,-45.36
34.093,-43.46
34.109,-43.82
34.125,-46.58
34.140,-51.08
34.156,-56.06
34.171,-60.13
34.187,-62.2
34.203,-61.79
34.218,-59.07
34.234,-54.69
34.250,-49.33
34.265,-43.42
34.281,-36.95
34.296,-29.57
34.312,-20.82
34.328,-10.48
34.343,1.22
34.359,13.56
34.375,25.45
34.390,35.69
34.406,43.34
34.421,48.04
34.437,50.17
34.453,50.82
34.468,51.27
34.484,52.57
34.500,55.03
34.515,58.23
34.531,61.21
34.546,63.06
34.562,63.31
34.578,61.95
34.593,59.3
34.609,55.8
34.625,52.07
34.640,48.9
34.656,47.31
34.671,47.94
34.687,50.54
34.703,53.45
34.718,54.0
34.734,49.52
34.750,38.78
34.765,22.82
34.781,4.73
34.796,-11.64
34.812,-23.27
34.828,-29.24
34.843,-30.72
34.859,-30.17
34.875,-29.99
34.890,-31.51
34.906,-34.84
34.921,-39.25
34.937,-43.89
34.953,-48.33
34.968,-52.72
34.984,-57.44
35.000,-62.86
35.015,-69.01
35.031,-75.65
35.046,-82.39
35.062,-88.92
35.078,-95.11
35.093,-100.82
35.109,-105.79
35.125,-109.38
35.140,-110.8
35.156,-109.29
35.171,-104.46
35.187,-96.6
35.203,-86.55
35.218,-75.46
35.234,-64.43
35.250,-54.17
35.265,-44.78
35.281,-35.91
35.296,-26.91
35.312,-17.26
35.328,-6.77
35.343,4.24
35.359,15.06
35.375,24.84
35.390,32.89
35.406,38.82
35.421,42.57
35.437,44.4
35.453,44.65
35.468,43.73
35.484,42.11
35.500,40.2
35.515,38.32
35.531,36.67
35.546,35.21
35.562,33.81
35.578,32.41
35.593,31.17
35.609,30.47
35.625,30.92
35.640,33.14
35.656,37.62
35.671,44.59
35.687,53.9
35.703,64.98
35.718,76.86
35.734,88.31
35.750,97.99
35.765,104.74
35.781,107.8
35.796,106.86
35.812,102.03
35.828,93.7
35.843,82.42
35.859,68.95
35.875,54.3
35.890,39.65
35.906,26.2
35.921,15.01
35.937,6.8
35.953,2.03
35.968,0.92
35.984,3.53
36.000,9.6
36.015,18.44
36.031,28.96
36.046,39.8
36.062,49.75
36.078,58.13
36.093,65.02
36.109,71.08
36.125,77.12
36.140,83.71
36.156,90.93
36.171,98.45
36.187,105.74
36.203,112.32
36.218,117.79
36.234,121.93
36.250,124.63
36.265,125.87
36.281,125.65
36.296,123.68
36.312,119.23
36.328,111.13
36.343,98.06
36.359,79.14
36.375,54.54
36.390,25.73
36.406,-4.77
36.421,-34.14
36.437,-60.02
36.453,-81.06
36.468,-96.96
36.484,-107.93
36.500,-114.43
36.515,-116.85
36.531,-115.74
36.546,-111.9
36.562,-106.52
36.578,-100.98
36.593,-96.35
36.609,-93.09
36.625,-90.93
36.640,-89.14
36.656,-86.98
36.671,-84.13
36.687,-80.88
36.703,-77.88
36.718,-75.79
36.734,-74.81
36.750,-74.42
36.765,-73.51
36.781,-70.6
36.796,-64.51
36.812,-54.67
36.828,-41.4
36.843,-25.88
36.859,-9.82
36.875,5.05
36.890,17.38
36.906,26.66
36.921,33.43
36.937,38.91
36.953,44.8
36.968,52.68
36.984,63.49
37.000,77.31
37.015,93.5
37.031,110.95
37.046,128.54
37.062,145.47
37.078,161.25
37.093,175.65
37.109,188.53
37.125,199.75
37.140,209.03
37.156,215.77
37.171,218.87
37.187,216.65
37.203,207.06
37.218,188.15
37.234,158.93
37.250,120.17
37.265,75.01
37.281,28.81
37.296,-12.01
37.312,-41.62
37.328,-56.41
37.343,-56.0
37.359,-43.34
37.375,-23.71
37.390,-3.29
37.406,12.41
37.421,19.43
37.437,15.73
37.453,1.1
37.468,-22.6
37.484,-51.55
37.500,-80.39
37.515,-103.44
37.531,-116.52
37.546,-118.46
37.562,-111.25
37.578,-98.88
37.593,-85.17
37.609,-72.05
37.625,-58.94
37.640,-43.74
37.656,-24.54
37.671,-1.05
37.687,25.01
37.703,50.7
37.718,72.91
37.734,89.23
37.750,98.05
37.765,98.53
37.781,90.53
37.796,74.65
37.812,51.98
37.828,23.99
37.843,-7.88
37.859,-42.17
37.875,-76.93
37.890,-109.14
37.906,-134.49
37.921,-148.21
37.937,-146.72
37.953,-129.71
37.968,-101.23
37.984,-69.3
38.000,-43.43
38.015,-31.37
38.031,-36.27
38.046,-55.77
38.062,-83.37
38.078,-111.3
38.093,-133.54
38.109,-147.16
38.125,-151.97
38.140,-148.79
38.156,-137.75
38.171,-118.21
38.187,-90.14
38.203,-55.98
38.218,-21.64
38.234,4.76
38.250,15.78
38.265,7.82
38.281,-17.15
38.296,-52.49
38.312,-89.57
38.328,-120.97
38.343,-142.25
38.359,-152.19
38.375,-151.65
38.390,-142.4
38.406,-126.65
38.421,-107.0
38.437,-86.72
38.453,-69.16
38.468,-56.79
38.484,-50.13
38.500,-47.42
38.515,-45.44
38.531,-40.84
38.546,-31.61
38.562,-17.61
38.578,-0.4
38.593,17.68
38.609,34.32
38.625,47.94
38.640,57.8
38.656,63.87
38.671,66.59
38.687,66.64
38.703,64.99
38.718,62.74
38.734,61.15
38.750,61.32
38.765,63.9
38.781,68.79
38.796,74.89
38.812,80.19
38.828,82.24
38.843,79.09
38.859,70.05
38.875,56.31
38.890,40.75
38.906,26.85
38.921,17.55
38.937,14.07
38.953,15.72
38.968,20.36
38.984,25.43
39.000,28.84
39.015,29.36
39.031,26.52
39.046,20.29
39.062,11.07
39.078,-0.34
39.093,-12.55
39.109,-24.13
39.125,-34.24
39.140,-43.4
39.156,-53.42
39.171,-66.68
39.187,-84.73
39.203,-107.18
39.218,-131.76
39.234,-155.16
39.250,-174.66
39.265,-189.04
39.281,-198.52
39.296,-203.6
39.312,-203.85
39.328,-197.45
39.343,-181.88
39.359,-155.44
39.375,-118.55
39.390,-74.13
39.406,-26.76
39.421,18.71
39.437,58.52
39.453,90.47
39.468,113.82
39.484,128.7
39.500,135.84
39.515,136.47
39.531,132.34
39.546,125.61
39.562,118.44
39.578,112.68
39.593,109.51
39.609,109.46
39.625,112.48
39.640,118.11
39.656,125.59
39.671,133.88
39.687,141.84
39.703,148.57
39.718,153.81
39.734,157.94
39.750,161.73
39.765,165.76
39.781,170.02
39.796,173.81
39.812,176.12
39.828,176.19
39.843,173.86
39.859,169.76
39.875,164.94
39.890,160.47
39.906,157.03
39.921,154.78
39.937,153.5
39.953,152.8
39.968,152.37
39.984,152.0
40.000,151.63
40.015,151.29
40.031,151.24
40.046,151.89
40.062,153.79
40.078,157.56
40.093,163.66
40.109,172.1
40.125,182.11
40.140,192.12
40.156,199.86
40.171,203.0
40.187,199.64
40.203,188.87
40.218,170.9
40.234,147.02
40.250,119.28
40.265,89.92
40.281,61.05
40.296,34.25
40.312,10.3
40.328,-11.01
40.343,-30.86
40.359,-51.1
40.375,-73.32
40.390,-97.79
40.406,-122.94
40.421,-145.6
40.437,-161.94
40.453,-168.94
40.468,-165.39
40.484,-152.3
40.500,-132.6
40.515,-110.4
40.531,-90.03
40.546,-75.33
40.562,-68.89
40.578,-71.5
40.593,-81.8
40.609,-96.37
40.625,-110.58
40.640,-119.9
40.656,-121.57
40.671,-115.57
40.687,-104.74
40.703,-93.69
40.718,-87.08
40.734,-88.15
40.750,-97.65
40.765,-113.83
40.781,-133.16
40.796,-151.31
40.812,-164.3
40.828,-169.36
40.843,-165.17
40.859,-151.99
40.875,-131.38
40.890,-105.6
40.906,-77.05
40.921,-47.63
40.937,-18.47
40.953,10.1
40.968,38.11
40.984,65.42
41.000,91.15
41.015,113.58
41.031,130.57
41.046,140.25
41.062,141.62
41.078,134.84
41.093,121.11
41.109,102.11
41.125,79.48
41.140,54.43
41.156,28.03
41.171,1.5
41.187,-23.41
41.203,-44.51
41.218,-59.66
41.234,-67.56
41.250,-68.34
41.265,-63.73
41.281,-56.6
41.296,-50.17
41.312,-46.96
41.328,-48.12
41.343,-53.08
41.359,-59.73
41.375,-65.15
41.390,-66.75
41.406,-63.27
41.421,-55.35
41.437,-45.44
41.453,-36.68
41.468,-31.46
41.484,-30.21
41.500,-30.97
41.515,-30.32
41.531,-25.19
41.546,-14.74
41.562,-1.23
41.578,10.52
41.593,14.99
41.609,8.08
41.625,-11.8
41.640,-43.97
41.656,-86.49
41.671,-136.86
41.687,-191.58
41.703,-245.04
41.718,-289.02
41.734,-314.09
41.750,-312.99
41.765,-284.41
41.781,-234.9
41.796,-177.38
41.812,-126.42
41.828,-92.77
41.843,-79.83
41.859,-83.66
41.875,-96.16
41.890,-109.2
41.906,-117.62
41.921,-119.69
41.937,-116.01
41.953,-107.62
41.968,-95.09
41.984,-78.65
42.000,-58.93
42.015,-37.53
42.031,-16.99
42.046,-0.05
42.062,11.35
42.078,16.75
42.093,17.33
42.109,15.37
42.125,13.38
42.140,13.24
42.156,15.68
42.171,20.39
42.187,26.46
42.203,33.04
42.218,39.66
42.234,46.27
42.250,52.82
42.265,59.05
42.281,64.37
42.296,68.16
42.312,70.2
42.328,70.88
42.343,71.09
42.359,71.78
42.375,73.48
42.390,76.12
42.406,79.02
42.421,81.38
42.437,82.73
42.453,83.08
42.468,83.05
42.484,83.46
42.500,84.9
42.515,87.49
42.531,90.66
42.546,93.2
42.562,93.41
42.578,89.52
42.593,80.42
42.609,66.34
42.625,49.33
42.640,32.82
42.656,20.62
42.671,15.18
42.687,16.33
42.703,21.03
42.718,24.41
42.734,22.03
42.750,11.8
42.765,-4.83
42.781,-23.57
42.796,-39.0
42.812,-46.84
42.828,-45.48
42.843,-36.26
42.859,-22.73
42.875,-9.19
42.890,0.63
42.906,4.36
42.921,1.3
42.937,-7.59
42.953,-19.92
42.968,-32.18
42.984,-40.34
43.000,-40.95
43.015,-32.28
43.031,-15.1
43.046,7.04
43.062,28.81
43.078,44.73
43.093,50.86
43.109,46.09
43.125,32.11
43.140,12.32
43.156,-9.74
43.171,-31.41
43.187,-51.28
43.203,-68.68
43.218,-83.19
43.234,-94.38
43.250,-102.09
43.265,-106.74
43.281,-109.39
43.296,-111.1
43.312,-112.35
43.328,-112.78
43.343,-111.84
43.359,-109.72
43.375,-107.85
43.390,-108.32
43.406,-112.36
43.421,-119.2
43.437,-125.65
43.453,-127.4
43.468,-120.9
43.484,-105.0
43.500,-81.27
43.515,-53.21
43.531,-24.64
43.546,1.53
43.562,23.64
43.578,41.1
43.593,53.84
43.609,61.96
43.625,65.86
43.640,66.3
43.656,64.47
43.671,61.75
43.687,59.38
43.703,58.09
43.718,57.96
43.734,58.53
43.750,59.13
43.765,59.4
43.781,59.68
43.796,60.98
43.812,64.43
43.828,70.51
43.843,78.27
43.859,85.34
43.875,88.71
43.890,86.05
43.906,77.01
43.921,63.41
43.937,48.47
43.953,35.5
43.968,26.55
43.984,22.12
44.000,21.63
44.015,24.33
44.031,29.65
44.046,37.04
44.062,45.15
44.078,51.47
44.093,52.75
44.109,46.1
44.125,30.45
44.140,7.14
44.156,-20.34
44.171,-47.58
44.187,-70.77
44.203,-87.77
44.218,-98.48
44.234,-104.26
44.250,-106.99
44.265,-108.13
44.281,-108.11
44.296,-106.36
44.312,-101.79
44.328,-93.34
44.343,-80.76
44.359,-64.9
44.375,-47.76
44.390,-31.98
44.406,-20.26
44.421,-14.65
44.437,-16.11
44.453,-24.24
44.468,-37.28
44.484,-52.59
44.500,-67.16
44.515,-78.37
44.531,-84.51
44.546,-85.15
44.562,-80.9
44.578,-73.15
44.593,-63.48
44.609,-53.26
44.625,-43.48
44.640,-34.74
44.656,-27.37
44.671,-21.58
44.687,-17.34
44.703,-14.38
44.718,-12.13
44.734,-9.76
44.750,-6.58
44.765,-2.25
44.781,2.97
44.796,8.29
44.812,12.64
44.828,15.23
44.843,15.87
44.859,15.2
44.875,14.28
44.890,14.18
44.906,15.44
44.921,17.82
44.937,20.57
44.953,22.78
44.968,23.87
44.984,23.74
45.000,22.71
45.015,21.28
45.031,19.91
45.046,19.06
45.062,19.3
45.078,21.47
45.093,26.65
45.109,35.95
45.125,50.21
45.140,69.67
45.156,93.74
45.171,120.92
45.187,149.0
45.203,175.26
45.218,197.0
45.234,212.09
45.250,219.33
45.265,218.65
45.281,210.97
45.296,197.82
45.312,180.94
45.328,161.95
45.343,142.0
45.359,121.76
45.375,101.62
45.390,82.03
45.406,63.92
45.421,48.93
45.437,39.17
45.453,36.56
45.468,41.84
45.484,53.89
45.500,69.43
45.515,83.78
45.531,92.42
45.546,92.56
45.562,84.17
45.578,70.15
45.593,55.29
45.609,44.5
45.625,40.99
45.640,45.13
45.656,54.02
45.671,62.51
45.687,64.84
45.703,56.34
45.718,34.71
45.734,0.45
45.750,-43.45
45.765,-92.4
45.781,-141.32
45.796,-185.87
45.812,-223.14
45.828,-251.68
45.843,-271.02
45.859,-280.85
45.875,-280.56
45.890,-269.46
45.906,-247.52
45.921,-216.12
45.937,-178.3
45.953,-138.12
45.968,-99.66
45.984,-66.0
46.000,-38.83
46.015,-18.63
46.031,-5.19
46.046,2.18
46.062,4.68
46.078,4.28
46.093,3.45
46.109,4.57
46.125,9.01
46.140,16.77
46.156,26.62
46.171,36.85
46.187,46.12
46.203,53.84
46.218,60.22
46.234,65.73
46.250,70.72
46.265,75.11
46.281,78.59
46.296,80.85
46.312,81.94
46.328,82.51
46.343,83.58
46.359,86.22
46.375,91.04
46.390,97.72
46.406,105.0
46.421,111.06
46.437,114.33
46.453,114.22
46.468,111.6
46.484,108.67
46.500,107.99
46.515,111.26
46.531,118.11
46.546,125.67
46.562,129.15
46.578,123.28
46.593,103.72
46.609,68.45
46.625,18.53
46.640,-41.48
46.656,-103.74
46.671,-158.11
46.687,-194.39
46.703,-205.3
46.718,-189.2
46.734,-151.3
46.750,-102.25
46.765,-54.51
46.781,-17.95
46.796,3.05
46.812,9.94
46.828,7.76
46.843,2.05
46.859,-3.51
46.875,-7.45
46.890,-9.57
46.906,-9.68
46.921,-7.24
46.937,-2.01
46.953,5.08
46.968,11.76
46.984,15.43
47.000,14.44
47.015,9.41
47.031,3.14
47.046,-0.59
47.062,1.08
47.078,8.66
47.093,20.0
47.109,31.24
47.125,38.35
47.140,38.51
47.156,30.63
47.171,15.42
47.187,-5.21
47.203,-28.53
47.218,-51.47
47.234,-71.11
47.250,-85.43
47.265,-93.89
47.281,-97.51
47.296,-98.35
47.312,-98.41
47.328,-98.81
47.343,-99.45
47.359,-99.57
47.375,-98.57
47.390,-96.74
47.406,-95.24
47.421,-95.61
47.437,-98.97
47.453,-105.68
47.468,-115.27
47.484,-126.53
47.500,-137.54
47.515,-145.85
47.531,-148.73
47.546,-143.98
47.562,-130.73
47.578,-110.13
47.593,-85.16
47.609,-59.75
47.625,-37.39
47.640,-20.02
47.656,-7.75
47.671,0.78
47.687,7.3
47.703,13.13
47.718,18.88
47.734,24.55
47.750,29.88
47.765,34.64
47.781,38.72
47.796,41.92
47.812,44.05
47.828,44.86
47.843,44.27
47.859,42.49
47.875,40.03
47.890,37.55
47.906,35.68
47.921,34.67
47.937,34.36
47.953,34.17
47.968,33.28
47.984,31.01
48.000,27.14
48.015,21.95
48.031,16.11
48.046,10.4
48.062,5.36
48.078,1.1
48.093,-2.65
48.109,-6.48
48.125,-10.98
48.140,-16.48
48.156,-23.03
48.171,-30.26
48.187,-37.62
48.203,-44.47
48.218,-50.45
48.234,-55.58
48.250,-60.31
48.265,-65.36
48.281,-71.39
48.296,-78.64
48.312,-86.63
48.328,-94.18
48.343,-99.64
48.359,-101.5
48.375,-98.75
48.390,-91.28
48.406,-79.88
48.421,-65.92
48.437,-51.07
48.453,-36.68
48.468,-23.57
48.484,-11.86
48.500,-1.17
48.515,9.1
48.531,19.41
48.546,29.88
48.562,40.16
48.578,49.69
48.593,57.88
48.609,64.36
48.625,69.17
48.640,72.62
48.656,75.21
48.671,77.34
48.687,79.26
48.703,81.06
48.718,82.74
48.734,84.39
48.750,86.13
48.765,88.19
48.781,90.74
48.796,93.84
48.812,97.37
48.828,100.98
48.843,104.25
48.859,106.67
48.875,107.78
48.890,107.21
48.906,104.7
48.921,100.24
48.937,94.08
48.953,86.77
48.968,78.92
48.984,71.08
49.000,63.48
49.015,56.09
49.031,48.65
49.046,40.91
49.062,32.75
49.078,24.18
49.093,15.11
49.109,5.41
49.125,-5.12
49.140,-16.38
49.156,-27.72
49.171,-37.9
49.187,-45.36
49.203,-48.81
49.218,-47.75
49.234,-42.65
49.250,-34.79
49.265,-25.76
49.281,-16.89
49.296,-8.93
49.312,-1.99
49.328,4.23
49.343,10.07
49.359,15.69
49.375,20.98
49.390,25.61
49.406,29.25
49.421,31.71
49.437,33.0
49.453,33.34
49.468,33.09
49.484,32.63
49.500,32.24
49.515,32.11
49.531,32.25
49.546,32.46
49.562,32.5
49.578,32.1
49.593,31.1
49.609,29.47
49.625,27.31
49.640,24.77
49.656,21.94
49.671,18.88
49.687,15.6
49.703,12.04
49.718,8.18
49.734,3.99
49.750,-0.5
49.765,-5.21
49.781,-9.93
49.796,-14.38
49.812,-18.25
49.828,-21.31
49.843,-23.61
49.859,-25.51
49.875,-27.56
49.890,-30.33
49.906,-34.25
49.921,-39.33
49.937,-45.2
49.953,-51.07
49.968,-55.86
49.984,-58.42
50.000,-57.68
50.015,-53.03
50.031,-44.5
50.046,-32.82
50.062,-19.18
50.078,-4.96
50.093,8.75
50.109,21.41
50.125,32.98
50.140,43.75
50.156,54.0
50.171,63.67
50.187,72.44
50.203,79.91
50.218,85.8
50.234,90.13
50.250,93.16
50.265,95.17
50.281,96.3
50.296,96.45
50.312,95.39
50.328,92.92
50.343,89.08
50.359,84.21
50.375,78.89
50.390,73.69
50.406,69.0
50.421,64.89
50.437,61.1
50.453,57.24
50.468,52.93
50.484,48.05
50.500,42.73
50.515,37.29
50.531,32.0
50.546,26.94
50.562,21.98
50.578,16.9
50.593,11.59
50.609,6.21
50.625,1.14
50.640,-3.16
50.656,-6.38
50.671,-8.51
50.687,-9.81
50.703,-10.62
50.718,-11.1
50.734,-11.04
50.750,-9.85
50.765,-6.76
50.781,-1.08
50.796,7.5
50.812,18.7
50.828,31.73
50.843,45.49
50.859,58.87
50.875,70.98
50.890,81.32
50.906,89.75
50.921,96.24
50.937,100.71
50.953,102.93
50.968,102.75
50.984,100.39
51.000,96.58
51.015,92.44
51.031,89.1
51.046,87.26
51.062,87.06
51.078,88.15
51.093,90.01
51.109,92.36
51.125,95.15
51.140,98.41
51.156,101.97
51.171,105.15
51.187,106.81
51.203,105.63
51.218,100.58
51.234,91.17
51.250,77.59
51.265,60.43
51.281,40.3
51.296,17.6
51.312,-7.7
51.328,-35.7
51.343,-66.03
51.359,-97.41
51.375,-127.57
51.390,-153.65
51.406,-173.17
51.421,-184.9
51.437,-189.22
51.453,-188.01
51.468,-183.83
51.484,-178.98
51.500,-174.83
51.515,-171.65
51.531,-168.77
51.546,-165.08
51.562,-159.59
51.578,-151.71
51.593,-141.43
51.609,-129.2
51.625,-115.71
51.640,-101.73
51.656,-87.83
51.671,-74.39
51.687,-61.58
51.703,-49.51
51.718,-38.23
51.734,-27.82
51.750,-18.35
51.765,-9.77
51.781,-1.98
51.796,5.19
51.812,11.94
51.828,18.35
51.843,24.39
51.859,29.93
51.875,34.78
51.890,38.78
51.906,41.87
51.921,44.11
51.937,45.71
51.953,47.0
51.968,48.29
51.984,49.79
52.000,51.57
52.015,53.5
52.031,55.33
52.046,56.8
52.062,57.68
52.078,57.88
52.093,57.35
52.109,56.16
52.125,54.42
52.140,52.21
52.156,49.66
52.171,46.8
52.187,43.63
52.203,40.11
52.218,36.21
52.234,31.95
52.250,27.37
52.265,22.61
52.281,17.76
52.296,12.96
52.312,8.46
52.328,4.69
52.343,2.37
52.359,2.33
52.375,5.37
52.390,11.97
52.406,22.07
52.421,35.07
52.437,49.87
52.453,65.18
52.468,79.72
52.484,92.51
52.500,102.94
52.515,110.94
52.531,116.85
52.546,121.35
52.562,125.26
52.578,129.18
52.593,133.18
52.609,136.82
52.625,139.26
52.640,139.73
52.656,137.99
52.671,134.56
52.687,130.64
52.703,127.71
52.718,126.77
52.734,127.94
52.750,130.18
52.765,131.64
52.781,130.05
52.796,123.34
52.812,110.09
52.828,89.93
52.843,63.93
52.859,34.71
52.875,5.93
52.890,-18.61
52.906,-36.39
52.921,-47.22
52.937,-53.44
52.953,-59.04
52.968,-67.85
52.984,-81.85
53.000,-100.32
53.015,-120.39
53.031,-138.55
53.046,-152.21
53.062,-160.51
53.078,-164.21
53.093,-164.78
53.109,-163.53
53.125,-161.1
53.140,-157.56
53.156,-152.62
53.171,-145.88
53.187,-136.87
53.203,-125.01
53.218,-109.74
53.234,-90.87
53.250,-68.86
53.265,-45.03
53.281,-21.36
53.296,-0.08
53.312,16.89
53.328,28.35
53.343,34.17
53.359,35.35
53.375,33.83
53.390,31.96
53.406,31.79
53.421,34.51
53.437,40.18
53.453,48.01
53.468,56.73
53.484,65.09
53.500,71.96
53.515,76.11
53.531,75.91
53.546,69.21
53.562,53.9
53.578,28.82
53.593,-5.24
53.609,-45.12
53.625,-85.74
53.640,-121.47
53.656,-147.85
53.671,-162.71
53.687,-166.48
53.703,-161.47
53.718,-150.51
53.734,-136.03
53.750,-119.47
53.765,-101.71
53.781,-83.59
53.796,-66.4
53.812,-51.69
53.828,-40.69
53.843,-33.79
53.859,-30.33
53.875,-28.93
53.890,-28.13
53.906,-26.93
53.921,-24.94
53.937,-22.41
53.953,-19.84
53.968,-17.7
53.984,-16.41
54.000,-16.27
54.015,-17.65
54.031,-20.84
54.046,-25.96
54.062,-32.56
54.078,-39.5
54.093,-45.02
54.109,-47.28
54.125,-44.96
54.140,-37.58
54.156,-25.62
54.171,-10.14
54.187,7.64
54.203,26.67
54.218,45.83
54.234,63.39
54.250,76.75
54.265,82.69
54.281,78.52
54.296,63.43
54.312,39.49
54.328,11.33
54.343,-15.26
54.359,-35.21
54.375,-45.96
54.390,-47.95
54.406,-43.87
54.421,-37.07
54.437,-30.05
54.453,-23.78
54.468,-17.97
54.484,-12.11
54.500,-6.31
54.515,-1.7
54.531,0.14
54.546,-1.92
54.562,-7.68
54.578,-15.33
54.593,-22.12
54.609,-25.44
54.625,-24.19
54.640,-19.35
54.656,-13.78
54.671,-11.17
54.687,-14.55
54.703,-25.11
54.718,-41.73
54.734,-61.37
54.750,-80.02
54.765,-94.07
54.781,-101.28
54.796,-101.31
54.812,-95.53
54.828,-86.25
54.843,-75.7
54.859,-65.24
54.875,-54.98
54.890,-44.2
54.906,-32.23
54.921,-19.18
54.937,-6.23
54.953,4.83
54.968,12.6
54.984,16.8
55.000,18.52
55.015,19.7
55.031,22.29
55.046,27.42
55.062,35.12
55.078,44.58
55.093,54.45
55.109,63.39
55.125,70.03
55.140,73.04
55.156,71.12
55.171,63.09
55.187,48.37
55.203,27.49
55.218,2.57
55.234,-22.89
55.250,-44.58
55.265,-58.75
55.281,-63.71
55.296,-60.74
55.312,-53.96
55.328,-49.07
55.343,-51.16
55.359,-63.0
55.375,-84.24
55.390,-111.82
55.406,-141.38
55.421,-168.71
55.437,-190.57
55.453,-204.93
55.468,-210.75
55.484,-207.81
55.500,-196.87
55.515,-179.71
55.531,-158.98
55.546,-137.55
55.562,-117.73
55.578,-100.26
55.593,-84.56
55.609,-69.06
55.625,-52.43
55.640,-34.32
55.656,-15.67
55.671,1.89
55.687,16.82
55.703,28.27
55.718,36.28
55.734,41.32
55.750,43.97
55.765,44.68
55.781,44.04
55.796,43.13
55.812,43.38
55.828,46.32
55.843,52.7
55.859,62.19
55.875,73.33
55.890,84.25
55.906,93.51
55.921,100.61
55.937,106.01
55.953,110.55
55.968,114.82
55.984,118.84
56.000,122.18
56.015,124.45
56.031,125.72
56.046,126.63
56.062,128.07
56.078,130.69
56.093,134.4
56.109,138.33
56.125,141.22
56.140,141.93
56.156,139.87
56.171,135.17
56.187,128.62
56.203,121.22
56.218,113.97
56.234,107.63
56.250,102.76
56.265,99.66
56.281,98.15
56.296,97.37
56.312,95.68
56.328,90.82
56.343,80.52
56.359,63.03
56.375,37.98
56.390,6.71
56.406,-27.66
56.421,-60.73
56.437,-87.67
56.453,-104.46
56.468,-108.9
56.484,-101.2
56.500,-83.92
56.515,-61.15
56.531,-37.62
56.546,-17.44
56.562,-3.3
56.578,4.04
56.593,5.78
56.609,4.64
56.625,4.05
56.640,6.98
56.656,14.64
56.671,25.43
56.687,34.78
56.703,36.32
56.718,24.16
56.734,-4.52
56.750,-47.65
56.765,-98.37
56.781,-147.05
56.796,-184.62
56.812,-205.55
56.828,-209.27
56.843,-199.29
56.859,-181.06
56.875,-159.47
56.890,-137.44
56.906,-116.16
56.921,-96.15
56.937,-78.51
56.953,-65.12
56.968,-58.0
56.984,-58.01
57.000,-63.99
57.015,-72.69
57.031,-79.88
57.046,-81.7
57.062,-75.98
57.078,-62.91
57.093,-44.78
57.109,-25.02
57.125,-7.06
57.140,6.72
57.156,15.6
57.171,20.47
57.187,23.15
57.203,25.5
57.218,28.68
57.234,32.86
57.250,37.39
57.265,41.31
57.281,43.76
57.296,44.11
57.312,41.88
57.328,36.69
57.343,28.38
57.359,17.57
57.375,5.92
57.390,-3.97
57.406,-9.52
57.421,-9.48
57.437,-4.97
57.453,0.37
57.468,1.61
57.484,-5.56
57.500,-22.89
57.515,-48.78
57.531,-78.82
57.546,-107.6
57.562,-130.56
57.578,-145.31
57.593,-151.73
57.609,-151.12
57.625,-145.16
57.640,-135.06
57.656,-121.58
57.671,-105.38
57.687,-87.56
57.703,-69.68
57.718,-53.36
57.734,-39.73
57.750,-28.96
57.765,-20.35
57.781,-12.71
57.796,-5.09
57.812,2.79
57.828,10.43
57.843,16.95
57.859,21.53
57.875,23.87
57.890,24.36
57.906,23.87
57.921,23.33
57.937,23.34
57.953,23.97
57.968,24.86
57.984,25.37
58.000,25.01
58.015,23.54
58.031,21.04
58.046,17.93
58.062,14.58
58.078,11.29
58.093,8.2
58.109,5.23
58.125,2.2
58.140,-1.07
58.156,-4.7
58.171,-8.77
58.187,-13.28
58.203,-18.22
58.218,-23.43
58.234,-28.59
58.250,-33.12
58.265,-36.34
58.281,-37.49
58.296,-35.99
58.312,-31.61
58.328,-24.55
58.343,-15.42
58.359,-5.03
58.375,5.69
58.390,15.96
58.406,25.23
58.421,33.22
58.437,39.89
58.453,45.28
58.468,49.44
58.484,52.34
58.500,53.94
58.515,54.18
58.531,53.06
58.546,50.69
58.562,47.27
58.578,43.08
58.593,38.51
58.609,34.0
58.625,30.02
58.640,27.01
58.656,25.22
58.671,24.55
58.687,24.56
58.703,24.64
58.718,24.16
58.734,22.77
58.750,20.45
58.765,17.49
58.781,14.27
58.796,11.03
58.812,7.78
58.828,4.29
58.843,0.21
58.859,-4.79
58.875,-10.81
58.890,-17.62
58.906,-24.64
58.921,-31.01
58.937,-35.75
58.953,-37.96
58.968,-37.07
58.984,-32.94
59.000,-25.94
59.015,-16.77
59.031,-6.34
59.046,4.47
59.062,15.01
59.078,24.81
59.093,33.64
59.109,41.41
59.125,47.96
59.140,53.22
59.156,57.12
59.171,59.74
59.187,61.32
59.203,62.24
59.218,62.8
59.234,63.15
59.250,63.34
59.265,63.23
59.281,62.77
59.296,62.02
59.312,61.08
59.328,60.02
59.343,58.77
59.359,57.17
59.375,55.01
59.390,52.25
59.406,48.99
59.421,45.46
59.437,41.89
59.453,38.43
59.468,35.1
59.484,31.86
59.500,28.6
59.515,25.22
59.531,21.58
59.546,17.47
59.562,12.65
59.578,6.99
59.593,0.64
59.609,-5.92
59.625,-11.95
59.640,-16.64
59.656,-19.42
59.671,-20.08
59.687,-18.83
59.703,-16.1
59.718,-12.32
59.734,-7.8
59.750,-2.57
59.765,3.44
59.781,10.28
59.796,17.8
59.812,25.6
59.828,33.07
59.843,39.57
59.859,44.64
59.875,48.09
59.890,50.17
59.906,51.34
59.921,52.14
59.937,52.97
59.953,54.0
59.968,55.08
59.984,55.89
