timestamp,value
00.000,-24.16
00.015,-27.89
00.031,-31.83
00.046,-36.36
00.062,-41.61
00.078,-47.26
00.093,-52.44
00.109,-55.88
00.125,-56.28
00.140,-52.71
00.156,-44.95
00.171,-33.65
00.187,-20.13
00.203,-6.03
00.218,7.15
00.234,18.45
00.250,27.5
00.265,34.39
00.281,39.42
00.296,42.88
00.312,44.88
00.328,45.49
00.343,44.84
00.359,43.2
00.375,41.04
00.390,38.92
00.406,37.27
00.421,36.34
00.437,36.13
00.453,36.5
00.468,37.19
00.484,38.03
00.500,38.86
00.515,39.62
00.531,40.22
00.546,40.5
00.562,40.3
00.578,39.45
00.593,37.91
00.609,35.8
00.625,33.41
00.640,31.06
00.656,29.07
00.671,27.56
00.687,26.49
00.703,25.66
00.718,24.8
00.734,23.66
00.750,22.16
00.765,20.35
00.781,18.46
00.796,16.77
00.812,15.51
00.828,14.78
00.843,14.49
00.859,14.43
00.875,14.31
00.890,13.91
00.906,13.16
00.921,12.1
00.937,10.89
00.953,9.71
00.968,8.69
00.984,7.85
01.000,7.14
01.015,6.35
01.031,5.27
01.046,3.8
01.062,1.95
01.078,-0.08
01.093,-1.98
01.109,-3.53
01.125,-4.65
01.140,-5.5
01.156,-6.39
01.171,-7.59
01.187,-9.28
01.203,-11.42
01.218,-13.83
01.234,-16.3
01.250,-18.65
01.265,-20.76
01.281,-22.65
01.296,-24.4
01.312,-26.19
01.328,-28.24
01.343,-30.78
01.359,-33.94
01.375,-37.66
01.390,-41.67
01.406,-45.6
01.421,-49.1
01.437,-52.01
01.453,-54.46
01.468,-56.85
01.484,-59.72
01.500,-63.43
01.515,-67.96
01.531,-72.73
01.546,-76.59
01.562,-78.15
01.578,-76.1
01.593,-69.69
01.609,-59.04
01.625,-45.1
01.640,-29.45
01.656,-13.85
01.671,0.14
01.687,11.54
01.703,19.87
01.718,25.18
01.734,27.86
01.750,28.46
01.765,27.64
01.781,26.05
01.796,24.3
01.812,22.85
01.828,21.97
01.843,21.71
01.859,21.97
01.875,22.48
01.890,22.97
01.906,23.18
01.921,22.97
01.937,22.27
01.953,21.08
01.968,19.47
01.984,17.47
02.000,15.07
02.015,12.27
02.031,9.07
02.046,5.56
02.062,1.85
02.078,-1.93
02.093,-5.67
02.109,-9.32
02.125,-12.95
02.140,-16.67
02.156,-20.64
02.171,-24.9
02.187,-29.29
02.203,-33.34
02.218,-36.28
02.234,-37.24
02.250,-35.44
02.265,-30.53
02.281,-22.74
02.296,-12.86
02.312,-2.03
02.328,8.52
02.343,17.79
02.359,25.15
02.375,30.32
02.390,33.34
02.406,34.47
02.421,34.03
02.437,32.43
02.453,30.06
02.468,27.29
02.484,24.44
02.500,21.75
02.515,19.45
02.531,17.68
02.546,16.52
02.562,15.9
02.578,15.66
02.593,15.48
02.609,15.02
02.625,13.89
02.640,11.85
02.656,8.78
02.671,4.83
02.687,0.25
02.703,-4.55
02.718,-9.2
02.734,-13.41
02.750,-17.08
02.765,-20.31
02.781,-23.39
02.796,-26.7
02.812,-30.55
02.828,-35.09
02.843,-40.1
02.859,-44.88
02.875,-48.37
02.890,-49.39
02.906,-46.97
02.921,-40.75
02.937,-31.1
02.953,-19.07
02.968,-6.08
02.984,6.46
03.000,17.48
03.015,26.38
03.031,32.99
03.046,37.45
03.062,39.98
03.078,40.82
03.093,40.27
03.109,38.66
03.125,36.41
03.140,33.94
03.156,31.63
03.171,29.66
03.187,28.03
03.203,26.58
03.218,25.11
03.234,23.52
03.250,21.86
03.265,20.26
03.281,18.83
03.296,17.57
03.312,16.28
03.328,14.64
03.343,12.34
03.359,9.12
03.375,5.02
03.390,0.24
03.406,-4.93
03.421,-10.18
03.437,-15.28
03.453,-20.16
03.468,-24.84
03.484,-29.48
03.500,-34.31
03.515,-39.5
03.531,-45.0
03.546,-50.4
03.562,-54.79
03.578,-57.04
03.593,-56.04
03.609,-51.18
03.625,-42.6
03.640,-31.3
03.656,-18.66
03.671,-6.13
03.687,5.21
03.703,14.83
03.718,22.6
03.734,28.57
03.750,32.83
03.765,35.4
03.781,36.29
03.796,35.65
03.812,33.8
03.828,31.18
03.843,28.33
03.859,25.71
03.875,23.59
03.890,22.05
03.906,20.96
03.921,20.02
03.937,19.02
03.953,17.75
03.968,16.17
03.984,14.3
04.000,12.23
04.015,9.93
04.031,7.36
04.046,4.4
04.062,0.93
04.078,-3.05
04.093,-7.46
04.109,-12.09
04.125,-16.7
04.140,-21.05
04.156,-25.02
04.171,-28.53
04.187,-31.64
04.203,-34.46
04.218,-37.19
04.234,-40.09
04.250,-43.42
04.265,-47.29
04.281,-51.63
04.296,-56.01
04.312,-59.67
04.328,-61.62
04.343,-60.9
04.359,-56.8
04.375,-49.17
04.390,-38.46
04.406,-25.67
04.421,-12.11
04.437,0.96
04.453,12.59
04.468,22.29
04.484,30.01
04.500,35.95
04.515,40.39
04.531,43.53
04.546,45.4
04.562,45.98
04.578,45.33
04.593,43.68
04.609,41.43
04.625,39.05
04.640,36.97
04.656,35.37
04.671,34.23
04.687,33.34
04.703,32.43
04.718,31.28
04.734,29.83
04.750,28.03
04.765,25.89
04.781,23.42
04.796,20.57
04.812,17.34
04.828,13.75
04.843,9.9
04.859,5.93
04.875,1.95
04.890,-1.94
04.906,-5.7
04.921,-9.29
04.937,-12.68
04.953,-15.78
04.968,-18.55
04.984,-21.02
05.000,-23.33
05.015,-25.73
05.031,-28.5
05.046,-31.87
05.062,-35.85
05.078,-40.18
05.093,-44.27
05.109,-47.25
05.125,-48.18
05.140,-46.25
05.156,-41.07
05.171,-32.78
05.187,-22.08
05.203,-10.02
05.218,2.22
05.234,13.62
05.250,23.54
05.265,31.68
05.281,38.04
05.296,42.73
05.312,45.88
05.328,47.65
05.343,48.2
05.359,47.75
05.375,46.63
05.390,45.14
05.406,43.6
05.421,42.24
05.437,41.18
05.453,40.45
05.468,40.02
05.484,39.75
05.500,39.47
05.515,38.98
05.531,38.08
05.546,36.64
05.562,34.6
05.578,32.03
05.593,29.05
05.609,25.82
05.625,22.46
05.640,19.08
05.656,15.67
05.671,12.19
05.687,8.6
05.703,4.89
05.718,1.13
05.734,-2.59
05.750,-6.14
05.765,-9.45
05.781,-12.55
05.796,-15.54
05.812,-18.58
05.828,-21.78
05.843,-25.23
05.859,-28.9
05.875,-32.58
05.890,-35.88
05.906,-38.22
05.921,-38.85
05.937,-37.11
05.953,-32.59
05.968,-25.41
05.984,-16.25
06.000,-6.24
06.015,3.41
06.031,11.72
06.046,18.19
06.062,22.88
06.078,26.09
06.093,28.2
06.109,29.4
06.125,29.73
06.140,29.2
06.156,27.87
06.171,26.0
06.187,23.96
06.203,22.1
06.218,20.69
06.234,19.82
06.250,19.39
06.265,19.24
06.281,19.08
06.296,18.67
06.312,17.82
06.328,16.48
06.343,14.65
06.359,12.42
06.375,9.88
06.390,7.08
06.406,4.02
06.421,0.7
06.437,-2.79
06.453,-6.3
06.468,-9.64
06.484,-12.69
06.500,-15.42
06.515,-17.97
06.531,-20.47
06.546,-23.03
06.562,-25.68
06.578,-28.4
06.593,-31.2
06.609,-34.2
06.625,-37.54
06.640,-41.33
06.656,-45.41
06.671,-49.26
06.687,-52.09
06.703,-52.93
06.718,-51.05
06.734,-46.18
06.750,-38.6
06.765,-29.07
06.781,-18.64
06.796,-8.31
06.812,1.12
06.828,9.15
06.843,15.62
06.859,20.6
06.875,24.22
06.890,26.66
06.906,28.12
06.921,28.7
06.937,28.55
06.953,27.8
06.968,26.61
06.984,25.15
07.000,23.63
07.015,22.2
07.031,20.99
07.046,20.07
07.062,19.38
07.078,18.85
07.093,18.31
07.109,17.52
07.125,16.28
07.140,14.42
07.156,11.87
07.171,8.71
07.187,5.15
07.203,1.47
07.218,-2.08
07.234,-5.35
07.250,-8.38
07.265,-11.3
07.281,-14.32
07.296,-17.57
07.312,-21.07
07.328,-24.72
07.343,-28.33
07.359,-31.74
07.375,-34.88
07.390,-37.81
07.406,-40.67
07.421,-43.7
07.437,-47.08
07.453,-50.86
07.468,-54.76
07.484,-58.18
07.500,-60.22
07.515,-59.9
07.531,-56.51
07.546,-49.86
07.562,-40.42
07.578,-29.17
07.593,-17.38
07.609,-6.2
07.625,3.54
07.640,11.44
07.656,17.39
07.671,21.47
07.687,23.87
07.703,24.83
07.718,24.7
07.734,23.88
07.750,22.78
07.765,21.7
07.781,20.77
07.796,19.99
07.812,19.27
07.828,18.5
07.843,17.67
07.859,16.86
07.875,16.17
07.890,15.63
07.906,15.15
07.921,14.58
07.937,13.69
07.953,12.34
07.968,10.51
07.984,8.31
08.000,5.92
08.015,3.56
08.031,1.36
08.046,-0.66
08.062,-2.64
08.078,-4.73
08.093,-7.13
08.109,-9.91
08.125,-13.03
08.140,-16.32
08.156,-19.58
08.171,-22.62
08.187,-25.35
08.203,-27.81
08.218,-30.14
08.234,-32.59
08.250,-35.4
08.265,-38.72
08.281,-42.46
08.296,-46.26
08.312,-49.37
08.328,-50.87
08.343,-49.84
08.359,-45.75
08.375,-38.65
08.390,-29.19
08.406,-18.5
08.421,-7.76
08.437,2.04
08.453,10.38
08.468,17.17
08.484,22.6
08.500,26.86
08.515,30.12
08.531,32.39
08.546,33.65
08.562,33.94
08.578,33.49
08.593,32.63
08.609,31.73
08.625,31.04
08.640,30.63
08.656,30.4
08.671,30.24
08.687,30.09
08.703,29.99
08.718,29.98
08.734,30.02
08.750,29.9
08.765,29.33
08.781,28.05
08.796,26.0
08.812,23.31
08.828,20.29
08.843,17.21
08.859,14.26
08.875,11.45
08.890,8.74
08.906,6.03
08.921,3.3
08.937,0.61
08.953,-1.99
08.968,-4.39
08.984,-6.54
09.000,-8.46
09.015,-10.23
09.031,-12.07
09.046,-14.24
09.062,-17.01
09.078,-20.51
09.093,-24.68
09.109,-29.13
09.125,-33.15
09.140,-35.85
09.156,-36.37
09.171,-34.09
09.187,-28.86
09.203,-21.05
09.218,-11.54
09.234,-1.45
09.250,8.09
09.265,16.24
09.281,22.56
09.296,27.02
09.312,29.87
09.328,31.42
09.343,32.0
09.359,31.79
09.375,30.95
09.390,29.64
09.406,28.05
09.421,26.45
09.437,25.09
09.453,24.09
09.468,23.44
09.484,23.09
09.500,22.88
09.515,22.74
09.531,22.6
09.546,22.37
09.562,21.91
09.578,21.04
09.593,19.6
09.609,17.54
09.625,14.91
09.640,11.88
09.656,8.61
09.671,5.23
09.687,1.79
09.703,-1.67
09.718,-5.11
09.734,-8.44
09.750,-11.55
09.765,-14.39
09.781,-16.97
09.796,-19.34
09.812,-21.65
09.828,-24.07
09.843,-26.79
09.859,-29.94
09.875,-33.58
09.890,-37.54
09.906,-41.39
09.921,-44.44
09.937,-45.83
09.953,-44.76
09.968,-40.77
09.984,-33.87
10.000,-24.68
10.015,-14.18
10.031,-3.54
10.046,6.22
10.062,14.39
10.078,20.67
10.093,25.12
10.109,27.99
10.125,29.59
10.140,30.19
10.156,30.03
10.171,29.37
10.187,28.54
10.203,27.91
10.218,27.8
10.234,28.33
10.250,29.38
10.265,30.6
10.281,31.57
10.296,31.92
10.312,31.57
10.328,30.56
10.343,29.07
10.359,27.19
10.375,24.81
10.390,21.7
10.406,17.51
10.421,11.9
10.437,4.68
10.453,-4.1
10.468,-14.04
10.484,-24.42
10.500,-34.34
10.515,-42.92
10.531,-49.59
10.546,-54.24
10.562,-57.23
10.578,-59.15
10.593,-60.59
10.609,-61.98
10.625,-63.46
10.640,-65.0
10.656,-66.47
10.671,-67.52
10.687,-67.63
10.703,-66.02
10.718,-61.77
10.734,-54.11
10.750,-42.78
10.765,-28.26
10.781,-11.8
10.796,4.82
10.812,19.81
10.828,31.76
10.843,39.86
10.859,44.03
10.875,44.62
10.890,42.34
10.906,37.99
10.921,32.51
10.937,26.85
10.953,21.93
10.968,18.5
10.984,16.86
11.000,16.84
11.015,17.81
11.031,19.03
11.046,19.89
11.062,20.13
11.078,19.82
11.093,19.21
11.109,18.57
11.125,18.03
11.140,17.54
11.156,16.88
11.171,15.83
11.187,14.28
11.203,12.3
11.218,10.15
11.234,8.21
11.250,6.81
11.265,6.01
11.281,5.44
11.296,4.36
11.312,1.75
11.328,-3.41
11.343,-11.9
11.359,-24.0
11.375,-39.38
11.390,-57.12
11.406,-75.83
11.421,-93.79
11.437,-109.25
11.453,-120.73
11.468,-127.23
11.484,-128.38
11.500,-124.43
11.515,-116.21
11.531,-104.97
11.546,-92.12
11.562,-78.93
11.578,-66.31
11.593,-54.72
11.609,-44.17
11.625,-34.49
11.640,-25.55
11.656,-17.34
11.671,-9.98
11.687,-3.59
11.703,1.8
11.718,6.32
11.734,10.14
11.750,13.46
11.765,16.36
11.781,18.96
11.796,21.39
11.812,23.82
11.828,26.48
11.843,29.48
11.859,32.81
11.875,36.27
11.890,39.59
11.906,42.44
11.921,44.55
11.937,45.78
11.953,46.11
11.968,45.66
11.984,44.6
12.000,43.17
12.015,41.61
12.031,40.09
12.046,38.64
12.062,37.14
12.078,35.37
12.093,32.99
12.109,29.76
12.125,25.59
12.140,20.78
12.156,16.02
12.171,12.32
12.187,10.74
12.203,12.0
12.218,16.29
12.234,23.08
12.250,31.36
12.265,39.98
12.281,47.97
12.296,54.76
12.312,60.19
12.328,64.43
12.343,67.73
12.359,70.26
12.375,71.97
12.390,72.65
12.406,71.92
12.421,69.46
12.437,65.08
12.453,58.8
12.468,50.85
12.484,41.59
12.500,31.36
12.515,20.48
12.531,9.32
12.546,-1.67
12.562,-11.88
12.578,-20.69
12.593,-27.6
12.609,-32.48
12.625,-35.58
12.640,-37.44
12.656,-38.7
12.671,-39.83
12.687,-40.97
12.703,-42.07
12.718,-42.87
12.734,-43.15
12.750,-42.81
12.765,-41.96
12.781,-40.85
12.796,-39.77
12.812,-38.96
12.828,-38.53
12.843,-38.4
12.859,-38.31
12.875,-37.81
12.890,-36.44
12.906,-33.85
12.921,-29.95
12.937,-25.01
12.953,-19.63
12.968,-14.6
12.984,-10.6
13.000,-7.93
13.015,-6.36
13.031,-5.24
13.046,-3.8
13.062,-1.54
13.078,1.58
13.093,5.11
13.109,8.47
13.125,11.16
13.140,12.99
13.156,13.99
13.171,14.17
13.187,13.41
13.203,11.47
13.218,8.17
13.234,3.63
13.250,-1.59
13.265,-6.72
13.281,-11.0
13.296,-13.98
13.312,-15.66
13.328,-16.35
13.343,-16.54
13.359,-16.76
13.375,-17.41
13.390,-18.81
13.406,-21.08
13.421,-24.14
13.437,-27.68
13.453,-31.21
13.468,-34.19
13.484,-36.26
13.500,-37.27
13.515,-37.25
13.531,-36.26
13.546,-34.19
13.562,-30.79
13.578,-25.75
13.593,-18.93
13.609,-10.57
13.625,-1.3
13.640,8.0
13.656,16.48
13.671,23.61
13.687,29.23
13.703,33.54
13.718,36.82
13.734,39.26
13.750,40.84
13.765,41.42
13.781,40.87
13.796,39.21
13.812,36.71
13.828,33.72
13.843,30.58
13.859,27.55
13.875,24.68
13.890,21.92
13.906,19.17
13.921,16.24
13.937,12.97
13.953,9.22
13.968,5.01
13.984,0.58
14.000,-3.66
14.015,-7.23
14.031,-9.68
14.046,-10.83
14.062,-10.79
14.078,-9.85
14.093,-8.4
14.109,-6.71
14.125,-4.89
14.140,-2.84
14.156,-0.28
14.171,3.09
14.187,7.56
14.203,13.16
14.218,19.69
14.234,26.69
14.250,33.62
14.265,39.95
14.281,45.28
14.296,49.44
14.312,52.36
14.328,53.98
14.343,54.14
14.359,52.63
14.375,49.26
14.390,44.03
14.406,37.23
14.421,29.39
14.437,21.24
14.453,13.42
14.468,6.41
14.484,0.38
14.500,-4.69
14.515,-8.99
14.531,-12.7
14.546,-15.93
14.562,-18.8
14.578,-21.37
14.593,-23.75
14.609,-26.02
14.625,-28.25
14.640,-30.47
14.656,-32.68
14.671,-34.83
14.687,-36.85
14.703,-38.71
14.718,-40.34
14.734,-41.74
14.750,-42.91
14.765,-43.82
14.781,-44.44
14.796,-44.52
14.812,-43.68
14.828,-41.4
14.843,-37.27
14.859,-31.13
14.875,-23.28
14.890,-14.44
14.906,-5.5
14.921,2.73
14.937,9.77
14.953,15.53
14.968,20.26
14.984,24.31
15.000,27.98
15.015,31.44
15.031,34.66
15.046,37.51
15.062,39.64
15.078,40.58
15.093,39.7
15.109,36.41
15.125,30.41
15.140,21.95
15.156,11.85
15.171,1.41
15.187,-7.97
15.203,-15.29
15.218,-20.17
15.234,-22.89
15.250,-24.12
15.265,-24.55
15.281,-24.59
15.296,-24.28
15.312,-23.5
15.328,-22.14
15.343,-20.31
15.359,-18.25
15.375,-16.12
15.390,-13.87
15.406,-11.14
15.421,-7.49
15.437,-2.67
15.453,3.15
15.468,9.41
15.484,15.29
15.500,20.06
15.515,23.3
15.531,25.0
15.546,25.51
15.562,25.31
15.578,24.8
15.593,24.16
15.609,23.4
15.625,22.49
15.640,21.44
15.656,20.31
15.671,19.14
15.687,17.86
15.703,16.3
15.718,14.18
15.734,11.28
15.750,7.53
15.765,2.94
15.781,-2.49
15.796,-8.73
15.812,-15.83
15.828,-23.68
15.843,-31.94
15.859,-39.97
15.875,-47.09
15.890,-52.74
15.906,-56.75
15.921,-59.37
15.937,-61.02
15.953,-62.08
15.968,-62.67
15.984,-62.55
16.000,-61.26
16.015,-58.26
16.031,-53.18
16.046,-45.88
16.062,-36.56
16.078,-25.68
16.093,-13.95
16.109,-2.1
16.125,9.13
16.140,19.19
16.156,27.77
16.171,34.82
16.187,40.45
16.203,44.76
16.218,47.77
16.234,49.38
16.250,49.6
16.265,48.65
16.281,47.05
16.296,45.44
16.312,44.43
16.328,44.26
16.343,44.72
16.359,45.31
16.375,45.48
16.390,44.89
16.406,43.54
16.421,41.63
16.437,39.5
16.453,37.31
16.468,35.09
16.484,32.77
16.500,30.35
16.515,27.89
16.531,25.42
16.546,22.88
16.562,20.02
16.578,16.54
16.593,12.21
16.609,7.15
16.625,1.91
16.640,-2.62
16.656,-5.56
16.671,-6.22
16.687,-4.43
16.703,-0.52
16.718,4.73
16.734,10.4
16.750,15.62
16.765,19.8
16.781,22.65
16.796,24.22
16.812,24.74
16.828,24.48
16.843,23.61
16.859,22.17
16.875,20.11
16.890,17.46
16.906,14.36
16.921,11.05
16.937,7.82
16.953,4.88
16.968,2.34
16.984,0.27
17.000,-1.32
17.015,-2.42
17.031,-3.05
17.046,-3.32
17.062,-3.4
17.078,-3.45
17.093,-3.59
17.109,-3.82
17.125,-4.1
17.140,-4.36
17.156,-4.63
17.171,-4.99
17.187,-5.58
17.203,-6.5
17.218,-7.77
17.234,-9.41
17.250,-11.35
17.265,-13.49
17.281,-15.62
17.296,-17.38
17.312,-18.38
17.328,-18.33
17.343,-17.16
17.359,-15.06
17.375,-12.42
17.390,-9.61
17.406,-6.89
17.421,-4.31
17.437,-1.85
17.453,0.5
17.468,2.63
17.484,4.34
17.500,5.44
17.515,5.81
17.531,5.47
17.546,4.57
17.562,3.33
17.578,1.94
17.593,0.55
17.609,-0.75
17.625,-1.93
17.640,-3.01
17.656,-3.99
17.671,-4.88
17.687,-5.65
17.703,-6.29
17.718,-6.82
17.734,-7.31
17.750,-7.84
17.765,-8.5
17.781,-9.38
17.796,-10.49
17.812,-11.84
17.828,-13.4
17.843,-15.07
17.859,-16.62
17.875,-17.75
17.890,-18.09
17.906,-17.34
17.921,-15.4
17.937,-12.36
17.953,-8.54
17.968,-4.36
17.984,-0.19
18.000,3.69
18.015,7.18
18.031,10.21
18.046,12.76
18.062,14.76
18.078,16.16
18.093,16.95
18.109,17.17
18.125,16.94
18.140,16.41
18.156,15.68
18.171,14.82
18.187,13.85
18.203,12.79
18.218,11.63
18.234,10.43
18.250,9.26
18.265,8.14
18.281,7.07
18.296,5.99
18.312,4.82
18.328,3.5
18.343,2.03
18.359,0.43
18.375,-1.25
18.390,-3.01
18.406,-4.88
18.421,-6.97
18.437,-9.29
18.453,-11.78
18.468,-14.25
18.484,-16.34
18.500,-17.7
18.515,-17.98
18.531,-16.94
18.546,-14.49
18.562,-10.77
18.578,-6.16
18.593,-1.2
18.609,3.54
18.625,7.58
18.640,10.67
18.656,12.81
18.671,14.16
18.687,14.97
18.703,15.46
18.718,15.7
18.734,15.64
18.750,15.19
18.765,14.29
18.781,12.95
18.796,11.28
18.812,9.48
18.828,7.76
18.843,6.25
18.859,4.99
18.875,3.91
18.890,2.89
18.906,1.87
18.921,0.8
18.937,-0.3
18.953,-1.42
18.968,-2.61
18.984,-3.95
19.000,-5.45
19.015,-7.04
19.031,-8.61
19.046,-10.08
19.062,-11.48
19.078,-12.93
19.093,-14.57
19.109,-16.42
19.125,-18.29
19.140,-19.77
19.156,-20.37
19.171,-19.73
19.187,-17.69
19.203,-14.37
19.218,-10.12
19.234,-5.42
19.250,-0.73
19.265,3.6
19.281,7.36
19.296,10.45
19.312,12.78
19.328,14.34
19.343,15.1
19.359,15.13
19.375,14.57
19.390,13.58
19.406,12.39
19.421,11.11
19.437,9.82
19.453,8.56
19.468,7.38
19.484,6.38
19.500,5.62
19.515,5.17
19.531,4.94
19.546,4.84
19.562,4.7
19.578,4.4
19.593,3.89
19.609,3.17
19.625,2.3
19.640,1.31
19.656,0.26
19.671,-0.85
19.687,-2.04
19.703,-3.41
19.718,-5.0
19.734,-6.85
19.750,-8.92
19.765,-11.09
19.781,-13.22
19.796,-15.16
19.812,-16.73
19.828,-17.69
19.843,-17.77
19.859,-16.7
19.875,-14.34
19.890,-10.75
19.906,-6.22
19.921,-1.17
19.937,3.88
19.953,8.48
19.968,12.24
19.984,14.92
20.000,16.43
20.015,16.82
20.031,16.36
20.046,15.42
20.062,14.38
20.078,13.49
20.093,12.77
20.109,12.07
20.125,11.25
20.140,10.23
20.156,9.03
20.171,7.75
20.187,6.5
20.203,5.38
20.218,4.51
20.234,4.01
20.250,4.0
20.265,4.46
20.281,5.12
20.296,5.52
20.312,5.14
20.328,3.61
20.343,0.94
20.359,-2.57
20.375,-6.45
20.390,-10.27
20.406,-13.8
20.421,-17.03
20.437,-20.04
20.453,-22.93
20.468,-25.74
20.484,-28.39
20.500,-30.73
20.515,-32.52
20.531,-33.44
20.546,-33.14
20.562,-31.42
20.578,-28.24
20.593,-23.81
20.609,-18.64
20.625,-13.28
20.640,-8.23
20.656,-3.82
20.671,-0.12
20.687,2.89
20.703,5.22
20.718,6.86
20.734,7.73
20.750,7.8
20.765,7.17
20.781,6.17
20.796,5.19
20.812,4.64
20.828,4.72
20.843,5.34
20.859,6.23
20.875,7.08
20.890,7.68
20.906,8.05
20.921,8.29
20.937,8.51
20.953,8.65
20.968,8.57
20.984,8.05
21.000,7.04
21.015,5.64
21.031,4.06
21.046,2.57
21.062,1.25
21.078,0.07
21.093,-1.18
21.109,-2.68
21.125,-4.58
21.140,-6.85
21.156,-9.36
21.171,-11.84
21.187,-13.92
21.203,-15.2
21.218,-15.39
21.234,-14.35
21.250,-12.11
21.265,-8.92
21.281,-5.1
21.296,-1.02
21.312,2.94
21.328,6.46
21.343,9.28
21.359,11.28
21.375,12.46
21.390,12.96
21.406,12.95
21.421,12.6
21.437,11.98
21.453,11.09
21.468,9.94
21.484,8.61
21.500,7.25
21.515,6.03
21.531,5.11
21.546,4.57
21.562,4.36
21.578,4.37
21.593,4.47
21.609,4.5
21.625,4.33
21.640,3.83
21.656,2.92
21.671,1.6
21.687,-0.06
21.703,-1.91
21.718,-3.78
21.734,-5.55
21.750,-7.18
21.765,-8.72
21.781,-10.27
21.796,-11.93
21.812,-13.71
21.828,-15.53
21.843,-17.14
21.859,-18.21
21.875,-18.32
21.890,-17.11
21.906,-14.38
21.921,-10.14
21.937,-4.71
21.953,1.39
21.968,7.52
21.984,13.06
22.000,17.54
22.015,20.69
22.031,22.44
22.046,22.91
22.062,22.32
22.078,21.02
22.093,19.33
22.109,17.51
22.125,15.73
22.140,13.98
22.156,12.23
22.171,10.42
22.187,8.58
22.203,6.81
22.218,5.23
22.234,3.88
22.250,2.71
22.265,1.63
22.281,0.51
22.296,-0.69
22.312,-2.03
22.328,-3.5
22.343,-5.12
22.359,-6.93
22.375,-8.96
22.390,-11.16
22.406,-13.45
22.421,-15.74
22.437,-18.0
22.453,-20.28
22.468,-22.69
22.484,-25.29
22.500,-28.01
22.515,-30.63
22.531,-32.72
22.546,-33.78
22.562,-33.36
22.578,-31.18
22.593,-27.25
22.609,-21.9
22.625,-15.65
22.640,-9.18
22.656,-3.1
22.671,2.18
22.687,6.46
22.703,9.74
22.718,12.13
22.734,13.68
22.750,14.4
22.765,14.28
22.781,13.39
22.796,11.89
22.812,10.08
22.828,8.29
22.843,6.79
22.859,5.69
22.875,4.96
22.890,4.48
22.906,4.13
22.921,3.82
22.937,3.47
22.953,3.01
22.968,2.35
22.984,1.43
23.000,0.19
23.015,-1.37
23.031,-3.17
23.046,-5.07
23.062,-6.95
23.078,-8.7
23.093,-10.31
23.109,-11.85
23.125,-13.44
23.140,-15.14
23.156,-17.02
23.171,-18.97
23.187,-20.77
23.203,-22.08
23.218,-22.49
23.234,-21.66
23.250,-19.38
23.265,-15.72
23.281,-10.98
23.296,-5.68
23.312,-0.33
23.328,4.63
23.343,8.93
23.359,12.42
23.375,15.07
23.390,16.78
23.406,17.51
23.421,17.25
23.437,16.17
23.453,14.53
23.468,12.7
23.484,11.0
23.500,9.58
23.515,8.47
23.531,7.66
23.546,7.08
23.562,6.75
23.578,6.69
23.593,6.86
23.609,7.12
23.625,7.28
23.640,7.12
23.656,6.49
23.671,5.32
23.687,3.65
23.703,1.55
23.718,-0.82
23.734,-3.3
23.750,-5.71
23.765,-7.91
23.781,-9.81
23.796,-11.44
23.812,-12.97
23.828,-14.54
23.843,-16.21
23.859,-17.84
23.875,-19.1
23.890,-19.51
23.906,-18.66
23.921,-16.36
23.937,-12.69
23.953,-8.0
23.968,-2.8
23.984,2.4
24.000,7.18
24.015,11.27
24.031,14.51
24.046,16.86
24.062,18.28
24.078,18.79
24.093,18.41
24.109,17.27
24.125,15.55
24.140,13.54
24.156,11.48
24.171,9.61
24.187,8.05
24.203,6.83
24.218,5.9
24.234,5.17
24.250,4.56
24.265,4.0
24.281,3.43
24.296,2.79
24.312,2.03
24.328,1.14
24.343,0.13
24.359,-0.97
24.375,-2.12
24.390,-3.29
24.406,-4.49
24.421,-5.72
24.437,-7.07
24.453,-8.59
24.468,-10.36
24.484,-12.35
24.500,-14.37
24.515,-16.0
24.531,-16.71
24.546,-16.0
24.562,-13.62
24.578,-9.68
24.593,-4.61
24.609,0.95
24.625,6.34
24.640,11.03
24.656,14.73
24.671,17.29
24.687,18.68
24.703,18.95
24.718,18.23
24.734,16.78
24.750,14.92
24.765,13.0
24.781,11.3
24.796,10.0
24.812,9.13
24.828,8.64
24.843,8.43
24.859,8.4
24.875,8.4
24.890,8.29
24.906,7.88
24.921,7.05
24.937,5.79
24.953,4.2
24.968,2.48
24.984,0.77
25.000,-0.83
25.015,-2.41
25.031,-4.12
25.046,-6.17
25.062,-8.62
25.078,-11.41
25.093,-14.35
25.109,-17.13
25.125,-19.44
25.140,-20.91
25.156,-21.22
25.171,-20.14
25.187,-17.58
25.203,-13.7
25.218,-8.89
25.234,-3.66
25.250,1.42
25.265,5.93
25.281,9.56
25.296,12.18
25.312,13.76
25.328,14.31
25.343,13.93
25.359,12.8
25.375,11.18
25.390,9.42
25.406,7.81
25.421,6.53
25.437,5.58
25.453,4.88
25.468,4.33
25.484,3.83
25.500,3.36
25.515,2.88
25.531,2.32
25.546,1.63
25.562,0.74
25.578,-0.4
25.593,-1.74
25.609,-3.2
25.625,-4.7
25.640,-6.21
25.656,-7.73
25.671,-9.29
25.687,-10.98
25.703,-12.8
25.718,-14.76
25.734,-16.72
25.750,-18.4
25.765,-19.37
25.781,-19.17
25.796,-17.47
25.812,-14.16
25.828,-9.46
25.843,-3.84
25.859,2.05
25.875,7.6
25.890,12.3
25.906,15.88
25.921,18.26
25.937,19.5
25.953,19.73
25.968,19.17
25.984,18.06
26.000,16.6
26.015,15.01
26.031,13.41
26.046,11.85
26.062,10.36
26.078,8.97
26.093,7.71
26.109,6.64
26.125,5.79
26.140,5.07
26.156,4.32
26.171,3.4
26.187,2.19
26.203,0.73
26.218,-0.92
26.234,-2.65
26.250,-4.42
26.265,-6.2
26.281,-8.04
26.296,-9.95
26.312,-11.93
26.328,-13.99
26.343,-16.09
26.359,-18.11
26.375,-19.82
26.390,-20.82
26.406,-20.7
26.421,-19.12
26.437,-15.91
26.453,-11.26
26.468,-5.6
26.484,0.52
26.500,6.47
26.515,11.77
26.531,16.09
26.546,19.27
26.562,21.31
26.578,22.29
26.593,22.35
26.609,21.64
26.625,20.35
26.640,18.68
26.656,16.84
26.671,14.99
26.687,13.16
26.703,11.26
26.718,9.12
26.734,6.56
26.750,3.6
26.765,0.52
26.781,-2.32
26.796,-4.58
26.812,-6.13
26.828,-7.14
26.843,-7.97
26.859,-9.0
26.875,-10.51
26.890,-12.54
26.906,-14.98
26.921,-17.63
26.937,-20.39
26.953,-23.18
26.968,-26.01
26.984,-28.87
27.000,-31.62
27.015,-34.02
27.031,-35.7
27.046,-36.28
27.062,-35.39
27.078,-32.79
27.093,-28.38
27.109,-22.27
27.125,-14.74
27.140,-6.14
27.156,2.96
27.171,11.97
27.187,20.27
27.203,27.41
27.218,33.12
27.234,37.39
27.250,40.43
27.265,42.52
27.281,43.91
27.296,44.6
27.312,44.5
27.328,43.44
27.343,41.45
27.359,38.73
27.375,35.74
27.390,32.86
27.406,30.34
27.421,28.09
27.437,25.78
27.453,23.09
27.468,19.89
27.484,16.31
27.500,12.66
27.515,9.23
27.531,6.09
27.546,3.08
27.562,-0.02
27.578,-3.42
27.593,-7.08
27.609,-10.87
27.625,-14.62
27.640,-18.19
27.656,-21.52
27.671,-24.54
27.687,-27.12
27.703,-28.97
27.718,-29.76
27.734,-29.15
27.750,-26.98
27.765,-23.3
27.781,-18.41
27.796,-12.82
27.812,-7.16
27.828,-2.05
27.843,2.05
27.859,4.9
27.875,6.55
27.890,7.2
27.906,7.12
27.921,6.48
27.937,5.33
27.953,3.66
27.968,1.54
27.984,-0.75
28.000,-2.77
28.015,-4.09
28.031,-4.45
28.046,-3.89
28.062,-2.78
28.078,-1.64
28.093,-0.98
28.109,-1.04
28.125,-1.78
28.140,-2.94
28.156,-4.17
28.171,-5.24
28.187,-6.09
28.203,-6.84
28.218,-7.76
28.234,-9.12
28.250,-11.11
28.265,-13.74
28.281,-16.83
28.296,-19.98
28.312,-22.61
28.328,-24.19
28.343,-24.27
28.359,-22.7
28.375,-19.63
28.390,-15.4
28.406,-10.48
28.421,-5.3
28.437,-0.26
28.453,4.35
28.468,8.28
28.484,11.31
28.500,13.3
28.515,14.26
28.531,14.26
28.546,13.53
28.562,12.31
28.578,10.79
28.593,9.14
28.609,7.46
28.625,5.86
28.640,4.41
28.656,3.14
28.671,2.05
28.687,1.08
28.703,0.2
28.718,-0.63
28.734,-1.36
28.750,-1.96
28.765,-2.42
28.781,-2.79
28.796,-3.21
28.812,-3.88
28.828,-4.93
28.843,-6.4
28.859,-8.22
28.875,-10.26
28.890,-12.34
28.906,-14.23
28.921,-15.64
28.937,-16.25
28.953,-15.69
28.968,-13.69
28.984,-10.24
29.000,-5.63
29.015,-0.4
29.031,4.78
29.046,9.35
29.062,13.0
29.078,15.59
29.093,17.18
29.109,17.84
29.125,17.69
29.140,16.82
29.156,15.44
29.171,13.79
29.187,12.13
29.203,10.68
29.218,9.52
29.234,8.58
29.250,7.75
29.265,6.91
29.281,6.0
29.296,5.03
29.312,3.99
29.328,2.88
29.343,1.66
29.359,0.32
29.375,-1.13
29.390,-2.6
29.406,-4.0
29.421,-5.26
29.437,-6.46
29.453,-7.77
29.468,-9.39
29.484,-11.41
29.500,-13.7
29.515,-15.88
29.531,-17.38
29.546,-17.69
29.562,-16.5
29.578,-13.81
29.593,-9.93
29.609,-5.37
29.625,-0.68
29.640,3.73
29.656,7.56
29.671,10.68
29.687,13.04
29.703,14.63
29.718,15.46
29.734,15.58
29.750,15.07
29.765,14.04
29.781,12.67
29.796,11.08
29.812,9.48
29.828,7.99
29.843,6.73
29.859,5.71
29.875,4.85
29.890,4.02
29.906,3.08
29.921,1.93
29.937,0.58
29.953,-0.94
29.968,-2.59
29.984,-4.42
30.000,-6.54
30.015,-9.04
30.031,-11.85
30.046,-14.79
30.062,-17.64
30.078,-20.21
30.093,-22.46
30.109,-24.39
30.125,-26.0
30.140,-27.09
30.156,-27.26
30.171,-26.07
30.187,-23.19
30.203,-18.58
30.218,-12.63
30.234,-5.99
30.250,0.56
30.265,6.39
30.281,11.13
30.296,14.66
30.312,17.06
30.328,18.5
30.343,19.15
30.359,19.12
30.375,18.49
30.390,17.37
30.406,15.94
30.421,14.41
30.437,12.93
30.453,11.55
30.468,10.27
30.484,9.04
30.500,7.86
30.515,6.76
30.531,5.78
30.546,4.91
30.562,4.01
30.578,2.9
30.593,1.41
30.609,-0.48
30.625,-2.73
30.640,-5.21
30.656,-7.76
30.671,-10.24
30.687,-12.55
30.703,-14.66
30.718,-16.55
30.734,-18.26
30.750,-19.86
30.765,-21.34
30.781,-22.62
30.796,-23.4
30.812,-23.26
30.828,-21.86
30.843,-19.0
30.859,-14.78
30.875,-9.56
30.890,-3.9
30.906,1.59
30.921,6.41
30.937,10.27
30.953,13.1
30.968,14.95
30.984,16.01
31.000,16.46
31.015,16.44
31.031,16.0
31.046,15.18
31.062,14.05
31.078,12.75
31.093,11.49
31.109,10.39
31.125,9.48
31.140,8.68
31.156,7.84
31.171,6.82
31.187,5.63
31.203,4.37
31.218,3.19
31.234,2.17
31.250,1.23
31.265,0.17
31.281,-1.27
31.296,-3.18
31.312,-5.48
31.328,-7.93
31.343,-10.23
31.359,-12.22
31.375,-13.9
31.390,-15.44
31.406,-17.02
31.421,-18.68
31.437,-20.29
31.453,-21.5
31.468,-21.92
31.484,-21.2
31.500,-19.2
31.515,-15.93
31.531,-11.67
31.546,-6.78
31.562,-1.69
31.578,3.18
31.593,7.53
31.609,11.14
31.625,13.91
31.640,15.81
31.656,16.89
31.671,17.21
31.687,16.85
31.703,15.99
31.718,14.78
31.734,13.49
31.750,12.29
31.765,11.34
31.781,10.63
31.796,10.07
31.812,9.47
31.828,8.66
31.843,7.57
31.859,6.22
31.875,4.77
31.890,3.35
31.906,2.07
31.921,0.87
31.937,-0.39
31.953,-1.86
31.968,-3.57
31.984,-5.4
32.000,-7.19
32.015,-8.81
32.031,-10.32
32.046,-11.9
32.062,-13.84
32.078,-16.24
32.093,-18.96
32.109,-21.62
32.125,-23.75
32.140,-24.92
32.156,-24.9
32.171,-23.63
32.187,-21.19
32.203,-17.71
32.218,-13.34
32.234,-8.29
32.250,-2.91
32.265,2.36
32.281,7.05
32.296,10.78
32.312,13.35
32.328,14.79
32.343,15.3
32.359,15.12
32.375,14.47
32.390,13.51
32.406,12.43
32.421,11.45
32.437,10.83
32.453,10.71
32.468,11.12
32.484,11.86
32.500,12.58
32.515,12.91
32.531,12.61
32.546,11.59
32.562,9.96
32.578,7.85
32.593,5.42
32.609,2.83
32.625,0.28
32.640,-2.03
32.656,-4.01
32.671,-5.63
32.687,-7.02
32.703,-8.34
32.718,-9.74
32.734,-11.22
32.750,-12.7
32.765,-14.04
32.781,-15.16
32.796,-15.95
32.812,-16.3
32.828,-16.01
32.843,-14.82
32.859,-12.53
32.875,-9.11
32.890,-4.8
32.906,-0.06
32.921,4.67
32.937,8.96
32.953,12.53
32.968,15.2
32.984,16.85
33.000,17.43
33.015,17.04
33.031,15.9
33.046,14.33
33.062,12.72
33.078,11.32
33.093,10.22
33.109,9.36
33.125,8.61
33.140,7.9
33.156,7.2
33.171,6.56
33.187,5.96
33.203,5.35
33.218,4.57
33.234,3.46
33.250,1.96
33.265,0.12
33.281,-1.89
33.296,-3.84
33.312,-5.6
33.328,-7.13
33.343,-8.57
33.359,-10.15
33.375,-12.05
33.390,-14.31
33.406,-16.77
33.421,-19.08
33.437,-20.84
33.453,-21.71
33.468,-21.42
33.484,-19.85
33.500,-17.05
33.515,-13.18
33.531,-8.54
33.546,-3.58
33.562,1.19
33.578,5.31
33.593,8.48
33.609,10.64
33.625,11.97
33.640,12.7
33.656,12.99
33.671,12.85
33.687,12.21
33.703,10.97
33.718,9.21
33.734,7.21
33.750,5.33
33.765,3.9
33.781,3.05
33.796,2.65
33.812,2.35
33.828,1.76
33.843,0.64
33.859,-1.06
33.875,-3.17
33.890,-5.38
33.906,-7.4
33.921,-9.03
33.937,-10.23
33.953,-11.11
33.968,-11.87
33.984,-12.72
34.000,-13.82
34.015,-15.3
34.031,-17.09
34.046,-18.98
34.062,-20.64
34.078,-21.63
34.093,-21.62
34.109,-20.5
34.125,-18.41
34.140,-15.7
34.156,-12.75
34.171,-9.87
34.187,-7.1
34.203,-4.36
34.218,-1.43
34.234,1.91
34.250,5.74
34.265,9.9
34.281,14.0
34.296,17.46
34.312,19.77
34.328,20.67
34.343,20.31
34.359,19.16
34.375,17.82
34.390,16.68
34.406,15.86
34.421,15.18
34.437,14.37
34.453,13.26
34.468,11.81
34.484,10.12
34.500,8.26
34.515,6.2
34.531,3.84
34.546,1.14
34.562,-1.85
34.578,-5.0
34.593,-8.11
34.609,-11.04
34.625,-13.67
34.640,-16.02
34.656,-18.11
34.671,-20.0
34.687,-21.63
34.703,-22.81
34.718,-23.22
34.734,-22.42
34.750,-20.1
34.765,-16.18
34.781,-10.94
34.796,-4.98
34.812,1.0
34.828,6.39
34.843,10.87
34.859,14.41
34.875,17.17
34.890,19.28
34.906,20.77
34.921,21.5
34.937,21.36
34.953,20.33
34.968,18.6
34.984,16.52
35.000,14.43
35.015,12.54
35.031,10.87
35.046,9.31
35.062,7.76
35.078,6.21
35.093,4.7
35.109,3.3
35.125,2.03
35.140,0.82
35.156,-0.46
35.171,-1.89
35.187,-3.46
35.203,-5.03
35.218,-6.46
35.234,-7.68
35.250,-8.79
35.265,-10.01
35.281,-11.62
35.296,-13.86
35.312,-16.78
35.328,-20.13
35.343,-23.41
35.359,-25.96
35.375,-27.09
35.390,-26.36
35.406,-23.62
35.421,-19.01
35.437,-13.01
35.453,-6.19
35.468,0.85
35.484,7.52
35.500,13.34
35.515,17.98
35.531,21.27
35.546,23.22
35.562,23.95
35.578,23.72
35.593,22.8
35.609,21.46
35.625,19.9
35.640,18.27
35.656,16.7
35.671,15.26
35.687,13.97
35.703,12.81
35.718,11.71
35.734,10.63
35.750,9.52
35.765,8.31
35.781,6.95
35.796,5.41
35.812,3.66
35.828,1.68
35.843,-0.47
35.859,-2.73
35.875,-5.01
35.890,-7.26
35.906,-9.49
35.921,-11.72
35.937,-14.02
35.953,-16.51
35.968,-19.22
35.984,-22.07
36.000,-24.78
36.015,-26.94
36.031,-28.01
36.046,-27.59
36.062,-25.42
36.078,-21.56
36.093,-16.28
36.109,-10.05
36.125,-3.37
36.140,3.26
36.156,9.44
36.171,14.87
36.187,19.35
36.203,22.75
36.218,25.0
36.234,26.01
36.250,25.8
36.265,24.43
36.281,22.15
36.296,19.29
36.312,16.26
36.328,13.43
36.343,11.04
36.359,9.17
36.375,7.73
36.390,6.55
36.406,5.39
36.421,4.1
36.437,2.6
36.453,0.96
36.468,-0.72
36.484,-2.31
36.500,-3.76
36.515,-5.12
36.531,-6.53
36.546,-8.12
36.562,-9.94
36.578,-11.93
36.593,-13.96
36.609,-15.91
36.625,-17.77
36.640,-19.49
36.656,-21.07
36.671,-22.32
36.687,-22.93
36.703,-22.47
36.718,-20.56
36.734,-17.05
36.750,-12.05
36.765,-5.98
36.781,0.58
36.796,6.99
36.812,12.72
36.828,17.43
36.843,20.96
36.859,23.35
36.875,24.77
36.890,25.35
36.906,25.24
36.921,24.53
36.937,23.26
36.953,21.56
36.968,19.6
36.984,17.63
37.000,15.86
37.015,14.44
37.031,13.33
37.046,12.41
37.062,11.5
37.078,10.46
37.093,9.21
37.109,7.73
37.125,6.0
37.140,4.03
37.156,1.84
37.171,-0.56
37.187,-3.12
37.203,-5.69
37.218,-8.15
37.234,-10.38
37.250,-12.35
37.265,-14.13
37.281,-15.88
37.296,-17.7
37.312,-19.57
37.328,-21.22
37.343,-22.15
37.359,-21.81
37.375,-19.81
37.390,-16.09
37.406,-10.99
37.421,-5.15
37.437,0.71
37.453,5.95
37.468,10.23
37.484,13.45
37.500,15.65
37.515,16.93
37.531,17.38
37.546,17.06
37.562,16.1
37.578,14.66
37.593,12.95
37.609,11.18
37.625,9.48
37.640,7.89
37.656,6.37
37.671,4.92
37.687,3.54
37.703,2.33
37.718,1.41
37.734,0.8
37.750,0.41
37.765,0.06
37.781,-0.5
37.796,-1.45
37.812,-2.86
37.828,-4.7
37.843,-6.82
37.859,-9.0
37.875,-11.06
37.890,-12.89
37.906,-14.48
37.921,-15.91
37.937,-17.28
37.953,-18.65
37.968,-19.96
37.984,-21.0
38.000,-21.44
38.015,-20.92
38.031,-19.2
38.046,-16.16
38.062,-11.89
38.078,-6.61
38.093,-0.72
38.109,5.29
38.125,10.9
38.140,15.59
38.156,19.01
38.171,21.03
38.187,21.75
38.203,21.43
38.218,20.41
38.234,19.02
38.250,17.51
38.265,16.05
38.281,14.71
38.296,13.51
38.312,12.4
38.328,11.31
38.343,10.17
38.359,8.95
38.375,7.73
38.390,6.6
38.406,5.62
38.421,4.77
38.437,3.94
38.453,2.96
38.468,1.64
38.484,-0.07
38.500,-2.15
38.515,-4.42
38.531,-6.68
38.546,-8.76
38.562,-10.56
38.578,-12.11
38.593,-13.48
38.609,-14.86
38.625,-16.4
38.640,-18.16
38.656,-20.05
38.671,-21.79
38.687,-22.96
38.703,-23.07
38.718,-21.76
38.734,-18.84
38.750,-14.41
38.765,-8.76
38.781,-2.39
38.796,4.11
38.812,10.16
38.828,15.21
38.843,18.89
38.859,21.0
38.875,21.62
38.890,21.06
38.906,19.75
38.921,18.13
38.937,16.49
38.953,15.0
38.968,13.71
38.984,12.58
39.000,11.6
39.015,10.75
39.031,10.02
39.046,9.36
39.062,8.68
39.078,7.88
39.093,6.92
39.109,5.78
39.125,4.53
39.140,3.2
39.156,1.79
39.171,0.22
39.187,-1.57
39.203,-3.63
39.218,-5.92
39.234,-8.26
39.250,-10.44
39.265,-12.29
39.281,-13.73
39.296,-14.81
39.312,-15.73
39.328,-16.69
39.343,-17.87
39.359,-19.37
39.375,-21.09
39.390,-22.77
39.406,-24.04
39.421,-24.47
39.437,-23.74
39.453,-21.66
39.468,-18.28
39.484,-13.83
39.500,-8.7
39.515,-3.31
39.531,1.89
39.546,6.52
39.562,10.36
39.578,13.23
39.593,15.09
39.609,15.99
39.625,16.05
39.640,15.46
39.656,14.47
39.671,13.25
39.687,11.94
39.703,10.64
39.718,9.42
39.734,8.34
39.750,7.45
39.765,6.79
39.781,6.34
39.796,6.02
39.812,5.71
39.828,5.26
39.843,4.58
39.859,3.62
39.875,2.37
39.890,0.87
39.906,-0.84
39.921,-2.68
39.937,-4.49
39.953,-6.11
39.968,-7.4
39.984,-8.31
40.000,-8.94
40.015,-9.48
40.031,-10.15
40.046,-11.17
40.062,-12.59
40.078,-14.36
40.093,-16.23
40.109,-17.82
40.125,-18.67
40.140,-18.4
40.156,-16.76
40.171,-13.75
40.187,-9.57
40.203,-4.61
40.218,0.6
40.234,5.57
40.250,9.89
40.265,13.31
40.281,15.73
40.296,17.2
40.312,17.84
40.328,17.76
40.343,17.09
40.359,15.9
40.375,14.34
40.390,12.59
40.406,10.9
40.421,9.45
40.437,8.32
40.453,7.43
40.468,6.64
40.484,5.78
40.500,4.74
40.515,3.58
40.531,2.32
40.546,1.01
40.562,-0.37
40.578,-1.86
40.593,-3.53
40.609,-5.37
40.625,-7.34
40.640,-9.35
40.656,-11.28
40.671,-13.04
40.687,-14.58
40.703,-15.9
40.718,-17.04
40.734,-18.07
40.750,-19.08
40.765,-19.99
40.781,-20.61
40.796,-20.6
40.812,-19.6
40.828,-17.39
40.843,-13.97
40.859,-9.6
40.875,-4.7
40.890,0.24
40.906,4.85
40.921,8.87
40.937,12.15
40.953,14.58
40.968,16.09
40.984,16.6
41.000,16.11
41.015,14.77
41.031,12.83
41.046,10.67
41.062,8.62
41.078,6.93
41.093,5.69
41.109,4.89
41.125,4.44
41.140,4.24
41.156,4.24
41.171,4.44
41.187,4.81
41.203,5.22
41.218,5.53
41.234,5.53
41.250,5.09
41.265,4.23
41.281,3.1
41.296,1.94
41.312,0.91
41.328,0.03
41.343,-0.81
41.359,-1.82
41.375,-3.14
41.390,-4.82
41.406,-6.74
41.421,-8.72
41.437,-10.53
41.453,-11.97
41.468,-12.81
41.484,-12.88
41.500,-12.03
41.515,-10.22
41.531,-7.55
41.546,-4.19
41.562,-0.41
41.578,3.54
41.593,7.48
41.609,11.19
41.625,14.48
41.640,17.08
41.656,18.73
41.671,19.23
41.687,18.55
41.703,16.87
41.718,14.59
41.734,12.16
41.750,9.94
41.765,8.11
41.781,6.62
41.796,5.27
41.812,3.85
41.828,2.28
41.843,0.67
41.859,-0.74
41.875,-1.7
41.890,-2.14
41.906,-2.21
41.921,-2.22
41.937,-2.51
41.953,-3.27
41.968,-4.45
41.984,-5.88
42.000,-7.37
42.015,-8.85
42.031,-10.35
42.046,-11.97
42.062,-13.77
42.078,-15.79
42.093,-17.96
42.109,-20.22
42.125,-22.52
42.140,-24.78
42.156,-26.8
42.171,-28.24
42.187,-28.6
42.203,-27.47
42.218,-24.61
42.234,-20.09
42.250,-14.33
42.265,-7.93
42.281,-1.56
42.296,4.25
42.312,9.16
42.328,13.03
42.343,15.83
42.359,17.58
42.375,18.3
42.390,18.06
42.406,17.02
42.421,15.39
42.437,13.42
42.453,11.35
42.468,9.35
42.484,7.52
42.500,5.94
42.515,4.68
42.531,3.79
42.546,3.35
42.562,3.35
42.578,3.69
42.593,4.15
42.609,4.54
42.625,4.67
42.640,4.47
42.656,3.93
42.671,3.05
42.687,1.88
42.703,0.42
42.718,-1.26
42.734,-3.11
42.750,-5.03
42.765,-6.93
42.781,-8.75
42.796,-10.48
42.812,-12.21
42.828,-14.0
42.843,-15.91
42.859,-17.91
42.875,-19.83
42.890,-21.45
42.906,-22.4
42.921,-22.33
42.937,-20.96
42.953,-18.21
42.968,-14.22
42.984,-9.31
43.000,-3.91
43.015,1.56
43.031,6.72
43.046,11.26
43.062,14.96
43.078,17.64
43.093,19.22
43.109,19.71
43.125,19.21
43.140,17.96
43.156,16.25
43.171,14.36
43.187,12.47
43.203,10.72
43.218,9.13
43.234,7.71
43.250,6.45
43.265,5.36
43.281,4.47
43.296,3.82
43.312,3.36
43.328,3.02
43.343,2.66
43.359,2.12
43.375,1.3
43.390,0.14
43.406,-1.32
43.421,-2.93
43.437,-4.52
43.453,-5.91
43.468,-7.05
43.484,-7.98
43.500,-8.93
43.515,-10.11
43.531,-11.68
43.546,-13.61
43.562,-15.71
43.578,-17.6
43.593,-18.88
43.609,-19.17
43.625,-18.17
43.640,-15.74
43.656,-11.92
43.671,-6.88
43.687,-1.04
43.703,5.08
43.718,10.85
43.734,15.74
43.750,19.37
43.765,21.57
43.781,22.37
43.796,21.95
43.812,20.59
43.828,18.61
43.843,16.37
43.859,14.16
43.875,12.21
43.890,10.56
43.906,9.15
43.921,7.84
43.937,6.57
43.953,5.39
43.968,4.41
43.984,3.71
44.000,3.25
44.015,2.81
44.031,2.13
44.046,1.07
44.062,-0.42
44.078,-2.16
44.093,-3.94
44.109,-5.63
44.125,-7.19
44.140,-8.71
44.156,-10.32
44.171,-12.11
44.187,-14.07
44.203,-16.19
44.218,-18.4
44.234,-20.58
44.250,-22.55
44.265,-23.99
44.281,-24.49
44.296,-23.65
44.312,-21.2
44.328,-17.18
44.343,-11.92
44.359,-5.99
44.390,5.55
44.406,10.31
44.421,14.14
44.437,16.97
44.453,18.82
44.468,19.69
44.484,19.65
44.500,18.84
44.515,17.53
44.531,16.02
44.546,14.58
44.562,13.39
44.578,12.51
44.593,11.86
44.609,11.34
44.625,10.81
44.640,10.23
44.656,9.63
44.671,9.03
44.687,8.46
44.703,7.84
44.718,7.05
44.734,5.95
44.750,4.46
44.765,2.55
44.781,0.35
44.796,-1.98
44.812,-4.26
44.828,-6.36
44.843,-8.19
44.859,-9.71
44.875,-10.91
44.890,-11.81
44.906,-12.5
44.921,-13.14
44.937,-13.95
44.953,-15.13
44.968,-16.7
44.984,-18.52
45.000,-20.24
45.015,-21.38
45.031,-21.48
45.046,-20.23
45.062,-17.52
45.078,-13.47
45.093,-8.37
45.109,-2.64
45.125,3.19
45.140,8.62
45.156,13.24
45.171,16.79
45.187,19.19
45.203,20.59
45.218,21.21
45.234,21.31
45.250,21.0
45.265,20.34
45.281,19.34
45.296,18.07
45.312,16.68
45.328,15.34
45.343,14.18
45.359,13.23
45.375,12.36
45.390,11.46
45.406,10.43
45.421,9.29
45.437,8.12
45.453,7.02
45.468,6.02
45.484,5.08
45.500,4.09
45.515,2.96
45.531,1.64
45.546,0.11
45.562,-1.65
45.578,-3.6
45.593,-5.68
45.609,-7.77
45.625,-9.72
45.640,-11.38
45.656,-12.69
45.671,-13.72
45.687,-14.65
45.703,-15.74
45.718,-17.21
45.734,-19.09
45.750,-21.29
45.765,-23.5
45.781,-25.27
45.796,-26.09
45.812,-25.52
45.828,-23.28
45.843,-19.38
45.859,-14.11
45.875,-8.02
45.890,-1.76
45.906,4.06
45.921,9.03
45.937,12.9
45.953,15.65
45.968,17.38
45.984,18.29
46.000,18.54
46.015,18.34
46.031,17.82
46.046,17.06
46.062,16.11
46.078,14.95
46.093,13.6
46.109,12.14
46.125,10.72
46.140,9.5
46.156,8.6
46.171,8.0
46.187,7.52
46.203,6.96
46.218,6.13
46.234,4.97
46.250,3.59
46.265,2.15
46.281,0.8
46.296,-0.48
46.312,-1.78
46.328,-3.25
46.343,-4.89
46.359,-6.59
46.375,-8.13
46.390,-9.36
46.406,-10.27
46.421,-11.02
46.437,-11.84
46.453,-12.9
46.468,-14.21
46.484,-15.66
46.500,-17.08
46.515,-18.26
46.531,-19.11
46.546,-19.48
46.562,-19.22
46.578,-18.09
46.593,-15.88
46.609,-12.46
46.625,-7.95
46.640,-2.69
46.656,2.77
46.671,7.88
46.687,12.14
46.703,15.26
46.718,17.18
46.734,18.0
46.750,17.97
46.765,17.36
46.781,16.48
46.796,15.55
46.812,14.77
46.828,14.21
46.843,13.87
46.859,13.66
46.875,13.43
46.890,13.07
46.906,12.52
46.921,11.77
46.937,10.84
46.953,9.79
46.968,8.67
46.984,7.56
47.000,6.48
47.015,5.44
47.031,4.39
47.046,3.22
47.062,1.86
47.078,0.27
47.093,-1.51
47.109,-3.36
47.125,-5.15
47.140,-6.82
47.156,-8.38
47.171,-9.93
47.187,-11.57
47.203,-13.41
47.218,-15.41
47.234,-17.49
47.250,-19.41
47.265,-20.84
47.281,-21.41
47.296,-20.79
47.312,-18.82
47.328,-15.49
47.343,-11.01
47.359,-5.71
47.375,0.04
47.390,5.83
47.406,11.24
47.421,15.9
47.437,19.5
47.453,21.83
47.468,22.87
47.484,22.75
47.500,21.78
47.515,20.3
47.531,18.57
47.546,16.73
47.562,14.83
47.578,12.89
47.593,10.96
47.609,9.12
47.625,7.47
47.640,6.09
47.656,5.02
47.671,4.23
47.687,3.67
47.703,3.28
47.718,2.98
47.734,2.66
47.750,2.18
47.765,1.34
47.781,0.01
47.796,-1.88
47.812,-4.21
47.828,-6.77
47.843,-9.24
47.859,-11.42
47.875,-13.21
47.890,-14.67
47.906,-15.91
47.921,-17.13
47.937,-18.4
47.953,-19.78
47.968,-21.28
47.984,-22.89
48.000,-24.52
48.015,-25.97
48.031,-26.91
48.046,-26.93
48.062,-25.68
48.078,-23.02
48.093,-19.03
48.109,-14.06
48.125,-8.5
48.140,-2.8
48.156,2.63
48.171,7.44
48.187,11.38
48.203,14.31
48.218,16.23
48.234,17.3
48.250,17.69
48.265,17.55
48.281,16.99
48.296,16.08
48.312,14.96
48.328,13.81
48.343,12.84
48.359,12.17
48.375,11.75
48.390,11.45
48.406,11.14
48.421,10.77
48.437,10.4
48.453,10.15
48.468,10.03
48.484,9.92
48.500,9.56
48.515,8.71
48.531,7.21
48.546,5.16
48.562,2.8
48.578,0.49
48.593,-1.49
48.609,-3.05
48.625,-4.29
48.640,-5.45
48.656,-6.72
48.671,-8.19
48.687,-9.77
48.703,-11.3
48.718,-12.67
48.734,-13.88
48.750,-15.08
48.765,-16.44
48.781,-18.05
48.796,-19.91
48.812,-21.89
48.828,-23.83
48.843,-25.49
48.859,-26.65
48.875,-26.97
48.890,-26.15
48.906,-23.93
48.921,-20.21
48.937,-15.19
48.953,-9.27
48.968,-3.0
48.984,3.06
49.000,8.48
49.015,13.03
49.031,16.55
49.046,18.98
49.062,20.36
49.078,20.79
49.093,20.46
49.109,19.64
49.125,18.59
49.140,17.52
49.156,16.57
49.171,15.77
49.187,15.1
49.203,14.54
49.218,14.06
49.234,13.63
49.250,13.19
49.265,12.66
49.281,11.93
49.296,10.99
49.312,9.85
49.328,8.52
49.343,7.04
49.359,5.42
49.375,3.66
49.390,1.79
49.406,-0.15
49.421,-2.08
49.437,-3.96
49.453,-5.75
49.468,-7.46
49.484,-9.06
49.500,-10.51
49.515,-11.74
49.531,-12.7
49.546,-13.44
49.562,-14.1
49.578,-14.87
49.593,-15.96
49.609,-17.45
49.625,-19.34
49.640,-21.48
49.656,-23.6
49.671,-25.38
49.687,-26.48
49.703,-26.55
49.718,-25.27
49.734,-22.49
49.750,-18.26
49.765,-12.88
49.781,-6.95
49.796,-1.09
49.812,4.1
49.828,8.3
49.843,11.47
49.859,13.79
49.875,15.48
49.890,16.63
49.906,17.23
49.921,17.18
49.937,16.52
49.953,15.37
49.968,14.03
49.984,12.82
50.000,11.99
50.015,11.62
50.031,11.64
50.046,11.9
50.062,12.21
50.078,12.39
50.093,12.29
50.109,11.84
50.125,11.02
50.140,9.88
50.156,8.53
50.171,7.02
50.187,5.38
50.203,3.6
50.218,1.71
50.234,-0.22
50.250,-2.05
50.265,-3.67
50.281,-5.06
50.296,-6.25
50.312,-7.36
50.328,-8.48
50.343,-9.68
50.359,-10.99
50.375,-12.43
50.390,-14.07
50.406,-15.88
50.421,-17.74
50.437,-19.3
50.453,-20.11
50.468,-19.67
50.484,-17.74
50.500,-14.3
50.515,-9.66
50.531,-4.32
50.546,1.21
50.562,6.44
50.578,10.99
50.593,14.59
50.609,17.06
50.625,18.34
50.640,18.5
50.656,17.75
50.671,16.38
50.687,14.68
50.703,12.92
50.718,11.29
50.734,9.92
50.750,8.91
50.765,8.3
50.781,8.02
50.796,7.95
50.812,7.93
50.828,7.8
50.843,7.44
50.859,6.86
50.875,6.11
50.890,5.25
50.906,4.29
50.921,3.15
50.937,1.73
50.953,-0.06
50.968,-2.18
50.984,-4.47
51.000,-6.7
51.015,-8.67
51.031,-10.31
51.046,-11.67
51.062,-12.9
51.078,-14.13
51.093,-15.48
51.109,-16.97
51.125,-18.6
51.140,-20.26
51.156,-21.83
51.171,-23.04
51.187,-23.56
51.203,-22.98
51.218,-21.04
51.234,-17.62
51.250,-12.91
51.265,-7.3
51.281,-1.32
51.296,4.5
51.312,9.71
51.328,14.0
51.343,17.25
51.359,19.39
51.375,20.48
51.390,20.6
51.406,19.87
51.421,18.48
51.437,16.67
51.453,14.75
51.468,13.04
51.484,11.77
51.500,11.04
51.515,10.8
51.531,10.87
51.546,11.05
51.562,11.18
51.578,11.16
51.593,10.94
51.609,10.46
51.625,9.67
51.640,8.56
51.656,7.18
51.671,5.63
51.687,4.01
51.703,2.36
51.718,0.66
51.734,-1.17
51.750,-3.2
51.765,-5.39
51.781,-7.58
51.796,-9.55
51.812,-11.12
51.828,-12.29
51.843,-13.26
51.859,-14.34
51.875,-15.82
51.890,-17.84
51.906,-20.31
51.921,-22.88
51.937,-25.1
51.953,-26.47
51.968,-26.59
51.984,-25.23
52.000,-22.34
52.015,-18.03
52.031,-12.64
52.046,-6.59
52.062,-0.39
52.078,5.48
52.093,10.67
52.109,14.95
52.125,18.17
52.140,20.29
52.156,21.33
52.171,21.36
52.187,20.53
52.203,19.07
52.218,17.26
52.234,15.42
52.250,13.77
52.265,12.38
52.281,11.2
52.296,10.16
52.312,9.16
52.328,8.22
52.343,7.38
52.359,6.68
52.375,6.12
52.390,5.67
52.406,5.23
52.421,4.7
52.437,4.02
52.453,3.11
52.468,1.86
52.484,0.22
52.500,-1.83
52.515,-4.18
52.531,-6.58
52.546,-8.78
52.562,-10.61
52.578,-12.06
52.593,-13.33
52.609,-14.66
52.625,-16.26
52.640,-18.19
52.656,-20.4
52.671,-22.74
52.687,-25.09
52.703,-27.33
52.718,-29.25
52.734,-30.57
52.750,-30.8
52.765,-29.5
52.781,-26.33
52.796,-21.33
52.812,-14.88
52.828,-7.66
52.843,-0.41
52.859,6.27
52.875,11.98
52.890,16.52
52.906,19.9
52.921,22.17
52.937,23.44
52.953,23.8
52.968,23.4
52.984,22.41
53.000,21.04
53.015,19.52
53.031,18.07
53.046,16.88
53.062,16.04
53.078,15.5
53.093,15.09
53.109,14.57
53.125,13.75
53.140,12.61
53.156,11.23
53.171,9.78
53.187,8.36
53.203,6.94
53.218,5.43
53.234,3.73
53.250,1.84
53.265,-0.13
53.281,-2.04
53.296,-3.81
53.312,-5.44
53.328,-7.02
53.343,-8.65
53.359,-10.33
53.375,-12.02
53.390,-13.66
53.406,-15.3
53.421,-17.05
53.437,-19.06
53.453,-21.25
53.468,-23.35
53.484,-24.79
53.500,-24.91
53.515,-23.2
53.531,-19.44
53.546,-13.88
53.562,-7.12
53.578,0.01
53.593,6.74
53.609,12.48
53.625,16.96
53.640,20.16
53.656,22.21
53.671,23.27
53.687,23.44
53.703,22.8
53.718,21.43
53.734,19.58
53.750,17.51
53.765,15.51
53.781,13.78
53.796,12.38
53.812,11.18
53.828,10.1
53.843,9.04
53.859,8.05
53.875,7.16
53.890,6.39
53.906,5.69
53.921,4.94
53.937,4.0
53.953,2.8
53.968,1.33
53.984,-0.37
54.000,-2.2
54.015,-4.1
54.031,-5.97
54.046,-7.8
54.062,-9.6
54.078,-11.46
54.093,-13.43
54.109,-15.54
54.125,-17.8
54.140,-20.12
54.156,-22.42
54.171,-24.51
54.187,-26.13
54.203,-26.87
54.218,-26.29
54.234,-24.02
54.250,-19.91
54.265,-14.22
54.281,-7.56
54.296,-0.72
54.312,5.61
54.328,10.97
54.343,15.24
54.359,18.52
54.375,20.93
54.390,22.53
54.406,23.31
54.421,23.2
54.437,22.19
54.453,20.45
54.468,18.26
54.484,15.95
54.500,13.86
54.515,12.16
54.531,10.89
54.546,9.99
54.562,9.31
54.578,8.68
54.593,7.96
54.609,7.06
54.625,5.91
54.640,4.49
54.656,2.82
54.671,0.98
54.687,-0.92
54.703,-2.77
54.718,-4.48
54.734,-6.08
54.750,-7.6
54.765,-9.09
54.781,-10.57
54.796,-12.02
54.812,-13.45
54.828,-14.87
54.843,-16.36
54.859,-18.01
54.875,-19.88
54.890,-21.93
54.906,-24.03
54.921,-25.94
54.937,-27.31
54.953,-27.76
54.968,-26.93
54.984,-24.58
55.000,-20.62
55.015,-15.2
55.031,-8.69
55.046,-1.64
55.062,5.35
55.078,11.7
55.093,16.95
55.109,20.89
55.125,23.49
55.140,24.92
55.156,25.43
55.171,25.28
55.187,24.6
55.203,23.51
55.218,22.05
55.234,20.31
55.250,18.44
55.265,16.66
55.281,15.14
55.296,14.01
55.312,13.27
55.328,12.82
55.343,12.5
55.359,12.15
55.375,11.66
55.390,10.96
55.406,10.0
55.421,8.8
55.437,7.38
55.453,5.81
55.468,4.16
55.484,2.44
55.500,0.6
55.515,-1.44
55.531,-3.7
55.546,-6.15
55.562,-8.62
55.578,-10.9
55.593,-12.79
55.609,-14.21
55.625,-15.24
55.640,-16.08
55.656,-16.97
55.671,-18.14
55.687,-19.7
55.703,-21.63
55.718,-23.71
55.734,-25.54
55.750,-26.58
55.765,-26.28
55.781,-24.29
55.796,-20.5
55.812,-15.18
55.828,-8.85
55.843,-2.2
55.859,4.1
55.875,9.52
55.890,13.76
55.906,16.8
55.921,18.76
55.937,19.88
55.953,20.34
55.968,20.27
55.984,19.73
56.000,18.77
56.015,17.46
56.031,15.95
56.046,14.44
56.062,13.11
56.078,12.09
56.093,11.44
56.109,11.15
56.125,11.11
56.140,11.14
56.156,11.04
56.171,10.61
56.187,9.71
56.203,8.29
56.218,6.51
56.234,4.55
56.250,2.62
56.265,0.83
56.281,-0.84
56.296,-2.49
56.312,-4.23
56.328,-6.12
56.343,-8.17
56.359,-10.24
56.375,-12.18
56.390,-13.84
56.406,-15.08
56.421,-15.89
56.437,-16.37
56.453,-16.74
56.468,-17.31
56.484,-18.36
56.500,-19.95
56.515,-21.94
56.531,-23.88
56.546,-25.16
56.562,-25.16
56.578,-23.51
56.593,-20.08
56.609,-15.11
56.625,-9.12
56.640,-2.71
56.656,3.51
56.671,9.05
56.687,13.56
56.703,16.93
56.718,19.15
56.734,20.39
56.750,20.86
56.765,20.75
56.781,20.21
56.796,19.3
56.812,18.05
56.828,16.51
56.843,14.8
56.859,13.13
56.875,11.7
56.890,10.69
56.906,10.09
56.921,9.81
56.937,9.61
56.953,9.29
56.968,8.7
56.984,7.83
57.000,6.75
57.015,5.54
57.031,4.31
57.046,3.09
57.062,1.88
57.078,0.63
57.093,-0.7
57.109,-2.15
57.125,-3.74
57.140,-5.4
57.156,-7.07
57.171,-8.67
57.187,-10.17
57.203,-11.6
57.218,-13.08
57.234,-14.71
57.250,-16.57
57.265,-18.58
57.281,-20.56
57.296,-22.19
57.312,-23.11
57.328,-22.99
57.343,-21.56
57.359,-18.72
57.375,-14.52
57.390,-9.27
57.406,-3.39
57.421,2.57
57.437,8.1
57.453,12.8
57.468,16.39
57.484,18.8
57.500,20.08
57.515,20.33
57.531,19.78
57.546,18.68
57.562,17.31
57.578,15.89
57.593,14.58
57.609,13.45
57.625,12.48
57.640,11.67
57.656,11.0
57.671,10.44
57.687,9.97
57.703,9.5
57.718,8.92
57.734,8.13
57.750,7.09
57.765,5.75
57.781,4.14
57.796,2.26
57.812,0.16
57.828,-2.08
57.843,-4.37
57.859,-6.57
57.875,-8.54
57.890,-10.21
57.906,-11.6
57.921,-12.8
57.937,-13.98
57.953,-15.32
57.968,-16.97
57.984,-19.02
58.000,-21.37
58.015,-23.78
58.031,-25.93
58.046,-27.46
58.062,-28.05
58.078,-27.47
58.093,-25.58
58.109,-22.36
58.125,-17.88
58.140,-12.36
58.156,-6.2
58.171,0.07
58.187,5.87
58.203,10.76
58.218,14.48
58.234,16.97
58.250,18.37
58.265,18.87
58.281,18.63
58.296,17.85
58.312,16.67
58.328,15.29
58.343,13.9
58.359,12.65
58.375,11.59
58.390,10.75
58.406,10.13
58.421,9.68
58.437,9.43
58.453,9.31
58.468,9.26
58.484,9.12
58.500,8.67
58.515,7.74
58.531,6.3
58.546,4.42
58.562,2.34
58.578,0.3
58.593,-1.55
58.609,-3.18
58.625,-4.68
58.640,-6.2
58.656,-7.83
58.671,-9.55
58.687,-11.23
58.703,-12.72
58.718,-13.95
58.734,-14.95
58.750,-15.84
58.765,-16.77
58.781,-17.85
58.796,-19.18
58.812,-20.74
58.828,-22.38
58.843,-23.87
58.859,-24.84
58.875,-24.89
58.890,-23.67
58.906,-21.0
58.921,-16.94
58.937,-11.82
58.953,-6.14
58.968,-0.46
58.984,4.77
59.000,9.32
59.015,13.09
59.031,16.11
59.046,18.41
59.062,20.01
59.078,20.87
59.093,21.02
59.109,20.59
59.125,19.76
59.140,18.77
59.156,17.8
59.171,16.9
59.187,16.04
59.203,15.21
59.218,14.4
59.234,13.7
59.250,13.14
59.265,12.68
59.281,12.2
59.296,11.52
59.312,10.5
59.328,9.13
59.343,7.52
59.359,5.84
59.375,4.22
59.390,2.69
59.406,1.17
59.421,-0.49
59.437,-2.34
59.453,-4.4
59.468,-6.57
59.484,-8.74
59.500,-10.74
59.515,-12.44
59.531,-13.77
59.546,-14.71
59.562,-15.36
59.578,-15.93
59.593,-16.71
59.609,-17.97
59.625,-19.78
59.640,-22.01
59.656,-24.24
59.671,-25.9
59.687,-26.46
59.703,-25.56
59.718,-23.07
59.734,-19.14
59.750,-14.11
59.765,-8.39
59.781,-2.51
59.796,3.04
59.812,7.83
59.828,11.57
59.843,14.19
59.859,15.85
59.875,16.79
59.890,17.26
59.906,17.37
59.921,17.14
59.937,16.49
59.953,15.46
59.968,14.17
59.984,12.81
