timestamp,value
00.000,57.19
00.015,59.55
00.031,62.02
00.046,65.16
00.062,69.31
00.078,74.31
00.093,79.47
00.109,83.88
00.125,86.7
00.140,87.61
00.156,86.88
00.171,85.27
00.187,83.62
00.203,82.55
00.218,82.28
00.234,82.63
00.250,83.32
00.265,84.13
00.281,85.07
00.296,86.34
00.312,88.03
00.328,90.01
00.343,91.7
00.359,92.17
00.375,90.5
00.390,86.01
00.406,78.31
00.421,67.16
00.437,52.25
00.453,33.39
00.468,10.95
00.484,-13.78
00.500,-38.75
00.515,-62.02
00.531,-82.97
00.546,-103.01
00.562,-125.13
00.578,-152.29
00.593,-185.37
00.609,-222.0
00.625,-256.92
00.640,-283.94
00.656,-298.27
00.671,-298.13
00.687,-284.76
00.703,-261.3
00.718,-231.09
00.734,-196.83
00.750,-160.41
00.765,-123.54
00.781,-88.12
00.796,-56.29
00.812,-29.89
00.828,-9.7
00.843,4.87
00.859,15.59
00.875,24.73
00.890,34.1
00.906,44.5
00.921,55.52
00.937,65.93
00.953,74.3
00.968,79.76
00.984,82.23
01.000,82.49
01.015,81.73
01.031,80.97
01.046,80.64
01.062,80.41
01.078,79.35
01.093,76.4
01.109,70.91
01.125,62.81
01.140,52.65
01.156,41.28
01.171,29.51
01.187,17.86
01.203,6.46
01.218,-4.83
01.234,-16.38
01.250,-28.67
01.265,-42.13
01.281,-56.91
01.296,-72.61
01.312,-88.14
01.328,-101.74
01.343,-111.41
01.359,-115.35
01.375,-112.62
01.390,-103.31
01.406,-88.6
01.421,-70.32
01.437,-50.59
01.453,-31.4
01.468,-14.25
01.484,-0.17
01.500,10.34
01.515,17.24
01.531,20.88
01.546,21.82
01.562,20.8
01.578,18.61
01.593,15.99
01.609,13.58
01.625,11.83
01.640,10.96
01.656,11.0
01.671,11.73
01.687,12.79
01.703,13.73
01.718,14.21
01.734,14.0
01.750,13.13
01.765,11.79
01.781,10.27
01.796,8.8
01.812,7.42
01.828,6.03
01.843,4.48
01.859,2.68
01.875,0.72
01.890,-1.2
01.906,-2.89
01.921,-4.22
01.937,-5.28
01.953,-6.29
01.968,-7.61
01.984,-9.61
02.000,-12.61
02.015,-16.83
02.031,-22.29
02.046,-28.67
02.062,-35.23
02.078,-40.82
02.093,-44.0
02.109,-43.38
02.125,-37.99
02.140,-27.62
02.156,-13.0
02.171,4.35
02.187,22.35
02.203,38.85
02.218,52.1
02.234,61.0
02.250,65.25
02.265,65.29
02.281,62.05
02.296,56.68
02.312,50.37
02.328,44.22
02.343,39.19
02.359,36.18
02.375,35.84
02.390,38.47
02.406,43.78
02.421,50.86
02.437,58.34
02.453,64.78
02.468,69.16
02.484,71.19
02.500,71.33
02.515,70.45
02.531,69.28
02.546,68.08
02.562,66.46
02.578,63.83
02.593,59.84
02.609,54.8
02.625,49.61
02.640,45.32
02.656,42.47
02.671,40.8
02.687,39.43
02.703,37.26
02.718,33.27
02.734,26.42
02.750,15.37
02.765,-1.49
02.781,-25.4
02.796,-56.18
02.812,-91.32
02.828,-126.06
02.843,-154.59
02.859,-171.98
02.875,-175.84
02.890,-166.93
02.906,-148.32
02.921,-124.11
02.937,-97.88
02.953,-72.12
02.968,-48.28
02.984,-27.36
03.000,-10.16
03.015,2.66
03.031,10.81
03.046,14.67
03.062,15.3
03.078,14.22
03.093,13.04
03.109,12.99
03.125,14.62
03.140,17.79
03.156,21.86
03.171,26.08
03.187,29.92
03.203,33.25
03.218,36.27
03.234,39.26
03.250,42.25
03.265,44.96
03.281,46.82
03.296,47.29
03.312,46.1
03.328,43.52
03.343,40.28
03.359,37.44
03.375,35.92
03.390,36.27
03.406,38.46
03.421,41.89
03.437,45.63
03.453,48.73
03.468,50.53
03.484,50.88
03.500,50.23
03.515,49.54
03.531,50.03
03.546,52.85
03.562,58.73
03.578,67.7
03.593,79.13
03.609,91.85
03.625,104.53
03.640,115.96
03.656,125.35
03.671,132.38
03.687,137.26
03.703,140.6
03.718,143.01
03.734,144.75
03.750,145.32
03.765,143.32
03.781,136.73
03.796,123.58
03.812,102.71
03.828,74.4
03.843,40.55
03.859,4.31
03.875,-30.62
03.890,-60.9
03.906,-84.14
03.921,-99.31
03.937,-106.6
03.953,-107.16
03.968,-102.66
03.984,-94.98
04.000,-85.76
04.015,-76.14
04.031,-66.54
04.046,-56.71
04.062,-46.27
04.078,-35.47
04.093,-25.61
04.109,-19.12
04.125,-18.74
04.140,-26.36
04.156,-41.98
04.171,-63.44
04.187,-87.01
04.203,-108.58
04.218,-124.76
04.234,-133.52
04.250,-134.1
04.265,-126.68
04.281,-111.98
04.296,-91.2
04.312,-66.13
04.328,-39.07
04.343,-12.52
04.359,11.27
04.375,30.69
04.390,44.89
04.406,53.69
04.421,57.31
04.437,56.14
04.453,50.75
04.468,41.86
04.484,30.47
04.500,17.87
04.515,5.43
04.531,-5.54
04.546,-13.93
04.562,-18.97
04.578,-20.31
04.593,-17.94
04.609,-12.25
04.625,-3.96
04.640,5.93
04.656,16.23
04.671,25.76
04.687,33.49
04.703,38.78
04.718,41.51
04.734,42.18
04.750,41.77
04.765,41.4
04.781,41.96
04.796,43.7
04.812,46.2
04.828,48.57
04.843,50.01
04.859,50.18
04.875,49.43
04.890,48.58
04.906,48.51
04.921,49.78
04.937,52.42
04.953,55.91
04.968,59.17
04.984,60.81
05.000,59.31
05.015,53.39
05.031,42.5
05.046,27.32
05.062,9.71
05.078,-7.67
05.093,-22.29
05.109,-32.39
05.125,-37.31
05.140,-37.38
05.156,-33.61
05.171,-27.59
05.187,-21.55
05.203,-18.36
05.218,-20.99
05.234,-31.52
05.250,-49.97
05.265,-73.82
05.281,-98.61
05.296,-119.49
05.312,-132.95
05.328,-137.94
05.343,-135.62
05.359,-128.37
05.375,-118.39
05.390,-107.04
05.406,-94.86
05.421,-82.22
05.437,-69.8
05.453,-58.62
05.468,-49.62
05.484,-43.05
05.500,-38.22
05.515,-33.82
05.531,-28.63
05.546,-22.15
05.562,-14.98
05.578,-8.44
05.593,-3.87
05.609,-1.92
05.625,-2.06
05.640,-2.79
05.656,-2.11
05.671,1.71
05.687,9.59
05.703,21.45
05.718,36.23
05.734,52.32
05.750,67.9
05.765,81.33
05.781,91.52
05.796,97.98
05.812,100.89
05.828,100.79
05.843,98.39
05.859,94.32
05.875,89.08
05.890,83.06
05.906,76.74
05.921,70.75
05.937,65.76
05.953,62.28
05.968,60.45
05.984,60.02
06.000,60.32
06.015,60.47
06.031,59.49
06.046,56.43
06.062,50.57
06.078,41.74
06.093,30.54
06.109,18.16
06.125,5.83
06.140,-6.16
06.156,-18.97
06.171,-35.0
06.187,-56.65
06.203,-84.67
06.218,-117.04
06.234,-149.16
06.250,-175.44
06.265,-191.41
06.281,-195.31
06.296,-188.33
06.312,-173.47
06.328,-153.98
06.343,-132.29
06.359,-109.8
06.375,-87.47
06.390,-66.5
06.406,-48.36
06.421,-34.24
06.437,-24.47
06.453,-18.11
06.468,-13.35
06.484,-8.28
06.500,-1.6
06.515,6.99
06.531,16.76
06.546,26.26
06.562,33.72
06.578,37.58
06.593,37.18
06.609,33.23
06.625,27.78
06.640,23.37
06.656,21.63
06.671,22.01
06.687,21.67
06.703,16.58
06.718,3.58
06.734,-17.75
06.750,-44.64
06.765,-72.1
06.781,-95.11
06.796,-110.42
06.812,-117.24
06.828,-116.6
06.843,-110.09
06.859,-98.86
06.875,-83.61
06.890,-65.07
06.906,-44.61
06.921,-24.28
06.937,-6.21
06.953,8.17
06.968,18.62
06.984,26.04
07.000,31.71
07.015,36.56
07.031,40.73
07.046,43.58
07.062,44.17
07.078,41.78
07.093,36.32
07.109,28.61
07.125,20.3
07.140,13.64
07.156,10.76
07.171,12.57
07.187,17.78
07.203,22.79
07.218,22.64
07.234,12.97
07.250,-7.87
07.265,-37.74
07.281,-71.3
07.296,-102.06
07.312,-124.84
07.328,-137.46
07.343,-140.84
07.359,-137.87
07.375,-131.72
07.390,-124.65
07.406,-117.65
07.421,-110.87
07.437,-104.13
07.453,-97.23
07.468,-89.99
07.484,-82.17
07.500,-73.37
07.515,-63.2
07.531,-51.57
07.546,-38.76
07.562,-25.52
07.578,-12.88
07.593,-1.87
07.609,6.72
07.625,12.58
07.640,15.87
07.656,17.11
07.671,17.04
07.687,16.36
07.703,15.63
07.718,15.24
07.734,15.3
07.750,15.77
07.765,16.41
07.781,16.88
07.796,16.89
07.812,16.28
07.828,15.11
07.843,13.55
07.859,11.83
07.875,9.99
07.890,7.91
07.906,5.29
07.921,1.82
07.937,-2.66
07.953,-8.1
07.968,-14.3
07.984,-21.09
08.000,-28.4
08.015,-36.28
08.031,-44.66
08.046,-53.17
08.062,-60.95
08.078,-66.73
08.093,-69.17
08.109,-67.33
08.125,-61.02
08.140,-50.91
08.156,-38.35
08.171,-24.83
08.187,-11.64
08.203,0.41
08.218,10.96
08.234,20.01
08.250,27.61
08.265,33.79
08.281,38.56
08.296,41.97
08.312,44.17
08.328,45.37
08.343,45.78
08.359,45.55
08.375,44.76
08.390,43.45
08.406,41.69
08.421,39.59
08.437,37.3
08.453,34.96
08.468,32.66
08.484,30.44
08.500,28.2
08.515,25.81
08.531,23.03
08.546,19.65
08.562,15.5
08.578,10.59
08.593,5.17
08.609,-0.4
08.625,-5.74
08.640,-10.74
08.656,-15.6
08.671,-20.88
08.687,-27.15
08.703,-34.71
08.718,-43.25
08.734,-51.78
08.750,-58.91
08.765,-63.17
08.781,-63.49
08.796,-59.53
08.812,-51.72
08.828,-41.02
08.843,-28.69
08.859,-15.92
08.875,-3.66
08.890,7.37
08.906,16.64
08.921,23.72
08.937,28.36
08.953,30.51
08.968,30.38
08.984,28.49
09.000,25.53
09.015,22.16
09.031,18.89
09.046,16.0
09.062,13.58
09.078,11.61
09.093,10.14
09.109,9.29
09.125,9.2
09.140,9.97
09.156,11.55
09.171,13.75
09.187,16.27
09.203,18.78
09.218,20.95
09.234,22.47
09.250,23.06
09.265,22.55
09.281,20.87
09.296,18.15
09.312,14.67
09.328,10.81
09.343,6.87
09.359,3.03
09.375,-0.74
09.390,-4.64
09.406,-8.96
09.421,-13.98
09.437,-19.93
09.453,-26.77
09.468,-34.26
09.484,-41.83
09.500,-48.65
09.515,-53.71
09.531,-56.04
09.546,-54.94
09.562,-50.08
09.578,-41.65
09.593,-30.28
09.609,-16.93
09.625,-2.65
09.640,11.54
09.656,24.86
09.671,36.79
09.687,47.03
09.703,55.44
09.718,61.93
09.734,66.48
09.750,69.22
09.765,70.44
09.781,70.61
09.796,70.21
09.812,69.62
09.828,69.05
09.843,68.58
09.859,68.15
09.875,67.74
09.890,67.32
09.906,66.88
09.921,66.39
09.937,65.8
09.953,65.02
09.968,63.98
09.984,62.66
10.000,60.99
10.015,58.91
10.031,56.35
10.046,53.29
10.062,49.8
10.078,45.95
10.093,41.84
10.109,37.5
10.125,32.92
10.140,28.1
10.156,23.13
10.171,18.17
10.187,13.38
10.203,8.85
10.218,4.49
10.234,0.06
10.250,-4.78
10.265,-10.39
10.281,-17.0
10.296,-24.65
10.312,-33.0
10.328,-41.29
10.343,-48.33
10.359,-52.77
10.375,-53.37
10.390,-49.49
10.406,-41.3
10.421,-29.74
10.437,-16.14
10.453,-1.85
10.468,12.18
10.484,25.46
10.500,37.91
10.515,49.52
10.531,60.2
10.546,69.65
10.562,77.51
10.578,83.46
10.593,87.45
10.609,89.7
10.625,90.68
10.640,90.94
10.656,90.88
10.671,90.63
10.687,90.07
10.703,89.05
10.718,87.58
10.734,85.95
10.750,84.6
10.765,83.94
10.781,84.03
10.796,84.55
10.812,84.92
10.828,84.57
10.843,83.21
10.859,80.85
10.875,77.7
10.890,73.85
10.906,69.17
10.921,63.32
10.937,56.0
10.953,47.21
10.968,37.31
10.984,26.92
11.000,16.64
11.015,6.79
11.031,-2.59
11.046,-11.65
11.062,-20.53
11.078,-29.19
11.093,-37.52
11.109,-45.47
11.125,-53.19
11.140,-61.11
11.156,-69.66
11.171,-79.09
11.187,-89.14
11.203,-99.13
11.218,-107.98
11.234,-114.58
11.250,-118.08
11.265,-118.07
11.281,-114.61
11.296,-108.19
11.312,-99.42
11.328,-88.84
11.343,-76.85
11.359,-63.65
11.375,-49.45
11.390,-34.63
11.406,-19.8
11.421,-5.7
11.437,6.94
11.453,17.62
11.468,26.21
11.484,32.83
11.500,37.75
11.515,41.27
11.531,43.59
11.546,44.86
11.562,45.21
11.578,44.83
11.593,43.97
11.609,42.93
11.625,41.95
11.640,41.1
11.656,40.32
11.671,39.45
11.687,38.4
11.703,37.21
11.718,36.06
11.734,35.14
11.750,34.58
11.765,34.28
11.781,34.03
11.796,33.57
11.812,32.74
11.828,31.6
11.843,30.28
11.859,28.91
11.875,27.54
11.890,26.06
11.906,24.36
11.921,22.43
11.937,20.34
11.953,18.22
11.968,16.1
11.984,13.81
12.000,10.98
12.015,7.17
12.031,2.04
12.046,-4.48
12.062,-12.13
12.078,-20.33
12.093,-28.3
12.109,-35.21
12.125,-40.28
12.140,-42.89
12.156,-42.74
12.171,-39.86
12.187,-34.65
12.203,-27.79
12.218,-20.16
12.234,-12.61
12.250,-5.86
12.265,-0.51
12.281,3.11
12.296,4.85
12.312,4.76
12.328,3.16
12.343,0.55
12.359,-2.42
12.375,-5.11
12.390,-7.08
12.406,-8.06
12.421,-7.94
12.437,-6.66
12.453,-4.21
12.468,-0.6
12.484,3.96
12.500,9.04
12.515,13.98
12.531,18.13
12.546,21.01
12.562,22.5
12.578,22.85
12.593,22.52
12.609,21.93
12.625,21.27
12.640,20.52
12.656,19.48
12.671,17.98
12.687,16.07
12.703,13.95
12.718,11.98
12.734,10.4
12.750,9.27
12.765,8.36
12.781,7.28
12.796,5.62
12.812,3.11
12.828,-0.17
12.843,-3.92
12.859,-7.65
12.875,-10.93
12.890,-13.55
12.906,-15.56
12.921,-17.23
12.937,-18.94
12.953,-21.0
12.968,-23.62
12.984,-26.93
13.000,-30.96
13.015,-35.59
13.031,-40.44
13.046,-44.78
13.062,-47.56
13.078,-47.75
13.093,-44.68
13.109,-38.35
13.125,-29.6
13.140,-19.76
13.156,-10.22
13.171,-1.93
13.187,4.8
13.203,10.23
13.218,14.76
13.234,18.64
13.250,21.67
13.265,23.4
13.281,23.43
13.296,21.72
13.312,18.73
13.328,15.24
13.343,12.02
13.359,9.57
13.375,8.01
13.390,7.29
13.406,7.36
13.421,8.38
13.437,10.58
13.453,14.12
13.468,18.8
13.484,24.0
13.500,28.94
13.515,32.97
13.531,35.85
13.546,37.8
13.562,39.33
13.578,40.87
13.593,42.54
13.609,44.17
13.625,45.39
13.640,45.91
13.656,45.78
13.671,45.4
13.687,45.33
13.703,46.15
13.718,48.11
13.734,51.14
13.750,54.87
13.765,58.82
13.781,62.68
13.796,66.42
13.812,70.34
13.828,74.89
13.843,80.41
13.859,86.96
13.875,94.09
13.890,101.0
13.906,106.85
13.921,111.11
13.937,113.83
13.953,115.7
13.968,117.64
13.984,120.17
14.000,122.97
14.015,124.7
14.031,123.36
14.046,117.06
14.062,104.83
14.078,86.92
14.093,64.94
14.109,41.44
14.125,19.5
14.140,2.07
14.156,-8.73
14.171,-12.56
14.187,-11.4
14.203,-9.54
14.218,-12.59
14.234,-25.72
14.250,-51.75
14.265,-89.91
14.281,-135.84
14.296,-182.98
14.312,-224.53
14.328,-255.37
14.343,-273.02
14.359,-277.55
14.375,-270.85
14.390,-255.65
14.406,-234.78
14.421,-210.84
14.437,-186.02
14.453,-162.05
14.468,-140.2
14.484,-121.18
14.500,-105.14
14.515,-91.67
14.531,-80.16
14.546,-69.96
14.562,-60.71
14.578,-52.29
14.593,-44.8
14.609,-38.36
14.625,-33.08
14.640,-29.05
14.656,-26.42
14.671,-25.49
14.687,-26.57
14.703,-29.85
14.718,-35.22
14.734,-42.19
14.750,-49.98
14.765,-57.67
14.781,-64.43
14.796,-69.68
14.812,-73.3
14.828,-75.52
14.843,-76.88
14.859,-77.99
14.875,-79.25
14.890,-80.64
14.906,-81.65
14.921,-81.44
14.937,-79.14
14.953,-74.18
14.968,-66.6
14.984,-56.92
15.000,-46.08
15.015,-35.0
15.031,-24.4
15.046,-14.63
15.062,-5.7
15.078,2.52
15.093,10.24
15.109,17.58
15.125,24.53
15.140,30.92
15.156,36.59
15.171,41.37
15.187,45.23
15.203,48.23
15.218,50.49
15.234,52.14
15.250,53.36
15.265,54.31
15.281,55.17
15.296,56.17
15.312,57.4
15.328,58.81
15.343,60.09
15.359,60.78
15.375,60.46
15.390,58.93
15.406,56.29
15.421,52.84
15.437,49.02
15.453,45.09
15.468,41.11
15.484,36.94
15.500,32.38
15.515,27.34
15.531,21.99
15.546,16.68
15.562,11.86
15.578,7.87
15.593,4.83
15.609,2.62
15.625,0.97
15.640,-0.41
15.656,-1.68
15.671,-2.86
15.687,-3.89
15.703,-4.55
15.718,-4.55
15.734,-3.58
15.750,-1.47
15.765,1.42
15.781,3.98
15.796,4.46
15.812,1.02
15.828,-7.38
15.843,-20.24
15.859,-35.36
15.875,-49.43
15.890,-59.17
15.906,-62.25
15.921,-57.88
15.937,-46.63
15.953,-29.9
15.968,-9.48
15.984,12.68
16.000,34.5
16.015,53.81
16.031,68.86
16.046,78.82
16.062,84.12
16.078,86.23
16.093,87.03
16.109,87.93
16.125,89.45
16.140,91.3
16.156,92.89
16.171,93.85
16.187,94.26
16.203,94.56
16.218,95.33
16.234,97.12
16.250,100.24
16.265,104.46
16.281,108.67
16.296,110.61
16.312,107.11
16.328,95.05
16.343,72.61
16.359,40.54
16.375,2.36
16.390,-36.57
16.406,-70.82
16.421,-96.61
16.437,-112.76
16.453,-120.37
16.468,-121.71
16.484,-118.91
16.500,-113.22
16.515,-105.03
16.531,-94.57
16.546,-82.47
16.562,-69.98
16.578,-58.7
16.593,-49.82
16.609,-43.62
16.625,-39.37
16.640,-35.75
16.656,-31.68
16.671,-26.92
16.687,-22.18
16.703,-18.66
16.718,-17.26
16.734,-17.73
16.750,-18.7
16.765,-18.2
16.781,-14.56
16.796,-7.21
16.812,3.2
16.828,15.12
16.843,26.65
16.859,35.89
16.875,41.05
16.890,40.48
16.906,32.84
16.921,17.56
16.937,-4.52
16.953,-30.94
16.968,-57.9
16.984,-81.24
17.000,-97.6
17.015,-105.31
17.031,-104.65
17.046,-97.46
17.062,-86.31
17.078,-73.67
17.093,-61.44
17.109,-50.8
17.125,-42.28
17.140,-36.05
17.156,-32.06
17.171,-30.05
17.187,-29.57
17.203,-29.9
17.218,-30.21
17.234,-29.8
17.250,-28.39
17.265,-26.19
17.281,-23.82
17.296,-21.92
17.312,-20.87
17.328,-20.67
17.343,-20.97
17.359,-21.31
17.375,-21.41
17.390,-21.19
17.406,-20.77
17.421,-20.35
17.437,-20.09
17.453,-20.04
17.468,-20.26
17.484,-20.89
17.500,-22.22
17.515,-24.63
17.531,-28.48
17.546,-33.94
17.562,-40.89
17.578,-48.93
17.593,-57.34
17.609,-65.25
17.625,-71.55
17.640,-75.19
17.656,-75.33
17.671,-71.62
17.687,-64.31
17.703,-54.22
17.718,-42.5
17.734,-30.29
17.750,-18.48
17.765,-7.63
17.781,1.97
17.796,10.1
17.812,16.53
17.828,21.03
17.843,23.45
17.859,23.83
17.875,22.38
17.890,19.47
17.906,15.5
17.921,10.94
17.937,6.26
17.953,1.97
17.968,-1.45
17.984,-3.76
18.000,-4.91
18.015,-5.12
18.031,-4.65
18.046,-3.69
18.062,-2.17
18.078,0.08
18.093,3.23
18.109,7.12
18.125,11.25
18.140,14.9
18.156,17.36
18.171,18.25
18.187,17.64
18.203,16.0
18.218,14.01
18.234,12.33
18.250,11.43
18.265,11.41
18.281,12.05
18.296,12.82
18.312,13.02
18.328,11.98
18.343,9.24
18.359,4.84
18.375,-0.55
18.390,-5.67
18.406,-8.92
18.421,-8.83
18.437,-4.57
18.453,3.87
18.468,15.55
18.484,28.99
18.500,42.64
18.515,55.44
18.531,67.05
18.546,77.88
18.562,88.71
18.578,100.11
18.593,111.93
18.609,123.05
18.625,131.51
18.640,135.15
18.656,132.5
18.671,123.5
18.687,109.72
18.703,93.88
18.718,78.95
18.734,67.12
18.750,59.22
18.765,54.89
18.781,53.05
18.796,52.67
18.812,53.0
18.828,53.61
18.843,54.04
18.859,53.64
18.875,51.73
18.890,47.89
18.906,42.31
18.921,35.83
18.937,29.5
18.953,24.19
18.968,20.14
18.984,16.94
19.000,13.83
19.015,10.09
19.031,5.47
19.046,0.23
19.062,-5.0
19.078,-9.54
19.093,-13.05
19.109,-15.63
19.125,-17.76
19.140,-20.04
19.156,-22.82
19.171,-25.96
19.187,-28.86
19.203,-30.59
19.218,-30.42
19.234,-28.03
19.250,-23.79
19.265,-18.64
19.281,-13.72
19.296,-10.03
19.312,-8.06
19.328,-7.83
19.343,-9.02
19.359,-11.2
19.375,-14.06
19.390,-17.46
19.406,-21.35
19.421,-25.59
19.437,-30.01
19.453,-34.29
19.468,-38.12
19.484,-41.26
19.500,-43.51
19.515,-44.67
19.531,-44.53
19.546,-42.87
19.562,-39.56
19.578,-34.59
19.593,-28.19
19.609,-20.76
19.625,-12.81
19.640,-4.82
19.656,2.77
19.671,9.6
19.687,15.37
19.703,19.87
19.718,23.01
19.734,24.85
19.750,25.67
19.765,25.87
19.781,25.87
19.796,25.94
19.812,26.11
19.828,26.19
19.843,25.72
19.859,24.18
19.875,21.15
19.890,16.56
19.906,10.82
19.921,4.94
19.937,0.22
19.953,-2.04
19.968,-1.05
19.984,3.16
20.000,9.73
20.015,17.27
20.031,24.44
20.046,30.33
20.062,34.69
20.078,37.78
20.093,40.13
20.109,42.15
20.125,44.05
20.140,45.89
20.156,47.75
20.171,49.86
20.187,52.57
20.203,56.28
20.218,61.29
20.234,67.7
20.250,75.32
20.265,83.73
20.281,92.35
20.296,100.42
20.312,106.99
20.328,110.82
20.343,110.38
20.359,104.02
20.375,90.48
20.390,69.37
20.406,41.61
20.421,9.55
20.437,-23.44
20.453,-53.76
20.468,-78.43
20.484,-95.78
20.500,-105.63
20.515,-109.02
20.531,-107.63
20.546,-103.26
20.562,-97.45
20.578,-91.4
20.593,-85.86
20.609,-81.22
20.625,-77.3
20.640,-73.48
20.656,-68.71
20.671,-61.97
20.687,-52.63
20.703,-40.74
20.718,-27.03
20.734,-12.64
20.750,1.41
20.765,14.64
20.781,27.17
20.796,39.57
20.812,52.26
20.828,64.99
20.843,76.57
20.859,85.09
20.875,88.64
20.890,86.14
20.906,77.78
20.921,65.04
20.937,50.08
20.953,34.96
20.968,21.08
20.984,9.04
21.000,-1.02
21.015,-9.04
21.031,-14.76
21.046,-17.95
21.062,-18.69
21.078,-17.69
21.093,-16.1
21.109,-15.18
21.125,-15.72
21.140,-17.82
21.156,-20.84
21.171,-23.73
21.187,-25.53
21.203,-25.65
21.218,-24.06
21.234,-21.24
21.250,-17.93
21.265,-14.94
21.281,-12.95
21.296,-12.32
21.312,-12.96
21.328,-14.28
21.343,-15.31
21.359,-14.9
21.375,-12.1
21.390,-6.52
21.406,1.51
21.421,11.03
21.437,20.79
21.453,29.61
21.468,36.69
21.484,41.63
21.500,44.41
21.515,45.13
21.531,43.99
21.546,41.21
21.562,37.07
21.578,31.9
21.593,26.04
21.609,19.78
21.625,13.36
21.640,7.0
21.656,0.83
21.671,-5.03
21.687,-10.51
21.703,-15.64
21.718,-20.47
21.734,-25.11
21.750,-29.7
21.765,-34.44
21.781,-39.5
21.796,-44.96
21.812,-50.7
21.828,-56.38
21.843,-61.47
21.859,-65.44
21.875,-67.91
21.890,-68.75
21.906,-67.96
21.921,-65.57
21.937,-61.54
21.953,-55.76
21.968,-48.26
21.984,-39.36
22.000,-29.69
22.015,-20.18
22.031,-11.8
22.046,-5.37
22.062,-1.29
22.078,0.58
22.093,0.79
22.109,0.09
22.125,-0.83
22.140,-1.6
22.156,-2.14
22.171,-2.53
22.187,-2.82
22.203,-2.95
22.218,-2.85
22.234,-2.58
22.250,-2.41
22.265,-2.69
22.281,-3.6
22.296,-4.93
22.312,-6.09
22.328,-6.36
22.343,-5.21
22.359,-2.61
22.375,1.08
22.390,5.24
22.406,9.31
22.421,12.91
22.437,15.84
22.453,17.97
22.468,19.21
22.484,19.43
22.500,18.59
22.515,16.8
22.531,14.33
22.546,11.52
22.562,8.72
22.578,6.17
22.593,3.98
22.609,2.05
22.625,0.13
22.640,-2.1
22.656,-4.95
22.671,-8.5
22.687,-12.55
22.703,-16.44
22.718,-19.19
22.734,-19.67
22.750,-16.88
22.765,-10.3
22.781,-0.01
22.796,13.21
22.812,28.03
22.828,42.86
22.843,56.11
22.859,66.42
22.875,72.76
22.890,74.41
22.906,70.96
22.921,62.38
22.937,49.22
22.953,32.68
22.968,14.57
22.984,-3.04
23.000,-18.37
23.015,-30.36
23.031,-38.82
23.046,-44.2
23.062,-47.24
23.078,-48.48
23.093,-48.23
23.109,-46.65
23.125,-44.03
23.140,-40.83
23.156,-37.56
23.171,-34.52
23.187,-31.68
23.203,-28.74
23.218,-25.41
23.234,-21.56
23.250,-17.37
23.265,-13.16
23.281,-9.16
23.296,-5.4
23.312,-1.78
23.328,1.74
23.343,4.96
23.359,7.46
23.375,8.77
23.390,8.72
23.406,7.69
23.421,6.53
23.437,6.29
23.453,7.87
23.468,11.64
23.484,17.43
23.500,24.55
23.515,32.15
23.531,39.42
23.546,45.79
23.562,50.95
23.578,54.81
23.593,57.54
23.609,59.6
23.625,61.73
23.640,64.82
23.656,69.64
23.671,76.43
23.687,84.7
23.703,93.19
23.718,100.19
23.734,104.01
23.750,103.59
23.765,98.87
23.781,90.74
23.796,80.83
23.812,70.9
23.828,62.39
23.843,55.99
23.859,51.72
23.875,49.03
23.890,47.23
23.906,45.75
23.921,44.22
23.937,42.42
23.953,40.06
23.968,36.65
23.984,31.6
24.000,24.32
24.015,14.61
24.031,2.89
24.046,-9.86
24.062,-22.24
24.078,-32.83
24.093,-40.57
24.109,-45.03
24.125,-46.48
24.140,-45.77
24.156,-44.05
24.171,-42.51
24.187,-42.18
24.203,-43.82
24.218,-47.78
24.234,-53.84
24.250,-61.12
24.265,-68.1
24.281,-72.92
24.296,-73.89
24.312,-70.13
24.328,-62.03
24.343,-51.22
24.359,-40.04
24.375,-30.74
24.390,-24.73
24.406,-22.22
24.421,-22.45
24.437,-24.21
24.453,-26.43
24.468,-28.5
24.484,-30.28
24.500,-31.81
24.515,-33.12
24.531,-34.06
24.546,-34.46
24.562,-34.2
24.578,-33.4
24.593,-32.28
24.609,-31.06
24.625,-29.84
24.640,-28.6
24.656,-27.26
24.671,-25.77
24.687,-24.11
24.703,-22.32
24.718,-20.34
24.734,-18.02
24.750,-15.11
24.765,-11.34
24.781,-6.61
24.796,-1.14
24.812,4.4
24.828,8.93
24.843,11.17
24.859,9.98
24.875,4.74
24.890,-4.33
24.906,-16.25
24.921,-29.47
24.937,-42.32
24.953,-53.33
24.968,-61.49
24.984,-66.12
25.000,-66.82
25.015,-63.37
25.031,-55.82
25.046,-44.68
25.062,-30.97
25.078,-16.16
25.093,-1.81
25.109,10.75
25.125,20.72
25.140,27.9
25.156,32.52
25.171,35.02
25.187,35.78
25.203,35.08
25.218,33.1
25.234,29.97
25.250,25.83
25.265,20.88
25.281,15.35
25.296,9.55
25.312,3.95
25.328,-0.88
25.343,-4.33
25.359,-5.92
25.375,-5.5
25.390,-3.31
25.406,0.07
25.421,3.93
25.437,7.72
25.453,11.17
25.468,14.32
25.484,17.36
25.500,20.35
25.515,23.14
25.531,25.31
25.546,26.41
25.562,26.14
25.578,24.56
25.593,22.13
25.609,19.54
25.625,17.48
25.640,16.4
25.656,16.34
25.671,16.98
25.687,17.75
25.703,18.19
25.718,18.17
25.734,18.0
25.750,18.31
25.765,19.64
25.781,22.13
25.796,25.39
25.812,28.6
25.828,31.0
25.843,32.23
25.859,32.42
25.875,32.01
25.890,31.28
25.906,30.23
25.921,28.65
25.937,26.36
25.953,23.21
25.968,18.89
25.984,12.53
26.000,2.67
26.015,-12.28
26.031,-33.2
26.046,-59.44
26.062,-88.6
26.078,-117.19
26.093,-141.74
26.109,-159.92
26.125,-171.03
26.140,-175.74
26.156,-175.36
26.171,-171.25
26.187,-164.4
26.203,-155.42
26.218,-144.76
26.234,-132.66
26.250,-119.25
26.265,-104.65
26.281,-89.16
26.296,-73.4
26.312,-58.36
26.328,-45.13
26.343,-34.49
26.359,-26.55
26.375,-20.69
26.390,-15.87
26.406,-11.24
26.421,-6.48
26.437,-1.94
26.453,1.69
26.468,3.86
26.484,4.52
26.500,4.07
26.515,3.02
26.531,1.69
26.546,-0.01
26.562,-2.29
26.578,-5.13
26.593,-8.05
26.609,-10.19
26.625,-10.73
26.640,-9.35
26.656,-6.46
26.671,-2.99
26.687,0.03
26.703,1.92
26.718,2.53
26.734,2.1
26.750,0.95
26.765,-0.73
26.781,-2.92
26.796,-5.66
26.812,-8.81
26.828,-12.1
26.843,-15.12
26.859,-17.51
26.875,-19.08
26.890,-19.83
26.906,-19.9
26.921,-19.5
26.937,-18.82
26.953,-18.06
26.968,-17.39
26.984,-16.96
27.000,-16.82
27.015,-16.96
27.031,-17.32
27.046,-17.87
27.062,-18.67
27.078,-19.83
27.093,-21.45
27.109,-23.61
27.125,-26.22
27.140,-29.04
27.156,-31.59
27.171,-33.2
27.187,-33.14
27.203,-30.73
27.218,-25.58
27.234,-17.77
27.250,-7.89
27.265,3.06
27.281,13.95
27.296,23.85
27.312,32.18
27.328,38.81
27.343,43.95
27.359,47.89
27.375,50.91
27.390,53.14
27.406,54.75
27.421,55.88
27.437,56.84
27.453,57.96
27.468,59.5
27.484,61.58
27.500,64.07
27.515,66.66
27.531,68.96
27.546,70.6
27.562,71.25
27.578,70.69
27.593,68.78
27.609,65.53
27.625,61.17
27.640,56.08
27.656,50.71
27.671,45.39
27.687,40.2
27.703,34.95
27.718,29.27
27.734,22.87
27.750,15.67
27.765,8.09
27.781,0.93
27.796,-4.69
27.812,-7.64
27.828,-7.14
27.843,-2.97
27.859,4.32
27.875,13.58
27.890,23.3
27.906,32.12
27.921,39.07
27.937,43.81
27.953,46.51
27.968,47.57
27.984,47.45
28.000,46.42
28.015,44.64
28.031,42.13
28.046,39.0
28.062,35.4
28.078,31.6
28.093,27.97
28.109,24.89
28.125,22.65
28.140,21.36
28.156,20.82
28.171,20.53
28.187,19.81
28.203,17.99
28.218,14.61
28.234,9.54
28.250,2.97
28.265,-4.74
28.281,-13.24
28.296,-22.28
28.312,-31.8
28.328,-41.83
28.343,-52.33
28.359,-63.11
28.375,-73.67
28.390,-83.2
28.406,-90.61
28.421,-94.81
28.437,-94.82
28.453,-90.14
28.468,-80.77
28.484,-67.26
28.500,-50.57
28.515,-31.9
28.531,-12.6
28.546,5.93
28.562,22.36
28.578,35.56
28.593,44.77
28.609,49.78
28.625,50.89
28.640,48.88
28.656,44.77
28.671,39.57
28.687,34.22
28.703,29.48
28.718,25.83
28.734,23.52
28.750,22.42
28.765,22.11
28.781,21.98
28.796,21.42
28.812,20.08
28.828,18.01
28.843,15.69
28.859,13.73
28.875,12.65
28.890,12.48
28.906,12.69
28.921,12.23
28.937,9.96
28.953,5.01
28.968,-2.8
28.984,-12.85
29.000,-23.73
29.015,-33.61
29.031,-40.75
29.046,-43.85
29.062,-42.47
29.078,-37.05
29.093,-28.72
29.109,-18.86
29.125,-8.75
29.140,0.78
29.156,9.27
29.171,16.47
29.187,22.05
29.203,25.62
29.218,26.75
29.234,25.39
29.250,22.0
29.265,17.57
29.281,13.28
29.296,10.17
29.312,8.71
29.328,8.83
29.343,10.02
29.359,11.68
29.375,13.34
29.390,14.73
29.406,15.78
29.421,16.46
29.437,16.6
29.453,16.01
29.468,14.48
29.484,11.92
29.500,8.37
29.515,4.02
29.531,-0.94
29.546,-6.33
29.562,-11.87
29.578,-17.1
29.593,-21.29
29.609,-23.47
29.625,-22.71
29.640,-18.46
29.656,-10.85
29.671,-0.76
29.687,10.41
29.703,21.08
29.718,29.93
29.734,36.14
29.750,39.52
29.765,40.35
29.781,39.24
29.796,36.94
29.812,34.31
29.828,32.19
29.843,31.46
29.859,32.8
29.875,36.5
29.890,42.07
29.906,48.12
29.921,52.51
29.937,52.83
29.953,47.3
29.968,35.55
29.984,18.88
30.000,-0.05
30.015,-18.19
30.031,-33.09
30.046,-43.71
30.062,-50.35
30.078,-54.13
30.093,-56.22
30.109,-57.42
30.125,-57.99
30.140,-57.96
30.156,-57.43
30.171,-56.57
30.187,-55.48
30.203,-53.93
30.218,-51.32
30.234,-46.91
30.250,-40.27
30.265,-31.52
30.281,-21.5
30.296,-11.43
30.312,-2.5
30.328,4.46
30.343,9.22
30.359,11.95
30.375,13.1
30.390,13.08
30.406,12.3
30.421,11.1
30.437,9.88
30.453,9.08
30.468,9.07
30.484,10.07
30.500,12.0
30.515,14.54
30.531,17.25
30.546,19.7
30.562,21.65
30.578,23.07
30.593,24.09
30.609,24.88
30.625,25.51
30.640,25.9
30.656,25.81
30.671,24.96
30.687,23.09
30.703,20.05
30.718,15.87
30.734,10.79
30.750,5.32
30.765,0.19
30.781,-3.68
30.796,-5.47
30.812,-4.61
30.828,-1.05
30.843,4.73
30.859,11.93
30.875,19.58
30.890,26.83
30.906,33.0
30.921,37.55
30.937,40.04
30.953,40.21
30.968,38.07
30.984,34.02
31.000,28.8
31.015,23.35
31.031,18.52
31.046,14.91
31.062,12.74
31.078,11.94
31.093,12.19
31.109,13.11
31.125,14.26
31.140,15.25
31.156,15.79
31.171,15.76
31.187,15.11
31.203,13.82
31.218,11.83
31.234,9.04
31.250,5.39
31.265,0.95
31.281,-4.0
31.296,-9.06
31.312,-13.71
31.328,-17.47
31.343,-19.86
31.359,-20.55
31.375,-19.41
31.390,-16.65
31.406,-12.85
31.421,-8.79
31.437,-5.26
31.453,-2.66
31.468,-1.04
31.484,-0.05
31.500,0.72
31.515,1.45
31.531,2.0
31.546,2.01
31.562,1.26
31.578,-0.21
31.593,-1.98
31.609,-3.43
31.625,-3.97
31.640,-3.31
31.656,-1.55
31.671,0.92
31.687,3.64
31.703,6.31
31.718,8.98
31.734,11.95
31.750,15.65
31.765,20.41
31.781,26.26
31.796,32.91
31.812,39.88
31.828,46.58
31.843,52.53
31.859,57.33
31.875,60.65
31.890,62.25
31.906,61.94
31.921,59.67
31.937,55.7
31.953,50.49
31.968,44.71
31.984,38.89
32.000,33.22
32.015,27.53
32.031,21.38
32.046,14.45
32.062,6.82
32.078,-0.92
32.093,-7.88
32.109,-13.24
32.125,-16.64
32.140,-18.33
32.156,-18.99
32.171,-19.48
32.187,-20.39
32.203,-21.91
32.218,-23.84
32.234,-25.87
32.250,-27.78
32.265,-29.7
32.281,-32.03
32.296,-35.41
32.312,-40.39
32.328,-47.27
32.343,-55.84
32.359,-65.4
32.375,-74.87
32.390,-82.94
32.406,-88.45
32.421,-90.52
32.437,-88.82
32.453,-83.59
32.468,-75.5
32.484,-65.46
32.500,-54.36
32.515,-42.85
32.531,-31.28
32.546,-19.79
32.562,-8.34
32.578,3.14
32.593,14.68
32.609,26.25
32.625,37.68
32.640,48.67
32.656,58.72
32.671,67.17
32.687,73.31
32.703,76.62
32.718,77.06
32.734,75.16
32.750,72.03
32.765,69.06
32.781,67.52
32.796,68.14
32.812,70.89
32.828,75.04
32.843,79.4
32.859,82.87
32.875,84.79
32.890,85.1
32.906,84.22
32.921,82.77
32.937,81.24
32.953,79.81
32.968,78.45
32.984,77.05
33.000,75.71
33.015,74.79
33.031,74.89
33.046,76.87
33.062,81.79
33.078,90.79
33.093,104.44
33.109,122.09
33.125,141.06
33.140,156.75
33.156,163.57
33.171,156.85
33.187,134.75
33.203,99.47
33.218,56.81
33.234,14.29
33.250,-21.34
33.265,-46.18
33.281,-59.77
33.296,-64.35
33.312,-63.37
33.328,-60.16
33.343,-57.34
33.359,-56.68
33.375,-59.09
33.390,-64.35
33.406,-70.99
33.421,-76.36
33.437,-77.46
33.453,-72.16
33.468,-60.43
33.484,-44.76
33.500,-29.69
33.515,-20.54
33.531,-22.0
33.546,-37.08
33.562,-66.49
33.578,-108.55
33.593,-159.31
33.609,-213.03
33.625,-262.98
33.640,-302.64
33.656,-327.17
33.671,-334.27
33.687,-324.38
33.703,-300.05
33.718,-264.97
33.734,-223.03
33.750,-177.92
33.765,-133.08
33.781,-91.81
33.796,-57.12
33.812,-31.34
33.828,-15.46
33.843,-8.96
33.859,-9.85
33.875,-15.3
33.890,-22.43
33.906,-28.9
33.921,-33.32
33.937,-35.15
33.953,-34.4
33.968,-31.45
33.984,-26.82
34.000,-21.08
34.015,-14.92
34.031,-9.1
34.046,-4.4
34.062,-1.54
34.078,-1.04
34.093,-3.17
34.109,-7.92
34.125,-14.91
34.140,-23.43
34.156,-32.41
34.171,-40.58
34.187,-46.55
34.203,-49.1
34.218,-47.42
34.234,-41.2
34.250,-30.73
34.265,-16.74
34.281,-0.3
34.296,17.47
34.312,35.41
34.328,52.43
34.343,67.53
34.359,79.84
34.375,88.77
34.390,94.15
34.406,96.36
34.421,96.23
34.437,94.79
34.453,92.98
34.468,91.33
34.484,89.9
34.500,88.32
34.515,86.19
34.531,83.31
34.546,79.92
34.562,76.54
34.578,73.85
34.593,72.35
34.609,72.22
34.625,73.09
34.640,73.94
34.656,73.0
34.671,67.88
34.687,56.23
34.703,36.6
34.718,9.36
34.734,-22.9
34.750,-55.78
34.765,-84.31
34.781,-104.48
34.796,-114.22
34.812,-113.78
34.828,-104.98
34.843,-90.39
34.859,-72.3
34.875,-52.53
34.890,-32.52
34.906,-13.58
34.921,3.07
34.937,16.48
34.953,26.46
34.968,33.65
34.984,39.34
35.000,44.98
35.015,51.43
35.031,58.63
35.046,65.6
35.062,70.79
35.078,72.8
35.093,70.92
35.109,65.29
35.125,56.8
35.140,46.73
35.156,36.43
35.171,27.17
35.187,20.09
35.203,16.14
35.218,15.74
35.234,18.49
35.250,22.86
35.265,26.58
35.281,27.41
35.296,24.27
35.312,17.96
35.328,11.19
35.343,7.55
35.359,10.06
35.375,19.71
35.390,35.09
35.406,52.95
35.421,69.61
35.437,82.36
35.453,90.28
35.468,93.99
35.484,94.99
35.500,94.98
35.515,95.58
35.531,98.14
35.546,103.68
35.562,112.23
35.578,122.18
35.593,130.0
35.609,130.85
35.625,119.87
35.640,93.85
35.656,52.38
35.671,-1.67
35.687,-62.58
35.703,-123.26
35.718,-176.95
35.734,-219.03
35.750,-247.89
35.765,-264.73
35.781,-272.19
35.796,-272.58
35.812,-266.96
35.828,-255.22
35.843,-237.34
35.859,-214.58
35.875,-189.9
35.890,-167.05
35.906,-149.06
35.921,-137.1
35.937,-130.49
35.953,-127.71
35.968,-127.49
35.984,-129.22
36.000,-132.37
36.015,-135.72
36.031,-137.2
36.046,-134.59
36.062,-126.49
36.078,-113.08
36.093,-95.94
36.109,-77.23
36.125,-58.76
36.140,-41.48
36.156,-25.6
36.171,-10.92
36.187,2.69
36.203,15.13
36.218,26.23
36.234,35.91
36.250,44.33
36.265,51.76
36.281,58.3
36.296,63.79
36.312,67.78
36.328,69.88
36.343,70.04
36.359,68.74
36.375,66.77
36.390,64.94
36.406,63.73
36.421,63.15
36.437,63.02
36.453,63.3
36.468,64.45
36.484,67.39
36.500,73.3
36.515,83.07
36.531,97.06
36.546,114.91
36.562,135.58
36.578,157.26
36.593,177.23
36.609,191.83
36.625,196.98
36.640,189.23
36.656,167.19
36.671,132.47
36.687,89.74
36.703,45.59
36.718,6.47
36.734,-23.18
36.750,-41.99
36.765,-51.22
36.781,-53.59
36.796,-51.69
36.812,-47.16
36.828,-40.57
36.843,-32.1
36.859,-22.27
36.875,-12.11
36.890,-3.0
36.906,3.99
36.921,8.56
36.937,11.33
36.953,13.39
36.968,15.76
36.984,18.84
37.000,22.38
37.015,25.7
37.031,28.05
37.046,28.82
37.062,27.63
37.078,24.29
37.093,18.99
37.109,12.45
37.125,5.96
37.140,1.13
37.156,-0.64
37.171,1.11
37.187,5.7
37.203,11.54
37.218,16.83
37.234,20.22
37.250,21.13
37.265,19.79
37.281,16.99
37.296,13.8
37.312,11.3
37.328,10.19
37.343,10.34
37.359,10.46
37.375,8.31
37.390,1.57
37.406,-10.95
37.421,-28.53
37.437,-48.56
37.453,-67.59
37.468,-82.75
37.484,-92.85
37.500,-98.52
37.515,-101.45
37.531,-103.36
37.546,-105.23
37.562,-107.28
37.578,-109.18
37.593,-110.53
37.609,-110.93
37.625,-109.84
37.640,-106.55
37.656,-100.17
37.671,-90.03
37.687,-75.97
37.703,-58.71
37.718,-39.71
37.734,-20.82
37.750,-3.84
37.765,9.92
37.781,19.88
37.796,26.23
37.812,29.64
37.828,31.1
37.843,31.44
37.859,31.25
37.875,30.76
37.890,29.96
37.906,28.79
37.921,27.27
37.937,25.63
37.953,24.19
37.968,23.19
37.984,22.63
38.000,22.18
38.015,21.33
38.031,19.52
38.046,16.46
38.062,12.29
38.078,7.57
38.093,3.05
38.109,-0.55
38.125,-2.85
38.140,-3.98
38.156,-4.53
38.171,-5.32
38.187,-7.14
38.203,-10.46
38.218,-15.18
38.234,-20.61
38.250,-25.57
38.265,-28.73
38.281,-28.95
38.296,-25.68
38.312,-19.16
38.328,-10.27
38.343,-0.26
38.359,9.66
38.375,18.61
38.390,26.11
38.406,32.05
38.421,36.41
38.437,39.17
38.453,40.35
38.468,40.03
38.484,38.58
38.500,36.66
38.515,35.08
38.531,34.52
38.546,35.31
38.562,37.24
38.578,39.75
38.593,42.13
38.609,43.86
38.625,44.78
38.640,45.01
38.656,44.78
38.671,44.15
38.687,42.95
38.703,40.85
38.718,37.62
38.734,33.32
38.750,28.31
38.765,23.14
38.781,18.29
38.796,14.04
38.812,10.36
38.828,7.06
38.843,3.87
38.859,0.51
38.875,-3.28
38.890,-7.85
38.906,-13.51
38.921,-20.51
38.937,-28.73
38.953,-37.62
38.968,-46.11
38.984,-52.85
39.000,-56.61
39.015,-56.66
39.031,-52.94
39.046,-46.15
39.062,-37.43
39.078,-28.01
39.093,-18.92
39.109,-10.84
39.125,-4.16
39.140,0.88
39.156,4.2
39.171,5.81
39.187,6.0
39.203,5.36
39.218,4.72
39.234,4.91
39.250,6.48
39.265,9.53
39.281,13.63
39.296,18.09
39.312,22.23
39.328,25.58
39.343,28.0
39.359,29.63
39.375,30.69
39.390,31.35
39.406,31.7
39.421,31.73
39.437,31.46
39.453,30.9
39.468,30.02
39.484,28.81
39.500,27.26
39.515,25.34
39.531,23.03
39.546,20.33
39.562,17.3
39.578,14.05
39.593,10.8
39.609,7.81
39.625,5.33
39.640,3.38
39.656,1.74
39.671,-0.04
39.687,-2.43
39.703,-5.59
39.718,-9.14
39.734,-12.04
39.750,-12.86
39.765,-10.21
39.781,-3.21
39.796,8.18
39.812,23.19
39.828,40.43
39.843,58.28
39.859,75.28
39.875,90.37
39.890,103.04
39.906,113.23
39.921,121.32
39.937,127.97
39.953,134.06
39.968,140.48
39.984,147.93
40.000,156.68
40.015,166.2
40.031,175.03
40.046,180.94
40.062,181.36
40.078,174.23
40.093,158.79
40.109,135.85
40.125,107.59
40.140,76.62
40.156,45.18
40.171,14.68
40.187,-14.09
40.203,-40.31
40.218,-62.67
40.234,-79.43
40.250,-89.15
40.265,-91.5
40.281,-87.74
40.296,-80.32
40.312,-71.95
40.328,-64.62
40.343,-59.08
40.359,-55.03
40.375,-51.86
40.390,-49.36
40.406,-47.97
40.421,-48.59
40.437,-51.98
40.453,-58.32
40.468,-66.93
40.484,-76.48
40.500,-85.31
40.515,-91.92
40.531,-95.16
40.546,-94.37
40.562,-89.38
40.578,-80.49
40.593,-68.44
40.609,-54.31
40.625,-39.47
40.640,-25.35
40.656,-13.19
40.671,-3.79
40.687,2.55
40.703,6.09
40.718,7.43
40.734,7.34
40.750,6.53
40.765,5.53
40.781,4.7
40.796,4.24
40.812,4.36
40.828,5.2
40.843,6.86
40.859,9.29
40.875,12.23
40.890,15.26
40.906,17.9
40.921,19.82
40.937,20.99
40.953,21.64
40.968,22.17
40.984,22.89
41.000,23.87
41.015,24.89
41.031,25.54
41.046,25.44
41.062,24.46
41.078,22.75
41.093,20.64
41.109,18.49
41.125,16.54
41.140,14.77
41.156,13.11
41.171,11.42
41.187,9.62
41.203,7.66
41.218,5.4
41.234,2.7
41.250,-0.6
41.265,-4.47
41.281,-8.67
41.296,-12.77
41.312,-16.23
41.328,-18.53
41.343,-19.29
41.359,-18.27
41.375,-15.45
41.390,-11.02
41.406,-5.4
41.421,0.73
41.437,6.59
41.453,11.45
41.468,14.81
41.484,16.39
41.500,16.12
41.515,14.06
41.531,10.45
41.546,5.83
41.562,1.05
41.578,-2.84
41.593,-4.93
41.609,-4.8
41.625,-2.76
41.640,0.29
41.656,3.32
41.671,5.52
41.687,6.65
41.703,6.92
41.718,6.63
41.734,5.93
41.750,4.57
41.765,2.12
41.781,-1.73
41.796,-6.9
41.812,-12.84
41.828,-18.76
41.843,-23.88
41.859,-27.77
41.875,-30.46
41.890,-32.36
41.906,-34.05
41.921,-36.04
41.937,-38.59
41.953,-41.6
41.968,-44.64
41.984,-46.99
42.000,-47.89
42.015,-46.64
42.031,-42.92
42.046,-36.77
42.062,-28.7
42.078,-19.47
42.093,-9.98
42.109,-1.1
42.125,6.52
42.140,12.46
42.156,16.55
42.171,18.81
42.187,19.39
42.203,18.47
42.218,16.18
42.234,12.66
42.250,8.09
42.265,2.85
42.281,-2.53
42.296,-7.47
42.312,-11.65
42.328,-15.11
42.343,-18.35
42.359,-22.11
42.375,-26.97
42.390,-33.08
42.406,-39.91
42.421,-46.37
42.437,-51.11
42.453,-53.01
42.468,-51.58
42.484,-47.1
42.500,-40.57
42.515,-33.35
42.531,-26.79
42.546,-21.89
42.562,-19.22
42.578,-18.88
42.593,-20.75
42.609,-24.59
42.625,-30.16
42.640,-37.17
42.656,-45.24
42.671,-53.89
42.687,-62.54
42.703,-70.56
42.718,-77.37
42.734,-82.42
42.750,-85.32
42.765,-85.81
42.781,-83.85
42.796,-79.59
42.812,-73.37
42.828,-65.65
42.843,-57.02
42.859,-48.12
42.875,-39.55
42.890,-31.82
42.906,-25.25
42.921,-19.9
42.937,-15.57
42.953,-11.9
42.968,-8.51
42.984,-5.15
43.000,-1.81
43.015,1.39
43.031,4.31
43.046,6.95
43.062,9.58
43.078,12.64
43.093,16.51
43.109,21.33
43.125,26.85
43.140,32.46
43.156,37.43
43.171,41.15
43.187,43.19
43.203,43.37
43.218,41.56
43.234,37.65
43.250,31.55
43.265,23.35
43.281,13.48
43.296,2.7
43.312,-7.99
43.328,-17.62
43.343,-25.49
43.359,-31.24
43.375,-34.81
43.390,-36.34
43.406,-36.03
43.421,-34.15
43.437,-31.09
43.453,-27.33
43.468,-23.4
43.484,-19.68
43.500,-16.21
43.515,-12.71
43.531,-8.68
43.546,-3.68
43.562,2.43
43.578,9.43
43.593,16.83
43.609,24.0
43.625,30.45
43.640,35.82
43.656,39.95
43.671,42.79
43.687,44.34
43.703,44.65
43.718,43.83
43.734,42.05
43.750,39.51
43.765,36.36
43.781,32.71
43.796,28.63
43.812,24.25
43.828,19.81
43.843,15.64
43.859,12.05
43.875,9.24
43.890,7.18
43.906,5.56
43.921,4.0
43.937,2.17
43.953,-0.05
43.968,-2.56
43.984,-5.13
44.000,-7.55
44.015,-9.74
44.031,-11.67
44.046,-13.34
44.062,-14.67
44.078,-15.56
44.093,-16.01
44.109,-16.3
44.125,-17.02
44.140,-18.95
44.156,-22.71
44.171,-28.44
44.187,-35.58
44.203,-42.85
44.218,-48.6
44.234,-51.25
44.250,-49.81
44.265,-44.15
44.281,-35.01
44.296,-23.72
44.312,-11.71
44.328,-0.17
44.343,10.09
44.359,18.67
44.375,25.36
44.390,30.05
44.406,32.67
44.421,33.35
44.437,32.46
44.453,30.72
44.468,29.0
44.484,28.04
44.500,28.29
44.515,29.64
44.531,31.65
44.546,33.68
44.562,35.25
44.578,36.15
44.593,36.5
44.609,36.59
44.625,36.62
44.640,36.59
44.656,36.22
44.671,35.15
44.687,33.13
44.703,30.2
44.718,26.7
44.734,23.14
44.750,19.95
44.765,17.27
44.781,14.97
44.796,12.62
44.812,9.84
44.828,6.32
44.843,2.04
44.859,-2.82
44.875,-7.88
44.890,-12.66
44.906,-16.66
44.921,-19.34
44.937,-20.24
44.953,-19.05
44.968,-15.73
44.984,-10.54
45.000,-3.96
45.015,3.3
45.031,10.5
45.046,16.94
45.062,22.14
45.078,25.9
45.093,28.33
45.109,29.72
45.125,30.42
45.140,30.68
45.156,30.65
45.171,30.45
45.187,30.34
45.203,30.73
45.218,32.03
45.234,34.47
45.250,37.93
45.265,41.96
45.281,46.04
45.296,49.7
45.312,52.7
45.328,54.83
45.343,55.75
45.359,54.91
45.375,51.7
45.390,45.81
45.406,37.43
45.421,27.39
45.437,16.87
45.453,7.07
45.468,-1.16
45.484,-7.55
45.500,-12.27
45.515,-15.86
45.531,-18.91
45.546,-21.94
45.562,-25.24
45.578,-28.69
45.593,-31.75
45.609,-33.46
45.625,-32.8
45.640,-28.88
45.656,-21.38
45.671,-10.58
45.687,2.71
45.703,17.47
45.718,32.8
45.734,48.11
45.750,63.1
45.765,77.51
45.781,91.04
45.796,103.2
45.812,113.46
45.828,121.54
45.843,127.67
45.859,132.65
45.875,137.74
45.890,144.33
45.906,153.46
45.921,165.35
45.937,179.0
45.953,192.08
45.968,201.21
45.984,202.64
46.000,193.29
46.015,171.59
46.031,138.26
46.046,96.18
46.062,49.74
46.078,3.7
46.093,-37.97
46.109,-72.87
46.125,-100.24
46.140,-120.52
46.156,-134.61
46.171,-143.27
46.187,-146.89
46.203,-145.79
46.218,-140.54
46.234,-132.38
46.250,-123.12
46.265,-114.68
46.281,-108.35
46.296,-104.2
46.312,-100.89
46.328,-96.17
46.343,-87.79
46.359,-74.35
46.375,-55.94
46.390,-33.99
46.406,-10.79
46.421,11.34
46.437,30.62
46.453,46.13
46.468,57.76
46.484,65.85
46.500,70.91
46.515,73.21
46.531,72.67
46.546,68.93
46.562,61.7
46.578,51.19
46.593,38.36
46.609,24.86
46.625,12.73
46.640,3.95
46.656,-0.21
46.671,0.33
46.687,4.02
46.703,7.6
46.718,6.61
46.734,-3.51
46.750,-25.82
46.765,-60.48
46.781,-104.16
46.796,-150.82
46.812,-193.39
46.828,-225.83
46.843,-244.64
46.859,-249.24
46.875,-241.39
46.890,-224.19
46.906,-201.19
46.921,-175.86
46.937,-151.4
46.953,-130.55
46.968,-115.26
46.984,-106.4
47.000,-103.48
47.015,-104.78
47.031,-107.76
47.046,-109.71
47.062,-108.53
47.078,-103.21
47.093,-94.04
47.109,-82.3
47.125,-69.76
47.140,-57.91
47.156,-47.59
47.171,-38.89
47.187,-31.43
47.203,-24.77
47.218,-18.64
47.234,-13.08
47.250,-8.27
47.265,-4.31
47.281,-0.99
47.296,2.24
47.312,6.18
47.328,11.64
47.343,19.14
47.359,28.65
47.375,39.53
47.390,50.67
47.406,60.77
47.421,68.72
47.437,73.81
47.453,75.88
47.468,75.17
47.484,72.13
47.500,67.29
47.515,61.18
47.531,54.38
47.546,47.57
47.562,41.61
47.578,37.33
47.593,35.35
47.609,35.78
47.625,38.05
47.640,41.05
47.656,43.48
47.671,44.37
47.687,43.61
47.703,42.09
47.718,41.4
47.734,43.19
47.750,48.48
47.765,57.23
47.781,68.5
47.796,81.01
47.812,93.77
47.828,106.47
47.843,119.15
47.859,131.75
47.875,143.64
47.890,153.92
47.906,161.88
47.921,167.56
47.937,171.49
47.953,173.73
47.968,172.92
47.984,166.18
48.000,150.36
48.015,123.98
48.031,88.85
48.046,50.0
48.062,13.83
48.078,-14.4
48.093,-32.34
48.109,-40.59
48.125,-41.35
48.140,-36.99
48.156,-29.31
48.171,-20.07
48.187,-11.58
48.203,-6.78
48.218,-8.15
48.234,-16.58
48.250,-30.64
48.265,-47.18
48.281,-62.6
48.296,-74.18
48.312,-80.66
48.328,-82.12
48.343,-79.62
48.359,-74.7
48.375,-69.18
48.390,-64.8
48.406,-62.66
48.421,-62.75
48.437,-63.83
48.453,-63.92
48.468,-61.1
48.484,-54.34
48.500,-43.79
48.515,-30.77
48.531,-17.26
48.546,-5.37
48.562,3.16
48.578,7.36
48.593,7.15
48.609,3.32
48.625,-2.93
48.640,-10.21
48.656,-17.18
48.671,-22.49
48.687,-24.83
48.703,-23.25
48.718,-17.72
48.734,-9.54
48.750,-1.19
48.765,4.57
48.781,5.82
48.796,2.27
48.812,-4.86
48.828,-13.51
48.843,-21.68
48.859,-27.83
48.875,-30.95
48.890,-30.49
48.906,-26.57
48.921,-20.36
48.937,-14.17
48.953,-10.95
48.968,-13.13
48.984,-21.52
49.000,-34.79
49.015,-49.96
49.031,-63.29
49.046,-71.44
49.062,-72.15
49.078,-64.84
49.093,-50.82
49.109,-33.18
49.125,-16.22
49.140,-4.25
49.156,0.05
49.171,-3.27
49.187,-11.46
49.203,-20.4
49.218,-26.59
49.234,-28.75
49.250,-28.05
49.265,-27.04
49.281,-28.14
49.296,-32.65
49.312,-40.7
49.328,-51.58
49.343,-64.12
49.359,-76.63
49.375,-86.96
49.390,-92.76
49.406,-92.35
49.421,-85.64
49.437,-74.65
49.453,-63.06
49.468,-55.04
49.484,-53.9
49.500,-60.93
49.515,-75.35
49.531,-94.59
49.546,-115.03
49.562,-132.54
49.578,-142.91
49.593,-142.54
49.609,-129.03
49.625,-102.12
49.640,-64.04
49.656,-19.2
49.671,26.8
49.687,68.53
49.703,102.3
49.718,127.19
49.734,145.28
49.750,160.9
49.765,179.01
49.781,203.33
49.796,234.38
49.812,268.7
49.828,299.24
49.843,317.29
49.859,314.94
49.875,287.71
49.890,236.29
49.906,166.77
49.921,89.48
49.937,16.43
49.953,-41.64
49.968,-77.9
49.984,-90.95
50.000,-84.56
50.015,-66.07
50.031,-43.69
50.046,-24.19
50.062,-11.57
50.078,-7.17
50.093,-10.66
50.109,-21.2
50.125,-37.88
50.140,-59.48
50.156,-83.69
50.171,-107.08
50.187,-125.8
50.203,-136.89
50.218,-139.5
50.234,-135.3
50.250,-127.87
50.265,-121.24
50.281,-118.33
50.296,-120.04
50.312,-125.08
50.328,-130.72
50.343,-133.88
50.359,-132.22
50.375,-124.75
50.390,-111.86
50.406,-94.85
50.421,-75.34
50.437,-54.69
50.453,-33.88
50.468,-13.54
50.484,5.94
50.500,24.19
50.515,40.82
50.531,55.44
50.546,67.79
50.562,77.78
50.578,85.73
50.593,92.4
50.609,98.93
50.625,106.55
50.640,116.3
50.656,128.73
50.671,143.87
50.687,161.51
50.703,181.19
50.718,201.95
50.734,221.78
50.750,237.21
50.765,243.83
50.781,237.67
50.796,216.98
50.812,183.4
50.828,141.69
50.843,98.09
50.859,58.24
50.875,25.84
50.890,2.62
50.906,-10.78
50.921,-14.21
50.937,-8.28
50.953,4.53
50.968,19.37
50.984,29.83
51.000,30.36
51.015,18.92
51.031,-1.81
51.046,-25.49
51.062,-44.98
51.078,-55.45
51.093,-55.72
51.109,-47.68
51.125,-34.35
51.140,-18.31
51.156,-1.26
51.171,15.18
51.187,28.64
51.203,36.09
51.218,34.94
51.234,24.58
51.250,6.88
51.265,-14.39
51.281,-35.07
51.296,-52.04
51.312,-63.59
51.328,-68.85
51.343,-67.02
51.359,-57.43
51.375,-40.29
51.390,-17.94
51.406,4.89
51.421,22.21
51.437,29.01
51.453,23.38
51.468,7.27
51.484,-14.4
51.500,-35.95
51.515,-53.14
51.531,-64.23
51.546,-69.69
51.562,-70.92
51.578,-69.14
51.593,-64.8
51.609,-58.01
51.625,-49.14
51.640,-39.35
51.656,-30.42
51.671,-23.99
51.687,-20.66
51.703,-19.54
51.718,-18.45
51.734,-14.85
51.750,-6.88
51.765,5.94
51.781,22.88
51.796,42.71
51.812,64.29
51.828,86.77
51.843,109.04
51.859,128.99
51.875,143.48
51.890,149.18
51.906,144.13
51.921,128.91
51.937,106.7
51.953,82.04
51.968,59.02
51.984,40.22
52.000,26.62
52.015,18.55
52.031,16.31
52.046,19.9
52.062,28.03
52.078,37.49
52.093,43.54
52.109,41.55
52.125,29.17
52.140,7.28
52.156,-20.33
52.171,-48.69
52.187,-73.41
52.203,-91.75
52.218,-102.81
52.234,-107.2
52.250,-106.82
52.265,-104.67
52.281,-104.42
52.296,-109.51
52.312,-121.7
52.328,-140.14
52.343,-161.31
52.359,-180.25
52.375,-192.23
52.390,-194.42
52.406,-186.2
52.421,-168.91
52.437,-144.95
52.453,-117.03
52.468,-87.87
52.484,-59.95
52.500,-35.46
52.515,-15.85
52.531,-1.57
52.546,7.98
52.562,14.21
52.578,18.74
52.593,22.91
52.609,27.3
52.625,31.81
52.640,35.81
52.656,38.72
52.671,40.2
52.687,40.43
52.703,39.98
52.718,39.52
52.734,39.53
52.750,40.02
52.765,40.54
52.781,40.42
52.796,39.07
52.812,36.26
52.828,32.31
52.843,27.82
52.859,23.42
52.875,19.39
52.890,15.49
52.906,11.07
52.921,5.44
52.937,-1.88
52.953,-11.06
52.968,-21.95
52.984,-34.21
53.000,-47.37
53.015,-60.68
53.031,-72.96
53.046,-82.66
53.062,-88.17
53.078,-88.36
53.093,-83.09
53.109,-73.4
53.125,-61.08
53.140,-48.22
53.156,-36.36
53.171,-26.27
53.187,-17.96
53.203,-11.09
53.218,-5.36
53.234,-0.76
53.250,2.52
53.265,4.29
53.281,4.57
53.296,3.81
53.312,2.68
53.328,1.96
53.343,2.21
53.359,3.66
53.375,6.11
53.390,9.11
53.406,12.13
53.421,14.76
53.437,16.86
53.453,18.49
53.468,19.85
53.484,21.1
53.500,22.32
53.515,23.4
53.531,24.15
53.546,24.36
53.562,23.89
53.578,22.68
53.593,20.78
53.609,18.31
53.625,15.4
53.640,12.2
53.656,8.88
53.671,5.56
53.687,2.34
53.703,-0.83
53.718,-4.16
53.734,-8.14
53.750,-13.31
53.765,-20.07
53.781,-28.31
53.796,-37.21
53.812,-45.31
53.828,-50.92
53.843,-52.71
53.859,-50.21
53.875,-43.92
53.890,-35.02
53.906,-24.76
53.921,-14.0
53.937,-3.01
53.953,8.27
53.968,19.84
53.984,31.25
54.000,41.71
54.015,50.38
54.031,56.97
54.046,61.9
54.062,66.32
54.078,71.49
54.093,78.15
54.109,86.11
54.125,94.3
54.140,101.22
54.156,105.65
54.171,107.15
54.187,106.17
54.203,103.75
54.218,100.92
54.234,98.27
54.250,95.88
54.265,93.48
54.281,90.7
54.296,87.18
54.312,82.53
54.328,76.4
54.343,68.71
54.359,59.94
54.375,51.2
54.390,43.86
54.406,38.68
54.421,34.94
54.437,30.21
54.453,21.01
54.468,4.1
54.484,-21.93
54.500,-55.84
54.515,-94.06
54.531,-131.78
54.546,-164.54
54.562,-189.24
54.578,-204.54
54.593,-210.42
54.609,-207.62
54.625,-197.15
54.640,-180.18
54.656,-158.2
54.671,-133.19
54.687,-107.51
54.703,-83.52
54.718,-63.03
54.734,-46.86
54.750,-34.76
54.765,-25.66
54.781,-18.23
54.796,-11.46
54.812,-4.89
54.828,1.38
54.843,6.88
54.859,11.19
54.875,14.14
54.890,15.9
54.906,16.92
54.921,17.75
54.937,18.79
54.953,20.19
54.968,21.72
54.984,22.91
55.000,23.16
55.015,22.0
55.031,19.24
55.046,15.07
55.062,9.98
55.078,4.62
55.093,-0.36
55.109,-4.5
55.125,-7.53
55.140,-9.44
55.156,-10.35
55.171,-10.48
55.187,-10.08
55.203,-9.29
55.218,-8.25
55.234,-7.06
55.250,-5.92
55.265,-5.13
55.281,-5.03
55.296,-5.99
55.312,-8.22
55.328,-11.82
55.343,-16.72
55.359,-22.7
55.375,-29.42
55.390,-36.32
55.406,-42.6
55.421,-47.19
55.437,-48.96
55.453,-47.02
55.468,-41.07
55.484,-31.56
55.500,-19.7
55.515,-7.06
55.531,4.8
55.546,14.84
55.562,22.64
55.578,28.34
55.593,32.36
55.609,35.13
55.625,36.91
55.640,37.84
55.656,38.12
55.671,38.08
55.687,38.18
55.703,38.83
55.718,40.23
55.734,42.23
55.750,44.43
55.765,46.4
55.781,47.91
55.796,49.01
55.812,49.91
55.828,50.75
55.843,51.48
55.859,51.73
55.875,51.05
55.890,48.99
55.906,45.35
55.921,40.16
55.937,33.69
55.953,26.32
55.968,18.44
55.984,10.36
56.000,2.27
56.015,-5.67
56.031,-13.32
56.046,-20.48
56.062,-26.84
56.078,-32.15
56.093,-36.35
56.109,-39.64
56.125,-42.5
56.140,-45.58
56.156,-49.4
56.171,-54.13
56.187,-59.42
56.203,-64.44
56.218,-68.03
56.234,-68.98
56.250,-66.3
56.265,-59.52
56.281,-48.75
56.296,-34.66
56.312,-18.33
56.328,-0.99
56.343,16.2
56.359,32.28
56.375,46.59
56.390,58.74
56.406,68.64
56.421,76.37
56.437,82.29
56.453,86.89
56.468,90.7
56.484,94.21
56.500,97.69
56.515,101.27
56.531,104.88
56.546,108.3
56.562,111.31
56.578,113.73
56.593,115.34
56.609,115.98
56.625,115.35
56.640,113.13
56.656,109.04
56.671,102.98
56.687,95.15
56.703,86.04
56.718,76.25
56.734,66.39
56.750,56.9
56.765,48.12
56.781,40.33
56.796,33.84
56.812,28.94
56.828,25.76
56.843,24.24
56.859,24.08
56.875,24.85
56.890,26.12
56.906,27.51
56.921,28.68
56.937,29.26
56.953,28.86
56.968,27.19
56.984,24.33
57.000,20.83
57.015,17.7
57.031,16.2
57.046,17.36
57.062,21.68
57.078,28.78
57.093,37.56
57.109,46.54
57.125,54.55
57.140,61.09
57.156,66.58
57.171,71.96
57.187,78.11
57.203,85.27
57.218,92.78
57.234,99.29
57.250,103.43
57.265,104.4
57.281,102.24
57.296,97.75
57.312,92.12
57.328,86.5
57.343,81.84
57.359,78.59
57.375,76.39
57.390,73.75
57.406,68.02
57.421,56.1
57.437,35.54
57.453,5.85
57.468,-30.91
57.484,-70.5
57.500,-107.94
57.515,-139.16
57.531,-162.08
57.546,-176.81
57.562,-184.79
57.578,-187.73
57.593,-186.81
57.609,-182.61
57.625,-175.59
57.640,-166.53
57.656,-156.53
57.671,-146.79
57.687,-138.16
57.703,-130.76
57.718,-124.18
57.734,-117.81
57.750,-111.48
57.765,-105.65
57.781,-101.32
57.796,-99.5
57.812,-100.61
57.828,-104.0
57.843,-107.97
57.859,-110.28
57.875,-108.88
57.890,-102.6
57.906,-91.6
57.921,-77.15
57.937,-61.18
57.953,-45.56
57.968,-31.58
57.984,-19.74
58.000,-9.88
58.015,-1.53
58.031,5.74
58.046,12.1
58.062,17.48
58.078,21.75
58.093,24.9
58.109,27.18
58.125,28.97
58.140,30.71
58.156,32.67
58.171,34.93
58.187,37.38
58.203,39.83
58.218,42.06
58.234,43.91
58.250,45.18
58.265,45.65
58.281,45.05
58.296,43.14
58.312,39.87
58.328,35.48
58.343,30.49
58.359,25.58
58.375,21.3
58.390,17.86
58.406,15.1
58.421,12.62
58.437,10.08
58.453,7.5
58.468,5.34
58.484,4.33
58.500,5.09
58.515,7.73
58.531,11.65
58.546,15.64
58.562,18.33
58.578,18.58
58.593,15.91
58.609,10.7
58.625,4.11
58.640,-2.11
58.656,-6.08
58.671,-6.17
58.687,-1.4
58.703,8.37
58.718,22.33
58.734,38.85
58.750,55.64
58.765,70.18
58.781,80.25
58.796,84.55
58.812,83.34
58.828,78.49
58.843,72.95
58.859,69.62
58.875,70.02
58.890,73.81
58.906,79.26
58.921,84.62
58.937,89.25
58.953,93.68
58.968,98.54
58.984,102.98
59.000,104.12
59.015,98.08
59.031,82.23
59.046,57.02
59.062,26.25
59.078,-4.69
59.093,-31.16
59.109,-51.02
59.125,-64.51
59.140,-72.89
59.156,-77.19
59.171,-77.9
59.187,-75.88
59.203,-73.28
59.218,-73.4
59.234,-79.15
59.250,-91.38
59.265,-108.15
59.281,-125.48
59.296,-139.22
59.312,-146.61
59.328,-146.85
59.343,-140.59
59.359,-129.3
59.375,-115.2
59.390,-101.51
59.406,-92.37
59.421,-91.85
59.437,-102.09
59.453,-121.81
59.468,-146.06
59.484,-167.95
59.500,-181.2
59.515,-182.55
59.531,-172.55
59.546,-154.53
59.562,-132.69
59.578,-110.41
59.593,-89.57
59.609,-70.95
59.625,-54.97
59.640,-42.07
59.656,-32.63
59.671,-26.47
59.687,-22.49
59.703,-18.9
59.718,-13.86
59.734,-6.21
59.750,4.11
59.765,16.08
59.781,28.21
59.796,39.2
59.812,48.39
59.828,55.85
59.843,62.18
59.859,68.01
59.875,73.69
59.890,79.09
59.906,83.61
59.921,86.51
59.937,87.13
59.953,85.13
59.968,80.67
59.984,74.29
