timestamp,value
00.000,250.02
00.015,244.64
00.031,235.81
00.046,225.44
00.062,215.81
00.078,208.87
00.093,205.72
00.109,206.1
00.125,208.41
00.140,210.05
00.156,208.21
00.171,200.78
00.187,187.09
00.203,168.0
00.218,145.44
00.234,121.62
00.250,98.24
00.265,76.07
00.281,55.07
00.296,34.85
00.312,15.02
00.328,-4.62
00.343,-24.07
00.359,-43.81
00.375,-64.67
00.390,-87.45
00.406,-112.32
00.421,-138.45
00.437,-164.14
00.453,-187.88
00.468,-209.11
00.484,-228.42
00.500,-247.12
00.515,-266.02
00.531,-284.69
00.546,-301.51
00.562,-314.46
00.578,-322.19
00.593,-324.62
00.609,-322.82
00.625,-318.16
00.640,-311.59
00.656,-303.4
00.671,-293.53
00.687,-282.17
00.703,-269.97
00.718,-257.73
00.734,-245.93
00.750,-234.41
00.765,-222.52
00.781,-209.68
00.796,-195.82
00.812,-181.59
00.828,-168.24
00.843,-156.91
00.859,-148.07
00.875,-141.39
00.890,-135.7
00.906,-129.65
00.921,-122.44
00.937,-113.98
00.953,-104.92
00.968,-96.23
00.984,-88.63
01.000,-82.33
01.015,-77.07
01.031,-72.48
01.046,-68.23
01.062,-64.31
01.078,-60.83
01.093,-57.81
01.109,-55.14
01.125,-52.57
01.140,-49.85
01.156,-47.01
01.171,-44.39
01.187,-42.51
01.203,-41.82
01.218,-42.53
01.234,-44.38
01.250,-46.79
01.265,-48.94
01.281,-50.03
01.296,-49.43
01.312,-46.83
01.328,-42.3
01.343,-36.24
01.359,-29.28
01.375,-22.13
01.390,-15.43
01.406,-9.55
01.421,-4.61
01.437,-0.56
01.453,2.73
01.468,5.32
01.484,7.11
01.500,7.95
01.515,7.84
01.531,6.82
01.546,5.15
01.562,3.19
01.578,1.23
01.593,-0.55
01.609,-2.14
01.625,-3.68
01.640,-5.26
01.656,-6.86
01.671,-8.45
01.687,-10.04
01.703,-11.68
01.718,-13.61
01.734,-16.13
01.750,-19.48
01.765,-23.7
01.781,-28.48
01.796,-33.16
01.812,-36.86
01.828,-38.72
01.843,-38.15
01.859,-35.0
01.875,-29.59
01.890,-22.51
01.906,-14.48
01.921,-6.11
01.937,2.2
01.953,10.25
01.968,17.78
01.984,24.52
02.000,29.96
02.015,33.75
02.031,35.73
02.046,36.05
02.062,35.17
02.078,33.6
02.093,31.77
02.109,29.83
02.125,27.72
02.140,25.14
02.156,22.01
02.171,18.33
02.187,14.43
02.203,10.67
02.218,7.42
02.234,4.76
02.250,2.54
02.265,0.39
02.281,-2.12
02.296,-5.27
02.312,-9.17
02.328,-13.62
02.343,-18.22
02.359,-22.24
02.375,-24.95
02.390,-25.6
02.406,-23.66
02.421,-18.99
02.437,-11.87
02.453,-3.07
02.468,6.44
02.484,15.66
02.500,23.84
02.515,30.49
02.531,35.46
02.546,38.82
02.562,40.71
02.578,41.4
02.593,41.08
02.609,39.98
02.625,38.37
02.640,36.52
02.656,34.75
02.671,33.27
02.687,32.22
02.703,31.48
02.718,30.81
02.734,29.83
02.750,28.18
02.765,25.73
02.781,22.53
02.796,18.89
02.812,15.18
02.828,11.71
02.843,8.57
02.859,5.76
02.875,3.09
02.890,0.32
02.906,-2.78
02.921,-6.48
02.937,-10.82
02.953,-15.58
02.968,-20.15
02.984,-23.61
03.000,-24.84
03.015,-23.11
03.031,-18.24
03.046,-10.8
03.062,-2.0
03.078,6.9
03.093,14.89
03.109,21.39
03.125,26.33
03.140,29.88
03.156,32.15
03.171,33.11
03.187,32.78
03.203,31.23
03.218,28.84
03.234,26.15
03.250,23.71
03.265,21.86
03.281,20.76
03.296,20.35
03.312,20.53
03.328,21.23
03.343,22.32
03.359,23.54
03.375,24.47
03.390,24.59
03.406,23.38
03.421,20.56
03.437,16.17
03.453,10.63
03.468,4.53
03.484,-1.55
03.500,-7.17
03.515,-12.19
03.531,-16.64
03.546,-20.68
03.562,-24.45
03.578,-27.94
03.593,-30.88
03.609,-32.76
03.625,-33.0
03.640,-31.05
03.656,-26.67
03.671,-20.04
03.687,-11.78
03.703,-2.78
03.718,5.96
03.734,13.62
03.750,19.71
03.765,24.02
03.781,26.63
03.796,27.78
03.812,27.73
03.828,26.72
03.843,25.08
03.859,23.03
03.875,20.79
03.890,18.53
03.906,16.37
03.921,14.34
03.937,12.47
03.953,10.84
03.968,9.53
03.984,8.7
04.000,8.43
04.015,8.66
04.031,9.1
04.046,9.45
04.062,9.37
04.078,8.56
04.093,6.96
04.109,4.58
04.125,1.52
04.140,-2.06
04.156,-6.04
04.171,-10.28
04.187,-14.65
04.203,-18.96
04.218,-23.11
04.234,-26.98
04.250,-30.39
04.265,-33.08
04.281,-34.61
04.296,-34.43
04.312,-32.03
04.328,-27.25
04.343,-20.22
04.359,-11.54
04.375,-2.08
04.390,7.22
04.406,15.52
04.421,22.25
04.437,27.21
04.453,30.5
04.468,32.39
04.484,33.35
04.500,33.83
04.515,34.21
04.531,34.75
04.546,35.44
04.562,36.17
04.578,36.63
04.593,36.52
04.609,35.55
04.625,33.66
04.640,30.93
04.656,27.54
04.671,23.81
04.687,19.97
04.703,16.25
04.718,12.8
04.734,9.71
04.750,7.03
04.765,4.75
04.781,2.82
04.796,1.07
04.812,-0.65
04.828,-2.6
04.843,-5.01
04.859,-8.05
04.875,-11.79
04.890,-16.03
04.906,-20.37
04.921,-24.18
04.937,-26.74
04.953,-27.4
04.968,-25.76
04.984,-21.76
05.000,-15.73
05.015,-8.41
05.031,-0.67
05.046,6.63
05.062,12.86
05.078,17.7
05.093,21.17
05.109,23.42
05.125,24.69
05.140,25.19
05.156,25.11
05.171,24.62
05.187,23.99
05.203,23.58
05.218,23.67
05.234,24.48
05.250,25.88
05.265,27.57
05.281,28.99
05.296,29.67
05.312,29.25
05.328,27.71
05.343,25.25
05.359,22.18
05.375,18.78
05.390,15.2
05.406,11.73
05.421,8.68
05.437,6.54
05.453,5.65
05.468,5.98
05.484,6.93
05.500,7.57
05.515,7.08
05.531,5.21
05.546,2.5
05.562,0.08
05.578,-0.82
05.593,0.59
05.609,4.5
05.625,10.51
05.640,17.97
05.656,26.31
05.671,35.04
05.687,43.73
05.703,51.81
05.718,58.63
05.734,63.63
05.750,66.47
05.765,67.23
05.781,66.28
05.796,64.22
05.812,61.59
05.828,58.74
05.843,55.82
05.859,52.79
05.875,49.56
05.890,46.08
05.906,42.32
05.921,38.37
05.937,34.35
05.953,30.44
05.968,26.77
05.984,23.45
06.000,20.41
06.015,17.52
06.031,14.57
06.046,11.43
06.062,8.04
06.078,4.41
06.093,0.62
06.109,-3.3
06.125,-7.43
06.140,-11.91
06.156,-16.83
06.171,-22.04
06.187,-27.06
06.203,-31.2
06.218,-33.75
06.234,-34.2
06.250,-32.43
06.265,-28.74
06.281,-23.74
06.296,-18.15
06.312,-12.57
06.328,-7.47
06.343,-3.16
06.359,0.11
06.375,2.14
06.390,2.88
06.406,2.39
06.421,0.9
06.437,-1.27
06.453,-3.7
06.468,-6.06
06.484,-8.14
06.500,-9.86
06.515,-11.26
06.531,-12.41
06.546,-13.41
06.562,-14.32
06.578,-15.25
06.593,-16.14
06.609,-16.96
06.625,-17.62
06.640,-18.05
06.656,-18.26
06.671,-18.44
06.687,-18.85
06.703,-19.76
06.718,-21.38
06.734,-23.67
06.750,-26.46
06.765,-29.33
06.781,-31.82
06.796,-33.4
06.812,-33.66
06.828,-32.29
06.843,-29.2
06.859,-24.54
06.875,-18.77
06.890,-12.53
06.906,-6.55
06.921,-1.44
06.937,2.39
06.953,4.84
06.968,6.06
06.984,6.34
07.000,5.9
07.015,4.95
07.031,3.65
07.046,2.13
07.062,0.62
07.078,-0.75
07.093,-1.82
07.109,-2.5
07.125,-2.85
07.140,-3.06
07.156,-3.33
07.171,-3.86
07.187,-4.74
07.203,-5.91
07.218,-7.24
07.234,-8.53
07.250,-9.67
07.265,-10.71
07.281,-11.84
07.296,-13.31
07.312,-15.35
07.328,-18.01
07.343,-21.2
07.359,-24.67
07.375,-28.09
07.390,-30.97
07.406,-32.79
07.421,-33.06
07.437,-31.41
07.453,-27.74
07.468,-22.34
07.484,-15.75
07.500,-8.82
07.515,-2.4
07.531,2.82
07.546,6.38
07.562,8.12
07.578,8.06
07.593,6.41
07.609,3.48
07.625,-0.29
07.640,-4.37
07.656,-8.18
07.671,-11.15
07.687,-12.9
07.703,-13.26
07.718,-12.45
07.734,-10.85
07.750,-9.02
07.765,-7.42
07.781,-6.3
07.796,-5.74
07.812,-5.61
07.828,-5.77
07.843,-6.06
07.859,-6.43
07.875,-6.76
07.890,-6.96
07.906,-6.92
07.921,-6.58
07.937,-6.05
07.953,-5.37
07.968,-4.58
07.984,-3.42
08.000,-1.45
08.015,1.94
08.031,7.22
08.046,14.45
08.062,23.17
08.078,32.44
08.093,41.11
08.109,48.17
08.125,53.01
08.140,55.43
08.156,55.66
08.171,54.13
08.187,51.28
08.203,47.57
08.218,43.33
08.234,38.78
08.250,34.11
08.265,29.4
08.281,24.72
08.296,19.97
08.312,15.05
08.328,9.8
08.343,4.14
08.359,-1.9
08.375,-8.12
08.390,-14.19
08.406,-19.81
08.421,-24.72
08.437,-28.83
08.453,-32.16
08.468,-34.72
08.484,-36.51
08.500,-37.51
08.515,-37.69
08.531,-37.18
08.546,-36.29
08.562,-35.4
08.578,-34.82
08.593,-34.62
08.609,-34.6
08.625,-34.25
08.640,-33.02
08.656,-30.38
08.671,-26.07
08.687,-20.13
08.703,-13.01
08.718,-5.43
08.734,1.8
08.750,7.89
08.765,12.42
08.781,15.3
08.796,16.82
08.812,17.43
08.828,17.54
08.843,17.36
08.859,16.94
08.875,16.21
08.890,15.15
08.906,13.93
08.921,12.81
08.937,12.13
08.953,12.16
08.968,13.06
08.984,14.77
09.000,17.11
09.015,19.75
09.031,22.31
09.046,24.41
09.062,25.7
09.078,25.99
09.093,25.24
09.109,23.62
09.125,21.34
09.140,18.69
09.156,15.87
09.171,13.14
09.187,10.62
09.203,8.46
09.218,6.7
09.234,5.33
09.250,4.22
09.265,3.22
09.281,2.2
09.296,1.11
09.312,0.01
09.328,-0.94
09.343,-1.6
09.359,-1.94
09.375,-2.02
09.390,-2.06
09.406,-2.22
09.421,-2.64
09.437,-3.28
09.453,-4.12
09.468,-5.05
09.484,-6.03
09.500,-7.09
09.515,-8.28
09.531,-9.64
09.546,-11.16
09.562,-12.74
09.578,-14.24
09.593,-15.56
09.609,-16.71
09.625,-17.77
09.640,-18.91
09.656,-20.23
09.671,-21.75
09.687,-23.38
09.703,-25.04
09.718,-26.7
09.734,-28.43
09.750,-30.34
09.765,-32.54
09.781,-35.01
09.796,-37.59
09.812,-40.07
09.828,-42.36
09.843,-44.54
09.859,-46.77
09.875,-49.13
09.890,-51.41
09.906,-53.12
09.921,-53.59
09.937,-52.14
09.953,-48.37
09.968,-42.31
09.984,-34.45
10.000,-25.55
10.015,-16.5
10.031,-8.04
10.046,-0.8
10.062,4.87
10.078,8.89
10.093,11.36
10.109,12.51
10.125,12.63
10.140,11.98
10.156,10.79
10.171,9.31
10.187,7.71
10.203,6.17
10.218,4.8
10.234,3.64
10.250,2.67
10.265,1.8
10.281,0.82
10.296,-0.51
10.312,-2.39
10.328,-4.86
10.343,-7.84
10.359,-11.05
10.375,-14.21
10.390,-17.06
10.406,-19.51
10.421,-21.65
10.437,-23.74
10.453,-26.05
10.468,-28.76
10.484,-31.91
10.500,-35.35
10.515,-38.68
10.531,-41.34
10.546,-42.63
10.562,-41.93
10.578,-38.84
10.593,-33.3
10.609,-25.69
10.625,-16.77
10.640,-7.47
10.656,1.22
10.671,8.51
10.687,13.98
10.703,17.53
10.718,19.31
10.734,19.66
10.750,18.94
10.765,17.48
10.781,15.53
10.796,13.28
10.812,10.89
10.828,8.51
10.843,6.26
10.859,4.18
10.875,2.28
10.890,0.56
10.906,-1.07
10.921,-2.7
10.937,-4.44
10.953,-6.39
10.968,-8.61
10.984,-11.23
11.000,-14.37
11.015,-18.16
11.031,-22.67
11.046,-27.92
11.062,-33.82
11.078,-40.23
11.093,-46.94
11.109,-53.72
11.125,-60.27
11.140,-66.16
11.156,-70.79
11.171,-73.41
11.187,-73.36
11.203,-70.32
11.218,-64.49
11.234,-56.51
11.250,-47.28
11.265,-37.51
11.281,-27.64
11.296,-17.69
11.312,-7.6
11.328,2.62
11.343,12.7
11.359,22.13
11.375,30.33
11.390,36.8
11.406,41.29
11.421,43.69
11.437,44.16
11.453,42.9
11.468,40.22
11.484,36.6
11.500,32.47
11.515,28.29
11.531,24.35
11.546,20.7
11.562,17.15
11.578,13.4
11.593,9.19
11.609,4.45
11.625,-0.58
11.640,-5.49
11.656,-9.92
11.671,-13.69
11.687,-16.93
11.703,-20.03
11.718,-23.46
11.734,-27.64
11.750,-32.77
11.765,-38.67
11.781,-44.88
11.796,-50.55
11.812,-54.59
11.828,-55.89
11.843,-53.51
11.859,-47.0
11.875,-36.59
11.890,-23.1
11.906,-7.79
11.921,7.89
11.937,22.74
11.953,35.93
11.968,47.02
11.984,55.97
12.000,62.92
12.015,68.03
12.031,71.58
12.046,73.86
12.062,75.13
12.078,75.75
12.093,76.0
12.109,76.06
12.125,75.98
12.140,75.73
12.156,75.2
12.171,74.33
12.187,73.04
12.203,71.18
12.218,68.57
12.234,64.94
12.250,60.04
12.265,53.88
12.281,46.67
12.296,38.93
12.312,31.29
12.328,24.3
12.343,18.22
12.359,13.02
12.375,8.33
12.390,3.59
12.406,-1.71
12.421,-7.94
12.437,-15.14
12.453,-22.85
12.468,-30.1
12.484,-35.55
12.500,-37.68
12.515,-35.35
12.531,-28.02
12.546,-16.04
12.562,-0.63
12.578,16.39
12.593,33.05
12.609,47.53
12.625,58.52
12.640,65.35
12.656,67.92
12.671,66.67
12.687,62.4
12.703,56.13
12.718,48.94
12.734,41.94
12.750,35.97
12.765,31.41
12.781,27.94
12.796,24.47
12.812,19.64
12.828,12.23
12.843,1.88
12.859,-10.63
12.875,-23.55
12.890,-34.81
12.906,-42.72
12.921,-46.62
12.937,-46.91
12.953,-44.62
12.968,-40.86
12.984,-36.36
13.000,-31.3
13.015,-25.52
13.031,-18.8
13.046,-11.21
13.062,-3.13
13.078,4.72
13.093,11.64
13.109,17.15
13.125,21.32
13.140,24.85
13.156,28.89
13.171,34.83
13.187,43.81
13.203,56.38
13.218,72.2
13.234,90.1
13.250,108.41
13.265,125.41
13.281,139.83
13.296,151.03
13.312,159.11
13.328,164.72
13.343,168.76
13.359,171.95
13.375,174.77
13.390,177.34
13.406,179.46
13.421,180.92
13.437,181.43
13.453,180.86
13.468,179.36
13.484,177.37
13.500,175.57
13.515,174.65
13.531,174.91
13.546,175.9
13.562,176.43
13.578,174.44
13.593,167.87
13.609,155.48
13.625,137.74
13.640,117.12
13.656,97.5
13.671,82.97
13.687,76.42
13.703,78.61
13.718,87.8
13.734,100.53
13.750,112.54
13.765,119.98
13.781,120.19
13.796,112.09
13.812,96.27
13.828,74.85
13.843,51.11
13.859,28.68
13.875,10.62
13.890,-1.55
13.906,-8.39
13.921,-12.22
13.937,-16.18
13.953,-23.14
13.968,-34.68
13.984,-50.81
14.000,-70.44
14.015,-91.88
14.031,-113.5
14.046,-134.03
14.062,-152.55
14.078,-168.68
14.093,-182.94
14.109,-196.81
14.125,-212.13
14.140,-230.19
14.156,-250.54
14.171,-270.65
14.187,-286.73
14.203,-295.25
14.218,-294.45
14.234,-284.64
14.250,-267.37
14.265,-244.18
14.281,-216.23
14.296,-184.88
14.312,-152.96
14.328,-124.96
14.343,-105.68
14.359,-97.87
14.375,-100.18
14.390,-107.11
14.406,-111.47
14.421,-107.71
14.437,-94.51
14.453,-74.9
14.468,-54.24
14.484,-37.13
14.500,-25.37
14.515,-17.81
14.531,-11.74
14.546,-4.86
14.562,3.55
14.578,12.76
14.593,21.38
14.609,28.43
14.625,33.87
14.640,38.48
14.656,43.18
14.671,48.47
14.687,53.93
14.703,58.53
14.718,61.11
14.734,60.97
14.750,58.38
14.765,54.51
14.781,50.98
14.796,49.12
14.812,49.29
14.828,50.63
14.843,51.6
14.859,50.55
14.875,46.58
14.890,39.88
14.906,31.56
14.921,23.13
14.937,15.89
14.953,10.58
14.968,7.3
14.984,5.89
15.000,6.06
15.015,7.55
15.031,10.1
15.046,13.45
15.062,17.13
15.078,20.58
15.093,23.19
15.109,24.47
15.125,24.26
15.140,22.85
15.156,20.96
15.171,19.65
15.187,20.03
15.203,22.82
15.218,28.0
15.234,34.51
15.250,40.51
15.265,43.87
15.281,42.7
15.296,35.9
15.312,23.4
15.328,5.99
15.343,-15.02
15.359,-38.14
15.375,-62.01
15.390,-85.47
15.406,-107.66
15.421,-127.9
15.437,-145.61
15.453,-160.15
15.468,-170.89
15.484,-177.33
15.500,-179.23
15.515,-176.97
15.531,-171.58
15.546,-164.56
15.562,-157.39
15.578,-151.03
15.593,-145.64
15.609,-140.71
15.625,-135.62
15.640,-130.04
15.656,-124.36
15.671,-119.51
15.687,-116.59
15.703,-116.17
15.718,-117.93
15.734,-120.77
15.750,-123.26
15.765,-124.13
15.781,-122.77
15.796,-119.23
15.812,-113.89
15.828,-107.05
15.843,-98.71
15.859,-88.61
15.875,-76.71
15.890,-63.5
15.906,-49.97
15.921,-37.35
15.937,-26.61
15.953,-18.2
15.968,-12.06
15.984,-7.93
16.000,-5.62
16.015,-5.08
16.031,-5.92
16.046,-7.17
16.062,-7.29
16.078,-4.72
16.093,1.29
16.109,10.11
16.125,19.8
16.140,28.09
16.156,33.29
16.171,35.28
16.187,35.28
16.203,35.18
16.218,36.3
16.234,38.87
16.250,41.96
16.265,44.26
16.281,44.9
16.296,43.82
16.312,41.56
16.328,38.57
16.343,34.65
16.359,28.96
16.375,20.7
16.390,9.8
16.406,-2.67
16.421,-14.71
16.437,-24.32
16.453,-30.31
16.468,-32.99
16.484,-33.87
16.500,-35.15
16.515,-38.9
16.531,-46.54
16.546,-58.58
16.562,-74.71
16.578,-93.84
16.593,-114.11
16.609,-133.12
16.625,-148.36
16.640,-157.69
16.656,-159.95
16.671,-154.96
16.687,-143.28
16.703,-125.82
16.718,-103.37
16.734,-76.68
16.750,-46.61
16.765,-14.56
16.781,17.64
16.796,47.77
16.812,73.77
16.828,94.18
16.843,108.18
16.859,115.76
16.875,117.47
16.890,114.26
16.906,107.3
16.921,98.18
16.937,88.85
16.953,81.62
16.968,78.65
16.984,80.97
17.000,87.64
17.015,95.81
17.031,101.59
17.046,101.73
17.062,95.39
17.078,84.44
17.093,72.72
17.109,64.53
17.125,62.86
17.140,68.55
17.156,80.75
17.171,97.28
17.187,115.01
17.203,130.22
17.218,139.13
17.234,138.88
17.250,128.77
17.265,110.79
17.281,89.14
17.296,68.8
17.312,53.62
17.328,45.29
17.343,43.04
17.359,44.53
17.375,46.87
17.390,47.69
17.406,45.59
17.421,40.3
17.437,32.52
17.453,23.54
17.468,14.76
17.484,7.37
17.500,1.92
17.515,-1.74
17.531,-4.34
17.546,-7.04
17.562,-11.2
17.578,-18.22
17.593,-29.27
17.609,-44.3
17.625,-61.45
17.640,-77.33
17.656,-87.72
17.671,-88.83
17.687,-78.66
17.703,-57.61
17.718,-28.09
17.734,6.23
17.750,41.53
17.765,74.56
17.781,102.87
17.796,124.73
17.812,138.97
17.828,145.1
17.843,143.62
17.859,136.3
17.875,126.06
17.890,116.21
17.906,109.58
17.921,107.66
17.937,110.28
17.953,116.04
17.968,122.96
17.984,129.2
18.000,133.51
18.015,135.18
18.031,133.68
18.046,128.61
18.062,119.6
18.078,106.51
18.093,89.5
18.109,68.8
18.125,44.25
18.140,15.18
18.156,-19.54
18.171,-60.82
18.187,-108.42
18.203,-160.28
18.218,-212.53
18.234,-260.23
18.250,-298.68
18.265,-324.75
18.281,-337.28
18.296,-336.69
18.312,-324.07
18.328,-300.75
18.343,-268.74
18.359,-231.51
18.375,-193.97
18.390,-161.34
18.406,-136.85
18.421,-119.69
18.437,-104.99
18.453,-86.09
18.468,-58.51
18.484,-23.17
18.500,13.29
18.515,41.72
18.531,55.38
18.546,53.49
18.562,42.0
18.578,30.17
18.593,25.96
18.609,32.41
18.625,46.88
18.640,63.31
18.656,75.61
18.671,80.4
18.687,77.72
18.703,70.28
18.718,61.22
18.734,52.57
18.750,44.39
18.765,34.94
18.781,21.73
18.796,2.69
18.812,-22.78
18.828,-53.35
18.843,-86.32
18.859,-118.7
18.875,-148.05
18.890,-172.77
18.906,-191.65
18.921,-202.92
18.937,-203.99
18.953,-192.27
18.968,-166.69
18.984,-129.17
19.000,-84.83
19.015,-40.48
19.031,-2.13
19.046,26.81
19.062,46.06
19.078,57.31
19.093,62.46
19.109,62.56
19.125,57.86
19.140,48.92
19.156,37.64
19.171,27.42
19.187,22.0
19.203,23.99
19.218,33.59
19.234,48.69
19.250,66.15
19.265,83.35
19.281,99.25
19.296,114.16
19.312,128.63
19.328,142.4
19.343,154.12
19.359,161.83
19.375,164.06
19.390,160.63
19.406,152.44
19.421,140.93
19.437,127.12
19.453,111.22
19.468,92.83
19.484,71.47
19.500,47.14
19.515,20.58
19.531,-6.7
19.546,-32.63
19.562,-54.74
19.578,-70.53
19.593,-78.04
19.609,-76.42
19.625,-66.37
19.640,-50.23
19.656,-31.3
19.671,-12.92
19.687,2.37
19.703,13.38
19.718,20.25
19.734,23.94
19.750,25.79
19.765,26.86
19.781,27.66
19.796,28.16
19.812,27.96
19.828,26.65
19.843,24.07
19.859,20.37
19.875,15.87
19.890,10.82
19.906,5.38
19.921,-0.32
19.937,-5.9
19.953,-10.76
19.968,-14.28
19.984,-16.24
20.000,-17.07
20.015,-17.89
20.031,-19.9
20.046,-23.62
20.062,-28.42
20.078,-32.69
20.093,-34.7
20.109,-33.55
20.125,-29.34
20.140,-23.03
20.156,-15.5
20.171,-7.07
20.187,2.55
20.203,13.54
20.218,25.49
20.234,37.22
20.250,47.51
20.265,56.06
20.281,63.91
20.296,72.92
20.312,84.41
20.328,98.01
20.343,111.29
20.359,120.73
20.375,123.4
20.390,118.39
20.406,107.21
20.421,92.97
20.437,79.0
20.453,67.38
20.468,58.45
20.484,51.0
20.500,43.37
20.515,34.38
20.531,23.98
20.546,13.09
20.562,2.98
20.578,-5.2
20.593,-10.93
20.609,-14.31
20.625,-15.88
20.640,-16.14
20.656,-15.29
20.671,-13.22
20.687,-9.66
20.703,-4.58
20.718,1.8
20.734,8.91
20.750,16.02
20.765,22.44
20.781,27.74
20.796,31.86
20.812,35.02
20.828,37.52
20.843,39.41
20.859,40.38
20.875,39.89
20.890,37.63
20.906,34.15
20.921,30.99
20.937,30.09
20.953,32.9
20.968,39.49
20.984,48.49
21.000,57.85
21.015,65.89
21.031,72.09
21.046,76.83
21.062,80.45
21.078,82.26
21.093,80.52
21.109,73.42
21.125,60.39
21.140,42.83
21.156,23.81
21.171,6.66
21.187,-6.47
21.203,-15.33
21.218,-21.04
21.234,-25.1
21.250,-28.17
21.265,-29.98
21.281,-29.76
21.296,-27.16
21.312,-22.71
21.328,-17.78
21.343,-14.0
21.359,-12.45
21.375,-13.17
21.390,-15.13
21.406,-16.86
21.421,-16.99
21.437,-15.04
21.453,-11.52
21.468,-7.83
21.484,-5.57
21.500,-5.94
21.515,-9.33
21.531,-15.18
21.546,-22.41
21.562,-29.59
21.578,-35.34
21.593,-38.63
21.609,-39.07
21.625,-36.99
21.640,-33.54
21.656,-30.5
21.671,-29.54
21.687,-31.8
21.703,-37.2
21.718,-44.55
21.734,-51.94
21.750,-57.48
21.765,-59.81
21.781,-58.31
21.796,-53.12
21.812,-44.69
21.828,-33.84
21.843,-21.56
21.859,-9.07
21.875,2.24
21.890,11.04
21.906,16.38
21.921,18.05
21.937,16.51
21.953,12.86
21.968,8.38
21.984,4.03
22.000,0.32
22.015,-2.84
22.031,-5.96
22.046,-9.62
22.062,-14.24
22.078,-20.0
22.093,-26.66
22.109,-33.75
22.125,-40.63
22.140,-46.45
22.156,-50.39
22.171,-51.68
22.187,-49.86
22.203,-44.85
22.218,-37.19
22.234,-27.8
22.250,-17.82
22.265,-8.2
22.281,0.46
22.296,8.09
22.312,15.06
22.328,21.83
22.343,28.6
22.359,34.98
22.375,40.15
22.390,42.9
22.406,41.94
22.421,36.3
22.437,25.61
22.453,10.47
22.468,-7.45
22.484,-25.74
22.500,-41.86
22.515,-53.8
22.531,-60.68
22.546,-62.71
22.562,-60.85
22.578,-56.06
22.593,-48.97
22.609,-39.73
22.625,-28.51
22.640,-16.09
22.656,-4.15
22.671,4.86
22.687,8.51
22.703,5.26
22.718,-4.78
22.734,-19.71
22.750,-36.14
22.765,-50.01
22.781,-57.71
22.796,-56.88
22.812,-46.97
22.828,-29.15
22.843,-5.78
22.859,20.27
22.875,46.3
22.890,70.16
22.906,90.36
22.921,106.04
22.937,116.9
22.953,123.11
22.968,125.24
22.984,124.1
23.000,120.68
23.015,115.91
23.031,110.54
23.046,104.95
23.062,99.19
23.078,93.08
23.093,86.44
23.109,79.25
23.125,71.74
23.140,64.41
23.156,57.74
23.171,52.17
23.187,47.87
23.203,44.75
23.218,42.41
23.234,40.21
23.250,37.45
23.265,33.51
23.281,28.07
23.296,21.21
23.312,13.4
23.328,5.47
23.343,-1.64
23.359,-7.07
23.375,-10.22
23.390,-11.01
23.406,-10.01
23.421,-8.33
23.437,-7.46
23.453,-8.72
23.468,-12.67
23.484,-18.91
23.500,-25.91
23.515,-31.58
23.531,-34.06
23.546,-32.51
23.562,-27.55
23.578,-21.15
23.593,-15.87
23.609,-13.85
23.625,-15.96
23.640,-21.35
23.656,-28.08
23.671,-34.17
23.687,-38.82
23.703,-42.86
23.718,-48.23
23.734,-56.61
23.750,-68.2
23.765,-81.57
23.781,-94.32
23.796,-104.63
23.812,-112.13
23.828,-117.84
23.843,-123.06
23.859,-128.22
23.875,-132.64
23.890,-135.11
23.906,-135.18
23.921,-133.56
23.937,-131.75
23.953,-130.89
23.968,-130.82
23.984,-130.07
24.000,-126.67
24.015,-119.3
24.031,-107.76
24.046,-93.08
24.062,-76.57
24.078,-59.55
24.093,-43.06
24.109,-27.98
24.125,-15.23
24.140,-5.54
24.156,0.78
24.171,4.14
24.187,5.58
24.203,6.47
24.218,7.91
24.234,10.51
24.250,14.36
24.265,19.11
24.281,24.24
24.296,29.16
24.312,33.52
24.328,37.2
24.343,40.53
24.359,44.12
24.375,48.66
24.390,54.72
24.406,62.23
24.421,70.56
24.437,78.56
24.453,85.03
24.468,89.0
24.484,90.06
24.500,88.37
24.515,84.27
24.531,78.25
24.546,70.59
24.562,61.71
24.578,52.3
24.593,43.54
24.609,36.79
24.625,33.18
24.640,33.24
24.656,36.38
24.671,41.11
24.687,45.45
24.703,47.68
24.718,46.79
24.734,42.48
24.750,35.24
24.765,26.1
24.781,16.58
24.796,8.38
24.812,2.95
24.828,0.79
24.843,1.13
24.859,1.96
24.875,0.65
24.890,-4.79
24.906,-14.79
24.921,-27.87
24.937,-41.35
24.953,-52.64
24.968,-60.57
24.984,-65.82
25.000,-70.39
25.015,-76.52
25.031,-85.29
25.046,-96.18
25.062,-107.4
25.078,-116.74
25.093,-122.55
25.109,-124.33
25.125,-122.76
25.140,-119.1
25.156,-114.52
25.171,-109.6
25.187,-104.43
25.203,-98.81
25.218,-92.51
25.234,-85.37
25.250,-77.19
25.265,-67.66
25.281,-56.33
25.296,-42.87
25.312,-27.27
25.328,-10.19
25.343,7.07
25.359,22.94
25.375,35.98
25.390,45.27
25.406,50.64
25.421,52.58
25.437,52.04
25.453,50.1
25.468,47.64
25.484,45.06
25.500,42.15
25.515,38.19
25.531,32.48
25.546,24.8
25.562,15.83
25.578,7.13
25.593,0.6
25.609,-2.22
25.625,-0.86
25.640,4.05
25.656,11.02
25.671,18.54
25.687,25.53
25.703,31.57
25.718,36.61
25.734,40.77
25.750,44.1
25.765,46.65
25.781,48.57
25.796,50.08
25.812,51.36
25.828,52.44
25.843,53.13
25.859,53.16
25.875,52.36
25.890,50.82
25.906,48.91
25.921,47.06
25.937,45.56
25.953,44.42
25.968,43.51
25.984,42.7
26.000,42.01
26.015,41.44
26.031,41.05
26.046,40.72
26.062,40.15
26.078,38.99
26.093,36.96
26.109,34.05
26.125,30.49
26.140,26.83
26.156,23.68
26.171,21.7
26.187,21.27
26.203,22.3
26.218,24.1
26.234,25.58
26.250,25.51
26.265,23.08
26.281,18.27
26.296,11.91
26.312,5.26
26.328,-0.61
26.343,-5.28
26.359,-9.03
26.375,-12.55
26.390,-16.32
26.406,-20.26
26.421,-23.69
26.437,-25.75
26.453,-25.92
26.468,-24.4
26.484,-22.01
26.500,-19.9
26.515,-19.28
26.531,-21.02
26.546,-25.48
26.562,-32.34
26.578,-40.62
26.593,-48.58
26.609,-54.09
26.625,-55.25
26.640,-51.1
26.656,-42.22
26.671,-30.67
26.687,-19.33
26.703,-10.82
26.718,-6.62
26.734,-6.59
26.750,-9.12
26.765,-11.83
26.781,-12.57
26.796,-10.03
26.812,-4.02
26.828,4.7
26.843,14.79
26.859,24.84
26.875,33.45
26.890,39.6
26.906,42.67
26.921,42.59
26.937,39.76
26.953,34.93
26.968,28.84
26.984,22.03
27.000,14.72
27.015,6.81
27.031,-1.84
27.046,-11.27
27.062,-21.34
27.078,-31.82
27.093,-42.38
27.109,-52.61
27.125,-61.94
27.140,-69.63
27.156,-74.96
27.171,-77.69
27.187,-78.08
27.203,-76.84
27.218,-74.77
27.234,-72.18
27.250,-68.78
27.265,-63.87
27.281,-56.6
27.296,-46.52
27.312,-33.81
27.328,-19.29
27.343,-4.22
27.359,9.83
27.375,21.44
27.390,29.52
27.406,33.67
27.421,34.17
27.437,31.93
27.453,28.07
27.468,23.62
27.484,19.18
27.500,14.84
27.515,10.43
27.531,5.81
27.546,1.05
27.562,-3.49
27.578,-7.43
27.593,-10.58
27.609,-13.0
27.625,-15.06
27.640,-17.27
27.656,-20.1
27.671,-23.96
27.687,-28.88
27.703,-34.55
27.718,-40.3
27.734,-45.38
27.750,-49.18
27.765,-51.44
27.781,-52.48
27.796,-52.9
27.812,-53.37
27.828,-54.14
27.843,-54.85
27.859,-54.69
27.875,-52.67
27.890,-47.93
27.906,-39.78
27.921,-27.85
27.937,-12.17
27.953,6.38
27.968,25.93
27.984,43.67
28.000,56.52
28.015,62.12
28.031,59.68
28.046,50.29
28.062,36.42
28.078,21.11
28.093,6.83
28.109,-4.96
28.125,-13.62
28.140,-19.11
28.156,-21.39
28.171,-20.44
28.187,-16.33
28.203,-9.53
28.218,-0.88
28.234,8.46
28.250,17.29
28.265,24.73
28.281,30.3
28.296,34.05
28.312,36.28
28.328,37.34
28.343,37.4
28.359,36.29
28.375,33.66
28.390,29.14
28.406,22.66
28.421,14.68
28.437,6.23
28.453,-1.35
28.468,-6.65
28.484,-8.62
28.500,-6.88
28.515,-1.71
28.531,5.96
28.546,14.86
28.562,23.64
28.578,31.29
28.593,37.22
28.609,41.27
28.625,43.67
28.640,44.74
28.656,44.68
28.671,43.38
28.687,40.58
28.703,36.14
28.718,30.23
28.734,23.54
28.750,16.9
28.765,11.21
28.781,6.77
28.796,3.21
28.812,-0.42
28.828,-5.15
28.843,-11.66
28.859,-19.95
28.875,-29.3
28.890,-38.49
28.906,-45.98
28.921,-50.37
28.937,-50.6
28.953,-46.34
28.968,-38.29
28.984,-28.44
29.000,-19.84
29.015,-15.77
29.031,-18.64
29.046,-28.72
29.062,-44.0
29.078,-60.45
29.093,-73.61
29.109,-80.02
29.125,-78.28
29.140,-69.07
29.156,-54.33
29.171,-36.29
29.187,-16.67
29.203,3.33
29.218,22.8
29.234,40.65
29.250,55.62
29.265,66.53
29.281,72.86
29.296,74.92
29.312,73.69
29.328,70.39
29.343,66.01
29.359,61.1
29.375,55.81
29.390,50.12
29.406,44.19
29.421,38.53
29.437,33.88
29.453,31.01
29.468,30.36
29.484,31.8
29.500,34.68
29.515,37.99
29.531,40.7
29.546,42.1
29.562,41.93
29.578,40.47
29.593,38.17
29.609,35.5
29.625,32.67
29.640,29.62
29.656,25.96
29.671,21.09
29.687,14.32
29.703,5.13
29.718,-6.62
29.734,-20.49
29.750,-35.3
29.765,-49.42
29.781,-61.1
29.796,-68.95
29.812,-72.37
29.828,-71.59
29.843,-67.52
29.859,-61.29
29.875,-53.9
29.890,-45.95
29.906,-37.78
29.921,-29.76
29.937,-22.62
29.953,-17.31
29.968,-14.67
29.984,-14.97
30.000,-17.49
30.015,-20.71
30.031,-22.76
30.046,-22.14
30.062,-18.13
30.078,-10.82
30.093,-0.82
30.109,11.12
30.125,24.16
30.140,37.42
30.156,49.72
30.171,59.84
30.187,66.78
30.203,70.22
30.218,70.52
30.234,68.55
30.250,65.27
30.265,61.34
30.281,56.99
30.296,52.23
30.312,47.01
30.328,41.37
30.343,35.56
30.359,29.78
30.375,24.34
30.390,19.54
30.406,15.7
30.421,13.17
30.437,12.01
30.453,11.81
30.468,11.58
30.484,10.21
30.500,6.91
30.515,1.76
30.531,-4.19
30.546,-9.27
30.562,-11.79
30.578,-10.7
30.593,-5.92
30.609,1.63
30.625,10.57
30.640,19.45
30.656,27.34
30.671,33.83
30.687,38.95
30.703,42.93
30.718,45.95
30.734,48.06
30.750,49.21
30.765,49.46
30.781,48.76
30.796,47.11
30.812,44.32
30.828,40.01
30.843,33.8
30.859,25.44
30.875,15.06
30.890,3.28
30.906,-8.98
30.921,-20.8
30.937,-31.48
30.953,-40.69
30.968,-48.45
30.984,-55.05
31.000,-60.88
31.015,-66.33
31.031,-71.6
31.046,-76.6
31.062,-80.96
31.078,-83.96
31.093,-84.77
31.109,-82.71
31.125,-77.48
31.140,-69.33
31.156,-58.91
31.171,-47.04
31.187,-34.61
31.203,-22.41
31.218,-11.09
31.234,-1.12
31.250,7.14
31.265,13.64
31.281,18.49
31.296,22.04
31.312,24.72
31.328,26.94
31.343,29.03
31.359,31.21
31.375,33.64
31.390,36.3
31.406,39.17
31.421,42.08
31.437,44.85
31.453,47.29
31.468,49.23
31.484,50.56
31.500,51.22
31.515,51.12
31.531,50.04
31.546,47.72
31.562,43.89
31.578,38.37
31.593,31.22
31.609,22.69
31.625,13.24
31.640,3.5
31.656,-5.89
31.671,-14.26
31.687,-20.99
31.703,-25.48
31.718,-27.27
31.734,-26.11
31.750,-22.22
31.765,-16.15
31.781,-8.83
31.796,-1.24
31.812,5.75
31.828,11.56
31.843,15.94
31.859,18.84
31.875,20.25
31.890,20.14
31.906,18.48
31.921,15.35
31.937,11.0
31.953,5.92
31.968,0.68
31.984,-4.18
32.000,-8.33
32.015,-11.61
32.031,-14.0
32.046,-15.57
32.062,-16.33
32.078,-16.38
32.093,-15.83
32.109,-14.94
32.125,-13.96
32.140,-13.17
32.156,-12.71
32.171,-12.56
32.187,-12.61
32.203,-12.74
32.218,-12.88
32.234,-13.07
32.250,-13.35
32.265,-13.68
32.281,-14.0
32.296,-14.13
32.312,-13.85
32.328,-12.94
32.343,-11.28
32.359,-8.77
32.375,-5.55
32.390,-1.81
32.406,2.16
32.421,5.99
32.437,9.43
32.453,12.34
32.468,14.71
32.484,16.66
32.500,18.35
32.515,19.78
32.531,20.94
32.546,21.76
32.562,22.23
32.578,22.45
32.593,22.58
32.609,22.73
32.625,22.94
32.640,23.13
32.656,23.02
32.671,22.41
32.687,21.08
32.703,19.0
32.718,16.27
32.734,13.1
32.750,9.71
32.765,6.31
32.781,3.15
32.796,0.38
32.812,-1.87
32.828,-3.51
32.843,-4.56
32.859,-5.09
32.875,-5.25
32.890,-5.13
32.906,-4.78
32.921,-4.1
32.937,-2.98
32.953,-1.27
32.968,1.07
32.984,3.86
33.000,6.84
33.015,9.67
33.031,12.12
33.046,14.08
33.062,15.57
33.078,16.72
33.093,17.59
33.109,18.19
33.125,18.45
33.140,18.29
33.156,17.76
33.171,17.04
33.187,16.36
33.203,15.89
33.218,15.64
33.234,15.39
33.250,14.83
33.265,13.75
33.281,12.11
33.296,10.1
33.312,7.95
33.328,5.76
33.343,3.51
33.359,1.0
33.375,-1.95
33.390,-5.38
33.406,-9.23
33.421,-13.3
33.437,-17.39
33.453,-21.36
33.468,-25.13
33.484,-28.57
33.500,-31.56
33.515,-33.89
33.531,-35.29
33.546,-35.5
33.562,-34.33
33.578,-31.73
33.593,-27.88
33.609,-23.09
33.625,-17.71
33.640,-12.09
33.656,-6.51
33.671,-1.08
33.687,4.17
33.703,9.26
33.718,14.13
33.734,18.64
33.750,22.6
33.765,25.89
33.781,28.36
33.796,30.02
33.812,30.98
33.828,31.36
33.843,31.35
33.859,31.09
33.875,30.66
33.890,30.16
33.906,29.68
33.921,29.22
33.937,28.78
33.953,28.31
33.968,27.62
33.984,26.54
34.000,24.98
34.015,22.92
34.031,20.53
34.046,18.01
34.062,15.61
34.078,13.45
34.093,11.56
34.109,9.69
34.125,7.6
34.140,5.03
34.156,1.88
34.171,-1.69
34.187,-5.31
34.203,-8.41
34.218,-10.42
34.234,-10.9
34.250,-9.73
34.265,-6.87
34.281,-2.61
34.296,2.63
34.312,8.32
34.328,13.85
34.343,18.75
34.359,22.66
34.375,25.46
34.390,27.17
34.406,27.97
34.421,28.1
34.437,27.7
34.453,26.92
34.468,25.76
34.484,24.18
34.500,22.13
34.515,19.59
34.531,16.59
34.546,13.35
34.562,10.11
34.578,7.13
34.593,4.64
34.609,2.66
34.625,1.05
34.640,-0.38
34.656,-1.8
34.671,-3.32
34.687,-5.0
34.703,-6.81
34.718,-8.76
34.734,-10.76
34.750,-12.81
34.765,-14.89
34.781,-16.96
34.796,-19.07
34.812,-21.31
34.828,-23.9
34.843,-26.95
34.859,-30.44
34.875,-34.14
34.890,-37.57
34.906,-40.15
34.921,-41.31
34.937,-40.68
34.953,-38.24
34.968,-34.37
34.984,-29.62
35.000,-24.56
35.015,-19.66
35.031,-15.13
35.046,-11.06
35.062,-7.38
35.078,-4.13
35.093,-1.38
35.109,0.7
35.125,2.09
35.140,2.78
35.156,2.95
35.171,2.8
35.187,2.51
35.203,2.17
35.218,1.76
35.234,1.18
35.250,0.32
35.265,-0.77
35.281,-2.01
35.296,-3.22
35.312,-4.21
35.328,-4.91
35.343,-5.31
35.359,-5.43
35.375,-5.29
35.390,-4.93
35.406,-4.41
35.421,-3.91
35.437,-3.62
35.453,-3.72
35.468,-4.34
35.484,-5.46
35.500,-6.92
35.515,-8.6
35.531,-10.43
35.546,-12.47
35.562,-14.82
35.578,-17.48
35.593,-20.18
35.609,-22.53
35.625,-24.04
35.640,-24.28
35.656,-23.11
35.671,-20.62
35.687,-17.09
35.703,-12.9
35.718,-8.38
35.734,-3.78
35.750,0.69
35.765,4.86
35.781,8.64
35.796,11.88
35.812,14.52
35.828,16.57
35.843,18.0
35.859,18.88
35.875,19.26
35.890,19.22
35.906,18.88
35.921,18.41
35.937,17.91
35.953,17.51
35.968,17.27
35.984,17.11
36.000,17.01
36.015,16.98
36.031,17.07
36.046,17.34
36.062,17.84
36.078,18.43
36.093,18.87
36.109,18.89
36.125,18.2
36.140,16.69
36.156,14.46
36.171,11.8
36.187,9.11
36.203,6.71
36.218,4.79
36.234,3.32
36.250,2.11
36.265,0.85
36.281,-0.67
36.296,-2.63
36.312,-5.08
36.328,-7.82
36.343,-10.58
36.359,-12.94
36.375,-14.43
36.390,-14.7
36.406,-13.61
36.421,-11.16
36.437,-7.64
36.453,-3.4
36.468,1.28
36.484,6.11
36.500,10.88
36.515,15.32
36.531,19.06
36.546,21.72
36.562,23.02
36.578,22.87
36.593,21.49
36.609,19.23
36.625,16.57
36.640,13.96
36.656,11.73
36.671,10.12
36.687,9.24
36.703,9.09
36.718,9.49
36.734,10.15
36.750,10.75
36.765,10.94
36.781,10.54
36.796,9.48
36.812,7.77
36.828,5.48
36.843,2.72
36.859,-0.41
36.875,-3.74
36.890,-7.03
36.906,-9.98
36.921,-12.3
36.937,-13.75
36.953,-14.27
36.968,-13.92
36.984,-12.98
37.000,-11.84
37.015,-10.94
37.031,-10.58
37.046,-10.87
37.062,-11.69
37.078,-12.76
37.093,-13.8
37.109,-14.62
37.125,-15.08
37.140,-15.12
37.156,-14.66
37.171,-13.54
37.187,-11.6
37.203,-8.78
37.218,-5.19
37.234,-1.07
37.250,3.21
37.265,7.29
37.281,10.88
37.296,13.57
37.312,15.1
37.328,15.16
37.343,13.72
37.359,11.01
37.375,7.57
37.390,4.02
37.406,0.91
37.421,-1.43
37.437,-3.01
37.453,-3.81
37.468,-3.92
37.484,-3.28
37.500,-1.83
37.515,0.45
37.531,3.35
37.546,6.55
37.562,9.62
37.578,12.18
37.593,13.93
37.609,14.57
37.625,13.97
37.640,12.12
37.656,9.28
37.671,5.88
37.687,2.42
37.703,-0.69
37.718,-3.25
37.734,-5.25
37.750,-6.95
37.765,-8.66
37.781,-10.57
37.796,-12.84
37.812,-15.36
37.828,-17.87
37.843,-20.02
37.859,-21.48
37.875,-21.99
37.890,-21.45
37.906,-19.9
37.921,-17.42
37.937,-14.21
37.953,-10.46
37.968,-6.38
37.984,-2.21
38.000,1.82
38.015,5.51
38.031,8.77
38.046,11.6
38.062,14.13
38.078,16.57
38.093,19.17
38.109,22.12
38.125,25.59
38.140,29.56
38.156,34.01
38.171,38.94
38.187,44.39
38.203,50.32
38.218,56.56
38.234,62.73
38.250,68.25
38.265,72.57
38.281,75.25
38.296,76.28
38.312,75.92
38.328,74.51
38.343,72.24
38.359,69.04
38.375,64.66
38.390,58.8
38.406,51.48
38.421,42.89
38.437,33.56
38.453,24.04
38.468,14.85
38.484,6.28
38.500,-1.46
38.515,-8.29
38.531,-14.24
38.546,-19.21
38.562,-23.15
38.578,-25.88
38.593,-27.31
38.609,-27.36
38.625,-26.21
38.640,-24.16
38.656,-21.61
38.671,-19.04
38.687,-16.76
38.703,-14.9
38.718,-13.4
38.734,-11.96
38.750,-10.16
38.765,-7.54
38.781,-3.79
38.796,1.12
38.812,6.9
38.828,13.03
38.843,18.85
38.859,23.79
38.875,27.6
38.890,30.26
38.906,32.18
38.921,33.86
38.937,35.9
38.953,38.76
38.968,42.72
38.984,47.77
39.000,53.73
39.015,60.43
39.031,67.7
39.046,75.44
39.062,83.5
39.078,91.58
39.093,99.14
39.109,105.6
39.125,110.49
39.140,113.63
39.156,115.36
39.171,116.51
39.187,118.22
39.203,121.74
39.218,127.97
39.234,137.0
39.250,147.88
39.265,158.65
39.281,166.84
39.296,170.19
39.312,167.51
39.328,159.13
39.343,146.84
39.359,133.13
39.375,120.21
39.390,109.18
39.406,99.63
39.421,89.98
39.437,78.25
39.453,62.91
39.468,43.65
39.484,21.49
39.500,-1.39
39.515,-22.32
39.531,-38.8
39.546,-49.2
39.562,-53.18
39.578,-51.92
39.593,-47.85
39.609,-43.97
39.625,-42.86
39.640,-45.69
39.656,-51.94
39.671,-59.71
39.687,-66.9
39.703,-72.38
39.718,-76.68
39.734,-81.72
39.750,-89.74
39.765,-102.04
39.781,-118.21
39.796,-136.43
39.812,-154.28
39.828,-169.75
39.843,-181.69
39.859,-189.6
39.875,-193.22
39.890,-192.17
39.906,-186.36
39.921,-176.37
39.937,-163.87
39.953,-151.39
39.968,-141.38
39.984,-135.45
40.000,-133.57
40.015,-134.3
40.031,-135.57
40.046,-135.66
40.062,-133.81
40.078,-130.43
40.093,-126.81
40.109,-124.55
40.125,-125.16
40.140,-129.3
40.156,-136.53
40.171,-145.25
40.187,-153.08
40.203,-157.49
40.218,-156.62
40.234,-149.99
40.250,-138.54
40.265,-124.34
40.281,-109.67
40.296,-96.28
40.312,-84.87
40.328,-75.12
40.343,-65.98
40.359,-56.41
40.375,-45.91
40.390,-34.97
40.406,-25.0
40.421,-17.64
40.437,-14.04
40.453,-14.1
40.468,-16.29
40.484,-18.31
40.500,-18.22
40.515,-15.32
40.531,-10.51
40.546,-5.77
40.562,-3.09
40.578,-3.53
40.593,-7.02
40.609,-12.73
40.625,-19.55
40.640,-26.07
40.656,-29.95
40.671,-28.1
40.687,-17.7
40.703,1.77
40.718,26.71
40.734,49.5
40.750,61.11
40.765,55.1
40.781,30.94
40.796,-5.63
40.812,-45.5
40.828,-80.83
40.843,-108.35
40.859,-129.59
40.875,-148.2
40.890,-166.24
40.906,-182.24
40.921,-191.99
40.937,-191.42
40.953,-179.49
40.968,-159.12
40.984,-135.83
41.000,-114.99
41.015,-99.45
41.031,-88.61
41.046,-79.51
41.062,-68.71
41.078,-54.3
41.093,-36.68
41.109,-18.11
41.125,-1.42
41.140,11.3
41.156,19.83
41.171,25.67
41.187,31.14
41.203,38.23
41.218,47.51
41.234,58.0
41.250,67.77
41.265,75.06
41.281,79.12
41.296,80.62
41.312,81.14
41.328,82.32
41.343,84.98
41.359,88.84
41.375,92.76
41.390,95.53
41.406,96.48
41.421,95.78
41.437,94.12
41.453,92.2
41.468,90.27
41.484,88.02
41.500,84.92
41.515,80.69
41.531,75.52
41.546,70.11
41.562,65.36
41.578,62.05
41.593,60.55
41.609,60.62
41.625,61.52
41.640,62.13
41.656,61.39
41.671,58.73
41.687,54.33
41.703,49.18
41.718,44.86
41.734,43.01
41.750,44.68
41.765,49.98
41.781,58.08
41.796,67.48
41.812,76.49
41.828,83.75
41.843,88.46
41.859,90.48
41.875,90.24
41.890,88.62
41.906,86.73
41.921,85.72
41.937,86.56
41.953,89.88
41.968,95.85
41.984,103.99
42.000,113.36
42.015,122.83
42.031,131.38
42.046,138.64
42.062,144.77
42.078,150.21
42.093,155.04
42.109,158.51
42.125,159.04
42.140,154.8
42.156,144.5
42.171,127.77
42.187,105.27
42.203,78.03
42.218,46.93
42.234,12.55
42.250,-24.6
42.265,-63.51
42.281,-102.31
42.296,-138.55
42.312,-169.85
42.328,-194.63
42.343,-212.68
42.359,-225.05
42.375,-233.38
42.390,-239.23
42.406,-243.35
42.421,-245.46
42.437,-244.46
42.453,-239.1
42.468,-228.6
42.484,-213.19
42.500,-194.18
42.515,-173.55
42.531,-153.36
42.546,-135.19
42.562,-119.98
42.578,-108.13
42.593,-99.75
42.609,-94.82
42.625,-93.15
42.640,-94.41
42.656,-97.99
42.671,-103.11
42.687,-108.85
42.703,-114.34
42.718,-118.68
42.734,-121.0
42.750,-120.51
42.765,-116.78
42.781,-109.82
42.796,-100.19
42.812,-88.9
42.828,-76.88
42.843,-64.74
42.859,-52.68
42.875,-40.51
42.890,-27.99
42.906,-15.09
42.921,-2.15
42.937,10.29
42.953,21.66
42.968,31.56
42.984,39.96
43.000,47.01
43.015,53.03
43.031,58.19
43.046,62.45
43.062,65.45
43.078,66.79
43.093,66.25
43.109,63.95
43.125,60.39
43.140,56.22
43.156,52.04
43.171,48.17
43.187,44.61
43.203,41.15
43.218,37.46
43.234,33.34
43.250,28.74
43.265,23.72
43.281,18.43
43.296,13.06
43.312,7.94
43.328,3.52
43.343,0.41
43.359,-0.71
43.375,0.72
43.390,4.86
43.406,11.51
43.421,19.99
43.437,29.41
43.453,38.85
43.468,47.61
43.484,55.21
43.500,61.43
43.515,66.15
43.531,69.29
43.546,70.94
43.562,71.21
43.578,70.32
43.593,68.5
43.609,66.03
43.625,63.14
43.640,60.09
43.656,57.2
43.671,54.71
43.687,52.81
43.703,51.47
43.718,50.51
43.734,49.63
43.750,48.57
43.765,47.23
43.781,45.52
43.796,43.38
43.812,40.62
43.828,37.15
43.843,32.99
43.859,28.46
43.875,24.12
43.890,20.47
43.906,17.79
43.921,15.9
43.937,14.32
43.953,12.52
43.968,10.32
43.984,7.84
44.000,5.44
44.015,3.43
44.031,1.79
44.046,0.35
44.062,-1.17
44.078,-2.75
44.093,-4.17
44.109,-4.97
44.125,-4.83
44.140,-3.75
44.156,-2.13
44.171,-0.58
44.187,0.39
44.203,0.46
44.218,-0.26
44.234,-1.47
44.250,-2.83
44.265,-4.1
44.281,-5.25
44.296,-6.34
44.312,-7.46
44.328,-8.54
44.343,-9.49
44.359,-10.11
44.375,-10.24
44.390,-9.9
44.406,-9.19
44.421,-8.27
44.437,-7.27
44.453,-6.26
44.468,-5.12
44.484,-3.7
44.500,-1.74
44.515,0.96
44.531,4.39
44.546,8.37
44.562,12.48
44.578,16.22
44.593,19.19
44.609,21.32
44.625,22.94
44.640,24.84
44.656,27.92
44.671,32.9
44.687,40.05
44.703,49.01
44.718,59.04
44.734,69.24
44.750,78.96
44.765,87.9
44.781,96.09
44.796,103.64
44.812,110.56
44.828,116.72
44.843,121.95
44.859,126.12
44.875,129.23
44.890,131.45
44.906,132.85
44.921,133.38
44.937,132.82
44.953,130.99
44.968,127.74
44.984,123.07
45.000,116.83
45.015,108.57
45.031,97.52
45.046,82.78
45.062,63.99
45.078,41.85
45.093,18.37
45.109,-3.6
45.125,-21.19
45.140,-32.45
45.156,-36.83
45.171,-35.08
45.187,-28.68
45.203,-19.12
45.218,-7.42
45.234,5.87
45.250,20.56
45.265,36.44
45.281,53.18
45.296,70.26
45.312,86.84
45.328,101.82
45.343,114.01
45.359,122.28
45.375,126.0
45.390,125.32
45.406,121.11
45.421,114.79
45.437,107.86
45.453,101.46
45.468,96.2
45.484,92.33
45.500,89.74
45.515,88.18
45.531,87.24
45.546,86.31
45.562,84.56
45.578,80.94
45.593,74.18
45.609,62.91
45.625,45.88
45.640,22.2
45.656,-8.24
45.671,-44.54
45.687,-84.79
45.703,-126.41
45.718,-166.59
45.734,-202.95
45.750,-233.83
45.765,-258.32
45.781,-276.24
45.796,-287.82
45.812,-293.63
45.828,-294.4
45.843,-290.96
45.859,-284.18
45.875,-274.85
45.890,-263.76
45.906,-251.65
45.921,-239.22
45.937,-226.9
45.953,-214.96
45.968,-203.41
45.984,-192.11
46.000,-180.87
46.015,-169.48
46.031,-157.82
46.046,-145.7
46.062,-132.91
46.078,-119.1
46.093,-104.06
46.109,-87.78
46.125,-70.69
46.140,-53.54
46.156,-37.43
46.171,-23.36
46.187,-11.99
46.203,-3.53
46.218,2.37
46.234,6.5
46.250,9.74
46.265,12.77
46.281,16.04
46.296,19.65
46.312,23.55
46.328,27.72
46.343,32.06
46.359,36.5
46.375,40.88
46.390,45.01
46.406,48.73
46.421,51.92
46.437,54.65
46.453,56.98
46.468,58.99
46.484,60.6
46.500,61.65
46.515,61.95
46.531,61.41
46.546,60.2
46.562,58.54
46.578,56.84
46.593,55.36
46.609,54.31
46.625,53.66
46.640,53.29
46.656,52.89
46.671,52.17
46.687,50.91
46.703,48.94
46.718,46.4
46.734,43.52
46.750,40.73
46.765,38.48
46.781,37.24
46.796,37.27
46.812,38.68
46.828,41.43
46.843,45.28
46.859,49.88
46.875,54.81
46.890,59.5
46.906,63.29
46.921,65.47
46.937,65.34
46.953,62.39
46.968,56.52
46.984,48.04
47.000,37.79
47.015,26.97
47.031,16.84
47.046,8.49
47.062,2.55
47.078,-0.85
47.093,-2.18
47.109,-2.15
47.125,-1.74
47.140,-1.78
47.156,-3.03
47.171,-6.0
47.187,-10.85
47.203,-17.5
47.218,-25.41
47.234,-33.62
47.250,-40.88
47.265,-45.9
47.281,-47.59
47.296,-45.7
47.312,-40.74
47.328,-33.95
47.343,-26.79
47.359,-20.33
47.375,-14.81
47.390,-9.46
47.406,-2.9
47.421,6.29
47.437,18.91
47.453,34.68
47.468,52.4
47.484,70.17
47.500,86.03
47.515,98.32
47.531,106.04
47.546,108.97
47.562,107.57
47.578,102.79
47.593,95.66
47.609,87.0
47.625,77.01
47.640,65.31
47.656,51.13
47.671,33.79
47.687,13.3
47.703,-9.45
47.718,-32.74
47.734,-54.43
47.750,-72.58
47.765,-85.96
47.781,-94.19
47.796,-97.82
47.812,-98.07
47.828,-96.35
47.843,-94.01
47.859,-92.05
47.875,-91.02
47.890,-90.99
47.906,-91.65
47.921,-92.41
47.937,-92.51
47.953,-91.17
47.968,-87.61
47.984,-81.23
48.000,-71.78
48.015,-59.43
48.031,-44.86
48.046,-28.92
48.062,-12.44
48.078,4.2
48.093,21.19
48.109,39.19
48.125,58.97
48.140,81.0
48.156,105.33
48.171,131.38
48.187,158.36
48.203,185.43
48.218,211.9
48.234,237.13
48.250,260.27
48.265,280.13
48.281,295.41
48.296,305.14
48.312,309.03
48.328,307.64
48.343,301.71
48.359,291.58
48.375,276.72
48.390,256.03
48.406,228.8
48.421,195.69
48.437,159.1
48.453,122.43
48.468,88.71
48.484,59.35
48.500,33.83
48.515,10.46
48.531,-12.25
48.546,-34.58
48.562,-55.51
48.578,-73.47
48.593,-87.36
48.609,-97.11
48.625,-103.58
48.640,-108.04
48.656,-111.58
48.671,-114.81
48.687,-117.92
48.703,-120.88
48.718,-123.58
48.734,-125.87
48.750,-127.58
48.765,-128.53
48.781,-128.56
48.796,-127.6
48.812,-125.64
48.828,-122.63
48.843,-118.58
48.859,-113.59
48.875,-107.96
48.890,-102.2
48.906,-96.76
48.921,-91.84
48.937,-87.22
48.953,-82.31
48.968,-76.37
48.984,-68.91
49.000,-59.86
49.015,-49.78
49.031,-39.72
49.046,-30.87
49.062,-24.43
49.078,-21.23
49.093,-21.57
49.109,-25.15
49.125,-31.26
49.140,-38.85
49.156,-46.89
49.171,-54.59
49.187,-61.4
49.203,-67.12
49.218,-71.77
49.234,-75.38
49.250,-78.03
49.265,-79.85
49.281,-81.09
49.296,-82.09
49.312,-83.29
49.328,-85.01
49.343,-87.41
49.359,-90.44
49.375,-93.82
49.390,-97.21
49.406,-100.35
49.421,-103.05
49.437,-105.26
49.453,-107.06
49.468,-108.6
49.484,-110.17
49.500,-112.08
49.515,-114.61
49.531,-118.06
49.546,-122.48
49.562,-127.66
49.578,-133.13
49.593,-138.21
49.609,-142.12
49.625,-144.29
49.640,-144.51
49.656,-142.83
49.671,-139.64
49.687,-135.27
49.703,-129.9
49.718,-123.44
49.734,-115.65
49.750,-106.35
49.765,-95.64
49.781,-84.02
49.796,-72.2
49.812,-60.93
49.828,-50.79
49.843,-42.07
49.859,-34.91
49.875,-29.31
49.890,-25.22
49.906,-22.57
49.921,-21.22
49.937,-20.77
49.953,-20.76
49.968,-20.71
49.984,-20.32
50.000,-19.62
50.015,-18.94
50.031,-18.72
50.046,-19.29
50.062,-20.59
50.078,-22.07
50.093,-22.98
50.109,-22.52
50.125,-20.2
50.140,-16.06
50.156,-10.6
50.171,-4.74
50.187,0.55
50.203,4.45
50.218,6.53
50.234,6.75
50.250,5.49
50.265,3.41
50.281,1.08
50.296,-1.02
50.312,-2.7
50.328,-3.9
50.343,-4.63
50.359,-4.78
50.375,-4.28
50.390,-3.12
50.406,-1.38
50.421,0.57
50.437,2.3
50.453,3.46
50.468,3.86
50.484,3.52
50.500,2.72
50.515,1.76
50.531,0.95
50.546,0.5
50.562,0.48
50.578,0.86
50.593,1.45
50.609,1.93
50.625,1.93
50.640,1.25
50.671,-1.42
50.687,-2.21
50.703,-1.54
50.718,1.41
50.734,7.04
50.750,15.25
50.765,25.42
50.781,36.58
50.796,47.65
50.812,57.74
50.828,66.38
50.843,73.48
50.859,79.35
50.875,84.43
50.890,89.08
50.906,93.49
50.921,97.68
50.937,101.57
50.953,105.03
50.968,107.9
50.984,109.88
51.000,110.57
51.015,109.27
51.031,105.0
51.046,96.59
51.062,82.88
51.078,63.22
51.093,37.72
51.109,7.7
51.125,-24.55
51.140,-55.97
51.156,-83.49
51.171,-104.58
51.187,-117.81
51.203,-122.9
51.218,-120.56
51.234,-112.27
51.250,-99.71
51.265,-84.66
51.281,-68.63
51.296,-52.77
51.312,-37.71
51.328,-23.47
51.343,-9.61
51.359,4.64
51.375,19.98
51.390,36.84
51.406,55.12
51.421,74.26
51.437,93.39
51.453,111.63
51.468,128.29
51.484,143.02
51.500,155.99
51.515,167.88
51.531,179.64
51.546,192.16
51.562,205.94
51.578,220.75
51.593,235.61
51.609,249.09
51.625,259.9
51.640,267.49
51.656,272.29
51.671,275.66
51.687,279.35
51.703,284.87
51.718,293.04
51.734,303.53
51.750,315.12
51.765,326.01
51.781,334.34
51.796,338.49
51.812,337.21
51.828,329.65
51.843,315.27
51.859,294.11
51.875,266.87
51.890,235.13
51.906,201.0
51.921,166.55
51.937,133.27
51.953,101.91
51.968,72.61
51.984,45.45
52.000,20.75
52.015,-0.96
52.031,-19.32
52.046,-34.62
52.062,-47.84
52.078,-60.46
52.093,-73.9
52.109,-89.13
52.125,-106.41
52.140,-125.21
52.156,-144.42
52.171,-162.56
52.187,-178.35
52.203,-190.99
52.218,-200.57
52.234,-207.93
52.250,-214.38
52.265,-220.98
52.281,-227.95
52.296,-234.69
52.312,-239.95
52.328,-242.46
52.343,-241.22
52.359,-235.7
52.375,-225.43
52.390,-210.09
52.406,-189.6
52.421,-164.56
52.437,-136.54
52.453,-107.84
52.468,-80.78
52.484,-56.74
52.500,-35.64
52.515,-16.2
52.531,3.05
52.546,22.71
52.562,42.09
52.578,59.71
52.593,74.42
52.609,85.99
52.625,95.05
52.640,102.07
52.656,106.63
52.671,107.14
52.687,101.56
52.703,88.57
52.718,68.24
52.734,41.93
52.750,11.28
52.765,-22.63
52.781,-59.26
52.796,-97.61
52.812,-135.17
52.828,-167.91
52.843,-191.18
52.859,-201.91
52.875,-200.03
52.890,-188.78
52.906,-173.33
52.921,-158.59
52.937,-147.28
52.953,-139.21
52.968,-132.03
52.984,-122.78
53.000,-109.65
53.015,-92.83
53.031,-74.43
53.046,-57.38
53.062,-44.29
53.078,-36.61
53.093,-34.21
53.109,-35.74
53.125,-39.36
53.140,-43.64
53.156,-47.98
53.171,-52.6
53.187,-58.06
53.203,-64.6
53.218,-71.87
53.234,-78.98
53.250,-84.79
53.265,-88.37
53.281,-89.37
53.296,-87.85
53.312,-84.1
53.328,-78.44
53.343,-71.05
53.359,-61.96
53.375,-51.27
53.390,-39.31
53.406,-26.7
53.421,-14.34
53.437,-3.16
53.453,6.23
53.468,13.57
53.484,19.1
53.500,23.41
53.515,27.14
53.531,30.71
53.546,34.21
53.562,37.27
53.578,39.4
53.593,40.22
53.609,39.62
53.625,37.86
53.640,35.37
53.656,32.59
53.671,29.73
53.687,26.78
53.703,23.48
53.718,19.59
53.734,15.06
53.750,10.07
53.765,4.96
53.781,0.14
53.796,-4.05
53.812,-7.4
53.828,-9.76
53.843,-11.25
53.859,-12.19
53.875,-13.13
53.890,-14.73
53.906,-17.44
53.921,-21.2
53.937,-25.35
53.953,-28.77
53.968,-30.21
53.984,-28.85
54.000,-24.58
54.015,-18.03
54.031,-10.31
54.046,-2.55
54.062,4.45
54.078,10.25
54.093,14.81
54.109,18.23
54.125,20.66
54.140,22.21
54.156,23.05
54.171,23.4
54.187,23.63
54.203,24.2
54.218,25.53
54.234,27.89
54.250,31.27
54.265,35.36
54.281,39.67
54.296,43.75
54.312,47.32
54.328,50.34
54.343,52.99
54.359,55.44
54.375,57.64
54.390,59.3
54.406,59.91
54.421,58.89
54.437,55.81
54.453,50.47
54.468,42.94
54.484,33.55
54.500,22.7
54.515,10.82
54.531,-1.66
54.546,-14.31
54.562,-26.66
54.578,-38.06
54.593,-47.73
54.609,-54.76
54.625,-58.32
54.640,-57.91
54.656,-53.54
54.671,-45.82
54.687,-35.76
54.703,-24.65
54.718,-13.65
54.734,-3.59
54.750,5.08
54.765,12.27
54.781,18.0
54.796,22.37
54.812,25.42
54.828,27.22
54.843,27.86
54.859,27.65
54.875,26.98
54.890,26.26
54.906,25.85
54.921,25.82
54.937,26.06
54.953,26.26
54.968,26.12
54.984,25.49
55.000,24.37
55.015,22.88
55.031,21.12
55.046,19.15
55.062,16.96
55.078,14.57
55.093,12.04
55.109,9.56
55.125,7.25
55.140,5.07
55.156,2.85
55.171,0.25
55.187,-2.92
55.203,-6.63
55.218,-10.54
55.234,-14.06
55.250,-16.47
55.265,-17.15
55.281,-15.76
55.296,-12.27
55.312,-7.0
55.328,-0.55
55.343,6.39
55.359,13.15
55.375,19.18
55.390,24.15
55.406,27.88
55.421,30.38
55.437,31.77
55.453,32.26
55.468,32.08
55.484,31.52
55.500,30.86
55.515,30.22
55.531,29.66
55.546,29.09
55.562,28.38
55.578,27.43
55.593,26.19
55.609,24.75
55.625,23.28
55.640,21.9
55.656,20.64
55.671,19.42
55.687,18.12
55.703,16.59
55.718,14.82
55.734,12.84
55.750,10.8
55.765,8.81
55.781,6.95
55.796,5.19
55.812,3.39
55.828,1.41
55.843,-0.99
55.859,-3.85
55.875,-7.13
55.890,-10.48
55.906,-13.33
55.921,-14.93
55.937,-14.61
55.953,-11.97
55.968,-7.06
55.984,-0.37
56.000,7.4
56.015,15.43
56.031,23.11
56.046,30.04
56.062,36.09
56.078,41.23
56.093,45.4
56.109,48.57
56.125,50.61
56.140,51.49
56.156,51.3
56.171,50.21
56.187,48.55
56.203,46.69
56.218,44.88
56.234,43.24
56.250,41.75
56.265,40.28
56.281,38.78
56.296,37.36
56.312,36.18
56.328,35.52
56.343,35.52
56.359,36.1
56.375,36.98
56.390,37.78
56.406,38.14
56.421,37.73
56.437,36.44
56.453,34.24
56.468,31.29
56.484,27.82
56.500,24.06
56.515,20.22
56.531,16.43
56.546,12.78
56.562,9.32
56.578,6.08
56.593,3.18
56.609,0.8
56.625,-0.83
56.640,-1.51
56.656,-1.14
56.671,0.17
56.687,2.03
56.703,3.86
56.718,5.05
56.734,5.06
56.750,3.68
56.765,0.92
56.781,-2.92
56.796,-7.4
56.812,-12.04
56.828,-16.47
56.843,-20.44
56.859,-23.82
56.875,-26.61
56.890,-28.89
56.906,-30.81
56.921,-32.55
56.937,-34.21
56.953,-35.91
56.968,-37.59
56.984,-39.2
57.000,-40.64
57.015,-41.81
57.031,-42.69
57.046,-43.33
57.062,-43.79
57.078,-44.1
57.093,-44.36
57.109,-44.6
57.125,-44.93
57.140,-45.44
57.156,-46.24
57.171,-47.33
57.187,-48.62
57.203,-49.84
57.218,-50.67
57.234,-50.69
57.250,-49.46
57.265,-46.57
57.281,-41.68
57.296,-34.68
57.312,-25.81
57.328,-15.63
57.343,-4.99
57.359,5.18
57.375,14.18
57.390,21.67
57.406,27.63
57.421,32.24
57.437,35.76
57.453,38.21
57.468,39.51
57.484,39.49
57.500,38.14
57.515,35.67
57.531,32.59
57.546,29.56
57.562,27.17
57.578,25.81
57.593,25.34
57.609,25.21
57.625,24.5
57.640,22.29
57.656,17.97
57.671,11.5
57.687,3.42
57.703,-5.24
57.718,-13.31
57.734,-19.76
57.750,-23.99
57.765,-26.07
57.781,-26.87
57.796,-27.92
57.812,-31.08
57.828,-37.94
57.843,-49.02
57.859,-63.41
57.875,-78.78
57.890,-92.11
57.906,-100.64
57.921,-102.86
57.937,-98.78
57.953,-89.71
57.968,-77.51
57.984,-63.82
58.000,-49.81
58.015,-36.17
58.031,-23.45
58.046,-12.24
58.062,-3.2
58.078,3.28
58.093,7.3
58.109,9.49
58.125,10.76
58.140,11.86
58.156,13.13
58.171,14.45
58.187,15.42
58.203,15.73
58.218,15.4
58.234,14.68
58.250,14.03
58.265,13.88
58.281,14.4
58.296,15.54
58.312,16.93
58.328,18.01
58.343,18.23
58.359,17.23
58.375,14.96
58.390,11.72
58.406,8.02
58.421,4.41
58.437,1.26
58.453,-1.3
58.468,-3.32
58.484,-4.8
58.500,-5.6
58.515,-5.4
58.531,-3.83
58.546,-0.65
58.562,4.17
58.578,10.31
58.593,17.24
58.609,24.36
58.625,31.13
58.640,37.15
58.656,42.14
58.671,45.92
58.687,48.41
58.703,49.64
58.718,49.84
58.734,49.43
58.750,48.93
58.765,48.71
58.781,48.94
58.796,49.4
58.812,49.74
58.828,49.6
58.843,48.73
58.859,47.14
58.875,45.02
58.890,42.63
58.906,40.1
58.921,37.56
58.937,34.98
58.953,32.29
58.968,29.39
58.984,26.15
59.000,22.46
59.015,18.25
59.031,13.54
59.046,8.39
59.062,2.9
59.078,-2.88
59.093,-8.79
59.109,-14.52
59.125,-19.58
59.140,-23.25
59.156,-24.8
59.171,-23.84
59.187,-20.46
59.203,-15.21
59.218,-9.08
59.234,-3.0
59.250,2.28
59.265,6.36
59.281,9.2
59.296,10.92
59.312,11.61
59.328,11.38
59.343,10.31
59.359,8.52
59.375,6.24
59.390,3.79
59.406,1.45
59.421,-0.51
59.437,-2.0
59.453,-3.03
59.468,-3.68
59.484,-4.05
59.500,-4.24
59.515,-4.41
59.531,-4.67
59.546,-5.22
59.562,-6.21
59.578,-7.73
59.593,-9.76
59.609,-12.18
59.625,-14.8
59.640,-17.5
59.656,-20.29
59.671,-23.17
59.687,-26.14
59.703,-28.94
59.718,-31.11
59.734,-32.01
59.750,-31.04
59.765,-27.8
59.781,-22.28
59.796,-14.87
59.812,-6.28
59.828,2.54
59.843,10.65
59.859,17.3
59.875,22.02
59.890,24.73
59.906,25.7
59.921,25.28
59.937,23.81
59.953,21.53
59.968,18.58
59.984,15.2
