timestamp,value
00.000,33.64
00.015,34.38
00.031,34.39
00.046,34.21
00.062,34.33
00.078,34.92
00.093,35.8
00.109,36.49
00.125,36.42
00.140,35.1
00.156,32.31
00.171,28.11
00.187,22.68
00.203,16.19
00.218,8.71
00.234,0.25
00.250,-9.16
00.265,-19.32
00.281,-29.78
00.296,-39.92
00.312,-48.99
00.328,-56.19
00.343,-60.79
00.359,-62.22
00.375,-60.21
00.390,-54.95
00.406,-47.13
00.421,-37.8
00.437,-28.1
00.453,-19.0
00.468,-11.03
00.484,-4.32
00.500,1.32
00.515,6.2
00.531,10.56
00.546,14.56
00.562,18.24
00.578,21.58
00.593,24.5
00.609,26.91
00.625,28.73
00.640,29.98
00.656,30.73
00.671,31.02
00.687,30.8
00.703,29.74
00.718,27.34
00.734,23.05
00.750,16.55
00.765,7.91
00.781,-2.3
00.796,-13.09
00.812,-23.27
00.828,-31.75
00.843,-37.75
00.859,-40.98
00.875,-41.58
00.890,-40.04
00.906,-36.89
00.921,-32.64
00.937,-27.49
00.953,-21.48
00.968,-14.59
00.984,-6.8
01.000,1.58
01.015,10.08
01.031,17.94
01.046,24.53
01.062,29.44
01.078,32.75
01.093,34.93
01.109,36.68
01.125,38.59
01.140,40.88
01.156,43.35
01.171,45.47
01.187,46.65
01.203,46.55
01.218,45.09
01.234,42.45
01.250,38.83
01.265,34.3
01.281,28.8
01.296,22.2
01.312,14.47
01.328,5.78
01.343,-3.5
01.359,-12.85
01.375,-21.68
01.390,-29.45
01.406,-35.65
01.421,-39.94
01.437,-42.09
01.453,-42.16
01.468,-40.47
01.484,-37.6
01.500,-34.17
01.515,-30.66
01.531,-27.23
01.546,-23.67
01.562,-19.56
01.578,-14.52
01.593,-8.42
01.609,-1.41
01.625,6.14
01.640,13.84
01.656,21.36
01.671,28.54
01.687,35.32
01.703,41.58
01.718,47.14
01.734,51.62
01.750,54.62
01.765,55.77
01.781,54.88
01.796,51.92
01.812,47.0
01.828,40.19
01.843,31.45
01.859,20.7
01.875,8.09
01.890,-5.84
01.906,-20.06
01.921,-33.15
01.937,-43.72
01.953,-50.72
01.968,-53.74
01.984,-53.01
02.000,-49.24
02.015,-43.4
02.031,-36.57
02.046,-29.76
02.062,-23.8
02.078,-19.15
02.093,-15.84
02.109,-13.45
02.125,-11.25
02.140,-8.48
02.156,-4.56
02.171,0.69
02.187,7.13
02.203,14.3
02.218,21.67
02.234,28.68
02.250,34.88
02.265,39.89
02.281,43.41
02.296,45.17
02.312,45.03
02.328,42.95
02.343,39.07
02.359,33.73
02.375,27.45
02.390,20.9
02.406,14.72
02.421,9.47
02.437,5.52
02.453,3.1
02.468,2.26
02.484,3.04
02.500,5.43
02.515,9.35
02.531,14.66
02.546,21.02
02.562,27.9
02.578,34.65
02.593,40.67
02.609,45.51
02.625,49.01
02.640,51.33
02.656,52.85
02.671,54.19
02.687,56.05
02.703,59.11
02.718,63.97
02.734,70.98
02.750,80.1
02.765,90.83
02.781,102.17
02.796,112.64
02.812,120.67
02.828,124.84
02.843,124.33
02.859,119.14
02.875,110.08
02.890,98.33
02.906,84.98
02.921,70.59
02.937,55.1
02.953,38.07
02.968,19.17
02.984,-1.54
03.000,-23.48
03.015,-45.82
03.031,-67.68
03.046,-88.19
03.062,-106.35
03.078,-121.0
03.093,-130.92
03.109,-135.39
03.125,-134.6
03.140,-129.87
03.156,-123.29
03.171,-116.88
03.187,-111.87
03.203,-108.26
03.218,-105.13
03.234,-101.29
03.250,-95.98
03.265,-89.11
03.281,-81.11
03.296,-72.42
03.312,-63.21
03.328,-53.33
03.343,-42.65
03.359,-31.39
03.375,-20.29
03.390,-10.49
03.406,-3.29
03.421,0.29
03.437,-0.28
03.453,-5.03
03.468,-13.42
03.484,-24.49
03.500,-36.9
03.515,-49.14
03.531,-59.69
03.546,-67.36
03.562,-71.49
03.578,-72.01
03.593,-69.34
03.609,-64.27
03.625,-57.67
03.640,-50.48
03.656,-43.57
03.671,-37.67
03.687,-33.22
03.703,-30.4
03.718,-29.03
03.734,-28.78
03.750,-29.21
03.765,-29.94
03.781,-30.67
03.796,-31.23
03.812,-31.5
03.828,-31.4
03.843,-30.82
03.859,-29.62
03.875,-27.56
03.890,-24.4
03.906,-19.98
03.921,-14.38
03.937,-7.93
03.953,-1.16
03.968,5.35
03.984,11.1
04.000,15.77
04.015,19.17
04.031,21.28
04.046,22.21
04.062,22.23
04.078,21.81
04.093,21.56
04.109,22.04
04.125,23.53
04.140,25.97
04.156,28.84
04.171,31.44
04.187,33.08
04.203,33.35
04.218,32.3
04.234,30.37
04.250,28.18
04.265,26.31
04.281,25.12
04.296,24.64
04.312,24.67
04.328,24.88
04.343,25.03
04.359,24.92
04.375,24.51
04.390,23.9
04.406,23.32
04.421,23.15
04.437,23.72
04.453,25.21
04.468,27.44
04.484,29.86
04.500,31.76
04.515,32.39
04.531,31.31
04.546,28.42
04.562,23.87
04.578,17.87
04.593,10.62
04.609,2.37
04.625,-6.46
04.640,-15.09
04.656,-22.41
04.671,-27.31
04.687,-29.09
04.703,-27.8
04.718,-24.31
04.734,-19.98
04.750,-16.17
04.765,-13.75
04.781,-12.91
04.796,-13.23
04.812,-14.04
04.828,-14.78
04.843,-15.22
04.859,-15.45
04.875,-15.72
04.890,-16.28
04.906,-17.27
04.921,-18.72
04.937,-20.58
04.953,-22.75
04.968,-25.09
04.984,-27.39
05.000,-29.41
05.015,-30.91
05.031,-31.68
05.046,-31.62
05.062,-30.76
05.078,-29.18
05.093,-27.02
05.109,-24.34
05.125,-21.16
05.140,-17.46
05.156,-13.23
05.171,-8.54
05.187,-3.58
05.203,1.4
05.218,6.12
05.234,10.35
05.250,13.94
05.265,16.81
05.281,18.89
05.296,20.06
05.312,20.16
05.328,19.08
05.343,16.94
05.359,14.1
05.375,11.11
05.390,8.52
05.406,6.62
05.421,5.29
05.437,4.09
05.453,2.4
05.468,-0.27
05.484,-4.05
05.500,-8.7
05.515,-13.63
05.531,-18.09
05.546,-21.36
05.562,-23.0
05.578,-22.8
05.593,-20.93
05.609,-17.75
05.625,-13.74
05.640,-9.41
05.656,-5.15
05.671,-1.36
05.687,1.69
05.703,3.8
05.718,4.96
05.734,5.33
05.750,5.27
05.765,5.18
05.781,5.38
05.796,6.07
05.812,7.33
05.828,9.12
05.843,11.38
05.859,13.99
05.875,16.75
05.890,19.38
05.906,21.55
05.921,22.98
05.937,23.54
05.953,23.2
05.968,21.97
05.984,19.89
06.000,16.99
06.015,13.33
06.031,9.09
06.046,4.64
06.062,0.42
06.078,-3.15
06.093,-5.88
06.109,-7.89
06.125,-9.57
06.140,-11.35
06.156,-13.52
06.171,-15.97
06.187,-18.23
06.203,-19.64
06.218,-19.52
06.234,-17.5
06.250,-13.56
06.265,-8.11
06.281,-1.86
06.296,4.36
06.312,9.85
06.328,14.11
06.343,16.97
06.359,18.58
06.375,19.22
06.390,19.2
06.406,18.69
06.421,17.67
06.437,16.16
06.453,14.31
06.468,12.51
06.484,11.2
06.500,10.68
06.515,10.79
06.531,10.96
06.546,10.42
06.562,8.54
06.578,5.15
06.593,0.67
06.609,-4.07
06.625,-8.14
06.640,-10.83
06.656,-11.84
06.671,-11.29
06.687,-9.61
06.703,-7.34
06.718,-5.03
06.734,-3.1
06.750,-1.78
06.765,-1.06
06.781,-0.8
06.796,-0.77
06.812,-0.72
06.828,-0.52
06.843,-0.05
06.859,0.78
06.875,2.1
06.890,4.06
06.906,6.8
06.921,10.26
06.937,14.17
06.953,18.02
06.968,21.24
06.984,23.4
07.000,24.45
07.015,24.73
07.031,24.77
07.046,25.12
07.062,25.97
07.078,27.14
07.093,28.18
07.109,28.64
07.125,28.32
07.140,27.29
07.156,25.83
07.171,24.16
07.187,22.27
07.203,19.96
07.218,16.91
07.234,12.88
07.250,7.81
07.265,1.82
07.281,-4.92
07.296,-12.17
07.312,-19.65
07.328,-26.88
07.343,-33.13
07.359,-37.52
07.375,-39.16
07.390,-37.57
07.406,-32.88
07.421,-25.89
07.437,-17.86
07.453,-10.11
07.468,-3.64
07.484,1.05
07.500,4.05
07.515,5.69
07.531,6.44
07.546,6.62
07.562,6.45
07.578,6.05
07.593,5.55
07.609,5.05
07.625,4.6
07.640,4.08
07.656,3.29
07.671,1.92
07.687,-0.27
07.703,-3.3
07.718,-6.92
07.734,-10.68
07.750,-14.09
07.765,-16.76
07.781,-18.57
07.796,-19.64
07.812,-20.3
07.828,-20.78
07.843,-21.08
07.859,-20.96
07.875,-19.97
07.890,-17.75
07.906,-14.29
07.921,-9.9
07.937,-5.18
07.953,-0.69
07.968,3.22
07.984,6.53
08.000,9.41
08.015,12.01
08.031,14.23
08.046,15.77
08.062,16.23
08.078,15.49
08.093,13.84
08.109,11.99
08.125,10.78
08.140,10.73
08.156,11.81
08.171,13.36
08.187,14.42
08.203,14.19
08.218,12.43
08.234,9.53
08.250,6.26
08.265,3.33
08.281,0.94
08.296,-1.24
08.312,-3.9
08.328,-7.6
08.343,-12.38
08.359,-17.68
08.375,-22.52
08.390,-25.88
08.406,-27.13
08.421,-26.16
08.437,-23.29
08.453,-18.99
08.468,-13.68
08.484,-7.63
08.500,-1.08
08.515,5.74
08.531,12.42
08.546,18.48
08.562,23.45
08.578,26.95
08.593,28.76
08.609,28.84
08.625,27.43
08.640,25.06
08.656,22.52
08.671,20.67
08.687,20.02
08.703,20.55
08.718,21.54
08.734,21.88
08.750,20.53
08.765,16.99
08.781,11.45
08.796,4.65
08.812,-2.54
08.828,-9.44
08.843,-15.67
08.859,-21.05
08.875,-25.33
08.890,-28.16
08.906,-29.24
08.921,-28.57
08.937,-26.64
08.953,-24.27
08.968,-22.32
08.984,-21.13
09.000,-20.34
09.015,-19.02
09.031,-16.18
09.046,-11.32
09.062,-4.77
09.078,2.48
09.093,9.22
09.109,14.48
09.125,17.74
09.140,18.92
09.156,18.21
09.171,15.99
09.187,12.89
09.203,9.91
09.218,8.25
09.234,8.95
09.250,12.23
09.265,17.24
09.281,22.21
09.296,25.24
09.312,25.1
09.328,21.75
09.343,16.18
09.359,9.74
09.375,3.4
09.390,-2.62
09.406,-8.63
09.421,-14.92
09.437,-21.24
09.453,-26.7
09.468,-30.1
09.484,-30.46
09.500,-27.46
09.515,-21.53
09.531,-13.62
09.546,-4.8
09.562,4.05
09.578,12.39
09.593,20.01
09.609,27.01
09.625,33.63
09.640,40.18
09.656,46.93
09.671,53.96
09.687,61.06
09.703,67.78
09.718,73.61
09.734,78.18
09.750,81.47
09.765,83.81
09.781,85.68
09.796,87.3
09.812,88.5
09.828,88.62
09.843,86.82
09.859,82.48
09.875,75.54
09.890,66.49
09.906,56.03
09.921,44.73
09.937,32.72
09.953,19.89
09.968,6.18
09.984,-8.04
10.000,-22.06
10.015,-35.05
10.031,-46.4
10.046,-55.87
10.062,-63.34
10.078,-68.62
10.093,-71.34
10.109,-71.16
10.125,-68.27
10.140,-63.57
10.156,-58.57
10.171,-54.78
10.187,-53.01
10.203,-53.08
10.218,-53.86
10.234,-53.95
10.250,-52.21
10.265,-48.06
10.281,-41.51
10.296,-32.99
10.312,-23.1
10.328,-12.53
10.343,-1.91
10.359,8.24
10.375,17.71
10.390,26.58
10.406,35.2
10.421,43.97
10.437,53.17
10.453,62.94
10.468,73.18
10.484,83.75
10.500,94.3
10.515,104.21
10.531,112.4
10.546,117.46
10.562,117.97
10.578,113.16
10.593,103.33
10.609,89.98
10.625,75.24
10.640,61.09
10.656,48.6
10.671,37.77
10.687,27.87
10.703,18.17
10.718,8.53
10.734,-0.39
10.750,-7.45
10.765,-11.57
10.781,-12.21
10.796,-9.44
10.812,-3.8
10.828,3.91
10.843,12.52
10.859,20.18
10.875,24.1
10.890,20.97
10.906,8.03
10.921,-15.45
10.937,-47.18
10.953,-81.98
10.968,-113.28
10.984,-135.4
11.000,-145.56
11.015,-144.56
11.031,-136.02
11.046,-124.32
11.062,-112.68
11.078,-102.22
11.093,-92.21
11.109,-81.21
11.125,-68.24
11.140,-53.5
11.156,-38.11
11.171,-23.51
11.187,-10.71
11.203,0.17
11.218,9.81
11.234,19.45
11.250,30.22
11.265,42.67
11.281,56.45
11.296,70.29
11.312,82.24
11.328,90.32
11.343,93.01
11.359,89.81
11.375,81.37
11.390,69.33
11.406,55.99
11.421,43.69
11.437,33.91
11.453,26.59
11.468,19.72
11.484,10.0
11.500,-5.89
11.515,-29.57
11.531,-59.84
11.546,-92.68
11.562,-122.44
11.578,-143.79
11.593,-153.59
11.609,-151.69
11.625,-140.47
11.640,-123.63
11.656,-104.67
11.671,-86.05
11.687,-68.92
11.703,-53.59
11.718,-40.11
11.734,-28.64
11.750,-19.47
11.765,-12.82
11.781,-8.44
11.796,-5.34
11.812,-1.95
11.828,3.36
11.843,11.49
11.859,22.14
11.875,33.79
11.890,44.33
11.906,51.99
11.921,56.12
11.937,57.37
11.953,57.31
11.968,57.74
11.984,59.84
12.000,63.87
12.015,69.33
12.031,75.49
12.046,81.87
12.062,88.49
12.078,95.72
12.093,103.87
12.109,113.08
12.125,123.25
12.140,134.32
12.156,146.21
12.171,158.47
12.187,169.86
12.203,178.03
12.218,180.05
12.234,173.3
12.250,156.8
12.265,131.85
12.281,101.79
12.296,70.98
12.312,43.31
12.328,21.26
12.343,5.6
12.359,-4.1
12.375,-9.03
12.390,-10.72
12.406,-10.95
12.421,-11.66
12.437,-14.68
12.453,-21.29
12.468,-31.88
12.484,-45.95
12.500,-62.46
12.515,-80.46
12.531,-99.25
12.546,-118.29
12.562,-136.82
12.578,-153.53
12.593,-166.64
12.609,-174.35
12.625,-175.49
12.640,-170.04
12.656,-159.35
12.671,-145.73
12.687,-131.77
12.703,-119.58
12.718,-110.15
12.734,-103.29
12.750,-97.82
12.765,-92.3
12.781,-85.56
12.796,-77.13
12.812,-67.19
12.828,-56.24
12.843,-44.87
12.859,-33.53
12.875,-22.61
12.890,-12.66
12.906,-4.35
12.921,1.68
12.937,5.22
12.953,6.55
12.968,6.29
12.984,5.02
13.000,2.98
13.015,0.14
13.031,-3.52
13.046,-7.57
13.062,-11.0
13.078,-12.53
13.093,-11.18
13.109,-6.8
13.125,-0.13
13.140,7.42
13.156,14.42
13.171,19.72
13.187,22.6
13.203,22.75
13.218,20.3
13.234,15.94
13.250,10.92
13.265,6.88
13.281,5.29
13.296,6.9
13.312,11.42
13.328,17.68
13.343,24.18
13.359,29.69
13.375,33.53
13.390,35.67
13.406,36.46
13.421,36.46
13.437,36.46
13.453,37.25
13.468,39.44
13.484,42.98
13.500,47.0
13.515,50.04
13.531,50.7
13.546,48.51
13.562,44.2
13.578,39.48
13.593,36.21
13.609,35.72
13.625,38.36
13.640,43.52
13.656,50.02
13.671,56.47
13.687,61.49
13.703,63.86
13.718,62.66
13.734,57.63
13.750,49.33
13.765,39.06
13.781,28.46
13.796,18.91
13.812,11.15
13.828,5.32
13.843,1.19
13.859,-1.55
13.875,-3.2
13.890,-4.17
13.906,-5.06
13.921,-6.56
13.937,-9.16
13.953,-12.98
13.968,-17.69
13.984,-22.93
14.000,-28.63
14.015,-35.19
14.031,-43.19
14.046,-52.99
14.062,-64.29
14.078,-76.1
14.093,-87.03
14.109,-95.67
14.125,-100.95
14.140,-102.29
14.156,-99.62
14.171,-93.44
14.187,-84.93
14.203,-75.87
14.218,-68.22
14.234,-63.47
14.250,-61.99
14.265,-62.85
14.281,-64.18
14.296,-63.96
14.312,-60.86
14.328,-54.66
14.343,-46.08
14.359,-36.29
14.375,-26.19
14.390,-16.17
14.406,-6.13
14.421,4.16
14.437,14.64
14.453,24.78
14.468,33.75
14.484,40.67
14.500,45.0
14.515,46.64
14.531,45.83
14.546,42.9
14.562,38.13
14.578,31.64
14.593,23.67
14.609,14.83
14.625,6.23
14.640,-0.8
14.656,-5.15
14.671,-6.49
14.687,-5.41
14.703,-3.16
14.718,-1.02
14.734,0.23
14.750,0.69
14.765,0.95
14.781,1.61
14.796,2.71
14.812,3.6
14.828,3.28
14.843,1.0
14.859,-3.14
14.875,-8.2
14.890,-12.72
14.906,-15.45
14.921,-15.81
14.937,-14.14
14.953,-11.32
14.968,-8.21
14.984,-5.31
15.000,-2.49
15.015,0.65
15.031,4.45
15.046,8.91
15.062,13.65
15.078,18.21
15.093,22.2
15.109,25.5
15.125,28.08
15.140,29.85
15.156,30.44
15.171,29.23
15.187,25.68
15.203,19.65
15.218,11.82
15.234,3.67
15.250,-3.01
15.265,-6.72
15.281,-6.82
15.296,-3.88
15.312,0.66
15.328,5.09
15.343,8.1
15.359,9.28
15.375,8.99
15.390,8.0
15.406,6.99
15.421,6.23
15.437,5.49
15.453,4.35
15.468,2.36
15.484,-0.78
15.500,-5.18
15.515,-10.85
15.531,-17.69
15.546,-25.36
15.562,-33.21
15.578,-40.31
15.593,-45.69
15.609,-48.56
15.625,-48.62
15.640,-46.09
15.656,-41.51
15.671,-35.57
15.687,-28.93
15.703,-22.15
15.718,-15.79
15.734,-10.28
15.750,-5.98
15.765,-3.02
15.781,-1.26
15.796,-0.36
15.812,-0.01
15.828,-0.11
15.843,-0.85
15.859,-2.55
15.875,-5.36
15.890,-9.04
15.906,-12.94
15.921,-16.15
15.937,-17.85
15.953,-17.6
15.968,-15.58
15.984,-12.49
16.000,-9.42
16.015,-7.51
16.031,-7.44
16.046,-9.31
16.062,-12.54
16.078,-16.22
16.093,-19.5
16.109,-21.96
16.125,-23.75
16.140,-25.44
16.156,-27.6
16.171,-30.4
16.187,-33.47
16.203,-36.01
16.218,-37.23
16.234,-36.68
16.250,-34.45
16.265,-31.11
16.281,-27.43
16.296,-24.13
16.312,-21.65
16.328,-20.18
16.343,-19.64
16.359,-19.91
16.375,-20.86
16.390,-22.53
16.406,-25.07
16.421,-28.68
16.437,-33.43
16.453,-39.09
16.468,-45.1
16.484,-50.55
16.500,-54.44
16.515,-55.96
16.531,-54.76
16.546,-51.11
16.562,-45.83
16.578,-39.99
16.593,-34.5
16.609,-29.85
16.625,-25.94
16.640,-22.19
16.656,-17.85
16.671,-12.13
16.687,-4.42
16.703,5.65
16.718,18.16
16.734,32.8
16.750,48.83
16.765,65.07
16.781,80.23
16.796,93.25
16.812,103.68
16.828,111.8
16.843,118.25
16.859,123.6
16.875,127.85
16.890,130.37
16.906,130.11
16.921,126.0
16.937,117.31
16.953,104.09
16.968,87.23
16.984,68.6
17.000,50.74
17.015,36.36
17.031,27.59
17.046,25.24
17.062,28.47
17.078,35.14
17.093,42.62
17.109,48.79
17.125,52.64
17.140,54.27
17.156,54.32
17.171,53.27
17.187,51.07
17.203,47.11
17.218,40.45
17.234,30.31
17.250,16.46
17.265,-0.46
17.281,-18.86
17.296,-36.44
17.312,-50.88
17.328,-60.59
17.343,-65.29
17.359,-66.12
17.375,-64.99
17.390,-63.72
17.406,-63.3
17.421,-63.7
17.437,-64.19
17.453,-64.01
17.468,-62.71
17.484,-60.33
17.500,-57.11
17.515,-53.42
17.531,-49.67
17.546,-46.47
17.562,-44.52
17.578,-44.38
17.593,-46.02
17.609,-48.62
17.625,-50.78
17.640,-50.95
17.656,-48.14
17.671,-42.16
17.687,-33.6
17.703,-23.54
17.718,-13.23
17.734,-3.86
17.750,3.43
17.765,7.76
17.781,8.62
17.796,6.11
17.812,1.12
17.828,-4.91
17.843,-10.34
17.859,-13.93
17.875,-15.2
17.890,-14.49
17.906,-12.72
17.921,-10.95
17.937,-10.03
17.953,-10.32
17.968,-11.65
17.984,-13.45
18.000,-14.96
18.015,-15.62
18.031,-15.21
18.046,-14.0
18.062,-12.59
18.078,-11.65
18.093,-11.58
18.109,-12.39
18.125,-13.78
18.140,-15.24
18.156,-16.38
18.171,-17.05
18.187,-17.37
18.203,-17.54
18.218,-17.75
18.234,-17.92
18.250,-17.82
18.265,-17.13
18.281,-15.66
18.296,-13.44
18.312,-10.68
18.328,-7.69
18.343,-4.65
18.359,-1.6
18.375,1.48
18.390,4.38
18.406,6.61
18.421,7.57
18.437,6.92
18.453,4.89
18.468,2.32
18.484,0.25
18.500,-0.71
18.515,-0.73
18.531,-0.77
18.546,-1.94
18.562,-4.81
18.578,-9.13
18.593,-13.81
18.609,-17.66
18.625,-20.04
18.640,-21.21
18.656,-22.09
18.671,-23.7
18.687,-26.51
18.703,-29.99
18.718,-32.9
18.734,-33.75
18.750,-31.35
18.765,-25.29
18.781,-16.0
18.796,-4.49
18.812,7.94
18.828,20.06
18.843,30.84
18.859,39.51
18.875,45.6
18.890,48.98
18.906,49.95
18.921,49.08
18.937,47.04
18.953,44.41
18.968,41.45
18.984,38.02
19.000,33.85
19.015,28.74
19.031,22.81
19.046,16.54
19.062,10.58
19.078,5.4
19.093,1.13
19.109,-2.53
19.125,-6.21
19.140,-10.51
19.156,-15.84
19.171,-22.31
19.187,-29.77
19.203,-37.99
19.218,-46.69
19.234,-55.37
19.250,-63.27
19.265,-69.24
19.281,-71.91
19.296,-70.09
19.312,-63.32
19.328,-52.14
19.343,-37.99
19.359,-22.82
19.375,-8.46
19.390,3.82
19.406,13.56
19.421,20.92
19.437,26.28
19.453,29.97
19.468,32.11
19.484,32.73
19.500,31.93
19.515,30.01
19.531,27.51
19.546,24.96
19.562,22.76
19.578,21.05
19.593,19.67
19.609,18.37
19.625,16.87
19.640,14.99
19.656,12.7
19.671,10.09
19.687,7.38
19.703,4.81
19.718,2.48
19.734,0.33
19.750,-1.94
19.765,-4.76
19.781,-8.56
19.796,-13.43
19.812,-19.19
19.828,-25.28
19.843,-30.9
19.859,-35.13
19.875,-37.02
19.890,-35.8
19.906,-31.02
19.921,-22.71
19.937,-11.5
19.953,1.51
19.968,14.9
19.984,27.33
20.000,37.68
20.015,45.24
20.031,49.71
20.046,51.05
20.062,49.51
20.078,45.58
20.093,39.97
20.109,33.59
20.125,27.43
20.140,22.32
20.156,18.77
20.171,16.92
20.187,16.51
20.203,17.08
20.218,18.09
20.234,19.14
20.250,19.93
20.265,20.31
20.281,20.06
20.296,18.85
20.312,16.23
20.328,11.69
20.343,4.91
20.359,-4.17
20.375,-15.0
20.390,-26.36
20.406,-36.51
20.421,-43.52
20.437,-45.94
20.453,-43.3
20.468,-36.39
20.484,-26.85
20.500,-16.63
20.515,-7.03
20.531,1.53
20.546,9.44
20.562,17.29
20.578,25.27
20.593,32.88
20.609,39.14
20.625,43.21
20.640,44.86
20.656,44.6
20.671,43.38
20.687,42.09
20.703,41.17
20.718,40.49
20.734,39.68
20.750,38.4
20.765,36.63
20.781,34.59
20.796,32.49
20.812,30.23
20.828,27.33
20.843,23.22
20.859,17.47
20.875,10.08
20.890,1.44
20.906,-8.02
20.921,-18.01
20.937,-28.33
20.953,-38.54
20.968,-47.63
20.984,-54.0
21.000,-56.02
21.015,-52.7
21.031,-44.3
21.046,-32.36
21.062,-19.1
21.078,-6.6
21.093,3.87
21.109,12.07
21.125,18.39
21.140,23.31
21.156,27.06
21.171,29.59
21.187,30.77
21.203,30.65
21.218,29.58
21.234,27.96
21.250,26.06
21.265,23.82
21.281,20.91
21.296,16.95
21.312,11.85
21.328,5.93
21.343,-0.11
21.359,-5.47
21.375,-9.62
21.390,-12.55
21.406,-14.76
21.421,-16.99
21.437,-20.01
21.453,-24.31
21.468,-30.07
21.484,-37.05
21.500,-44.69
21.515,-52.02
21.531,-57.75
21.546,-60.43
21.562,-58.76
21.578,-51.85
21.593,-39.51
21.609,-22.24
21.625,-1.16
21.640,22.19
21.656,45.94
21.671,68.13
21.687,86.93
21.703,101.0
21.718,109.78
21.734,113.52
21.750,113.19
21.765,109.92
21.781,104.68
21.796,97.94
21.812,89.88
21.828,80.59
21.843,70.34
21.859,59.63
21.875,49.08
21.890,39.31
21.906,30.85
21.921,24.27
21.937,20.11
21.953,18.76
21.968,20.17
21.984,23.52
22.000,27.27
22.015,29.48
22.031,28.42
22.046,23.21
22.062,14.03
22.078,1.93
22.093,-11.75
22.109,-25.84
22.125,-39.41
22.140,-51.58
22.156,-61.11
22.171,-66.41
22.187,-65.91
22.203,-58.79
22.218,-45.57
22.234,-28.16
22.250,-9.29
22.265,8.37
22.281,23.08
22.296,34.23
22.312,42.11
22.328,47.3
22.343,50.25
22.359,51.06
22.375,49.8
22.390,46.75
22.406,42.51
22.421,37.95
22.437,33.87
22.453,30.75
22.468,28.69
22.484,27.49
22.500,26.92
22.515,26.82
22.531,27.14
22.546,27.82
22.562,28.62
22.578,29.16
22.593,29.05
22.609,28.09
22.625,26.36
22.640,24.1
22.656,21.5
22.671,18.65
22.687,15.43
22.703,11.92
22.718,8.45
22.734,5.71
22.750,4.42
22.765,5.07
22.781,7.55
22.796,11.12
22.812,14.65
22.828,17.04
22.843,17.68
22.859,16.57
22.875,14.25
22.890,11.56
22.906,9.37
22.921,8.31
22.937,8.61
22.953,9.93
22.968,11.28
22.984,11.27
23.000,8.5
23.015,2.19
23.031,-7.33
23.046,-18.65
23.062,-29.72
23.078,-38.7
23.093,-44.64
23.109,-47.85
23.125,-49.64
23.140,-51.71
23.156,-55.4
23.171,-61.28
23.187,-69.04
23.203,-77.68
23.218,-85.85
23.234,-92.1
23.250,-95.15
23.265,-93.97
23.281,-87.97
23.296,-77.09
23.312,-61.89
23.328,-43.54
23.343,-23.75
23.359,-4.55
23.375,12.09
23.390,24.71
23.406,32.76
23.421,36.67
23.437,37.62
23.453,37.14
23.468,36.49
23.484,36.36
23.500,36.82
23.515,37.53
23.531,38.08
23.546,38.24
23.562,37.99
23.578,37.42
23.593,36.72
23.609,36.0
23.625,35.41
23.640,35.04
23.656,34.88
23.671,34.69
23.687,33.98
23.703,32.01
23.718,28.1
23.734,21.92
23.750,13.63
23.765,4.05
23.781,-5.63
23.796,-14.2
23.812,-20.74
23.828,-24.9
23.843,-26.94
23.859,-27.58
23.875,-27.69
23.890,-28.07
23.906,-29.09
23.921,-30.6
23.937,-32.05
23.953,-32.72
23.968,-32.08
23.984,-30.04
24.000,-27.0
24.015,-23.65
24.031,-20.75
24.046,-18.71
24.062,-17.49
24.078,-16.64
24.093,-15.54
24.109,-13.77
24.125,-11.2
24.140,-8.12
24.156,-4.97
24.171,-2.14
24.187,0.3
24.203,2.55
24.218,4.94
24.234,7.69
24.250,10.72
24.265,13.62
24.281,15.82
24.296,16.83
24.312,16.37
24.328,14.5
24.343,11.53
24.359,7.95
24.375,4.37
24.390,1.33
24.406,-0.79
24.421,-1.9
24.437,-2.29
24.453,-2.4
24.468,-2.76
24.484,-3.69
24.500,-5.19
24.515,-7.0
24.531,-8.72
24.546,-10.02
24.562,-10.66
24.578,-10.56
24.593,-9.68
24.609,-8.1
24.625,-6.05
24.640,-3.98
24.656,-2.53
24.671,-2.43
24.687,-4.18
24.703,-7.81
24.718,-12.66
24.734,-17.47
24.750,-20.72
24.765,-21.3
24.781,-18.92
24.796,-14.39
24.812,-9.21
24.828,-4.92
24.843,-2.4
24.859,-1.59
24.875,-1.72
24.890,-1.98
24.906,-2.07
24.921,-2.47
24.937,-4.03
24.953,-7.42
24.968,-12.62
24.984,-18.8
25.000,-24.6
25.015,-28.72
25.031,-30.39
25.046,-29.58
25.062,-26.91
25.078,-23.23
25.093,-19.39
25.109,-15.93
25.125,-13.22
25.140,-11.47
25.156,-10.89
25.171,-11.6
25.187,-13.62
25.203,-16.71
25.218,-20.34
25.234,-23.83
25.250,-26.51
25.265,-28.02
25.281,-28.23
25.296,-27.35
25.312,-25.73
25.328,-23.68
25.343,-21.39
25.359,-18.88
25.375,-16.0
25.390,-12.56
25.406,-8.45
25.421,-3.79
25.437,1.05
25.453,5.53
25.468,9.17
25.484,11.73
25.500,13.29
25.515,14.2
25.531,14.88
25.546,15.7
25.562,16.86
25.578,18.39
25.593,20.21
25.609,22.16
25.625,24.01
25.640,25.51
25.656,26.46
25.671,26.79
25.687,26.62
25.703,26.23
25.718,25.86
25.734,25.52
25.750,24.96
25.765,23.69
25.781,21.23
25.796,17.37
25.812,12.24
25.828,6.31
25.843,0.21
25.859,-5.48
25.875,-10.25
25.890,-13.81
25.906,-16.07
25.921,-17.19
25.937,-17.63
25.953,-18.02
25.968,-19.0
25.984,-21.0
26.000,-24.1
26.015,-27.9
26.031,-31.64
26.046,-34.32
26.062,-35.06
26.078,-33.4
26.093,-29.46
26.109,-23.94
26.125,-17.91
26.140,-12.4
26.156,-8.04
26.171,-4.83
26.187,-2.26
26.203,0.31
26.218,3.36
26.234,6.88
26.250,10.44
26.265,13.43
26.281,15.39
26.296,16.15
26.312,15.87
26.328,14.85
26.343,13.46
26.359,11.96
26.375,10.58
26.390,9.48
26.406,8.84
26.421,8.79
26.437,9.38
26.453,10.37
26.468,11.22
26.484,11.16
26.500,9.37
26.515,5.5
26.531,-0.05
26.546,-6.03
26.562,-10.8
26.578,-12.98
26.593,-12.07
26.609,-8.67
26.625,-4.13
26.640,0.12
26.656,3.23
26.671,5.25
26.687,6.79
26.703,8.47
26.718,10.45
26.734,12.31
26.750,13.44
26.765,13.36
26.781,12.08
26.796,10.01
26.812,7.65
26.828,5.26
26.843,2.82
26.859,0.11
26.875,-2.99
26.890,-6.35
26.906,-9.56
26.921,-12.06
26.937,-13.44
26.953,-13.63
26.968,-12.92
26.984,-11.81
27.000,-10.79
27.015,-10.12
27.031,-9.75
27.046,-9.45
27.062,-8.92
27.078,-7.94
27.093,-6.46
27.109,-4.57
27.125,-2.48
27.140,-0.41
27.156,1.5
27.171,3.23
27.187,4.9
27.203,6.76
27.218,9.15
27.234,12.24
27.250,15.97
27.265,19.97
27.281,23.57
27.296,26.19
27.312,27.5
27.328,27.65
27.343,27.19
27.359,26.82
27.375,26.96
27.390,27.54
27.406,27.94
27.421,27.22
27.437,24.68
27.453,20.15
27.468,14.26
27.484,8.05
27.500,2.59
27.515,-1.68
27.531,-5.07
27.546,-8.47
27.562,-12.89
27.578,-18.91
27.593,-26.41
27.609,-34.57
27.625,-42.24
27.640,-48.28
27.656,-51.84
27.671,-52.46
27.687,-50.06
27.703,-45.06
27.718,-38.44
27.734,-31.75
27.750,-26.74
27.765,-24.7
27.781,-25.86
27.796,-29.21
27.812,-32.88
27.828,-35.0
27.843,-34.58
27.859,-31.8
27.875,-27.65
27.890,-23.27
27.906,-19.2
27.921,-15.34
27.937,-11.29
27.953,-6.87
27.968,-2.3
27.984,1.79
28.000,4.99
28.015,7.29
28.031,9.02
28.046,10.68
28.062,12.46
28.078,14.28
28.093,15.86
28.109,17.02
28.125,17.81
28.140,18.49
28.156,19.37
28.171,20.58
28.187,22.04
28.203,23.53
28.218,24.91
28.234,26.14
28.250,27.33
28.265,28.59
28.281,29.87
28.296,31.01
28.312,31.78
28.328,32.0
28.343,31.5
28.359,30.1
28.375,27.56
28.390,23.65
28.406,18.34
28.421,12.11
28.437,5.93
28.453,1.02
28.468,-1.67
28.484,-1.91
28.500,-0.42
28.515,1.5
28.531,2.55
28.546,2.03
28.562,0.14
28.578,-2.28
28.593,-4.21
28.609,-4.99
28.625,-4.55
28.640,-3.34
28.656,-2.05
28.671,-1.31
28.687,-1.44
28.703,-2.43
28.718,-3.96
28.734,-5.55
28.750,-6.77
28.765,-7.39
28.781,-7.43
28.796,-7.31
28.812,-7.55
28.828,-8.68
28.843,-10.95
28.859,-14.15
28.875,-17.66
28.890,-20.61
28.906,-22.22
28.921,-22.03
28.937,-20.02
28.953,-16.47
28.968,-11.91
28.984,-6.99
29.000,-2.41
29.015,1.03
29.031,2.62
29.046,1.97
29.062,-0.76
29.078,-4.74
29.093,-8.76
29.109,-11.64
29.125,-12.79
29.140,-12.42
29.156,-11.48
29.171,-11.05
29.187,-11.93
29.203,-14.19
29.218,-17.2
29.234,-19.88
29.250,-21.12
29.265,-20.13
29.281,-16.61
29.296,-10.85
29.312,-3.61
29.328,4.05
29.343,11.03
29.359,16.48
29.375,20.05
29.390,21.98
29.406,22.94
29.421,23.67
29.437,24.64
29.453,25.88
29.468,26.97
29.484,27.43
29.500,26.95
29.515,25.62
29.531,23.85
29.546,22.17
29.562,20.9
29.578,20.07
29.593,19.39
29.609,18.47
29.625,16.99
29.640,14.72
29.656,11.54
29.671,7.42
29.687,2.48
29.703,-2.99
29.718,-8.43
29.734,-13.19
29.750,-16.72
29.765,-18.78
29.781,-19.49
29.796,-19.21
29.812,-18.28
29.828,-16.76
29.843,-14.46
29.859,-11.09
29.875,-6.55
29.890,-1.08
29.906,4.76
29.921,10.37
29.937,15.36
29.953,19.7
29.968,23.54
29.984,27.0
30.000,29.9
30.015,31.81
30.031,32.31
30.046,31.25
30.062,29.01
30.078,26.3
30.093,23.92
30.109,22.33
30.125,21.44
30.140,20.69
30.156,19.38
30.171,16.98
30.187,13.43
30.203,9.24
30.218,5.21
30.234,2.18
30.250,0.67
30.265,0.79
30.281,2.28
30.296,4.76
30.312,7.71
30.328,10.5
30.343,12.19
30.359,11.6
30.375,7.74
30.390,0.45
30.406,-9.13
30.421,-18.66
30.437,-25.48
30.453,-27.8
30.468,-25.45
30.484,-19.93
30.500,-13.53
30.515,-8.14
30.531,-4.44
30.546,-1.94
30.562,0.29
30.578,2.87
30.593,5.63
30.609,7.95
30.625,9.23
30.640,9.43
30.656,9.13
30.671,9.19
30.687,10.22
30.703,12.22
30.718,14.64
30.734,16.57
30.750,17.24
30.765,16.26
30.781,13.73
30.796,10.11
30.812,5.96
30.828,1.65
30.843,-2.76
30.859,-7.46
30.875,-12.71
30.890,-18.59
30.906,-24.93
30.921,-31.25
30.937,-37.03
30.953,-41.9
30.968,-45.61
30.984,-48.0
31.000,-48.82
31.015,-47.8
31.031,-44.73
31.046,-39.73
31.062,-33.21
31.078,-25.79
31.093,-18.16
31.109,-10.92
31.125,-4.52
31.140,0.55
31.156,3.86
31.171,5.18
31.187,4.81
31.203,3.68
31.218,3.04
31.234,3.86
31.250,6.32
31.265,9.59
31.281,12.27
31.296,13.15
31.312,11.77
31.328,8.52
31.343,4.18
31.359,-0.52
31.375,-5.15
31.390,-9.48
31.406,-13.05
31.421,-15.1
31.437,-14.64
31.453,-10.93
31.468,-3.9
31.484,5.58
31.500,16.11
31.515,26.13
31.531,34.45
31.546,40.4
31.562,43.69
31.578,44.22
31.593,42.07
31.609,37.61
31.625,31.79
31.640,26.05
31.656,21.88
31.671,20.19
31.687,20.73
31.703,22.07
31.718,22.22
31.734,19.46
31.750,13.23
31.765,4.33
31.781,-5.51
31.796,-14.51
31.812,-21.56
31.828,-26.49
31.843,-29.97
31.859,-32.94
31.875,-36.28
31.890,-40.51
31.906,-45.71
31.921,-51.51
31.937,-57.06
31.953,-61.2
31.968,-62.62
31.984,-60.35
32.000,-54.13
32.015,-44.65
32.031,-33.45
32.046,-22.27
32.062,-12.55
32.078,-4.92
32.093,0.81
32.109,5.2
32.125,8.76
32.140,11.56
32.156,13.25
32.171,13.32
32.187,11.54
32.203,8.15
32.218,3.8
32.234,-0.7
32.250,-4.63
32.265,-7.64
32.281,-9.7
32.296,-11.06
32.312,-12.05
32.328,-13.01
32.343,-14.14
32.359,-15.52
32.375,-17.16
32.390,-19.01
32.406,-21.13
32.421,-23.66
32.437,-26.79
32.453,-30.56
32.468,-34.7
32.484,-38.47
32.500,-40.83
32.515,-40.72
32.531,-37.49
32.546,-31.15
32.562,-22.3
32.578,-11.88
32.593,-0.76
32.609,10.51
32.625,21.65
32.640,32.47
32.656,42.57
32.671,51.28
32.687,57.79
32.703,61.46
32.718,62.09
32.734,59.91
32.750,55.54
32.765,49.79
32.781,43.42
32.796,36.92
32.812,30.38
32.828,23.46
32.843,15.54
32.859,6.13
32.875,-4.8
32.890,-16.55
32.906,-27.84
32.921,-37.29
32.937,-44.0
32.953,-47.93
32.968,-49.88
32.984,-51.09
33.000,-52.62
33.015,-54.89
33.031,-57.48
33.046,-59.35
33.062,-59.2
33.078,-56.01
33.093,-49.4
33.109,-39.75
33.125,-28.11
33.140,-15.78
33.156,-3.93
33.171,6.74
33.187,15.95
33.203,23.66
33.218,29.86
33.234,34.37
33.250,36.96
33.265,37.57
33.281,36.48
33.296,34.17
33.312,31.19
33.328,27.82
33.343,23.99
33.359,19.59
33.375,14.62
33.390,9.5
33.406,5.03
33.421,1.97
33.437,0.63
33.453,0.55
33.468,0.53
33.484,-0.87
33.500,-4.85
33.515,-12.0
33.531,-22.18
33.546,-34.57
33.562,-47.87
33.578,-60.34
33.593,-69.96
33.609,-74.79
33.625,-73.53
33.640,-66.02
33.656,-53.43
33.671,-37.81
33.687,-21.38
33.703,-5.66
33.718,8.85
33.734,22.43
33.750,35.39
33.765,47.38
33.781,57.37
33.796,64.03
33.812,66.62
33.828,65.56
33.843,62.59
33.859,60.3
33.875,61.32
33.890,67.54
33.906,79.6
33.921,96.8
33.937,117.24
33.953,138.32
33.968,157.05
33.984,170.5
34.000,176.2
34.015,172.46
34.031,158.81
34.046,136.17
34.062,106.81
34.078,73.86
34.093,40.57
34.109,9.45
34.125,-18.07
34.140,-41.61
34.156,-61.34
34.171,-77.25
34.187,-88.92
34.203,-95.63
34.218,-96.95
34.234,-93.21
34.250,-85.59
34.265,-75.72
34.281,-65.09
34.296,-54.56
34.312,-44.43
34.328,-34.74
34.343,-25.71
34.359,-17.95
34.375,-12.09
34.390,-8.44
34.406,-6.67
34.421,-5.94
34.437,-5.35
34.453,-4.41
34.468,-3.26
34.484,-2.58
34.500,-3.11
34.515,-5.14
34.531,-8.28
34.546,-11.59
34.562,-13.91
34.578,-14.36
34.593,-12.65
34.609,-9.31
34.625,-5.43
34.640,-2.35
34.656,-1.15
34.671,-2.24
34.687,-5.25
34.703,-9.23
34.718,-12.94
34.734,-15.35
34.750,-15.95
34.765,-14.81
34.781,-12.53
34.796,-9.98
34.812,-8.05
34.828,-7.39
34.843,-8.17
34.859,-10.07
34.875,-12.24
34.890,-13.65
34.906,-13.38
34.921,-11.02
34.937,-6.74
34.953,-1.17
34.968,4.91
34.984,10.88
35.000,16.42
35.015,21.41
35.031,25.67
35.046,28.99
35.062,31.01
35.078,31.51
35.093,30.48
35.109,28.2
35.125,25.2
35.140,22.0
35.156,18.95
35.171,16.1
35.187,13.27
35.203,10.15
35.218,6.53
35.234,2.53
35.250,-1.43
35.265,-4.72
35.281,-6.77
35.296,-7.41
35.312,-6.9
35.328,-5.81
35.343,-4.74
35.359,-4.0
35.375,-3.43
35.390,-2.59
35.406,-0.96
35.421,1.74
35.437,5.33
35.453,9.3
35.468,12.91
35.484,15.47
35.500,16.49
35.515,15.86
35.531,13.75
35.546,10.61
35.562,6.93
35.578,3.11
35.593,-0.68
35.609,-4.45
35.625,-8.22
35.640,-11.95
35.656,-15.39
35.671,-18.16
35.687,-19.96
35.703,-20.66
35.718,-20.48
35.734,-19.89
35.750,-19.39
35.765,-19.36
35.781,-19.88
35.796,-20.71
35.812,-21.44
35.828,-21.64
35.843,-20.96
35.859,-19.22
35.875,-16.4
35.890,-12.57
35.906,-7.96
35.921,-2.96
35.937,1.89
35.953,5.94
35.968,8.68
35.984,9.98
36.000,10.26
36.015,10.39
36.031,11.32
36.046,13.72
36.062,17.61
36.078,22.38
36.093,27.05
36.109,30.7
36.125,32.94
36.140,34.1
36.156,35.05
36.171,36.91
36.187,40.49
36.203,46.03
36.218,53.08
36.234,60.76
36.250,68.15
36.265,74.61
36.281,79.85
36.296,83.79
36.312,86.41
36.328,87.7
36.343,87.96
36.359,88.06
36.375,89.5
36.390,93.96
36.406,102.67
36.421,115.61
36.437,131.3
36.453,147.19
36.468,160.45
36.484,168.88
36.500,171.3
36.515,167.59
36.531,158.24
36.546,144.03
36.562,125.95
36.578,105.27
36.593,83.74
36.609,63.26
36.625,45.61
36.640,31.91
36.656,22.43
36.671,16.65
36.687,13.64
36.703,12.43
36.718,12.18
36.734,11.99
36.750,10.83
36.765,7.53
36.781,1.15
36.796,-8.67
36.812,-21.41
36.828,-35.95
36.843,-50.99
36.859,-65.43
36.875,-78.45
36.890,-89.36
36.906,-97.28
36.921,-101.25
36.937,-100.59
36.953,-95.43
36.968,-86.95
36.984,-77.04
37.000,-67.65
37.015,-60.1
37.031,-54.64
37.046,-50.78
37.062,-47.74
37.078,-45.01
37.093,-42.37
37.109,-39.72
37.125,-36.84
37.140,-33.4
37.156,-29.32
37.171,-24.97
37.187,-21.26
37.203,-19.11
37.218,-18.89
37.234,-20.1
37.250,-21.48
37.265,-21.78
37.281,-20.47
37.296,-18.22
37.312,-16.6
37.328,-17.37
37.343,-21.65
37.359,-29.5
37.375,-40.07
37.390,-51.99
37.406,-63.75
37.421,-73.88
37.437,-80.95
37.453,-83.66
37.468,-81.25
37.484,-73.9
37.500,-62.97
37.515,-50.68
37.531,-39.36
37.546,-30.7
37.562,-25.21
37.578,-22.38
37.593,-21.2
37.609,-20.72
37.625,-20.35
37.640,-19.92
37.656,-19.47
37.671,-19.07
37.687,-18.71
37.703,-18.3
37.718,-17.75
37.734,-16.96
37.750,-15.96
37.765,-14.91
37.781,-14.17
37.796,-14.2
37.812,-15.3
37.828,-17.45
37.843,-19.97
37.859,-21.79
37.875,-21.99
37.890,-20.47
37.906,-18.5
37.921,-18.51
37.937,-23.25
37.953,-34.37
37.968,-51.29
37.984,-70.86
38.000,-88.31
38.015,-98.96
38.031,-100.11
38.046,-92.09
38.062,-77.93
38.078,-61.87
38.093,-47.56
38.109,-36.84
38.125,-29.64
38.140,-24.74
38.156,-20.89
38.171,-17.55
38.187,-14.91
38.203,-13.5
38.218,-13.65
38.234,-15.19
38.250,-17.4
38.265,-19.3
38.281,-19.86
38.296,-18.35
38.312,-14.47
38.328,-8.52
38.343,-1.24
38.359,6.4
38.375,13.5
38.390,19.49
38.406,24.09
38.421,27.21
38.437,28.58
38.453,27.69
38.468,23.96
38.484,17.17
38.500,8.02
38.515,-1.82
38.531,-10.16
38.546,-15.08
38.562,-15.6
38.578,-11.99
38.593,-5.44
38.609,2.54
38.625,10.82
38.640,18.97
38.656,27.05
38.671,35.12
38.687,42.82
38.703,49.34
38.718,53.77
38.734,55.68
38.750,55.49
38.765,54.36
38.781,53.71
38.796,54.66
38.812,57.63
38.828,62.5
38.843,69.07
38.859,77.33
38.875,87.29
38.890,98.46
38.906,109.14
38.921,116.45
38.937,116.92
38.953,107.81
38.968,88.09
38.984,58.81
39.000,22.65
39.015,-16.87
39.031,-56.17
39.046,-92.07
39.062,-121.95
39.078,-143.94
39.093,-157.08
39.109,-161.62
39.125,-158.9
39.140,-151.03
39.156,-140.19
39.171,-128.14
39.187,-116.01
39.203,-104.45
39.218,-93.86
39.234,-84.59
39.250,-76.95
39.265,-71.07
39.281,-66.73
39.296,-63.22
39.312,-59.54
39.328,-54.66
39.343,-47.85
39.359,-39.08
39.375,-28.95
39.390,-18.5
39.406,-8.69
39.421,0.01
39.437,7.81
39.453,15.35
39.468,23.17
39.484,31.29
39.500,39.05
39.515,45.4
39.531,49.36
39.546,50.36
39.562,48.44
39.578,44.19
39.593,38.51
39.609,32.3
39.625,26.31
39.640,21.09
39.656,17.11
39.671,14.85
39.687,14.73
39.703,16.99
39.718,21.45
39.734,27.44
39.750,33.99
39.765,40.2
39.781,45.62
39.796,50.31
39.812,54.62
39.828,58.82
39.843,62.73
39.859,65.65
39.875,66.62
39.890,64.85
39.906,60.07
39.921,52.62
39.937,43.28
39.953,32.95
39.968,22.46
39.984,12.47
40.000,3.42
40.015,-4.35
40.031,-10.67
40.046,-15.45
40.062,-18.67
40.078,-20.41
40.093,-20.74
40.109,-19.81
40.125,-17.83
40.140,-15.05
40.156,-11.63
40.171,-7.65
40.187,-3.04
40.203,2.33
40.218,8.58
40.234,15.8
40.250,24.0
40.265,32.99
40.281,42.3
40.296,50.94
40.312,57.41
40.328,60.0
40.343,57.42
40.359,49.3
40.375,36.6
40.390,21.39
40.406,6.25
40.421,-6.53
40.437,-15.48
40.453,-20.25
40.468,-21.54
40.484,-20.7
40.500,-19.35
40.515,-18.78
40.531,-19.64
40.546,-21.7
40.562,-24.12
40.578,-26.1
40.593,-27.41
40.609,-28.73
40.625,-31.42
40.640,-36.9
40.656,-45.94
40.671,-58.42
40.687,-73.28
40.703,-88.94
40.718,-103.4
40.734,-114.43
40.750,-119.7
40.765,-117.35
40.781,-106.65
40.796,-88.59
40.812,-65.82
40.828,-41.97
40.843,-20.46
40.859,-3.52
40.875,8.2
40.890,15.17
40.906,18.26
40.921,18.11
40.937,14.98
40.953,9.14
40.968,1.29
40.984,-7.25
41.000,-14.8
41.015,-19.84
41.031,-21.5
41.046,-19.77
41.062,-15.41
41.078,-9.71
41.093,-4.06
41.109,0.32
41.125,2.73
41.140,3.05
41.156,1.63
41.171,-0.92
41.187,-4.14
41.203,-7.98
41.218,-12.75
41.234,-18.87
41.250,-26.31
41.265,-34.26
41.281,-41.17
41.296,-45.22
41.312,-45.16
41.328,-40.8
41.343,-33.12
41.359,-23.8
41.375,-14.46
41.390,-6.15
41.406,0.87
41.421,6.94
41.437,12.61
41.453,18.31
41.468,24.15
41.484,29.82
41.500,34.62
41.515,37.62
41.531,38.04
41.546,35.76
41.562,31.73
41.578,27.98
41.593,26.98
41.609,30.58
41.625,39.12
41.640,51.09
41.656,63.73
41.671,74.14
41.687,80.51
41.703,82.59
41.718,81.29
41.734,77.8
41.750,72.61
41.765,65.3
41.781,55.01
41.796,41.19
41.812,24.2
41.828,5.43
41.843,-13.19
41.859,-29.8
41.875,-43.05
41.890,-52.33
41.906,-57.73
41.921,-59.73
41.937,-59.15
41.953,-56.85
41.968,-53.56
41.984,-49.64
42.000,-45.0
42.015,-39.29
42.031,-32.25
42.046,-24.24
42.062,-16.26
42.078,-9.7
42.093,-5.79
42.109,-5.08
42.125,-7.31
42.140,-11.59
42.156,-16.84
42.171,-22.13
42.187,-26.79
42.203,-30.32
42.218,-32.38
42.234,-32.74
42.250,-31.44
42.265,-28.91
42.281,-25.94
42.296,-23.47
42.312,-22.34
42.328,-23.08
42.343,-25.81
42.359,-30.36
42.375,-36.31
42.390,-42.95
42.406,-49.15
42.421,-53.3
42.437,-53.63
42.453,-48.74
42.468,-38.19
42.484,-22.76
42.500,-4.22
42.515,15.27
42.531,33.9
42.546,50.58
42.562,64.84
42.578,76.53
42.593,85.55
42.609,91.85
42.625,95.69
42.640,97.86
42.656,99.38
42.671,100.84
42.687,101.81
42.703,100.61
42.718,94.95
42.734,83.0
42.750,64.42
42.765,40.75
42.781,14.98
42.796,-9.49
42.812,-29.93
42.828,-44.93
42.843,-54.55
42.859,-59.98
42.875,-63.04
42.890,-65.66
42.906,-69.51
42.921,-75.56
42.937,-83.76
42.953,-92.92
42.968,-100.91
42.984,-105.35
43.000,-104.29
43.015,-96.85
43.031,-83.36
43.046,-65.12
43.062,-43.86
43.078,-21.29
43.093,1.12
43.109,22.17
43.125,40.92
43.140,56.67
43.156,69.09
43.171,78.25
43.187,84.6
43.203,88.72
43.218,91.01
43.234,91.57
43.250,90.3
43.265,87.19
43.281,82.69
43.296,77.74
43.312,73.58
43.328,71.25
43.343,71.12
43.359,72.61
43.375,74.32
43.390,74.6
43.406,72.0
43.421,65.8
43.437,56.11
43.453,43.74
43.468,29.91
43.484,15.94
43.500,3.08
43.515,-7.73
43.531,-15.84
43.546,-20.97
43.562,-23.17
43.578,-22.69
43.593,-19.95
43.609,-15.44
43.625,-9.71
43.640,-3.34
43.656,3.17
43.671,9.3
43.687,14.68
43.703,18.99
43.718,22.06
43.734,23.85
43.750,24.56
43.765,24.56
43.781,24.27
43.796,23.99
43.812,23.67
43.828,22.81
43.843,20.59
43.859,16.27
43.875,9.54
43.890,0.8
43.906,-9.0
43.921,-18.8
43.937,-27.93
43.953,-36.46
43.968,-45.12
43.984,-54.86
44.000,-66.32
44.015,-79.44
44.031,-93.43
44.046,-106.95
44.062,-118.34
44.078,-125.94
44.093,-128.19
44.109,-123.91
44.125,-112.55
44.140,-94.49
44.156,-71.1
44.171,-44.54
44.187,-17.24
44.203,8.7
44.218,31.89
44.234,51.71
44.250,68.07
44.265,81.11
44.281,90.97
44.296,97.81
44.312,101.81
44.328,103.33
44.343,102.71
44.359,100.27
44.375,96.19
44.390,90.58
44.406,83.61
44.421,75.54
44.437,66.8
44.453,57.89
44.468,49.37
44.484,41.79
44.500,35.64
44.515,31.26
44.531,28.69
44.546,27.62
44.562,27.4
44.578,27.39
44.593,27.39
44.609,27.89
44.625,30.05
44.640,35.15
44.656,43.73
44.671,54.97
44.687,66.7
44.703,76.04
44.718,80.42
44.734,78.43
44.750,70.1
44.765,56.4
44.781,38.74
44.796,18.37
44.812,-3.55
44.828,-25.62
44.843,-46.14
44.859,-63.17
44.875,-75.11
44.890,-81.29
44.906,-82.22
44.921,-79.4
44.937,-74.98
44.953,-71.06
44.968,-69.2
44.984,-70.05
45.000,-73.13
45.015,-77.05
45.031,-79.99
45.046,-80.39
45.062,-77.66
45.078,-72.55
45.093,-66.95
45.109,-63.4
45.125,-64.24
45.140,-70.97
45.156,-83.71
45.171,-101.09
45.187,-120.3
45.203,-137.58
45.218,-149.03
45.234,-151.64
45.250,-144.13
45.265,-127.3
45.281,-103.63
45.296,-76.53
45.312,-49.36
45.328,-24.82
45.343,-4.62
45.359,10.55
45.375,21.08
45.390,28.37
45.406,34.55
45.421,41.95
45.437,52.2
45.453,65.65
45.468,80.98
45.484,95.59
45.500,106.23
45.515,109.82
45.531,104.09
45.546,88.06
45.562,62.5
45.578,30.0
45.593,-5.35
45.609,-38.83
45.625,-66.45
45.640,-86.16
45.656,-98.25
45.671,-104.88
45.687,-108.65
45.703,-111.2
45.718,-112.44
45.734,-110.97
45.750,-105.21
45.765,-94.63
45.781,-80.26
45.796,-64.24
45.812,-48.77
45.828,-35.14
45.843,-23.37
45.859,-12.61
45.875,-2.01
45.890,8.52
45.906,18.13
45.921,25.35
45.937,29.01
45.953,28.92
45.968,26.09
45.984,22.31
46.000,19.34
46.015,18.15
46.031,18.6
46.046,19.7
46.062,20.28
46.078,19.59
46.093,17.66
46.109,15.22
46.125,13.21
46.140,12.18
46.156,11.96
46.171,11.7
46.187,10.09
46.203,5.89
46.218,-1.64
46.234,-12.51
46.250,-25.78
46.265,-39.63
46.281,-51.68
46.296,-59.46
46.312,-61.12
46.328,-56.11
46.343,-45.44
46.359,-31.43
46.375,-16.95
46.390,-4.48
46.406,4.62
46.421,10.35
46.437,13.7
46.453,15.91
46.468,17.73
46.484,19.27
46.500,20.16
46.515,20.02
46.531,18.8
46.546,16.84
46.562,14.62
46.578,12.4
46.593,10.07
46.609,7.27
46.625,3.8
46.640,-0.1
46.656,-3.7
46.671,-6.07
46.687,-6.69
46.703,-5.73
46.718,-4.15
46.734,-3.32
46.750,-4.49
46.765,-8.27
46.781,-14.45
46.796,-21.94
46.812,-29.01
46.828,-33.65
46.843,-33.97
46.859,-28.66
46.875,-17.37
46.890,-0.93
46.906,18.83
46.921,39.5
46.937,58.8
46.953,75.25
46.968,88.21
46.984,97.68
47.000,103.79
47.015,106.5
47.031,105.66
47.046,101.62
47.062,95.43
47.078,88.9
47.093,83.95
47.109,81.73
47.125,82.09
47.140,83.6
47.156,84.29
47.171,82.64
47.187,78.3
47.203,72.12
47.218,65.71
47.234,60.52
47.250,57.22
47.265,55.37
47.281,53.56
47.296,49.89
47.312,42.52
47.328,30.24
47.343,12.92
47.359,-8.23
47.375,-30.73
47.390,-51.34
47.406,-66.87
47.421,-75.12
47.437,-75.49
47.453,-69.01
47.468,-57.86
47.484,-44.51
47.500,-30.94
47.515,-18.3
47.531,-7.05
47.546,2.59
47.562,10.19
47.578,15.09
47.593,16.72
47.609,15.09
47.625,11.08
47.640,6.29
47.656,2.52
47.671,1.15
47.687,2.64
47.703,6.47
47.718,11.45
47.734,16.25
47.750,19.99
47.765,22.51
47.781,24.18
47.796,25.58
47.812,27.04
47.828,28.41
47.843,28.96
47.859,27.77
47.875,24.0
47.890,17.4
47.906,8.56
47.921,-1.03
47.937,-9.22
47.953,-13.83
47.968,-13.2
47.984,-6.8
48.000,4.66
48.015,19.45
48.031,35.42
48.046,50.71
48.062,64.11
48.078,75.23
48.093,84.2
48.109,91.34
48.125,96.92
48.140,100.99
48.156,103.32
48.171,103.37
48.187,100.51
48.203,94.23
48.218,84.51
48.234,72.0
48.250,57.85
48.265,43.44
48.281,30.01
48.296,18.55
48.312,10.07
48.328,5.7
48.343,6.59
48.359,13.3
48.375,25.07
48.390,39.41
48.406,52.55
48.421,60.49
48.437,60.29
48.453,50.96
48.468,33.58
48.484,10.78
48.500,-14.08
48.515,-37.62
48.531,-57.0
48.546,-70.27
48.562,-76.6
48.578,-76.4
48.593,-71.09
48.609,-62.69
48.625,-53.22
48.640,-44.23
48.656,-36.55
48.671,-30.4
48.687,-25.62
48.703,-21.95
48.718,-19.23
48.734,-17.53
48.750,-17.12
48.765,-18.41
48.781,-21.79
48.796,-27.29
48.812,-34.43
48.828,-42.12
48.843,-48.97
48.859,-53.76
48.875,-55.92
48.890,-55.69
48.906,-54.0
48.921,-52.01
48.937,-50.71
48.953,-50.61
48.968,-51.79
48.984,-54.13
49.000,-57.54
49.015,-62.03
49.031,-67.56
49.046,-73.66
49.062,-79.2
49.078,-82.45
49.093,-81.58
49.109,-75.21
49.125,-63.06
49.140,-46.06
49.156,-26.17
49.171,-5.68
49.187,13.37
49.203,29.63
49.218,42.51
49.234,51.97
49.250,58.09
49.265,60.95
49.281,60.65
49.296,57.47
49.312,52.05
49.328,45.36
49.343,38.4
49.359,31.87
49.375,25.81
49.390,19.65
49.406,12.47
49.421,3.53
49.437,-7.21
49.453,-19.04
49.468,-30.69
49.484,-40.93
49.500,-49.08
49.515,-55.25
49.531,-60.32
49.546,-65.54
49.562,-72.13
49.578,-80.88
49.593,-91.78
49.609,-103.79
49.625,-114.82
49.640,-122.04
49.656,-122.61
49.671,-114.68
49.687,-97.97
49.703,-74.08
49.718,-45.96
49.734,-16.98
49.750,9.91
49.765,32.69
49.781,50.35
49.796,62.68
49.812,70.0
49.828,73.1
49.843,73.12
49.859,71.42
49.875,69.41
49.890,68.26
49.906,68.95
49.921,72.21
49.937,78.69
49.953,88.72
49.968,102.01
49.984,117.28
50.000,132.26
50.015,144.19
50.031,150.64
50.046,150.35
50.062,143.59
50.078,131.88
50.093,117.33
50.109,101.92
50.125,86.92
50.140,72.91
50.156,59.93
50.171,47.78
50.187,36.28
50.203,25.38
50.218,15.13
50.234,5.64
50.250,-3.0
50.265,-10.78
50.281,-17.75
50.296,-23.86
50.312,-28.92
50.328,-32.53
50.343,-34.28
50.359,-34.05
50.375,-32.21
50.390,-29.66
50.406,-27.56
50.421,-26.89
50.437,-28.07
50.453,-30.87
50.468,-34.53
50.484,-38.1
50.500,-40.78
50.515,-42.11
50.531,-42.02
50.546,-40.82
50.562,-38.98
50.578,-37.19
50.593,-36.15
50.609,-36.47
50.625,-38.5
50.640,-42.21
50.656,-47.19
50.671,-52.76
50.687,-58.14
50.703,-62.71
50.718,-66.17
50.734,-68.66
50.750,-70.68
50.765,-72.82
50.781,-75.32
50.796,-77.77
50.812,-78.94
50.828,-77.08
50.843,-70.56
50.859,-58.6
50.875,-41.75
50.890,-21.73
50.906,-0.88
50.921,18.68
50.937,35.64
50.953,49.56
50.968,60.55
50.984,68.78
51.000,74.24
51.015,76.84
51.031,76.78
51.046,74.76
51.062,71.92
51.078,69.41
51.093,67.9
51.109,67.18
51.125,66.19
51.140,63.55
51.156,58.13
51.171,49.61
51.187,38.62
51.203,26.41
51.218,14.39
51.234,3.53
51.250,-5.96
51.265,-14.52
51.281,-22.97
51.296,-32.14
51.312,-42.54
51.328,-54.31
51.343,-67.12
51.359,-80.06
51.375,-91.63
51.390,-99.88
51.406,-102.95
51.421,-99.55
51.437,-89.61
51.453,-74.36
51.468,-55.96
51.484,-36.8
51.500,-18.81
51.515,-3.08
51.531,10.1
51.546,20.81
51.562,29.19
51.578,35.33
51.593,39.35
51.609,41.57
51.625,42.48
51.640,42.66
51.656,42.53
51.671,42.16
51.687,41.25
51.703,39.37
51.718,36.21
51.734,31.83
51.750,26.67
51.765,21.44
51.781,16.8
51.796,12.95
51.812,9.67
51.828,6.29
51.843,2.09
51.859,-3.45
51.875,-10.46
51.890,-18.78
51.906,-28.13
51.921,-38.05
51.937,-47.85
51.953,-56.45
51.968,-62.42
51.984,-64.34
52.000,-61.38
52.015,-53.75
52.031,-42.66
52.046,-29.99
52.062,-17.59
52.078,-6.72
52.093,2.09
52.109,8.87
52.125,13.78
52.140,16.97
52.156,18.54
52.171,18.74
52.187,18.13
52.203,17.44
52.218,17.34
52.234,18.14
52.250,19.66
52.265,21.43
52.281,22.92
52.296,23.8
52.312,24.01
52.328,23.53
52.343,22.26
52.359,19.96
52.375,16.41
52.390,11.6
52.406,5.72
52.421,-0.98
52.437,-8.34
52.453,-16.34
52.468,-24.76
52.484,-32.83
52.500,-39.13
52.515,-41.97
52.531,-40.0
52.546,-32.91
52.562,-21.68
52.578,-8.18
52.593,5.5
52.609,17.84
52.625,27.99
52.640,35.69
52.656,40.94
52.671,43.72
52.687,44.11
52.703,42.48
52.718,39.64
52.734,36.58
52.750,34.22
52.765,33.04
52.781,33.0
52.796,33.76
52.812,34.96
52.828,36.43
52.843,38.24
52.859,40.66
52.875,44.11
52.890,49.2
52.906,56.71
52.921,67.27
52.937,80.86
52.953,96.4
52.968,111.67
52.984,123.88
53.000,130.65
53.015,130.83
53.031,124.82
53.046,114.1
53.062,100.28
53.078,84.57
53.093,67.5
53.109,49.43
53.125,30.96
53.140,12.97
53.156,-3.59
53.171,-18.21
53.187,-30.88
53.203,-41.87
53.218,-51.27
53.234,-58.74
53.250,-63.8
53.265,-66.21
53.281,-66.34
53.296,-65.09
53.312,-63.53
53.328,-62.42
53.343,-62.1
53.359,-62.57
53.375,-63.85
53.390,-65.99
53.406,-69.02
53.421,-72.66
53.437,-76.3
53.453,-79.16
53.468,-80.63
53.484,-80.62
53.500,-79.45
53.515,-77.82
53.531,-76.47
53.546,-75.99
53.562,-76.74
53.578,-78.66
53.593,-81.31
53.609,-83.67
53.625,-84.46
53.640,-82.4
53.656,-76.7
53.671,-67.31
53.687,-54.98
53.703,-40.9
53.718,-26.32
53.734,-12.2
53.750,0.76
53.765,11.93
53.781,20.59
53.796,25.98
53.812,27.57
53.828,25.42
53.843,20.43
53.859,14.09
53.875,8.02
53.890,3.41
53.906,0.5
53.921,-1.37
53.937,-3.35
53.953,-6.49
53.968,-11.21
53.984,-17.12
54.000,-23.28
54.015,-28.68
54.031,-32.62
54.046,-35.02
54.062,-36.32
54.078,-37.17
54.093,-38.18
54.109,-39.72
54.125,-41.93
54.140,-44.75
54.156,-47.97
54.171,-51.1
54.187,-53.31
54.203,-53.53
54.218,-50.67
54.234,-43.98
54.250,-33.4
54.265,-19.63
54.281,-3.94
54.296,12.12
54.312,27.16
54.328,40.2
54.343,50.66
54.359,58.27
54.375,62.82
54.390,64.11
54.406,62.15
54.421,57.29
54.437,50.39
54.453,42.66
54.468,35.32
54.484,29.24
54.500,24.55
54.515,20.73
54.531,16.88
54.546,12.25
54.562,6.62
54.578,0.46
54.593,-5.35
54.609,-9.9
54.625,-12.77
54.640,-14.34
54.656,-15.65
54.671,-17.99
54.687,-22.25
54.703,-28.27
54.718,-34.75
54.734,-39.59
54.750,-40.77
54.765,-37.27
54.781,-29.49
54.796,-19.01
54.812,-7.77
54.828,2.77
54.843,12.1
54.859,20.47
54.875,28.21
54.890,35.13
54.906,40.38
54.921,42.82
54.937,41.73
54.953,37.42
54.968,31.13
54.984,24.63
55.000,19.29
55.015,15.55
55.031,12.82
55.046,9.96
55.062,5.98
55.078,0.72
55.093,-5.05
55.109,-10.03
55.125,-12.97
55.140,-13.18
55.156,-10.8
55.171,-6.71
55.187,-2.32
55.203,0.81
55.218,1.28
55.234,-1.71
55.250,-8.0
55.265,-16.25
55.281,-24.16
55.296,-29.15
55.312,-29.15
55.328,-23.41
55.343,-12.74
55.359,0.91
55.375,15.13
55.390,27.76
55.406,37.42
55.421,43.47
55.437,45.86
55.453,44.96
55.468,41.44
55.484,36.17
55.500,30.14
55.515,24.24
55.531,19.02
55.546,14.66
55.562,10.98
55.578,7.72
55.593,4.75
55.609,2.27
55.625,0.76
55.640,0.66
55.656,2.18
55.671,5.05
55.687,8.52
55.703,11.55
55.718,12.97
55.734,11.76
55.750,7.27
55.765,-0.57
55.781,-11.11
55.796,-22.82
55.812,-33.54
55.828,-40.79
55.843,-42.46
55.859,-37.36
55.875,-25.76
55.890,-9.37
55.906,9.06
55.921,26.41
55.937,40.04
55.953,48.46
55.968,51.51
55.984,50.23
56.000,46.23
56.015,41.06
56.031,35.67
56.046,30.39
56.062,25.13
56.078,19.91
56.093,15.03
56.109,10.96
56.125,8.07
56.140,6.34
56.156,5.27
56.171,4.2
56.187,2.66
56.203,0.63
56.218,-1.37
56.234,-2.62
56.250,-2.52
56.265,-1.01
56.281,1.36
56.296,3.5
56.312,4.18
56.328,2.6
56.343,-1.14
56.359,-5.77
56.375,-9.23
56.390,-9.32
56.406,-4.72
56.421,4.4
56.437,16.3
56.453,28.31
56.468,37.85
56.484,43.23
56.500,44.09
56.515,41.07
56.531,35.3
56.546,27.75
56.562,19.06
56.578,9.64
56.593,0.02
56.609,-8.93
56.625,-16.08
56.640,-20.41
56.656,-21.46
56.671,-19.64
56.687,-16.09
56.703,-12.32
56.718,-9.59
56.734,-8.53
56.750,-8.97
56.765,-10.33
56.781,-11.97
56.796,-13.49
56.812,-14.82
56.828,-16.02
56.843,-17.15
56.859,-18.21
56.875,-19.33
56.890,-20.92
56.906,-23.67
56.921,-28.1
56.937,-34.14
56.953,-40.65
56.968,-45.68
56.984,-47.04
57.000,-43.28
57.015,-34.3
57.031,-21.48
57.046,-7.14
57.062,6.38
57.078,17.47
57.093,25.53
57.109,30.88
57.125,34.12
57.140,35.71
57.156,35.74
57.171,34.05
57.187,30.58
57.203,25.73
57.218,20.41
57.234,15.82
57.250,13.07
57.265,12.66
57.281,14.24
57.296,16.77
57.312,18.94
57.328,19.83
57.343,19.35
57.359,18.18
57.375,17.43
57.390,17.92
57.406,19.73
57.421,22.11
57.437,23.81
57.453,23.64
57.468,21.05
57.484,16.26
57.500,10.14
57.515,3.9
57.531,-1.31
57.546,-4.56
57.562,-5.28
57.578,-3.26
57.593,1.29
57.609,7.7
57.625,14.91
57.640,21.71
57.656,26.93
57.671,29.83
57.687,30.14
57.703,28.1
57.718,24.2
57.734,18.99
57.750,12.93
57.765,6.34
57.781,-0.51
57.796,-7.28
57.812,-13.51
57.828,-18.68
57.843,-22.32
57.859,-24.13
57.875,-24.21
57.890,-22.98
57.906,-21.13
57.921,-19.27
57.937,-17.73
57.953,-16.41
57.968,-14.91
57.984,-12.92
58.000,-10.58
58.015,-8.64
58.031,-8.15
58.046,-9.99
58.062,-14.28
58.078,-20.15
58.093,-25.92
58.109,-29.67
58.125,-29.87
58.140,-25.8
58.156,-17.69
58.171,-6.64
58.187,5.77
58.203,17.77
58.218,27.75
58.234,34.62
58.250,37.98
58.265,38.11
58.281,35.85
58.296,32.23
58.312,28.16
58.328,24.31
58.343,20.97
58.359,18.31
58.375,16.39
58.390,15.22
58.406,14.74
58.421,14.75
58.437,15.01
58.453,15.26
58.468,15.42
58.484,15.57
58.500,15.98
58.515,16.85
58.531,18.21
58.546,19.83
58.562,21.24
58.578,21.84
58.593,21.17
58.609,19.09
58.625,15.76
58.640,11.63
58.656,7.28
58.671,3.18
58.687,-0.35
58.703,-3.2
58.718,-5.33
58.734,-6.76
58.750,-7.44
58.765,-7.32
58.781,-6.45
58.796,-4.95
58.812,-3.05
58.828,-0.95
58.843,1.14
58.859,3.05
58.875,4.49
58.890,5.07
58.906,4.38
58.921,2.09
58.937,-1.74
58.953,-6.58
58.968,-11.56
58.984,-15.71
59.000,-18.33
59.015,-19.29
59.031,-18.95
59.046,-17.93
59.062,-16.75
59.078,-15.6
59.093,-14.31
59.109,-12.71
59.125,-10.89
59.140,-9.34
59.156,-8.85
59.171,-10.06
59.187,-13.15
59.203,-17.59
59.218,-22.37
59.234,-26.33
59.250,-28.61
59.265,-28.84
59.281,-27.03
59.296,-23.46
59.312,-18.43
59.328,-12.25
59.343,-5.24
59.359,2.21
59.375,9.56
59.390,16.22
59.406,21.74
59.421,25.79
59.437,28.21
59.453,28.99
59.468,28.24
59.484,26.28
59.500,23.59
59.515,20.82
59.531,18.56
59.546,17.21
59.562,16.81
59.578,17.06
59.593,17.5
59.609,17.77
59.625,17.75
59.640,17.6
59.656,17.64
59.671,18.1
59.687,18.98
59.703,20.01
59.718,20.72
59.734,20.68
59.750,19.56
59.765,17.23
59.781,13.8
59.796,9.61
59.812,5.15
59.828,1.04
59.843,-2.09
59.859,-3.71
59.875,-3.52
59.890,-1.65
59.906,1.48
59.921,5.13
59.937,8.48
59.953,10.87
59.968,11.91
59.984,11.55
