timestamp,value
00.000,5.74
00.015,7.46
00.031,8.89
00.046,10.02
00.062,10.94
00.078,11.66
00.093,12.25
00.109,12.67
00.125,12.82
00.140,12.61
00.156,11.99
00.171,11.03
00.187,9.81
00.203,8.48
00.218,7.15
00.234,5.94
00.250,4.94
00.265,4.17
00.281,3.56
00.296,3.0
00.312,2.3
00.328,1.37
00.343,0.26
00.359,-0.92
00.375,-2.07
00.390,-3.16
00.406,-4.46
00.421,-6.28
00.437,-8.88
00.453,-12.2
00.468,-15.85
00.484,-19.24
00.500,-21.79
00.515,-23.18
00.531,-23.34
00.546,-22.46
00.562,-20.66
00.578,-18.02
00.593,-14.47
00.609,-10.06
00.625,-4.98
00.640,0.28
00.656,5.18
00.671,9.23
00.687,12.12
00.703,13.86
00.718,14.65
00.734,14.84
00.750,14.81
00.765,14.82
00.781,14.93
00.796,15.08
00.812,15.14
00.828,14.98
00.843,14.64
00.859,14.21
00.875,13.84
00.890,13.65
00.906,13.62
00.921,13.61
00.937,13.41
00.953,12.85
00.968,11.86
00.984,10.48
01.000,8.8
01.015,6.99
01.031,5.24
01.046,3.64
01.062,2.23
01.078,0.84
01.093,-0.72
01.109,-2.66
01.125,-5.01
01.140,-7.74
01.156,-10.67
01.171,-13.61
01.187,-16.36
01.203,-18.72
01.218,-20.51
01.234,-21.56
01.250,-21.84
01.265,-21.44
01.281,-20.58
01.296,-19.48
01.312,-18.29
01.328,-17.07
01.343,-15.7
01.359,-14.12
01.375,-12.28
01.390,-10.27
01.406,-8.22
01.421,-6.29
01.437,-4.59
01.453,-3.2
01.468,-2.16
01.484,-1.46
01.500,-0.99
01.515,-0.68
01.531,-0.41
01.546,-0.16
01.562,0.1
01.578,0.39
01.593,0.79
01.609,1.34
01.625,2.09
01.640,2.89
01.656,3.52
01.671,3.78
01.687,3.57
01.703,2.93
01.718,2.07
01.734,1.21
01.750,0.47
01.765,-0.11
01.781,-0.63
01.796,-1.27
01.812,-2.17
01.828,-3.42
01.843,-5.06
01.859,-6.95
01.875,-8.85
01.890,-10.4
01.906,-11.28
01.921,-11.26
01.937,-10.32
01.953,-8.54
01.968,-6.1
01.984,-3.25
02.000,-0.22
02.015,2.65
02.031,5.08
02.046,6.77
02.062,7.57
02.078,7.49
02.093,6.77
02.109,5.73
02.125,4.68
02.140,3.87
02.156,3.35
02.171,3.1
02.187,3.03
02.203,3.11
02.218,3.35
02.234,3.83
02.250,4.65
02.265,5.84
02.281,7.39
02.296,9.12
02.312,10.76
02.328,12.06
02.343,12.86
02.359,13.22
02.375,13.32
02.390,13.43
02.406,13.67
02.421,14.03
02.437,14.3
02.453,14.28
02.468,13.86
02.484,13.14
02.500,12.32
02.515,11.56
02.531,10.85
02.546,9.96
02.562,8.65
02.578,6.79
02.593,4.53
02.609,2.23
02.625,0.29
02.640,-1.08
02.656,-1.9
02.671,-2.37
02.687,-2.69
02.703,-2.84
02.718,-2.6
02.734,-1.74
02.750,-0.18
02.765,1.83
02.781,3.88
02.796,5.59
02.812,6.77
02.828,7.5
02.843,8.03
02.859,8.6
02.875,9.36
02.890,10.29
02.906,11.28
02.921,12.18
02.937,12.89
02.953,13.35
02.968,13.53
02.984,13.43
03.000,13.02
03.015,12.23
03.031,10.88
03.046,8.74
03.062,5.56
03.078,1.27
03.093,-3.97
03.109,-9.75
03.125,-15.58
03.140,-21.14
03.156,-26.43
03.171,-31.58
03.187,-36.7
03.203,-41.71
03.218,-46.16
03.234,-49.46
03.250,-51.03
03.265,-50.52
03.281,-47.92
03.296,-43.46
03.312,-37.5
03.328,-30.49
03.343,-23.06
03.359,-15.89
03.375,-9.66
03.390,-4.81
03.406,-1.34
03.421,1.16
03.437,3.37
03.453,5.96
03.468,9.27
03.484,13.32
03.500,17.85
03.515,22.53
03.531,27.1
03.546,31.44
03.562,35.57
03.578,39.55
03.593,43.45
03.609,47.2
03.625,50.6
03.640,53.34
03.656,54.98
03.671,55.16
03.687,53.82
03.703,51.25
03.718,48.13
03.734,45.31
03.750,43.58
03.765,43.36
03.781,44.55
03.796,46.38
03.812,47.6
03.828,46.8
03.843,42.77
03.859,34.94
03.875,23.6
03.890,9.83
03.906,-4.91
03.921,-19.19
03.937,-31.98
03.953,-42.83
03.968,-51.7
03.984,-58.75
04.000,-64.16
04.015,-67.99
04.031,-70.24
04.046,-70.97
04.062,-70.32
04.078,-68.54
04.093,-65.99
04.109,-63.03
04.125,-59.99
04.140,-57.01
04.156,-54.11
04.171,-51.15
04.187,-47.89
04.203,-44.18
04.218,-39.99
04.234,-35.42
04.250,-30.65
04.265,-25.83
04.281,-21.01
04.296,-16.13
04.312,-11.18
04.328,-6.18
04.343,-1.29
04.359,3.22
04.375,7.14
04.390,10.39
04.406,13.15
04.421,15.69
04.437,18.2
04.453,20.5
04.468,22.09
04.484,22.25
04.500,20.37
04.515,16.22
04.531,10.05
04.546,2.55
04.562,-5.49
04.578,-13.26
04.593,-20.09
04.609,-25.45
04.625,-28.99
04.640,-30.57
04.656,-30.23
04.671,-28.28
04.687,-25.07
04.703,-21.02
04.718,-16.39
04.734,-11.47
04.750,-6.54
04.765,-2.01
04.781,1.69
04.796,4.23
04.812,5.49
04.828,5.66
04.843,5.11
04.859,4.25
04.875,3.41
04.890,2.79
04.906,2.52
04.921,2.73
04.937,3.53
04.953,4.98
04.968,7.04
04.984,9.44
05.000,11.84
05.015,13.83
05.031,15.09
05.046,15.37
05.062,14.61
05.078,12.79
05.093,10.04
05.109,6.6
05.125,2.73
05.140,-1.28
05.156,-5.23
05.171,-9.0
05.187,-12.54
05.203,-15.77
05.218,-18.47
05.234,-20.36
05.250,-21.16
05.265,-20.76
05.281,-19.27
05.296,-16.99
05.312,-14.18
05.328,-11.04
05.343,-7.6
05.359,-3.91
05.375,-0.18
05.390,3.21
05.406,5.78
05.421,7.27
05.437,7.62
05.453,7.15
05.468,6.31
05.484,5.53
05.500,5.09
05.515,5.01
05.531,5.2
05.546,5.4
05.562,5.36
05.578,4.72
05.593,3.26
05.609,0.94
05.625,-1.93
05.640,-4.82
05.656,-7.11
05.671,-8.37
05.687,-8.47
05.703,-7.66
05.718,-6.4
05.734,-5.15
05.750,-4.13
05.765,-3.25
05.781,-2.07
05.796,-0.01
05.812,3.39
05.828,8.21
05.843,13.93
05.859,19.57
05.875,23.99
05.890,26.27
05.906,26.13
05.921,24.03
05.937,20.93
05.953,17.98
05.968,15.96
05.984,15.1
06.000,14.99
06.015,14.89
06.031,14.12
06.046,12.42
06.062,10.14
06.078,8.0
06.093,6.82
06.109,7.12
06.125,8.95
06.140,11.97
06.156,15.77
06.171,20.11
06.187,24.99
06.203,30.42
06.218,36.17
06.234,41.66
06.250,46.18
06.265,49.21
06.281,50.78
06.296,51.53
06.312,52.33
06.328,53.92
06.343,56.43
06.359,59.38
06.375,61.82
06.390,62.78
06.406,61.65
06.421,58.43
06.437,53.6
06.453,47.94
06.468,42.13
06.484,36.55
06.500,31.06
06.515,25.17
06.531,18.32
06.546,10.2
06.562,1.01
06.578,-8.51
06.593,-17.41
06.609,-24.81
06.625,-30.33
06.640,-34.21
06.656,-37.23
06.671,-40.35
06.687,-44.41
06.703,-49.74
06.718,-56.12
06.734,-62.83
06.750,-68.86
06.765,-73.27
06.781,-75.57
06.796,-75.82
06.812,-74.68
06.828,-73.12
06.843,-72.03
06.859,-71.83
06.875,-72.35
06.890,-72.85
06.906,-72.28
06.921,-69.64
06.937,-64.21
06.953,-55.9
06.968,-45.42
06.984,-34.33
07.000,-24.71
07.015,-18.61
07.031,-17.28
07.046,-20.56
07.062,-26.75
07.078,-33.14
07.093,-36.97
07.109,-36.32
07.125,-30.83
07.140,-21.55
07.156,-10.54
07.171,0.02
07.187,8.38
07.203,13.61
07.218,15.51
07.234,14.3
07.250,10.57
07.265,5.15
07.281,-0.69
07.296,-5.32
07.312,-7.03
07.328,-4.64
07.343,2.07
07.359,11.93
07.375,22.65
07.390,31.55
07.406,36.39
07.421,36.19
07.437,31.51
07.453,24.06
07.468,16.04
07.484,9.2
07.500,4.44
07.515,1.58
07.531,-0.13
07.546,-1.65
07.562,-3.57
07.578,-5.91
07.593,-8.34
07.609,-10.36
07.625,-11.66
07.640,-12.11
07.656,-11.62
07.671,-9.87
07.687,-6.25
07.703,-0.02
07.718,9.36
07.734,21.71
07.750,36.06
07.765,50.98
07.781,65.2
07.796,78.08
07.812,89.72
07.828,100.47
07.843,110.43
07.859,119.32
07.875,126.62
07.890,131.89
07.906,134.81
07.921,135.0
07.937,131.81
07.953,124.42
07.968,112.37
07.984,96.2
08.000,77.82
08.015,59.88
08.031,44.32
08.046,30.92
08.062,17.08
08.078,-1.02
08.093,-26.34
08.109,-59.42
08.125,-97.87
08.140,-137.08
08.156,-171.69
08.171,-196.97
08.187,-209.81
08.203,-209.35
08.218,-197.08
08.234,-176.7
08.250,-153.27
08.265,-131.88
08.281,-116.1
08.296,-106.99
08.312,-102.96
08.328,-100.65
08.343,-96.52
08.359,-88.18
08.375,-74.81
08.390,-57.03
08.406,-36.36
08.421,-14.72
08.437,5.88
08.453,23.76
08.468,37.89
08.484,48.16
08.500,55.22
08.515,60.06
08.531,63.46
08.546,65.34
08.562,64.66
08.578,59.92
08.593,50.0
08.609,34.83
08.625,15.78
08.640,-4.62
08.656,-23.37
08.671,-37.74
08.687,-45.78
08.703,-46.5
08.718,-40.02
08.734,-27.68
08.750,-12.03
08.765,3.43
08.781,15.18
08.796,20.81
08.812,19.99
08.828,14.6
08.843,7.95
08.859,3.34
08.875,2.68
08.890,5.98
08.906,11.77
08.921,18.09
08.937,23.45
08.953,27.33
08.968,29.89
08.984,31.43
09.000,32.02
09.015,31.39
09.031,29.28
09.046,25.82
09.062,21.58
09.078,17.39
09.093,14.15
09.109,12.31
09.125,11.73
09.140,11.71
09.156,11.26
09.171,9.48
09.187,5.88
09.203,0.61
09.218,-5.54
09.234,-11.36
09.250,-15.48
09.265,-16.91
09.281,-15.34
09.296,-11.49
09.312,-7.13
09.328,-4.71
09.343,-6.43
09.359,-13.31
09.375,-24.53
09.390,-37.46
09.406,-48.66
09.421,-55.05
09.437,-55.08
09.453,-49.04
09.468,-38.77
09.484,-26.78
09.500,-15.53
09.515,-6.96
09.531,-2.19
09.546,-1.2
09.562,-2.86
09.578,-5.12
09.593,-5.9
09.609,-3.96
09.625,0.31
09.640,5.17
09.656,8.31
09.671,8.26
09.687,4.91
09.703,-0.46
09.718,-5.98
09.734,-9.84
09.750,-10.69
09.765,-7.95
09.781,-1.25
09.796,9.04
09.812,22.14
09.828,36.81
09.843,51.83
09.859,66.51
09.875,80.42
09.890,93.1
09.906,103.55
09.921,110.57
09.937,113.44
09.953,112.8
09.968,110.42
09.984,108.24
10.000,106.98
10.015,105.44
10.031,101.17
10.046,92.15
10.062,78.29
10.078,61.83
10.093,46.37
10.109,34.97
10.125,28.93
10.140,27.71
10.156,29.71
10.171,33.64
10.187,39.19
10.203,46.7
10.218,56.27
10.234,67.42
10.250,78.86
10.265,88.79
10.281,96.13
10.296,100.51
10.312,102.7
10.328,104.15
10.343,106.23
10.359,110.06
10.375,116.07
10.390,123.96
10.406,132.82
10.421,141.16
10.437,146.94
10.453,148.13
10.468,143.45
10.484,133.46
10.500,120.59
10.515,108.25
10.531,98.91
10.546,92.39
10.562,85.47
10.578,73.0
10.593,50.61
10.609,16.76
10.625,-26.44
10.640,-74.42
10.656,-122.29
10.671,-166.82
10.687,-206.89
10.703,-242.57
10.718,-273.49
10.734,-297.63
10.750,-311.84
10.765,-313.4
10.781,-301.98
10.796,-280.58
10.812,-254.77
10.828,-230.77
10.843,-213.12
10.859,-203.01
10.875,-198.18
10.890,-194.47
10.906,-187.87
10.921,-176.25
10.937,-159.9
10.953,-140.75
10.968,-121.2
10.984,-102.71
11.000,-85.67
11.015,-69.72
11.031,-54.51
11.046,-40.28
11.062,-27.81
11.078,-18.15
11.093,-12.01
11.109,-9.43
11.125,-9.55
11.140,-11.05
11.156,-12.57
11.171,-13.23
11.187,-12.75
11.203,-11.44
11.218,-9.8
11.234,-8.18
11.250,-6.63
11.265,-4.83
11.281,-2.34
11.296,1.19
11.312,5.82
11.328,11.19
11.343,16.66
11.359,21.42
11.375,24.87
11.390,26.69
11.406,27.0
11.421,26.24
11.437,24.96
11.453,23.61
11.468,22.3
11.484,20.88
11.500,19.07
11.515,16.72
11.531,13.86
11.546,10.8
11.562,7.91
11.578,5.46
11.593,3.63
11.609,2.43
11.625,1.81
11.640,1.77
11.656,2.31
11.671,3.3
11.687,4.41
11.703,5.16
11.718,5.04
11.734,3.77
11.750,1.46
11.765,-1.42
11.781,-4.1
11.796,-5.79
11.812,-5.94
11.828,-4.38
11.843,-1.26
11.859,2.99
11.875,7.92
11.890,13.01
11.906,17.81
11.921,21.95
11.937,25.13
11.953,27.13
11.968,27.88
11.984,27.45
12.000,25.97
12.015,23.73
12.031,21.01
12.046,18.09
12.062,15.25
12.078,12.68
12.093,10.5
12.109,8.67
12.125,7.11
12.140,5.64
12.156,4.19
12.171,2.78
12.187,1.47
12.203,0.33
12.218,-0.73
12.234,-1.8
12.250,-3.0
12.265,-4.32
12.281,-5.68
12.296,-6.9
12.312,-7.89
12.328,-8.69
12.343,-9.43
12.359,-10.29
12.375,-11.18
12.390,-11.8
12.406,-11.72
12.421,-10.49
12.437,-7.86
12.453,-3.81
12.468,1.3
12.484,6.95
12.500,12.4
12.515,17.06
12.531,20.56
12.546,22.86
12.562,24.22
12.578,25.03
12.593,25.61
12.609,25.99
12.625,26.07
12.640,25.65
12.656,24.69
12.671,23.35
12.687,21.93
12.703,20.74
12.718,19.81
12.734,18.99
12.750,17.91
12.765,16.33
12.781,14.11
12.796,11.4
12.812,8.41
12.828,5.35
12.843,2.39
12.859,-0.34
12.875,-2.72
12.890,-4.61
12.906,-5.85
12.921,-6.4
12.937,-6.4
12.953,-6.16
12.968,-6.07
12.984,-6.4
13.000,-7.12
13.015,-7.93
13.031,-8.32
13.046,-7.81
13.062,-6.09
13.078,-3.21
13.093,0.48
13.109,4.44
13.125,8.1
13.140,11.11
13.156,13.27
13.171,14.53
13.187,14.9
13.203,14.42
13.218,13.2
13.234,11.53
13.250,9.84
13.265,8.55
13.281,7.97
13.296,8.07
13.312,8.49
13.328,8.8
13.343,8.64
13.359,7.93
13.375,6.85
13.390,5.71
13.406,4.7
13.421,3.87
13.437,3.17
13.453,2.53
13.468,2.01
13.484,1.62
13.500,1.31
13.515,0.85
13.531,-0.05
13.546,-1.63
13.562,-3.9
13.578,-6.6
13.593,-9.31
13.609,-11.68
13.625,-13.51
13.640,-14.79
13.656,-15.47
13.671,-15.38
13.687,-14.14
13.703,-11.38
13.718,-6.98
13.734,-1.26
13.750,5.05
13.765,11.05
13.781,16.06
13.796,19.93
13.812,22.91
13.828,25.49
13.843,28.05
13.859,30.66
13.875,33.08
13.890,35.03
13.906,36.38
13.921,37.21
13.937,37.94
13.953,39.05
13.968,40.84
13.984,43.35
14.000,46.33
14.015,49.31
14.031,51.91
14.046,53.88
14.062,55.24
14.078,56.22
14.093,57.06
14.109,57.83
14.125,58.46
14.140,58.73
14.156,58.28
14.171,56.51
14.187,52.51
14.203,45.01
14.218,32.7
14.234,14.76
14.250,-8.54
14.265,-35.49
14.281,-63.12
14.296,-87.99
14.312,-107.07
14.328,-118.53
14.343,-122.04
14.359,-118.5
14.375,-109.59
14.390,-97.23
14.406,-83.18
14.421,-68.95
14.437,-55.73
14.453,-44.29
14.468,-35.06
14.484,-28.01
14.500,-22.82
14.515,-19.0
14.531,-16.05
14.546,-13.57
14.562,-11.34
14.578,-9.26
14.593,-7.2
14.609,-5.11
14.625,-2.86
14.640,-0.44
14.656,2.09
14.671,4.51
14.687,6.56
14.703,7.96
14.718,8.56
14.734,8.42
14.750,7.7
14.765,6.65
14.781,5.52
14.796,4.47
14.812,3.63
14.828,3.02
14.843,2.57
14.859,2.16
14.875,1.63
14.890,0.84
14.906,-0.17
14.921,-1.21
14.937,-1.88
14.953,-1.7
14.968,-0.27
14.984,2.52
15.000,6.47
15.015,11.14
15.031,15.97
15.046,20.42
15.062,24.13
15.078,26.86
15.093,28.62
15.109,29.56
15.125,29.99
15.140,30.3
15.156,30.88
15.171,31.95
15.187,33.55
15.203,35.59
15.218,37.85
15.234,40.22
15.250,42.7
15.265,45.44
15.281,48.7
15.296,52.7
15.312,57.59
15.328,63.26
15.343,69.43
15.359,75.62
15.375,81.35
15.390,86.38
15.406,90.94
15.421,95.68
15.437,101.4
15.453,108.66
15.468,117.4
15.484,126.87
15.500,135.88
15.515,143.4
15.531,149.23
15.546,154.35
15.562,160.58
15.578,169.81
15.593,183.04
15.609,199.69
15.625,217.51
15.640,233.18
15.656,243.21
15.671,244.73
15.687,235.99
15.703,216.47
15.718,186.89
15.734,149.02
15.750,105.2
15.765,57.81
15.781,8.53
15.796,-42.13
15.812,-94.78
15.828,-150.17
15.843,-207.84
15.859,-264.85
15.875,-315.79
15.890,-354.03
15.906,-373.93
15.921,-372.89
15.937,-352.37
15.953,-317.2
15.968,-273.9
15.984,-228.55
16.000,-185.42
16.015,-146.66
16.031,-112.84
16.046,-83.96
16.062,-60.4
16.078,-43.21
16.093,-33.79
16.109,-32.99
16.125,-40.24
16.140,-53.11
16.156,-67.58
16.171,-79.17
16.187,-84.45
16.203,-82.39
16.218,-74.71
16.234,-64.79
16.250,-55.96
16.265,-49.81
16.281,-45.51
16.296,-40.66
16.312,-32.97
16.328,-21.76
16.343,-8.47
16.359,4.32
16.375,14.46
16.390,21.42
16.406,26.45
16.421,31.62
16.437,38.46
16.453,47.02
16.468,56.01
16.484,63.64
16.500,68.77
16.515,71.52
16.531,73.21
16.546,75.73
16.562,80.54
16.578,88.0
16.593,97.18
16.609,106.24
16.625,113.31
16.640,117.26
16.656,118.01
16.671,116.29
16.687,113.0
16.703,108.53
16.718,102.5
16.734,94.16
16.750,83.03
16.765,69.55
16.781,55.04
16.796,41.3
16.812,29.79
16.828,21.17
16.843,15.19
16.859,11.08
16.875,8.01
16.890,5.31
16.906,2.54
16.921,-0.78
16.937,-5.26
16.953,-11.52
16.968,-19.93
16.984,-30.39
17.000,-42.11
17.015,-53.82
17.031,-64.28
17.046,-72.8
17.062,-79.44
17.078,-84.89
17.093,-89.84
17.109,-94.42
17.125,-98.04
17.140,-99.7
17.156,-98.54
17.171,-94.4
17.187,-88.02
17.203,-80.63
17.218,-73.38
17.234,-66.99
17.250,-61.54
17.265,-56.56
17.281,-51.59
17.296,-46.39
17.312,-41.16
17.328,-36.63
17.343,-33.85
17.359,-33.95
17.375,-37.67
17.390,-44.86
17.406,-54.15
17.421,-63.31
17.437,-69.92
17.453,-72.21
17.468,-69.69
17.484,-63.05
17.500,-53.76
17.515,-43.65
17.531,-34.47
17.546,-27.89
17.562,-25.25
17.578,-27.05
17.593,-32.68
17.609,-40.41
17.625,-48.2
17.640,-54.93
17.656,-61.09
17.671,-68.29
17.687,-77.9
17.703,-89.41
17.718,-99.62
17.734,-104.09
17.750,-99.34
17.765,-84.97
17.781,-64.18
17.796,-42.3
17.812,-24.2
17.828,-12.26
17.843,-5.94
17.859,-2.87
17.875,-0.88
17.890,0.9
17.906,2.26
17.921,2.79
17.937,2.8
17.953,3.37
17.968,5.51
17.984,9.25
18.000,13.57
18.015,16.8
18.031,17.94
18.046,17.36
18.062,16.62
18.078,17.58
18.093,21.4
18.109,27.85
18.125,35.64
18.140,43.3
18.156,49.82
18.171,55.06
18.187,59.26
18.203,62.47
18.218,64.22
18.234,63.86
18.250,60.95
18.265,55.74
18.281,49.22
18.296,42.6
18.312,36.78
18.328,32.04
18.343,28.09
18.359,24.54
18.375,21.39
18.390,19.12
18.406,18.38
18.421,19.57
18.437,22.49
18.453,26.38
18.468,30.15
18.484,32.84
18.500,33.75
18.515,32.59
18.531,29.34
18.546,24.27
18.562,17.95
18.578,11.15
18.593,4.83
18.609,-0.13
18.625,-3.09
18.640,-3.78
18.656,-2.35
18.671,0.68
18.687,4.44
18.703,7.76
18.718,9.22
18.734,7.46
18.750,1.45
18.765,-9.15
18.781,-23.87
18.796,-41.44
18.812,-60.03
18.828,-77.5
18.843,-91.67
18.859,-100.59
18.875,-102.78
18.890,-97.45
18.906,-84.71
18.921,-65.58
18.937,-41.77
18.953,-15.4
18.968,11.49
18.984,37.19
19.000,60.44
19.015,80.44
19.031,96.79
19.046,109.4
19.062,118.49
19.078,124.4
19.093,127.59
19.109,128.43
19.125,127.31
19.140,124.64
19.156,120.99
19.171,117.06
19.187,113.48
19.203,110.59
19.218,108.31
19.234,106.33
19.250,104.32
19.265,102.27
19.281,100.54
19.296,99.67
19.312,99.99
19.328,101.3
19.343,102.87
19.359,103.61
19.375,102.51
19.390,99.01
19.406,93.14
19.421,85.39
19.437,76.33
19.453,66.32
19.468,55.31
19.484,43.09
19.500,29.58
19.515,15.12
19.531,0.46
19.546,-13.52
19.562,-26.04
19.578,-36.57
19.593,-44.63
19.609,-49.57
19.625,-50.53
19.640,-46.74
19.656,-38.23
19.671,-26.32
19.687,-13.52
19.703,-2.73
19.718,3.88
19.734,5.78
19.750,4.05
19.765,0.75
19.781,-2.11
19.796,-3.46
19.812,-3.19
19.828,-1.75
19.843,0.33
19.859,2.73
19.875,5.2
19.890,7.39
19.906,8.7
19.921,8.52
19.937,6.37
19.953,2.25
19.968,-3.45
19.984,-10.08
20.000,-16.91
20.015,-23.19
20.031,-28.29
20.046,-31.7
20.062,-33.26
20.078,-33.33
20.093,-32.77
20.109,-32.57
20.125,-33.58
20.140,-36.02
20.156,-39.41
20.171,-42.8
20.187,-45.17
20.203,-45.97
20.218,-45.31
20.234,-43.82
20.250,-42.35
20.265,-41.57
20.281,-41.58
20.296,-41.88
20.312,-41.67
20.328,-40.26
20.343,-37.55
20.359,-34.19
20.375,-31.31
20.390,-30.06
20.406,-31.11
20.421,-34.29
20.437,-38.7
20.453,-43.1
20.468,-46.33
20.484,-47.61
20.500,-46.8
20.515,-44.16
20.531,-40.3
20.546,-35.9
20.562,-31.52
20.578,-27.33
20.593,-23.01
20.609,-17.77
20.625,-10.71
20.640,-1.38
20.656,9.82
20.671,21.38
20.687,31.26
20.703,37.66
20.718,39.84
20.734,38.62
20.750,36.39
20.765,36.76
20.781,43.66
20.796,59.95
20.812,85.88
20.828,118.11
20.843,149.76
20.859,172.06
20.875,177.25
20.890,161.64
20.906,127.21
20.921,81.08
20.937,33.07
20.953,-7.6
20.968,-34.85
20.984,-46.64
21.000,-44.49
21.015,-32.03
21.031,-14.15
21.046,3.73
21.062,16.13
21.078,18.42
21.093,8.35
21.109,-12.98
21.125,-41.09
21.140,-69.53
21.156,-92.05
21.171,-104.89
21.187,-107.88
21.203,-104.13
21.218,-98.45
21.234,-95.22
21.250,-96.65
21.265,-102.07
21.281,-108.49
21.296,-112.29
21.312,-111.26
21.328,-105.6
21.343,-97.89
21.359,-91.73
21.375,-89.65
21.390,-91.49
21.406,-94.49
21.421,-94.5
21.437,-88.28
21.453,-74.7
21.468,-55.02
21.484,-31.62
21.500,-7.0
21.515,16.96
21.531,38.56
21.546,55.45
21.562,64.46
21.578,62.43
21.593,48.3
21.609,24.51
21.625,-2.9
21.640,-26.4
21.656,-40.22
21.671,-42.77
21.687,-36.8
21.703,-27.14
21.718,-17.26
21.734,-7.44
21.750,4.83
21.765,22.1
21.781,43.74
21.796,65.17
21.812,79.29
21.828,80.26
21.843,66.92
21.859,43.21
21.875,16.26
21.890,-7.1
21.906,-22.88
21.921,-30.32
21.937,-30.52
21.953,-24.89
21.968,-14.35
21.984,0.46
22.000,18.29
22.015,37.32
22.031,55.68
22.046,71.68
22.062,83.6
22.078,89.12
22.093,85.73
22.109,72.04
22.125,49.59
22.140,23.98
22.156,4.06
22.171,-0.64
22.187,16.4
22.203,55.77
22.218,111.45
22.234,172.46
22.250,225.85
22.265,260.35
22.281,268.89
22.296,250.95
22.312,212.64
22.328,164.67
22.343,118.75
22.359,82.99
22.375,59.42
22.390,44.21
22.406,30.83
22.421,13.6
22.437,-9.64
22.453,-37.99
22.468,-69.25
22.484,-101.46
22.500,-133.3
22.515,-163.25
22.531,-188.89
22.546,-207.25
22.562,-216.3
22.578,-216.78
22.593,-212.62
22.609,-209.21
22.625,-210.91
22.640,-218.76
22.656,-230.19
22.671,-240.53
22.687,-245.32
22.703,-242.23
22.718,-231.89
22.734,-217.41
22.750,-202.66
22.765,-190.76
22.781,-183.27
22.796,-179.88
22.812,-178.95
22.828,-178.52
22.843,-177.07
22.859,-174.03
22.875,-169.75
22.890,-164.31
22.906,-156.59
22.921,-144.67
22.937,-126.66
22.953,-102.25
22.968,-73.24
22.984,-42.73
23.000,-13.18
23.015,14.4
23.031,40.71
23.046,66.29
23.062,89.75
23.078,107.69
23.093,116.1
23.109,113.26
23.125,101.34
23.140,85.9
23.156,73.24
23.171,67.37
23.187,68.63
23.203,74.03
23.218,79.82
23.234,83.19
23.250,83.32
23.265,80.77
23.281,77.09
23.296,74.19
23.312,74.73
23.328,81.42
23.343,95.3
23.359,114.09
23.375,131.24
23.390,137.3
23.406,123.29
23.421,84.78
23.437,24.47
23.453,-48.06
23.468,-119.45
23.484,-177.48
23.500,-214.25
23.515,-227.89
23.531,-220.9
23.546,-198.04
23.562,-164.28
23.578,-124.22
23.593,-82.57
23.609,-43.91
23.625,-12.2
23.640,10.8
23.656,26.35
23.671,38.12
23.687,50.4
23.703,65.65
23.718,83.16
23.734,99.56
23.750,110.82
23.765,114.26
23.781,110.18
23.796,101.55
23.812,92.96
23.828,89.39
23.843,94.64
23.859,109.8
23.875,132.19
23.890,155.44
23.906,171.0
23.921,171.57
23.937,154.61
23.953,123.92
23.968,88.42
23.984,57.77
24.000,37.62
24.015,26.94
24.031,19.8
24.046,9.18
24.062,-8.44
24.078,-30.82
24.093,-51.92
24.109,-65.07
24.125,-66.72
24.140,-58.02
24.156,-43.37
24.171,-27.79
24.187,-14.41
24.203,-3.93
24.218,4.36
24.234,10.68
24.250,13.71
24.265,11.03
24.281,0.43
24.296,-18.02
24.312,-41.32
24.328,-64.03
24.343,-80.19
24.359,-85.7
24.375,-80.17
24.390,-67.11
24.406,-52.4
24.421,-41.92
24.437,-39.02
24.453,-43.07
24.468,-50.06
24.484,-54.2
24.500,-50.22
24.515,-35.33
24.531,-9.75
24.546,23.36
24.562,58.62
24.578,89.55
24.593,109.88
24.609,115.19
24.625,104.15
24.640,78.94
24.656,44.58
24.671,7.42
24.687,-26.73
24.703,-53.73
24.718,-71.6
24.734,-79.82
24.750,-78.48
24.765,-67.7
24.781,-47.58
24.796,-19.05
24.812,15.17
24.828,49.97
24.843,78.53
24.859,94.41
24.875,94.08
24.890,78.7
24.906,54.16
24.921,28.92
24.937,10.74
24.953,3.61
24.968,6.85
24.984,16.78
25.000,29.24
25.015,41.75
25.031,53.92
25.046,66.2
25.062,78.72
25.078,90.79
25.093,101.47
25.109,110.28
25.125,117.37
25.140,122.92
25.156,126.34
25.171,126.5
25.187,122.29
25.203,114.06
25.218,103.63
25.234,93.8
25.250,86.6
25.265,82.07
25.281,77.62
25.296,69.1
25.312,52.74
25.328,26.41
25.343,-9.63
25.359,-53.25
25.375,-100.65
25.390,-147.14
25.406,-187.87
25.421,-218.74
25.437,-237.54
25.453,-244.67
25.468,-243.08
25.484,-237.07
25.500,-230.6
25.515,-225.62
25.531,-221.77
25.546,-216.91
25.562,-208.34
25.578,-193.81
25.593,-171.79
25.609,-141.54
25.625,-102.97
25.640,-57.17
25.656,-6.82
25.671,43.87
25.687,89.61
25.703,125.45
25.718,147.84
25.734,155.68
25.750,149.99
25.765,133.68
25.781,110.52
25.796,84.7
25.812,60.99
25.828,44.47
25.843,40.35
25.859,52.35
25.875,81.08
25.890,122.49
25.906,167.94
25.921,206.5
25.937,228.61
25.953,229.68
25.968,211.6
25.984,181.51
26.000,148.06
26.015,117.76
26.031,93.09
26.046,72.89
26.062,54.83
26.078,37.61
26.093,21.98
26.109,9.6
26.125,1.82
26.140,-1.74
26.156,-2.98
26.171,-4.16
26.187,-6.75
26.203,-10.47
26.218,-13.86
26.234,-15.05
26.250,-12.98
26.265,-7.99
26.281,-1.78
26.296,3.3
26.312,5.16
26.328,2.64
26.343,-4.0
26.359,-13.42
26.375,-23.64
26.390,-32.85
26.406,-40.08
26.421,-45.41
26.437,-49.81
26.453,-54.39
26.468,-59.96
26.484,-66.42
26.500,-72.9
26.515,-78.14
26.531,-81.06
26.546,-81.24
26.562,-79.16
26.578,-75.99
26.593,-72.93
26.609,-70.81
26.625,-69.55
26.640,-68.3
26.656,-65.87
26.671,-61.33
26.687,-54.58
26.703,-46.42
26.718,-38.28
26.734,-31.63
26.750,-27.47
26.765,-25.93
26.781,-26.38
26.796,-27.66
26.812,-28.6
26.828,-28.3
26.843,-26.42
26.859,-23.12
26.875,-18.85
26.890,-14.13
26.906,-9.27
26.921,-4.27
26.937,0.99
26.953,6.64
26.968,12.62
26.984,18.57
27.000,24.04
27.015,28.67
27.031,32.5
27.046,35.98
27.062,39.84
27.078,44.7
27.093,50.81
27.109,57.94
27.125,65.38
27.140,72.26
27.156,77.61
27.171,80.48
27.187,80.14
27.203,76.33
27.218,69.5
27.234,60.78
27.250,51.64
27.265,43.28
27.281,36.25
27.296,30.37
27.312,25.39
27.328,21.59
27.343,19.78
27.359,21.01
27.375,25.58
27.390,32.77
27.406,41.08
27.421,48.8
27.437,54.29
27.453,55.93
27.468,52.06
27.484,41.43
27.500,24.21
27.515,3.0
27.531,-17.49
27.546,-31.95
27.562,-37.1
27.578,-33.06
27.593,-23.16
27.609,-11.61
27.625,-0.87
27.640,9.55
27.656,22.0
27.671,38.24
27.687,57.06
27.703,73.91
27.718,82.96
27.734,80.03
27.750,65.13
27.765,43.0
27.781,21.55
27.796,8.51
27.812,8.54
27.828,21.31
27.843,41.32
27.859,60.24
27.875,70.12
27.890,66.6
27.906,50.67
27.921,27.68
27.937,4.85
27.953,-12.35
27.968,-22.34
27.984,-27.33
28.000,-31.24
28.015,-37.4
28.031,-47.05
28.046,-59.27
28.062,-72.1
28.078,-82.91
28.093,-89.0
28.109,-88.22
28.125,-80.02
28.140,-66.47
28.156,-52.62
28.171,-44.62
28.187,-46.91
28.203,-59.31
28.218,-76.29
28.234,-89.37
28.250,-91.0
28.265,-78.25
28.281,-53.46
28.296,-22.56
28.312,8.23
28.328,34.9
28.343,56.16
28.359,72.82
28.375,86.26
28.390,97.22
28.406,105.38
28.421,109.5
28.437,108.15
28.453,101.36
28.468,90.56
28.484,78.55
28.500,68.46
28.515,62.32
28.531,60.07
28.546,59.68
28.562,58.1
28.578,52.35
28.593,41.44
28.609,24.9
28.625,2.68
28.640,-25.54
28.656,-59.92
28.671,-99.78
28.687,-142.97
28.703,-185.9
28.718,-225.02
28.734,-256.23
28.750,-277.61
28.765,-288.96
28.781,-291.17
28.796,-284.93
28.812,-269.99
28.828,-244.95
28.843,-208.45
28.859,-161.73
28.875,-107.46
28.890,-52.16
28.906,-3.24
28.921,33.96
28.937,58.44
28.953,73.89
28.968,86.23
28.984,105.33
29.000,125.51
29.015,144.03
29.031,155.15
29.046,154.69
29.062,142.67
29.078,123.61
29.093,104.39
29.109,90.59
29.125,84.22
29.140,82.66
29.156,83.25
29.171,83.57
29.187,83.62
29.203,85.13
29.218,89.12
29.234,94.29
29.250,96.33
29.265,89.77
29.281,70.18
29.296,38.32
29.312,-1.29
29.328,-41.45
29.343,-75.41
29.359,-99.12
29.375,-111.57
29.390,-113.98
29.406,-108.62
29.421,-98.09
29.437,-84.06
29.453,-68.83
29.468,-55.24
29.484,-46.3
29.500,-43.99
29.515,-48.42
29.531,-57.7
29.546,-68.95
29.562,-79.34
29.578,-86.37
29.593,-88.25
29.609,-83.39
29.625,-70.27
29.640,-48.49
29.656,-19.94
29.671,10.77
29.687,37.62
29.703,55.75
29.718,63.13
29.734,60.64
29.750,50.92
29.765,37.04
29.781,21.58
29.796,6.85
29.812,-4.53
29.828,-9.9
29.843,-8.07
29.859,-0.8
29.875,6.93
29.890,10.0
29.906,6.36
29.921,-1.45
29.937,-7.44
29.953,-5.84
29.968,5.02
29.984,21.75
30.000,37.96
30.015,47.91
30.031,48.91
30.046,41.54
30.062,27.76
30.078,9.73
30.093,-9.93
30.109,-27.46
30.125,-37.49
30.140,-34.88
30.156,-17.3
30.171,12.72
30.187,47.83
30.203,78.44
30.218,96.34
30.234,97.17
30.250,80.68
30.265,50.55
30.281,13.32
30.296,-22.8
30.312,-49.66
30.328,-61.14
30.343,-55.32
30.359,-34.7
30.375,-5.1
30.390,26.78
30.406,55.71
30.421,78.22
30.437,91.82
30.453,94.41
30.468,84.75
30.484,64.05
30.500,37.12
30.515,11.55
30.531,-5.54
30.546,-10.34
30.562,-4.24
30.578,7.33
30.593,18.34
30.609,25.26
30.625,28.07
30.640,29.14
30.656,30.89
30.671,33.99
30.687,37.47
30.703,39.72
30.718,39.9
30.734,38.73
30.750,37.58
30.765,37.55
30.781,38.7
30.796,40.01
30.812,40.1
30.828,38.09
30.843,34.08
30.859,29.14
30.875,24.77
30.890,22.3
30.906,22.62
30.921,25.95
30.937,31.7
30.953,38.47
30.968,44.15
30.984,46.31
31.000,43.01
31.015,33.68
31.031,19.41
31.046,2.63
31.062,-13.81
31.078,-27.94
31.093,-39.17
31.109,-48.17
31.125,-55.99
31.140,-62.97
31.156,-68.24
31.171,-70.25
31.187,-67.99
31.203,-62.11
31.218,-55.14
31.234,-50.43
31.250,-50.49
31.265,-55.7
31.281,-63.94
31.296,-71.8
31.312,-76.2
31.328,-75.78
31.343,-71.26
31.359,-64.7
31.375,-58.18
31.390,-52.91
31.406,-49.18
31.421,-46.91
31.437,-46.4
31.453,-48.48
31.468,-53.96
31.484,-62.93
31.500,-74.27
31.515,-85.6
31.531,-94.03
31.546,-97.05
31.562,-93.36
31.578,-83.35
31.593,-68.87
31.609,-52.59
31.625,-37.1
31.640,-24.41
31.656,-15.53
31.671,-10.63
31.687,-9.21
31.703,-10.41
31.718,-13.24
31.734,-16.68
31.750,-19.83
31.765,-22.0
31.781,-22.87
31.796,-22.49
31.812,-21.33
31.828,-19.97
31.843,-18.83
31.859,-17.87
31.875,-16.51
31.890,-13.87
31.906,-9.16
31.921,-2.14
31.937,6.62
31.953,15.86
31.968,24.09
31.984,29.99
32.000,32.75
32.015,32.12
32.031,28.32
32.046,21.83
32.062,13.31
32.078,3.61
32.093,-6.25
32.109,-15.11
32.125,-21.82
32.140,-25.49
32.156,-25.64
32.171,-22.26
32.187,-15.84
32.203,-7.23
32.218,2.46
32.234,12.13
32.250,20.72
32.265,27.52
32.281,32.29
32.296,35.29
32.312,37.28
32.328,39.26
32.343,42.11
32.359,46.16
32.375,51.02
32.390,55.61
32.406,58.48
32.421,58.39
32.437,54.8
32.453,48.1
32.468,39.49
32.484,30.58
32.500,22.76
32.515,16.85
32.531,12.91
32.546,10.34
32.562,8.17
32.578,5.44
32.593,1.38
32.609,-4.41
32.625,-11.91
32.640,-20.64
32.656,-29.72
32.671,-37.86
32.687,-43.71
32.703,-46.22
32.718,-45.02
32.734,-40.65
32.750,-34.3
32.765,-27.39
32.781,-20.91
32.796,-15.13
32.812,-9.59
32.828,-3.45
32.843,3.79
32.859,11.94
32.875,19.97
32.890,26.38
32.906,29.79
32.921,29.53
32.937,25.88
32.953,20.04
32.968,13.76
32.984,8.7
33.000,5.98
33.015,5.72
33.031,7.11
33.046,8.6
33.062,8.46
33.078,5.41
33.093,-0.82
33.109,-9.31
33.125,-18.39
33.140,-26.03
33.156,-30.55
33.171,-30.99
33.187,-27.22
33.203,-19.89
33.218,-10.2
33.234,0.34
33.250,10.02
33.265,17.08
33.281,20.18
33.296,18.84
33.312,13.7
33.328,6.46
33.343,-0.63
33.359,-5.54
33.375,-7.08
33.390,-5.08
33.406,-0.24
33.421,6.4
33.437,13.81
33.453,21.19
33.468,27.93
33.484,33.6
33.500,37.88
33.515,40.72
33.531,42.45
33.546,43.72
33.562,45.33
33.578,47.88
33.593,51.43
33.609,55.78
33.625,60.48
33.640,64.98
33.656,68.69
33.671,70.99
33.687,71.18
33.703,68.67
33.718,63.18
33.734,54.84
33.750,44.21
33.765,32.01
33.781,18.84
33.796,5.02
33.812,-9.15
33.828,-23.31
33.843,-36.83
33.859,-48.88
33.875,-58.8
33.890,-66.24
33.906,-71.33
33.921,-74.42
33.937,-75.67
33.953,-74.75
33.968,-71.13
33.984,-64.29
34.000,-54.23
34.015,-41.64
34.031,-27.7
34.046,-13.68
34.062,-0.8
34.078,10.01
34.093,17.88
34.109,21.89
34.125,21.24
34.140,15.54
34.156,5.26
34.171,-7.98
34.187,-21.58
34.203,-32.66
34.218,-38.82
34.234,-38.89
34.250,-33.31
34.265,-23.87
34.281,-13.24
34.296,-4.25
34.312,0.93
34.328,1.2
34.343,-3.13
34.359,-10.53
34.375,-18.69
34.390,-25.22
34.406,-28.09
34.421,-26.06
34.437,-18.94
34.453,-7.56
34.468,6.2
34.484,19.69
34.500,30.07
34.515,35.1
34.531,33.85
34.546,27.05
34.562,16.8
34.578,5.78
34.593,-3.59
34.609,-9.75
34.625,-12.09
34.640,-10.62
34.656,-5.61
34.671,2.53
34.687,13.23
34.703,25.52
34.718,37.95
34.734,48.97
34.750,57.3
34.765,62.26
34.781,63.89
34.796,62.83
34.812,59.99
34.828,56.25
34.843,52.2
34.859,48.17
34.875,44.25
34.890,40.62
34.906,37.51
34.921,35.26
34.937,33.97
34.953,33.38
34.968,32.72
34.984,30.91
35.000,27.01
35.015,20.5
35.031,11.64
35.046,1.33
35.062,-9.17
35.078,-18.69
35.093,-26.44
35.109,-32.12
35.125,-35.82
35.140,-37.77
35.156,-38.3
35.171,-37.75
35.187,-36.44
35.203,-34.79
35.218,-33.11
35.234,-31.59
35.250,-30.04
35.265,-27.97
35.281,-24.82
35.296,-20.21
35.312,-14.29
35.328,-7.77
35.343,-1.75
35.359,2.73
35.375,5.0
35.390,5.06
35.406,3.46
35.421,0.9
35.437,-2.1
35.453,-5.55
35.468,-9.82
35.484,-15.39
35.500,-22.28
35.515,-29.95
35.531,-37.23
35.546,-42.72
35.562,-45.28
35.578,-44.39
35.593,-40.11
35.609,-32.71
35.625,-22.34
35.640,-8.84
35.656,7.83
35.671,27.02
35.687,47.03
35.703,65.34
35.718,79.29
35.734,86.95
35.750,87.8
35.765,82.66
35.781,73.16
35.796,60.95
35.812,47.15
35.828,32.51
35.843,17.8
35.859,4.27
35.875,-6.26
35.890,-11.79
35.906,-10.88
35.921,-3.13
35.937,10.61
35.953,28.43
35.968,47.88
35.984,66.52
36.000,82.4
36.015,94.25
36.031,101.6
36.046,104.61
36.062,103.92
36.078,100.41
36.093,94.96
36.109,88.33
36.125,80.99
36.140,73.24
36.156,65.25
36.171,57.14
36.187,49.04
36.203,41.06
36.218,33.28
36.234,25.73
36.250,18.59
36.265,12.07
36.281,6.4
36.296,1.66
36.312,-2.37
36.328,-6.14
36.343,-9.94
36.359,-13.47
36.375,-15.81
36.390,-15.51
36.406,-11.26
36.421,-2.57
36.437,9.69
36.453,23.31
36.468,35.55
36.484,44.07
36.500,47.44
36.515,45.12
36.531,37.3
36.546,24.9
36.562,9.66
36.578,-5.85
36.593,-18.7
36.609,-26.63
36.625,-28.92
36.640,-26.64
36.656,-21.98
36.671,-16.87
36.687,-11.99
36.703,-6.64
36.718,0.2
36.734,8.69
36.750,17.57
36.765,24.79
36.781,28.9
36.796,30.07
36.812,30.07
36.828,31.01
36.843,34.01
36.859,38.41
36.875,42.41
36.890,43.79
36.906,40.97
36.921,33.97
36.937,24.34
36.953,14.72
36.968,7.98
36.984,6.2
37.000,10.03
37.015,18.26
37.031,27.51
37.046,32.86
37.062,29.03
37.078,12.02
37.093,-19.11
37.109,-61.24
37.125,-107.65
37.140,-149.74
37.156,-179.84
37.171,-193.53
37.187,-190.86
37.203,-175.36
37.218,-152.37
37.234,-126.52
37.250,-100.45
37.265,-74.91
37.281,-49.75
37.296,-25.02
37.312,-1.12
37.328,21.38
37.343,42.61
37.359,63.15
37.375,83.82
37.390,104.86
37.406,125.46
37.421,143.95
37.437,158.35
37.453,167.41
37.468,171.1
37.484,170.96
37.500,169.55
37.515,169.51
37.531,172.28
37.546,177.19
37.562,181.45
37.578,181.09
37.593,172.72
37.609,155.03
37.625,129.53
37.640,99.82
37.656,70.12
37.671,43.39
37.687,20.39
37.703,0.16
37.718,-19.02
37.734,-37.94
37.750,-56.01
37.765,-71.63
37.781,-83.27
37.796,-90.37
37.812,-93.32
37.828,-93.32
37.843,-91.87
37.859,-90.83
37.875,-92.54
37.890,-99.42
37.906,-113.3
37.921,-134.49
37.937,-161.29
37.953,-190.15
37.968,-217.0
37.984,-238.66
38.000,-253.66
38.015,-262.31
38.031,-265.44
38.046,-262.97
38.062,-253.1
38.078,-233.24
38.093,-201.86
38.109,-160.54
38.125,-114.15
38.140,-69.67
38.156,-33.32
38.171,-7.94
38.187,7.64
38.203,17.41
38.218,25.29
38.234,33.11
38.250,39.87
38.265,43.22
38.281,41.69
38.296,36.09
38.312,29.39
38.328,25.11
38.343,25.63
38.359,31.13
38.375,40.29
38.390,51.35
38.406,62.93
38.421,74.29
38.437,85.16
38.453,96.01
38.468,108.1
38.484,123.11
38.500,142.27
38.515,165.05
38.531,188.63
38.546,208.25
38.562,219.25
38.578,218.97
38.593,208.04
38.609,189.52
38.625,167.63
38.640,145.42
38.656,123.65
38.671,101.27
38.687,76.55
38.703,48.62
38.718,18.09
38.734,-12.86
38.750,-41.21
38.765,-64.12
38.781,-79.97
38.796,-89.33
38.812,-95.09
38.828,-101.38
38.843,-111.05
38.859,-124.05
38.875,-136.71
38.890,-143.72
38.906,-141.05
38.921,-128.52
38.937,-110.17
38.953,-92.14
38.968,-79.32
38.984,-72.87
39.000,-70.18
39.015,-66.9
39.031,-59.75
39.046,-48.34
39.062,-35.0
39.078,-23.06
39.093,-14.81
39.109,-10.46
39.125,-8.31
39.140,-6.16
39.156,-2.59
39.171,2.23
39.187,6.89
39.203,9.67
39.218,9.29
39.234,5.34
39.250,-1.89
39.265,-11.92
39.281,-24.51
39.296,-39.67
39.312,-57.41
39.328,-77.39
39.343,-98.61
39.359,-119.64
39.375,-138.67
39.390,-153.95
39.406,-163.98
39.421,-167.66
39.437,-164.53
39.453,-154.99
39.468,-140.26
39.484,-122.13
39.500,-102.63
39.515,-83.4
39.531,-65.34
39.546,-48.65
39.562,-32.97
39.578,-17.8
39.593,-2.94
39.609,11.29
39.625,24.17
39.640,34.72
39.656,42.03
39.671,45.56
39.687,45.22
39.703,41.47
39.718,35.22
39.734,27.63
39.750,20.09
39.765,13.92
39.781,10.05
39.796,8.75
39.812,9.57
39.828,11.42
39.843,13.11
39.859,13.72
39.875,12.96
39.890,11.19
39.906,9.01
39.921,6.95
39.937,5.15
39.953,3.61
39.968,2.41
39.984,1.99
40.000,3.09
40.015,6.36
40.031,11.96
40.046,19.27
40.062,27.05
40.078,33.9
40.093,38.69
40.109,40.87
40.125,40.46
40.140,37.93
40.156,33.86
40.171,28.75
40.187,22.92
40.203,16.48
40.218,9.44
40.234,1.81
40.250,-6.37
40.265,-15.01
40.281,-23.93
40.296,-33.09
40.312,-42.43
40.328,-51.84
40.343,-61.06
40.359,-69.82
40.375,-77.87
40.390,-85.03
40.406,-91.1
40.421,-95.6
40.437,-97.77
40.453,-96.72
40.468,-91.82
40.484,-83.22
40.500,-71.87
40.515,-59.29
40.531,-46.97
40.546,-35.8
40.562,-25.87
40.578,-16.82
40.593,-8.2
40.609,0.07
40.625,7.72
40.640,14.32
40.656,19.62
40.671,23.7
40.687,26.99
40.703,30.07
40.718,33.36
40.734,36.98
40.750,40.67
40.765,43.88
40.781,46.04
40.796,46.76
40.812,46.03
40.828,44.18
40.843,41.72
40.859,39.0
40.875,36.09
40.890,32.72
40.906,28.48
40.921,23.13
40.937,16.76
40.953,9.84
40.968,3.04
40.984,-2.96
41.000,-7.61
41.015,-10.53
41.031,-11.52
41.046,-10.44
41.062,-7.29
41.078,-2.22
41.093,4.42
41.109,12.12
41.125,20.27
41.140,28.23
41.156,35.45
41.171,41.48
41.187,45.99
41.203,48.85
41.218,50.17
41.234,50.27
41.250,49.66
41.265,48.84
41.281,48.24
41.296,48.07
41.312,48.33
41.328,48.78
41.343,49.05
41.359,48.69
41.375,47.12
41.390,43.88
41.406,38.64
41.421,31.41
41.437,22.65
41.453,13.1
41.468,3.64
41.484,-5.04
41.500,-12.59
41.515,-19.17
41.531,-25.2
41.546,-31.19
41.562,-37.37
41.578,-43.64
41.593,-49.63
41.609,-54.77
41.625,-58.48
41.640,-60.36
41.656,-60.17
41.671,-57.82
41.687,-53.35
41.703,-46.95
41.718,-38.94
41.734,-29.84
41.750,-20.27
41.765,-10.89
41.781,-2.31
41.796,5.02
41.812,10.84
41.828,15.08
41.843,17.84
41.859,19.3
41.875,19.64
41.890,19.1
41.906,17.86
41.921,16.12
41.937,14.12
41.953,12.18
41.968,10.56
41.984,9.38
42.000,8.55
42.015,7.67
42.031,6.19
42.046,3.46
42.062,-0.92
42.078,-7.04
42.093,-14.6
42.109,-23.06
42.125,-31.73
42.140,-39.81
42.156,-46.52
42.171,-51.0
42.187,-52.58
42.203,-50.77
42.218,-45.61
42.234,-37.55
42.250,-27.4
42.265,-15.95
42.281,-3.66
42.296,9.34
42.312,23.14
42.328,37.57
42.343,52.17
42.359,66.06
42.375,78.46
42.390,89.03
42.406,97.99
42.421,105.81
42.437,112.73
42.453,118.48
42.468,122.25
42.484,123.23
42.500,121.0
42.515,115.8
42.531,108.4
42.546,99.59
42.562,89.85
42.578,79.14
42.593,67.28
42.609,54.23
42.625,40.44
42.640,26.85
42.656,14.62
42.671,4.83
42.687,-2.0
42.703,-6.05
42.718,-8.29
42.734,-10.18
42.750,-13.35
42.765,-19.0
42.781,-27.54
42.796,-38.5
42.812,-50.74
42.828,-62.83
42.843,-73.27
42.859,-80.76
42.875,-84.21
42.890,-82.86
42.906,-76.34
42.921,-64.91
42.937,-49.69
42.953,-32.52
42.968,-15.64
42.984,-1.03
43.000,10.01
43.015,17.16
43.031,20.91
43.046,22.13
43.062,21.72
43.078,20.22
43.093,17.92
43.109,14.98
43.125,11.73
43.140,8.67
43.156,6.37
43.171,5.21
43.187,5.13
43.203,5.77
43.218,6.6
43.234,7.23
43.250,7.54
43.265,7.67
43.281,7.81
43.296,8.08
43.312,8.35
43.328,8.21
43.343,7.2
43.359,4.83
43.375,0.82
43.390,-4.89
43.406,-12.08
43.421,-20.27
43.437,-28.84
43.453,-37.1
43.468,-44.49
43.484,-50.59
43.500,-55.19
43.515,-58.35
43.531,-60.36
43.546,-61.68
43.562,-62.78
43.578,-63.93
43.593,-65.04
43.609,-65.67
43.625,-65.14
43.640,-62.75
43.656,-58.05
43.671,-50.95
43.687,-41.75
43.703,-31.08
43.718,-19.68
43.734,-8.27
43.750,2.48
43.765,12.12
43.781,20.37
43.796,27.1
43.812,32.33
43.828,36.08
43.843,38.44
43.859,39.55
43.875,39.69
43.890,39.17
43.906,38.33
43.921,37.41
43.937,36.44
43.953,35.37
43.968,34.1
43.984,32.63
44.000,31.11
44.015,29.78
44.031,28.88
44.046,28.43
44.062,28.23
44.078,27.98
44.093,27.36
44.109,26.24
44.125,24.6
44.140,22.58
44.156,20.28
44.171,17.74
44.187,14.91
44.203,11.63
44.218,7.88
44.234,3.72
44.250,-0.65
44.265,-5.03
44.281,-9.28
44.296,-13.46
44.312,-17.7
44.328,-22.18
44.343,-26.93
44.359,-31.71
44.375,-36.02
44.390,-39.17
44.406,-40.5
44.421,-39.48
44.437,-36.05
44.453,-30.47
44.468,-23.4
44.484,-15.6
44.500,-7.77
44.515,-0.43
44.531,6.07
44.546,11.54
44.562,15.87
44.578,18.94
44.593,20.65
44.609,20.95
44.625,19.8
44.640,17.28
44.656,13.56
44.671,8.98
44.687,3.98
44.703,-0.93
44.718,-5.23
44.734,-8.66
44.750,-11.2
44.765,-13.02
44.781,-14.41
44.796,-15.55
44.812,-16.42
44.828,-16.91
44.843,-16.9
44.859,-16.37
44.875,-15.45
44.890,-14.38
44.906,-13.34
44.921,-12.41
44.937,-11.49
44.953,-10.27
44.968,-8.42
44.984,-5.78
45.000,-2.44
45.015,1.19
45.031,4.56
45.046,7.09
45.062,8.42
45.078,8.42
45.093,7.14
45.109,4.73
45.125,1.39
45.140,-2.62
45.156,-6.88
45.171,-10.73
45.187,-13.48
45.203,-14.56
45.218,-13.68
45.234,-11.02
45.250,-7.16
45.265,-2.86
45.281,1.17
45.296,4.43
45.312,6.74
45.328,8.2
45.343,9.06
45.359,9.61
45.375,10.1
45.390,10.63
45.406,11.19
45.421,11.64
45.437,11.9
45.453,11.96
45.468,11.94
45.484,12.0
45.500,12.31
45.515,12.96
45.531,13.79
45.546,14.43
45.562,14.36
45.578,13.04
45.593,10.16
45.609,5.73
45.625,0.11
45.640,-6.04
45.656,-11.93
45.671,-16.8
45.687,-20.07
45.703,-21.36
45.718,-20.65
45.734,-18.33
45.750,-15.37
45.765,-13.14
45.781,-12.92
45.796,-15.33
45.812,-19.94
45.828,-25.24
45.843,-29.35
45.859,-30.93
45.875,-29.88
45.890,-27.45
45.906,-25.57
45.921,-25.74
45.937,-28.26
45.953,-32.17
45.968,-35.66
45.984,-37.15
46.000,-35.82
46.015,-31.8
46.031,-25.73
46.046,-18.27
46.062,-9.87
46.078,-0.78
46.093,8.5
46.109,17.16
46.125,24.15
46.140,28.56
46.156,30.18
46.171,29.61
46.187,28.2
46.203,27.49
46.218,28.58
46.234,31.73
46.250,36.37
46.265,41.54
46.281,46.44
46.296,50.88
46.312,55.22
46.328,59.87
46.343,64.86
46.359,69.38
46.375,71.92
46.390,70.86
46.406,65.09
46.421,54.54
46.437,40.13
46.453,23.45
46.468,6.2
46.484,-10.13
46.500,-24.3
46.515,-35.4
46.531,-42.79
46.546,-46.29
46.562,-46.36
46.578,-44.03
46.593,-40.74
46.609,-37.83
46.625,-36.09
46.640,-35.51
46.656,-35.38
46.671,-34.73
46.687,-32.68
46.703,-28.69
46.718,-22.49
46.734,-13.9
46.750,-2.82
46.765,10.71
46.781,26.33
46.796,43.0
46.812,59.27
46.828,73.41
46.843,84.01
46.859,90.33
46.875,92.42
46.890,90.9
46.906,86.68
46.921,80.76
46.937,73.95
46.953,67.04
46.968,60.66
46.984,55.18
47.000,50.71
47.015,47.02
47.031,43.59
47.046,39.84
47.062,35.33
47.078,29.82
47.093,23.35
47.109,16.25
47.125,9.0
47.140,2.18
47.156,-3.62
47.171,-7.99
47.187,-10.85
47.203,-12.51
47.218,-13.63
47.234,-14.96
47.250,-16.98
47.265,-19.62
47.281,-22.1
47.296,-23.26
47.312,-22.01
47.328,-17.93
47.343,-11.56
47.359,-4.33
47.375,1.99
47.390,6.11
47.406,7.73
47.421,7.81
47.437,8.08
47.453,10.33
47.468,15.55
47.484,23.53
47.500,33.0
47.515,42.28
47.531,49.93
47.546,55.2
47.562,58.28
47.578,59.84
47.593,60.64
47.609,60.95
47.625,60.3
47.640,57.36
47.656,50.3
47.671,37.31
47.687,17.4
47.703,-8.93
47.718,-39.45
47.734,-70.67
47.750,-98.7
47.765,-120.38
47.781,-134.06
47.796,-139.79
47.812,-138.75
47.828,-132.48
47.843,-122.25
47.859,-108.92
47.875,-93.33
47.890,-76.64
47.906,-60.4
47.921,-46.24
47.937,-35.33
47.953,-27.75
47.968,-22.51
47.984,-17.92
48.000,-12.26
48.015,-4.34
48.031,6.22
48.046,19.02
48.062,33.24
48.078,47.86
48.093,61.92
48.109,74.52
48.125,84.88
48.140,92.37
48.156,96.61
48.171,97.49
48.187,95.1
48.203,89.46
48.218,80.36
48.234,67.31
48.250,49.74
48.265,27.45
48.281,1.02
48.296,-28.01
48.312,-57.47
48.328,-85.09
48.343,-109.09
48.359,-128.52
48.375,-143.13
48.390,-153.11
48.406,-158.64
48.421,-159.7
48.437,-156.22
48.453,-148.26
48.468,-136.31
48.484,-121.28
48.500,-104.33
48.515,-86.5
48.531,-68.4
48.546,-50.19
48.562,-31.67
48.578,-12.7
48.593,6.5
48.609,25.02
48.625,41.46
48.640,54.19
48.656,62.02
48.671,64.51
48.687,62.2
48.703,56.32
48.718,48.47
48.734,40.19
48.750,32.49
48.765,25.84
48.781,20.27
48.796,15.7
48.812,12.3
48.828,10.7
48.843,11.78
48.859,16.21
48.875,24.03
48.890,34.24
48.906,45.06
48.921,54.4
48.937,60.69
48.953,63.23
48.968,62.24
48.984,58.44
49.000,52.43
49.015,44.47
49.031,34.62
49.046,23.16
49.062,10.94
49.078,-0.64
49.093,-10.06
49.109,-16.2
49.125,-18.84
49.140,-18.67
49.156,-16.98
49.171,-15.03
49.187,-13.74
49.203,-13.47
49.218,-14.16
49.234,-15.61
49.250,-17.6
49.265,-19.94
49.281,-22.45
49.296,-24.9
49.312,-27.12
49.328,-29.05
49.343,-30.8
49.359,-32.56
49.375,-34.44
49.390,-36.34
49.406,-37.9
49.421,-38.65
49.437,-38.17
49.453,-36.28
49.468,-33.13
49.484,-29.05
49.500,-24.43
49.515,-19.63
49.531,-14.92
49.546,-10.56
49.562,-6.81
49.578,-3.92
49.593,-2.03
49.609,-1.13
49.625,-0.99
49.640,-1.28
49.656,-1.69
49.671,-2.0
49.687,-2.18
49.703,-2.32
49.718,-2.44
49.734,-2.54
49.750,-2.56
49.765,-2.45
49.781,-2.26
49.796,-2.21
49.812,-2.54
49.828,-3.46
49.843,-5.03
49.859,-7.09
49.875,-9.31
49.890,-11.36
49.906,-13.01
49.921,-14.17
49.937,-15.02
49.953,-15.91
49.968,-17.31
49.984,-19.71
50.000,-23.42
50.015,-28.4
50.031,-34.23
50.046,-40.12
50.062,-44.99
50.078,-47.91
50.093,-48.15
50.109,-45.4
50.125,-39.8
50.140,-31.8
50.156,-22.11
50.171,-11.55
50.187,-0.99
50.203,8.8
50.218,17.2
50.234,23.81
50.250,28.39
50.265,30.8
50.281,31.07
50.296,29.38
50.312,26.17
50.328,22.15
50.343,18.2
50.359,15.11
50.375,13.46
50.390,13.43
50.406,14.78
50.421,17.11
50.437,19.94
50.453,22.87
50.468,25.69
50.484,28.3
50.500,30.57
50.515,32.36
50.531,33.47
50.546,33.63
50.562,32.59
50.578,30.21
50.593,26.49
50.609,21.57
50.625,15.68
50.640,8.98
50.656,1.6
50.671,-6.34
50.687,-14.57
50.703,-22.62
50.718,-29.75
50.734,-35.14
50.750,-38.12
50.765,-38.28
50.781,-35.67
50.796,-30.72
50.812,-24.25
50.828,-17.14
50.843,-10.25
50.859,-4.23
50.875,0.65
50.890,4.39
50.906,7.18
50.921,9.28
50.937,10.89
50.953,12.18
50.968,13.39
50.984,14.76
51.000,16.44
51.015,18.4
51.031,20.38
51.046,21.99
51.062,22.84
51.078,22.78
51.093,21.88
51.109,20.44
51.125,18.77
51.140,17.1
51.156,15.61
51.171,14.34
51.187,13.35
51.203,12.47
51.218,11.43
51.234,9.84
51.250,7.34
51.265,3.72
51.281,-1.0
51.296,-6.49
51.312,-12.4
51.328,-18.32
51.343,-23.91
51.359,-28.89
51.375,-33.0
51.390,-36.02
51.406,-37.73
51.421,-37.91
51.437,-36.34
51.453,-32.9
51.468,-27.61
51.484,-20.74
51.500,-12.92
51.515,-4.95
51.531,2.3
51.546,8.23
51.562,12.6
51.578,15.63
51.593,17.73
51.609,19.45
51.625,21.14
51.640,22.86
51.656,24.51
51.671,25.88
51.687,26.88
51.703,27.55
51.718,28.01
51.734,28.39
51.750,28.67
51.765,28.66
51.781,28.09
51.796,26.76
51.812,24.64
51.828,21.92
51.843,19.01
51.859,16.35
51.875,14.2
51.890,12.59
51.906,11.24
51.921,9.76
51.937,7.76
51.953,5.09
51.968,1.79
51.984,-1.82
52.000,-5.41
52.015,-8.76
52.031,-11.89
52.046,-14.89
52.062,-17.85
52.078,-20.63
52.093,-22.78
52.109,-23.66
52.125,-22.52
52.140,-18.82
52.156,-12.35
52.171,-3.35
52.187,7.48
52.203,19.05
52.218,30.09
52.234,39.43
52.250,46.31
52.265,50.56
52.281,52.66
52.296,53.48
52.312,54.07
52.328,55.21
52.343,57.2
52.359,59.89
52.375,62.74
52.390,64.93
52.406,65.52
52.421,63.68
52.437,58.77
52.453,50.7
52.468,39.98
52.484,27.64
52.500,15.0
52.515,3.29
52.531,-6.73
52.546,-14.76
52.562,-20.92
52.578,-25.43
52.593,-28.39
52.609,-29.65
52.625,-28.92
52.640,-26.05
52.656,-21.12
52.671,-14.61
52.687,-7.18
52.703,0.49
52.718,7.84
52.734,14.56
52.750,20.58
52.765,25.89
52.781,30.51
52.796,34.47
52.812,37.83
52.828,40.94
52.843,44.29
52.859,48.35
52.875,53.25
52.890,58.47
52.906,62.77
52.921,64.51
52.937,62.16
52.953,54.86
52.968,42.81
52.984,27.29
53.000,10.31
53.015,-5.97
53.031,-19.73
53.046,-29.91
53.062,-36.15
53.078,-38.79
53.093,-38.59
53.109,-36.5
53.125,-33.49
53.140,-30.35
53.156,-27.57
53.171,-25.24
53.187,-23.22
53.203,-21.26
53.218,-19.27
53.234,-17.45
53.250,-16.35
53.265,-16.58
53.281,-18.56
53.296,-22.29
53.312,-27.37
53.328,-33.21
53.343,-39.28
53.359,-45.26
53.375,-50.95
53.390,-56.15
53.406,-60.61
53.421,-64.05
53.437,-66.31
53.453,-67.31
53.468,-66.94
53.484,-64.71
53.500,-59.6
53.515,-50.26
53.531,-35.77
53.546,-16.38
53.562,6.24
53.578,29.32
53.593,49.97
53.609,66.06
53.625,76.82
53.640,82.64
53.656,84.39
53.671,82.89
53.687,78.56
53.703,71.71
53.718,63.05
53.734,53.83
53.750,45.74
53.765,40.29
53.781,38.04
53.796,38.25
53.812,39.08
53.828,38.12
53.843,33.41
53.859,24.14
53.875,11.0
53.890,-4.15
53.906,-18.95
53.921,-31.41
53.937,-40.47
53.953,-46.08
53.968,-48.97
53.984,-50.25
54.000,-51.0
54.015,-52.05
54.031,-53.95
54.046,-56.9
54.062,-60.81
54.078,-65.35
54.093,-69.95
54.109,-73.93
54.125,-76.57
54.140,-77.23
54.156,-75.41
54.171,-70.87
54.187,-63.68
54.203,-54.33
54.218,-43.63
54.234,-32.57
54.250,-22.07
54.265,-12.78
54.281,-5.03
54.296,1.2
54.312,6.08
54.328,9.75
54.343,12.33
54.359,13.86
54.375,14.49
54.390,14.46
54.406,14.16
54.421,13.98
54.437,14.23
54.453,15.02
54.468,16.18
54.484,17.42
54.500,18.39
54.515,18.85
54.531,18.68
54.546,17.99
54.562,16.9
54.578,15.61
54.593,14.28
54.609,13.0
54.625,11.84
54.640,10.83
54.656,9.99
54.671,9.27
54.687,8.58
54.703,7.76
54.718,6.63
54.734,5.17
54.750,3.49
54.765,1.94
54.781,0.94
54.796,0.93
54.812,2.15
54.828,4.6
54.843,8.0
54.859,11.95
54.875,16.07
54.890,20.11
54.906,24.06
54.921,28.04
54.937,32.2
54.953,36.56
54.968,41.01
54.984,45.24
55.000,48.83
55.015,51.42
55.031,52.64
55.046,52.26
55.062,50.15
55.078,46.32
55.093,40.97
55.109,34.51
55.125,27.42
55.140,20.17
55.156,13.07
55.171,6.19
55.187,-0.64
55.203,-7.69
55.218,-15.15
55.234,-23.04
55.250,-31.15
55.265,-39.18
55.281,-46.87
55.296,-54.14
55.312,-61.09
55.328,-67.81
55.343,-74.2
55.359,-79.79
55.375,-83.74
55.390,-85.07
55.406,-82.93
55.421,-76.98
55.437,-67.5
55.453,-55.31
55.468,-41.46
55.484,-27.09
55.500,-13.17
55.515,-0.48
55.531,10.42
55.546,19.08
55.562,25.2
55.578,28.63
55.593,29.44
55.609,28.0
55.625,24.96
55.640,21.12
55.656,17.22
55.671,13.76
55.687,10.86
55.703,8.31
55.718,5.74
55.734,2.81
55.750,-0.6
55.765,-4.33
55.781,-8.04
55.796,-11.38
55.812,-14.17
55.828,-16.46
55.843,-18.38
55.859,-20.16
55.875,-21.94
55.890,-23.8
55.906,-25.69
55.921,-27.52
55.937,-29.13
55.953,-30.31
55.968,-30.75
55.984,-30.18
56.000,-28.46
56.015,-25.77
56.031,-22.51
56.046,-19.25
56.062,-16.51
56.078,-14.57
56.093,-13.41
56.109,-12.8
56.125,-12.54
56.140,-12.58
56.156,-13.07
56.171,-14.21
56.187,-16.09
56.203,-18.56
56.218,-21.2
56.234,-23.5
56.250,-24.97
56.265,-25.29
56.281,-24.36
56.296,-22.31
56.312,-19.43
56.328,-16.13
56.343,-12.81
56.359,-9.74
56.375,-7.04
56.390,-4.71
56.406,-2.56
56.421,-0.47
56.437,1.58
56.453,3.38
56.468,4.62
56.484,5.0
56.500,4.32
56.515,2.63
56.531,0.13
56.546,-2.71
56.562,-5.39
56.578,-7.3
56.593,-7.9
56.609,-6.72
56.625,-3.44
56.640,1.97
56.656,9.21
56.671,17.62
56.687,26.39
56.703,34.72
56.718,42.1
56.734,48.33
56.750,53.47
56.765,57.66
56.781,60.9
56.796,63.14
56.812,64.36
56.828,64.79
56.843,64.95
56.859,65.41
56.875,66.47
56.890,67.96
56.906,69.41
56.921,70.51
56.937,71.5
56.953,73.11
56.968,76.09
56.984,80.6
57.000,85.86
57.015,90.41
57.031,92.66
57.046,91.39
57.062,85.88
57.078,75.82
57.093,60.98
57.109,41.52
57.125,18.31
57.140,-6.72
57.156,-30.62
57.171,-50.14
57.187,-62.59
57.203,-66.78
57.218,-63.15
57.234,-53.58
57.250,-40.66
57.265,-27.05
57.281,-15.15
57.296,-6.9
57.312,-3.68
57.328,-6.28
57.343,-14.74
57.359,-28.22
57.375,-44.95
57.390,-62.47
57.406,-78.05
57.421,-89.38
57.437,-95.15
57.453,-95.37
57.468,-91.17
57.484,-84.22
57.500,-76.11
57.515,-67.86
57.531,-59.95
57.546,-52.59
57.562,-46.03
57.578,-40.63
57.593,-36.69
57.609,-34.23
57.625,-32.86
57.640,-31.84
57.656,-30.36
57.671,-27.92
57.687,-24.43
57.703,-20.32
57.718,-16.25
57.734,-12.8
57.750,-10.17
57.765,-8.15
57.781,-6.11
57.796,-3.37
57.812,0.55
57.828,5.8
57.843,12.18
57.859,19.31
57.875,26.86
57.890,34.5
57.906,42.03
57.921,49.25
57.937,55.94
57.953,61.79
57.968,66.5
57.984,69.75
58.000,71.28
58.015,70.92
58.031,68.52
58.046,64.0
58.062,57.45
58.078,49.15
58.093,39.64
58.109,29.68
58.125,20.06
58.140,11.47
58.156,4.44
58.171,-0.75
58.187,-4.03
58.203,-5.54
58.218,-5.64
58.234,-4.84
58.250,-3.73
58.265,-2.88
58.281,-2.79
58.296,-3.76
58.312,-5.87
58.328,-8.96
58.343,-12.71
58.359,-16.77
58.375,-20.72
58.390,-24.16
58.406,-26.67
58.421,-27.88
58.437,-27.34
58.453,-24.73
58.468,-19.85
58.484,-12.85
58.500,-4.28
58.515,5.01
58.531,14.17
58.546,22.48
58.562,29.61
58.578,35.62
58.593,40.74
58.609,45.32
58.625,49.69
58.640,54.09
58.656,58.73
58.671,63.85
58.687,69.56
58.703,75.8
58.718,82.24
58.734,88.2
58.750,92.83
58.765,95.29
58.781,95.07
58.796,92.11
58.812,86.89
58.828,80.21
58.843,73.03
58.859,66.15
58.875,60.04
58.890,54.96
58.906,51.1
58.921,48.65
58.937,47.85
58.953,48.93
58.968,51.81
58.984,56.05
59.000,60.77
59.015,64.75
59.031,66.8
59.046,65.94
59.062,61.74
59.078,54.36
59.093,44.39
59.109,32.45
59.125,18.83
59.140,3.41
59.156,-14.15
59.171,-33.89
59.187,-55.08
59.203,-76.25
59.218,-95.46
59.234,-111.04
59.250,-122.12
59.265,-128.86
59.281,-132.04
59.296,-132.67
59.312,-131.43
59.328,-128.6
59.343,-124.2
59.359,-118.2
59.375,-110.73
59.390,-102.0
59.406,-92.35
59.421,-81.99
59.437,-71.12
59.453,-59.73
59.468,-47.73
59.484,-35.0
59.500,-21.63
59.515,-8.14
59.531,4.55
59.546,15.3
59.562,23.27
59.578,28.27
59.593,30.9
59.609,32.23
59.625,33.34
59.640,34.82
59.656,36.6
59.671,38.21
59.687,39.07
59.703,38.96
59.718,38.02
59.734,36.6
59.750,35.01
59.765,33.26
59.781,31.06
59.796,27.93
59.812,23.3
59.828,16.75
59.843,8.15
59.859,-2.26
59.875,-13.9
59.890,-25.83
59.906,-37.01
59.921,-46.29
59.937,-52.68
59.953,-55.58
59.968,-54.84
59.984,-50.79
