timestamp,value
00.000,48.02
00.015,62.11
00.031,78.86
00.046,96.8
00.062,114.34
00.078,130.21
00.093,143.79
00.109,155.13
00.125,164.7
00.140,172.94
00.156,180.0
00.171,185.5
00.187,188.61
00.203,188.16
00.218,182.94
00.234,172.14
00.250,155.59
00.265,134.05
00.281,109.06
00.296,82.65
00.312,56.7
00.328,32.52
00.343,10.64
00.359,-9.04
00.375,-26.77
00.390,-42.58
00.406,-56.09
00.421,-66.68
00.437,-73.82
00.453,-77.41
00.468,-77.88
00.484,-75.96
00.500,-72.36
00.515,-67.49
00.531,-61.38
00.546,-53.8
00.562,-44.43
00.578,-33.2
00.593,-20.44
00.609,-6.85
00.625,6.62
00.640,19.04
00.656,29.69
00.671,37.98
00.687,43.51
00.703,46.21
00.718,46.66
00.734,46.43
00.750,47.99
00.765,53.86
00.781,65.31
00.796,81.15
00.812,97.63
00.828,109.49
00.843,112.01
00.859,102.84
00.875,82.74
00.890,54.94
00.906,23.53
00.921,-8.17
00.937,-38.36
00.953,-66.45
00.968,-92.09
00.984,-114.28
01.000,-131.02
01.015,-139.71
01.031,-138.03
01.046,-124.91
01.062,-101.34
01.078,-70.51
01.093,-37.52
01.109,-8.09
01.125,12.81
01.140,22.18
01.156,19.43
01.171,5.77
01.187,-16.8
01.203,-46.42
01.218,-81.49
01.234,-120.24
01.250,-160.14
01.265,-197.62
01.281,-228.73
01.296,-250.13
01.312,-260.17
01.328,-259.18
01.343,-249.22
01.359,-233.06
01.375,-213.32
01.390,-191.96
01.406,-170.09
01.421,-148.33
01.437,-127.1
01.453,-106.83
01.468,-88.12
01.484,-71.69
01.500,-58.31
01.515,-48.58
01.531,-42.83
01.546,-40.95
01.562,-42.43
01.578,-46.36
01.593,-51.58
01.609,-56.8
01.625,-60.73
01.640,-62.35
01.656,-61.03
01.671,-56.75
01.687,-50.08
01.703,-42.04
01.718,-33.72
01.734,-26.06
01.750,-19.65
01.765,-14.78
01.781,-11.6
01.796,-10.22
01.812,-10.75
01.828,-13.13
01.843,-17.0
01.859,-21.7
01.875,-26.33
01.890,-30.02
01.906,-32.05
01.921,-32.03
01.937,-29.84
01.953,-25.54
01.968,-19.35
01.984,-11.6
02.000,-2.78
02.015,6.48
02.031,15.47
02.046,23.51
02.062,30.06
02.078,34.72
02.093,37.23
02.109,37.49
02.125,35.51
02.140,31.51
02.156,25.85
02.171,19.04
02.187,11.6
02.203,3.92
02.218,-3.73
02.234,-11.23
02.250,-18.46
02.265,-25.28
02.281,-31.49
02.296,-36.99
02.312,-41.83
02.328,-46.3
02.343,-50.7
02.359,-55.16
02.375,-59.38
02.390,-62.52
02.406,-63.36
02.421,-60.7
02.437,-53.84
02.453,-42.88
02.468,-28.74
02.484,-12.91
02.500,3.03
02.515,17.79
02.531,30.5
02.546,40.73
02.562,48.28
02.578,53.12
02.593,55.35
02.609,55.25
02.625,53.25
02.640,49.93
02.656,45.86
02.671,41.52
02.687,37.28
02.703,33.44
02.718,30.33
02.734,28.25
02.750,27.43
02.765,27.89
02.781,29.37
02.796,31.4
02.812,33.42
02.828,35.03
02.843,36.04
02.859,36.64
02.875,37.25
02.890,38.35
02.906,40.22
02.921,42.78
02.937,45.52
02.953,47.63
02.968,48.4
02.984,47.48
03.000,45.1
03.015,41.95
03.031,38.9
03.046,36.51
03.062,34.85
03.078,33.53
03.093,31.85
03.109,29.16
03.125,24.96
03.140,19.01
03.156,11.51
03.171,3.17
03.187,-4.63
03.203,-9.92
03.218,-10.74
03.234,-6.03
03.250,3.71
03.265,16.21
03.281,28.32
03.296,37.25
03.312,41.68
03.328,42.29
03.343,41.05
03.359,40.17
03.375,40.91
03.390,43.23
03.406,46.09
03.421,48.24
03.437,48.97
03.453,48.27
03.468,46.6
03.484,44.49
03.500,42.2
03.515,39.7
03.531,36.92
03.546,33.93
03.562,31.03
03.578,28.66
03.593,27.17
03.609,26.64
03.625,26.86
03.640,27.36
03.656,27.56
03.671,26.97
03.687,25.33
03.703,22.62
03.718,19.11
03.734,15.17
03.750,11.08
03.765,6.91
03.781,2.44
03.796,-2.7
03.812,-8.74
03.828,-15.6
03.843,-22.79
03.859,-29.6
03.875,-35.47
03.890,-40.25
03.906,-44.42
03.921,-48.87
03.937,-54.54
03.953,-61.97
03.968,-70.9
03.984,-80.26
04.000,-88.3
04.015,-93.11
04.031,-93.15
04.046,-87.76
04.062,-77.36
04.078,-63.3
04.093,-47.42
04.109,-31.46
04.125,-16.74
04.140,-3.86
04.156,7.0
04.171,15.92
04.187,23.04
04.203,28.42
04.218,32.2
04.234,34.58
04.250,35.89
04.265,36.45
04.281,36.47
04.296,36.07
04.312,35.33
04.328,34.39
04.343,33.47
04.359,32.88
04.375,32.83
04.390,33.38
04.406,34.34
04.421,35.41
04.437,36.24
04.453,36.56
04.468,36.27
04.484,35.44
04.500,34.24
04.515,32.86
04.531,31.44
04.546,29.95
04.562,28.24
04.578,26.05
04.593,23.18
04.609,19.59
04.625,15.36
04.640,10.7
04.656,5.81
04.671,0.78
04.687,-4.39
04.703,-9.8
04.718,-15.52
04.734,-21.61
04.750,-28.12
04.765,-35.03
04.781,-42.22
04.796,-49.31
04.812,-55.53
04.828,-59.73
04.843,-60.66
04.859,-57.4
04.875,-49.73
04.890,-38.33
04.906,-24.55
04.921,-10.12
04.937,3.43
04.953,15.02
04.968,24.22
04.984,31.08
05.000,35.96
05.015,39.3
05.031,41.48
05.046,42.81
05.062,43.44
05.078,43.55
05.093,43.23
05.109,42.58
05.125,41.7
05.140,40.68
05.156,39.63
05.171,38.7
05.187,38.11
05.203,38.07
05.218,38.71
05.234,39.98
05.250,41.61
05.265,43.2
05.281,44.31
05.296,44.72
05.312,44.47
05.328,43.93
05.343,43.57
05.359,43.73
05.375,44.43
05.390,45.35
05.406,45.89
05.421,45.53
05.437,44.12
05.453,41.99
05.468,39.92
05.484,38.82
05.500,39.27
05.515,41.31
05.531,44.33
05.546,47.4
05.562,49.61
05.578,50.49
05.593,50.23
05.609,49.7
05.625,50.21
05.640,53.08
05.656,59.28
05.671,69.16
05.687,82.39
05.703,98.15
05.718,115.54
05.734,133.86
05.750,152.87
05.765,172.78
05.781,194.11
05.796,217.19
05.812,241.62
05.828,265.76
05.843,286.65
05.859,300.65
05.875,304.55
05.890,296.71
05.906,277.77
05.921,250.26
05.937,217.52
05.953,182.37
05.968,146.41
05.984,110.16
06.000,73.85
06.015,38.23
06.031,4.76
06.046,-24.79
06.062,-48.77
06.078,-65.95
06.093,-75.5
06.109,-77.14
06.125,-71.55
06.140,-60.97
06.156,-49.31
06.171,-41.46
06.187,-41.84
06.203,-52.95
06.218,-74.72
06.234,-105.17
06.250,-141.61
06.265,-181.66
06.281,-223.19
06.296,-263.45
06.312,-298.54
06.328,-323.8
06.343,-335.53
06.359,-332.88
06.375,-318.78
06.390,-299.08
06.406,-280.11
06.421,-266.06
06.437,-257.54
06.453,-251.83
06.468,-244.77
06.484,-232.98
06.500,-215.3
06.515,-192.92
06.531,-168.42
06.546,-144.26
06.562,-121.92
06.578,-101.61
06.593,-82.78
06.609,-64.87
06.625,-47.86
06.640,-32.4
06.656,-19.41
06.671,-9.54
06.687,-2.78
06.703,1.59
06.718,4.71
06.734,7.64
06.750,11.02
06.765,14.91
06.781,18.92
06.796,22.57
06.812,25.51
06.828,27.81
06.843,29.77
06.859,31.78
06.875,34.0
06.890,36.14
06.906,37.64
06.921,37.85
06.937,36.53
06.953,33.91
06.968,30.65
06.984,27.44
07.000,24.63
07.015,22.05
07.031,19.11
07.046,15.18
07.062,9.91
07.078,3.49
07.093,-3.56
07.109,-10.61
07.125,-17.28
07.140,-23.53
07.156,-29.61
07.171,-35.84
07.187,-42.34
07.203,-48.88
07.218,-54.77
07.234,-59.11
07.250,-60.87
07.265,-59.28
07.281,-53.99
07.296,-45.16
07.312,-33.43
07.328,-19.73
07.343,-5.02
07.359,9.86
07.375,24.35
07.390,38.05
07.406,50.77
07.421,62.37
07.437,72.84
07.453,82.35
07.468,91.2
07.484,99.64
07.500,107.65
07.515,114.78
07.531,120.16
07.546,122.98
07.562,122.84
07.578,120.15
07.593,115.97
07.609,111.6
07.625,108.12
07.640,106.11
07.656,105.6
07.671,106.1
07.687,106.4
07.703,104.34
07.718,96.8
07.734,80.55
07.750,53.47
07.765,16.08
07.781,-28.04
07.796,-73.03
07.812,-112.75
07.828,-142.91
07.843,-162.24
07.859,-172.22
07.875,-175.61
07.890,-174.85
07.906,-171.19
07.921,-164.9
07.937,-156.15
07.953,-145.71
07.968,-135.12
07.984,-126.16
08.000,-120.17
08.015,-117.58
08.031,-117.88
08.046,-119.8
08.062,-121.63
08.078,-121.42
08.093,-117.17
08.109,-107.18
08.125,-90.5
08.140,-67.38
08.156,-39.38
08.171,-9.13
08.187,20.47
08.203,46.9
08.218,68.55
08.234,84.8
08.250,95.83
08.265,102.35
08.281,105.36
08.296,106.14
08.312,106.12
08.328,106.8
08.343,109.36
08.359,114.37
08.375,121.69
08.390,130.5
08.406,139.71
08.421,148.43
08.437,156.17
08.453,162.79
08.468,168.01
08.484,170.96
08.500,169.89
08.515,162.64
08.531,147.4
08.546,123.87
08.562,93.72
08.578,60.34
08.593,27.64
08.609,-1.22
08.625,-24.63
08.640,-42.34
08.656,-54.66
08.671,-61.84
08.687,-64.14
08.703,-62.51
08.718,-59.22
08.734,-57.77
08.750,-61.7
08.765,-73.02
08.781,-91.16
08.796,-113.24
08.812,-135.53
08.828,-155.33
08.843,-171.85
08.859,-185.6
08.875,-196.84
08.890,-204.08
08.906,-204.04
08.921,-193.18
08.937,-170.04
08.953,-136.74
08.968,-98.83
08.984,-63.24
09.000,-35.56
09.015,-17.99
09.031,-8.99
09.046,-4.76
09.062,-1.35
09.078,3.54
09.093,10.07
09.109,16.99
09.125,22.83
09.140,26.84
09.156,29.14
09.171,30.34
09.187,30.91
09.203,30.92
09.218,30.12
09.234,28.33
09.250,25.78
09.265,23.1
09.281,21.12
09.296,20.47
09.312,21.21
09.328,22.77
09.343,24.15
09.359,24.4
09.375,22.97
09.390,20.01
09.406,16.23
09.421,12.63
09.437,10.08
09.453,8.99
09.468,9.16
09.484,9.85
09.500,9.97
09.515,8.44
09.531,4.47
09.546,-2.16
09.562,-11.17
09.578,-21.87
09.593,-33.49
09.609,-45.5
09.625,-57.64
09.640,-69.87
09.656,-82.01
09.671,-93.45
09.687,-102.99
09.703,-109.13
09.718,-110.44
09.734,-106.17
09.750,-96.53
09.765,-82.69
09.781,-66.45
09.796,-49.7
09.812,-33.96
09.828,-20.09
09.843,-8.34
09.859,1.41
09.875,9.4
09.890,15.81
09.906,20.76
09.921,24.39
09.937,26.95
09.953,28.78
09.968,30.21
09.984,31.42
10.000,32.46
10.015,33.21
10.031,33.56
10.046,33.55
10.062,33.31
10.078,33.01
10.093,32.73
10.109,32.42
10.125,31.94
10.140,31.13
10.156,29.94
10.171,28.47
10.187,26.92
10.203,25.44
10.218,24.07
10.234,22.68
10.250,21.01
10.265,18.78
10.281,15.81
10.296,12.16
10.312,8.09
10.328,3.94
10.343,-0.04
10.359,-3.92
10.375,-8.09
10.390,-13.15
10.406,-19.68
10.421,-27.94
10.437,-37.68
10.453,-48.0
10.468,-57.51
10.484,-64.62
10.500,-67.92
10.515,-66.55
10.531,-60.46
10.546,-50.38
10.562,-37.56
10.578,-23.42
10.593,-9.18
10.609,4.27
10.625,16.4
10.640,26.9
10.656,35.53
10.671,42.07
10.687,46.43
10.703,48.71
10.718,49.27
10.734,48.72
10.750,47.64
10.765,46.53
10.781,45.63
10.796,44.96
10.812,44.44
10.828,43.97
10.843,43.47
10.859,42.87
10.875,42.03
10.890,40.79
10.906,39.07
10.921,36.93
10.937,34.64
10.953,32.51
10.968,30.71
10.984,29.13
11.000,27.4
11.015,25.13
11.031,22.11
11.046,18.5
11.062,14.7
11.078,11.13
11.093,7.99
11.109,5.19
11.125,2.42
11.140,-0.65
11.156,-4.24
11.171,-8.46
11.187,-13.33
11.203,-18.8
11.218,-24.68
11.234,-30.5
11.250,-35.38
11.265,-38.19
11.281,-37.76
11.296,-33.34
11.312,-24.84
11.328,-12.9
11.343,1.24
11.359,16.09
11.375,30.26
11.390,42.71
11.406,52.85
11.421,60.55
11.437,66.05
11.453,69.83
11.468,72.5
11.484,74.65
11.500,76.72
11.515,78.94
11.531,81.26
11.546,83.43
11.562,85.12
11.578,86.08
11.593,86.17
11.609,85.46
11.625,84.21
11.640,82.68
11.656,81.05
11.671,79.32
11.687,77.14
11.703,73.9
11.718,68.86
11.734,61.43
11.750,51.31
11.765,38.71
11.781,24.22
11.796,8.79
11.812,-6.57
11.828,-20.9
11.843,-33.47
11.859,-43.84
11.875,-51.95
11.890,-58.16
11.906,-63.17
11.921,-67.91
11.937,-73.37
11.953,-80.31
11.968,-89.1
11.984,-99.42
12.000,-110.24
12.015,-119.84
12.031,-126.19
12.046,-127.36
12.062,-122.2
12.078,-110.73
12.093,-94.28
12.109,-75.11
12.125,-55.72
12.140,-38.16
12.156,-23.5
12.171,-11.83
12.187,-2.58
12.203,5.04
12.218,11.64
12.234,17.52
12.250,22.79
12.265,27.57
12.281,32.13
12.296,36.95
12.312,42.67
12.328,49.75
12.343,58.34
12.359,68.05
12.375,77.99
12.390,87.02
12.406,94.01
12.421,98.26
12.437,99.68
12.453,98.75
12.468,96.21
12.484,92.79
12.500,88.94
12.515,84.85
12.531,80.57
12.546,76.2
12.562,71.99
12.578,68.21
12.593,65.03
12.609,62.36
12.625,59.85
12.640,57.03
12.656,53.56
12.671,49.27
12.687,44.23
12.703,38.51
12.718,32.06
12.734,24.55
12.750,15.43
12.765,4.27
12.781,-8.92
12.796,-23.42
12.812,-37.84
12.828,-50.37
12.843,-59.36
12.859,-63.84
12.875,-63.75
12.890,-59.93
12.906,-53.63
12.921,-46.18
12.937,-38.53
12.953,-31.23
12.968,-24.47
12.984,-18.34
13.000,-12.9
13.015,-8.16
13.031,-3.97
13.046,0.06
13.062,4.55
13.078,10.17
13.093,17.35
13.109,26.07
13.125,35.79
13.140,45.67
13.156,54.89
13.171,62.95
13.187,69.84
13.203,75.9
13.218,81.59
13.234,87.2
13.250,92.65
13.265,97.5
13.281,101.09
13.296,102.7
13.312,101.77
13.328,98.07
13.343,91.7
13.359,83.23
13.375,73.56
13.390,63.86
13.406,55.31
13.421,48.96
13.437,45.53
13.453,45.3
13.468,48.08
13.484,53.22
13.500,59.77
13.515,66.7
13.531,73.1
13.546,78.5
13.562,82.88
13.578,86.65
13.593,90.41
13.609,94.66
13.625,99.49
13.640,104.36
13.656,108.15
13.671,109.34
13.687,106.57
13.703,99.09
13.718,87.11
13.734,71.61
13.750,53.87
13.765,34.84
13.781,14.88
13.796,-6.02
13.812,-27.57
13.828,-48.66
13.843,-67.28
13.859,-81.09
13.875,-88.4
13.890,-88.94
13.906,-83.93
13.921,-75.49
13.937,-65.68
13.953,-55.78
13.968,-46.02
13.984,-35.97
14.000,-25.06
14.015,-12.84
14.031,0.86
14.046,16.01
14.062,32.14
14.078,48.07
14.093,61.57
14.109,69.53
14.125,68.74
14.140,56.86
14.156,33.37
14.171,-0.14
14.187,-40.29
14.203,-82.77
14.218,-123.38
14.234,-158.85
14.250,-187.16
14.265,-207.46
14.281,-219.69
14.296,-224.1
14.312,-220.85
14.328,-209.87
14.343,-191.24
14.359,-165.61
14.375,-134.69
14.390,-101.31
14.406,-68.92
14.421,-40.65
14.437,-18.41
14.453,-2.63
14.468,7.47
14.484,13.1
14.500,15.28
14.515,14.51
14.531,11.04
14.546,5.22
14.562,-2.11
14.578,-9.71
14.593,-16.25
14.609,-20.76
14.625,-22.96
14.640,-23.32
14.656,-22.82
14.671,-22.53
14.687,-23.28
14.703,-25.24
14.718,-27.99
14.734,-30.73
14.750,-32.65
14.765,-33.45
14.781,-33.52
14.796,-33.9
14.812,-35.82
14.828,-40.2
14.843,-47.19
14.859,-56.19
14.875,-66.1
14.890,-75.75
14.906,-84.33
14.921,-91.56
14.937,-97.61
14.953,-102.9
14.968,-107.9
14.984,-112.97
15.000,-118.28
15.015,-123.66
15.031,-128.49
15.046,-131.74
15.062,-132.02
15.078,-127.89
15.093,-118.24
15.109,-102.57
15.125,-81.17
15.140,-54.99
15.156,-25.57
15.171,5.23
15.187,35.44
15.203,63.22
15.218,87.14
15.234,106.36
15.250,120.74
15.265,130.62
15.281,136.54
15.296,138.93
15.312,138.0
15.328,133.93
15.343,127.02
15.359,117.78
15.375,106.79
15.390,94.63
15.406,81.95
15.421,69.95
15.437,60.63
15.453,56.57
15.468,59.88
15.484,70.82
15.500,86.73
15.515,102.32
15.531,111.28
15.546,108.75
15.562,93.22
15.578,67.06
15.593,35.44
15.609,4.39
15.625,-21.2
15.640,-38.79
15.656,-48.45
15.671,-52.51
15.687,-54.65
15.703,-59.03
15.718,-69.11
15.734,-86.62
15.750,-111.05
15.765,-139.62
15.781,-168.15
15.796,-192.22
15.812,-208.33
15.828,-214.53
15.843,-210.52
15.859,-197.45
15.875,-177.5
15.890,-153.54
15.906,-128.66
15.921,-105.55
15.937,-86.02
15.953,-70.58
15.968,-58.71
15.984,-49.21
16.000,-40.87
16.015,-32.9
16.031,-25.04
16.046,-17.42
16.062,-10.31
16.078,-3.97
16.093,1.38
16.109,5.54
16.125,8.34
16.140,9.71
16.156,9.82
16.171,9.0
16.187,7.62
16.203,5.99
16.218,4.31
16.234,2.81
16.250,1.86
16.265,2.02
16.281,3.88
16.296,7.78
16.312,13.59
16.328,20.59
16.343,27.66
16.359,33.51
16.375,36.98
16.390,37.23
16.406,33.86
16.421,26.98
16.437,17.41
16.453,6.66
16.468,-3.28
16.484,-10.34
16.500,-13.08
16.515,-11.08
16.531,-5.07
16.546,3.42
16.562,12.73
16.578,21.65
16.593,29.77
16.609,37.21
16.625,44.37
16.640,51.45
16.656,58.5
16.671,65.43
16.687,72.05
16.703,77.96
16.718,82.12
16.734,82.93
16.750,78.6
16.765,68.01
16.781,51.47
16.796,30.95
16.812,9.53
16.828,-9.67
16.843,-24.52
16.859,-34.38
16.875,-39.79
16.890,-41.93
16.906,-41.92
16.921,-40.59
16.937,-38.69
16.953,-36.93
16.968,-36.09
16.984,-36.75
17.000,-39.16
17.015,-43.04
17.031,-47.72
17.046,-52.4
17.062,-56.41
17.078,-59.46
17.093,-61.79
17.109,-64.06
17.125,-67.15
17.140,-71.68
17.156,-77.68
17.171,-84.27
17.187,-89.89
17.203,-92.61
17.218,-90.84
17.234,-83.81
17.250,-71.86
17.265,-56.2
17.281,-38.54
17.296,-20.5
17.312,-3.24
17.328,12.65
17.343,26.87
17.359,39.15
17.375,49.02
17.390,55.87
17.406,59.18
17.421,58.99
17.437,55.97
17.453,51.35
17.468,46.38
17.484,41.93
17.500,38.19
17.515,34.8
17.531,31.28
17.546,27.47
17.562,23.68
17.578,20.62
17.593,19.02
17.609,19.39
17.625,21.77
17.640,25.9
17.656,31.24
17.671,37.15
17.687,42.88
17.703,47.61
17.718,50.5
17.734,50.94
17.750,48.68
17.765,43.93
17.781,37.3
17.796,29.6
17.812,21.58
17.828,13.88
17.843,6.93
17.859,1.02
17.875,-3.67
17.890,-7.07
17.906,-9.33
17.921,-10.7
17.937,-11.55
17.953,-12.23
17.968,-12.89
17.984,-13.53
18.000,-13.97
18.015,-13.96
18.031,-13.33
18.046,-12.0
18.062,-9.93
18.078,-7.16
18.093,-3.74
18.109,0.22
18.125,4.53
18.140,8.9
18.156,12.98
18.171,16.43
18.187,18.96
18.203,20.34
18.218,20.49
18.234,19.33
18.250,16.9
18.265,13.32
18.281,8.82
18.296,3.66
18.312,-1.86
18.328,-7.39
18.343,-12.57
18.359,-17.03
18.375,-20.47
18.390,-22.74
18.406,-23.91
18.421,-24.3
18.437,-24.36
18.453,-24.58
18.468,-25.36
18.484,-26.94
18.500,-29.34
18.515,-32.41
18.531,-35.87
18.546,-39.4
18.562,-42.76
18.578,-45.93
18.593,-49.16
18.609,-53.04
18.625,-58.26
18.640,-65.35
18.656,-74.27
18.671,-84.08
18.687,-93.02
18.703,-98.81
18.718,-99.33
18.734,-93.25
18.750,-80.6
18.765,-62.71
18.781,-41.86
18.796,-20.54
18.812,-0.81
18.828,16.08
18.843,29.69
18.859,40.11
18.875,47.65
18.890,52.67
18.906,55.56
18.921,56.88
18.937,57.33
18.953,57.72
18.968,58.75
18.984,60.78
19.000,63.76
19.015,67.21
19.031,70.46
19.046,72.83
19.062,73.88
19.078,73.46
19.093,71.74
19.109,68.99
19.125,65.49
19.140,61.34
19.156,56.55
19.171,51.12
19.187,45.3
19.203,39.71
19.218,35.2
19.234,32.63
19.250,32.39
19.265,34.12
19.281,36.68
19.296,38.39
19.312,37.59
19.328,33.11
19.343,24.63
19.359,12.63
19.375,-1.76
19.390,-17.15
19.406,-32.12
19.421,-45.4
19.437,-55.94
19.453,-63.03
19.468,-66.38
19.484,-66.24
19.500,-63.24
19.515,-58.29
19.531,-52.23
19.546,-45.62
19.562,-38.68
19.578,-31.4
19.593,-23.71
19.609,-15.69
19.625,-7.59
19.640,0.2
19.656,7.27
19.671,13.35
19.687,18.34
19.703,22.33
19.718,25.49
19.734,27.97
19.750,29.78
19.765,30.83
19.781,31.01
19.796,30.35
19.812,29.06
19.828,27.52
19.843,26.05
19.859,24.71
19.875,23.18
19.890,20.81
19.906,16.95
19.921,11.24
19.937,3.86
19.953,-4.48
19.968,-12.79
19.984,-20.14
20.000,-25.94
20.015,-30.11
20.031,-33.05
20.046,-35.39
20.062,-37.8
20.078,-40.73
20.093,-44.21
20.109,-47.89
20.125,-50.98
20.140,-52.54
20.156,-51.61
20.171,-47.55
20.187,-40.2
20.203,-29.93
20.218,-17.58
20.234,-4.25
20.250,8.94
20.265,21.0
20.281,31.21
20.296,39.18
20.312,44.76
20.328,48.08
20.343,49.46
20.359,49.39
20.375,48.43
20.390,47.09
20.406,45.78
20.421,44.79
20.437,44.25
20.453,44.21
20.468,44.65
20.484,45.55
20.500,46.87
20.515,48.57
20.531,50.62
20.546,52.94
20.562,55.38
20.578,57.65
20.593,59.37
20.609,60.05
20.625,59.13
20.640,56.19
20.656,51.02
20.671,43.82
20.687,35.12
20.703,25.74
20.718,16.42
20.734,7.66
20.750,-0.43
20.765,-8.11
20.781,-15.71
20.796,-23.35
20.812,-30.75
20.828,-37.11
20.843,-41.32
20.859,-42.2
20.875,-38.92
20.890,-31.17
20.906,-19.24
20.921,-3.98
20.937,13.47
20.953,31.93
20.968,50.46
20.984,68.45
21.000,85.56
21.015,101.6
21.031,116.41
21.046,129.71
21.062,141.33
21.078,151.19
21.093,159.53
21.109,166.82
21.125,173.62
21.140,180.44
21.156,187.59
21.171,195.18
21.187,203.01
21.203,210.48
21.218,216.42
21.234,219.2
21.250,216.94
21.265,208.24
21.281,192.85
21.296,171.93
21.312,147.79
21.328,123.04
21.343,99.82
21.359,79.52
21.375,62.93
21.390,50.56
21.406,42.61
21.421,38.52
21.437,36.3
21.453,32.52
21.468,22.96
21.484,3.89
21.500,-26.71
21.515,-68.4
21.531,-118.45
21.546,-172.36
21.562,-224.7
21.578,-269.85
21.593,-302.79
21.609,-319.94
21.625,-320.06
21.640,-304.69
21.656,-277.82
21.671,-244.71
21.687,-210.26
21.703,-177.74
21.718,-148.41
21.734,-122.05
21.750,-97.96
21.765,-75.81
21.781,-55.93
21.796,-38.89
21.812,-24.97
21.828,-13.64
21.843,-3.72
21.859,6.37
21.875,18.12
21.890,32.64
21.906,50.45
21.921,71.17
21.937,93.05
21.953,112.6
21.968,124.9
21.984,124.92
22.000,109.41
22.015,78.62
22.031,36.78
22.046,-9.24
22.062,-52.13
22.078,-86.46
22.093,-109.7
22.109,-121.84
22.125,-124.05
22.140,-117.61
22.156,-103.66
22.171,-83.75
22.187,-60.32
22.203,-36.69
22.218,-16.21
22.234,-1.12
22.250,8.15
22.265,12.89
22.281,15.21
22.296,17.03
22.312,19.25
22.328,21.79
22.343,23.85
22.359,24.64
22.375,23.75
22.390,21.41
22.406,18.31
22.421,15.3
22.437,13.05
22.453,11.81
22.468,11.34
22.484,11.12
22.500,10.61
22.515,9.5
22.531,7.94
22.546,6.46
22.562,5.66
22.578,6.0
22.593,7.46
22.609,9.52
22.625,11.28
22.640,11.83
22.656,10.6
22.671,7.56
22.687,3.25
22.703,-1.54
22.718,-6.01
22.734,-9.71
22.750,-12.64
22.765,-15.19
22.781,-17.88
22.796,-21.1
22.812,-24.95
22.828,-29.2
22.843,-33.42
22.859,-37.13
22.875,-39.8
22.890,-40.98
22.906,-40.22
22.921,-37.2
22.937,-31.87
22.953,-24.65
22.968,-16.41
22.984,-8.35
23.000,-1.71
23.015,2.54
23.031,3.86
23.046,2.12
23.062,-2.56
23.078,-10.08
23.093,-20.34
23.109,-33.03
23.125,-47.28
23.140,-61.48
23.156,-73.36
23.171,-80.52
23.187,-81.08
23.203,-74.42
23.218,-61.44
23.234,-44.29
23.250,-25.68
23.265,-8.07
23.281,6.97
23.296,18.92
23.312,28.08
23.328,35.11
23.343,40.78
23.359,45.69
23.375,50.38
23.390,55.19
23.406,60.14
23.421,64.89
23.437,68.69
23.453,70.73
23.468,70.53
23.484,68.26
23.500,64.78
23.515,61.25
23.531,58.67
23.546,57.47
23.562,57.52
23.578,58.41
23.593,59.83
23.609,61.67
23.625,64.03
23.640,66.84
23.656,69.83
23.671,72.54
23.687,74.5
23.703,75.55
23.718,75.72
23.734,75.23
23.750,74.26
23.765,72.92
23.781,71.29
23.796,69.51
23.812,67.67
23.828,65.66
23.843,62.99
23.859,58.78
23.875,52.06
23.890,42.15
23.906,29.02
23.921,13.4
23.937,-3.39
23.953,-19.74
23.968,-34.09
23.984,-45.19
24.000,-52.25
24.015,-55.12
24.031,-54.33
24.046,-50.98
24.062,-46.53
24.078,-42.41
24.093,-39.66
24.109,-38.74
24.125,-39.62
24.140,-42.04
24.156,-45.72
24.171,-50.44
24.187,-55.89
24.203,-61.5
24.218,-66.4
24.234,-69.67
24.250,-70.65
24.265,-69.23
24.281,-65.94
24.296,-61.61
24.312,-57.06
24.328,-52.75
24.343,-48.72
24.359,-44.79
24.375,-40.82
24.390,-36.92
24.406,-33.36
24.421,-30.5
24.437,-28.64
24.453,-27.93
24.468,-28.39
24.484,-29.96
24.500,-32.54
24.515,-35.9
24.531,-39.71
24.546,-43.48
24.562,-46.84
24.578,-49.55
24.593,-51.66
24.609,-53.44
24.625,-55.35
24.640,-57.82
24.656,-61.08
24.671,-65.06
24.687,-69.37
24.703,-73.21
24.718,-75.64
24.734,-75.65
24.750,-72.44
24.765,-65.67
24.781,-55.62
24.796,-43.13
24.812,-29.53
24.828,-16.26
24.843,-4.52
24.859,4.97
24.875,12.02
24.890,16.79
24.906,19.61
24.921,20.76
24.937,20.48
24.953,19.01
24.968,16.71
24.984,14.06
25.000,11.5
25.015,9.41
25.031,7.83
25.046,6.71
25.062,5.87
25.078,5.15
25.093,4.44
25.109,3.61
25.125,2.45
25.140,0.72
25.156,-1.78
25.171,-5.08
25.187,-9.09
25.203,-13.57
25.218,-18.39
25.234,-23.52
25.250,-29.08
25.265,-35.19
25.281,-41.85
25.296,-48.8
25.312,-55.53
25.328,-61.5
25.343,-66.22
25.359,-69.54
25.375,-71.61
25.390,-72.91
25.406,-74.02
25.421,-75.48
25.437,-77.58
25.453,-80.32
25.468,-83.43
25.484,-86.33
25.500,-88.27
25.515,-88.35
25.531,-85.7
25.546,-79.61
25.562,-69.79
25.578,-56.51
25.593,-40.67
25.609,-23.64
25.625,-6.99
25.640,7.86
25.656,19.97
25.671,28.95
25.687,34.95
25.703,38.35
25.718,39.61
25.734,39.1
25.750,37.16
25.765,34.27
25.781,31.26
25.796,29.19
25.812,29.08
25.828,31.61
25.843,36.79
25.859,43.92
25.875,51.91
25.890,59.54
25.906,65.85
25.921,70.26
25.937,72.58
25.953,72.84
25.968,71.21
25.984,67.99
26.000,63.59
26.015,58.6
26.031,53.69
26.046,49.51
26.062,46.54
26.078,44.96
26.093,44.63
26.109,45.14
26.125,46.02
26.140,46.88
26.156,47.56
26.171,48.16
26.187,48.91
26.203,50.03
26.218,51.57
26.234,53.44
26.250,55.44
26.265,57.38
26.281,59.13
26.296,60.57
26.312,61.56
26.328,61.89
26.343,61.48
26.359,60.38
26.375,58.95
26.390,57.63
26.406,56.78
26.421,56.4
26.437,56.06
26.453,55.07
26.468,52.77
26.484,48.79
26.500,43.19
26.515,36.43
26.531,29.04
26.546,21.54
26.562,14.25
26.578,7.47
26.593,1.43
26.609,-3.61
26.625,-7.38
26.640,-9.77
26.656,-10.78
26.671,-10.53
26.687,-9.11
26.703,-6.44
26.718,-2.43
26.734,2.92
26.750,9.35
26.765,16.25
26.781,22.82
26.796,28.4
26.812,32.71
26.828,35.95
26.843,38.78
26.859,41.9
26.875,45.71
26.890,50.03
26.906,54.11
26.921,56.9
26.937,57.42
26.953,55.02
26.968,49.48
26.984,40.79
27.000,29.01
27.015,14.17
27.031,-3.38
27.046,-22.6
27.062,-41.59
27.078,-57.89
27.093,-69.39
27.109,-75.09
27.125,-75.25
27.140,-70.77
27.156,-62.29
27.171,-49.63
27.187,-32.39
27.203,-11.17
27.218,11.37
27.234,30.53
27.250,41.07
27.265,39.39
27.281,25.25
27.296,1.92
27.312,-25.17
27.328,-50.68
27.343,-71.01
27.359,-84.85
27.375,-92.6
27.390,-95.22
27.406,-93.56
27.421,-88.35
27.437,-80.57
27.453,-71.8
27.468,-63.99
27.484,-58.93
27.500,-57.5
27.515,-59.36
27.531,-63.32
27.546,-68.0
27.562,-72.73
27.578,-77.87
27.593,-84.68
27.609,-94.75
27.625,-109.32
27.640,-128.93
27.656,-153.06
27.671,-179.86
27.687,-205.93
27.703,-226.82
27.718,-238.32
27.734,-238.35
27.750,-228.33
27.765,-213.01
27.781,-198.53
27.796,-189.54
27.812,-186.94
27.828,-187.62
27.843,-186.22
27.859,-178.02
27.875,-161.11
27.890,-136.71
27.906,-108.0
27.921,-78.1
27.937,-48.84
27.953,-20.71
27.968,6.24
27.984,31.45
28.000,53.62
28.015,71.11
28.031,82.7
28.046,88.21
28.062,88.62
28.078,85.78
28.093,81.77
28.109,78.19
28.125,75.74
28.140,74.18
28.156,72.71
28.171,70.66
28.187,68.01
28.203,65.59
28.218,64.66
28.234,66.36
28.250,70.97
28.265,77.64
28.281,84.62
28.296,89.95
28.312,92.25
28.328,91.34
28.343,88.12
28.359,84.11
28.375,80.6
28.390,78.08
28.406,76.08
28.421,73.53
28.437,69.33
28.453,62.91
28.468,54.5
28.484,45.05
28.500,35.99
28.515,28.88
28.531,25.18
28.546,26.02
28.562,32.05
28.578,43.22
28.593,58.68
28.609,76.8
28.625,95.36
28.640,111.92
28.656,124.21
28.671,130.45
28.687,129.59
28.703,121.41
28.718,106.6
28.734,86.72
28.750,64.11
28.765,41.52
28.781,21.54
28.796,5.99
28.812,-4.6
28.828,-10.91
28.843,-14.48
28.859,-16.98
28.875,-19.62
28.890,-22.84
28.906,-26.55
28.921,-30.47
28.937,-34.53
28.953,-38.76
28.968,-43.07
28.984,-46.81
29.000,-48.71
29.015,-47.26
29.031,-41.37
29.046,-30.96
29.062,-17.19
29.078,-2.13
29.093,11.93
29.109,23.17
29.125,30.64
29.140,34.18
29.156,34.15
29.171,31.05
29.187,25.38
29.203,17.81
29.218,9.3
29.234,1.2
29.250,-5.03
29.265,-8.2
29.281,-7.85
29.296,-4.27
29.312,1.62
29.328,8.67
29.343,15.79
29.359,22.25
29.375,27.64
29.390,31.83
29.406,34.84
29.421,36.79
29.437,37.83
29.453,38.15
29.468,37.95
29.484,37.36
29.500,36.4
29.515,35.05
29.531,33.23
29.546,30.92
29.562,28.15
29.578,25.11
29.593,22.06
29.609,19.27
29.625,16.94
29.640,15.15
29.656,13.86
29.671,12.94
29.687,12.27
29.703,11.75
29.718,11.26
29.734,10.67
29.750,9.82
29.765,8.6
29.781,6.95
29.796,4.99
29.812,2.85
29.828,0.61
29.843,-1.76
29.859,-4.38
29.875,-7.23
29.890,-9.94
29.906,-11.74
29.921,-11.6
29.937,-8.55
29.953,-2.03
29.968,7.82
29.984,20.24
30.000,34.0
30.015,47.73
30.031,60.12
30.046,70.18
30.062,77.24
30.078,81.1
30.093,81.96
30.109,80.4
30.125,77.2
30.140,73.11
30.156,68.62
30.171,63.92
30.187,58.91
30.203,53.46
30.218,47.52
30.234,41.31
30.250,35.18
30.265,29.49
30.281,24.42
30.296,19.8
30.312,15.21
30.328,10.14
30.343,4.12
30.359,-2.98
30.375,-10.93
30.390,-19.21
30.406,-27.12
30.421,-34.03
30.437,-39.59
30.453,-43.79
30.468,-46.97
30.484,-49.67
30.500,-52.55
30.515,-56.14
30.531,-60.66
30.546,-65.8
30.562,-70.62
30.578,-73.61
30.593,-73.02
30.609,-67.51
30.625,-56.81
30.640,-42.05
30.656,-25.55
30.671,-10.12
30.687,2.04
30.703,9.98
30.718,14.22
30.734,16.25
30.750,17.84
30.765,20.39
30.781,24.74
30.796,31.06
30.812,39.02
30.828,47.92
30.843,56.76
30.859,64.48
30.875,70.26
30.890,73.72
30.906,74.98
30.921,74.38
30.937,72.17
30.953,68.2
30.968,62.14
30.984,53.89
31.000,43.87
31.015,33.05
31.031,22.54
31.046,13.08
31.062,4.7
31.078,-3.08
31.093,-10.75
31.109,-18.33
31.125,-25.25
31.140,-30.75
31.156,-34.34
31.171,-36.25
31.187,-37.3
31.203,-38.52
31.218,-40.51
31.234,-43.12
31.250,-45.42
31.265,-46.14
31.281,-44.12
31.296,-38.8
31.312,-30.32
31.328,-19.42
31.343,-7.14
31.359,5.51
31.375,17.79
31.390,29.29
31.406,39.86
31.421,49.42
31.437,57.8
31.453,64.75
31.468,69.99
31.484,73.38
31.500,75.0
31.515,75.15
31.531,74.24
31.546,72.59
31.562,70.35
31.578,67.5
31.593,63.93
31.609,59.59
31.625,54.6
31.640,49.17
31.656,43.6
31.671,38.11
31.687,32.81
31.703,27.67
31.718,22.56
31.734,17.29
31.750,11.73
31.765,5.83
31.781,-0.31
31.796,-6.42
31.812,-12.08
31.828,-16.86
31.843,-20.31
31.859,-22.13
31.875,-22.27
31.890,-20.97
31.906,-18.74
31.921,-16.28
31.937,-14.31
31.953,-13.32
31.968,-13.31
31.984,-13.67
32.000,-13.28
32.015,-10.8
32.031,-5.13
32.046,4.2
32.062,16.89
32.078,32.03
32.093,48.45
32.109,65.04
32.125,81.0
32.140,95.82
32.156,109.2
32.171,121.03
32.187,131.3
32.203,140.22
32.218,148.19
32.234,155.75
32.250,163.44
32.265,171.69
32.281,180.64
32.296,190.12
32.312,199.68
32.328,208.74
32.343,216.75
32.359,223.34
32.375,228.33
32.390,231.73
32.406,233.59
32.421,233.83
32.437,232.23
32.453,228.48
32.468,222.22
32.484,213.17
32.500,201.11
32.515,185.95
32.531,167.63
32.546,146.25
32.562,122.08
32.578,95.61
32.593,67.46
32.609,38.27
32.625,8.62
32.640,-21.06
32.656,-50.44
32.671,-79.31
32.687,-107.55
32.703,-135.04
32.718,-161.77
32.734,-187.76
32.750,-213.22
32.765,-238.62
32.781,-264.71
32.796,-292.38
32.812,-322.12
32.828,-353.52
32.843,-384.82
32.859,-413.13
32.875,-435.34
32.890,-449.06
32.906,-453.54
32.921,-449.82
32.937,-440.06
32.953,-426.5
32.968,-410.86
32.984,-394.04
33.000,-376.41
33.015,-358.23
33.031,-339.68
33.046,-320.54
33.062,-299.91
33.078,-276.43
33.093,-249.19
33.109,-218.69
33.125,-187.22
33.140,-158.21
33.156,-134.86
33.171,-118.91
33.187,-109.98
33.203,-105.91
33.218,-103.69
33.234,-100.38
33.250,-93.72
33.265,-82.43
33.281,-66.27
33.296,-46.12
33.312,-23.83
33.328,-1.89
33.343,17.35
33.359,32.44
33.375,43.2
33.390,50.53
33.406,55.78
33.421,60.07
33.437,64.04
33.453,68.12
33.468,72.73
33.484,78.19
33.500,84.46
33.515,90.86
33.531,96.1
33.546,98.78
33.562,97.96
33.578,93.7
33.593,86.96
33.609,79.21
33.625,71.8
33.640,65.48
33.656,60.37
33.671,56.15
33.687,52.43
33.703,48.92
33.718,45.45
33.734,41.97
33.750,38.4
33.765,34.63
33.781,30.5
33.796,25.87
33.812,20.65
33.828,14.86
33.843,8.65
33.859,2.3
33.875,-3.8
33.890,-9.34
33.906,-14.14
33.921,-18.22
33.937,-21.76
33.953,-24.97
33.968,-27.92
33.984,-30.49
34.000,-32.36
34.015,-33.11
34.031,-32.32
34.046,-29.62
34.062,-24.74
34.078,-17.54
34.093,-8.13
34.109,3.07
34.125,15.33
34.140,27.79
34.156,39.62
34.171,50.19
34.187,59.17
34.203,66.43
34.218,71.94
34.234,75.65
34.250,77.57
34.265,77.8
34.281,76.69
34.296,74.82
34.312,72.84
34.328,71.27
34.343,70.28
34.359,69.58
34.375,68.57
34.390,66.55
34.406,62.98
34.421,57.68
34.437,50.83
34.453,42.86
34.468,34.35
34.484,25.83
34.500,17.71
34.515,10.21
34.531,3.42
34.546,-2.73
34.562,-8.44
34.578,-13.99
34.593,-19.71
34.609,-25.86
34.625,-32.54
34.640,-39.62
34.656,-46.68
34.671,-53.03
34.687,-57.84
34.703,-60.36
34.718,-60.08
34.734,-57.05
34.750,-51.73
34.765,-44.99
34.781,-37.62
34.796,-30.02
34.812,-22.02
34.828,-13.03
34.843,-2.57
34.859,9.27
34.875,21.53
34.890,32.65
34.906,41.11
34.921,46.12
34.937,47.92
34.953,47.65
34.968,46.69
34.984,46.03
35.000,45.96
35.015,46.07
35.031,45.57
35.046,43.63
35.062,39.57
35.078,33.02
35.093,24.03
35.109,13.27
35.125,1.99
35.140,-8.23
35.156,-16.07
35.171,-20.97
35.187,-23.42
35.203,-24.82
35.218,-26.88
35.234,-31.09
35.250,-38.27
35.265,-48.54
35.281,-61.29
35.296,-75.34
35.312,-89.11
35.328,-101.04
35.343,-110.35
35.359,-117.6
35.375,-124.8
35.390,-134.32
35.406,-147.36
35.421,-162.27
35.437,-174.42
35.453,-177.7
35.468,-167.08
35.484,-140.78
35.500,-100.66
35.515,-50.9
35.531,3.96
35.546,60.06
35.562,113.85
35.578,160.93
35.593,195.54
35.609,211.95
35.625,207.03
35.640,182.68
35.656,145.9
35.671,106.26
35.687,72.04
35.703,47.35
35.718,32.07
35.734,24.43
35.750,23.94
35.765,32.32
35.781,51.87
35.796,82.32
35.812,118.73
35.828,152.29
35.843,173.63
35.859,177.08
35.875,163.09
35.890,137.81
35.906,109.8
35.921,86.25
35.937,70.53
35.953,62.06
35.968,58.13
35.984,56.09
36.000,54.67
36.015,54.0
36.031,54.73
36.046,57.13
36.062,60.68
36.078,64.43
36.093,67.54
36.109,69.85
36.125,71.97
36.140,74.78
36.156,78.8
36.171,83.6
36.187,87.91
36.203,90.16
36.218,89.32
36.234,85.35
36.250,79.26
36.265,72.49
36.281,66.13
36.296,60.55
36.312,55.21
36.328,48.91
36.343,40.01
36.359,26.88
36.375,8.63
36.390,-13.98
36.406,-38.0
36.421,-58.49
36.437,-70.04
36.453,-69.1
36.468,-55.97
36.484,-35.39
36.500,-14.98
36.515,-2.22
36.531,-1.51
36.546,-12.67
36.562,-31.82
36.578,-53.65
36.593,-74.02
36.609,-91.16
36.625,-105.45
36.640,-118.18
36.656,-130.3
36.671,-142.0
36.687,-152.99
36.703,-163.13
36.718,-172.6
36.734,-181.66
36.750,-190.0
36.765,-196.36
36.781,-198.68
36.796,-194.91
36.812,-183.9
36.828,-166.09
36.843,-143.52
36.859,-119.15
36.875,-95.9
36.890,-75.67
36.906,-59.05
36.921,-45.49
36.937,-33.83
36.953,-22.98
36.968,-12.32
36.984,-1.73
37.000,8.55
37.015,18.14
37.031,26.76
37.046,34.31
37.062,40.87
37.078,46.74
37.093,52.52
37.109,59.0
37.125,66.95
37.140,76.88
37.156,88.73
37.171,101.85
37.187,115.15
37.203,127.45
37.218,137.88
37.234,146.07
37.250,152.16
37.265,156.63
37.281,160.03
37.296,162.63
37.312,164.17
37.328,163.73
37.343,159.89
37.359,151.16
37.375,136.57
37.390,116.26
37.406,91.78
37.421,65.84
37.437,41.72
37.453,22.32
37.468,9.37
37.484,3.06
37.500,2.21
37.515,4.7
37.531,8.25
37.546,10.83
37.562,11.05
37.578,8.22
37.593,2.2
37.609,-6.74
37.625,-18.05
37.640,-31.02
37.656,-44.79
37.671,-58.51
37.687,-71.4
37.703,-82.94
37.718,-92.99
37.734,-101.65
37.750,-109.14
37.765,-115.43
37.781,-120.12
37.796,-122.5
37.812,-121.83
37.828,-117.71
37.843,-110.29
37.859,-100.26
37.875,-88.54
37.890,-75.96
37.906,-63.09
37.921,-50.29
37.937,-37.8
37.953,-25.95
37.968,-15.03
37.984,-5.3
38.000,3.24
38.015,10.86
38.031,17.9
38.046,24.69
38.062,31.31
38.078,37.7
38.093,43.78
38.109,49.67
38.125,55.64
38.140,61.93
38.156,68.48
38.171,74.66
38.187,79.39
38.203,81.48
38.218,79.99
38.234,74.65
38.250,66.04
38.265,55.39
38.281,44.23
38.296,33.92
38.312,25.29
38.328,18.54
38.343,13.34
38.359,9.15
38.375,5.42
38.390,1.75
38.406,-2.17
38.421,-6.68
38.437,-12.2
38.453,-19.2
38.468,-27.91
38.484,-38.19
38.500,-49.38
38.515,-60.59
38.531,-70.99
38.546,-80.11
38.562,-87.91
38.578,-94.6
38.593,-100.3
38.609,-104.72
38.625,-107.11
38.640,-106.51
38.656,-102.18
38.671,-94.0
38.687,-82.71
38.703,-69.79
38.718,-57.02
38.734,-46.0
38.750,-37.75
38.765,-32.5
38.781,-29.84
38.796,-28.92
38.812,-28.78
38.828,-28.56
38.843,-27.68
38.859,-25.86
38.875,-23.15
38.890,-19.92
38.906,-16.74
38.921,-14.3
38.937,-13.06
38.953,-13.05
38.968,-13.73
38.984,-14.06
39.000,-12.81
39.015,-8.98
39.031,-2.13
39.046,7.51
39.062,19.22
39.078,32.03
39.093,45.1
39.109,57.86
39.125,70.06
39.140,81.61
39.156,92.44
39.171,102.37
39.187,111.2
39.203,118.82
39.218,125.37
39.234,131.41
39.250,137.8
39.265,145.53
39.281,155.32
39.296,167.39
39.312,181.18
39.328,195.46
39.343,208.46
39.359,218.19
39.375,222.78
39.390,220.88
39.406,212.02
39.421,196.76
39.437,176.59
39.453,153.53
39.468,129.61
39.484,106.4
39.500,84.83
39.515,65.32
39.531,48.03
39.546,32.99
39.562,20.07
39.578,8.74
39.593,-2.02
39.609,-13.55
39.625,-27.17
39.640,-43.68
39.656,-62.95
39.671,-83.78
39.687,-103.98
39.703,-120.87
39.718,-132.0
39.734,-135.94
39.750,-132.9
39.765,-124.76
39.781,-114.42
39.796,-104.77
39.812,-97.59
39.828,-93.08
39.843,-90.09
39.859,-87.01
39.875,-82.8
39.890,-77.65
39.906,-72.83
39.921,-69.96
39.937,-70.1
39.953,-73.15
39.968,-77.78
39.984,-82.01
40.000,-83.86
40.015,-81.95
40.031,-75.84
40.046,-66.18
40.062,-54.62
40.078,-43.6
40.093,-35.71
40.109,-33.0
40.125,-36.09
40.140,-43.77
40.156,-53.25
40.171,-61.15
40.187,-64.66
40.203,-62.55
40.218,-55.37
40.234,-44.88
40.250,-33.11
40.265,-21.62
40.281,-11.38
40.296,-3.04
40.312,2.71
40.328,5.12
40.343,3.62
40.359,-1.7
40.375,-9.85
40.390,-19.14
40.406,-27.6
40.421,-33.62
40.437,-36.42
40.453,-36.18
40.468,-33.72
40.484,-30.08
40.500,-26.19
40.515,-22.57
40.531,-19.43
40.546,-16.8
40.562,-14.77
40.578,-13.45
40.593,-12.93
40.609,-13.06
40.625,-13.36
40.640,-13.17
40.656,-11.91
40.671,-9.43
40.687,-6.2
40.703,-3.24
40.718,-1.69
40.734,-2.34
40.750,-5.23
40.765,-9.61
40.781,-14.27
40.796,-18.04
40.812,-20.25
40.828,-20.88
40.843,-20.52
40.859,-19.96
40.875,-19.92
40.890,-20.78
40.906,-22.47
40.921,-24.55
40.937,-26.32
40.953,-27.06
40.968,-26.31
40.984,-24.14
41.000,-21.27
41.015,-18.88
41.031,-18.16
41.046,-19.69
41.062,-23.1
41.078,-27.06
41.093,-29.82
41.109,-29.77
41.125,-26.04
41.140,-18.58
41.156,-7.97
41.171,4.93
41.187,19.27
41.203,34.16
41.218,48.72
41.234,62.04
41.250,73.47
41.265,82.75
41.281,90.01
41.296,95.4
41.312,98.59
41.328,98.56
41.343,93.79
41.359,82.98
41.375,65.73
41.390,42.84
41.406,16.06
41.421,-12.55
41.437,-41.21
41.453,-68.65
41.468,-93.94
41.484,-116.14
41.500,-134.22
41.515,-147.42
41.531,-155.54
41.546,-159.27
41.562,-159.97
41.578,-159.07
41.593,-157.58
41.609,-155.73
41.625,-153.18
41.640,-149.37
41.656,-144.05
41.671,-137.38
41.687,-129.97
41.703,-122.58
41.718,-115.84
41.734,-110.02
41.750,-104.93
41.765,-99.99
41.781,-94.42
41.796,-87.53
41.812,-78.88
41.828,-68.54
41.843,-56.93
41.859,-44.72
41.875,-32.51
41.890,-20.77
41.906,-9.79
41.921,0.27
41.937,9.23
41.953,16.82
41.968,22.7
41.984,26.63
42.000,28.56
42.015,28.74
42.031,27.71
42.046,26.15
42.062,24.68
42.078,23.71
42.093,23.39
42.109,23.65
42.125,24.45
42.140,25.85
42.156,27.99
42.171,30.87
42.187,34.16
42.203,37.16
42.218,38.93
42.234,38.72
42.250,36.25
42.265,31.83
42.281,26.23
42.296,20.32
42.312,14.71
42.328,9.5
42.343,4.37
42.359,-1.27
42.375,-7.94
42.390,-15.76
42.406,-24.36
42.421,-32.77
42.437,-39.72
42.453,-43.88
42.468,-44.32
42.484,-40.63
42.500,-33.08
42.515,-22.41
42.531,-9.68
42.546,4.01
42.562,17.64
42.578,30.33
42.593,41.38
42.609,50.28
42.625,56.77
42.640,60.97
42.656,63.31
42.671,64.49
42.687,65.22
42.703,66.09
42.718,67.37
42.734,69.1
42.750,71.19
42.765,73.55
42.781,76.19
42.796,79.12
42.812,82.28
42.828,85.4
42.843,88.04
42.859,89.72
42.875,90.12
42.890,89.24
42.906,87.39
42.921,85.08
42.937,82.76
42.953,80.65
42.968,78.7
42.984,76.69
43.000,74.42
43.015,71.73
43.031,68.59
43.046,64.86
43.062,60.23
43.078,54.33
43.093,47.03
43.109,38.73
43.125,30.6
43.140,24.19
43.156,20.94
43.171,21.44
43.187,25.11
43.203,30.32
43.218,34.93
43.234,37.16
43.250,36.11
43.265,31.91
43.281,25.47
43.296,17.95
43.312,10.38
43.328,3.44
43.343,-2.46
43.359,-7.05
43.375,-10.04
43.390,-11.23
43.406,-10.58
43.421,-8.38
43.437,-5.19
43.453,-1.84
43.468,0.9
43.484,2.42
43.500,2.41
43.515,0.9
43.531,-1.85
43.546,-5.47
43.562,-9.6
43.578,-13.97
43.593,-18.46
43.609,-23.05
43.625,-27.75
43.640,-32.51
43.656,-37.16
43.671,-41.54
43.687,-45.59
43.703,-49.49
43.718,-53.81
43.734,-59.27
43.750,-66.48
43.765,-75.49
43.781,-85.5
43.796,-94.98
43.812,-101.99
43.828,-104.85
43.843,-102.65
43.859,-95.51
43.875,-84.41
43.890,-70.8
43.906,-56.21
43.921,-42.0
43.937,-29.33
43.953,-19.24
43.968,-12.62
43.984,-10.06
44.000,-11.7
44.015,-17.04
44.031,-25.15
44.046,-34.9
44.062,-45.22
44.078,-55.31
44.093,-64.66
44.109,-72.97
44.125,-79.95
44.140,-85.39
44.156,-89.05
44.171,-90.77
44.187,-90.45
44.203,-88.16
44.218,-84.17
44.234,-78.94
44.250,-73.08
44.265,-67.22
44.281,-61.8
44.296,-56.95
44.312,-52.52
44.328,-48.15
44.343,-43.55
44.359,-38.64
44.375,-33.58
44.390,-28.81
44.406,-24.84
44.421,-22.2
44.437,-21.24
44.453,-22.12
44.468,-24.6
44.484,-28.02
44.500,-31.33
44.515,-33.2
44.531,-32.37
44.546,-27.94
44.562,-19.72
44.578,-8.23
44.593,5.31
44.609,19.37
44.625,32.48
44.640,43.52
44.656,51.88
44.671,57.5
44.687,60.72
44.703,62.12
44.718,62.39
44.734,62.13
44.750,61.81
44.765,61.69
44.781,61.92
44.796,62.45
44.812,63.24
44.828,64.18
44.843,65.19
44.859,66.15
44.875,66.95
44.890,67.46
44.906,67.62
44.921,67.41
44.937,66.87
44.953,66.08
44.968,65.06
44.984,63.72
45.000,61.96
45.015,59.67
45.031,56.87
45.046,53.66
45.062,50.2
45.078,46.66
45.093,43.07
45.109,39.33
45.125,35.26
45.140,30.82
45.156,26.22
45.171,22.09
45.187,19.39
45.203,19.27
45.218,22.64
45.234,30.01
45.250,41.29
45.265,55.97
45.281,73.42
45.296,93.02
45.312,114.17
45.328,135.93
45.343,156.69
45.359,174.02
45.375,185.11
45.390,187.61
45.406,180.58
45.421,165.03
45.437,143.75
45.453,120.35
45.468,98.1
45.484,78.98
45.500,63.47
45.515,50.92
45.531,40.37
45.546,31.14
45.562,23.04
45.578,16.12
45.593,10.29
45.609,5.04
45.625,-0.46
45.640,-6.92
45.656,-14.71
45.671,-23.56
45.687,-32.76
45.703,-41.44
45.718,-48.85
45.734,-54.54
45.750,-58.29
45.765,-60.14
45.781,-60.33
45.796,-59.44
45.812,-58.33
45.828,-58.11
45.843,-59.78
45.859,-63.81
45.875,-69.86
45.890,-76.7
45.906,-82.54
45.921,-85.61
45.937,-84.63
45.953,-79.2
45.968,-69.82
45.984,-57.65
46.000,-44.05
46.015,-30.33
46.031,-17.43
46.046,-5.91
46.062,3.99
46.078,12.2
46.093,18.71
46.109,23.52
46.125,26.76
46.140,28.7
46.156,29.85
46.171,30.8
46.187,32.06
46.203,33.93
46.218,36.35
46.234,39.06
46.250,41.85
46.265,44.7
46.281,47.84
46.296,51.49
46.312,55.63
46.328,59.72
46.343,62.85
46.359,63.98
46.375,62.47
46.390,58.32
46.406,52.24
46.421,45.32
46.437,38.59
46.453,32.65
46.468,27.52
46.484,22.72
46.500,17.58
46.515,11.49
46.531,4.19
46.546,-4.04
46.562,-12.41
46.578,-19.68
46.593,-24.51
46.609,-25.88
46.625,-23.39
46.640,-17.53
46.656,-9.43
46.671,-0.49
46.687,8.01
46.703,15.23
46.718,20.7
46.734,24.17
46.750,25.44
46.765,24.34
46.781,20.85
46.796,15.26
46.812,8.18
46.828,0.41
46.843,-7.26
46.859,-14.31
46.875,-20.48
46.890,-25.72
46.906,-29.92
46.921,-32.84
46.937,-34.07
46.953,-33.25
46.968,-30.31
46.984,-25.7
47.000,-20.34
47.015,-15.51
47.031,-12.42
47.046,-11.88
47.062,-14.08
47.078,-18.63
47.093,-24.83
47.109,-31.94
47.125,-39.52
47.140,-47.46
47.156,-55.91
47.171,-65.05
47.187,-74.91
47.203,-85.38
47.218,-96.1
47.234,-106.65
47.250,-116.35
47.265,-124.28
47.281,-129.25
47.296,-129.93
47.312,-125.31
47.328,-115.02
47.343,-99.65
47.359,-80.7
47.375,-60.17
47.390,-40.06
47.406,-21.86
47.421,-6.44
47.437,5.97
47.453,15.49
47.468,22.46
47.484,27.3
47.500,30.5
47.515,32.66
47.531,34.35
47.546,36.07
47.562,38.07
47.578,40.4
47.593,42.88
47.609,45.3
47.625,47.53
47.640,49.58
47.656,51.6
47.671,53.73
47.687,56.0
47.703,58.2
47.718,59.93
47.734,60.72
47.750,60.22
47.765,58.37
47.781,55.48
47.796,52.13
47.812,48.98
47.828,46.44
47.843,44.47
47.859,42.51
47.875,39.71
47.890,35.44
47.906,29.76
47.921,23.69
47.937,19.07
47.953,17.99
47.968,22.08
47.984,31.89
48.000,46.69
48.015,64.8
48.031,84.07
48.046,102.5
48.062,118.52
48.078,131.1
48.093,139.67
48.109,144.02
48.125,144.31
48.140,141.09
48.156,135.33
48.171,128.25
48.187,121.0
48.203,114.5
48.218,109.13
48.234,104.72
48.250,100.7
48.265,96.22
48.281,90.44
48.296,82.71
48.312,72.66
48.328,60.32
48.343,46.02
48.359,30.34
48.375,13.89
48.390,-2.86
48.406,-19.73
48.421,-36.74
48.437,-53.94
48.453,-71.21
48.468,-88.09
48.484,-103.82
48.500,-117.64
48.515,-129.09
48.531,-138.21
48.546,-145.65
48.562,-152.39
48.578,-159.45
48.593,-167.38
48.609,-176.03
48.625,-184.28
48.640,-190.21
48.656,-191.46
48.671,-185.89
48.687,-172.29
48.703,-150.87
48.718,-123.32
48.734,-92.4
48.750,-61.25
48.765,-32.59
48.781,-8.21
48.796,11.05
48.812,25.11
48.828,34.34
48.843,39.31
48.859,40.78
48.875,39.73
48.890,37.38
48.906,35.13
48.921,34.36
48.937,36.2
48.953,41.28
48.968,49.61
48.984,60.49
49.000,72.69
49.015,84.64
49.031,94.81
49.046,102.05
49.062,105.69
49.078,105.64
49.093,102.18
49.109,95.81
49.125,87.11
49.140,76.72
49.156,65.4
49.171,54.01
49.187,43.44
49.203,34.43
49.218,27.36
49.234,22.08
49.250,17.99
49.265,14.13
49.281,9.52
49.296,3.4
49.312,-4.54
49.328,-14.1
49.343,-24.57
49.359,-34.88
49.375,-43.87
49.390,-50.56
49.406,-54.41
49.421,-55.56
49.437,-54.66
49.453,-52.68
49.468,-50.56
49.484,-48.88
49.500,-47.81
49.515,-47.23
49.531,-46.95
49.546,-46.88
49.562,-47.06
49.578,-47.59
49.593,-48.44
49.609,-49.41
49.625,-50.3
49.640,-50.96
49.656,-51.43
49.671,-51.83
49.687,-52.26
49.703,-52.74
49.718,-53.16
49.734,-53.39
49.750,-53.44
49.765,-53.44
49.781,-53.64
49.796,-54.33
49.812,-55.74
49.828,-57.95
49.843,-60.92
49.859,-64.4
49.875,-67.95
49.890,-70.95
49.906,-72.74
49.921,-72.87
49.937,-71.33
49.953,-68.57
49.968,-65.49
49.984,-63.04
50.000,-61.81
50.015,-61.66
50.031,-61.71
50.046,-60.55
50.062,-56.73
50.078,-49.29
50.093,-38.11
50.109,-23.94
50.125,-8.15
50.140,7.67
50.156,22.14
50.171,34.39
50.187,44.13
50.203,51.44
50.218,56.66
50.234,60.07
50.250,61.85
50.265,62.14
50.281,61.16
50.296,59.29
50.312,57.07
50.328,55.13
50.343,53.85
50.359,53.31
50.375,53.19
50.390,52.95
50.406,52.06
50.421,50.23
50.437,47.41
50.453,43.76
50.468,39.41
50.484,34.39
50.500,28.54
50.515,21.73
50.531,13.96
50.546,5.46
50.562,-3.31
50.578,-11.88
50.593,-19.84
50.609,-27.02
50.625,-33.35
50.640,-38.74
50.656,-42.86
50.671,-45.15
50.687,-45.02
50.703,-42.07
50.718,-36.39
50.734,-28.66
50.750,-19.98
50.765,-11.6
50.781,-4.47
50.796,0.88
50.812,4.45
50.828,6.58
50.843,7.71
50.859,8.16
50.875,8.12
50.890,7.65
50.906,6.79
50.921,5.67
50.937,4.49
50.953,3.43
50.968,2.61
50.984,2.0
51.000,1.49
51.015,0.9
51.031,0.11
51.046,-0.95
51.062,-2.3
51.078,-3.95
51.093,-5.91
51.109,-8.22
51.125,-10.88
51.140,-13.9
51.156,-17.28
51.171,-21.06
51.187,-25.33
51.203,-30.17
51.218,-35.61
51.234,-41.6
51.250,-48.01
51.265,-54.56
51.281,-60.93
51.296,-66.81
51.312,-71.95
51.328,-76.34
51.343,-80.28
51.359,-84.4
51.375,-89.42
51.390,-95.79
51.406,-103.32
51.421,-110.85
51.437,-116.46
51.453,-117.9
51.468,-113.39
51.484,-102.24
51.500,-85.21
51.515,-64.17
51.531,-41.54
51.546,-19.61
51.562,0.03
51.578,16.55
51.593,29.78
51.609,39.79
51.625,46.68
51.640,50.65
51.656,52.07
51.671,51.64
51.687,50.37
51.703,49.41
51.718,49.67
51.734,51.57
51.750,54.92
51.765,59.08
51.781,63.29
51.796,67.03
51.812,70.18
51.828,73.0
51.843,75.95
51.859,79.31
51.875,83.04
51.890,86.73
51.906,89.76
51.921,91.56
51.937,91.89
51.953,90.94
51.968,89.34
51.984,87.91
52.000,87.34
52.015,88.01
52.031,89.85
52.046,92.37
52.062,94.95
52.078,97.02
52.093,98.43
52.109,99.58
52.125,101.52
52.140,105.87
52.156,114.39
52.171,128.56
52.187,148.82
52.203,174.15
52.218,201.94
52.234,228.44
52.250,249.77
52.265,263.03
52.281,267.16
52.296,263.25
52.312,253.86
52.328,242.13
52.343,230.65
52.359,220.91
52.375,213.11
52.390,206.36
52.406,199.06
52.421,189.33
52.437,175.24
52.453,155.38
52.468,129.17
52.484,97.1
52.500,60.67
52.515,21.84
52.531,-17.77
52.546,-57.49
52.562,-97.71
52.578,-139.19
52.593,-181.94
52.609,-224.36
52.625,-263.07
52.640,-293.9
52.656,-313.27
52.671,-319.74
52.687,-314.53
52.703,-301.16
52.718,-284.11
52.734,-267.43
52.750,-253.78
52.765,-244.19
52.781,-238.37
52.796,-235.23
52.812,-233.08
52.828,-229.89
52.843,-223.34
52.859,-211.35
52.875,-192.78
52.890,-167.98
52.906,-138.88
52.921,-108.48
52.937,-80.02
52.953,-55.93
52.968,-37.36
52.984,-24.17
53.000,-15.36
53.015,-9.66
53.031,-5.89
53.046,-3.23
53.062,-1.12
53.078,0.68
53.093,2.21
53.109,3.41
53.125,4.19
53.140,4.61
53.156,4.93
53.171,5.67
53.187,7.35
53.203,10.27
53.218,14.24
53.234,18.69
53.250,22.78
53.265,25.71
53.281,27.11
53.296,26.97
53.312,25.74
53.328,24.01
53.343,22.31
53.359,20.85
53.375,19.48
53.390,17.81
53.406,15.32
53.421,11.59
53.437,6.44
53.453,0.05
53.468,-7.02
53.484,-13.8
53.500,-18.93
53.515,-20.98
53.531,-18.76
53.546,-11.81
53.562,-0.55
53.578,13.68
53.593,29.05
53.609,43.74
53.625,56.39
53.640,66.28
53.656,73.24
53.671,77.49
53.687,79.41
53.703,79.52
53.718,78.46
53.734,76.93
53.750,75.62
53.765,74.97
53.781,75.19
53.796,76.22
53.812,77.98
53.828,80.32
53.843,83.13
53.859,86.18
53.875,88.96
53.890,90.77
53.906,90.82
53.921,88.51
53.937,83.61
53.953,76.36
53.968,67.39
53.984,57.46
54.000,47.28
54.015,37.31
54.031,27.75
54.046,18.49
54.062,9.29
54.078,-0.17
54.093,-10.15
54.109,-20.69
54.125,-31.6
54.140,-42.28
54.156,-51.77
54.171,-58.79
54.187,-62.09
54.203,-60.75
54.218,-54.61
54.234,-44.41
54.250,-31.57
54.265,-17.8
54.281,-4.61
54.296,7.05
54.312,16.8
54.328,24.57
54.343,30.38
54.359,34.14
54.375,35.8
54.390,35.5
54.406,33.74
54.421,31.28
54.437,28.96
54.453,27.34
54.468,26.62
54.484,26.48
54.500,26.34
54.515,25.42
54.531,23.09
54.546,18.91
54.562,12.93
54.578,5.57
54.593,-2.32
54.609,-9.74
54.625,-15.82
54.640,-20.11
54.656,-22.73
54.671,-24.37
54.687,-26.05
54.703,-28.82
54.718,-33.45
54.734,-40.19
54.750,-48.72
54.765,-58.2
54.781,-67.36
54.796,-74.67
54.812,-78.48
54.828,-77.3
54.843,-70.06
54.859,-56.48
54.875,-37.31
54.890,-14.34
54.906,9.8
54.921,32.32
54.937,51.11
54.953,65.47
54.968,76.34
54.984,85.79
55.000,95.64
55.015,106.18
55.031,115.33
55.046,119.17
55.062,113.64
55.078,96.74
55.093,69.85
55.109,37.65
55.125,6.22
55.140,-19.29
55.156,-36.26
55.171,-44.68
55.187,-45.98
55.203,-41.79
55.218,-33.69
55.234,-23.95
55.250,-16.44
55.265,-16.3
55.281,-28.24
55.296,-54.02
55.312,-90.92
55.328,-132.23
55.343,-169.86
55.359,-197.66
55.375,-213.6
55.390,-219.82
55.406,-220.63
55.421,-219.95
55.437,-219.4
55.453,-218.17
55.468,-214.12
55.484,-205.25
55.500,-190.83
55.515,-171.47
55.531,-148.74
55.546,-124.38
55.562,-99.82
55.578,-76.05
55.593,-53.74
55.609,-33.51
55.625,-16.05
55.640,-1.98
55.656,8.37
55.671,15.17
55.687,19.21
55.703,21.66
55.718,23.68
55.734,26.03
55.750,28.86
55.765,31.76
55.781,34.06
55.796,35.18
55.812,34.88
55.828,33.43
55.843,31.37
55.859,29.29
55.875,27.45
55.890,25.76
55.906,23.73
55.921,20.88
55.937,16.91
55.953,11.96
55.968,6.46
55.984,0.95
56.000,-4.26
56.015,-9.2
56.031,-14.24
56.046,-19.9
56.062,-26.59
56.078,-34.33
56.093,-42.66
56.109,-50.61
56.125,-56.84
56.140,-60.03
56.156,-59.22
56.171,-54.09
56.187,-45.08
56.203,-33.2
56.218,-19.67
56.234,-5.56
56.250,8.36
56.265,21.64
56.281,33.92
56.296,44.85
56.312,53.95
56.328,60.77
56.343,65.06
56.359,66.93
56.375,66.86
56.390,65.57
56.406,63.79
56.421,62.08
56.437,60.67
56.453,59.56
56.468,58.54
56.484,57.47
56.500,56.33
56.515,55.3
56.531,54.62
56.546,54.45
56.562,54.68
56.578,54.82
56.593,54.1
56.609,51.74
56.625,47.18
56.640,40.38
56.656,31.87
56.671,22.57
56.687,13.5
56.703,5.38
56.718,-1.51
56.734,-7.34
56.750,-12.6
56.765,-17.79
56.781,-23.09
56.796,-28.17
56.812,-31.97
56.828,-32.85
56.843,-28.92
56.859,-18.58
56.875,-1.2
56.890,22.29
56.906,49.09
56.921,74.75
56.937,94.14
56.953,102.8
56.968,98.4
56.984,81.58
57.000,55.81
57.015,26.32
57.031,-1.55
57.046,-23.9
57.062,-39.03
57.078,-47.22
57.093,-49.95
57.109,-48.83
57.125,-45.12
57.140,-39.64
57.156,-33.13
57.171,-26.53
57.187,-20.91
57.203,-17.17
57.218,-15.74
57.234,-16.36
57.250,-18.28
57.265,-20.66
57.281,-22.95
57.296,-25.09
57.312,-27.45
57.328,-30.46
57.343,-34.37
57.359,-39.09
57.375,-44.33
57.390,-49.77
57.406,-55.39
57.421,-61.53
57.437,-68.71
57.453,-77.35
57.468,-87.42
57.484,-98.06
57.500,-107.66
57.515,-114.12
57.531,-115.47
57.546,-110.43
57.562,-99.06
57.578,-82.68
57.593,-63.62
57.609,-44.38
57.625,-27.04
57.640,-12.75
57.656,-1.79
57.671,6.15
57.687,11.57
57.703,14.84
57.718,16.25
57.734,16.05
57.750,14.64
57.765,12.58
57.781,10.51
57.796,9.03
57.812,8.57
57.828,9.44
57.843,11.81
57.859,15.69
57.875,20.91
57.890,27.1
57.906,33.66
57.921,39.84
57.937,44.94
57.953,48.46
57.968,50.22
57.984,50.38
58.000,49.27
58.015,47.27
58.031,44.58
58.046,41.24
58.062,37.27
58.078,32.7
58.093,27.76
58.109,22.79
58.125,18.12
58.140,13.99
58.156,10.46
58.171,7.49
58.187,5.01
58.203,2.91
58.218,1.08
58.234,-0.72
58.250,-2.81
58.265,-5.39
58.281,-8.33
58.296,-10.97
58.312,-12.09
58.328,-10.19
58.343,-3.96
58.359,7.18
58.375,22.84
58.390,41.69
58.406,61.93
58.421,81.8
58.437,100.07
58.453,116.21
58.468,130.27
58.484,142.57
58.500,153.31
58.515,162.53
58.531,170.11
58.546,176.04
58.562,180.6
58.578,184.31
58.593,187.77
58.609,191.31
58.625,194.96
58.640,198.5
58.656,201.87
58.671,205.25
58.687,208.93
58.703,212.61
58.718,214.83
58.734,212.75
58.750,202.93
58.765,182.62
58.781,151.16
58.796,110.64
58.812,65.4
58.828,20.64
58.843,-19.08
58.859,-51.01
58.875,-74.26
58.890,-89.36
58.906,-97.46
58.921,-99.79
58.937,-97.46
58.953,-91.62
58.968,-83.56
58.984,-74.75
59.000,-66.71
59.015,-60.83
59.031,-58.16
59.046,-59.21
59.062,-63.77
59.078,-70.76
59.093,-78.29
59.109,-83.91
59.125,-85.03
59.140,-79.4
59.156,-65.48
59.171,-42.73
59.187,-11.84
59.203,25.11
59.218,64.54
59.234,101.55
59.250,130.51
59.265,146.15
59.281,144.87
59.296,125.79
59.312,91.17
59.328,45.88
59.343,-3.87
59.359,-51.96
59.375,-93.44
59.390,-124.94
59.406,-144.48
59.421,-151.27
59.437,-145.7
59.453,-129.5
59.468,-105.89
59.484,-79.09
59.500,-53.36
59.515,-31.7
59.531,-15.05
59.546,-2.31
59.562,8.56
59.578,19.2
59.593,29.69
59.609,38.36
59.625,42.73
59.640,40.66
59.656,31.34
59.671,15.56
59.687,-4.87
59.703,-27.79
59.718,-51.27
59.734,-73.64
59.750,-93.33
59.765,-108.66
59.781,-118.06
59.796,-120.62
59.812,-116.64
59.828,-107.84
59.843,-97.12
59.859,-87.67
59.875,-82.11
59.890,-81.66
59.906,-85.89
59.921,-92.85
59.937,-99.72
59.953,-103.57
59.968,-102.19
59.984,-94.68
