timestamp,value
00.000,-84.13
00.015,-74.66
00.031,-64.19
00.046,-53.29
00.062,-42.08
00.078,-30.64
00.093,-19.36
00.109,-9.09
00.125,-1.03
00.140,3.54
00.156,3.51
00.171,-1.76
00.187,-12.15
00.203,-26.51
00.218,-42.62
00.234,-57.49
00.250,-68.2
00.265,-72.85
00.281,-71.29
00.296,-65.19
00.312,-57.25
00.328,-50.14
00.343,-45.47
00.359,-43.61
00.375,-44.04
00.390,-46.17
00.406,-49.78
00.421,-55.22
00.437,-62.89
00.453,-72.56
00.468,-83.14
00.484,-92.77
00.500,-99.44
00.515,-101.61
00.531,-98.72
00.546,-91.2
00.562,-80.07
00.578,-66.48
00.593,-51.28
00.609,-34.98
00.625,-17.84
00.640,-0.16
00.656,17.51
00.671,34.32
00.687,49.28
00.703,61.58
00.718,70.89
00.734,77.45
00.750,81.93
00.765,85.16
00.781,87.82
00.796,90.22
00.812,92.4
00.828,94.17
00.843,95.43
00.859,96.19
00.875,96.55
00.890,96.62
00.906,96.49
00.921,96.19
00.937,95.66
00.953,94.81
00.968,93.42
00.984,91.28
01.000,88.08
01.015,83.62
01.031,77.84
01.046,70.85
01.062,62.95
01.078,54.44
01.093,45.65
01.109,36.81
01.125,28.12
01.140,19.66
01.156,11.38
01.171,3.01
01.187,-5.92
01.203,-15.85
01.218,-26.95
01.234,-38.76
01.250,-50.11
01.265,-59.29
01.281,-64.51
01.296,-64.44
01.312,-58.6
01.328,-47.47
01.343,-32.23
01.359,-14.39
01.375,4.59
01.390,23.49
01.406,41.44
01.421,57.82
01.437,72.26
01.453,84.51
01.468,94.43
01.484,101.98
01.500,107.23
01.515,110.41
01.531,111.83
01.546,111.94
01.562,111.23
01.578,110.16
01.593,109.02
01.609,107.89
01.625,106.66
01.640,105.14
01.656,103.22
01.671,100.85
01.687,98.05
01.703,94.78
01.718,90.96
01.734,86.42
01.750,81.06
01.765,74.85
01.781,67.97
01.796,60.72
01.812,53.44
01.828,46.36
01.843,39.58
01.859,33.08
01.875,26.83
01.890,20.84
01.906,15.14
01.921,9.73
01.937,4.45
01.953,-0.96
01.968,-6.86
01.984,-13.37
02.000,-20.25
02.015,-26.7
02.031,-31.47
02.046,-33.11
02.062,-30.4
02.078,-22.76
02.093,-10.46
02.109,5.49
02.125,23.6
02.140,42.35
02.156,60.47
02.171,77.11
02.187,91.72
02.203,103.93
02.218,113.47
02.234,120.02
02.250,123.44
02.265,123.84
02.281,121.63
02.296,117.49
02.312,112.24
02.328,106.49
02.343,100.45
02.359,93.69
02.375,85.18
02.390,73.55
02.406,57.49
02.421,36.24
02.437,9.84
02.453,-20.72
02.468,-53.71
02.484,-86.97
02.500,-118.21
02.515,-145.51
02.531,-167.45
02.546,-183.39
02.562,-193.44
02.578,-198.45
02.593,-199.8
02.609,-199.1
02.625,-197.87
02.640,-197.04
02.656,-196.97
02.671,-197.34
02.687,-197.53
02.703,-196.89
02.718,-195.01
02.734,-191.84
02.750,-187.52
02.765,-182.12
02.781,-175.34
02.796,-166.5
02.812,-154.68
02.828,-139.09
02.843,-119.38
02.859,-95.88
02.875,-69.54
02.890,-41.69
02.906,-13.73
02.921,13.22
02.937,38.38
02.953,61.25
02.968,81.43
02.984,98.52
03.000,112.15
03.015,122.06
03.031,128.36
03.046,131.65
03.062,132.88
03.078,133.25
03.093,133.95
03.109,136.02
03.125,140.17
03.140,146.55
03.156,154.54
03.171,162.75
03.187,169.31
03.203,172.39
03.218,170.81
03.234,164.47
03.250,154.25
03.265,141.62
03.281,128.14
03.296,115.05
03.312,103.28
03.328,93.51
03.343,86.18
03.359,81.51
03.375,79.33
03.390,79.12
03.406,80.21
03.421,82.23
03.437,85.26
03.453,89.87
03.468,96.64
03.484,105.86
03.500,117.2
03.515,129.77
03.531,142.35
03.546,153.72
03.562,162.94
03.578,169.41
03.593,173.0
03.609,174.03
03.625,173.23
03.640,171.58
03.656,169.94
03.671,168.76
03.687,168.0
03.703,167.18
03.718,165.71
03.734,163.24
03.750,159.71
03.765,155.36
03.781,150.45
03.796,145.16
03.812,139.56
03.828,133.86
03.843,128.31
03.859,123.25
03.875,118.85
03.890,114.89
03.906,110.71
03.921,105.3
03.937,97.53
03.953,86.39
03.968,71.25
03.984,51.96
04.000,29.05
04.015,3.68
04.031,-22.51
04.046,-47.75
04.062,-70.49
04.078,-89.86
04.093,-105.7
04.109,-118.42
04.125,-128.64
04.140,-136.91
04.156,-143.55
04.171,-148.77
04.187,-152.69
04.203,-155.39
04.218,-156.79
04.234,-156.46
04.250,-153.74
04.265,-147.89
04.281,-138.45
04.296,-125.56
04.312,-110.12
04.328,-93.57
04.343,-77.5
04.359,-63.32
04.375,-51.92
04.390,-43.73
04.406,-38.86
04.421,-37.19
04.437,-38.44
04.453,-42.14
04.468,-47.52
04.484,-53.59
04.500,-59.42
04.515,-64.29
04.531,-67.81
04.546,-69.96
04.562,-70.84
04.578,-70.46
04.593,-68.78
04.609,-65.79
04.625,-61.71
04.640,-57.09
04.656,-52.75
04.671,-49.58
04.687,-48.18
04.703,-48.76
04.718,-51.07
04.734,-54.63
04.750,-58.86
04.765,-63.28
04.781,-67.5
04.796,-71.28
04.812,-74.6
04.828,-77.72
04.843,-81.15
04.859,-85.5
04.875,-91.2
04.890,-98.07
04.906,-105.17
04.921,-110.9
04.937,-113.49
04.953,-111.7
04.968,-105.19
04.984,-94.53
05.000,-80.89
05.015,-65.48
05.031,-49.24
05.046,-32.78
05.062,-16.64
05.078,-1.41
05.093,12.1
05.109,23.1
05.125,31.01
05.140,35.72
05.156,37.6
05.171,37.37
05.187,35.85
05.203,33.71
05.218,31.41
05.234,29.21
05.250,27.25
05.265,25.61
05.281,24.26
05.296,23.07
05.312,21.74
05.328,19.82
05.343,16.77
05.359,12.17
05.375,5.77
05.390,-2.35
05.406,-11.87
05.421,-22.29
05.437,-32.9
05.453,-43.01
05.468,-51.96
05.484,-59.34
05.500,-65.11
05.515,-69.61
05.531,-73.49
05.546,-77.44
05.562,-82.05
05.578,-87.5
05.593,-93.57
05.609,-99.53
05.625,-104.32
05.640,-106.73
05.656,-105.65
05.671,-100.46
05.687,-91.08
05.703,-78.26
05.718,-63.16
05.734,-47.21
05.750,-31.58
05.765,-17.0
05.781,-3.79
05.796,7.95
05.812,18.14
05.828,26.62
05.843,33.16
05.859,37.69
05.875,40.29
05.890,41.26
05.906,41.0
05.921,39.84
05.937,37.96
05.953,35.48
05.968,32.51
05.984,29.19
06.000,25.81
06.015,22.65
06.031,19.96
06.046,17.85
06.062,16.34
06.078,15.28
06.093,14.44
06.109,13.56
06.125,12.47
06.140,11.17
06.156,9.88
06.171,8.98
06.187,8.88
06.203,9.87
06.218,12.0
06.234,15.08
06.250,18.79
06.265,22.78
06.281,26.87
06.296,31.0
06.312,35.17
06.328,39.55
06.343,44.32
06.359,49.8
06.375,56.46
06.390,64.68
06.406,74.71
06.421,86.64
06.437,100.32
06.453,115.35
06.468,131.34
06.484,147.84
06.500,164.58
06.515,181.34
06.531,197.89
06.546,213.87
06.562,228.78
06.578,242.13
06.593,253.52
06.609,262.9
06.625,270.39
06.640,276.18
06.656,280.15
06.671,281.68
06.687,279.96
06.703,274.3
06.718,264.63
06.734,251.54
06.750,236.09
06.765,219.19
06.781,201.17
06.796,181.82
06.812,160.58
06.828,137.17
06.843,111.72
06.859,84.94
06.875,57.74
06.890,30.96
06.906,5.3
06.921,-18.61
06.937,-39.98
06.953,-58.11
06.968,-72.7
06.984,-84.3
07.000,-94.24
07.015,-104.19
07.031,-115.43
07.046,-128.22
07.062,-141.66
07.078,-153.96
07.093,-163.24
07.109,-168.19
07.125,-168.54
07.140,-164.97
07.156,-158.78
07.171,-151.63
07.187,-145.4
07.203,-142.07
07.218,-143.36
07.234,-150.29
07.250,-162.51
07.265,-178.12
07.281,-193.99
07.296,-206.74
07.312,-213.84
07.328,-214.36
07.343,-209.22
07.359,-200.4
07.375,-190.1
07.390,-179.81
07.406,-170.18
07.421,-161.19
07.437,-152.71
07.453,-144.83
07.468,-137.88
07.484,-132.07
07.500,-127.26
07.515,-122.85
07.531,-118.11
07.546,-112.55
07.562,-106.09
07.578,-99.23
07.593,-92.64
07.609,-86.93
07.625,-82.42
07.640,-79.03
07.656,-76.48
07.671,-74.42
07.687,-72.58
07.703,-70.71
07.718,-68.72
07.734,-66.56
07.750,-64.24
07.765,-61.99
07.781,-60.14
07.796,-59.14
07.812,-59.32
07.828,-60.75
07.843,-62.99
07.859,-65.09
07.875,-65.67
07.890,-63.12
07.906,-56.1
07.921,-43.94
07.937,-26.92
07.953,-6.18
07.968,16.56
07.984,39.61
08.000,61.67
08.015,82.03
08.031,100.56
08.046,117.26
08.062,132.1
08.078,144.83
08.093,155.13
08.109,162.79
08.125,167.91
08.140,170.92
08.156,172.51
08.171,173.4
08.187,174.1
08.203,174.79
08.218,175.21
08.234,174.63
08.250,171.97
08.265,166.01
08.281,155.65
08.296,140.14
08.312,119.42
08.328,94.2
08.343,65.94
08.359,36.64
08.375,8.43
08.390,-16.84
08.406,-37.91
08.421,-54.28
08.437,-66.24
08.453,-74.56
08.468,-80.33
08.484,-84.68
08.500,-88.49
08.515,-92.32
08.531,-96.39
08.546,-100.59
08.562,-104.55
08.578,-107.63
08.593,-108.91
08.609,-107.34
08.625,-102.05
08.640,-92.53
08.656,-78.93
08.671,-62.18
08.687,-43.69
08.703,-25.11
08.718,-7.98
08.734,6.49
08.750,17.43
08.765,24.18
08.781,26.27
08.796,23.52
08.812,16.16
08.828,4.98
08.843,-8.83
08.859,-23.92
08.875,-39.04
08.890,-53.22
08.906,-65.77
08.921,-76.14
08.937,-83.76
08.953,-88.0
08.968,-88.32
08.984,-84.45
09.000,-76.63
09.015,-65.62
09.031,-52.63
09.046,-38.96
09.062,-25.78
09.078,-13.96
09.093,-3.89
09.109,4.37
09.125,11.02
09.140,16.43
09.156,21.07
09.171,25.42
09.187,29.87
09.203,34.57
09.218,39.27
09.234,43.13
09.250,44.87
09.265,43.09
09.281,36.83
09.296,26.02
09.312,11.79
09.328,-3.66
09.343,-17.67
09.359,-27.66
09.375,-31.87
09.390,-29.79
09.406,-22.05
09.421,-10.21
09.437,3.77
09.453,18.0
09.468,31.06
09.484,41.99
09.500,50.29
09.515,55.79
09.531,58.34
09.546,57.92
09.562,54.66
09.578,48.97
09.593,41.54
09.609,33.34
09.625,25.24
09.640,17.78
09.656,11.09
09.671,4.86
09.687,-1.35
09.703,-7.94
09.718,-15.0
09.734,-22.38
09.750,-29.8
09.765,-37.0
09.781,-43.85
09.796,-50.29
09.812,-56.3
09.828,-61.73
09.843,-66.36
09.859,-69.91
09.875,-72.2
09.890,-73.14
09.906,-72.92
09.921,-71.83
09.937,-70.22
09.953,-68.48
09.968,-66.91
09.984,-65.78
10.000,-65.29
10.015,-65.59
10.031,-66.6
10.046,-67.91
10.062,-68.67
10.078,-67.51
10.093,-62.85
10.109,-53.34
10.125,-38.23
10.140,-17.84
10.156,6.48
10.171,32.64
10.187,58.34
10.203,81.63
10.218,101.28
10.234,116.78
10.250,128.19
10.265,135.76
10.281,139.79
10.296,140.63
10.312,138.86
10.328,135.41
10.343,131.53
10.359,128.62
10.375,127.78
10.390,129.41
10.406,133.1
10.421,137.72
10.437,141.94
10.453,144.67
10.468,145.45
10.484,144.37
10.500,141.94
10.515,138.61
10.531,134.48
10.546,129.21
10.562,122.03
10.578,112.1
10.593,98.86
10.609,82.26
10.625,62.93
10.640,41.97
10.656,20.8
10.671,0.69
10.687,-17.49
10.703,-33.52
10.718,-47.92
10.734,-61.8
10.750,-76.71
10.765,-94.27
10.781,-115.44
10.796,-139.74
10.812,-164.76
10.828,-186.3
10.843,-199.44
10.859,-200.5
10.875,-188.7
10.890,-167.16
10.906,-142.11
10.921,-120.95
10.937,-109.63
10.953,-110.77
10.968,-123.27
10.984,-143.23
11.000,-165.89
11.015,-187.21
11.031,-204.82
11.046,-217.79
11.062,-226.06
11.078,-229.78
11.093,-229.2
11.109,-224.63
11.125,-216.78
11.140,-206.76
11.156,-195.79
11.171,-184.71
11.187,-173.64
11.203,-161.94
11.218,-148.6
11.234,-132.95
11.250,-115.17
11.265,-96.45
11.281,-78.68
11.296,-63.77
11.312,-53.0
11.328,-46.69
11.343,-44.17
11.359,-44.28
11.375,-45.74
11.390,-47.59
11.406,-49.24
11.421,-50.5
11.437,-51.47
11.453,-52.45
11.468,-53.84
11.484,-56.13
11.500,-59.82
11.515,-65.2
11.531,-72.16
11.546,-79.99
11.562,-87.35
11.578,-92.4
11.593,-93.18
11.609,-88.18
11.625,-76.68
11.640,-59.07
11.656,-36.75
11.671,-11.72
11.687,13.83
11.703,38.02
11.718,59.53
11.734,77.64
11.750,92.04
11.765,102.63
11.781,109.49
11.796,112.87
11.812,113.25
11.828,111.47
11.843,108.52
11.859,105.44
11.875,102.98
11.890,101.51
11.906,100.89
11.921,100.75
11.937,100.72
11.953,100.59
11.968,100.43
11.984,100.41
12.000,100.65
12.015,100.92
12.031,100.73
12.046,99.33
12.062,96.11
12.078,90.78
12.093,83.53
12.109,74.87
12.125,65.39
12.140,55.69
12.156,45.99
12.171,36.39
12.187,26.7
12.203,16.77
12.218,6.42
12.234,-4.38
12.250,-15.43
12.265,-26.18
12.281,-35.49
12.296,-41.86
12.312,-43.62
12.328,-39.55
12.343,-29.28
12.359,-13.56
12.375,5.95
12.390,27.19
12.406,48.21
12.421,67.58
12.437,84.45
12.453,98.37
12.468,109.06
12.484,116.35
12.500,120.18
12.515,120.86
12.531,119.07
12.546,115.72
12.562,111.81
12.578,108.09
12.593,104.96
12.609,102.39
12.625,100.07
12.640,97.56
12.656,94.48
12.671,90.72
12.687,86.42
12.703,81.97
12.718,77.72
12.734,73.84
12.750,70.14
12.765,66.11
12.781,61.17
12.796,55.01
12.812,47.75
12.828,39.89
12.843,32.11
12.859,24.93
12.875,18.41
12.890,12.3
12.906,6.1
12.921,-0.71
12.937,-8.5
12.953,-17.39
12.968,-27.21
12.984,-37.39
13.000,-46.89
13.015,-54.25
13.031,-57.81
13.046,-56.2
13.062,-48.82
13.078,-36.15
13.093,-19.58
13.109,-1.1
13.125,17.29
13.140,34.07
13.156,48.37
13.171,59.9
13.187,68.68
13.203,74.84
13.218,78.48
13.234,79.78
13.250,78.98
13.265,76.58
13.281,73.22
13.296,69.57
13.312,66.15
13.328,63.18
13.343,60.58
13.359,58.06
13.375,55.35
13.390,52.28
13.406,48.92
13.421,45.46
13.437,42.06
13.453,38.75
13.468,35.34
13.484,31.61
13.500,27.31
13.515,22.3
13.531,16.61
13.546,10.34
13.562,3.67
13.578,-3.21
13.593,-10.11
13.609,-16.89
13.625,-23.42
13.640,-29.68
13.656,-35.78
13.671,-41.94
13.687,-48.48
13.703,-55.66
13.718,-63.44
13.734,-71.22
13.750,-77.87
13.765,-81.77
13.781,-81.39
13.796,-75.73
13.812,-64.7
13.828,-49.27
13.843,-31.11
13.859,-12.16
13.875,5.94
13.890,22.06
13.906,35.74
13.921,46.92
13.937,55.66
13.953,62.04
13.968,66.09
13.984,67.89
14.000,67.65
14.015,65.82
14.031,62.99
14.046,59.84
14.062,56.88
14.078,54.38
14.093,52.3
14.109,50.48
14.125,48.7
14.140,46.88
14.156,45.07
14.171,43.4
14.187,41.91
14.203,40.45
14.218,38.71
14.234,36.36
14.250,33.07
14.265,28.7
14.281,23.32
14.296,17.17
14.312,10.58
14.328,3.8
14.343,-3.02
14.359,-9.89
14.375,-16.95
14.390,-24.38
14.406,-32.42
14.421,-41.23
14.437,-50.86
14.453,-61.17
14.468,-71.75
14.484,-81.8
14.500,-90.16
14.515,-95.42
14.531,-96.22
14.546,-91.73
14.562,-81.85
14.578,-67.37
14.593,-49.81
14.609,-31.0
14.625,-12.69
14.640,3.81
14.656,17.71
14.671,28.7
14.687,36.74
14.703,41.94
14.718,44.5
14.734,44.78
14.750,43.37
14.765,40.97
14.781,38.28
14.796,35.81
14.812,33.84
14.828,32.33
14.843,31.14
14.859,30.13
14.875,29.19
14.890,28.3
14.906,27.43
14.921,26.4
14.937,25.03
14.953,23.1
14.968,20.43
14.984,17.02
15.000,12.9
15.015,8.19
15.031,3.16
15.046,-1.99
15.062,-7.07
15.078,-12.0
15.093,-16.86
15.109,-21.77
15.125,-26.89
15.140,-32.42
15.156,-38.47
15.171,-44.95
15.187,-51.55
15.203,-57.52
15.218,-61.84
15.234,-63.3
15.250,-60.84
15.265,-53.92
15.281,-42.72
15.296,-28.21
15.312,-11.84
15.328,4.81
15.343,20.37
15.359,33.93
15.375,45.11
15.390,53.92
15.406,60.69
15.421,65.88
15.437,69.9
15.453,73.07
15.468,75.61
15.484,77.72
15.500,79.59
15.515,81.46
15.531,83.64
15.546,86.43
15.562,90.05
15.578,94.65
15.593,100.05
15.609,105.92
15.625,111.75
15.640,116.97
15.656,121.08
15.671,123.92
15.687,125.72
15.703,127.05
15.718,128.78
15.734,131.56
15.750,135.49
15.765,139.86
15.781,143.25
15.796,143.88
15.812,140.23
15.828,131.47
15.843,117.72
15.859,100.17
15.875,80.73
15.890,61.73
15.906,45.34
15.921,33.18
15.937,25.87
15.953,23.03
15.968,23.49
15.984,25.76
16.000,28.6
16.015,31.31
16.031,33.72
16.046,35.98
16.062,38.09
16.078,39.82
16.093,40.69
16.109,40.23
16.125,38.02
16.140,33.77
16.156,27.25
16.171,18.43
16.187,7.52
16.203,-4.97
16.218,-18.31
16.234,-31.75
16.250,-44.69
16.265,-56.67
16.281,-67.25
16.296,-76.11
16.312,-83.33
16.328,-89.96
16.343,-98.15
16.359,-110.61
16.375,-129.34
16.390,-154.19
16.406,-182.51
16.421,-209.87
16.437,-231.96
16.453,-246.62
16.468,-254.57
16.484,-258.77
16.500,-262.52
16.515,-267.75
16.531,-274.15
16.546,-279.87
16.562,-282.96
16.578,-282.56
16.593,-279.34
16.609,-274.71
16.625,-269.81
16.640,-264.4
16.656,-257.06
16.671,-245.71
16.687,-228.74
16.703,-205.88
16.718,-178.32
16.734,-148.29
16.750,-118.08
16.765,-89.38
16.781,-62.83
16.796,-38.32
16.812,-15.5
16.828,5.84
16.843,25.38
16.859,42.51
16.875,56.59
16.890,67.44
16.906,75.45
16.921,81.45
16.937,86.45
16.953,91.2
16.968,95.99
16.984,100.56
17.000,104.41
17.015,106.97
17.031,108.07
17.046,107.9
17.062,106.87
17.078,105.34
17.093,103.22
17.109,99.98
17.125,94.69
17.140,86.49
17.156,74.92
17.171,60.25
17.187,43.54
17.203,26.28
17.218,10.05
17.234,-3.93
17.250,-15.1
17.265,-23.64
17.281,-30.28
17.296,-36.0
17.312,-41.7
17.328,-47.87
17.343,-54.61
17.359,-61.49
17.375,-67.73
17.390,-72.3
17.406,-74.11
17.421,-72.29
17.437,-66.41
17.453,-56.61
17.468,-43.61
17.484,-28.62
17.500,-13.02
17.515,1.93
17.531,15.29
17.546,26.49
17.562,35.29
17.578,41.63
17.593,45.59
17.609,47.4
17.625,47.4
17.640,46.15
17.656,44.24
17.671,42.22
17.687,40.56
17.703,39.46
17.718,38.91
17.734,38.7
17.750,38.59
17.765,38.32
17.781,37.74
17.796,36.79
17.812,35.5
17.828,33.94
17.843,32.15
17.859,30.04
17.875,27.42
17.890,24.2
17.906,20.38
17.921,16.15
17.937,11.85
17.953,7.79
17.968,4.12
17.984,0.8
18.000,-2.42
18.015,-5.85
18.031,-9.77
18.046,-14.28
18.062,-19.33
18.078,-24.57
18.093,-29.48
18.109,-33.29
18.125,-35.08
18.140,-34.02
18.156,-29.61
18.171,-21.86
18.187,-11.34
18.203,0.98
18.218,13.97
18.234,26.57
18.250,37.91
18.265,47.43
18.281,54.82
18.296,59.92
18.312,62.79
18.328,63.61
18.343,62.7
18.359,60.56
18.375,57.65
18.390,54.5
18.406,51.57
18.421,49.18
18.437,47.39
18.453,46.05
18.468,44.85
18.484,43.45
18.500,41.72
18.515,39.69
18.531,37.61
18.546,35.66
18.562,33.88
18.578,32.05
18.593,29.84
18.609,26.92
18.625,23.14
18.640,18.67
18.656,13.82
18.671,8.95
18.687,4.34
18.703,0.04
18.718,-4.05
18.734,-8.12
18.750,-12.35
18.765,-16.91
18.781,-21.8
18.796,-27.02
18.812,-32.4
18.828,-37.59
18.843,-42.01
18.859,-44.82
18.875,-45.07
18.890,-41.96
18.906,-35.16
18.921,-24.87
18.937,-11.9
18.953,2.58
18.968,17.37
18.984,31.47
19.000,44.22
19.015,55.23
19.031,64.28
19.046,71.21
19.062,75.95
19.078,78.51
19.093,79.13
19.109,78.3
19.125,76.59
19.140,74.58
19.156,72.64
19.171,70.86
19.187,69.01
19.203,66.77
19.218,63.8
19.234,59.88
19.250,55.03
19.265,49.35
19.281,43.01
19.296,36.17
19.312,29.02
19.328,21.74
19.343,14.64
19.359,8.1
19.375,2.41
19.390,-2.14
19.406,-5.53
19.421,-7.86
19.437,-9.32
19.453,-10.17
19.468,-10.67
19.484,-11.03
19.500,-11.41
19.515,-11.92
19.531,-12.54
19.546,-13.19
19.562,-13.71
19.578,-13.91
19.593,-13.62
19.609,-12.81
19.625,-11.49
19.640,-9.81
19.656,-7.96
19.671,-6.06
19.687,-4.2
19.703,-2.33
19.718,-0.43
19.734,1.53
19.750,3.36
19.765,4.81
19.781,5.55
19.796,5.28
19.812,3.92
19.828,1.5
19.843,-1.74
19.859,-5.56
19.875,-9.78
19.890,-14.27
19.906,-18.91
19.921,-23.59
19.937,-28.03
19.953,-31.9
19.968,-34.9
19.984,-36.84
20.000,-37.81
20.015,-38.19
20.031,-38.47
20.046,-39.07
20.062,-40.23
20.078,-41.82
20.093,-43.6
20.109,-45.27
20.125,-46.69
20.140,-47.88
20.156,-49.01
20.171,-50.29
20.187,-51.87
20.203,-53.81
20.218,-56.12
20.234,-58.71
20.250,-61.52
20.265,-64.45
20.281,-67.39
20.296,-70.24
20.312,-73.04
20.328,-75.93
20.343,-79.24
20.359,-83.25
20.375,-88.0
20.390,-93.06
20.406,-97.46
20.421,-99.82
20.437,-98.74
20.453,-93.24
20.468,-83.06
20.484,-68.83
20.500,-51.84
20.515,-33.79
20.531,-16.29
20.546,-0.57
20.562,12.61
20.578,23.03
20.593,30.8
20.609,36.2
20.625,39.56
20.640,41.14
20.656,41.26
20.671,40.31
20.687,38.79
20.703,37.22
20.718,36.03
20.734,35.4
20.750,35.26
20.765,35.32
20.781,35.23
20.796,34.8
20.812,33.98
20.828,32.88
20.843,31.63
20.859,30.24
20.875,28.58
20.890,26.45
20.906,23.73
20.921,20.43
20.937,16.7
20.953,12.78
20.968,8.9
20.984,5.25
21.000,1.92
21.015,-1.08
21.031,-3.87
21.046,-6.69
21.062,-9.86
21.078,-13.67
21.093,-18.24
21.109,-23.38
21.125,-28.48
21.140,-32.69
21.156,-35.02
21.171,-34.75
21.187,-31.47
21.203,-25.28
21.218,-16.69
21.234,-6.55
21.250,4.2
21.265,14.62
21.281,24.0
21.296,31.87
21.312,37.95
21.328,42.17
21.343,44.52
21.359,45.14
21.375,44.27
21.390,42.31
21.406,39.75
21.421,37.11
21.437,34.77
21.453,32.93
21.468,31.59
21.484,30.55
21.500,29.56
21.515,28.43
21.531,27.04
21.546,25.37
21.562,23.43
21.578,21.27
21.593,18.86
21.609,16.1
21.625,12.9
21.640,9.17
21.656,4.94
21.671,0.39
21.687,-4.23
21.703,-8.65
21.718,-12.74
21.734,-16.52
21.750,-20.17
21.765,-23.92
21.781,-27.97
21.796,-32.44
21.812,-37.33
21.828,-42.41
21.843,-47.2
21.859,-50.87
21.875,-52.44
21.890,-51.0
21.906,-46.06
21.921,-37.76
21.937,-26.9
21.953,-14.66
21.968,-2.22
21.984,9.52
22.000,20.06
22.015,29.14
22.031,36.69
22.046,42.57
22.062,46.62
22.078,48.8
22.093,49.27
22.109,48.38
22.125,46.59
22.140,44.39
22.156,42.08
22.171,39.82
22.187,37.61
22.203,35.35
22.218,33.04
22.234,30.77
22.250,28.65
22.265,26.76
22.281,25.07
22.296,23.42
22.312,21.52
22.328,19.09
22.343,15.92
22.359,11.92
22.375,7.15
22.390,1.72
22.406,-4.12
22.421,-10.11
22.437,-15.92
22.453,-21.26
22.468,-26.01
22.484,-30.22
22.500,-34.15
22.515,-38.17
22.531,-42.62
22.546,-47.58
22.562,-52.74
22.578,-57.4
22.593,-60.57
22.609,-61.28
22.625,-58.84
22.640,-53.07
22.656,-44.32
22.671,-33.39
22.687,-21.25
22.703,-8.78
22.718,3.32
22.734,14.6
22.750,24.73
22.765,33.44
22.781,40.4
22.796,45.35
22.812,48.19
22.828,49.0
22.843,48.18
22.859,46.25
22.875,43.82
22.890,41.36
22.906,39.13
22.921,37.12
22.937,35.24
22.953,33.31
22.968,31.21
22.984,28.89
23.000,26.35
23.015,23.55
23.031,20.47
23.046,17.03
23.062,13.21
23.078,9.09
23.093,4.77
23.109,0.34
23.125,-4.13
23.140,-8.67
23.156,-13.31
23.171,-17.97
23.187,-22.51
23.203,-26.84
23.218,-30.95
23.234,-35.06
23.250,-39.5
23.265,-44.53
23.281,-50.24
23.296,-56.38
23.312,-62.3
23.328,-67.16
23.343,-70.03
23.359,-70.13
23.375,-66.92
23.390,-60.25
23.406,-50.36
23.421,-37.87
23.437,-23.76
23.453,-9.05
23.468,5.19
23.484,18.12
23.500,29.25
23.515,38.29
23.531,45.25
23.546,50.19
23.562,53.2
23.578,54.42
23.593,54.06
23.609,52.39
23.625,49.87
23.640,46.96
23.656,44.05
23.671,41.43
23.687,39.19
23.703,37.28
23.718,35.52
23.734,33.72
23.750,31.69
23.765,29.33
23.781,26.62
23.796,23.57
23.812,20.2
23.828,16.53
23.843,12.52
23.859,8.13
23.875,3.38
23.890,-1.64
23.906,-6.73
23.921,-11.68
23.937,-16.35
23.953,-20.66
23.968,-24.65
23.984,-28.4
24.000,-32.04
24.015,-35.68
24.031,-39.51
24.046,-43.8
24.062,-48.77
24.078,-54.46
24.093,-60.57
24.109,-66.35
24.125,-70.69
24.140,-72.42
24.156,-70.6
24.171,-64.84
24.187,-55.41
24.203,-43.1
24.218,-29.04
24.234,-14.39
24.250,-0.15
24.265,12.93
24.281,24.37
24.296,33.83
24.312,41.1
24.328,46.08
24.343,48.81
24.359,49.46
24.375,48.36
24.390,45.95
24.406,42.66
24.421,38.9
24.437,34.99
24.453,31.2
24.468,27.77
24.484,24.88
24.500,22.58
24.515,20.82
24.531,19.37
24.546,17.92
24.562,16.18
24.578,13.97
24.593,11.29
24.609,8.33
24.625,5.33
24.640,2.49
24.656,-0.16
24.671,-2.74
24.687,-5.48
24.703,-8.57
24.718,-12.12
24.734,-16.03
24.750,-20.13
24.765,-24.17
24.781,-27.94
24.796,-31.4
24.812,-34.58
24.828,-37.64
24.843,-40.81
24.859,-44.3
24.875,-48.2
24.890,-52.49
24.906,-56.8
24.921,-60.46
24.937,-62.55
24.953,-62.15
24.968,-58.55
24.984,-51.55
25.000,-41.52
25.015,-29.28
25.031,-15.94
25.046,-2.6
25.062,9.82
25.078,20.69
25.093,29.54
25.109,36.19
25.125,40.65
25.140,43.1
25.156,43.92
25.171,43.48
25.187,42.16
25.203,40.28
25.218,38.11
25.234,35.79
25.250,33.46
25.265,31.21
25.281,29.14
25.296,27.33
25.312,25.79
25.328,24.52
25.343,23.49
25.359,22.59
25.375,21.67
25.390,20.57
25.406,19.16
25.421,17.4
25.437,15.35
25.453,13.05
25.468,10.56
25.484,7.9
25.500,5.08
25.515,2.1
25.531,-1.01
25.546,-4.19
25.562,-7.42
25.578,-10.57
25.593,-13.62
25.609,-16.5
25.625,-19.22
25.640,-21.88
25.656,-24.67
25.671,-27.76
25.687,-31.25
25.703,-34.92
25.718,-38.15
25.734,-40.07
25.750,-39.7
25.765,-36.38
25.781,-29.98
25.796,-20.91
25.812,-10.01
25.828,1.69
25.843,13.29
25.859,24.09
25.875,33.64
25.890,41.65
25.906,47.9
25.921,52.25
25.937,54.7
25.953,55.37
25.968,54.49
25.984,52.41
26.000,49.5
26.015,46.06
26.031,42.4
26.046,38.76
26.062,35.3
26.078,32.16
26.093,29.39
26.109,26.99
26.125,24.94
26.140,23.21
26.156,21.76
26.171,20.48
26.187,19.18
26.203,17.67
26.218,15.78
26.234,13.46
26.250,10.89
26.265,8.35
26.281,6.15
26.296,4.53
26.312,3.56
26.328,3.19
26.343,3.29
26.359,3.75
26.375,4.43
26.390,5.18
26.406,5.77
26.421,5.86
26.437,5.09
26.453,3.1
26.468,-0.29
26.484,-5.0
26.500,-10.65
26.515,-16.56
26.531,-21.85
26.546,-25.63
26.562,-27.24
26.578,-26.3
26.593,-22.8
26.609,-17.12
26.625,-9.95
26.640,-2.15
26.656,5.39
26.671,11.94
26.687,17.02
26.703,20.48
26.718,22.45
26.734,23.22
26.750,23.06
26.765,22.23
26.781,20.87
26.796,19.07
26.812,16.99
26.828,14.8
26.843,12.73
26.859,10.94
26.875,9.53
26.890,8.42
26.906,7.42
26.921,6.34
26.937,5.05
26.953,3.57
26.968,2.03
26.984,0.61
27.000,-0.61
27.015,-1.65
27.031,-2.64
27.046,-3.71
27.062,-4.99
27.078,-6.57
27.093,-8.47
27.109,-10.67
27.125,-13.08
27.140,-15.59
27.156,-18.07
27.171,-20.39
27.187,-22.45
27.203,-24.24
27.218,-25.92
27.234,-27.73
27.250,-29.97
27.265,-32.87
27.281,-36.56
27.296,-40.99
27.312,-45.91
27.328,-50.71
27.343,-54.57
27.359,-56.57
27.375,-55.87
27.390,-52.04
27.406,-45.08
27.421,-35.49
27.437,-24.04
27.453,-11.61
27.468,1.07
27.484,13.43
27.500,25.09
27.515,35.73
27.531,44.99
27.546,52.57
27.562,58.26
27.578,62.15
27.593,64.53
27.609,65.83
27.625,66.47
27.640,66.66
27.656,66.3
27.671,65.11
27.687,62.71
27.703,58.91
27.718,53.82
27.734,47.86
27.750,41.6
27.765,35.58
27.781,30.11
27.796,25.24
27.812,20.75
27.828,16.33
27.843,11.76
27.859,6.94
27.875,1.99
27.890,-2.92
27.906,-7.67
27.921,-12.27
27.937,-16.78
27.953,-21.25
27.968,-25.6
27.984,-29.72
28.000,-33.45
28.015,-36.77
28.031,-39.69
28.046,-42.36
28.062,-44.85
28.078,-47.2
28.093,-49.34
28.109,-51.23
28.125,-52.88
28.140,-54.35
28.156,-55.67
28.171,-56.68
28.187,-56.94
28.203,-55.74
28.218,-52.42
28.234,-46.5
28.250,-37.94
28.265,-27.14
28.281,-14.82
28.296,-1.81
28.312,11.12
28.328,23.32
28.343,34.39
28.359,44.08
28.375,52.24
28.390,58.87
28.406,64.0
28.421,67.6
28.437,69.61
28.453,69.88
28.468,68.35
28.484,65.21
28.500,60.97
28.515,56.43
28.531,52.47
28.546,49.79
28.562,48.7
28.578,49.15
28.593,50.72
28.609,52.8
28.625,54.81
28.640,56.36
28.656,57.42
28.671,58.25
28.687,59.36
28.703,61.38
28.718,64.84
28.734,70.04
28.750,76.98
28.765,85.34
28.781,94.59
28.796,104.17
28.812,113.52
28.828,122.17
28.843,129.84
28.859,136.39
28.875,141.69
28.890,145.69
28.906,148.22
28.921,149.02
28.937,147.62
28.953,143.54
28.968,136.39
28.984,126.11
29.000,113.09
29.015,98.13
29.031,82.28
29.046,66.55
29.062,51.61
29.078,37.74
29.093,24.81
29.109,12.58
29.125,0.92
29.140,-10.17
29.156,-20.49
29.171,-29.86
29.187,-38.32
29.203,-46.24
29.218,-54.3
29.234,-63.28
29.250,-73.78
29.265,-85.95
29.281,-99.45
29.296,-113.43
29.312,-126.82
29.328,-138.56
29.343,-147.88
29.359,-154.46
29.375,-158.63
29.390,-161.3
29.406,-164.06
29.421,-168.92
29.437,-177.87
29.453,-192.39
29.468,-212.8
29.484,-237.88
29.500,-264.78
29.515,-289.58
29.531,-308.24
29.546,-317.74
29.562,-316.91
29.578,-306.61
29.593,-289.37
29.609,-268.39
29.625,-246.66
29.640,-226.15
29.656,-207.88
29.671,-192.08
29.687,-178.72
29.703,-167.83
29.718,-159.53
29.734,-153.85
29.750,-150.44
29.765,-148.48
29.781,-146.72
29.796,-143.79
29.812,-138.41
29.828,-129.67
29.843,-117.13
29.859,-100.85
29.875,-81.32
29.890,-59.44
29.906,-36.35
29.921,-13.36
29.937,8.34
29.953,27.9
29.968,44.85
29.984,59.18
30.000,71.12
30.015,81.03
30.031,89.17
30.046,95.73
30.062,100.77
30.078,104.39
30.093,106.77
30.109,108.17
30.125,108.87
30.140,109.26
30.156,109.65
30.171,110.32
30.187,111.45
30.203,113.02
30.218,114.81
30.234,116.42
30.250,117.28
30.265,116.77
30.281,114.46
30.296,110.13
30.312,103.91
30.328,96.16
30.343,87.33
30.359,77.8
30.375,67.77
30.390,57.33
30.406,46.62
30.421,35.95
30.437,25.74
30.453,16.4
30.468,8.02
30.484,0.31
30.500,-7.42
30.515,-15.99
30.531,-25.91
30.546,-37.2
30.562,-49.29
30.578,-61.13
30.593,-71.41
30.609,-78.8
30.625,-82.23
30.640,-81.05
30.656,-75.18
30.671,-65.17
30.687,-52.13
30.703,-37.48
30.718,-22.65
30.734,-8.71
30.750,3.73
30.765,14.59
30.781,24.02
30.796,32.27
30.812,39.41
30.828,45.38
30.843,50.04
30.859,53.32
30.875,55.32
30.890,56.34
30.906,56.81
30.921,57.12
30.937,57.61
30.953,58.43
30.968,59.61
30.984,61.03
31.000,62.51
31.015,63.8
31.031,64.57
31.046,64.64
31.062,63.91
31.078,62.58
31.093,61.05
31.109,59.82
31.125,59.23
31.140,59.32
31.156,59.74
31.171,59.84
31.187,58.97
31.203,56.62
31.218,52.63
31.234,47.11
31.250,40.29
31.265,32.36
31.281,23.32
31.296,12.93
31.312,0.89
31.328,-12.99
31.343,-28.54
31.359,-45.02
31.375,-61.05
31.390,-74.93
31.406,-84.86
31.421,-89.5
31.437,-88.35
31.453,-81.87
31.468,-71.3
31.484,-58.38
31.500,-44.75
31.515,-31.69
31.531,-20.06
31.546,-10.36
31.562,-2.89
31.578,2.03
31.593,4.15
31.609,3.51
31.625,0.37
31.640,-4.62
31.656,-10.68
31.671,-17.05
31.687,-23.15
31.703,-28.72
31.718,-33.79
31.734,-38.49
31.750,-43.05
31.765,-47.77
31.781,-52.92
31.796,-58.8
31.812,-65.52
31.828,-72.98
31.843,-80.83
31.859,-88.58
31.875,-95.73
31.890,-101.86
31.906,-106.87
31.921,-110.67
31.937,-113.26
31.953,-114.51
31.968,-114.28
31.984,-112.48
32.000,-109.3
32.015,-105.17
32.031,-100.76
32.046,-96.88
32.062,-94.21
32.078,-93.24
32.093,-94.25
32.109,-97.15
32.125,-101.42
32.140,-106.03
32.156,-109.47
32.171,-109.98
32.187,-105.98
32.203,-96.44
32.218,-81.34
32.234,-61.68
32.250,-39.18
32.265,-15.84
32.281,6.64
32.296,27.11
32.312,45.02
32.328,60.14
32.343,72.47
32.359,82.03
32.375,88.89
32.390,93.35
32.406,95.9
32.421,97.17
32.437,97.8
32.453,98.27
32.468,98.82
32.484,99.57
32.500,100.56
32.515,101.81
32.531,103.35
32.546,105.05
32.562,106.61
32.578,107.69
32.593,107.9
32.609,106.98
32.625,104.91
32.640,101.84
32.656,98.03
32.671,93.81
32.687,89.4
32.703,85.0
32.718,80.77
32.734,76.71
32.750,72.78
32.765,68.85
32.781,64.74
32.796,60.23
32.812,55.25
32.828,49.78
32.843,43.93
32.859,37.87
32.875,31.77
32.890,25.81
32.906,20.03
32.921,14.42
32.937,8.89
32.953,3.36
32.968,-2.17
32.984,-7.64
33.000,-12.87
33.015,-17.73
33.031,-22.11
33.046,-25.99
33.062,-29.46
33.078,-32.66
33.093,-35.7
33.109,-38.63
33.125,-41.41
33.140,-43.97
33.156,-46.18
33.171,-47.98
33.187,-49.47
33.203,-50.92
33.218,-52.67
33.234,-55.06
33.250,-58.28
33.265,-62.23
33.281,-66.51
33.296,-70.56
33.312,-73.75
33.328,-75.66
33.343,-76.1
33.359,-75.24
33.375,-73.54
33.390,-71.56
33.406,-69.83
33.421,-68.67
33.437,-68.19
33.453,-68.3
33.468,-68.89
33.484,-69.95
33.500,-71.74
33.515,-74.68
33.531,-79.18
33.546,-85.27
33.562,-92.36
33.578,-99.07
33.593,-103.46
33.609,-103.49
33.625,-97.71
33.640,-85.71
33.656,-68.29
33.671,-47.18
33.687,-24.43
33.703,-1.84
33.718,19.33
33.734,38.44
33.750,55.05
33.765,68.86
33.781,79.58
33.796,87.08
33.812,91.55
33.828,93.61
33.843,94.13
33.859,94.0
33.875,93.87
33.890,93.96
33.906,94.1
33.921,93.94
33.937,93.14
33.953,91.62
33.968,89.53
33.984,87.16
34.000,84.77
34.015,82.37
34.031,79.7
34.046,76.26
34.062,71.58
34.078,65.37
34.093,57.73
34.109,49.14
34.125,40.19
34.140,31.43
34.156,23.17
34.171,15.33
34.187,7.62
34.203,-0.35
34.218,-8.89
34.234,-18.12
34.250,-27.83
34.265,-37.57
34.281,-46.45
34.296,-53.4
34.312,-57.28
34.328,-57.18
34.343,-52.63
34.359,-43.92
34.375,-31.95
34.390,-18.03
34.406,-3.6
34.421,10.13
34.437,22.3
34.453,32.37
34.468,40.05
34.484,45.19
34.500,47.76
34.515,47.9
34.531,46.04
34.546,42.82
34.562,39.03
34.578,35.37
34.593,32.33
34.609,30.08
34.625,28.61
34.640,27.75
34.656,27.38
34.671,27.45
34.687,27.93
34.703,28.78
34.718,29.82
34.734,30.78
34.750,31.37
34.765,31.38
34.781,30.76
34.796,29.65
34.812,28.32
34.828,26.95
34.843,25.68
34.859,24.36
34.875,22.63
34.890,19.98
34.906,15.91
34.921,10.12
34.937,2.79
34.953,-5.27
34.968,-12.66
34.984,-17.62
35.000,-18.52
35.015,-14.37
35.031,-5.08
35.046,8.53
35.062,24.99
35.078,42.7
35.093,60.19
35.109,76.41
35.125,90.64
35.140,102.38
35.156,111.27
35.171,117.13
35.187,120.01
35.203,120.26
35.218,118.5
35.234,115.39
35.250,111.44
35.265,106.88
35.281,101.65
35.296,95.58
35.312,88.61
35.328,80.91
35.343,72.88
35.359,64.98
35.375,57.49
35.390,50.36
35.406,43.21
35.421,35.57
35.437,27.1
35.453,17.84
35.468,8.18
35.484,-1.36
35.500,-10.34
35.515,-18.66
35.531,-26.56
35.546,-34.42
35.562,-42.7
35.578,-51.62
35.593,-61.23
35.609,-71.29
35.625,-81.23
35.640,-90.09
35.656,-96.55
35.671,-99.21
35.687,-96.82
35.703,-88.86
35.718,-75.7
35.734,-58.72
35.750,-39.9
35.765,-21.31
35.781,-4.68
35.796,8.88
35.812,18.85
35.828,25.19
35.843,28.13
35.859,28.08
35.875,25.64
35.890,21.59
35.906,16.85
35.921,12.27
35.937,8.39
35.953,5.44
35.968,3.34
35.984,1.88
36.000,0.91
36.015,0.44
36.031,0.55
36.046,1.27
36.062,2.4
36.078,3.49
36.093,4.05
36.109,3.7
36.125,2.3
36.140,-0.07
36.156,-3.19
36.171,-6.84
36.187,-10.83
36.203,-15.07
36.218,-19.5
36.234,-24.16
36.250,-29.19
36.265,-34.83
36.281,-41.2
36.296,-48.09
36.312,-54.79
36.328,-60.07
36.343,-62.54
36.359,-61.11
36.375,-55.39
36.390,-45.83
36.406,-33.59
36.421,-20.01
36.437,-6.19
36.453,7.14
36.468,19.73
36.484,31.52
36.500,42.31
36.515,51.81
36.531,59.54
36.546,65.14
36.562,68.64
36.578,70.47
36.593,71.39
36.609,72.22
36.625,73.55
36.640,75.52
36.656,77.91
36.671,80.35
36.687,82.61
36.703,84.79
36.718,87.31
36.734,90.66
36.750,95.19
36.765,100.78
36.781,106.94
36.796,112.93
36.812,117.99
36.828,121.56
36.843,123.44
36.859,123.77
36.875,122.93
36.890,121.54
36.906,120.3
36.921,119.68
36.937,119.77
36.953,119.83
36.968,118.24
36.984,112.71
37.000,100.89
37.015,81.36
37.031,54.47
37.046,22.5
37.062,-10.77
37.078,-41.13
37.093,-65.23
37.109,-81.2
37.125,-88.95
37.140,-89.61
37.156,-84.91
37.171,-76.69
37.187,-66.62
37.203,-56.2
37.218,-46.68
37.234,-39.05
37.250,-33.74
37.265,-30.78
37.281,-29.68
37.296,-29.82
37.312,-30.6
37.328,-31.63
37.343,-32.75
37.359,-34.03
37.375,-35.67
37.390,-37.89
37.406,-40.8
37.421,-44.34
37.437,-48.2
37.453,-52.02
37.468,-55.57
37.484,-58.95
37.500,-62.65
37.515,-67.37
37.531,-73.78
37.546,-82.19
37.562,-92.4
37.578,-103.74
37.593,-115.21
37.609,-125.88
37.625,-135.19
37.640,-143.13
37.656,-150.26
37.671,-157.52
37.687,-165.83
37.703,-175.86
37.718,-187.76
37.734,-201.12
37.750,-215.05
37.765,-228.42
37.781,-240.1
37.796,-249.08
37.812,-254.81
37.828,-257.15
37.843,-256.55
37.859,-253.83
37.875,-249.81
37.890,-244.95
37.906,-239.08
37.921,-231.38
37.937,-220.78
37.953,-206.38
37.968,-187.81
37.984,-165.46
38.000,-140.39
38.015,-113.85
38.031,-87.12
38.046,-61.17
38.062,-36.6
38.078,-13.81
38.093,6.85
38.109,25.12
38.125,40.79
38.140,53.84
38.156,64.53
38.171,73.37
38.187,81.04
38.203,88.17
38.218,95.14
38.234,102.06
38.250,108.79
38.265,115.06
38.281,120.65
38.296,125.43
38.312,129.35
38.328,132.44
38.343,134.6
38.359,135.62
38.375,135.15
38.390,132.95
38.406,128.85
38.421,122.99
38.437,115.75
38.453,107.59
38.468,99.09
38.484,90.78
38.500,82.93
38.515,75.64
38.531,68.78
38.546,62.03
38.562,55.04
38.578,47.55
38.593,39.48
38.609,31.02
38.625,22.51
38.640,14.28
38.656,6.51
38.671,-0.93
38.687,-8.41
38.703,-16.41
38.718,-25.28
38.734,-35.16
38.750,-45.69
38.765,-56.15
38.781,-65.45
38.796,-72.36
38.812,-75.76
38.828,-74.82
38.843,-69.21
38.859,-59.22
38.875,-45.78
38.890,-30.13
38.906,-13.63
38.921,2.63
38.937,17.95
38.953,31.98
38.968,44.57
38.984,55.62
39.000,64.92
39.015,72.22
39.031,77.32
39.046,80.19
39.062,81.06
39.078,80.38
39.093,78.71
39.109,76.58
39.125,74.34
39.140,72.15
39.156,69.97
39.171,67.74
39.187,65.48
39.203,63.24
39.218,61.13
39.234,59.11
39.250,56.96
39.265,54.35
39.281,51.01
39.296,46.91
39.312,42.34
39.328,37.8
39.343,33.77
39.359,30.44
39.375,27.63
39.390,24.8
39.406,21.39
39.421,17.06
39.437,11.82
39.453,6.04
39.468,0.29
39.484,-5.0
39.500,-9.6
39.515,-13.61
39.531,-17.39
39.546,-21.34
39.562,-25.77
39.578,-30.83
39.593,-36.4
39.609,-42.11
39.625,-47.24
39.640,-50.81
39.656,-51.7
39.671,-49.01
39.687,-42.33
39.703,-31.99
39.718,-18.99
39.734,-4.66
39.750,9.67
39.765,23.06
39.781,35.1
39.796,45.74
39.812,55.02
39.828,62.85
39.843,68.92
39.859,72.86
39.875,74.53
39.890,74.09
39.906,72.13
39.921,69.42
39.937,66.65
39.953,64.21
39.968,62.18
39.984,60.4
40.000,58.69
40.015,56.97
40.031,55.3
40.046,53.74
40.062,52.2
40.078,50.38
40.093,47.89
40.109,44.4
40.125,39.85
40.140,34.47
40.156,28.73
40.171,23.14
40.187,18.08
40.203,13.64
40.218,9.66
40.234,5.8
40.250,1.75
40.265,-2.68
40.281,-7.53
40.296,-12.67
40.312,-17.88
40.328,-22.97
40.343,-27.77
40.359,-32.21
40.375,-36.31
40.390,-40.27
40.406,-44.31
40.421,-48.79
40.437,-53.93
40.453,-59.77
40.468,-65.94
40.484,-71.63
40.500,-75.69
40.515,-76.93
40.531,-74.45
40.546,-67.91
40.562,-57.65
40.578,-44.59
40.593,-29.98
40.609,-15.06
40.625,-0.81
40.640,12.15
40.656,23.57
40.671,33.33
40.687,41.45
40.703,47.91
40.718,52.65
40.734,55.68
40.750,57.01
40.765,56.91
40.781,55.75
40.796,53.95
40.812,51.94
40.828,49.94
40.843,48.0
40.859,46.01
40.875,43.94
40.890,41.76
40.906,39.59
40.921,37.55
40.937,35.63
40.953,33.68
40.968,31.42
40.984,28.58
41.000,24.93
41.015,20.56
41.031,15.69
41.046,10.68
41.062,5.88
41.078,1.56
41.093,-2.22
41.109,-5.61
41.125,-8.91
41.140,-12.56
41.156,-16.84
41.171,-21.92
41.187,-27.64
41.203,-33.67
41.218,-39.62
41.234,-45.17
41.250,-50.25
41.265,-54.94
41.281,-59.45
41.296,-64.02
41.312,-68.87
41.328,-74.05
41.343,-79.39
41.359,-84.57
41.375,-88.94
41.390,-91.72
41.406,-92.04
41.421,-89.15
41.437,-82.61
41.453,-72.49
41.468,-59.37
41.484,-44.22
41.500,-28.23
41.515,-12.54
41.531,2.01
41.546,14.89
41.562,25.9
41.578,34.99
41.593,42.17
41.609,47.42
41.625,50.79
41.640,52.38
41.656,52.47
41.671,51.43
41.687,49.68
41.703,47.56
41.718,45.3
41.734,42.97
41.750,40.55
41.765,38.08
41.781,35.58
41.796,33.16
41.812,30.87
41.828,28.72
41.843,26.61
41.859,24.38
41.875,21.88
41.890,18.98
41.906,15.66
41.921,11.96
41.937,8.05
41.953,4.05
41.968,0.13
41.984,-3.61
42.000,-7.03
42.015,-10.06
42.031,-12.67
42.046,-14.98
42.062,-17.2
42.078,-19.6
42.093,-22.43
42.109,-25.83
42.125,-29.7
42.140,-33.82
42.156,-37.92
42.171,-41.79
42.187,-45.46
42.203,-49.09
42.218,-53.02
42.234,-57.46
42.250,-62.42
42.265,-67.6
42.281,-72.3
42.296,-75.63
42.312,-76.54
42.328,-74.17
42.343,-68.14
42.359,-58.61
42.375,-46.31
42.390,-32.33
42.406,-17.87
42.421,-3.99
42.437,8.59
42.453,19.48
42.468,28.53
42.484,35.7
42.500,40.97
42.515,44.4
42.531,46.14
42.546,46.53
42.562,45.98
42.578,44.97
42.593,43.87
42.609,42.86
42.625,41.96
42.640,41.11
42.656,40.28
42.671,39.55
42.687,39.05
42.703,38.84
42.718,38.85
42.734,38.83
42.750,38.47
42.765,37.5
42.781,35.78
42.796,33.37
42.812,30.54
42.828,27.59
42.843,24.83
42.859,22.5
42.875,20.62
42.890,19.1
42.906,17.77
42.921,16.43
42.937,15.0
42.953,13.53
42.968,12.13
42.984,10.89
43.000,9.79
43.015,8.71
43.031,7.44
43.046,5.81
43.062,3.77
43.078,1.38
43.093,-1.02
43.109,-2.99
43.125,-3.89
43.140,-3.0
43.156,0.32
43.171,6.53
43.187,15.77
43.203,27.8
43.218,42.02
43.234,57.64
43.250,73.87
43.265,89.98
43.281,105.37
43.296,119.43
43.312,131.44
43.328,140.64
43.343,146.28
43.359,147.9
43.375,145.51
43.390,139.67
43.406,131.31
43.421,121.47
43.437,110.88
43.453,99.85
43.468,88.35
43.484,76.29
43.500,63.71
43.515,51.03
43.531,38.82
43.546,27.56
43.562,17.29
43.578,7.43
43.593,-3.13
43.609,-15.63
43.625,-31.14
43.640,-50.18
43.656,-72.56
43.671,-97.44
43.687,-123.64
43.703,-149.77
43.718,-174.63
43.734,-197.15
43.750,-216.42
43.765,-231.68
43.781,-242.23
43.796,-247.53
43.812,-247.34
43.828,-241.91
43.843,-231.99
43.859,-218.92
43.875,-204.33
43.890,-189.75
43.906,-176.37
43.921,-164.69
43.937,-154.48
43.953,-144.92
43.968,-134.88
43.984,-123.22
44.000,-109.17
44.015,-92.51
44.031,-73.56
44.046,-53.07
44.062,-31.97
44.078,-11.18
44.093,8.54
44.109,26.54
44.125,42.37
44.140,55.67
44.156,66.23
44.171,74.06
44.187,79.35
44.203,82.45
44.218,83.82
44.234,83.86
44.250,82.9
44.265,81.15
44.281,78.69
44.296,75.55
44.312,71.8
44.328,67.52
44.343,62.89
44.359,58.16
44.375,53.55
44.390,49.25
44.406,45.33
44.421,41.72
44.437,38.24
44.453,34.71
44.468,30.98
44.484,27.0
44.500,22.82
44.515,18.44
44.531,13.87
44.546,9.03
44.562,3.83
44.578,-1.76
44.593,-7.69
44.609,-13.71
44.625,-19.51
44.640,-24.84
44.656,-29.68
44.671,-34.29
44.687,-39.06
44.703,-44.48
44.718,-50.82
44.734,-58.03
44.750,-65.65
44.765,-72.88
44.781,-78.71
44.796,-82.14
44.812,-82.31
44.828,-78.72
44.843,-71.42
44.859,-60.98
44.875,-48.34
44.890,-34.63
44.906,-20.88
44.921,-7.88
44.937,3.94
44.953,14.37
44.968,23.32
44.984,30.66
45.000,36.28
45.015,40.12
45.031,42.23
45.046,42.95
45.062,42.8
45.078,42.43
45.093,42.47
45.109,43.29
45.125,44.96
45.140,47.33
45.156,50.1
45.171,52.93
45.187,55.54
45.203,57.73
45.218,59.27
45.234,59.98
45.250,59.81
45.265,58.82
45.281,57.24
45.296,55.35
45.312,53.37
45.328,51.4
45.343,49.4
45.359,47.23
45.375,44.81
45.390,42.16
45.406,39.42
45.421,36.76
45.437,34.32
45.453,32.13
45.468,30.1
45.484,27.9
45.500,25.05
45.515,21.0
45.531,15.24
45.546,7.38
45.562,-2.66
45.578,-14.65
45.593,-27.93
45.609,-41.49
45.625,-54.17
45.640,-64.88
45.656,-72.85
45.671,-77.74
45.687,-79.74
45.703,-79.31
45.718,-76.98
45.734,-73.23
45.750,-68.39
45.765,-62.73
45.781,-56.57
45.796,-50.24
45.812,-44.08
45.828,-38.34
45.843,-33.23
45.859,-28.8
45.875,-25.07
45.890,-22.0
45.906,-19.45
45.921,-17.17
45.937,-14.85
45.953,-12.26
45.968,-9.27
45.984,-6.06
46.000,-2.87
46.031,2.36
46.046,4.16
46.062,5.48
46.078,6.41
46.093,6.96
46.109,7.12
46.125,6.82
46.140,6.03
46.156,4.77
46.171,3.07
46.187,1.05
46.203,-1.17
46.218,-3.43
46.234,-5.64
46.250,-7.75
46.265,-9.87
46.281,-12.2
46.296,-14.98
46.312,-18.47
46.328,-22.79
46.343,-27.84
46.359,-33.29
46.375,-38.5
46.390,-42.54
46.406,-44.46
46.421,-43.39
46.437,-38.85
46.453,-30.92
46.468,-20.22
46.484,-7.81
46.500,5.09
46.515,17.38
46.531,28.26
46.546,37.32
46.562,44.43
46.578,49.7
46.593,53.28
46.609,55.37
46.625,56.12
46.640,55.69
46.656,54.35
46.671,52.43
46.687,50.3
46.703,48.29
46.718,46.56
46.734,45.14
46.750,43.87
46.765,42.55
46.781,40.97
46.796,39.03
46.812,36.78
46.828,34.3
46.843,31.69
46.859,29.02
46.875,26.14
46.890,22.93
46.906,19.29
46.921,15.19
46.937,10.78
46.953,6.28
46.968,1.86
46.984,-2.38
47.000,-6.46
47.015,-10.48
47.031,-14.56
47.046,-18.77
47.062,-23.17
47.078,-27.83
47.093,-32.89
47.109,-38.41
47.125,-44.22
47.140,-49.83
47.156,-54.37
47.171,-56.76
47.187,-56.02
47.203,-51.5
47.218,-43.23
47.234,-31.84
47.250,-18.56
47.265,-4.74
47.281,8.46
47.296,20.23
47.312,30.27
47.328,38.51
47.343,45.08
47.359,50.05
47.375,53.44
47.390,55.24
47.406,55.56
47.421,54.69
47.437,53.02
47.453,51.03
47.468,49.03
47.484,47.19
47.500,45.51
47.515,43.91
47.531,42.31
47.546,40.7
47.562,39.09
47.578,37.43
47.593,35.64
47.609,33.56
47.625,31.08
47.640,28.14
47.656,24.74
47.671,20.97
47.687,16.85
47.703,12.36
47.718,7.47
47.734,2.18
47.750,-3.4
47.765,-9.12
47.781,-14.77
47.796,-20.25
47.812,-25.51
47.828,-30.58
47.843,-35.6
47.859,-40.75
47.875,-46.17
47.890,-51.93
47.906,-57.87
47.921,-63.55
47.937,-68.2
47.953,-70.85
47.968,-70.57
47.984,-66.77
48.000,-59.39
48.015,-49.02
48.031,-36.64
48.046,-23.49
48.062,-10.64
48.078,1.11
48.093,11.39
48.109,20.08
48.125,27.18
48.140,32.75
48.156,36.77
48.171,39.25
48.187,40.27
48.203,40.0
48.218,38.69
48.234,36.61
48.250,33.92
48.265,30.77
48.281,27.29
48.296,23.67
48.312,20.19
48.328,17.09
48.343,14.46
48.359,12.18
48.375,9.97
48.390,7.53
48.406,4.67
48.421,1.45
48.437,-1.98
48.453,-5.36
48.468,-8.6
48.484,-11.73
48.500,-14.9
48.515,-18.3
48.531,-21.98
48.546,-25.87
48.562,-29.78
48.578,-33.5
48.593,-36.83
48.609,-39.72
48.625,-42.33
48.640,-44.92
48.656,-47.88
48.671,-51.48
48.687,-55.68
48.703,-60.07
48.718,-63.87
48.734,-66.07
48.750,-65.72
48.765,-62.17
48.781,-55.28
48.796,-45.48
48.812,-33.64
48.828,-20.94
48.843,-8.51
48.859,2.73
48.875,12.25
48.890,19.93
48.906,25.93
48.921,30.48
48.937,33.74
48.953,35.75
48.968,36.59
48.984,36.4
49.000,35.5
49.015,34.24
49.031,32.92
49.046,31.63
49.062,30.3
49.078,28.75
49.093,26.88
49.109,24.77
49.125,22.54
49.140,20.35
49.156,18.29
49.171,16.33
49.187,14.33
49.203,12.11
49.218,9.48
49.234,6.3
49.250,2.57
49.265,-1.6
49.281,-5.98
49.296,-10.23
49.312,-14.03
49.328,-17.18
49.343,-19.68
49.359,-21.73
49.375,-23.66
49.390,-25.82
49.406,-28.39
49.421,-31.38
49.437,-34.47
49.453,-37.03
49.468,-38.27
49.484,-37.33
49.500,-33.58
49.515,-26.79
49.531,-17.29
49.546,-5.87
49.562,6.34
49.578,18.21
49.593,28.82
49.609,37.58
49.625,44.28
49.640,48.97
49.656,51.83
49.671,53.07
49.687,52.92
49.703,51.64
49.718,49.51
49.734,46.86
49.750,43.98
49.765,41.07
49.781,38.12
49.796,35.02
49.812,31.61
49.828,27.82
49.843,23.81
49.859,19.83
49.875,16.27
49.890,13.31
49.906,10.96
49.921,8.9
49.937,6.76
49.953,4.23
49.968,1.16
49.984,-2.36
50.000,-6.12
50.015,-9.72
50.031,-12.86
50.046,-15.34
50.062,-17.2
50.078,-18.66
50.093,-20.12
50.109,-21.96
50.125,-24.47
50.140,-27.62
50.156,-30.98
50.171,-33.81
50.187,-35.16
50.203,-34.14
50.218,-30.15
50.234,-22.99
50.250,-12.97
50.265,-0.77
50.281,12.63
50.296,26.25
50.312,39.24
50.328,51.07
50.343,61.43
50.359,70.2
50.375,77.35
50.390,82.77
50.406,86.44
50.421,88.3
50.437,88.55
50.453,87.62
50.468,86.16
50.484,84.85
50.500,84.19
50.515,84.42
50.531,85.37
50.546,86.69
50.562,87.88
50.578,88.63
50.593,88.9
50.609,88.98
50.625,89.43
50.640,90.82
50.656,93.63
50.671,97.98
50.687,103.75
50.703,110.52
50.718,117.74
50.734,124.81
50.750,131.14
50.765,136.25
50.781,139.78
50.796,141.68
50.812,142.15
50.828,141.63
50.843,140.51
50.859,138.95
50.875,136.88
50.890,134.18
50.906,131.05
50.921,128.2
50.937,126.89
50.953,128.51
50.968,133.98
50.984,142.97
51.000,153.52
51.015,162.32
51.031,165.54
51.046,160.04
51.062,144.46
51.078,119.54
51.093,87.83
51.109,52.68
51.125,17.1
51.140,-17.02
51.156,-48.95
51.171,-78.87
51.187,-107.41
51.203,-135.39
51.218,-163.57
51.234,-192.28
51.250,-220.92
51.265,-247.58
51.281,-269.0
51.296,-281.3
51.312,-281.27
51.328,-267.46
51.343,-240.8
51.359,-204.23
51.375,-161.8
51.390,-117.66
51.406,-75.45
51.421,-38.0
51.437,-7.5
51.453,14.69
51.468,28.21
51.484,33.76
51.500,32.91
51.515,27.47
51.531,18.72
51.546,6.85
51.562,-8.98
51.578,-30.35
51.593,-58.68
51.609,-94.49
51.625,-136.76
51.640,-182.76
51.656,-228.46
51.671,-269.42
51.687,-302.03
51.703,-324.34
51.718,-336.4
51.734,-339.75
51.750,-336.56
51.765,-328.79
51.781,-317.74
51.796,-304.19
51.812,-288.75
51.828,-272.04
51.843,-254.7
51.859,-237.28
51.875,-220.01
51.890,-202.97
51.906,-186.21
51.921,-169.85
51.937,-154.05
51.953,-138.8
51.968,-123.83
51.984,-108.61
52.000,-92.72
52.015,-76.04
52.031,-58.96
52.046,-42.26
52.062,-26.78
52.078,-13.29
52.093,-2.24
52.109,6.23
52.125,12.32
52.140,16.39
52.156,18.98
52.171,20.63
52.187,21.78
52.203,22.7
52.218,23.4
52.234,23.69
52.250,23.27
52.265,21.9
52.281,19.57
52.296,16.51
52.312,13.16
52.328,9.92
52.343,6.96
52.359,4.13
52.375,1.03
52.390,-2.89
52.406,-8.01
52.421,-14.42
52.437,-21.75
52.453,-29.16
52.468,-35.46
52.484,-39.35
52.500,-39.71
52.515,-35.88
52.531,-27.88
52.546,-16.48
52.562,-2.97
52.578,11.19
52.593,24.72
52.609,36.81
52.625,47.15
52.640,55.79
52.656,62.87
52.671,68.5
52.687,72.67
52.703,75.37
52.718,76.76
52.734,77.27
52.750,77.44
52.765,77.83
52.781,78.78
52.796,80.33
52.812,82.29
52.828,84.37
52.843,86.33
52.859,87.95
52.875,89.09
52.890,89.59
52.906,89.34
52.921,88.31
52.937,86.6
52.953,84.45
52.968,82.16
52.984,79.95
53.000,77.92
53.015,76.06
53.031,74.26
53.046,72.37
53.062,70.27
53.078,67.86
53.093,65.11
53.109,62.02
53.125,58.69
53.140,55.21
53.156,51.69
53.171,48.25
53.187,44.97
53.203,41.9
53.218,39.09
53.234,36.57
53.250,34.28
53.265,32.16
53.281,30.08
53.296,27.99
53.312,25.94
53.328,24.05
53.343,22.5
53.359,21.38
53.375,20.65
53.390,20.1
53.406,19.54
53.421,18.81
53.437,17.93
53.453,17.03
53.468,16.28
53.484,15.76
53.500,15.37
53.515,14.91
53.531,14.13
53.546,12.86
53.562,11.11
53.578,8.98
53.593,6.71
53.609,4.42
53.625,2.2
53.640,0.01
53.656,-2.27
53.671,-4.81
53.687,-7.77
53.703,-11.28
53.718,-15.39
53.734,-20.01
53.750,-24.97
53.765,-30.02
53.781,-34.86
53.796,-39.3
53.812,-43.26
53.828,-46.84
53.843,-50.3
53.859,-53.95
53.875,-58.08
53.890,-62.76
53.906,-67.65
53.921,-71.94
53.937,-74.42
53.953,-73.79
53.968,-69.02
53.984,-59.73
54.000,-46.34
54.015,-29.97
54.031,-12.15
54.046,5.55
54.062,21.79
54.078,35.64
54.093,46.57
54.109,54.46
54.125,59.44
54.140,61.92
54.156,62.43
54.171,61.61
54.187,60.09
54.203,58.37
54.218,56.76
54.234,55.36
54.250,54.12
54.265,52.85
54.281,51.4
54.296,49.68
54.312,47.76
54.328,45.79
54.343,43.86
54.359,42.01
54.375,40.1
54.390,37.91
54.406,35.17
54.421,31.67
54.437,27.39
54.453,22.51
54.468,17.39
54.484,12.41
54.500,7.94
54.515,4.13
54.531,0.82
54.546,-2.3
54.562,-5.76
54.578,-9.97
54.593,-15.09
54.609,-20.91
54.625,-26.86
54.640,-32.02
54.656,-35.31
54.671,-35.76
54.687,-32.7
54.703,-26.04
54.718,-16.28
54.734,-4.49
54.750,7.97
54.765,19.68
54.781,29.62
54.796,37.23
54.812,42.41
54.828,45.43
54.843,46.63
54.859,46.31
54.875,44.74
54.890,42.18
54.906,38.92
54.921,35.38
54.937,31.96
54.953,28.87
54.968,26.21
54.984,23.85
55.000,21.62
55.015,19.5
55.031,17.52
55.046,15.85
55.062,14.56
55.078,13.5
55.093,12.31
55.109,10.57
55.125,7.93
55.140,4.33
55.156,0.03
55.171,-4.52
55.187,-8.83
55.203,-12.55
55.218,-15.58
55.234,-18.01
55.250,-20.15
55.265,-22.39
55.281,-25.11
55.296,-28.52
55.312,-32.54
55.328,-36.67
55.343,-39.97
55.359,-41.32
55.375,-39.66
55.390,-34.34
55.406,-25.41
55.421,-13.64
55.437,-0.15
55.453,13.7
55.468,26.82
55.484,38.46
55.500,48.18
55.515,55.67
55.531,60.71
55.546,63.06
55.562,62.55
55.578,59.4
55.593,54.07
55.609,47.42
55.625,40.31
55.640,33.44
55.656,27.18
55.671,21.51
55.687,16.22
55.703,11.08
55.718,6.1
55.734,1.51
55.750,-2.35
55.765,-5.23
55.781,-7.17
55.796,-8.52
55.812,-9.83
55.828,-11.61
55.843,-14.23
55.859,-17.71
55.875,-21.98
55.890,-26.88
55.906,-32.37
55.921,-38.51
55.937,-45.32
55.953,-52.75
55.968,-60.64
55.984,-68.82
56.000,-77.03
56.015,-85.06
56.031,-92.48
56.046,-98.53
56.062,-102.21
56.078,-102.41
56.093,-98.31
56.109,-89.66
56.125,-77.0
56.140,-61.43
56.156,-44.49
56.171,-27.55
56.187,-11.64
56.203,2.55
56.218,14.68
56.234,24.52
56.250,31.94
56.265,36.9
56.281,39.56
56.296,40.23
56.312,39.45
56.328,37.82
56.343,35.81
56.359,33.75
56.375,31.73
56.390,29.72
56.406,27.74
56.421,25.9
56.437,24.34
56.453,23.18
56.468,22.39
56.484,21.78
56.500,21.04
56.515,19.85
56.531,17.93
56.546,15.24
56.562,11.98
56.578,8.42
56.593,4.87
56.609,1.58
56.625,-1.47
56.640,-4.33
56.656,-7.28
56.671,-10.67
56.687,-14.77
56.703,-19.69
56.718,-25.21
56.734,-30.77
56.750,-35.48
56.765,-38.32
56.781,-38.27
56.796,-34.7
56.812,-27.52
56.828,-17.25
56.843,-4.97
56.859,8.04
56.875,20.57
56.890,31.71
56.906,41.0
56.921,48.33
56.937,53.75
56.953,57.38
56.968,59.33
56.984,59.63
57.000,58.49
57.015,56.26
57.031,53.4
57.046,50.35
57.062,47.36
57.078,44.43
57.093,41.34
57.109,37.92
57.125,34.13
57.140,30.18
57.156,26.39
57.171,22.94
57.187,19.77
57.203,16.6
57.218,13.04
57.234,8.86
57.250,4.09
57.265,-0.96
57.281,-5.89
57.296,-10.34
57.312,-14.14
57.328,-17.34
57.343,-20.14
57.359,-22.8
57.375,-25.57
57.390,-28.73
57.406,-32.43
57.421,-36.59
57.437,-40.79
57.453,-44.27
57.468,-46.03
57.484,-45.15
57.500,-41.09
57.515,-33.88
57.531,-24.1
57.546,-12.71
57.562,-0.73
57.578,10.98
57.593,21.75
57.609,31.17
57.625,38.9
57.640,44.7
57.656,48.4
57.671,50.01
57.687,49.71
57.703,47.82
57.718,44.78
57.734,41.09
57.750,37.17
57.765,33.33
57.781,29.71
57.796,26.31
57.812,23.05
57.828,19.88
57.843,16.76
57.859,13.8
57.875,11.16
57.890,8.88
57.906,6.9
57.921,4.95
57.937,2.75
57.953,0.03
57.968,-3.32
57.984,-7.25
58.000,-11.52
58.015,-15.85
58.031,-20.03
58.046,-23.96
58.062,-27.72
58.078,-31.45
58.093,-35.32
58.109,-39.55
58.125,-44.2
58.140,-49.19
58.156,-54.13
58.171,-58.34
58.187,-60.91
58.203,-60.95
58.218,-57.72
58.234,-50.91
58.250,-40.77
58.265,-28.04
58.281,-13.89
58.296,0.45
58.312,13.88
58.328,25.68
58.343,35.45
58.359,43.13
58.375,48.83
58.390,52.73
58.406,55.03
58.421,55.89
58.437,55.49
58.453,54.04
58.468,51.82
58.484,49.11
58.500,46.11
58.515,42.99
58.531,39.92
58.546,37.03
58.562,34.45
58.578,32.18
58.593,30.16
58.609,28.21
58.625,26.13
58.640,23.73
58.656,20.9
58.671,17.7
58.687,14.21
58.703,10.5
58.718,6.5
58.734,2.12
58.750,-2.72
58.765,-7.96
58.781,-13.4
58.796,-18.75
58.812,-23.77
58.828,-28.27
58.843,-32.26
58.859,-35.89
58.875,-39.4
58.890,-43.08
58.906,-47.12
58.921,-51.59
58.937,-56.32
58.953,-60.81
58.968,-64.37
58.984,-66.14
59.000,-65.31
59.015,-61.42
59.031,-54.46
59.046,-44.85
59.062,-33.38
59.078,-20.93
59.093,-8.31
59.109,3.79
59.125,14.91
59.140,24.72
59.156,32.95
59.171,39.39
59.187,44.01
59.203,46.94
59.218,48.51
59.234,49.08
59.250,48.97
59.265,48.4
59.281,47.44
59.296,46.1
59.312,44.38
59.328,42.44
59.343,40.57
59.359,39.14
59.375,38.48
59.390,38.74
59.406,39.78
59.421,41.21
59.437,42.41
59.453,42.79
59.468,42.01
59.484,40.07
59.500,37.33
59.515,34.36
59.531,31.67
59.546,29.6
59.562,28.11
59.578,26.75
59.593,24.65
59.609,20.71
59.625,13.77
59.640,3.0
59.656,-11.82
59.671,-30.11
59.687,-50.51
59.703,-71.32
59.718,-90.92
59.734,-108.1
59.750,-122.12
59.765,-132.5
59.781,-138.72
59.796,-140.1
59.812,-136.04
59.828,-126.3
59.843,-111.4
59.859,-92.69
59.875,-72.05
59.890,-51.43
59.906,-32.49
59.921,-16.36
59.937,-3.67
59.953,5.26
59.968,10.41
59.984,12.02
