timestamp,value
00.000,-71.46
00.015,-73.37
00.031,-74.36
00.046,-73.69
00.062,-70.59
00.078,-64.67
00.093,-56.04
00.109,-45.36
00.125,-33.62
00.140,-21.87
00.156,-10.96
00.171,-1.36
00.187,6.76
00.203,13.44
00.218,18.77
00.234,22.81
00.250,25.7
00.265,27.59
00.281,28.76
00.296,29.47
00.312,29.9
00.328,30.03
00.343,29.74
00.359,28.89
00.375,27.45
00.390,25.65
00.406,23.82
00.421,22.37
00.437,21.51
00.453,21.23
00.468,21.24
00.484,21.11
00.500,20.49
00.515,19.18
00.531,17.22
00.546,14.81
00.562,12.32
00.578,9.97
00.593,7.89
00.609,5.97
00.625,3.97
00.640,1.6
00.656,-1.34
00.671,-4.87
00.687,-8.84
00.703,-12.96
00.718,-16.96
00.734,-20.68
00.750,-24.08
00.765,-27.36
00.781,-30.72
00.796,-34.41
00.812,-38.55
00.828,-43.02
00.843,-47.49
00.859,-51.36
00.875,-53.92
00.890,-54.51
00.906,-52.73
00.921,-48.59
00.937,-42.48
00.953,-35.1
00.968,-27.24
00.984,-19.6
01.000,-12.67
01.015,-6.71
01.031,-1.79
01.046,2.07
01.062,4.94
01.078,6.93
01.093,8.25
01.109,9.16
01.125,9.95
01.140,10.85
01.156,11.89
01.171,13.06
01.187,14.12
01.203,14.91
01.218,15.28
01.234,15.25
01.250,14.96
01.265,14.57
01.281,14.18
01.296,13.73
01.312,13.06
01.328,11.93
01.343,10.22
01.359,7.98
01.375,5.48
01.390,3.12
01.406,1.19
01.421,-0.18
01.437,-1.12
01.453,-1.93
01.468,-2.96
01.484,-4.47
01.500,-6.52
01.515,-9.06
01.531,-11.91
01.546,-14.92
01.562,-17.97
01.578,-20.97
01.593,-23.9
01.609,-26.74
01.625,-29.53
01.640,-32.35
01.656,-35.26
01.671,-38.21
01.687,-40.93
01.703,-42.84
01.718,-43.24
01.734,-41.48
01.750,-37.22
01.765,-30.61
01.781,-22.31
01.796,-13.21
01.812,-4.3
01.828,3.73
01.843,10.49
01.859,15.86
01.875,19.92
01.890,22.77
01.906,24.52
01.921,25.3
01.937,25.3
01.953,24.79
01.968,24.1
01.984,23.58
02.000,23.41
02.015,23.62
02.031,24.04
02.046,24.42
02.062,24.53
02.078,24.33
02.093,23.84
02.109,23.14
02.125,22.26
02.140,21.09
02.156,19.47
02.171,17.28
02.187,14.53
02.203,11.49
02.218,8.51
02.234,5.92
02.250,3.85
02.265,2.18
02.281,0.58
02.296,-1.28
02.312,-3.57
02.328,-6.26
02.343,-9.14
02.359,-11.99
02.375,-14.64
02.390,-17.09
02.406,-19.47
02.421,-22.03
02.437,-24.89
02.453,-28.09
02.468,-31.51
02.484,-34.89
02.500,-37.79
02.515,-39.67
02.531,-39.99
02.546,-38.36
02.562,-34.75
02.578,-29.41
02.593,-22.9
02.609,-15.89
02.625,-8.92
02.640,-2.37
02.656,3.55
02.671,8.75
02.687,13.11
02.703,16.54
02.718,18.96
02.734,20.44
02.750,21.15
02.765,21.35
02.781,21.29
02.796,21.14
02.812,20.98
02.828,20.82
02.843,20.62
02.859,20.4
02.875,20.18
02.890,19.97
02.906,19.88
02.921,19.86
02.937,19.81
02.953,19.5
02.968,18.68
02.984,17.18
03.000,15.02
03.015,12.37
03.031,9.53
03.046,6.8
03.062,4.31
03.078,2.09
03.093,0.02
03.109,-2.03
03.125,-4.15
03.140,-6.4
03.156,-8.79
03.171,-11.36
03.187,-14.05
03.203,-16.82
03.218,-19.54
03.234,-22.11
03.250,-24.51
03.265,-26.81
03.281,-29.26
03.296,-32.07
03.312,-35.32
03.328,-38.75
03.343,-41.78
03.359,-43.58
03.375,-43.33
03.390,-40.64
03.406,-35.57
03.421,-28.74
03.437,-21.01
03.453,-13.25
03.468,-6.05
03.484,0.37
03.500,6.05
03.515,11.1
03.531,15.51
03.546,19.13
03.562,21.8
03.578,23.49
03.593,24.35
03.609,24.73
03.625,25.01
03.640,25.42
03.656,25.94
03.671,26.36
03.687,26.4
03.703,25.92
03.718,24.98
03.734,23.83
03.750,22.74
03.765,21.82
03.781,21.02
03.796,20.1
03.812,18.84
03.828,17.18
03.843,15.21
03.859,13.13
03.875,11.18
03.890,9.52
03.906,8.14
03.921,6.91
03.937,5.61
03.953,3.98
03.968,1.87
03.984,-0.82
04.000,-3.99
04.015,-7.47
04.031,-10.97
04.046,-14.29
04.062,-17.35
04.078,-20.18
04.093,-23.0
04.109,-26.02
04.125,-29.41
04.140,-33.24
04.156,-37.44
04.171,-41.64
04.187,-45.33
04.203,-47.82
04.218,-48.47
04.234,-46.8
04.250,-42.74
04.265,-36.62
04.281,-29.07
04.296,-20.9
04.312,-12.79
04.328,-5.26
04.343,1.45
04.359,7.16
04.375,11.86
04.390,15.5
04.406,18.13
04.421,19.82
04.437,20.81
04.453,21.34
04.468,21.67
04.484,21.97
04.500,22.25
04.515,22.43
04.531,22.35
04.546,21.9
04.562,21.04
04.578,19.87
04.593,18.56
04.609,17.25
04.625,16.04
04.640,14.89
04.656,13.69
04.671,12.38
04.687,10.9
04.703,9.25
04.718,7.46
04.734,5.5
04.750,3.34
04.765,0.98
04.781,-1.54
04.796,-4.16
04.812,-6.86
04.828,-9.67
04.843,-12.65
04.859,-15.84
04.875,-19.14
04.890,-22.36
04.906,-25.21
04.921,-27.53
04.937,-29.35
04.953,-30.9
04.968,-32.49
04.984,-34.42
05.000,-36.89
05.015,-39.93
05.031,-43.4
05.046,-46.96
05.062,-50.09
05.078,-52.14
05.093,-52.47
05.109,-50.62
05.125,-46.46
05.140,-40.23
05.156,-32.48
05.171,-23.89
05.187,-15.12
05.203,-6.73
05.218,0.87
05.234,7.41
05.250,12.76
05.265,16.92
05.281,20.02
05.296,22.24
05.312,23.87
05.328,25.15
05.343,26.25
05.359,27.25
05.375,28.14
05.390,28.85
05.406,29.32
05.421,29.52
05.437,29.5
05.453,29.37
05.468,29.26
05.484,29.24
05.500,29.3
05.515,29.31
05.531,29.14
05.546,28.65
05.562,27.81
05.578,26.65
05.593,25.26
05.609,23.72
05.625,22.0
05.640,20.02
05.656,17.68
05.671,14.89
05.687,11.71
05.703,8.38
05.718,5.17
05.734,2.37
05.750,0.01
05.765,-2.08
05.781,-4.23
05.796,-6.75
05.812,-9.84
05.828,-13.48
05.843,-17.47
05.859,-21.53
05.875,-25.26
05.890,-28.21
05.906,-29.86
05.921,-29.67
05.937,-27.32
05.953,-22.77
05.968,-16.38
05.984,-8.88
06.000,-1.1
06.015,6.21
06.031,12.56
06.046,17.74
06.062,21.77
06.078,24.75
06.093,26.85
06.109,28.24
06.125,29.01
06.140,29.33
06.156,29.35
06.171,29.15
06.187,28.79
06.203,28.27
06.218,27.55
06.234,26.62
06.250,25.54
06.265,24.46
06.281,23.47
06.296,22.63
06.312,21.84
06.328,20.88
06.343,19.53
06.359,17.64
06.375,15.22
06.390,12.43
06.406,9.49
06.421,6.58
06.437,3.79
06.453,1.08
06.468,-1.62
06.484,-4.38
06.500,-7.19
06.515,-9.97
06.531,-12.68
06.546,-15.25
06.562,-17.71
06.578,-20.08
06.593,-22.39
06.609,-24.63
06.625,-26.83
06.640,-29.13
06.656,-31.67
06.671,-34.65
06.687,-38.03
06.703,-41.53
06.718,-44.52
06.734,-46.27
06.750,-46.08
06.765,-43.65
06.781,-39.1
06.796,-32.92
06.812,-25.71
06.828,-18.09
06.843,-10.51
06.859,-3.3
06.875,3.23
06.890,8.83
06.906,13.31
06.921,16.56
06.937,18.69
06.953,20.0
06.968,20.84
06.984,21.53
07.000,22.24
07.015,23.0
07.031,23.7
07.046,24.24
07.062,24.47
07.078,24.37
07.093,23.98
07.109,23.38
07.125,22.69
07.140,21.94
07.156,21.09
07.171,20.02
07.187,18.6
07.203,16.73
07.218,14.4
07.234,11.74
07.250,8.93
07.265,6.1
07.281,3.32
07.296,0.53
07.312,-2.4
07.328,-5.59
07.343,-9.03
07.359,-12.64
07.375,-16.21
07.390,-19.54
07.406,-22.48
07.421,-24.99
07.437,-27.22
07.453,-29.42
07.468,-31.86
07.484,-34.74
07.500,-38.12
07.515,-41.86
07.531,-45.63
07.546,-48.92
07.562,-51.13
07.578,-51.72
07.593,-50.39
07.609,-47.1
07.625,-42.14
07.640,-36.02
07.656,-29.32
07.671,-22.55
07.687,-16.03
07.703,-9.95
07.718,-4.42
07.734,0.44
07.750,4.48
07.765,7.59
07.781,9.74
07.796,11.09
07.812,11.84
07.828,12.29
07.843,12.67
07.859,13.12
07.875,13.64
07.890,14.22
07.906,14.77
07.921,15.24
07.937,15.58
07.953,15.75
07.968,15.78
07.984,15.64
08.000,15.28
08.015,14.67
08.031,13.72
08.046,12.38
08.062,10.61
08.078,8.45
08.093,6.03
08.109,3.52
08.125,1.07
08.140,-1.25
08.156,-3.47
08.171,-5.68
08.187,-8.0
08.203,-10.4
08.218,-12.83
08.234,-15.18
08.250,-17.33
08.265,-19.23
08.281,-20.92
08.296,-22.5
08.312,-24.18
08.328,-26.14
08.343,-28.39
08.359,-30.79
08.375,-32.91
08.390,-34.19
08.406,-34.05
08.421,-32.1
08.437,-28.28
08.453,-22.89
08.468,-16.5
08.484,-9.7
08.500,-3.02
08.515,3.24
08.531,8.89
08.546,13.8
08.562,17.94
08.578,21.24
08.593,23.75
08.609,25.55
08.625,26.81
08.640,27.71
08.656,28.42
08.671,29.01
08.687,29.42
08.703,29.58
08.718,29.37
08.734,28.75
08.750,27.76
08.765,26.51
08.781,25.11
08.796,23.67
08.812,22.23
08.828,20.78
08.843,19.29
08.859,17.74
08.875,16.12
08.890,14.43
08.906,12.64
08.921,10.69
08.937,8.51
08.953,6.08
08.968,3.42
08.984,0.67
09.000,-2.01
09.015,-4.43
09.031,-6.5
09.046,-8.24
09.062,-9.7
09.078,-10.98
09.093,-12.21
09.109,-13.53
09.125,-15.1
09.140,-17.03
09.156,-19.33
09.171,-21.85
09.187,-24.2
09.203,-25.8
09.218,-26.01
09.234,-24.38
09.250,-20.82
09.265,-15.61
09.281,-9.35
09.296,-2.73
09.312,3.67
09.328,9.48
09.343,14.56
09.359,18.83
09.375,22.21
09.390,24.6
09.406,25.95
09.421,26.34
09.437,26.01
09.453,25.36
09.468,24.77
09.484,24.46
09.500,24.41
09.515,24.45
09.531,24.34
09.546,23.95
09.562,23.26
09.578,22.43
09.593,21.67
09.609,21.11
09.625,20.74
09.640,20.38
09.656,19.76
09.671,18.67
09.687,17.02
09.703,14.88
09.718,12.41
09.734,9.78
09.750,7.09
09.765,4.35
09.781,1.46
09.796,-1.64
09.812,-4.97
09.828,-8.5
09.843,-12.12
09.859,-15.69
09.875,-19.09
09.890,-22.25
09.906,-25.13
09.921,-27.8
09.937,-30.47
09.953,-33.38
09.968,-36.79
09.984,-40.76
10.000,-45.11
10.015,-49.38
10.031,-52.88
10.046,-54.89
10.062,-54.81
10.078,-52.39
10.093,-47.78
10.109,-41.46
10.125,-34.05
10.140,-26.15
10.156,-18.25
10.171,-10.65
10.187,-3.57
10.203,2.82
10.218,8.36
10.234,12.96
10.250,16.61
10.265,19.39
10.281,21.41
10.296,22.74
10.312,23.45
10.328,23.55
10.343,23.07
10.359,22.13
10.375,20.88
10.390,19.51
10.406,18.14
10.421,16.9
10.437,15.83
10.453,14.95
10.468,14.15
10.484,13.26
10.500,12.05
10.515,10.35
10.531,8.09
10.546,5.4
10.562,2.52
10.578,-0.23
10.593,-2.68
10.609,-4.85
10.625,-6.86
10.640,-8.98
10.656,-11.39
10.671,-14.19
10.687,-17.25
10.703,-20.31
10.718,-23.11
10.734,-25.49
10.750,-27.46
10.765,-29.17
10.781,-30.87
10.796,-32.81
10.812,-35.16
10.828,-37.91
10.843,-40.92
10.859,-43.83
10.875,-46.15
10.890,-47.22
10.906,-46.38
10.921,-43.19
10.937,-37.56
10.953,-29.84
10.968,-20.83
10.984,-11.44
11.000,-2.48
11.015,5.5
11.031,12.27
11.046,17.86
11.062,22.36
11.078,25.88
11.093,28.59
11.109,30.6
11.125,32.04
11.140,33.06
11.156,33.73
11.171,34.03
11.187,33.91
11.203,33.3
11.218,32.25
11.234,30.97
11.250,29.65
11.265,28.5
11.281,27.62
11.296,26.91
11.312,26.22
11.328,25.35
11.343,24.22
11.359,22.88
11.375,21.52
11.390,20.26
11.406,19.19
11.421,18.29
11.437,17.37
11.453,16.25
11.468,14.78
11.484,12.82
11.500,10.34
11.515,7.34
11.531,3.85
11.546,0.02
11.562,-3.92
11.578,-7.72
11.593,-11.17
11.609,-14.22
11.625,-17.03
11.640,-19.87
11.656,-23.01
11.671,-26.47
11.687,-29.87
11.703,-32.44
11.718,-33.32
11.734,-31.81
11.750,-27.67
11.765,-21.3
11.781,-13.48
11.796,-5.13
11.812,2.91
11.828,10.18
11.843,16.48
11.859,21.75
11.875,25.99
11.890,29.12
11.906,31.1
11.921,32.06
11.937,32.29
11.953,32.19
11.968,32.1
11.984,32.17
12.000,32.31
12.015,32.31
12.031,31.91
12.046,31.0
12.062,29.65
12.078,28.11
12.093,26.6
12.109,25.21
12.125,23.86
12.140,22.36
12.156,20.49
12.171,18.12
12.187,15.31
12.203,12.23
12.218,9.13
12.234,6.22
12.250,3.65
12.265,1.45
12.281,-0.46
12.296,-2.26
12.312,-4.16
12.328,-6.38
12.343,-9.03
12.359,-12.03
12.375,-15.2
12.390,-18.36
12.406,-21.41
12.421,-24.43
12.437,-27.58
12.453,-31.05
12.468,-34.94
12.484,-39.18
12.500,-43.54
12.515,-47.6
12.531,-50.84
12.546,-52.65
12.562,-52.47
12.578,-49.94
12.593,-45.04
12.609,-38.09
12.625,-29.71
12.640,-20.68
12.656,-11.73
12.671,-3.41
12.687,3.95
12.703,10.25
12.718,15.51
12.734,19.81
12.750,23.26
12.765,25.87
12.781,27.66
12.796,28.64
12.812,28.9
12.828,28.65
12.843,28.11
12.859,27.47
12.875,26.78
12.890,26.0
12.906,25.04
12.921,23.92
12.937,22.78
12.953,21.76
12.968,20.98
12.984,20.31
13.000,19.5
13.015,18.24
13.031,16.24
13.046,13.45
13.062,10.03
13.078,6.31
13.093,2.56
13.109,-1.02
13.125,-4.43
13.140,-7.79
13.156,-11.23
13.171,-14.84
13.187,-18.58
13.203,-22.29
13.218,-25.73
13.234,-28.82
13.250,-31.56
13.265,-34.07
13.281,-36.5
13.296,-38.98
13.312,-41.57
13.328,-44.32
13.343,-47.24
13.359,-50.29
13.375,-53.28
13.390,-55.77
13.406,-57.11
13.421,-56.6
13.437,-53.72
13.453,-48.44
13.468,-41.19
13.484,-32.74
13.500,-24.01
13.515,-15.68
13.531,-8.15
13.546,-1.55
13.562,4.09
13.578,8.8
13.593,12.58
13.609,15.42
13.625,17.46
13.640,18.85
13.656,19.88
13.671,20.77
13.687,21.6
13.703,22.31
13.718,22.81
13.734,23.0
13.750,22.96
13.765,22.79
13.781,22.66
13.796,22.64
13.812,22.65
13.828,22.47
13.843,21.85
13.859,20.69
13.875,19.08
13.890,17.24
13.906,15.44
13.921,13.82
13.937,12.37
13.953,10.89
13.968,9.17
13.984,7.03
14.000,4.48
14.015,1.62
14.031,-1.35
14.046,-4.2
14.062,-6.77
14.078,-8.95
14.093,-10.77
14.109,-12.37
14.125,-13.95
14.140,-15.68
14.156,-17.77
14.171,-20.21
14.187,-22.83
14.203,-25.25
14.218,-26.93
14.234,-27.25
14.250,-25.7
14.265,-22.02
14.281,-16.31
14.296,-9.09
14.312,-1.09
14.328,6.88
14.343,14.22
14.359,20.59
14.375,25.95
14.390,30.39
14.406,34.02
14.421,36.82
14.437,38.71
14.453,39.64
14.468,39.65
14.484,38.96
14.500,37.89
14.515,36.73
14.531,35.62
14.546,34.6
14.562,33.53
14.578,32.38
14.593,31.1
14.609,29.73
14.625,28.36
14.640,27.01
14.656,25.62
14.671,24.06
14.687,22.19
14.703,19.93
14.718,17.36
14.734,14.6
14.750,11.83
14.765,9.18
14.781,6.63
14.796,4.11
14.812,1.51
14.828,-1.2
14.843,-4.03
14.859,-6.89
14.875,-9.72
14.890,-12.47
14.906,-15.16
14.921,-17.84
14.937,-20.62
14.953,-23.6
14.968,-26.87
14.984,-30.54
15.000,-34.58
15.015,-38.75
15.031,-42.53
15.046,-45.17
15.062,-45.88
15.078,-44.1
15.093,-39.71
15.109,-33.13
15.125,-25.17
15.140,-16.78
15.156,-8.74
15.171,-1.43
15.187,5.05
15.203,10.75
15.218,15.75
15.234,19.95
15.250,23.21
15.265,25.45
15.281,26.7
15.296,27.19
15.312,27.17
15.328,26.9
15.343,26.56
15.359,26.23
15.375,25.88
15.390,25.52
15.406,25.09
15.421,24.6
15.437,24.06
15.453,23.44
15.468,22.64
15.484,21.53
15.500,19.9
15.515,17.62
15.531,14.66
15.546,11.21
15.562,7.64
15.578,4.37
15.593,1.67
15.609,-0.39
15.625,-2.04
15.640,-3.63
15.656,-5.51
15.671,-7.88
15.687,-10.69
15.703,-13.71
15.718,-16.65
15.734,-19.27
15.750,-21.49
15.765,-23.39
15.781,-25.18
15.796,-27.13
15.812,-29.5
15.828,-32.53
15.843,-36.3
15.859,-40.57
15.875,-44.81
15.890,-48.2
15.906,-49.85
15.921,-49.13
15.937,-45.85
15.953,-40.31
15.968,-33.18
15.984,-25.29
16.000,-17.32
16.015,-9.73
16.031,-2.7
16.046,3.62
16.062,9.14
16.078,13.81
16.093,17.59
16.109,20.56
16.125,22.88
16.140,24.68
16.156,26.05
16.171,27.0
16.187,27.42
16.203,27.25
16.218,26.57
16.234,25.52
16.250,24.28
16.265,23.04
16.281,21.82
16.296,20.59
16.312,19.29
16.328,17.9
16.343,16.43
16.359,14.93
16.375,13.43
16.390,11.89
16.406,10.24
16.421,8.4
16.437,6.3
16.453,3.94
16.468,1.35
16.484,-1.44
16.500,-4.37
16.515,-7.45
16.531,-10.64
16.546,-13.92
16.562,-17.28
16.578,-20.72
16.593,-24.24
16.609,-27.78
16.625,-31.26
16.640,-34.54
16.656,-37.54
16.671,-40.22
16.687,-42.68
16.703,-45.07
16.718,-47.51
16.734,-49.94
16.750,-52.01
16.765,-53.19
16.781,-52.86
16.796,-50.57
16.812,-46.18
16.828,-39.93
16.843,-32.38
16.859,-24.2
16.875,-16.03
16.890,-8.32
16.906,-1.36
16.921,4.73
16.937,9.9
16.953,14.11
16.968,17.39
16.984,19.84
17.000,21.66
17.015,23.09
17.031,24.34
17.046,25.48
17.062,26.46
17.078,27.14
17.093,27.32
17.109,26.95
17.125,26.12
17.140,25.11
17.156,24.17
17.171,23.56
17.187,23.27
17.203,23.19
17.218,23.06
17.234,22.68
17.250,21.92
17.265,20.85
17.281,19.63
17.296,18.43
17.312,17.32
17.328,16.21
17.343,14.92
17.359,13.21
17.375,10.97
17.390,8.24
17.406,5.24
17.421,2.21
17.437,-0.65
17.453,-3.23
17.468,-5.58
17.484,-7.78
17.500,-9.96
17.515,-12.21
17.531,-14.65
17.546,-17.39
17.562,-20.47
17.578,-23.74
17.593,-26.82
17.609,-29.1
17.625,-29.9
17.640,-28.67
17.656,-25.21
17.671,-19.71
17.687,-12.72
17.703,-4.94
17.718,2.93
17.734,10.32
17.750,16.82
17.765,22.24
17.781,26.45
17.796,29.47
17.812,31.39
17.828,32.35
17.843,32.58
17.859,32.31
17.875,31.81
17.890,31.23
17.906,30.76
17.921,30.43
17.937,30.23
17.953,30.09
17.968,29.92
17.984,29.64
18.000,29.29
18.015,28.89
18.031,28.42
18.046,27.82
18.062,26.93
18.078,25.53
18.093,23.49
18.109,20.83
18.125,17.65
18.140,14.27
18.156,10.92
18.171,7.8
18.187,4.86
18.203,1.88
18.218,-1.37
18.234,-4.98
18.250,-8.87
18.265,-12.8
18.281,-16.42
18.296,-19.52
18.312,-22.05
18.328,-24.19
18.343,-26.22
18.359,-28.46
18.375,-31.05
18.390,-34.07
18.406,-37.45
18.421,-40.96
18.437,-44.2
18.453,-46.65
18.468,-47.68
18.484,-46.77
18.500,-43.72
18.515,-38.61
18.531,-31.94
18.546,-24.4
18.562,-16.69
18.578,-9.36
18.593,-2.72
18.609,3.15
18.625,8.2
18.640,12.39
18.656,15.68
18.671,18.06
18.687,19.6
18.703,20.49
18.718,20.92
18.734,21.11
18.750,21.2
18.765,21.2
18.781,21.08
18.796,20.78
18.812,20.26
18.828,19.53
18.843,18.61
18.859,17.51
18.875,16.3
18.890,15.01
18.906,13.69
18.921,12.32
18.937,10.8
18.953,9.06
18.968,7.04
18.984,4.78
19.000,2.35
19.015,-0.12
19.031,-2.6
19.046,-5.15
19.062,-7.89
19.078,-10.94
19.093,-14.31
19.109,-17.86
19.125,-21.36
19.140,-24.63
19.156,-27.57
19.171,-30.24
19.187,-32.75
19.203,-35.24
19.218,-37.84
19.234,-40.65
19.250,-43.66
19.265,-46.81
19.281,-49.9
19.296,-52.52
19.312,-54.14
19.328,-54.18
19.343,-52.21
19.359,-48.09
19.375,-42.06
19.390,-34.65
19.406,-26.58
19.421,-18.43
19.437,-10.67
19.453,-3.52
19.468,2.95
19.484,8.71
19.500,13.62
19.515,17.59
19.531,20.47
19.546,22.24
19.562,23.03
19.578,23.07
19.593,22.67
19.609,22.12
19.625,21.62
19.640,21.27
19.656,21.09
19.671,21.06
19.687,21.13
19.703,21.32
19.718,21.52
19.734,21.62
19.750,21.45
19.765,20.82
19.781,19.61
19.796,17.86
19.812,15.68
19.828,13.31
19.843,10.97
19.859,8.82
19.875,6.9
19.890,5.19
19.906,3.58
19.921,1.94
19.937,0.17
19.953,-1.75
19.968,-3.82
19.984,-5.94
20.000,-8.04
20.015,-10.09
20.031,-12.15
20.046,-14.39
20.062,-16.95
20.078,-19.96
20.093,-23.38
20.109,-27.0
20.125,-30.38
20.140,-32.96
20.156,-34.11
20.171,-33.31
20.187,-30.31
20.203,-25.15
20.218,-18.26
20.234,-10.32
20.250,-2.06
20.265,5.86
20.281,13.06
20.296,19.34
20.312,24.64
20.328,28.88
20.343,31.96
20.359,33.85
20.375,34.59
20.390,34.48
20.406,33.88
20.421,33.23
20.437,32.72
20.453,32.39
20.468,32.06
20.484,31.54
20.500,30.76
20.515,29.72
20.531,28.59
20.546,27.46
20.562,26.34
20.578,25.15
20.593,23.72
20.609,21.95
20.625,19.72
20.640,17.07
20.656,14.04
20.671,10.78
20.687,7.44
20.703,4.14
20.718,0.92
20.734,-2.3
20.750,-5.56
20.765,-8.92
20.781,-12.32
20.796,-15.65
20.812,-18.74
20.828,-21.5
20.843,-23.93
20.859,-26.15
20.875,-28.35
20.890,-30.76
20.906,-33.6
20.921,-36.94
20.937,-40.63
20.953,-44.25
20.968,-47.16
20.984,-48.62
21.000,-48.0
21.015,-44.96
21.031,-39.55
21.046,-32.21
21.062,-23.61
21.078,-14.57
21.093,-5.77
21.109,2.26
21.125,9.22
21.140,15.02
21.156,19.75
21.171,23.54
21.187,26.51
21.203,28.77
21.218,30.4
21.234,31.51
21.250,32.22
21.265,32.65
21.281,32.87
21.296,32.85
21.312,32.49
21.328,31.69
21.343,30.45
21.359,28.87
21.375,27.19
21.390,25.63
21.406,24.31
21.421,23.22
21.437,22.18
21.453,20.98
21.468,19.44
21.484,17.5
21.500,15.17
21.515,12.57
21.531,9.8
21.546,7.0
21.562,4.23
21.578,1.51
21.593,-1.18
21.609,-3.91
21.625,-6.74
21.640,-9.8
21.656,-13.1
21.671,-16.61
21.687,-20.21
21.703,-23.78
21.718,-27.18
21.734,-30.44
21.750,-33.7
21.765,-37.22
21.781,-41.22
21.796,-45.7
21.812,-50.34
21.828,-54.44
21.843,-57.19
21.859,-57.79
21.875,-55.83
21.890,-51.37
21.906,-44.86
21.921,-36.97
21.937,-28.45
21.953,-19.91
21.968,-11.77
21.984,-4.32
22.000,2.22
22.015,7.72
22.031,12.14
22.046,15.52
22.062,18.01
22.078,19.81
22.093,21.1
22.109,22.02
22.125,22.55
22.140,22.66
22.156,22.29
22.171,21.47
22.187,20.35
22.203,19.2
22.218,18.38
22.234,18.05
22.250,18.26
22.265,18.74
22.281,19.09
22.296,18.94
22.312,17.99
22.328,16.24
22.343,13.85
22.359,11.14
22.375,8.38
22.390,5.77
22.406,3.37
22.421,1.11
22.437,-1.01
22.453,-3.09
22.468,-5.17
22.484,-7.32
22.500,-9.54
22.515,-11.85
22.531,-14.19
22.546,-16.45
22.562,-18.58
22.578,-20.53
22.593,-22.36
22.609,-24.21
22.625,-26.26
22.640,-28.62
22.656,-31.3
22.671,-34.12
22.687,-36.69
22.703,-38.47
22.718,-38.83
22.734,-37.22
22.750,-33.36
22.765,-27.38
22.781,-19.78
22.796,-11.26
22.812,-2.56
22.828,5.78
22.843,13.44
22.859,20.32
22.875,26.26
22.890,31.12
22.906,34.64
22.921,36.7
22.937,37.41
22.953,37.09
22.968,36.26
22.984,35.38
23.000,34.71
23.015,34.32
23.031,34.11
23.046,33.87
23.062,33.56
23.078,33.16
23.093,32.76
23.109,32.42
23.125,32.05
23.140,31.46
23.156,30.43
23.171,28.8
23.187,26.55
23.203,23.87
23.218,21.05
23.234,18.4
23.250,16.08
23.265,14.02
23.281,11.97
23.296,9.63
23.312,6.77
23.328,3.33
23.343,-0.52
23.359,-4.51
23.375,-8.31
23.390,-11.69
23.406,-14.64
23.421,-17.32
23.437,-19.94
23.453,-22.71
23.468,-25.76
23.484,-29.04
23.500,-32.37
23.515,-35.43
23.531,-37.76
23.546,-38.82
23.562,-38.12
23.578,-35.29
23.593,-30.27
23.609,-23.36
23.625,-15.18
23.640,-6.52
23.656,1.84
23.671,9.36
23.687,15.73
23.703,20.95
23.718,25.17
23.734,28.56
23.750,31.25
23.765,33.22
23.781,34.38
23.796,34.71
23.812,34.31
23.828,33.45
23.843,32.43
23.859,31.47
23.875,30.63
23.890,29.82
23.906,28.94
23.921,27.95
23.937,26.88
23.953,25.82
23.968,24.76
23.984,23.58
24.000,22.14
24.015,20.28
24.031,17.99
24.046,15.4
24.062,12.64
24.078,9.86
24.093,7.13
24.109,4.47
24.125,1.8
24.140,-0.89
24.156,-3.7
24.171,-6.7
24.187,-9.85
24.203,-13.15
24.218,-16.39
24.234,-19.42
24.250,-22.06
24.265,-24.33
24.281,-26.43
24.296,-28.64
24.312,-31.3
24.328,-34.53
24.343,-38.35
24.359,-42.43
24.375,-46.22
24.390,-48.98
24.406,-50.0
24.421,-48.71
24.437,-44.9
24.453,-38.82
24.468,-31.05
24.484,-22.41
24.500,-13.61
24.515,-5.21
24.531,2.51
24.546,9.47
24.562,15.61
24.578,20.83
24.593,25.02
24.609,28.05
24.625,29.88
24.640,30.69
24.656,30.76
24.671,30.41
24.687,29.94
24.703,29.47
24.718,29.03
24.734,28.5
24.750,27.8
24.765,26.85
24.781,25.68
24.796,24.3
24.812,22.73
24.828,20.96
24.843,18.94
24.859,16.64
24.875,14.01
24.890,11.07
24.906,7.92
24.921,4.68
24.937,1.54
24.953,-1.31
24.968,-3.78
24.984,-5.95
25.000,-8.03
25.015,-10.34
25.031,-13.14
25.046,-16.53
25.062,-20.33
25.078,-24.25
25.093,-27.92
25.109,-31.12
25.125,-33.8
25.140,-36.15
25.156,-38.45
25.171,-41.02
25.187,-44.09
25.203,-47.72
25.218,-51.75
25.234,-55.73
25.250,-59.0
25.265,-60.73
25.281,-60.2
25.296,-56.98
25.312,-51.08
25.328,-43.0
25.343,-33.57
25.359,-23.69
25.375,-14.17
25.390,-5.54
25.406,1.97
25.421,8.32
25.437,13.54
25.453,17.7
25.468,20.84
25.484,22.95
25.500,24.14
25.515,24.59
25.531,24.55
25.546,24.3
25.562,24.03
25.578,23.79
25.593,23.54
25.609,23.11
25.625,22.38
25.640,21.34
25.656,20.12
25.671,18.89
25.687,17.78
25.703,16.83
25.718,15.87
25.734,14.71
25.750,13.17
25.765,11.14
25.781,8.76
25.796,6.2
25.812,3.68
25.828,1.35
25.843,-0.75
25.859,-2.7
25.875,-4.55
25.890,-6.34
25.906,-8.07
25.921,-9.73
25.937,-11.32
25.953,-12.79
25.968,-13.99
25.984,-14.7
26.000,-14.72
26.015,-13.96
26.031,-12.59
26.046,-11.0
26.062,-9.6
26.078,-8.69
26.093,-8.17
26.109,-7.55
26.125,-6.09
26.140,-3.06
26.156,1.95
26.171,8.96
26.187,17.48
26.203,26.76
26.218,35.89
26.234,44.06
26.250,50.63
26.265,55.23
26.281,57.71
26.296,58.18
26.312,56.85
26.328,54.03
26.343,50.13
26.359,45.53
26.375,40.57
26.390,35.56
26.406,30.75
26.421,26.26
26.437,22.19
26.453,18.52
26.468,15.19
26.484,12.15
26.500,9.36
26.515,6.79
26.531,4.45
26.546,2.37
26.562,0.47
26.578,-1.33
26.593,-3.2
26.609,-5.31
26.625,-7.66
26.640,-10.18
26.656,-12.67
26.671,-14.87
26.687,-16.61
26.703,-17.9
26.718,-18.93
26.734,-19.98
26.750,-21.37
26.765,-23.13
26.781,-25.18
26.796,-27.25
26.812,-29.09
26.828,-30.63
26.843,-32.01
26.859,-33.52
26.875,-35.45
26.890,-38.0
26.906,-41.12
26.921,-44.51
26.937,-47.61
26.953,-49.75
26.968,-50.22
26.984,-48.46
27.000,-44.24
27.015,-37.74
27.031,-29.49
27.046,-20.29
27.062,-10.96
27.078,-2.13
27.093,5.77
27.109,12.6
27.125,18.36
27.140,23.15
27.156,26.98
27.171,29.86
27.187,31.8
27.203,32.84
27.218,33.16
27.234,32.99
27.250,32.6
27.265,32.14
27.281,31.61
27.296,30.91
27.312,29.98
27.328,28.86
27.343,27.76
27.359,26.9
27.375,26.33
27.390,25.93
27.406,25.42
27.421,24.45
27.437,22.83
27.453,20.59
27.468,17.89
27.484,14.87
27.500,11.67
27.515,8.32
27.531,4.9
27.546,1.51
27.562,-1.79
27.578,-4.97
27.593,-8.15
27.609,-11.48
27.625,-15.12
27.640,-19.03
27.656,-23.05
27.671,-26.92
27.687,-30.41
27.703,-33.49
27.718,-36.27
27.734,-39.01
27.750,-41.94
27.765,-45.17
27.781,-48.59
27.796,-51.88
27.812,-54.5
27.828,-55.81
27.843,-55.25
27.859,-52.46
27.875,-47.49
27.890,-40.75
27.906,-32.92
27.921,-24.69
27.937,-16.73
27.953,-9.4
27.968,-2.86
27.984,2.87
28.000,7.85
28.015,12.05
28.031,15.42
28.046,17.89
28.062,19.49
28.078,20.29
28.093,20.47
28.109,20.24
28.125,19.76
28.140,19.17
28.156,18.48
28.171,17.7
28.187,16.86
28.203,16.09
28.218,15.5
28.234,15.15
28.250,14.99
28.265,14.81
28.281,14.4
28.296,13.52
28.312,12.12
28.328,10.26
28.343,8.08
28.359,5.81
28.375,3.55
28.390,1.33
28.406,-0.92
28.421,-3.25
28.437,-5.76
28.453,-8.49
28.468,-11.36
28.484,-14.27
28.500,-17.02
28.515,-19.42
28.531,-21.38
28.546,-22.96
28.562,-24.33
28.578,-25.83
28.593,-27.75
28.609,-30.22
28.625,-33.17
28.640,-36.23
28.656,-38.88
28.671,-40.43
28.687,-40.26
28.703,-37.89
28.718,-33.17
28.734,-26.3
28.750,-17.82
28.765,-8.51
28.781,0.8
28.796,9.39
28.812,16.8
28.828,22.81
28.843,27.46
28.859,30.89
28.875,33.3
28.890,34.87
28.906,35.73
28.921,36.0
28.937,35.85
28.953,35.42
28.968,34.88
28.984,34.38
29.000,33.99
29.015,33.73
29.031,33.55
29.046,33.39
29.062,33.23
29.078,33.08
29.093,32.87
29.109,32.53
29.125,31.92
29.140,30.93
29.156,29.59
29.171,27.98
29.187,26.3
29.203,24.73
29.218,23.39
29.234,22.27
29.250,21.37
29.265,20.68
29.281,20.16
29.296,19.84
29.312,19.65
29.328,19.4
29.343,18.94
29.359,18.21
29.375,17.25
29.390,16.2
29.406,15.26
29.421,14.57
29.437,14.22
29.453,14.24
29.468,14.58
29.484,15.25
29.500,16.19
29.515,17.26
29.531,18.27
29.546,18.98
29.562,19.22
29.578,18.99
29.593,18.37
29.609,17.56
29.625,16.69
29.640,15.78
29.656,14.76
29.671,13.55
29.687,12.09
29.703,10.39
29.718,8.54
29.734,6.59
29.750,4.51
29.765,2.28
29.781,-0.13
29.796,-2.67
29.812,-5.22
29.828,-7.67
29.843,-10.0
29.859,-12.24
29.875,-14.51
29.890,-16.91
29.906,-19.4
29.921,-21.89
29.937,-24.24
29.953,-26.32
29.968,-28.14
29.984,-29.8
30.000,-31.42
30.015,-33.08
30.031,-34.81
30.046,-36.59
30.062,-38.44
30.078,-40.41
30.093,-42.48
30.109,-44.6
30.125,-46.65
30.140,-48.54
30.156,-50.29
30.171,-52.1
30.187,-54.3
30.203,-57.18
30.218,-60.78
30.234,-64.75
30.250,-68.34
30.265,-70.62
30.281,-70.68
30.296,-67.94
30.312,-62.31
30.328,-54.19
30.343,-44.41
30.359,-33.92
30.375,-23.67
30.390,-14.35
30.406,-6.34
30.421,0.31
30.437,5.7
30.453,9.95
30.468,13.18
30.484,15.41
30.500,16.73
30.515,17.33
30.531,17.45
30.546,17.42
30.562,17.43
30.578,17.56
30.593,17.72
30.609,17.81
30.625,17.77
30.640,17.62
30.656,17.39
30.671,17.13
30.687,16.8
30.703,16.32
30.718,15.6
30.734,14.57
30.750,13.21
30.765,11.49
30.781,9.42
30.796,7.03
30.812,4.42
30.828,1.81
30.843,-0.51
30.859,-2.21
30.875,-3.06
30.890,-2.98
30.906,-2.19
30.921,-1.1
30.937,-0.22
30.953,-0.07
30.968,-1.02
30.984,-3.32
31.000,-6.95
31.015,-11.72
31.031,-17.18
31.046,-22.56
31.062,-26.9
31.078,-29.27
31.093,-29.01
31.109,-26.07
31.125,-21.01
31.140,-14.81
31.156,-8.56
31.171,-3.1
31.187,1.2
31.203,4.44
31.218,6.92
31.234,8.97
31.250,10.8
31.265,12.39
31.281,13.67
31.296,14.59
31.312,15.16
31.328,15.42
31.343,15.46
31.359,15.34
31.375,15.12
31.390,14.88
31.406,14.6
31.421,14.26
31.437,13.82
31.453,13.23
31.468,12.45
31.484,11.46
31.500,10.21
31.515,8.66
31.531,6.74
31.546,4.36
31.562,1.48
31.578,-1.86
31.593,-5.62
31.609,-9.68
31.625,-13.89
31.640,-18.12
31.656,-22.12
31.671,-25.6
31.687,-28.25
31.703,-29.84
31.718,-30.31
31.734,-29.89
31.750,-29.05
31.765,-28.36
31.781,-28.29
31.796,-28.97
31.812,-30.11
31.828,-31.02
31.843,-30.84
31.859,-28.8
31.875,-24.49
31.890,-17.99
31.906,-9.85
31.921,-0.9
31.937,8.04
31.953,16.32
31.968,23.58
31.984,29.68
32.000,34.59
32.015,38.36
32.031,41.1
32.046,42.9
32.062,43.83
32.078,44.02
32.093,43.56
32.109,42.57
32.125,41.24
32.140,39.76
32.156,38.33
32.171,37.08
32.187,36.05
32.203,35.11
32.218,34.08
32.234,32.85
32.250,31.33
32.265,29.54
32.281,27.52
32.296,25.27
32.312,22.73
32.328,19.83
32.343,16.53
32.359,12.85
32.375,8.86
32.390,4.7
32.406,0.56
32.421,-3.41
32.437,-7.05
32.453,-10.27
32.468,-13.08
32.484,-15.6
32.500,-18.05
32.515,-20.69
32.531,-23.76
32.546,-27.36
32.562,-31.41
32.578,-35.52
32.593,-39.06
32.609,-41.26
32.625,-41.41
32.640,-39.05
32.656,-34.11
32.671,-26.97
32.687,-18.37
32.703,-9.15
32.718,-0.09
32.734,8.34
32.750,15.94
32.765,22.64
32.781,28.41
32.796,33.16
32.812,36.77
32.828,39.15
32.843,40.34
32.859,40.54
32.875,40.03
32.890,39.08
32.906,37.9
32.921,36.55
32.937,35.14
32.953,33.73
32.968,32.4
32.984,31.22
33.000,30.17
33.015,29.15
33.031,27.93
33.046,26.34
33.062,24.22
33.078,21.54
33.093,18.42
33.109,15.06
33.125,11.67
33.140,8.4
33.156,5.28
33.171,2.26
33.187,-0.79
33.203,-4.01
33.218,-7.46
33.234,-11.1
33.250,-14.8
33.265,-18.42
33.281,-21.87
33.296,-25.18
33.312,-28.42
33.328,-31.75
33.343,-35.31
33.359,-39.21
33.375,-43.44
33.390,-47.87
33.406,-52.09
33.421,-55.47
33.437,-57.21
33.453,-56.51
33.468,-52.95
33.484,-46.55
33.500,-37.91
33.515,-27.94
33.531,-17.65
33.546,-7.8
33.562,1.15
33.578,8.96
33.593,15.6
33.609,21.11
33.625,25.56
33.640,29.07
33.656,31.75
33.671,33.7
33.687,34.99
33.703,35.7
33.718,35.85
33.734,35.57
33.750,34.99
33.765,34.25
33.781,33.5
33.796,32.78
33.812,32.11
33.828,31.41
33.843,30.64
33.859,29.71
33.875,28.55
33.890,27.14
33.906,25.42
33.921,23.38
33.937,20.95
33.953,18.09
33.968,14.74
33.984,10.97
34.000,6.87
34.015,2.61
34.031,-1.68
34.046,-6.02
34.062,-10.46
34.078,-15.11
34.093,-19.94
34.109,-24.75
34.125,-29.2
34.140,-32.93
34.156,-35.81
34.171,-37.95
34.187,-39.76
34.203,-41.67
34.218,-44.06
34.234,-47.06
34.250,-50.62
34.265,-54.41
34.281,-57.95
34.296,-60.61
34.312,-61.67
34.328,-60.45
34.343,-56.52
34.359,-49.89
34.375,-41.12
34.390,-31.18
34.406,-21.11
34.421,-11.7
34.437,-3.3
34.453,4.13
34.468,10.81
34.484,16.87
34.500,22.26
34.515,26.75
34.531,30.07
34.546,32.19
34.562,33.23
34.578,33.54
34.593,33.43
34.609,33.06
34.625,32.45
34.640,31.56
34.656,30.35
34.671,28.93
34.687,27.5
34.703,26.23
34.718,25.12
34.734,24.02
34.750,22.66
34.765,20.84
34.781,18.57
34.796,16.01
34.812,13.41
34.828,10.91
34.843,8.55
34.859,6.24
34.875,3.93
34.890,1.62
34.906,-0.63
34.921,-2.86
34.937,-5.12
34.953,-7.55
34.968,-10.21
34.984,-12.99
35.000,-15.65
35.015,-17.94
35.031,-19.72
35.046,-21.11
35.062,-22.49
35.078,-24.25
35.093,-26.74
35.109,-30.03
35.125,-33.86
35.140,-37.67
35.156,-40.73
35.171,-42.2
35.187,-41.41
35.203,-38.0
35.218,-31.97
35.234,-23.82
35.250,-14.35
35.265,-4.46
35.281,5.07
35.296,13.71
35.312,21.22
35.328,27.51
35.343,32.57
35.359,36.42
35.375,39.06
35.390,40.58
35.406,41.23
35.421,41.31
35.437,41.1
35.453,40.79
35.468,40.32
35.484,39.56
35.500,38.38
35.515,36.78
35.531,34.95
35.546,33.15
35.562,31.61
35.578,30.37
35.593,29.33
35.609,28.21
35.625,26.73
35.640,24.74
35.656,22.28
35.671,19.57
35.687,16.93
35.703,14.58
35.718,12.6
35.734,10.86
35.750,9.11
35.765,7.06
35.781,4.48
35.796,1.34
35.812,-2.25
35.828,-6.11
35.843,-10.06
35.859,-13.94
35.875,-17.7
35.890,-21.31
35.906,-24.77
35.921,-28.11
35.937,-31.4
35.953,-34.71
35.968,-38.05
35.984,-41.29
36.000,-44.06
36.015,-45.82
36.031,-45.88
36.046,-43.68
36.062,-39.03
36.078,-32.16
36.093,-23.76
36.109,-14.7
36.125,-5.73
36.140,2.62
36.156,10.15
36.171,16.88
36.187,22.81
36.203,27.89
36.218,31.99
36.234,35.0
36.250,36.94
36.265,37.97
36.281,38.36
36.296,38.33
36.312,37.99
36.328,37.31
36.343,36.19
36.359,34.65
36.375,32.82
36.390,30.99
36.406,29.38
36.421,28.16
36.437,27.25
36.453,26.42
36.468,25.37
36.484,23.86
36.500,21.81
36.515,19.3
36.531,16.51
36.546,13.61
36.562,10.71
36.578,7.87
36.593,5.11
36.609,2.4
36.625,-0.26
36.640,-2.95
36.656,-5.78
36.671,-8.9
36.687,-12.37
36.703,-16.21
36.718,-20.26
36.734,-24.27
36.750,-27.97
36.765,-31.18
36.781,-33.84
36.796,-36.06
36.812,-38.06
36.828,-40.07
36.843,-42.31
36.859,-44.91
36.875,-47.87
36.890,-51.0
36.906,-53.93
36.921,-56.08
36.937,-56.76
36.953,-55.4
36.968,-51.69
36.984,-45.78
37.000,-38.16
37.015,-29.58
37.031,-20.74
37.046,-12.19
37.062,-4.26
37.078,2.9
37.093,9.22
37.109,14.69
37.125,19.25
37.140,22.93
37.156,25.72
37.171,27.67
37.187,28.82
37.203,29.24
37.218,29.04
37.234,28.37
37.250,27.41
37.265,26.3
37.281,25.1
37.296,23.83
37.312,22.44
37.328,20.96
37.343,19.46
37.359,18.01
37.375,16.65
37.390,15.33
37.406,13.92
37.421,12.24
37.437,10.15
37.453,7.67
37.468,4.96
37.484,2.18
37.500,-0.46
37.515,-2.86
37.531,-5.04
37.546,-7.06
37.562,-9.08
37.578,-11.18
37.593,-13.46
37.609,-15.9
37.625,-18.42
37.640,-20.94
37.656,-23.34
37.671,-25.62
37.687,-27.78
37.703,-29.93
37.718,-32.15
37.734,-34.58
37.750,-37.21
37.765,-40.02
37.781,-42.99
37.796,-45.98
37.812,-48.83
37.828,-51.15
37.843,-52.44
37.859,-52.16
37.875,-49.9
37.890,-45.54
37.906,-39.28
37.921,-31.64
37.937,-23.24
37.953,-14.67
37.968,-6.31
37.984,1.51
38.000,8.57
38.015,14.69
38.031,19.69
38.046,23.52
38.062,26.23
38.078,27.98
38.093,29.0
38.109,29.51
38.125,29.68
38.140,29.65
38.156,29.52
38.171,29.31
38.187,29.07
38.203,28.79
38.218,28.46
38.234,28.08
38.250,27.71
38.265,27.37
38.281,27.03
38.296,26.6
38.312,25.83
38.328,24.57
38.343,22.76
38.359,20.55
38.375,18.18
38.390,15.94
38.406,13.97
38.421,12.28
38.437,10.79
38.453,9.24
38.468,7.49
38.484,5.39
38.500,2.86
38.515,-0.09
38.531,-3.32
38.546,-6.65
38.562,-9.92
38.578,-12.97
38.593,-15.83
38.609,-18.49
38.625,-21.07
38.640,-23.64
38.656,-26.25
38.671,-28.93
38.687,-31.61
38.703,-34.12
38.718,-36.04
38.734,-36.86
38.750,-35.94
38.765,-32.86
38.781,-27.57
38.796,-20.44
38.812,-12.23
38.828,-3.8
38.843,4.13
38.859,11.16
38.875,17.18
38.890,22.26
38.906,26.52
38.921,29.99
38.937,32.66
38.953,34.45
38.968,35.39
38.984,35.59
39.000,35.28
39.015,34.69
39.031,33.98
39.046,33.2
39.062,32.29
39.078,31.16
39.093,29.77
39.109,28.23
39.125,26.76
39.140,25.59
39.156,24.79
39.171,24.21
39.187,23.55
39.203,22.42
39.218,20.57
39.234,17.92
39.250,14.7
39.265,11.27
39.281,8.02
39.296,5.19
39.312,2.79
39.328,0.66
39.343,-1.49
39.359,-3.91
39.375,-6.67
39.390,-9.74
39.406,-12.94
39.421,-16.08
39.437,-19.09
39.453,-21.93
39.468,-24.62
39.484,-27.24
39.500,-29.89
39.515,-32.71
39.531,-35.89
39.546,-39.53
39.562,-43.53
39.578,-47.58
39.593,-51.02
39.609,-53.06
39.625,-52.97
39.640,-50.33
39.656,-45.14
39.671,-37.82
39.687,-29.13
39.703,-19.86
39.718,-10.8
39.734,-2.49
39.750,4.75
39.765,10.83
39.781,15.8
39.796,19.75
39.812,22.78
39.828,24.98
39.843,26.46
39.859,27.36
39.875,27.92
39.890,28.36
39.906,28.79
39.921,29.24
39.937,29.55
39.953,29.58
39.968,29.23
39.984,28.57
40.000,27.67
40.015,26.66
40.031,25.5
40.046,24.08
40.062,22.27
40.078,19.97
40.093,17.18
40.109,13.99
40.125,10.56
40.140,7.02
40.156,3.47
40.187,-3.33
40.203,-6.47
40.218,-9.4
40.234,-12.16
40.250,-14.87
40.265,-17.64
40.281,-20.49
40.296,-23.43
40.312,-26.37
40.328,-29.23
40.343,-31.98
40.359,-34.68
40.375,-37.41
40.390,-40.28
40.406,-43.34
40.421,-46.6
40.437,-50.06
40.453,-53.63
40.468,-57.09
40.484,-60.01
40.500,-61.79
40.515,-61.7
40.531,-59.19
40.546,-54.01
40.562,-46.44
40.578,-37.23
40.593,-27.3
40.609,-17.56
40.625,-8.59
40.640,-0.64
40.656,6.28
40.671,12.22
40.687,17.22
40.703,21.24
40.718,24.26
40.734,26.32
40.750,27.55
40.765,28.18
40.781,28.48
40.796,28.62
40.812,28.62
40.828,28.47
40.843,28.07
40.859,27.43
40.875,26.61
40.890,25.78
40.906,25.08
40.921,24.56
40.937,24.08
40.953,23.34
40.968,22.09
40.984,20.16
41.000,17.71
41.015,15.08
41.031,12.67
41.046,10.73
41.062,9.23
41.078,7.93
41.093,6.42
41.109,4.48
41.125,2.0
41.140,-0.87
41.156,-3.89
41.171,-6.81
41.187,-9.44
41.203,-11.74
41.218,-13.71
41.234,-15.52
41.250,-17.29
41.265,-19.29
41.281,-21.77
41.296,-24.87
41.312,-28.57
41.328,-32.54
41.343,-36.18
41.359,-38.6
41.375,-38.92
41.390,-36.43
41.406,-31.02
41.421,-23.12
41.437,-13.65
41.453,-3.71
41.468,5.75
41.484,14.12
41.500,21.14
41.515,26.79
41.531,31.13
41.546,34.17
41.562,35.94
41.578,36.53
41.593,36.17
41.609,35.23
41.625,34.1
41.640,33.11
41.656,32.42
41.671,31.98
41.687,31.63
41.703,31.17
41.718,30.53
41.734,29.76
41.750,29.02
41.765,28.45
41.781,28.05
41.796,27.63
41.812,26.85
41.828,25.38
41.843,23.1
41.859,20.09
41.875,16.66
41.890,13.19
41.906,9.97
41.921,7.07
41.937,4.39
41.953,1.71
41.968,-1.14
41.984,-4.2
42.000,-7.4
42.015,-10.6
42.031,-13.69
42.046,-16.67
42.062,-19.57
42.078,-22.53
42.093,-25.66
42.109,-29.05
42.125,-32.73
42.140,-36.71
42.156,-40.86
42.171,-44.86
42.187,-48.11
42.203,-49.84
42.218,-49.36
42.234,-46.17
42.250,-40.3
42.265,-32.28
42.281,-23.01
42.296,-13.43
42.312,-4.36
42.328,3.72
42.343,10.62
42.359,16.3
42.375,20.87
42.390,24.4
42.406,26.96
42.421,28.57
42.437,29.37
42.453,29.56
42.468,29.38
42.484,29.13
42.500,28.95
42.515,28.94
42.531,29.07
42.546,29.22
42.562,29.31
42.578,29.29
42.593,29.16
42.609,28.87
42.625,28.37
42.640,27.55
42.656,26.37
42.671,24.86
42.687,23.09
42.703,21.17
42.718,19.13
42.734,16.94
42.750,14.56
42.765,11.97
42.781,9.14
42.796,6.1
42.812,2.81
42.828,-0.78
42.843,-4.73
42.859,-9.02
42.875,-13.52
42.890,-17.99
42.906,-22.2
42.921,-25.97
42.937,-29.24
42.953,-32.12
42.968,-34.82
42.984,-37.57
43.000,-40.59
43.015,-44.01
43.031,-47.66
43.046,-51.17
43.062,-53.85
43.078,-54.94
43.093,-53.79
43.109,-50.06
43.125,-43.83
43.140,-35.6
43.156,-26.17
43.171,-16.36
43.187,-6.84
43.203,1.96
43.218,9.79
43.234,16.54
43.250,22.22
43.265,26.77
43.281,30.21
43.296,32.54
43.312,33.82
43.328,34.19
43.343,33.88
43.359,33.12
43.375,32.16
43.390,31.18
43.406,30.23
43.421,29.25
43.437,28.2
43.453,27.07
43.468,25.92
43.484,24.88
43.500,23.93
43.515,22.94
43.531,21.65
43.546,19.76
43.562,17.11
43.578,13.77
43.593,10.03
43.609,6.22
43.625,2.56
43.640,-0.85
43.656,-4.02
43.671,-6.98
43.687,-9.74
43.703,-12.3
43.718,-14.71
43.734,-17.11
43.750,-19.66
43.765,-22.48
43.781,-25.54
43.796,-28.66
43.812,-31.63
43.828,-34.34
43.843,-36.88
43.859,-39.45
43.875,-42.34
43.890,-45.75
43.906,-49.72
43.921,-54.07
43.937,-58.41
43.953,-62.1
43.968,-64.32
43.984,-64.19
44.000,-61.08
44.015,-54.8
44.031,-45.77
44.046,-34.94
44.062,-23.55
44.078,-12.7
44.093,-3.13
44.109,4.92
44.125,11.54
44.140,16.9
44.156,21.13
44.171,24.25
44.187,26.23
44.203,27.18
44.218,27.34
44.234,27.15
44.250,26.96
44.265,27.01
44.281,27.31
44.296,27.71
44.312,28.07
44.328,28.33
44.343,28.52
44.359,28.72
44.375,28.96
44.390,29.12
44.406,28.99
44.421,28.25
44.437,26.68
44.453,24.21
44.468,21.01
44.484,17.4
44.500,13.75
44.515,10.43
44.531,7.62
44.546,5.32
44.562,3.33
44.578,1.41
44.593,-0.69
44.609,-3.1
44.625,-5.71
44.640,-8.37
44.656,-10.87
44.671,-13.03
44.687,-14.78
44.703,-16.17
44.718,-17.34
44.734,-18.56
44.750,-20.16
44.765,-22.41
44.781,-25.41
44.796,-29.01
44.812,-32.69
44.828,-35.63
44.843,-36.91
44.859,-35.76
44.875,-31.84
44.890,-25.35
44.906,-17.01
44.921,-7.81
44.937,1.28
44.953,9.54
44.968,16.62
44.984,22.46
45.000,27.18
45.015,30.93
45.031,33.77
45.046,35.76
45.062,36.98
45.078,37.6
45.093,37.87
45.109,37.99
45.125,38.16
45.140,38.37
45.156,38.54
45.171,38.53
45.187,38.2
45.203,37.58
45.218,36.77
45.234,35.92
45.250,35.06
45.265,34.12
45.281,32.88
45.296,31.1
45.312,28.6
45.328,25.37
45.343,21.59
45.359,17.58
45.375,13.65
45.390,9.94
45.406,6.47
45.421,3.14
45.437,-0.17
45.453,-3.51
45.468,-6.82
45.484,-9.94
45.500,-12.76
45.515,-15.24
45.531,-17.42
45.546,-19.5
45.562,-21.7
45.578,-24.19
45.593,-27.1
45.609,-30.44
45.625,-34.12
45.640,-37.96
45.656,-41.58
45.671,-44.39
45.687,-45.73
45.703,-45.01
45.718,-41.9
45.734,-36.52
45.750,-29.33
45.765,-21.03
45.781,-12.31
45.796,-3.64
45.812,4.65
45.828,12.33
45.843,19.15
45.859,24.84
45.875,29.17
45.890,32.17
45.906,34.0
45.921,34.98
45.937,35.45
45.953,35.62
45.968,35.59
45.984,35.38
46.000,35.03
46.015,34.55
46.031,33.99
46.046,33.25
46.062,32.26
46.078,30.94
46.093,29.28
46.109,27.38
46.125,25.37
46.140,23.34
46.156,21.22
46.171,18.92
46.187,16.36
46.203,13.53
46.218,10.56
46.234,7.63
46.250,4.8
46.265,2.11
46.281,-0.55
46.296,-3.3
46.312,-6.22
46.328,-9.33
46.343,-12.59
46.359,-15.96
46.375,-19.38
46.390,-22.74
46.406,-25.91
46.421,-28.77
46.437,-31.32
46.453,-33.65
46.468,-36.04
46.484,-38.74
46.500,-41.95
46.515,-45.68
46.531,-49.69
46.546,-53.51
46.562,-56.51
46.578,-58.03
46.593,-57.48
46.609,-54.59
46.625,-49.36
46.640,-42.18
46.656,-33.69
46.671,-24.58
46.687,-15.44
46.703,-6.71
46.718,1.34
46.734,8.56
46.750,14.83
46.765,20.06
46.781,24.21
46.796,27.29
46.812,29.32
46.828,30.34
46.843,30.43
46.859,29.66
46.875,28.28
46.890,26.53
46.906,24.75
46.921,23.17
46.937,21.93
46.953,20.93
46.968,20.02
46.984,19.07
47.000,17.93
47.015,16.59
47.031,14.95
47.046,12.99
47.062,10.67
47.078,8.01
47.093,5.13
47.109,2.18
47.125,-0.62
47.140,-3.12
47.156,-5.27
47.171,-7.16
47.187,-8.93
47.203,-10.7
47.218,-12.59
47.234,-14.62
47.250,-16.78
47.265,-19.04
47.281,-21.35
47.296,-23.66
47.312,-25.93
47.328,-28.1
47.343,-30.18
47.359,-32.24
47.375,-34.44
47.390,-37.01
47.406,-40.15
47.421,-43.98
47.437,-48.32
47.453,-52.69
47.468,-56.27
47.484,-58.11
47.500,-57.36
47.515,-53.62
47.531,-47.04
47.546,-38.32
47.562,-28.49
47.578,-18.54
47.593,-9.19
47.609,-0.76
47.625,6.69
47.640,13.24
47.656,18.87
47.671,23.49
47.687,26.96
47.703,29.24
47.718,30.48
47.734,30.94
47.750,31.0
47.765,30.93
47.781,30.82
47.796,30.63
47.812,30.27
47.828,29.69
47.843,28.95
47.859,28.24
47.875,27.68
47.890,27.33
47.906,27.1
47.921,26.78
47.937,26.16
47.953,25.07
47.968,23.45
47.984,21.32
48.000,18.78
48.015,16.01
48.031,13.19
48.046,10.47
48.062,7.93
48.078,5.54
48.093,3.13
48.109,0.55
48.125,-2.33
48.140,-5.43
48.156,-8.59
48.171,-11.58
48.187,-14.24
48.203,-16.61
48.218,-18.79
48.234,-21.0
48.250,-23.38
48.265,-26.09
48.281,-29.19
48.296,-32.66
48.312,-36.31
48.328,-39.68
48.343,-42.06
48.359,-42.67
48.375,-40.84
48.390,-36.29
48.406,-29.29
48.421,-20.55
48.437,-10.99
48.453,-1.47
48.468,7.48
48.484,15.54
48.500,22.64
48.515,28.69
48.531,33.58
48.546,37.17
48.562,39.41
48.578,40.4
48.593,40.44
48.609,39.96
48.625,39.35
48.640,38.91
48.656,38.66
48.671,38.43
48.687,37.97
48.703,37.18
48.718,36.05
48.734,34.73
48.750,33.38
48.765,32.12
48.781,30.89
48.796,29.53
48.812,27.81
48.828,25.55
48.843,22.75
48.859,19.52
48.875,16.08
48.890,12.69
48.906,9.57
48.921,6.83
48.937,4.47
48.953,2.31
48.968,0.09
48.984,-2.45
49.000,-5.45
49.015,-8.84
49.031,-12.44
49.046,-16.03
49.062,-19.41
49.078,-22.53
49.093,-25.47
49.109,-28.41
49.125,-31.56
49.140,-35.08
49.156,-38.95
49.171,-43.03
49.187,-46.93
49.203,-50.03
49.218,-51.63
49.234,-51.11
49.250,-48.12
49.265,-42.75
49.281,-35.44
49.296,-26.85
49.312,-17.62
49.328,-8.33
49.343,0.63
49.359,8.97
49.375,16.49
49.390,22.94
49.406,28.21
49.421,32.26
49.437,35.13
49.453,36.99
49.468,38.02
49.484,38.36
49.500,38.17
49.515,37.68
49.531,37.08
49.546,36.58
49.562,36.23
49.578,35.92
49.593,35.43
49.609,34.61
49.625,33.42
49.640,31.94
49.656,30.35
49.671,28.74
49.687,27.08
49.703,25.19
49.718,22.89
49.734,20.17
49.750,17.13
49.765,13.98
49.781,10.9
49.796,7.96
49.812,5.1
49.828,2.26
49.843,-0.58
49.859,-3.41
49.875,-6.19
49.890,-8.94
49.906,-11.75
49.921,-14.75
49.937,-18.04
49.953,-21.59
49.968,-25.22
49.984,-28.75
50.000,-31.99
50.015,-34.96
50.031,-37.83
50.046,-40.8
50.062,-44.11
50.078,-47.81
50.093,-51.79
50.109,-55.67
50.125,-58.87
50.140,-60.63
50.156,-60.24
50.171,-57.21
50.187,-51.45
50.203,-43.36
50.218,-33.71
50.234,-23.5
50.250,-13.6
50.265,-4.63
50.281,3.2
50.296,9.94
50.312,15.72
50.328,20.66
50.343,24.76
50.359,27.95
50.375,30.18
50.390,31.45
50.406,31.96
50.421,31.95
50.437,31.66
50.453,31.22
50.468,30.66
50.484,29.84
50.500,28.71
50.515,27.27
50.531,25.65
50.546,24.05
50.562,22.61
50.578,21.37
50.593,20.18
50.609,18.77
50.625,16.92
50.640,14.55
50.656,11.76
50.671,8.75
50.687,5.73
50.703,2.82
50.718,0.01
50.734,-2.73
50.750,-5.45
50.765,-8.16
50.781,-10.79
50.796,-13.3
50.812,-15.8
50.828,-18.41
50.843,-21.25
50.859,-24.38
50.875,-27.67
50.890,-30.94
50.906,-34.0
50.921,-36.72
50.937,-39.11
50.953,-41.36
50.968,-43.68
50.984,-46.33
51.000,-49.47
51.015,-53.08
51.031,-56.93
51.046,-60.52
51.062,-63.06
51.078,-63.75
51.093,-61.91
51.109,-57.24
51.125,-49.96
51.140,-40.75
51.156,-30.49
51.171,-20.05
51.187,-10.09
51.203,-0.97
51.218,7.07
51.234,13.95
51.250,19.59
51.265,23.92
51.281,26.91
51.296,28.74
51.312,29.68
51.328,30.04
51.343,30.11
51.359,30.05
51.375,29.94
51.390,29.79
51.406,29.57
51.421,29.3
51.437,29.04
51.453,28.89
51.468,28.91
51.484,29.03
51.500,29.06
51.515,28.78
51.531,27.97
51.546,26.52
51.562,24.53
51.578,22.19
51.593,19.76
51.609,17.44
51.625,15.38
51.640,13.62
51.656,12.16
51.671,10.89
51.687,9.58
51.703,7.97
51.718,5.82
51.734,3.04
51.750,-0.28
51.765,-3.82
51.781,-7.26
51.796,-10.43
51.812,-13.35
51.828,-16.24
51.843,-19.39
51.859,-22.99
51.875,-27.03
51.890,-31.26
51.906,-35.2
51.921,-38.16
51.937,-39.48
51.953,-38.57
51.968,-35.06
51.984,-29.02
52.000,-20.93
52.015,-11.49
52.031,-1.54
52.046,8.17
52.062,17.07
52.078,24.74
52.093,30.99
52.109,35.74
52.125,39.02
52.140,41.0
52.156,41.92
52.171,42.04
52.187,41.62
52.203,40.86
52.218,39.89
52.234,38.84
52.250,37.79
52.265,36.81
52.281,35.89
52.296,35.02
52.312,34.17
52.328,33.35
52.343,32.58
52.359,31.79
52.375,30.85
52.390,29.53
52.406,27.62
52.421,25.04
52.437,21.88
52.453,18.33
52.468,14.7
52.484,11.22
52.500,7.97
52.515,4.91
52.531,1.9
52.546,-1.26
52.562,-4.69
52.578,-8.46
52.593,-12.54
52.609,-16.76
52.625,-20.87
52.640,-24.65
52.656,-27.87
52.671,-30.52
52.687,-32.77
52.703,-34.93
52.718,-37.4
52.734,-40.43
52.750,-44.01
52.765,-47.78
52.781,-51.05
52.796,-52.95
52.812,-52.74
52.828,-49.98
52.843,-44.66
52.859,-37.17
52.875,-28.23
52.890,-18.63
52.906,-9.08
52.921,-0.12
52.937,7.93
52.953,14.97
52.968,21.0
52.984,26.09
53.000,30.33
53.015,33.74
53.031,36.36
53.046,38.19
53.062,39.29
53.078,39.77
53.093,39.83
53.109,39.67
53.125,39.41
53.140,39.05
53.156,38.55
53.171,37.9
53.187,37.1
53.203,36.2
53.218,35.25
53.234,34.14
53.250,32.77
53.265,30.91
53.281,28.49
53.296,25.54
53.312,22.16
53.328,18.5
53.343,14.67
53.359,10.81
53.375,7.06
53.390,3.62
53.406,0.67
53.421,-1.76
53.437,-3.8
53.453,-5.77
53.468,-8.06
53.484,-10.92
53.500,-14.43
53.515,-18.37
53.531,-22.49
53.546,-26.51
53.562,-30.32
53.578,-33.93
53.593,-37.49
53.609,-41.19
53.625,-45.18
53.640,-49.56
53.656,-54.23
53.671,-58.83
53.687,-62.68
53.703,-64.86
53.718,-64.45
53.734,-60.88
53.750,-54.12
53.765,-44.75
53.781,-33.8
53.796,-22.37
53.812,-11.38
53.828,-1.4
53.843,7.32
53.859,14.76
53.875,20.9
53.890,25.74
53.906,29.34
53.921,31.77
53.937,33.23
53.953,33.99
53.968,34.24
53.984,34.16
54.000,33.92
54.015,33.62
54.031,33.35
54.046,33.17
54.062,33.02
54.078,32.79
54.093,32.31
54.109,31.42
54.125,30.02
54.140,28.11
54.156,25.7
54.171,22.81
54.187,19.48
54.203,15.79
54.218,11.85
54.234,7.91
54.250,4.21
54.265,0.92
54.281,-1.91
54.296,-4.37
54.312,-6.64
54.328,-8.89
54.343,-11.22
54.359,-13.75
54.375,-16.51
54.390,-19.58
54.406,-22.98
54.421,-26.59
54.437,-30.22
54.453,-33.63
54.468,-36.7
54.484,-39.4
54.500,-41.9
54.515,-44.4
54.531,-47.07
54.546,-50.0
54.562,-53.16
54.578,-56.42
54.593,-59.42
54.609,-61.6
54.625,-62.23
54.640,-60.63
54.656,-56.32
54.671,-49.41
54.687,-40.45
54.703,-30.41
54.718,-20.29
54.734,-10.84
54.750,-2.46
54.765,4.79
54.781,11.02
54.796,16.39
54.812,20.92
54.828,24.58
54.843,27.31
54.859,29.09
54.875,30.03
54.890,30.32
54.906,30.15
54.921,29.74
54.937,29.19
54.953,28.53
54.968,27.72
54.984,26.75
55.000,25.61
55.015,24.39
55.031,23.18
55.046,22.11
55.062,21.2
55.078,20.39
55.093,19.51
55.109,18.44
55.125,17.14
55.140,15.59
55.156,13.91
55.171,12.09
55.187,10.15
55.203,8.0
55.218,5.6
55.234,2.92
55.250,0.06
55.265,-2.85
55.281,-5.73
55.296,-8.51
55.312,-11.2
55.328,-13.82
55.343,-16.33
55.359,-18.64
55.375,-20.65
55.390,-22.42
55.406,-24.1
55.421,-25.93
55.437,-28.16
55.453,-30.93
55.468,-34.09
55.484,-37.23
55.500,-39.64
55.515,-40.56
55.531,-39.31
55.546,-35.6
55.562,-29.52
55.578,-21.56
55.593,-12.47
55.609,-3.01
55.625,6.12
55.640,14.45
55.656,21.66
55.671,27.6
55.687,32.23
55.703,35.55
55.718,37.69
55.734,38.8
55.750,39.14
55.765,38.99
55.781,38.63
55.796,38.27
55.812,37.98
55.828,37.74
55.843,37.4
55.859,36.87
55.875,36.07
55.890,35.08
55.906,34.02
55.921,32.99
55.937,31.98
55.953,30.85
55.968,29.4
55.984,27.44
56.000,24.93
56.015,21.95
56.031,18.72
56.046,15.5
56.062,12.53
56.078,9.89
56.093,7.58
56.109,5.43
56.125,3.23
56.140,0.8
56.156,-2.03
56.171,-5.24
56.187,-8.72
56.203,-12.19
56.218,-15.38
56.234,-18.09
56.250,-20.26
56.265,-22.03
56.281,-23.71
56.296,-25.63
56.312,-28.01
56.328,-30.97
56.343,-34.42
56.359,-38.1
56.375,-41.54
56.390,-44.16
56.406,-45.29
56.421,-44.35
56.437,-41.05
56.453,-35.39
56.468,-27.83
56.484,-19.05
56.500,-9.89
56.515,-1.08
56.531,6.83
56.546,13.56
56.562,19.08
56.578,23.48
56.593,26.94
56.609,29.62
56.625,31.67
56.640,33.17
56.656,34.17
56.671,34.73
56.687,34.93
56.703,34.85
56.718,34.57
56.734,34.12
56.750,33.54
56.765,32.87
56.781,32.14
56.796,31.39
56.812,30.6
56.828,29.72
56.843,28.65
56.859,27.27
56.875,25.49
56.890,23.37
56.906,21.02
56.921,18.62
56.937,16.36
56.953,14.25
56.968,12.26
56.984,10.23
57.000,8.01
57.015,5.49
57.031,2.67
57.046,-0.36
57.062,-3.47
57.078,-6.5
57.093,-9.41
57.109,-12.28
57.125,-15.2
57.140,-18.28
57.156,-21.56
57.171,-24.95
57.187,-28.27
57.203,-31.39
57.218,-34.25
57.234,-36.93
57.250,-39.6
57.265,-42.5
57.281,-45.85
57.296,-49.71
57.312,-53.92
57.328,-57.99
57.343,-61.24
57.359,-62.82
57.375,-62.02
57.390,-58.49
57.406,-52.32
57.421,-44.07
57.437,-34.55
57.453,-24.6
57.468,-14.92
57.484,-5.98
57.500,1.93
57.515,8.7
57.531,14.25
57.546,18.62
57.562,21.9
57.578,24.27
57.593,25.94
57.609,27.14
57.625,28.01
57.640,28.71
57.656,29.23
57.671,29.54
57.687,29.58
57.703,29.27
57.718,28.59
57.734,27.59
57.750,26.37
57.765,25.03
57.781,23.62
57.796,22.1
57.812,20.32
57.828,18.22
57.843,15.76
57.859,13.03
57.875,10.21
57.890,7.45
57.906,4.85
57.921,2.44
57.937,0.21
57.953,-1.89
57.968,-3.9
57.984,-5.82
58.000,-7.67
58.015,-9.44
58.031,-11.1
58.046,-12.68
58.062,-14.27
58.078,-16.05
58.093,-18.21
58.109,-20.87
58.125,-24.03
58.140,-27.47
58.156,-30.85
58.171,-33.91
58.187,-36.49
58.203,-38.61
58.218,-40.5
58.234,-42.43
58.250,-44.66
58.265,-47.33
58.281,-50.38
58.296,-53.52
58.312,-56.25
58.328,-57.89
58.343,-57.75
58.359,-55.35
58.375,-50.48
58.390,-43.37
58.406,-34.58
58.421,-24.88
58.437,-15.04
58.453,-5.7
58.468,2.75
58.484,10.1
58.500,16.31
58.515,21.37
58.531,25.29
58.546,28.11
58.562,29.95
58.578,30.96
58.593,31.38
58.609,31.44
58.625,31.35
58.640,31.22
58.656,31.06
58.671,30.84
58.687,30.52
58.703,30.12
58.718,29.7
58.734,29.34
58.750,29.12
58.765,29.07
58.781,29.14
58.796,29.21
58.812,29.1
58.828,28.65
58.843,27.77
58.859,26.47
58.875,24.89
58.890,23.2
58.906,21.61
58.921,20.19
58.937,18.91
58.953,17.66
58.968,16.31
58.984,14.74
59.000,12.93
59.015,10.93
59.031,8.82
59.046,6.66
59.062,4.43
59.078,2.09
59.093,-0.37
59.109,-2.89
59.125,-5.31
59.140,-7.46
59.156,-9.19
59.171,-10.54
59.187,-11.75
59.203,-13.07
59.218,-14.54
59.234,-15.86
59.250,-16.29
59.265,-14.89
59.281,-10.84
59.296,-3.77
59.312,6.07
59.328,17.83
59.343,30.36
59.359,42.55
59.375,53.62
59.390,63.24
59.406,71.55
59.421,79.04
59.437,86.22
59.453,93.49
59.468,100.88
59.484,108.09
59.500,114.5
59.515,119.4
59.531,122.28
59.546,123.01
59.562,122.07
59.578,120.46
59.593,119.5
59.609,120.38
59.625,123.7
59.640,128.87
59.656,134.12
59.671,136.82
59.687,134.24
59.703,124.41
59.718,106.84
59.734,82.77
59.750,54.83
59.765,26.34
59.781,0.34
59.796,-20.94
59.812,-36.38
59.828,-45.81
59.843,-49.69
59.859,-48.81
59.875,-44.09
59.890,-36.61
59.906,-27.66
59.921,-18.56
59.937,-10.47
59.953,-4.16
59.968,0.2
59.984,2.84
