timestamp,value
00.000,45.57
00.015,58.61
00.031,69.08
00.046,77.35
00.062,83.72
00.078,88.45
00.093,91.73
00.109,93.73
00.125,94.69
00.140,94.96
00.156,94.96
00.171,95.18
00.187,96.02
00.203,97.71
00.218,100.33
00.234,103.74
00.250,107.57
00.265,111.24
00.281,114.0
00.296,114.93
00.312,113.19
00.328,108.25
00.343,100.04
00.359,89.17
00.375,76.71
00.390,63.95
00.406,51.93
00.421,41.26
00.437,32.05
00.453,24.08
00.468,17.14
00.484,11.13
00.500,6.14
00.515,2.23
00.531,-0.81
00.546,-3.5
00.562,-6.6
00.578,-10.8
00.593,-16.43
00.609,-23.29
00.625,-30.79
00.640,-38.26
00.656,-45.24
00.671,-51.73
00.687,-58.09
00.703,-64.85
00.718,-72.43
00.734,-81.02
00.750,-90.55
00.765,-100.71
00.781,-111.0
00.796,-120.67
00.812,-128.75
00.828,-134.18
00.843,-136.07
00.859,-133.98
00.875,-128.11
00.890,-119.13
00.906,-108.04
00.921,-95.85
00.937,-83.43
00.953,-71.55
00.968,-60.93
00.984,-52.15
01.000,-45.51
01.015,-40.77
01.031,-37.08
01.046,-33.28
01.062,-28.37
01.078,-22.0
01.093,-14.67
01.109,-7.39
01.125,-1.15
01.140,3.55
01.156,6.89
01.171,9.49
01.187,11.95
01.203,14.57
01.218,17.28
01.234,19.91
01.250,22.39
01.265,24.92
01.281,27.74
01.296,30.89
01.312,34.02
01.328,36.29
01.343,36.67
01.359,34.24
01.375,28.5
01.390,19.62
01.406,8.42
01.421,-3.88
01.437,-15.96
01.453,-26.77
01.468,-35.86
01.484,-43.44
01.500,-50.24
01.515,-57.31
01.531,-65.67
01.546,-75.9
01.562,-87.92
01.578,-100.81
01.593,-112.87
01.609,-121.95
01.625,-125.98
01.640,-123.55
01.656,-114.39
01.671,-99.38
01.687,-80.3
01.703,-59.23
01.718,-37.95
01.734,-17.6
01.750,1.35
01.765,18.84
01.781,34.82
01.796,49.02
01.812,60.91
01.828,69.87
01.843,75.42
01.859,77.38
01.875,75.88
01.890,71.33
01.906,64.34
01.921,55.66
01.937,46.09
01.953,36.51
01.968,27.67
01.984,20.04
02.000,13.8
02.015,8.81
02.031,4.76
02.046,1.33
02.062,-1.71
02.078,-4.55
02.093,-7.27
02.109,-9.92
02.125,-12.52
02.140,-14.95
02.156,-17.04
02.171,-18.66
02.187,-19.79
02.203,-20.6
02.218,-21.41
02.234,-22.6
02.250,-24.45
02.265,-27.06
02.281,-30.29
02.296,-33.81
02.312,-37.17
02.328,-39.88
02.343,-41.56
02.359,-42.15
02.375,-42.01
02.390,-41.87
02.406,-42.69
02.421,-45.27
02.437,-49.89
02.453,-56.1
02.468,-62.7
02.484,-67.9
02.500,-69.74
02.515,-66.56
02.531,-57.36
02.546,-42.18
02.562,-21.99
02.578,1.47
02.593,26.16
02.609,50.23
02.625,72.41
02.640,92.13
02.656,109.44
02.671,124.75
02.687,138.48
02.703,150.89
02.718,162.04
02.734,171.84
02.750,180.16
02.765,186.86
02.781,191.81
02.796,194.86
02.812,195.87
02.828,194.67
02.843,191.21
02.859,185.59
02.875,178.06
02.890,169.06
02.906,159.19
02.921,149.03
02.937,139.05
02.953,129.51
02.968,120.35
02.984,111.4
03.000,102.45
03.015,93.49
03.031,84.79
03.046,76.72
03.062,69.54
03.078,63.2
03.093,57.28
03.109,51.15
03.125,44.29
03.140,36.5
03.156,27.93
03.171,18.9
03.187,9.65
03.203,0.22
03.218,-9.46
03.234,-19.41
03.250,-29.41
03.265,-39.14
03.281,-48.31
03.296,-56.95
03.312,-65.55
03.328,-74.83
03.343,-85.6
03.359,-98.35
03.375,-113.08
03.390,-129.27
03.406,-145.83
03.421,-161.16
03.437,-173.42
03.453,-180.88
03.468,-182.38
03.484,-177.81
03.500,-168.18
03.515,-155.26
03.531,-141.01
03.546,-126.93
03.562,-113.76
03.578,-101.46
03.593,-89.63
03.609,-77.85
03.625,-66.02
03.640,-54.33
03.656,-43.17
03.671,-32.91
03.687,-23.76
03.703,-15.82
03.718,-9.04
03.734,-3.29
03.750,1.63
03.765,5.93
03.781,9.81
03.796,13.51
03.812,17.19
03.828,21.01
03.843,24.95
03.859,28.89
03.875,32.53
03.890,35.6
03.906,37.82
03.921,39.08
03.937,39.35
03.953,38.66
03.968,37.05
03.984,34.56
04.000,31.24
04.015,27.25
04.031,22.82
04.046,18.23
04.062,13.77
04.078,9.65
04.093,6.01
04.109,2.97
04.125,0.63
04.140,-0.99
04.156,-2.03
04.171,-2.88
04.187,-4.08
04.203,-6.25
04.218,-9.74
04.234,-14.58
04.250,-20.36
04.265,-26.49
04.281,-32.43
04.296,-38.02
04.312,-43.51
04.328,-49.49
04.343,-56.63
04.359,-65.35
04.375,-75.61
04.390,-86.77
04.406,-97.66
04.421,-106.72
04.437,-112.42
04.453,-113.58
04.468,-109.72
04.484,-101.25
04.500,-89.29
04.515,-75.27
04.531,-60.58
04.546,-46.16
04.562,-32.48
04.578,-19.61
04.593,-7.51
04.609,3.87
04.625,14.36
04.640,23.66
04.656,31.49
04.671,37.59
04.687,42.0
04.703,45.01
04.718,47.18
04.734,49.23
04.750,51.81
04.765,55.24
04.781,59.46
04.796,64.03
04.812,68.34
04.828,71.87
04.843,74.36
04.859,75.79
04.875,76.29
04.890,75.94
04.906,74.74
04.921,72.64
04.937,69.65
04.953,65.89
04.968,61.64
04.984,57.19
05.000,52.72
05.015,48.23
05.031,43.59
05.046,38.65
05.062,33.32
05.078,27.49
05.093,21.1
05.109,14.05
05.125,6.31
05.140,-1.96
05.156,-10.29
05.171,-18.05
05.187,-24.61
05.203,-29.74
05.218,-33.72
05.234,-37.3
05.250,-41.47
05.265,-47.09
05.281,-54.64
05.296,-64.07
05.312,-74.75
05.328,-85.46
05.343,-94.5
05.359,-99.93
05.375,-99.99
05.390,-93.67
05.406,-81.05
05.421,-63.41
05.437,-42.86
05.453,-21.69
05.468,-1.78
05.484,15.86
05.500,30.99
05.515,43.98
05.531,55.31
05.546,65.33
05.562,74.14
05.578,81.62
05.593,87.68
05.609,92.37
05.625,95.98
05.640,98.92
05.656,101.64
05.671,104.36
05.687,107.0
05.703,109.23
05.718,110.57
05.734,110.54
05.750,108.79
05.765,105.11
05.781,99.29
05.796,91.22
05.812,80.79
05.828,68.11
05.843,53.68
05.859,38.4
05.875,23.47
05.890,10.1
05.906,-0.91
05.921,-9.49
05.937,-16.35
05.953,-22.8
05.968,-30.27
05.984,-39.74
06.000,-51.44
06.015,-64.75
06.031,-78.5
06.046,-91.44
06.062,-102.67
06.078,-111.89
06.093,-119.25
06.109,-125.29
06.125,-130.61
06.140,-135.91
06.156,-141.88
06.171,-149.15
06.187,-157.91
06.203,-167.61
06.218,-176.7
06.234,-182.86
06.250,-183.64
06.265,-177.21
06.281,-163.15
06.296,-142.53
06.312,-117.52
06.328,-90.68
06.343,-64.16
06.359,-39.23
06.375,-16.38
06.390,4.47
06.406,23.61
06.421,41.21
06.437,57.28
06.453,71.72
06.468,84.43
06.484,95.44
06.500,104.94
06.515,113.26
06.531,120.72
06.546,127.53
06.562,133.65
06.578,138.87
06.593,142.97
06.609,145.76
06.625,147.3
06.640,147.83
06.656,147.62
06.671,146.88
06.687,145.61
06.703,143.61
06.718,140.5
06.734,135.92
06.750,129.58
06.765,121.38
06.781,111.53
06.796,100.43
06.812,88.62
06.828,76.64
06.843,64.92
06.859,53.74
06.875,43.2
06.890,33.06
06.906,22.8
06.921,11.58
06.937,-1.48
06.953,-16.96
06.968,-34.77
06.984,-54.08
07.000,-73.6
07.015,-92.07
07.031,-108.87
07.046,-124.1
07.062,-138.34
07.078,-152.0
07.093,-164.74
07.109,-175.31
07.125,-181.93
07.140,-182.95
07.156,-177.58
07.171,-166.22
07.187,-150.22
07.203,-131.37
07.218,-111.31
07.234,-91.14
07.250,-71.35
07.265,-52.14
07.281,-33.71
07.296,-16.53
07.312,-1.37
07.328,11.0
07.343,20.08
07.359,25.87
07.375,28.82
07.390,29.69
07.406,29.23
07.421,27.99
07.437,26.23
07.453,24.05
07.468,21.52
07.484,18.88
07.500,16.52
07.515,14.9
07.531,14.34
07.546,15.01
07.562,16.82
07.578,19.42
07.593,22.32
07.609,24.98
07.625,26.94
07.640,27.94
07.656,28.02
07.671,27.51
07.687,26.93
07.703,26.79
07.718,27.37
07.734,28.68
07.750,30.4
07.765,32.06
07.781,33.3
07.796,33.98
07.812,34.2
07.828,34.22
07.843,34.26
07.859,34.32
07.875,34.1
07.890,33.07
07.906,30.56
07.921,26.0
07.937,19.12
07.953,10.02
07.968,-0.76
07.984,-12.27
08.000,-23.24
08.015,-32.17
08.031,-37.68
08.046,-38.72
08.062,-34.88
08.078,-26.6
08.093,-14.98
08.109,-1.54
08.125,12.33
08.140,25.78
08.156,38.58
08.171,50.84
08.187,62.6
08.203,73.39
08.218,82.1
08.234,87.26
08.250,87.63
08.265,82.65
08.281,72.83
08.296,59.54
08.312,44.62
08.328,29.86
08.343,16.56
08.359,5.45
08.375,-3.26
08.390,-9.64
08.406,-13.93
08.421,-16.49
08.437,-17.81
08.453,-18.57
08.468,-19.49
08.484,-21.19
08.500,-23.98
08.515,-27.75
08.531,-32.0
08.546,-36.0
08.562,-39.09
08.578,-40.81
08.593,-41.01
08.609,-39.88
08.625,-37.7
08.640,-34.68
08.656,-30.87
08.671,-26.21
08.687,-20.68
08.703,-14.41
08.718,-7.83
08.734,-1.49
08.750,4.07
08.765,8.5
08.781,11.75
08.796,13.96
08.812,15.32
08.828,15.96
08.843,15.82
08.859,14.66
08.875,12.13
08.890,7.85
08.906,1.68
08.921,-6.11
08.937,-14.61
08.953,-22.38
08.968,-27.69
08.984,-28.94
09.000,-25.18
09.015,-16.41
09.031,-3.63
09.046,11.48
09.062,26.89
09.078,40.73
09.093,51.58
09.109,58.67
09.125,61.82
09.140,61.36
09.156,57.75
09.171,51.53
09.187,43.12
09.203,32.91
09.218,21.41
09.234,9.27
09.250,-2.78
09.265,-14.03
09.281,-24.04
09.296,-32.61
09.312,-39.67
09.328,-45.07
09.343,-48.54
09.359,-49.73
09.375,-48.48
09.390,-45.05
09.406,-40.09
09.421,-34.5
09.437,-28.99
09.453,-23.8
09.468,-18.69
09.484,-13.01
09.500,-6.12
09.515,2.32
09.531,12.1
09.546,22.54
09.562,32.59
09.578,41.18
09.593,47.55
09.609,51.4
09.625,52.95
09.640,52.8
09.656,51.67
09.671,50.18
09.687,48.66
09.703,47.09
09.718,45.12
09.734,42.21
09.750,37.65
09.765,30.89
09.781,21.71
09.796,10.61
09.812,-1.09
09.828,-11.49
09.843,-18.6
09.859,-21.07
09.875,-18.74
09.890,-12.71
09.906,-4.89
09.921,2.64
09.937,8.36
09.953,11.57
09.968,12.26
09.984,10.69
10.000,7.13
10.015,1.62
10.031,-5.83
10.046,-15.16
10.062,-26.09
10.078,-38.15
10.093,-50.73
10.109,-63.12
10.125,-74.57
10.140,-84.33
10.156,-91.75
10.171,-96.36
10.187,-97.95
10.203,-96.54
10.218,-92.33
10.234,-85.59
10.250,-76.69
10.265,-66.09
10.281,-54.46
10.296,-42.52
10.312,-30.9
10.328,-19.88
10.343,-9.35
10.359,1.17
10.375,12.22
10.390,24.04
10.406,36.37
10.421,48.45
10.437,59.28
10.453,67.92
10.468,73.89
10.484,77.16
10.500,78.17
10.515,77.56
10.531,75.87
10.546,73.38
10.562,69.97
10.578,65.18
10.593,58.35
10.609,48.78
10.625,35.96
10.640,19.82
10.656,0.89
10.671,-19.57
10.687,-39.68
10.703,-57.29
10.718,-70.46
10.734,-77.97
10.750,-79.75
10.765,-76.82
10.781,-70.99
10.796,-64.21
10.812,-57.98
10.828,-52.99
10.843,-49.28
10.859,-46.57
10.875,-44.71
10.890,-43.84
10.906,-44.23
10.921,-45.94
10.937,-48.57
10.953,-51.27
10.968,-52.95
10.984,-52.71
11.000,-50.08
11.015,-45.07
11.031,-38.08
11.046,-29.58
11.062,-19.96
11.078,-9.47
11.093,1.73
11.109,13.54
11.125,25.67
11.140,37.75
11.156,49.27
11.171,59.73
11.187,68.79
11.203,76.37
11.218,82.6
11.234,87.75
11.250,92.0
11.265,95.32
11.281,97.49
11.296,98.12
11.312,96.87
11.328,93.52
11.343,88.18
11.359,81.13
11.375,72.86
11.390,63.82
11.406,54.37
11.421,44.65
11.437,34.74
11.453,24.69
11.468,14.6
11.484,4.49
11.500,-5.89
11.515,-17.16
11.531,-30.18
11.546,-45.65
11.562,-63.55
11.578,-82.73
11.593,-101.11
11.609,-116.23
11.625,-126.1
11.640,-129.89
11.656,-128.05
11.671,-121.93
11.687,-113.09
11.703,-102.72
11.718,-91.41
11.734,-79.42
11.750,-66.85
11.765,-53.89
11.781,-40.83
11.796,-27.88
11.812,-15.15
11.828,-2.72
11.843,9.29
11.859,20.62
11.875,30.92
11.890,40.0
11.906,47.96
11.921,55.18
11.937,62.23
11.953,69.61
11.968,77.63
11.984,86.32
12.000,95.5
12.015,104.69
12.031,113.25
12.046,120.42
12.062,125.36
12.078,127.45
12.093,126.32
12.109,121.97
12.125,114.65
12.140,104.86
12.156,93.07
12.171,79.85
12.187,65.76
12.203,51.38
12.218,37.26
12.234,23.71
12.250,10.74
12.265,-1.9
12.281,-14.49
12.296,-27.08
12.312,-39.28
12.328,-50.42
12.343,-59.97
12.359,-67.87
12.375,-74.85
12.390,-82.18
12.406,-91.25
12.421,-102.99
12.437,-117.5
12.453,-134.16
12.468,-151.79
12.484,-168.95
12.500,-184.01
12.515,-195.19
12.531,-200.72
12.546,-199.13
12.562,-189.82
12.578,-173.37
12.593,-151.51
12.609,-126.67
12.625,-101.19
12.640,-76.62
12.656,-53.52
12.671,-31.56
12.687,-10.14
12.703,11.15
12.718,32.28
12.734,52.82
12.750,72.25
12.765,90.18
12.781,106.47
12.796,121.11
12.812,134.06
12.828,145.21
12.843,154.34
12.859,161.31
12.875,166.12
12.890,169.02
12.906,170.39
12.921,170.71
12.937,170.42
12.953,169.83
12.968,169.16
12.984,168.5
13.000,167.82
13.015,166.95
13.031,165.64
13.046,163.52
13.062,160.22
13.078,155.39
13.093,148.74
13.109,140.07
13.125,129.32
13.140,116.57
13.156,101.92
13.171,85.42
13.187,67.06
13.203,46.79
13.218,24.8
13.234,1.66
13.250,-21.67
13.265,-44.04
13.281,-64.53
13.296,-82.75
13.312,-98.94
13.328,-113.84
13.343,-128.37
13.359,-143.36
13.375,-159.26
13.390,-175.89
13.406,-192.22
13.421,-206.35
13.437,-215.79
13.453,-218.03
13.468,-211.56
13.484,-196.53
13.500,-175.1
13.515,-150.87
13.531,-127.88
13.546,-109.24
13.562,-96.31
13.578,-88.51
13.593,-83.78
13.609,-79.65
13.625,-74.19
13.640,-66.7
13.656,-57.75
13.671,-48.69
13.687,-40.72
13.703,-34.17
13.718,-28.22
13.734,-21.39
13.750,-12.44
13.765,-1.07
13.781,11.86
13.796,24.73
13.812,36.04
13.828,45.01
13.843,51.77
13.859,56.96
13.875,61.24
13.890,65.09
13.906,68.94
13.921,73.3
13.937,78.47
13.953,84.03
13.968,88.33
13.984,88.8
14.000,83.11
14.015,70.63
14.031,53.32
14.046,35.25
14.062,20.85
14.078,12.77
14.093,10.5
14.109,10.62
14.125,8.65
14.140,1.54
14.156,-10.75
14.171,-25.45
14.187,-38.66
14.203,-47.57
14.218,-51.92
14.234,-53.84
14.250,-56.59
14.265,-62.7
14.281,-72.82
14.296,-85.53
14.312,-98.15
14.328,-107.87
14.343,-112.46
14.359,-110.64
14.375,-101.93
14.390,-86.57
14.406,-65.51
14.421,-40.48
14.437,-13.85
14.453,11.85
14.468,34.43
14.484,52.38
14.500,65.01
14.515,72.32
14.531,74.92
14.546,73.9
14.562,70.66
14.578,66.7
14.593,63.31
14.609,61.18
14.625,60.33
14.640,60.19
14.656,60.0
14.671,59.24
14.687,57.85
14.703,56.16
14.718,54.73
14.734,53.96
14.750,53.85
14.765,54.04
14.781,53.92
14.796,52.91
14.812,50.58
14.828,46.77
14.843,41.52
14.859,34.98
14.875,27.38
14.890,18.96
14.906,10.05
14.921,1.03
14.937,-7.67
14.953,-15.72
14.968,-22.98
14.984,-29.56
15.000,-35.74
15.015,-41.84
15.031,-48.11
15.046,-54.62
15.062,-61.25
15.078,-67.73
15.093,-73.56
15.109,-78.07
15.125,-80.48
15.140,-79.95
15.156,-75.83
15.171,-67.85
15.187,-56.16
15.203,-41.4
15.218,-24.52
15.234,-6.6
15.250,11.39
15.265,28.76
15.281,45.08
15.296,60.22
15.312,74.15
15.328,86.82
15.343,98.17
15.359,108.09
15.375,116.52
15.390,123.52
15.406,129.22
15.421,133.69
15.437,136.94
15.453,138.84
15.468,139.31
15.484,138.46
15.500,136.55
15.515,133.82
15.531,130.26
15.546,125.4
15.562,118.44
15.578,108.63
15.593,95.76
15.609,80.45
15.625,64.1
15.640,48.36
15.656,34.53
15.671,23.08
15.687,13.58
15.703,5.04
15.718,-3.52
15.734,-12.69
15.750,-22.5
15.765,-32.43
15.781,-41.64
15.796,-49.1
15.812,-53.84
15.828,-55.34
15.843,-54.06
15.859,-51.82
15.875,-51.73
15.890,-57.45
15.906,-71.8
15.921,-95.55
15.937,-126.66
15.953,-160.71
15.968,-192.22
15.984,-216.28
16.000,-229.84
16.015,-232.12
16.031,-224.12
16.046,-207.82
16.062,-185.37
16.078,-158.68
16.093,-129.33
16.109,-98.68
16.125,-68.04
16.140,-38.68
16.156,-11.87
16.171,11.31
16.187,30.04
16.203,43.97
16.218,53.24
16.234,58.36
16.250,60.07
16.265,59.14
16.281,56.53
16.296,53.51
16.312,51.78
16.328,53.02
16.343,58.2
16.359,66.7
16.375,75.99
16.390,82.12
16.406,81.03
16.421,70.08
16.437,49.06
16.453,20.23
16.468,-12.69
16.484,-45.75
16.500,-75.89
16.515,-101.28
16.531,-121.19
16.546,-135.55
16.562,-144.59
16.578,-148.84
16.593,-149.07
16.609,-146.35
16.625,-141.85
16.640,-136.62
16.656,-131.39
16.671,-126.57
16.687,-122.4
16.703,-119.07
16.718,-116.72
16.734,-115.27
16.750,-114.19
16.765,-112.41
16.781,-108.56
16.796,-101.32
16.812,-89.9
16.828,-74.32
16.843,-55.32
16.859,-34.09
16.875,-11.88
16.890,10.31
16.906,31.82
16.921,52.28
16.937,71.56
16.953,89.71
16.968,106.86
16.984,123.22
17.000,138.85
17.015,153.58
17.031,167.01
17.046,178.6
17.062,187.96
17.078,195.01
17.093,200.06
17.109,203.8
17.125,207.07
17.140,210.66
17.156,215.12
17.171,220.59
17.187,226.75
17.203,232.96
17.218,238.47
17.234,242.78
17.250,245.81
17.265,247.95
17.281,249.75
17.296,251.56
17.312,253.17
17.328,253.68
17.343,251.67
17.359,245.59
17.375,234.14
17.390,216.69
17.406,193.66
17.421,166.56
17.437,137.73
17.453,109.71
17.468,84.23
17.484,61.52
17.500,40.15
17.515,17.73
17.531,-7.98
17.546,-37.86
17.562,-70.92
17.578,-104.67
17.593,-135.99
17.609,-161.99
17.625,-180.46
17.640,-189.78
17.656,-188.77
17.671,-176.74
17.687,-153.88
17.703,-121.52
17.718,-82.09
17.734,-38.8
17.750,4.86
17.765,45.14
17.781,78.19
17.796,100.12
17.812,107.7
17.828,99.26
17.843,75.61
17.859,39.98
17.875,-3.02
17.890,-49.05
17.906,-95.45
17.921,-141.49
17.937,-187.46
17.953,-233.15
17.968,-276.98
17.984,-316.12
18.000,-347.66
18.015,-369.91
18.031,-382.89
18.046,-387.91
18.062,-386.35
18.078,-378.7
18.093,-364.34
18.109,-342.22
18.125,-312.14
18.140,-275.54
18.156,-235.63
18.171,-196.35
18.187,-161.1
18.203,-131.71
18.218,-108.15
18.234,-89.11
18.250,-73.02
18.265,-58.81
18.281,-46.33
18.296,-36.13
18.312,-28.95
18.328,-25.2
18.343,-24.81
18.359,-27.23
18.375,-31.66
18.390,-37.09
18.406,-42.38
18.421,-46.22
18.437,-47.27
18.453,-44.45
18.468,-37.24
18.484,-25.95
18.500,-11.62
18.515,4.32
18.531,20.47
18.546,35.79
18.562,49.77
18.578,62.26
18.593,73.37
18.609,83.23
18.625,91.92
18.640,99.42
18.656,105.53
18.671,109.93
18.687,112.32
18.703,112.55
18.718,110.79
18.734,107.63
18.750,103.85
18.765,100.22
18.781,97.27
18.796,95.08
18.812,93.42
18.828,91.84
18.843,89.88
18.859,87.23
18.875,83.73
18.890,79.41
18.906,74.46
18.921,69.16
18.937,63.85
18.953,58.72
18.968,53.77
18.984,48.79
19.000,43.36
19.015,37.09
19.031,29.7
19.046,21.18
19.062,11.72
19.078,1.64
19.093,-8.78
19.109,-19.29
19.125,-29.78
19.140,-40.22
19.156,-50.64
19.171,-61.09
19.187,-71.59
19.203,-81.9
19.218,-91.4
19.234,-99.0
19.250,-103.33
19.265,-103.11
19.281,-97.66
19.296,-87.17
19.312,-72.69
19.328,-55.73
19.343,-37.74
19.359,-19.81
19.375,-2.49
19.390,13.95
19.406,29.25
19.421,43.06
19.437,54.85
19.453,64.1
19.468,70.52
19.484,74.08
19.500,75.09
19.515,74.12
19.531,71.83
19.546,68.96
19.562,66.18
19.578,64.01
19.593,62.76
19.609,62.47
19.625,62.95
19.640,63.84
19.656,64.68
19.671,64.99
19.687,64.38
19.703,62.56
19.718,59.38
19.734,54.88
19.750,49.32
19.765,43.11
19.781,36.74
19.796,30.68
19.812,25.13
19.828,19.99
19.843,14.86
19.859,9.19
19.875,2.59
19.890,-5.03
19.906,-13.48
19.921,-22.34
19.937,-31.16
19.953,-39.67
19.968,-47.68
19.984,-55.19
20.000,-62.25
20.015,-69.08
20.031,-76.0
20.046,-83.39
20.062,-91.45
20.078,-99.85
20.093,-107.56
20.109,-112.97
20.125,-114.31
20.140,-110.28
20.156,-100.6
20.171,-86.08
20.187,-68.34
20.203,-49.24
20.218,-30.27
20.234,-12.3
20.250,4.44
20.265,20.03
20.281,34.59
20.296,47.97
20.312,59.84
20.328,69.7
20.343,77.19
20.359,82.17
20.375,84.78
20.390,85.47
20.406,84.85
20.421,83.64
20.437,82.55
20.453,82.11
20.468,82.61
20.484,84.01
20.500,85.96
20.515,87.93
20.531,89.42
20.546,90.0
20.562,89.49
20.578,87.88
20.593,85.39
20.609,82.27
20.625,78.88
20.640,75.54
20.656,72.48
20.671,69.71
20.687,66.97
20.703,63.82
20.718,59.72
20.734,54.26
20.750,47.27
20.765,38.74
20.781,28.93
20.796,18.12
20.812,6.74
20.828,-4.78
20.843,-15.99
20.859,-26.48
20.875,-36.05
20.890,-44.76
20.906,-52.95
20.921,-61.17
20.937,-69.96
20.953,-79.68
20.968,-90.3
20.984,-101.25
21.000,-111.49
21.015,-119.6
21.031,-124.06
21.046,-123.64
21.062,-117.71
21.078,-106.51
21.093,-91.05
21.109,-72.87
21.125,-53.65
21.140,-34.79
21.156,-17.21
21.171,-1.23
21.187,13.14
21.203,26.01
21.218,37.38
21.234,47.1
21.250,54.95
21.265,60.86
21.281,65.0
21.296,67.73
21.312,69.56
21.328,70.87
21.343,71.86
21.359,72.53
21.375,72.77
21.390,72.48
21.406,71.68
21.421,70.46
21.437,68.91
21.453,67.09
21.468,64.99
21.484,62.61
21.500,60.03
21.515,57.42
21.531,54.99
21.546,52.87
21.562,50.97
21.578,48.99
21.593,46.46
21.609,42.96
21.625,38.26
21.640,32.49
21.656,26.04
21.671,19.5
21.687,13.44
21.703,8.22
21.718,3.93
21.734,0.3
21.750,-3.1
21.765,-6.72
21.781,-10.76
21.796,-15.17
21.812,-19.68
21.828,-24.02
21.843,-28.16
21.859,-32.36
21.875,-37.12
21.890,-42.9
21.906,-49.91
21.921,-58.02
21.937,-66.67
21.953,-75.06
21.968,-82.21
21.984,-87.06
22.000,-88.61
22.015,-86.17
22.031,-79.6
22.046,-69.48
22.062,-56.98
22.078,-43.63
22.093,-30.75
22.109,-19.14
22.125,-8.9
22.140,0.36
22.156,9.15
22.171,17.75
22.187,26.11
22.203,33.79
22.218,40.23
22.234,44.91
22.250,47.53
22.265,48.08
22.281,46.82
22.296,44.28
22.312,41.14
22.328,38.12
22.343,35.81
22.359,34.63
22.375,34.73
22.390,35.96
22.406,37.96
22.421,40.12
22.437,41.82
22.453,42.44
22.468,41.57
22.484,39.03
22.500,35.02
22.515,30.0
22.531,24.54
22.546,19.21
22.562,14.37
22.578,10.03
22.593,5.96
22.609,1.83
22.625,-2.69
22.640,-7.72
22.656,-13.26
22.671,-19.2
22.687,-25.44
22.703,-31.96
22.718,-38.69
22.734,-45.52
22.750,-52.18
22.765,-58.39
22.781,-63.96
22.796,-69.0
22.812,-73.94
22.828,-79.38
22.843,-85.81
22.859,-93.27
22.875,-101.14
22.890,-108.27
22.906,-113.17
22.921,-114.49
22.937,-111.39
22.953,-103.75
22.968,-92.1
22.984,-77.54
23.000,-61.32
23.015,-44.61
23.031,-28.34
23.046,-13.1
23.062,0.79
23.078,13.21
23.093,24.07
23.109,33.29
23.125,40.71
23.140,46.21
23.156,49.85
23.171,51.9
23.187,52.82
23.203,53.14
23.218,53.31
23.234,53.57
23.250,54.01
23.265,54.56
23.281,55.16
23.296,55.71
23.312,56.09
23.328,56.11
23.343,55.51
23.359,54.08
23.375,51.77
23.390,48.69
23.406,45.14
23.421,41.45
23.437,37.86
23.453,34.54
23.468,31.47
23.484,28.53
23.500,25.47
23.515,21.87
23.531,17.29
23.546,11.45
23.562,4.38
23.578,-3.49
23.593,-11.43
23.609,-18.74
23.625,-24.99
23.640,-30.28
23.656,-35.1
23.671,-40.15
23.687,-46.04
23.703,-53.07
23.718,-61.14
23.734,-69.74
23.750,-77.94
23.765,-84.56
23.781,-88.27
23.796,-87.92
23.812,-82.8
23.828,-72.95
23.843,-59.23
23.859,-43.03
23.875,-25.97
23.890,-9.35
23.906,6.04
23.921,19.93
23.937,32.37
23.953,43.45
23.968,53.12
23.984,61.28
24.000,67.81
24.015,72.76
24.031,76.4
24.046,79.06
24.062,81.03
24.078,82.47
24.093,83.49
24.109,84.13
24.125,84.5
24.140,84.71
24.156,84.8
24.171,84.72
24.187,84.27
24.203,83.29
24.218,81.66
24.234,79.36
24.250,76.41
24.265,72.78
24.281,68.39
24.296,63.18
24.312,57.23
24.328,50.76
24.343,44.05
24.359,37.35
24.375,30.67
24.390,23.77
24.406,16.33
24.421,8.08
24.437,-1.09
24.453,-10.99
24.468,-21.32
24.484,-31.76
24.500,-42.0
24.515,-51.83
24.531,-61.09
24.546,-69.68
24.562,-77.6
24.578,-85.04
24.593,-92.39
24.609,-100.1
24.625,-108.5
24.640,-117.4
24.656,-125.99
24.671,-132.85
24.687,-136.32
24.703,-135.1
24.718,-128.73
24.734,-117.85
24.750,-103.92
24.765,-88.74
24.781,-73.81
24.796,-60.02
24.812,-47.47
24.828,-35.76
24.843,-24.32
24.859,-12.73
24.875,-0.87
24.890,11.04
24.906,22.48
24.921,32.79
24.937,41.32
24.953,47.66
24.968,51.76
24.984,53.96
25.000,54.84
25.015,54.99
25.031,54.85
25.046,54.61
25.062,54.32
25.078,54.0
25.093,53.68
25.109,53.45
25.125,53.35
25.140,53.36
25.156,53.36
25.171,53.23
25.187,52.84
25.203,52.14
25.218,51.11
25.234,49.72
25.250,47.93
25.265,45.72
25.281,43.07
25.296,40.05
25.312,36.69
25.328,32.98
25.343,28.88
25.359,24.29
25.375,19.15
25.390,13.48
25.406,7.38
25.421,1.04
25.437,-5.32
25.453,-11.54
25.468,-17.53
25.484,-23.32
25.500,-29.1
25.515,-35.16
25.531,-41.83
25.546,-49.28
25.562,-57.4
25.578,-65.62
25.593,-72.97
25.609,-78.28
25.625,-80.6
25.640,-79.48
25.656,-75.22
25.671,-68.76
25.687,-61.41
25.703,-54.31
25.718,-48.2
25.734,-43.18
25.750,-38.84
25.765,-34.55
25.781,-29.82
25.796,-24.49
25.812,-18.9
25.828,-13.71
25.843,-9.62
25.859,-7.08
25.875,-6.17
25.890,-6.47
25.906,-7.34
25.921,-8.09
25.937,-8.23
25.953,-7.55
25.968,-6.06
25.984,-3.87
26.000,-1.1
26.015,2.11
26.031,5.56
26.046,8.9
26.062,11.74
26.078,13.7
26.093,14.6
26.109,14.52
26.125,13.77
26.140,12.75
26.156,11.78
26.171,11.03
26.187,10.38
26.203,9.55
26.218,8.17
26.234,5.86
26.250,2.46
26.265,-1.98
26.281,-7.13
26.296,-12.53
26.312,-17.72
26.328,-22.48
26.343,-26.93
26.359,-31.5
26.375,-36.77
26.390,-43.29
26.406,-51.33
26.421,-60.73
26.437,-70.86
26.453,-80.65
26.468,-88.68
26.484,-93.5
26.500,-93.88
26.515,-89.2
26.531,-79.61
26.546,-66.04
26.562,-49.93
26.578,-32.89
26.593,-16.22
26.609,-0.78
26.625,13.04
26.640,25.17
26.656,35.59
26.671,44.26
26.687,51.05
26.703,55.9
26.718,58.92
26.734,60.47
26.750,61.02
26.765,61.06
26.781,60.97
26.796,60.87
26.812,60.78
26.828,60.58
26.843,60.23
26.859,59.63
26.875,58.63
26.890,56.98
26.906,54.38
26.921,50.59
26.937,45.63
26.953,39.74
26.968,33.39
26.984,27.06
27.000,21.12
27.015,15.72
27.031,10.74
27.046,5.88
27.062,0.72
27.078,-5.17
27.093,-12.06
27.109,-19.91
27.125,-28.39
27.140,-36.87
27.156,-44.7
27.171,-51.51
27.187,-57.37
27.203,-62.86
27.218,-68.82
27.234,-76.0
27.250,-84.79
27.265,-94.89
27.281,-105.4
27.296,-114.89
27.312,-121.74
27.328,-124.45
27.343,-122.02
27.359,-114.15
27.375,-101.31
27.390,-84.7
27.406,-65.89
27.421,-46.55
27.437,-28.06
27.453,-11.36
27.468,3.07
27.484,15.14
27.500,24.91
27.515,32.46
27.531,37.87
27.546,41.3
27.562,43.1
27.578,43.83
27.593,44.16
27.609,44.7
27.625,45.79
27.640,47.49
27.656,49.64
27.671,52.05
27.687,54.61
27.703,57.26
27.718,59.91
27.734,62.41
27.750,64.39
27.765,65.46
27.781,65.29
27.796,63.79
27.812,61.1
27.828,57.64
27.843,53.85
27.859,50.11
27.875,46.55
27.890,43.0
27.906,39.08
27.921,34.35
27.937,28.53
27.953,21.68
27.968,14.17
27.984,6.62
28.000,-0.36
28.015,-6.39
28.031,-11.42
28.046,-15.71
28.062,-19.72
28.078,-23.94
28.093,-28.88
28.109,-34.92
28.125,-42.24
28.140,-50.54
28.156,-59.01
28.171,-66.18
28.187,-70.2
28.203,-69.37
28.218,-62.7
28.234,-50.28
28.250,-33.29
28.265,-13.6
28.281,6.83
28.296,26.5
28.312,44.59
28.328,60.82
28.343,75.23
28.359,87.87
28.375,98.71
28.390,107.68
28.406,114.8
28.421,120.18
28.437,124.15
28.453,127.15
28.468,129.64
28.484,132.09
28.500,134.83
28.515,138.01
28.531,141.45
28.546,144.68
28.562,146.98
28.578,147.59
28.593,145.92
28.609,141.63
28.625,134.74
28.640,125.6
28.656,114.74
28.671,102.78
28.687,90.29
28.703,77.63
28.718,64.91
28.734,52.0
28.750,38.64
28.765,24.67
28.781,10.18
28.796,-4.34
28.812,-18.04
28.828,-29.96
28.843,-39.26
28.859,-45.5
28.875,-48.75
28.890,-49.56
28.906,-48.88
28.921,-47.76
28.937,-47.26
28.953,-48.23
28.968,-51.33
28.984,-57.01
29.000,-65.57
29.015,-76.94
29.031,-90.52
29.046,-105.0
29.062,-118.41
29.078,-128.49
29.093,-133.34
29.109,-131.94
29.125,-124.56
29.140,-112.54
29.156,-97.83
29.171,-82.29
29.187,-67.22
29.203,-53.16
29.218,-40.11
29.234,-27.79
29.250,-15.98
29.265,-4.58
29.281,6.27
29.296,16.38
29.312,25.52
29.328,33.47
29.343,40.0
29.359,44.97
29.375,48.32
29.390,50.19
29.406,50.99
29.421,51.26
29.437,51.65
29.453,52.67
29.468,54.56
29.484,57.27
29.500,60.39
29.515,63.4
29.531,65.76
29.546,67.05
29.562,67.04
29.578,65.73
29.593,63.24
29.609,59.81
29.625,55.73
29.640,51.37
29.656,47.03
29.671,42.95
29.687,39.13
29.703,35.38
29.718,31.33
29.734,26.6
29.750,20.97
29.765,14.48
29.781,7.48
29.796,0.39
29.812,-6.48
29.828,-13.07
29.843,-19.65
29.859,-26.65
29.875,-34.49
29.890,-43.44
29.906,-53.5
29.921,-64.31
29.937,-75.2
29.953,-85.23
29.968,-93.32
29.984,-98.56
30.000,-100.34
30.015,-98.62
30.031,-93.84
30.046,-86.82
30.062,-78.51
30.078,-69.76
30.093,-61.29
30.109,-53.73
30.125,-47.59
30.140,-43.35
30.156,-41.3
30.171,-41.43
30.187,-43.5
30.203,-47.07
30.218,-51.62
30.234,-56.7
30.250,-61.91
30.265,-66.9
30.281,-71.38
30.296,-75.02
30.312,-77.56
30.328,-78.87
30.343,-78.89
30.359,-77.76
30.375,-75.62
30.390,-72.61
30.406,-68.8
30.421,-64.2
30.437,-58.9
30.453,-53.0
30.468,-46.78
30.484,-40.59
30.500,-34.91
30.515,-30.25
30.531,-27.07
30.546,-25.74
30.562,-26.38
30.578,-28.89
30.593,-32.88
30.609,-37.7
30.625,-42.41
30.640,-45.91
30.656,-47.1
30.671,-45.27
30.687,-40.33
30.703,-32.9
30.718,-24.23
30.734,-15.73
30.750,-8.62
30.765,-3.48
30.781,-0.29
30.796,1.5
30.812,2.66
30.828,3.96
30.843,6.04
30.859,9.38
30.875,14.19
30.890,20.43
30.906,27.73
30.921,35.44
30.937,42.81
30.953,49.14
30.968,54.02
30.984,57.36
31.000,59.44
31.015,60.76
31.031,61.86
31.046,63.1
31.062,64.44
31.078,65.53
31.093,65.86
31.109,65.05
31.125,63.17
31.140,60.73
31.156,58.52
31.171,57.2
31.187,57.03
31.203,57.72
31.218,58.61
31.234,58.95
31.250,58.3
31.265,56.61
31.281,54.25
31.296,51.72
31.312,49.47
31.328,47.69
31.343,46.27
31.359,44.85
31.375,43.07
31.390,40.72
31.406,37.86
31.421,34.78
31.437,31.88
31.453,29.44
31.468,27.49
31.484,25.71
31.500,23.72
31.515,21.23
31.531,18.41
31.546,15.95
31.562,14.96
31.578,16.57
31.593,21.57
31.609,30.06
31.625,41.4
31.640,54.31
31.656,67.18
31.671,78.34
31.687,86.38
31.703,90.49
31.718,90.91
31.734,89.16
31.750,87.93
31.765,90.25
31.781,98.24
31.796,111.95
31.812,128.77
31.828,144.06
31.843,152.66
31.859,150.76
31.875,137.19
31.890,113.62
31.906,83.77
31.921,52.04
31.937,22.41
31.953,-2.13
31.968,-19.56
31.984,-28.66
32.000,-29.06
32.015,-21.37
32.031,-7.38
32.046,10.18
32.062,28.14
32.078,43.69
32.093,54.83
32.109,60.68
32.125,61.25
32.140,57.13
32.156,49.18
32.171,38.31
32.187,25.44
32.203,11.35
32.218,-3.29
32.234,-18.07
32.250,-32.57
32.265,-46.22
32.281,-58.08
32.296,-66.85
32.312,-71.27
32.328,-70.72
32.343,-65.69
32.359,-57.93
32.375,-49.97
32.390,-44.41
32.406,-43.03
32.421,-46.38
32.437,-53.63
32.453,-63.16
32.468,-73.15
32.484,-82.23
32.500,-89.77
32.515,-95.85
32.531,-100.99
32.546,-105.82
32.562,-110.83
32.578,-116.25
32.593,-122.04
32.609,-127.83
32.625,-132.76
32.640,-135.53
32.656,-134.53
32.671,-128.35
32.687,-116.32
32.703,-99.0
32.718,-78.13
32.734,-56.21
32.750,-35.66
32.765,-17.98
32.781,-3.41
32.796,9.07
32.812,21.16
32.828,34.75
32.843,51.37
32.859,72.05
32.875,97.11
32.890,125.78
32.906,155.84
32.921,183.51
32.937,203.89
32.953,212.27
32.968,205.58
32.984,183.37
33.000,147.94
33.015,103.3
33.031,53.76
33.046,2.84
33.062,-46.94
33.078,-93.66
33.093,-135.39
33.109,-170.1
33.125,-196.17
33.140,-213.09
33.156,-221.85
33.171,-224.6
33.187,-223.73
33.203,-220.92
33.218,-216.69
33.234,-210.67
33.250,-202.24
33.265,-191.21
33.281,-178.14
33.296,-164.15
33.312,-150.41
33.328,-137.66
33.343,-125.82
33.359,-114.16
33.375,-101.6
33.390,-87.35
33.406,-71.34
33.421,-54.4
33.437,-38.04
33.453,-23.93
33.468,-13.45
33.484,-7.3
33.500,-5.56
33.515,-7.84
33.531,-13.39
33.546,-21.07
33.562,-29.16
33.578,-35.32
33.593,-36.86
33.609,-31.28
33.625,-17.12
33.640,5.54
33.656,34.91
33.671,67.9
33.687,100.9
33.703,130.42
33.718,153.7
33.734,168.87
33.750,174.93
33.765,171.77
33.781,160.2
33.796,142.06
33.812,120.25
33.828,98.23
33.843,79.27
33.859,65.34
33.875,56.2
33.890,49.26
33.906,40.34
33.921,25.29
33.937,1.7
33.953,-29.93
33.968,-66.46
33.984,-103.15
34.000,-135.43
34.015,-160.22
34.031,-176.5
34.046,-184.92
34.062,-186.98
34.078,-184.21
34.093,-177.82
34.109,-168.72
34.125,-157.8
34.140,-146.01
34.156,-134.46
34.171,-124.14
34.187,-115.6
34.203,-108.9
34.218,-103.59
34.234,-98.96
34.250,-94.28
34.265,-89.16
34.281,-83.62
34.296,-78.08
34.312,-73.2
34.328,-69.65
34.343,-67.98
34.359,-68.46
34.375,-71.05
34.390,-75.26
34.406,-80.12
34.421,-84.17
34.437,-85.66
34.453,-82.86
34.468,-74.52
34.484,-60.25
34.500,-40.67
34.515,-17.35
34.531,7.57
34.546,31.87
34.562,53.77
34.578,72.27
34.593,87.16
34.609,98.83
34.625,107.9
34.640,114.9
34.656,120.23
34.671,124.13
34.687,126.9
34.703,129.03
34.718,131.11
34.734,133.59
34.750,136.6
34.765,139.86
34.781,142.78
34.796,144.79
34.812,145.54
34.828,145.08
34.843,143.71
34.859,141.78
34.875,139.45
34.890,136.62
34.906,133.09
34.921,128.66
34.937,123.41
34.953,117.6
34.968,111.54
34.984,105.32
35.000,98.66
35.015,90.9
35.031,81.22
35.046,68.98
35.062,54.11
35.078,37.31
35.093,19.82
35.109,3.13
35.125,-11.66
35.140,-24.2
35.156,-35.0
35.171,-45.24
35.187,-56.16
35.203,-68.6
35.218,-82.46
35.234,-96.64
35.250,-109.19
35.265,-117.85
35.281,-120.7
35.296,-116.64
35.312,-105.85
35.328,-89.65
35.343,-70.1
35.359,-49.4
35.375,-29.35
35.390,-11.0
35.406,5.3
35.421,19.59
35.437,32.06
35.453,42.73
35.468,51.53
35.484,58.39
35.500,63.44
35.515,67.02
35.531,69.66
35.546,71.8
35.562,73.66
35.578,75.26
35.593,76.44
35.609,77.12
35.625,77.34
35.640,77.23
35.656,76.86
35.671,76.13
35.687,74.75
35.703,72.35
35.718,68.71
35.734,63.84
35.750,58.01
35.765,51.61
35.781,45.01
35.796,38.42
35.812,31.94
35.828,25.51
35.843,18.89
35.859,11.71
35.875,3.53
35.890,-5.98
35.906,-16.76
35.921,-28.18
35.937,-39.16
35.953,-48.41
35.968,-54.94
35.984,-58.52
36.000,-59.74
36.015,-59.87
36.031,-60.42
36.046,-62.69
36.062,-67.46
36.078,-74.7
36.093,-83.57
36.109,-92.37
36.125,-98.97
36.140,-101.24
36.156,-97.65
36.171,-87.78
36.187,-72.35
36.203,-52.82
36.218,-30.84
36.234,-7.73
36.250,15.66
36.265,38.8
36.281,61.16
36.296,82.0
36.312,100.4
36.328,115.49
36.343,126.7
36.359,133.79
36.375,136.95
36.390,136.58
36.406,133.48
36.421,128.7
36.437,123.56
36.453,119.38
36.468,117.26
36.484,117.77
36.500,120.88
36.515,126.14
36.531,132.96
36.546,140.87
36.562,149.65
36.578,159.21
36.593,169.13
36.609,178.34
36.625,184.81
36.640,185.98
36.656,179.5
36.671,164.33
36.687,141.39
36.703,113.61
36.718,84.99
36.734,59.25
36.750,38.51
36.765,22.72
36.781,9.96
36.796,-2.53
36.812,-17.11
36.828,-34.8
36.843,-54.66
36.859,-73.73
36.875,-87.68
36.890,-92.16
36.906,-84.58
36.921,-65.68
36.937,-40.16
36.953,-15.62
36.968,-0.34
36.984,-0.74
37.000,-19.64
37.015,-55.89
37.031,-104.88
37.046,-159.61
37.062,-211.62
37.078,-252.2
37.093,-273.76
37.109,-271.61
37.125,-245.37
37.140,-199.11
37.156,-140.38
37.171,-78.15
37.187,-20.99
37.203,24.15
37.218,52.14
37.234,59.59
37.250,45.0
37.265,9.43
37.281,-42.94
37.296,-104.84
37.312,-167.05
37.328,-220.27
37.343,-257.23
37.359,-274.13
37.375,-271.04
37.390,-251.42
37.406,-220.75
37.421,-184.98
37.437,-149.21
37.453,-116.93
37.468,-90.01
37.484,-69.19
37.500,-54.62
37.515,-46.06
37.531,-42.72
37.546,-43.12
37.562,-45.15
37.578,-46.54
37.593,-45.54
37.609,-41.48
37.625,-34.94
37.640,-27.54
37.656,-21.26
37.671,-17.83
37.687,-18.12
37.703,-21.97
37.718,-28.34
37.734,-35.79
37.750,-43.04
37.765,-49.31
37.781,-54.45
37.796,-58.77
37.812,-62.82
37.828,-67.11
37.843,-72.11
37.859,-78.23
37.875,-85.83
37.890,-94.98
37.906,-105.1
37.921,-114.63
37.937,-121.21
37.953,-122.17
37.968,-115.49
37.984,-100.62
38.000,-78.77
38.015,-52.61
38.031,-25.41
38.046,-0.01
38.062,21.82
38.078,39.65
38.093,54.02
38.109,65.92
38.125,76.35
38.140,85.89
38.156,94.75
38.171,102.69
38.187,109.31
38.203,114.16
38.218,116.97
38.234,117.72
38.250,116.68
38.265,114.32
38.281,111.23
38.296,108.07
38.312,105.46
38.328,103.91
38.343,103.8
38.359,105.19
38.375,107.85
38.390,111.22
38.406,114.55
38.421,117.09
38.437,118.24
38.453,117.72
38.468,115.7
38.484,112.68
38.500,109.48
38.515,106.93
38.531,105.62
38.546,105.7
38.562,106.72
38.578,107.82
38.593,108.03
38.609,106.68
38.625,103.68
38.640,99.6
38.656,95.48
38.671,92.42
38.687,91.3
38.703,92.38
38.718,95.27
38.734,99.03
38.750,102.39
38.765,104.15
38.781,103.52
38.796,100.45
38.812,95.78
38.828,91.08
38.843,88.21
38.859,88.7
38.875,93.15
38.890,100.93
38.906,110.42
38.921,119.59
38.937,126.81
38.953,131.3
38.968,133.33
38.984,133.84
39.000,133.76
39.015,133.38
39.031,131.93
39.046,127.66
39.062,118.27
39.078,101.7
39.093,76.97
39.109,44.87
39.125,7.96
39.140,-30.13
39.156,-65.78
39.171,-96.44
39.187,-120.99
39.203,-139.41
39.218,-151.96
39.234,-158.4
39.250,-157.96
39.265,-149.96
39.281,-134.77
39.296,-114.29
39.312,-91.76
39.328,-70.6
39.343,-53.28
39.359,-40.52
39.375,-31.38
39.390,-24.04
39.406,-16.8
39.421,-8.73
39.437,0.13
39.453,8.77
39.468,15.4
39.484,17.47
39.500,11.97
39.515,-3.85
39.531,-31.37
39.546,-69.46
39.562,-113.96
39.578,-158.42
39.593,-195.74
39.609,-220.22
39.625,-228.97
39.640,-222.14
39.656,-202.16
39.671,-172.55
39.687,-136.95
39.703,-98.82
39.718,-61.33
39.734,-27.26
39.750,1.39
39.765,23.72
39.781,40.04
39.796,51.44
39.812,59.05
39.828,63.51
39.843,64.89
39.859,63.1
39.875,58.38
39.890,51.54
39.906,43.68
39.921,35.68
39.937,27.68
39.953,19.05
39.968,8.84
39.984,-3.63
40.000,-18.29
40.015,-34.2
40.031,-49.89
40.046,-63.85
40.062,-74.98
40.078,-82.86
40.093,-87.67
40.109,-89.96
40.125,-90.35
40.140,-89.45
40.156,-87.86
40.171,-86.22
40.187,-85.17
40.203,-85.29
40.218,-86.94
40.234,-90.11
40.250,-94.33
40.265,-98.75
40.281,-102.33
40.296,-104.16
40.312,-103.73
40.328,-101.07
40.343,-96.79
40.359,-91.87
40.375,-87.47
40.390,-84.59
40.406,-83.93
40.421,-85.76
40.437,-89.74
40.453,-94.92
40.468,-99.72
40.484,-102.23
40.500,-100.69
40.515,-94.07
40.531,-82.5
40.546,-67.39
40.562,-50.9
40.578,-35.29
40.593,-22.19
40.609,-12.08
40.625,-4.45
40.640,1.86
40.656,8.07
40.671,14.96
40.687,22.74
40.703,31.14
40.718,39.63
40.734,47.63
40.750,54.66
40.765,60.37
40.781,64.54
40.796,67.13
40.812,68.28
40.828,68.33
40.843,67.81
40.859,67.29
40.875,67.31
40.890,68.12
40.906,69.68
40.921,71.59
40.937,73.27
40.953,74.08
40.968,73.55
40.984,71.51
41.000,68.08
41.015,63.61
41.031,58.51
41.046,53.12
41.062,47.58
41.078,41.98
41.093,36.37
41.109,30.87
41.125,25.72
41.140,21.1
41.156,17.05
41.171,13.42
41.187,9.84
41.203,5.83
41.218,0.99
41.234,-5.03
41.250,-12.37
41.265,-20.87
41.281,-29.95
41.296,-38.49
41.312,-44.91
41.328,-47.56
41.343,-45.17
41.359,-37.45
41.375,-25.19
41.390,-10.16
41.406,5.58
41.421,20.23
41.437,32.81
41.453,43.18
41.468,51.78
41.484,59.22
41.500,65.91
41.515,71.97
41.531,77.25
41.546,81.57
41.562,84.79
41.578,86.94
41.593,88.14
41.609,88.52
41.625,88.18
41.640,87.25
41.656,85.9
41.671,84.41
41.687,83.12
41.703,82.35
41.718,82.2
41.734,82.55
41.750,83.11
41.765,83.52
41.781,83.51
41.796,82.98
41.812,81.93
41.828,80.46
41.843,78.67
41.859,76.66
41.875,74.66
41.890,72.9
41.906,71.68
41.921,71.19
41.937,71.46
41.953,72.42
41.968,73.89
41.984,75.72
42.000,77.84
42.015,80.28
42.031,83.05
42.046,86.17
42.062,89.59
42.078,93.31
42.093,97.38
42.109,101.95
42.125,107.22
42.140,113.28
42.156,120.07
42.171,127.32
42.187,134.71
42.203,142.09
42.218,149.53
42.234,157.39
42.250,165.93
42.265,174.97
42.281,183.63
42.296,190.37
42.312,193.39
42.328,191.19
42.343,182.89
42.359,168.26
42.375,147.59
42.390,121.52
42.406,91.04
42.421,57.73
42.437,23.74
42.453,-8.44
42.468,-36.49
42.484,-58.93
42.500,-75.34
42.515,-86.26
42.531,-92.76
42.546,-95.97
42.562,-96.9
42.578,-96.47
42.593,-95.65
42.609,-95.35
42.625,-96.21
42.640,-98.3
42.656,-101.04
42.671,-103.4
42.687,-104.28
42.703,-102.99
42.718,-99.4
42.734,-94.01
42.750,-87.72
42.765,-81.62
42.781,-76.72
42.796,-73.77
42.812,-73.09
42.828,-74.51
42.843,-77.48
42.859,-81.28
42.875,-85.34
42.890,-89.5
42.906,-94.13
42.921,-99.9
42.937,-107.48
42.953,-116.86
42.968,-127.09
42.984,-136.26
43.000,-141.89
43.015,-141.78
43.031,-134.67
43.046,-120.83
43.062,-101.95
43.078,-80.64
43.093,-59.66
43.109,-41.25
43.125,-26.66
43.140,-16.2
43.156,-9.46
43.171,-5.74
43.187,-4.28
43.203,-4.44
43.218,-5.68
43.234,-7.56
43.250,-9.68
43.265,-11.79
43.281,-13.85
43.296,-16.0
43.312,-18.58
43.328,-21.9
43.343,-26.06
43.359,-30.77
43.375,-35.37
43.390,-38.96
43.406,-40.81
43.421,-40.6
43.437,-38.67
43.453,-35.9
43.468,-33.43
43.484,-32.29
43.500,-32.97
43.515,-35.36
43.531,-38.83
43.546,-42.54
43.562,-45.77
43.578,-48.2
43.593,-49.94
43.609,-51.38
43.625,-52.94
43.640,-54.91
43.656,-57.33
43.671,-60.07
43.687,-62.99
43.703,-66.12
43.718,-69.61
43.734,-73.73
43.750,-78.69
43.765,-84.57
43.781,-91.26
43.796,-98.55
43.812,-106.06
43.828,-113.23
43.843,-119.16
43.859,-122.67
43.875,-122.58
43.890,-118.17
43.906,-109.56
43.921,-97.84
43.937,-84.75
43.953,-72.0
43.968,-60.6
43.984,-50.65
44.000,-41.42
44.015,-31.99
44.031,-21.75
44.046,-10.7
44.062,0.65
44.078,11.62
44.093,21.67
44.109,30.49
44.125,37.93
44.140,43.82
44.156,47.98
44.171,50.29
44.187,50.85
44.203,50.14
44.218,48.82
44.234,47.61
44.250,47.0
44.265,47.07
44.281,47.55
44.296,47.94
44.312,47.68
44.328,46.34
44.343,43.74
44.359,39.92
44.375,35.1
44.390,29.62
44.406,23.79
44.421,17.83
44.437,11.87
44.453,5.93
44.468,0.08
44.484,-5.62
44.500,-11.09
44.515,-16.37
44.531,-21.66
44.546,-27.33
44.562,-33.86
44.578,-41.67
44.593,-50.9
44.609,-61.24
44.625,-71.76
44.640,-81.04
44.656,-87.34
44.671,-89.08
44.687,-85.33
44.703,-76.13
44.718,-62.58
44.734,-46.55
44.750,-30.08
44.765,-14.83
44.781,-1.7
44.796,9.22
44.812,18.41
44.828,26.54
44.843,34.02
44.859,40.97
44.875,47.14
44.890,52.15
44.906,55.68
44.921,57.65
44.937,58.21
44.953,57.7
44.968,56.48
44.984,54.81
45.000,52.93
45.015,50.99
45.031,49.18
45.046,47.69
45.062,46.58
45.078,45.78
45.093,45.03
45.109,43.96
45.125,42.27
45.140,39.81
45.156,36.55
45.171,32.46
45.187,27.44
45.203,21.34
45.218,14.12
45.234,6.02
45.250,-2.43
45.265,-10.55
45.281,-17.8
45.296,-24.06
45.312,-29.64
45.328,-35.12
45.343,-41.11
45.359,-48.08
45.375,-56.28
45.390,-65.69
45.406,-75.97
45.421,-86.29
45.437,-95.17
45.453,-100.7
45.468,-101.06
45.484,-95.18
45.500,-83.25
45.515,-66.76
45.531,-47.97
45.546,-29.11
45.562,-11.76
45.578,3.43
45.593,16.47
45.609,27.69
45.625,37.3
45.640,45.39
45.656,51.98
45.671,57.17
45.687,61.15
45.703,64.17
45.718,66.38
45.734,67.85
45.750,68.59
45.765,68.63
45.781,68.04
45.796,66.87
45.812,65.16
45.828,62.87
45.843,59.95
45.859,56.45
45.875,52.46
45.890,48.08
45.906,43.41
45.921,38.49
45.937,33.4
45.953,28.27
45.968,23.27
45.984,18.45
46.000,13.63
46.015,8.41
46.031,2.23
46.046,-5.3
46.062,-14.2
46.078,-24.01
46.093,-33.99
46.109,-43.37
46.125,-51.66
46.140,-58.85
46.156,-65.36
46.171,-71.92
46.187,-79.29
46.203,-87.94
46.218,-97.83
46.234,-108.17
46.250,-117.53
46.265,-124.05
46.281,-125.96
46.296,-122.18
46.312,-112.59
46.328,-98.15
46.343,-80.46
46.359,-61.25
46.375,-41.88
46.390,-23.1
46.406,-5.21
46.421,11.64
46.437,27.25
46.453,41.26
46.468,53.32
46.484,63.33
46.500,71.5
46.515,78.33
46.531,84.39
46.546,90.03
46.562,95.33
46.578,100.13
46.593,104.18
46.609,107.39
46.625,109.95
46.640,112.33
46.656,115.11
46.671,118.73
46.687,123.27
46.703,128.29
46.718,133.04
46.734,136.72
46.750,138.94
46.765,139.97
46.781,140.73
46.796,142.38
46.812,145.82
46.828,151.2
46.843,157.73
46.859,164.02
46.875,168.55
46.890,170.37
46.906,169.46
46.921,166.84
46.937,164.33
46.953,164.04
46.968,167.66
46.984,175.77
47.000,187.22
47.015,198.93
47.031,206.33
47.046,204.4
47.062,189.34
47.078,160.04
47.093,118.93
47.109,71.67
47.125,25.65
47.140,-12.16
47.156,-37.11
47.171,-48.09
47.187,-47.15
47.203,-38.48
47.218,-26.7
47.234,-15.69
47.250,-7.99
47.265,-4.9
47.281,-6.88
47.296,-13.88
47.312,-25.29
47.328,-39.85
47.343,-55.66
47.359,-70.65
47.375,-83.33
47.390,-93.35
47.406,-101.47
47.421,-108.9
47.437,-116.36
47.453,-123.3
47.468,-127.88
47.484,-127.67
47.500,-120.84
47.515,-107.02
47.531,-87.67
47.546,-65.51
47.562,-43.79
47.578,-25.23
47.593,-11.61
47.609,-3.54
47.625,-0.61
47.640,-1.69
47.656,-5.28
47.671,-10.17
47.687,-16.02
47.703,-23.94
47.718,-36.31
47.734,-56.11
47.750,-85.64
47.765,-125.33
47.781,-173.08
47.796,-224.47
47.812,-273.71
47.828,-314.96
47.843,-343.42
47.859,-356.02
47.875,-351.77
47.890,-331.77
47.906,-299.05
47.921,-258.05
47.937,-213.94
47.953,-171.62
47.968,-134.84
47.984,-105.73
48.000,-84.59
48.015,-70.27
48.031,-60.71
48.046,-53.52
48.062,-46.46
48.078,-37.87
48.093,-26.87
48.109,-13.47
48.125,1.65
48.140,17.38
48.156,32.6
48.171,46.41
48.187,58.37
48.203,68.29
48.218,76.08
48.234,81.57
48.250,84.42
48.265,84.47
48.281,82.02
48.296,78.25
48.312,75.1
48.328,74.78
48.343,79.03
48.359,88.39
48.375,101.98
48.390,117.93
48.406,134.09
48.421,148.77
48.437,161.01
48.453,170.44
48.468,176.75
48.484,179.5
48.500,178.06
48.515,172.02
48.531,161.53
48.546,147.47
48.562,131.21
48.578,114.29
48.593,98.02
48.609,83.25
48.625,70.4
48.640,59.62
48.656,50.88
48.671,44.02
48.687,38.76
48.703,34.59
48.718,30.91
48.734,27.08
48.750,22.73
48.765,17.88
48.781,13.03
48.796,9.02
48.812,6.66
48.828,6.54
48.843,8.79
48.859,13.22
48.875,19.59
48.890,27.78
48.906,37.91
48.921,50.21
48.937,64.67
48.953,80.99
48.968,98.41
48.984,115.96
49.000,132.63
49.015,147.49
49.031,159.76
49.046,168.74
49.062,173.84
49.078,174.61
49.093,170.98
49.109,163.33
49.125,152.62
49.140,140.24
49.156,127.66
49.171,115.92
49.187,105.12
49.203,94.32
49.218,81.8
49.234,65.84
49.250,45.58
49.265,21.64
49.281,-3.91
49.296,-28.25
49.312,-48.76
49.328,-63.88
49.343,-73.44
49.359,-78.41
49.375,-80.39
49.390,-80.91
49.406,-81.1
49.421,-81.58
49.437,-82.54
49.453,-83.99
49.468,-85.88
49.484,-88.18
49.500,-90.8
49.515,-93.6
49.531,-96.21
49.546,-98.07
49.562,-98.51
49.578,-97.09
49.593,-93.85
49.609,-89.47
49.625,-85.14
49.640,-82.13
49.656,-81.22
49.671,-82.43
49.687,-84.95
49.703,-87.56
49.718,-89.3
49.734,-89.72
49.750,-88.9
49.765,-87.07
49.781,-84.21
49.796,-80.08
49.812,-74.42
49.828,-67.44
49.843,-59.97
49.859,-53.16
49.875,-47.9
49.890,-44.34
49.906,-41.81
49.921,-39.32
49.937,-36.25
49.953,-32.81
49.968,-29.95
49.984,-28.87
50.000,-30.43
50.015,-34.77
50.031,-41.42
50.046,-49.65
50.062,-58.68
50.078,-67.76
50.093,-76.12
50.109,-82.95
50.125,-87.53
50.140,-89.48
50.156,-88.87
50.171,-86.22
50.187,-82.17
50.203,-77.09
50.218,-70.98
50.234,-63.53
50.250,-54.52
50.265,-44.17
50.281,-33.27
50.296,-23.07
50.312,-14.85
50.328,-9.39
50.343,-6.73
50.359,-6.26
50.375,-7.01
50.390,-8.17
50.406,-9.46
50.421,-11.11
50.437,-13.56
50.453,-17.05
50.468,-21.22
50.484,-25.08
50.500,-27.2
50.515,-26.24
50.531,-21.37
50.546,-12.62
50.562,-0.88
50.578,12.32
50.593,25.31
50.609,36.75
50.625,46.02
50.640,53.27
50.656,59.13
50.671,64.22
50.687,68.77
50.703,72.53
50.718,74.88
50.734,75.33
50.750,73.75
50.765,70.45
50.781,66.01
50.796,60.98
50.812,55.77
50.828,50.54
50.843,45.38
50.859,40.33
50.875,35.4
50.890,30.54
50.906,25.67
50.921,20.85
50.937,16.33
50.953,12.52
50.968,9.75
50.984,7.98
51.000,6.76
51.015,5.28
51.031,2.8
51.046,-1.15
51.062,-6.52
51.078,-12.92
51.093,-19.81
51.109,-26.79
51.125,-33.73
51.140,-40.61
51.156,-47.53
51.171,-54.55
51.187,-61.71
51.203,-69.12
51.218,-76.89
51.234,-85.01
51.250,-93.21
51.265,-100.74
51.281,-106.5
51.296,-109.27
51.312,-108.13
51.328,-102.72
51.343,-93.43
51.359,-81.17
51.375,-67.04
51.390,-52.13
51.406,-37.2
51.421,-22.83
51.437,-9.41
51.453,2.74
51.468,13.33
51.484,22.17
51.500,29.19
51.515,34.44
51.531,38.12
51.546,40.54
51.562,42.14
51.578,43.4
51.593,44.75
51.609,46.51
51.625,48.76
51.640,51.37
51.656,54.1
51.671,56.65
51.687,58.82
51.703,60.48
51.718,61.59
51.734,62.15
51.750,62.23
51.765,62.0
51.781,61.69
51.796,61.56
51.812,61.82
51.828,62.48
51.843,63.3
51.859,63.79
51.875,63.4
51.890,61.7
51.906,58.62
51.921,54.5
51.937,50.09
51.953,46.22
51.968,43.54
51.984,42.26
52.000,42.07
52.015,42.29
52.031,42.24
52.046,41.51
52.062,40.2
52.078,38.9
52.093,38.45
52.109,39.61
52.125,42.74
52.140,47.57
52.156,53.08
52.171,57.7
52.187,59.8
52.203,58.28
52.218,53.24
52.234,46.16
52.250,39.6
52.265,36.25
52.281,37.89
52.296,44.67
52.312,55.07
52.328,66.49
52.343,76.16
52.359,81.83
52.375,82.21
52.390,77.06
52.406,67.27
52.421,54.65
52.437,41.65
52.453,30.73
52.468,23.46
52.484,19.94
52.500,18.68
52.515,17.28
52.531,13.58
52.546,6.74
52.562,-2.51
52.578,-12.57
52.593,-22.22
52.609,-31.68
52.625,-42.37
52.640,-55.69
52.656,-71.58
52.671,-87.86
52.687,-100.97
52.703,-107.79
52.718,-107.44
52.734,-101.88
52.750,-94.89
52.765,-90.18
52.781,-89.65
52.796,-92.93
52.812,-98.37
52.828,-104.61
52.843,-111.72
52.859,-121.2
52.875,-134.73
52.890,-152.74
52.906,-173.43
52.921,-193.1
52.937,-207.42
52.953,-212.98
52.968,-208.45
52.984,-194.88
53.000,-174.98
53.015,-151.88
53.031,-128.02
53.046,-104.67
53.062,-82.17
53.078,-60.69
53.093,-40.67
53.109,-22.98
53.125,-8.51
53.140,2.33
53.156,9.92
53.171,15.23
53.187,19.31
53.203,22.93
53.218,26.35
53.234,29.42
53.250,31.81
53.265,33.25
53.281,33.71
53.296,33.4
53.312,32.63
53.328,31.67
53.343,30.57
53.359,29.24
53.375,27.51
53.390,25.34
53.406,22.94
53.421,20.72
53.437,19.09
53.453,18.27
53.468,18.0
53.484,17.7
53.500,16.61
53.515,14.17
53.531,10.25
53.546,5.21
53.562,-0.32
53.578,-5.72
53.593,-10.69
53.609,-15.35
53.625,-20.14
53.640,-25.65
53.656,-32.33
53.671,-40.42
53.687,-49.79
53.703,-60.0
53.718,-70.19
53.734,-79.07
53.750,-85.1
53.765,-86.8
53.781,-83.19
53.796,-74.33
53.812,-61.33
53.828,-46.1
53.843,-30.82
53.859,-17.22
53.875,-6.24
53.890,1.98
53.906,7.9
53.921,12.15
53.937,15.24
53.953,17.47
53.968,19.03
53.984,20.02
54.000,20.5
54.015,20.5
54.031,19.92
54.046,18.65
54.062,16.6
54.078,13.83
54.093,10.61
54.109,7.32
54.125,4.37
54.140,2.07
54.156,0.54
54.171,-0.28
54.187,-0.58
54.203,-0.61
54.218,-0.64
54.234,-0.89
54.250,-1.52
54.265,-2.64
54.281,-4.26
54.296,-6.22
54.312,-8.33
54.328,-10.42
54.343,-12.43
54.359,-14.5
54.375,-16.94
54.390,-20.15
54.406,-24.52
54.421,-30.27
54.437,-37.43
54.453,-45.73
54.468,-54.59
54.484,-63.15
54.500,-70.31
54.515,-74.94
54.531,-76.1
54.546,-73.37
54.562,-66.9
54.578,-57.37
54.593,-45.8
54.609,-33.14
54.625,-20.1
54.640,-7.07
54.656,5.8
54.671,18.3
54.687,30.06
54.703,40.49
54.718,48.98
54.734,55.02
54.750,58.48
54.765,59.66
54.781,59.16
54.796,57.78
54.812,56.23
54.828,55.01
54.843,54.28
54.859,53.92
54.875,53.72
54.890,53.44
54.906,52.94
54.921,52.12
54.937,50.91
54.953,49.22
54.968,46.99
54.984,44.2
55.000,40.88
55.015,37.14
55.031,33.03
55.046,28.6
55.062,23.87
55.078,18.9
55.093,13.77
55.109,8.48
55.125,2.99
55.140,-2.88
55.156,-9.37
55.171,-16.57
55.187,-24.5
55.203,-33.06
55.218,-42.06
55.234,-51.28
55.250,-60.32
55.265,-68.47
55.281,-74.7
55.296,-77.86
55.312,-77.02
55.328,-71.86
55.343,-62.81
55.359,-50.84
55.375,-37.15
55.390,-22.76
55.406,-8.36
55.421,5.66
55.437,19.07
55.453,31.63
55.468,43.06
55.484,53.04
55.500,61.29
55.515,67.58
55.531,71.75
55.546,73.85
55.562,74.1
55.578,73.02
55.593,71.25
55.609,69.39
55.625,67.86
55.640,66.79
55.656,66.05
55.671,65.47
55.687,64.89
55.703,64.15
55.718,63.05
55.734,61.31
55.750,58.67
55.765,54.99
55.781,50.43
55.796,45.31
55.812,40.03
55.828,34.78
55.843,29.5
55.859,23.99
55.875,18.1
55.890,11.87
55.906,5.5
55.921,-0.88
55.937,-7.28
55.953,-13.91
55.968,-21.07
55.984,-28.94
56.000,-37.47
56.015,-46.44
56.031,-55.5
56.046,-64.09
56.062,-71.52
56.078,-76.84
56.093,-78.98
56.109,-77.1
56.125,-70.89
56.140,-60.74
56.156,-47.71
56.171,-33.18
56.187,-18.35
56.203,-4.0
56.218,9.66
56.234,22.76
56.250,35.47
56.265,47.71
56.281,59.13
56.296,69.14
56.312,77.12
56.328,82.7
56.343,85.83
56.359,86.84
56.375,86.28
56.390,84.77
56.406,82.91
56.421,81.15
56.437,79.78
56.453,78.96
56.468,78.73
56.484,79.0
56.500,79.56
56.515,80.1
56.531,80.23
56.546,79.56
56.562,77.8
56.578,74.81
56.593,70.7
56.609,65.78
56.625,60.54
56.640,55.44
56.656,50.87
56.671,46.97
56.687,43.69
56.703,40.81
56.718,37.97
56.734,34.71
56.750,30.55
56.765,25.02
56.781,17.73
56.796,8.51
56.812,-2.54
56.828,-15.11
56.843,-28.67
56.859,-42.6
56.875,-56.18
56.890,-68.54
56.906,-78.63
56.921,-85.25
56.937,-87.34
56.953,-84.3
56.968,-76.25
56.984,-64.07
57.000,-49.15
57.015,-32.95
57.031,-16.56
57.046,-0.66
57.062,14.57
57.078,29.1
57.093,42.91
57.109,55.76
57.125,67.37
57.140,77.43
57.156,85.72
57.171,92.17
57.187,96.75
57.203,99.47
57.218,100.39
57.234,99.69
57.250,97.65
57.265,94.71
57.281,91.41
57.296,88.26
57.312,85.67
57.328,83.89
57.343,82.98
57.359,82.83
57.375,83.19
57.390,83.68
57.406,83.75
57.421,82.88
57.437,80.6
57.453,76.78
57.468,71.6
57.484,65.56
57.500,59.22
57.515,52.98
57.531,46.9
57.546,40.71
57.562,33.93
57.578,26.16
57.593,17.16
57.609,6.97
57.625,-4.11
57.640,-15.64
57.656,-27.14
57.671,-38.2
57.687,-48.66
57.703,-58.69
57.718,-68.9
57.734,-80.12
57.750,-93.12
57.765,-108.14
57.781,-124.46
57.796,-140.39
57.812,-153.52
57.828,-161.37
57.843,-162.1
57.859,-155.11
57.875,-141.19
57.890,-122.27
57.906,-100.93
57.921,-79.75
57.937,-60.75
57.953,-45.15
57.968,-33.31
57.984,-24.9
58.000,-19.22
58.015,-15.48
58.031,-12.99
58.046,-11.19
58.062,-9.64
58.078,-7.93
58.093,-5.6
58.109,-2.25
58.125,2.39
58.140,8.32
58.156,15.3
58.171,22.95
58.187,30.84
58.203,38.7
58.218,46.38
58.234,53.82
58.250,60.95
58.265,67.57
58.281,73.38
58.296,78.03
58.312,81.23
58.328,82.82
58.343,82.84
58.359,81.44
58.375,78.87
58.390,75.39
58.406,71.25
58.421,66.73
58.437,62.09
58.453,57.54
58.468,53.13
58.484,48.74
58.500,44.19
58.515,39.34
58.531,34.28
58.546,29.23
58.562,24.45
58.578,19.98
58.593,15.5
58.609,10.39
58.625,3.96
58.640,-4.35
58.656,-14.66
58.671,-26.54
58.687,-38.98
58.703,-50.49
58.718,-59.25
58.734,-63.34
58.750,-61.17
58.765,-51.89
58.781,-35.74
58.796,-14.24
58.812,10.0
58.828,33.72
58.843,53.74
58.859,67.63
58.875,74.22
58.890,73.77
58.906,67.76
58.921,58.4
58.937,48.01
58.953,38.54
58.968,31.3
58.984,26.9
59.000,25.48
59.015,26.76
59.031,30.14
59.046,34.71
59.062,39.32
59.078,42.68
59.093,43.74
59.109,41.95
59.125,37.42
59.140,30.84
59.156,23.13
59.171,15.12
59.187,7.27
59.203,-0.27
59.218,-7.54
59.234,-14.49
59.250,-20.99
59.265,-26.78
59.281,-31.79
59.296,-36.24
59.312,-40.72
59.328,-46.09
59.343,-53.21
59.359,-62.6
59.375,-74.22
59.390,-87.38
59.406,-100.89
59.421,-113.4
59.437,-123.88
59.453,-131.98
59.468,-138.17
59.484,-143.62
59.500,-149.76
59.515,-157.84
59.531,-168.47
59.546,-181.33
59.562,-195.15
59.578,-207.85
59.593,-217.03
59.609,-220.57
59.625,-217.21
59.640,-206.91
59.656,-190.94
59.671,-171.33
59.687,-150.36
59.703,-129.83
59.718,-110.8
59.734,-93.5
59.750,-77.74
59.765,-63.11
59.781,-49.32
59.796,-36.2
59.812,-23.71
59.828,-11.88
59.843,-0.82
59.859,9.32
59.875,18.34
59.890,26.1
59.906,32.59
59.921,37.92
59.937,42.3
59.953,45.9
59.968,48.84
59.984,51.11
