timestamp,value
00.000,-86.36
00.015,-76.03
00.031,-60.28
00.046,-41.39
00.062,-21.98
00.078,-4.28
00.093,10.5
00.109,22.23
00.125,31.44
00.140,38.78
00.156,44.58
00.171,48.79
00.187,51.17
00.203,51.72
00.218,50.79
00.234,49.17
00.250,47.82
00.265,47.45
00.281,48.31
00.296,50.13
00.312,52.33
00.328,54.34
00.343,55.81
00.359,56.7
00.375,57.16
00.390,57.28
00.406,57.01
00.421,56.12
00.437,54.3
00.453,51.25
00.468,46.88
00.484,41.31
00.500,34.89
00.515,28.08
00.531,21.34
00.546,15.03
00.562,9.28
00.578,4.05
00.593,-0.9
00.609,-5.93
00.625,-11.51
00.640,-18.19
00.656,-26.49
00.671,-36.68
00.687,-48.49
00.703,-60.8
00.718,-71.64
00.734,-78.58
00.750,-79.5
00.765,-73.32
00.781,-60.54
00.796,-43.13
00.812,-23.89
00.828,-5.5
00.843,10.19
00.859,22.51
00.875,31.76
00.890,38.65
00.906,43.83
00.921,47.54
00.937,49.8
00.953,50.52
00.968,49.86
00.984,48.21
01.000,46.13
01.015,44.14
01.031,42.51
01.046,41.26
01.062,40.15
01.078,38.95
01.093,37.52
01.109,35.95
01.125,34.4
01.140,33.0
01.156,31.69
01.171,30.14
01.187,27.92
01.203,24.66
01.218,20.26
01.234,14.94
01.250,9.13
01.265,3.25
01.281,-2.35
01.296,-7.58
01.312,-12.5
01.328,-17.18
01.343,-21.74
01.359,-26.29
01.375,-31.02
01.390,-36.35
01.406,-42.79
01.421,-50.84
01.437,-60.62
01.453,-71.52
01.468,-82.04
01.484,-89.99
01.500,-93.1
01.515,-89.75
01.531,-79.57
01.546,-63.67
01.562,-44.23
01.578,-23.81
01.593,-4.62
01.609,11.93
01.625,25.36
01.640,35.83
01.656,43.79
01.671,49.64
01.687,53.65
01.703,55.92
01.718,56.56
01.734,55.74
01.750,53.81
01.765,51.24
01.781,48.49
01.796,45.89
01.812,43.5
01.828,41.16
01.843,38.65
01.859,35.85
01.875,32.8
01.890,29.62
01.906,26.39
01.921,23.0
01.937,19.22
01.953,14.81
01.968,9.69
01.984,4.03
02.000,-1.88
02.015,-7.75
02.031,-13.46
02.046,-19.07
02.062,-24.68
02.078,-30.31
02.093,-35.86
02.109,-41.03
02.125,-45.59
02.140,-49.44
02.156,-52.77
02.171,-56.05
02.187,-59.89
02.203,-64.84
02.218,-71.03
02.234,-77.89
02.250,-83.99
02.265,-87.23
02.281,-85.4
02.296,-76.94
02.312,-61.6
02.328,-40.58
02.343,-16.28
02.359,8.58
02.375,31.67
02.390,51.61
02.406,67.94
02.421,80.85
02.437,90.68
02.453,97.68
02.468,102.03
02.484,103.92
02.500,103.74
02.515,101.93
02.531,98.91
02.546,94.91
02.562,89.93
02.578,83.94
02.593,77.02
02.609,69.46
02.625,61.73
02.640,54.24
02.656,47.23
02.671,40.57
02.687,34.02
02.703,27.34
02.718,20.56
02.734,14.0
02.750,8.08
02.765,3.12
02.781,-0.97
02.796,-4.68
02.812,-8.76
02.828,-13.86
02.843,-20.23
02.859,-27.51
02.875,-34.92
02.890,-41.61
02.906,-46.99
02.921,-51.15
02.937,-54.69
02.953,-58.63
02.968,-63.99
02.984,-71.41
03.000,-80.86
03.015,-91.5
03.031,-101.69
03.046,-109.28
03.062,-112.14
03.078,-108.68
03.093,-98.5
03.109,-82.62
03.125,-63.25
03.140,-43.15
03.156,-24.75
03.171,-9.61
03.187,1.88
03.203,10.18
03.218,16.13
03.234,20.51
03.250,23.76
03.265,26.11
03.281,27.71
03.296,28.77
03.312,29.6
03.328,30.51
03.343,31.65
03.359,32.98
03.375,34.32
03.390,35.35
03.406,35.79
03.421,35.39
03.437,34.03
03.453,31.73
03.468,28.74
03.484,25.4
03.500,22.06
03.515,18.94
03.531,16.04
03.546,13.15
03.562,10.0
03.578,6.41
03.593,2.37
03.609,-1.86
03.625,-5.99
03.640,-9.76
03.656,-13.1
03.671,-16.17
03.687,-19.31
03.703,-22.9
03.718,-27.22
03.734,-32.47
03.750,-38.64
03.765,-45.6
03.781,-52.86
03.796,-59.57
03.812,-64.45
03.828,-66.0
03.843,-62.95
03.859,-54.68
03.875,-41.63
03.890,-25.23
03.906,-7.58
03.921,9.23
03.937,23.74
03.953,35.41
03.968,44.58
03.984,52.03
04.000,58.48
04.015,64.35
04.031,69.67
04.046,74.23
04.062,77.89
04.078,80.75
04.093,83.06
04.109,85.19
04.125,87.34
04.140,89.55
04.156,91.72
04.171,93.74
04.187,95.52
04.203,96.99
04.218,98.0
04.234,98.27
04.250,97.44
04.265,95.27
04.281,91.88
04.296,87.8
04.312,83.85
04.328,80.74
04.343,78.72
04.359,77.3
04.375,75.44
04.390,71.92
04.406,65.95
04.421,57.49
04.437,47.31
04.453,36.64
04.468,26.58
04.484,17.79
04.500,10.43
04.515,4.21
04.531,-1.4
04.546,-7.32
04.562,-14.88
04.578,-25.65
04.593,-40.76
04.609,-60.12
04.625,-81.88
04.640,-102.69
04.656,-118.7
04.671,-127.08
04.687,-126.97
04.703,-119.61
04.718,-107.43
04.734,-92.85
04.750,-77.31
04.765,-61.19
04.781,-44.37
04.796,-27.03
04.812,-10.01
04.828,5.37
04.843,17.9
04.859,27.08
04.875,33.35
04.890,37.93
04.906,42.29
04.921,47.49
04.937,53.86
04.953,60.96
04.968,67.85
04.984,73.65
05.000,77.86
05.015,80.43
05.031,81.57
05.046,81.51
05.062,80.4
05.078,78.49
05.093,76.22
05.109,74.15
05.125,72.43
05.140,70.23
05.156,65.51
05.171,55.51
05.187,37.92
05.203,12.21
05.218,-19.76
05.234,-54.1
05.250,-86.28
05.265,-112.75
05.281,-131.96
05.296,-144.42
05.312,-151.87
05.328,-156.19
05.343,-158.62
05.359,-159.49
05.375,-158.47
05.390,-154.83
05.406,-147.74
05.421,-136.52
05.437,-120.76
05.453,-100.54
05.468,-76.51
05.484,-49.9
05.500,-22.33
05.515,4.55
05.531,29.27
05.546,50.77
05.562,68.44
05.578,82.18
05.593,92.26
05.609,99.28
05.625,104.0
05.640,107.2
05.656,109.79
05.671,112.81
05.687,117.54
05.703,125.06
05.718,135.53
05.734,147.47
05.750,157.55
05.765,161.11
05.781,153.51
05.796,131.65
05.812,95.17
05.828,46.83
05.843,-8.04
05.859,-62.71
05.875,-110.52
05.890,-146.15
05.906,-166.57
05.921,-171.46
05.937,-163.04
05.953,-145.36
05.968,-123.2
05.984,-100.81
06.000,-81.04
06.015,-65.07
06.031,-52.62
06.046,-42.78
06.062,-34.6
06.078,-27.54
06.093,-21.61
06.109,-17.18
06.125,-14.82
06.140,-15.0
06.156,-17.82
06.171,-22.58
06.187,-27.44
06.203,-29.44
06.218,-25.14
06.234,-12.05
06.250,9.85
06.265,37.2
06.281,63.69
06.296,81.99
06.312,86.47
06.328,75.29
06.343,51.06
06.359,19.52
06.375,-12.72
06.390,-40.55
06.406,-61.46
06.421,-75.28
06.437,-83.0
06.453,-85.59
06.468,-83.45
06.484,-76.73
06.500,-65.99
06.515,-52.7
06.531,-39.14
06.546,-27.75
06.562,-20.16
06.578,-16.65
06.593,-16.12
06.609,-16.78
06.625,-17.02
06.640,-16.16
06.656,-14.63
06.671,-13.61
06.687,-14.29
06.703,-17.17
06.718,-21.8
06.734,-26.98
06.750,-31.36
06.765,-34.0
06.781,-34.8
06.796,-34.46
06.812,-34.1
06.828,-34.82
06.843,-37.34
06.859,-41.85
06.875,-48.08
06.890,-55.44
06.906,-63.0
06.921,-69.56
06.937,-73.6
06.953,-73.58
06.968,-68.31
06.984,-57.45
07.000,-41.83
07.015,-23.35
07.031,-4.46
07.046,12.48
07.062,25.85
07.078,35.02
07.093,40.22
07.109,42.2
07.125,41.81
07.140,39.71
07.156,36.45
07.171,32.5
07.187,28.37
07.203,24.65
07.218,21.88
07.234,20.44
07.250,20.38
07.265,21.46
07.281,23.14
07.296,24.84
07.312,26.1
07.328,26.77
07.343,26.97
07.359,26.92
07.375,26.73
07.390,26.18
07.406,24.83
07.421,22.2
07.437,18.11
07.453,12.91
07.468,7.38
07.484,2.44
07.500,-1.25
07.515,-3.56
07.531,-4.83
07.546,-5.71
07.562,-6.81
07.578,-8.45
07.593,-10.65
07.609,-13.1
07.625,-15.26
07.640,-16.35
07.656,-15.5
07.671,-11.95
07.687,-5.4
07.703,3.84
07.718,14.67
07.734,25.62
07.750,35.19
07.765,42.35
07.781,46.69
07.796,48.4
07.812,47.91
07.828,45.67
07.843,42.07
07.859,37.45
07.875,32.26
07.890,27.03
07.906,22.31
07.921,18.54
07.937,15.83
07.953,14.02
07.968,12.76
07.984,11.72
08.000,10.63
08.015,9.38
08.031,7.93
08.046,6.18
08.062,3.95
08.078,1.0
08.093,-2.88
08.109,-7.68
08.125,-13.15
08.140,-18.84
08.156,-24.22
08.171,-28.92
08.187,-32.89
08.203,-36.41
08.218,-40.05
08.234,-44.49
08.250,-50.3
08.265,-57.71
08.281,-66.34
08.296,-75.15
08.312,-82.44
08.328,-86.25
08.343,-84.89
08.359,-77.58
08.375,-64.78
08.390,-48.15
08.406,-30.11
08.421,-13.1
08.437,1.03
08.453,11.3
08.468,17.54
08.484,20.21
08.500,19.99
08.515,17.64
08.531,13.89
08.546,9.37
08.562,4.69
08.578,0.31
08.593,-3.44
08.609,-6.4
08.625,-8.52
08.640,-9.88
08.656,-10.6
08.671,-10.9
08.687,-11.04
08.703,-11.32
08.718,-12.04
08.734,-13.47
08.750,-15.76
08.765,-18.96
08.781,-23.01
08.796,-27.69
08.812,-32.67
08.828,-37.62
08.843,-42.23
08.859,-46.38
08.875,-50.23
08.890,-54.24
08.906,-59.07
08.921,-65.25
08.937,-72.82
08.953,-80.94
08.968,-87.82
08.984,-91.08
09.000,-88.47
09.015,-78.72
09.031,-62.11
09.046,-40.5
09.062,-16.78
09.078,6.06
09.093,25.77
09.109,41.35
09.125,52.85
09.140,60.96
09.156,66.43
09.171,69.77
09.187,71.25
09.203,71.12
09.218,69.81
09.234,67.91
09.250,65.94
09.265,64.2
09.281,62.6
09.296,60.82
09.312,58.53
09.328,55.63
09.343,52.34
09.359,49.03
09.375,45.98
09.390,43.13
09.406,40.07
09.421,36.21
09.437,31.04
09.453,24.43
09.468,16.74
09.484,8.7
09.500,1.17
09.515,-5.25
09.531,-10.49
09.546,-15.12
09.562,-20.18
09.578,-26.86
09.593,-35.9
09.609,-47.2
09.625,-59.45
09.640,-70.34
09.656,-77.18
09.671,-77.71
09.687,-71.01
09.703,-57.77
09.718,-40.11
09.734,-20.75
09.750,-2.2
09.765,13.98
09.781,27.26
09.796,37.79
09.812,45.93
09.828,51.87
09.843,55.63
09.859,57.24
09.875,57.08
09.890,55.85
09.906,54.39
09.921,53.3
09.937,52.66
09.953,52.03
09.968,50.76
09.984,48.38
10.000,44.95
10.015,41.03
10.031,37.43
10.046,34.74
10.062,33.03
10.078,31.74
10.093,29.97
10.109,26.83
10.125,21.87
10.140,15.18
10.156,7.34
10.171,-0.82
10.187,-8.57
10.203,-15.48
10.218,-21.58
10.234,-27.29
10.250,-33.31
10.265,-40.37
10.281,-49.03
10.296,-59.51
10.312,-71.4
10.328,-83.59
10.343,-94.26
10.359,-101.2
10.375,-102.32
10.390,-96.37
10.406,-83.48
10.421,-65.21
10.437,-44.15
10.453,-23.12
10.468,-4.28
10.484,11.36
10.500,23.91
10.515,34.09
10.531,42.66
10.546,49.95
10.562,55.9
10.578,60.33
10.593,63.24
10.609,64.98
10.625,66.09
10.640,67.13
10.656,68.34
10.671,69.64
10.687,70.76
10.703,71.46
10.718,71.67
10.734,71.59
10.750,71.47
10.765,71.46
10.781,71.46
10.796,71.16
10.812,70.12
10.828,68.1
10.843,65.14
10.859,61.6
10.875,58.03
10.890,54.94
10.906,52.57
10.921,50.87
10.937,49.54
10.953,48.19
10.968,46.55
10.984,44.51
11.000,42.16
11.015,39.68
11.031,37.27
11.046,34.99
11.062,32.8
11.078,30.61
11.093,28.34
11.109,26.05
11.125,23.85
11.140,21.91
11.156,20.27
11.171,18.85
11.187,17.47
11.203,15.92
11.218,14.14
11.234,12.24
11.250,10.46
11.265,9.03
11.281,8.07
11.296,7.51
11.312,7.05
11.328,6.34
11.343,5.11
11.359,3.26
11.375,0.94
11.390,-1.53
11.406,-3.84
11.421,-5.83
11.437,-7.69
11.453,-9.79
11.468,-12.55
11.484,-16.17
11.500,-20.47
11.515,-25.0
11.531,-29.15
11.546,-32.5
11.562,-34.99
11.578,-36.9
11.593,-38.77
11.609,-41.12
11.625,-44.25
11.640,-48.18
11.656,-52.66
11.671,-57.33
11.687,-61.87
11.703,-66.18
11.718,-70.29
11.734,-74.4
11.750,-78.81
11.765,-83.95
11.781,-90.35
11.796,-98.48
11.812,-108.4
11.828,-119.26
11.843,-129.07
11.859,-134.92
11.875,-133.81
11.890,-123.81
11.906,-104.97
11.921,-79.51
11.937,-51.11
11.953,-23.7
11.968,-0.25
11.984,17.82
12.000,30.54
12.015,38.74
12.031,43.4
12.046,45.36
12.062,45.22
12.078,43.65
12.093,41.46
12.109,39.55
12.125,38.63
12.140,39.06
12.156,40.63
12.171,42.76
12.187,44.74
12.203,46.04
12.218,46.5
12.234,46.36
12.250,46.08
12.265,46.04
12.281,46.25
12.296,46.32
12.312,45.64
12.328,43.7
12.343,40.37
12.359,36.0
12.375,31.24
12.390,26.8
12.406,22.98
12.421,19.61
12.437,16.11
12.453,11.75
12.468,6.15
12.484,-0.58
12.500,-7.81
12.515,-14.68
12.531,-20.51
12.546,-25.07
12.562,-28.8
12.578,-32.55
12.593,-37.36
12.609,-43.99
12.625,-52.6
12.640,-62.48
12.656,-72.06
12.671,-79.17
12.687,-81.48
12.703,-77.25
12.718,-65.92
12.734,-48.46
12.750,-27.11
12.765,-4.81
12.781,15.78
12.796,32.91
12.812,46.1
12.828,55.9
12.843,63.38
12.859,69.52
12.875,74.82
12.890,79.24
12.906,82.44
12.921,84.18
12.937,84.62
12.953,84.4
12.968,84.46
12.984,85.62
13.000,88.22
13.015,91.98
13.031,96.17
13.046,99.99
13.062,102.85
13.078,104.49
13.093,104.81
13.109,103.84
13.125,101.59
13.140,98.23
13.156,94.12
13.171,89.55
13.187,84.31
13.203,77.23
13.218,66.21
13.234,48.92
13.250,23.85
13.265,-8.74
13.281,-46.57
13.296,-85.94
13.312,-123.12
13.328,-155.4
13.343,-181.8
13.359,-202.69
13.375,-218.91
13.390,-230.74
13.406,-237.49
13.421,-237.67
13.437,-229.79
13.453,-213.28
13.468,-189.01
13.484,-159.27
13.500,-127.15
13.515,-95.65
13.531,-66.97
13.546,-42.2
13.562,-21.39
13.578,-4.11
13.593,10.1
13.609,21.47
13.625,30.08
13.640,36.02
13.656,39.68
13.671,41.83
13.687,43.44
13.703,45.44
13.718,48.36
13.734,52.24
13.750,56.64
13.765,60.89
13.781,64.37
13.796,66.72
13.812,67.93
13.828,68.2
13.843,67.81
13.859,66.93
13.875,65.54
13.890,63.54
13.906,60.79
13.921,57.16
13.937,52.65
13.953,47.36
13.968,41.43
13.984,35.1
14.000,28.64
14.015,22.26
14.031,16.08
14.046,10.05
14.062,3.96
14.078,-2.51
14.093,-9.74
14.109,-18.03
14.125,-27.53
14.140,-38.12
14.156,-49.27
14.171,-59.94
14.187,-68.56
14.203,-73.33
14.218,-72.66
14.234,-65.67
14.250,-52.66
14.265,-35.15
14.281,-15.47
14.296,3.86
14.312,20.85
14.328,34.44
14.343,44.56
14.359,51.83
14.375,57.13
14.390,61.21
14.406,64.49
14.421,67.16
14.437,69.28
14.453,70.97
14.468,72.47
14.484,74.1
14.500,76.19
14.515,78.88
14.531,82.08
14.546,85.46
14.562,88.52
14.578,90.75
14.593,91.65
14.609,90.76
14.625,87.53
14.640,81.16
14.656,70.75
14.671,55.55
14.687,35.5
14.703,11.59
14.718,-14.11
14.734,-38.89
14.750,-60.18
14.765,-76.35
14.781,-87.09
14.796,-93.35
14.812,-96.81
14.828,-99.25
14.843,-102.14
14.859,-106.41
14.875,-112.33
14.890,-119.47
14.906,-126.52
14.921,-131.42
14.937,-131.63
14.953,-124.99
14.968,-110.51
14.984,-88.99
15.000,-62.95
15.015,-35.95
15.031,-11.5
15.046,7.89
15.062,21.16
15.078,28.73
15.093,31.88
15.109,32.18
15.125,30.91
15.140,28.87
15.156,26.36
15.171,23.37
15.187,19.88
15.203,16.08
15.218,12.46
15.234,9.69
15.250,8.38
15.265,8.76
15.281,10.53
15.296,12.92
15.312,15.06
15.328,16.27
15.343,16.36
15.359,15.49
15.375,14.0
15.390,12.1
15.406,9.7
15.421,6.45
15.437,2.01
15.453,-3.69
15.468,-10.34
15.484,-17.21
15.500,-23.52
15.515,-28.69
15.531,-32.67
15.546,-35.85
15.562,-38.97
15.578,-42.87
15.593,-48.19
15.609,-55.38
15.625,-64.52
15.640,-75.34
15.656,-86.98
15.671,-97.98
15.687,-106.35
15.703,-109.93
15.718,-107.01
15.734,-96.97
15.750,-80.6
15.765,-60.0
15.781,-37.91
15.796,-16.97
15.812,1.02
15.828,15.41
15.843,26.53
15.859,35.22
15.875,42.35
15.890,48.44
15.906,53.58
15.921,57.6
15.937,60.31
15.953,61.63
15.968,61.72
15.984,60.89
16.000,59.51
16.015,57.9
16.031,56.3
16.046,54.8
16.062,53.35
16.078,51.73
16.093,49.65
16.109,46.84
16.125,43.16
16.140,38.62
16.156,33.4
16.171,27.8
16.187,22.03
16.203,16.17
16.218,10.14
16.234,3.82
16.250,-2.88
16.265,-9.85
16.281,-16.86
16.296,-23.6
16.312,-29.93
16.328,-35.88
16.343,-41.75
16.359,-47.95
16.375,-54.82
16.390,-62.59
16.406,-71.2
16.421,-80.31
16.437,-89.14
16.453,-96.43
16.468,-100.55
16.484,-99.76
16.500,-92.74
16.515,-79.2
16.531,-60.08
16.546,-37.56
16.562,-14.41
16.578,6.8
16.593,24.36
16.609,37.75
16.625,47.41
16.640,54.26
16.656,59.24
16.671,62.97
16.687,65.8
16.703,68.01
16.718,70.01
16.734,72.37
16.750,75.67
16.765,80.28
16.781,86.13
16.796,92.72
16.812,99.17
16.828,104.59
16.843,108.24
16.859,109.67
16.875,108.72
16.890,105.42
16.906,99.8
16.921,91.83
16.937,81.41
16.953,68.54
16.968,53.52
16.984,37.13
17.000,20.56
17.015,5.2
17.031,-7.71
17.046,-17.42
17.062,-23.88
17.078,-27.56
17.093,-29.34
17.109,-30.17
17.125,-30.97
17.140,-32.58
17.156,-35.8
17.171,-41.37
17.187,-49.75
17.203,-60.74
17.218,-73.23
17.234,-85.22
17.250,-94.19
17.265,-97.9
17.281,-95.1
17.296,-85.95
17.312,-71.93
17.328,-55.19
17.343,-37.83
17.359,-21.35
17.375,-6.51
17.390,6.48
17.406,17.53
17.421,26.49
17.437,33.11
17.453,37.28
17.468,39.3
17.484,39.93
17.500,40.23
17.515,41.28
17.531,43.76
17.546,47.69
17.562,52.3
17.578,56.38
17.593,58.63
17.609,58.24
17.625,55.17
17.640,50.09
17.656,44.17
17.671,38.59
17.687,34.21
17.703,31.46
17.718,30.38
17.734,30.64
17.750,31.57
17.765,32.23
17.781,31.54
17.796,28.54
17.812,22.6
17.828,13.4
17.843,0.86
17.859,-15.12
17.875,-34.65
17.890,-57.75
17.906,-83.92
17.921,-111.88
17.937,-139.41
17.953,-163.58
17.968,-181.35
17.984,-190.09
18.000,-188.27
18.015,-175.87
18.031,-154.5
18.046,-127.13
18.062,-97.46
18.078,-69.01
18.093,-44.35
18.109,-24.71
18.125,-10.04
18.140,0.31
18.156,7.08
18.171,10.76
18.187,11.71
18.203,10.48
18.218,8.16
18.234,6.22
18.250,6.12
18.265,8.78
18.281,14.08
18.296,21.09
18.312,28.4
18.328,34.84
18.343,39.87
18.359,43.64
18.375,46.65
18.390,49.24
18.406,51.37
18.421,52.46
18.437,51.76
18.453,48.77
18.468,43.48
18.484,36.52
18.500,28.92
18.515,21.85
18.531,16.12
18.546,12.1
18.562,9.53
18.578,7.68
18.593,5.6
18.609,2.39
18.625,-2.42
18.640,-8.63
18.656,-15.1
18.671,-19.89
18.687,-20.6
18.703,-15.04
18.718,-1.96
18.734,18.37
18.750,44.16
18.765,72.47
18.781,100.12
18.796,124.53
18.812,144.11
18.828,158.35
18.843,167.41
18.859,171.61
18.875,171.22
18.890,166.44
18.906,157.7
18.921,145.85
18.937,132.28
18.953,118.65
18.968,106.56
18.984,97.02
19.000,90.26
19.015,85.71
19.031,82.06
19.046,77.7
19.062,70.99
19.078,60.67
19.093,46.09
19.109,27.33
19.125,5.24
19.140,-18.67
19.156,-42.43
19.171,-63.94
19.187,-81.36
19.203,-93.47
19.218,-99.9
19.234,-101.32
19.250,-99.19
19.265,-95.52
19.281,-92.5
19.296,-92.11
19.312,-95.83
19.328,-104.34
19.343,-117.19
19.359,-132.6
19.375,-147.5
19.390,-158.05
19.406,-160.67
19.421,-153.21
19.437,-135.85
19.453,-111.2
19.468,-83.34
19.484,-56.43
19.500,-33.37
19.515,-15.26
19.531,-1.77
19.546,8.05
19.562,14.95
19.578,19.31
19.593,21.45
19.609,22.08
19.625,22.56
19.640,24.36
19.656,28.45
19.671,34.68
19.687,41.64
19.703,47.2
19.718,49.48
19.734,47.63
19.750,42.27
19.765,35.23
19.781,28.76
19.796,24.55
19.812,23.13
19.828,23.83
19.843,25.27
19.859,26.15
19.875,25.74
19.890,23.78
19.906,20.21
19.921,14.71
19.937,6.83
19.953,-3.84
19.968,-17.22
19.984,-32.75
20.000,-49.63
20.015,-67.1
20.031,-84.33
20.046,-100.07
20.062,-112.25
20.078,-118.13
20.093,-115.17
20.109,-102.16
20.125,-80.06
20.140,-51.9
20.156,-21.84
20.171,6.22
20.187,29.67
20.203,47.35
20.218,59.17
20.234,65.35
20.250,66.0
20.265,61.07
20.281,50.81
20.296,36.05
20.312,18.36
20.328,-0.18
20.343,-17.56
20.359,-32.32
20.375,-43.82
20.390,-52.15
20.406,-57.87
20.421,-61.57
20.437,-63.68
20.453,-64.36
20.468,-63.65
20.484,-61.67
20.500,-58.62
20.515,-54.71
20.531,-50.16
20.546,-45.09
20.562,-39.62
20.578,-34.04
20.593,-28.78
20.609,-24.43
20.625,-21.61
20.640,-20.86
20.656,-22.26
20.671,-25.03
20.687,-27.1
20.703,-24.9
20.718,-13.92
20.734,9.84
20.750,47.95
20.765,97.71
20.781,151.76
20.796,199.53
20.812,230.4
20.828,237.06
20.843,217.79
20.859,176.53
20.875,121.11
20.890,60.64
20.906,3.34
20.921,-44.46
20.937,-78.59
20.953,-97.12
20.968,-100.61
20.984,-92.42
21.000,-78.35
21.015,-65.32
21.031,-59.35
21.046,-63.7
21.062,-78.01
21.078,-98.98
21.093,-121.92
21.109,-142.44
21.125,-157.45
21.140,-165.46
21.156,-166.22
21.171,-160.44
21.187,-149.59
21.203,-135.72
21.218,-121.24
21.234,-108.46
21.250,-99.08
21.265,-93.75
21.281,-91.89
21.296,-91.78
21.312,-91.04
21.328,-87.2
21.343,-78.25
21.359,-63.3
21.375,-42.58
21.390,-17.45
21.406,10.07
21.421,37.76
21.437,63.74
21.453,86.77
21.468,106.32
21.484,122.38
21.500,135.05
21.515,144.18
21.531,149.32
21.546,150.15
21.562,146.86
21.578,140.4
21.593,132.15
21.609,123.06
21.625,112.85
21.640,99.78
21.656,81.4
21.671,55.81
21.687,23.04
21.703,-14.6
21.718,-53.12
21.734,-88.31
21.750,-117.06
21.765,-138.03
21.781,-151.38
21.796,-158.08
21.812,-159.29
21.828,-156.11
21.843,-149.78
21.859,-141.89
21.875,-134.38
21.890,-129.09
21.906,-127.07
21.921,-128.02
21.937,-130.21
21.953,-130.79
21.968,-126.84
21.984,-116.36
22.000,-99.07
22.015,-76.52
22.031,-51.59
22.046,-27.41
22.062,-6.48
22.078,9.92
22.093,21.78
22.109,29.85
22.125,35.12
22.140,38.35
22.156,39.95
22.171,40.1
22.187,38.98
22.203,36.92
22.218,34.38
22.234,31.85
22.250,29.67
22.265,27.91
22.281,26.32
22.296,24.46
22.312,21.8
22.328,18.03
22.343,13.14
22.359,7.49
22.375,1.74
22.390,-3.43
22.406,-7.54
22.421,-10.51
22.437,-12.66
22.453,-14.53
22.468,-16.61
22.484,-19.07
22.500,-21.81
22.515,-24.56
22.531,-27.08
22.546,-29.14
22.562,-30.4
22.578,-30.11
22.593,-27.1
22.609,-19.96
22.625,-7.71
22.640,9.75
22.656,31.24
22.671,54.6
22.687,77.32
22.703,97.37
22.718,113.64
22.734,125.96
22.750,134.62
22.765,139.9
22.781,142.0
22.796,141.27
22.812,138.7
22.828,135.9
22.843,134.45
22.859,134.9
22.875,135.89
22.890,134.2
22.906,125.95
22.921,108.37
22.937,81.28
22.953,47.39
22.968,11.25
22.984,-22.55
23.000,-50.93
23.015,-72.92
23.031,-89.16
23.046,-100.8
23.062,-108.66
23.078,-113.0
23.093,-114.03
23.109,-112.44
23.125,-109.74
23.140,-107.99
23.156,-109.06
23.171,-113.8
23.187,-121.44
23.203,-129.48
23.218,-134.32
23.234,-132.32
23.250,-120.95
23.265,-99.72
23.281,-70.38
23.296,-36.34
23.312,-1.48
23.328,31.07
23.343,59.77
23.359,84.68
23.375,106.73
23.390,126.7
23.406,144.53
23.421,159.27
23.437,169.72
23.453,175.27
23.468,176.56
23.484,175.26
23.500,173.46
23.515,172.72
23.531,173.69
23.546,176.17
23.562,179.43
23.578,182.41
23.593,183.56
23.609,180.54
23.625,170.45
23.640,150.64
23.656,119.98
23.671,79.78
23.687,33.79
23.703,-12.88
23.718,-55.35
23.734,-90.27
23.750,-116.27
23.765,-133.59
23.781,-143.23
23.796,-146.5
23.812,-144.95
23.828,-140.56
23.843,-135.76
23.859,-133.06
23.875,-134.24
23.890,-139.61
23.906,-147.75
23.921,-155.76
23.937,-160.17
23.953,-157.99
23.968,-147.8
23.984,-130.13
24.000,-107.24
24.015,-82.21
24.031,-57.89
24.046,-35.97
24.062,-16.75
24.078,0.43
24.093,16.47
24.109,31.74
24.125,45.83
24.140,57.84
24.156,66.86
24.171,72.59
24.187,75.47
24.203,76.65
24.218,77.38
24.234,78.66
24.250,80.85
24.265,83.63
24.281,86.29
24.296,88.08
24.312,88.6
24.328,87.92
24.343,86.6
24.359,85.37
24.375,84.88
24.390,85.41
24.406,86.81
24.421,88.48
24.437,89.52
24.453,88.93
24.468,85.83
24.484,79.65
24.500,70.37
24.515,58.51
24.531,45.08
24.546,31.23
24.562,17.96
24.578,5.77
24.593,-5.51
24.609,-16.5
24.625,-27.93
24.640,-40.04
24.656,-52.22
24.671,-62.92
24.687,-70.16
24.703,-72.24
24.718,-68.53
24.734,-59.85
24.750,-48.13
24.765,-35.69
24.781,-24.26
24.796,-14.49
24.812,-6.0
24.828,2.06
24.843,10.25
24.859,18.51
24.875,26.19
24.890,32.6
24.906,37.4
24.921,40.86
24.937,43.65
24.953,46.48
24.968,49.66
24.984,53.06
25.000,56.23
25.015,58.77
25.031,60.56
25.046,61.83
25.062,62.96
25.078,64.24
25.093,65.63
25.109,66.77
25.125,67.15
25.140,66.42
25.156,64.53
25.171,61.89
25.187,59.07
25.203,56.68
25.218,55.04
25.234,54.16
25.250,53.75
25.265,53.32
25.281,52.45
25.296,50.9
25.312,48.77
25.328,46.37
25.343,44.03
25.359,41.8
25.375,39.31
25.390,35.91
25.406,31.15
25.421,25.25
25.437,19.45
25.453,15.76
25.468,16.24
25.484,22.42
25.500,34.68
25.515,52.15
25.531,72.77
25.546,93.35
25.562,109.85
25.578,117.7
25.593,112.72
25.609,92.37
25.625,57.04
25.640,10.52
25.656,-40.63
25.671,-88.88
25.687,-127.91
25.703,-154.15
25.718,-167.15
25.734,-168.75
25.750,-161.78
25.765,-149.0
25.781,-132.63
25.796,-114.47
25.812,-96.18
25.828,-79.39
25.843,-65.42
25.859,-54.94
25.875,-47.76
25.890,-42.89
25.906,-39.07
25.921,-35.28
25.937,-31.18
25.953,-27.05
25.968,-23.56
25.984,-21.34
26.000,-20.58
26.015,-20.92
26.031,-21.54
26.046,-21.54
26.062,-20.3
26.078,-17.81
26.093,-14.72
26.109,-12.23
26.125,-11.57
26.140,-13.47
26.156,-17.62
26.171,-22.49
26.187,-25.61
26.203,-24.36
26.218,-16.89
26.234,-2.85
26.250,16.46
26.265,38.68
26.281,61.19
26.296,81.88
26.312,99.35
26.328,112.8
26.343,121.85
26.359,126.52
26.375,127.35
26.390,125.37
26.406,121.6
26.421,116.36
26.437,108.61
26.453,96.21
26.468,77.04
26.484,50.37
26.500,17.88
26.515,-16.53
26.531,-48.11
26.546,-72.97
26.562,-89.35
26.578,-97.73
26.593,-100.08
26.609,-98.64
26.625,-95.11
26.640,-90.5
26.656,-85.35
26.671,-80.19
26.687,-75.58
26.703,-71.98
26.718,-69.56
26.734,-68.05
26.750,-67.05
26.765,-66.23
26.781,-65.67
26.796,-65.87
26.812,-67.49
26.828,-71.02
26.843,-76.32
26.859,-82.41
26.875,-87.56
26.890,-89.65
26.906,-86.83
26.921,-78.11
26.937,-63.77
26.953,-45.31
26.968,-24.95
26.984,-4.94
27.000,13.16
27.015,28.69
27.031,41.81
27.046,53.12
27.062,63.14
27.078,72.13
27.093,80.04
27.109,86.81
27.125,92.48
27.140,97.29
27.156,101.49
27.171,105.23
27.187,108.42
27.203,110.74
27.218,111.78
27.234,111.32
27.250,109.52
27.265,106.94
27.281,104.34
27.296,102.09
27.312,99.65
27.328,95.27
27.343,86.41
27.359,70.7
27.375,47.11
27.390,16.76
27.406,-17.28
27.421,-50.89
27.437,-80.43
27.453,-103.79
27.468,-120.73
27.484,-132.33
27.500,-140.09
27.515,-145.18
27.531,-148.21
27.546,-149.37
27.562,-148.64
27.578,-145.84
27.593,-140.62
27.609,-132.42
27.625,-120.7
27.640,-105.29
27.656,-86.73
27.671,-66.24
27.687,-45.49
27.703,-26.01
27.718,-8.8
27.734,5.87
27.750,18.33
27.765,29.15
27.781,38.93
27.796,48.03
27.812,56.63
27.828,64.77
27.843,72.48
27.859,79.84
27.875,87.01
27.890,94.1
27.906,101.15
27.921,108.0
27.937,114.27
27.953,119.47
27.968,123.16
27.984,125.19
28.000,125.86
28.015,125.83
28.031,125.93
28.046,126.8
28.062,128.6
28.078,130.9
28.093,133.06
28.109,134.47
28.125,134.89
28.140,134.41
28.156,133.2
28.171,131.3
28.187,128.53
28.203,124.77
28.218,120.03
28.234,114.38
28.250,107.49
28.265,98.18
28.281,84.44
28.296,64.08
28.312,35.92
28.328,0.88
28.343,-37.85
28.359,-75.56
28.375,-107.61
28.390,-130.86
28.406,-144.49
28.421,-149.59
28.437,-148.24
28.453,-142.47
28.468,-133.66
28.484,-122.73
28.500,-110.4
28.515,-97.63
28.531,-85.62
28.546,-75.46
28.562,-67.77
28.578,-62.53
28.593,-59.11
28.609,-56.58
28.625,-54.15
28.640,-51.28
28.656,-47.88
28.671,-44.12
28.687,-40.37
28.703,-37.03
28.718,-34.49
28.734,-32.93
28.750,-32.27
28.765,-32.09
28.781,-31.8
28.796,-30.85
28.812,-28.99
28.828,-26.52
28.843,-24.17
28.859,-22.81
28.875,-23.07
28.890,-24.93
28.906,-27.76
28.921,-30.44
28.937,-31.95
28.953,-31.73
28.968,-29.99
28.984,-27.66
29.000,-26.12
29.015,-26.72
29.031,-30.42
29.046,-37.45
29.062,-47.01
29.078,-57.17
29.093,-64.91
29.109,-66.69
29.125,-59.45
29.140,-41.97
29.156,-15.89
29.171,14.14
29.187,41.57
29.203,59.99
29.218,65.23
29.234,56.65
29.250,36.99
29.265,11.02
29.281,-16.28
29.296,-41.21
29.312,-61.75
29.328,-77.19
29.343,-87.34
29.359,-92.05
29.375,-91.22
29.390,-85.18
29.406,-75.08
29.421,-62.86
29.437,-50.77
29.453,-40.69
29.468,-33.52
29.484,-28.98
29.500,-26.03
29.515,-23.43
29.531,-20.43
29.546,-17.12
29.562,-14.28
29.578,-12.87
29.593,-13.48
29.609,-15.9
29.625,-19.2
29.640,-22.18
29.656,-23.89
29.671,-24.11
29.687,-23.42
29.703,-22.87
29.718,-23.58
29.734,-26.29
29.750,-31.1
29.765,-37.42
29.781,-43.96
29.796,-48.89
29.812,-50.23
29.828,-46.25
29.843,-36.03
29.859,-19.87
29.875,0.68
29.890,23.19
29.906,45.1
29.921,64.43
29.937,80.15
29.953,92.08
29.968,100.49
29.984,105.58
30.000,107.44
30.015,106.31
30.031,102.95
30.046,98.59
30.062,94.5
30.078,91.16
30.093,87.7
30.109,82.16
30.125,72.42
30.140,57.52
30.156,38.39
30.171,17.76
30.187,-1.03
30.203,-15.33
30.218,-24.14
30.234,-28.14
30.250,-28.8
30.265,-27.49
30.281,-24.86
30.296,-20.94
30.312,-15.56
30.328,-8.94
30.343,-1.74
30.359,5.14
30.375,10.93
30.390,15.33
30.406,18.5
30.421,20.92
30.437,23.02
30.453,25.08
30.468,27.17
30.484,29.23
30.500,31.23
30.515,33.25
30.531,35.4
30.546,37.81
30.562,40.51
30.578,43.46
30.593,46.62
30.609,50.05
30.625,53.91
30.640,58.37
30.656,63.39
30.671,68.63
30.687,73.51
30.703,77.37
30.718,79.76
30.734,80.47
30.750,79.53
30.765,77.14
30.781,73.75
30.796,69.99
30.812,66.49
30.828,63.3
30.843,59.34
30.859,52.25
30.875,39.01
30.890,17.26
30.906,-13.35
30.921,-50.47
30.937,-89.62
30.953,-125.75
30.968,-154.95
30.984,-175.54
31.000,-187.99
31.015,-193.87
31.031,-194.8
31.046,-191.8
31.062,-185.41
31.078,-176.24
31.093,-165.32
31.109,-154.15
31.125,-144.39
31.140,-137.32
31.156,-133.7
31.171,-133.69
31.187,-136.92
31.203,-142.46
31.218,-148.72
31.234,-153.39
31.250,-153.74
31.265,-147.24
31.281,-132.34
31.296,-109.18
31.312,-79.69
31.328,-46.97
31.343,-14.42
31.359,15.25
31.375,40.52
31.390,61.01
31.406,76.95
31.421,88.69
31.437,96.52
31.453,100.71
31.468,101.88
31.484,101.14
31.500,99.97
31.515,99.76
31.531,101.33
31.546,104.54
31.562,108.47
31.578,111.84
31.593,113.63
31.609,113.53
31.625,111.91
31.640,109.52
31.656,106.99
31.671,104.54
31.687,101.88
31.703,98.32
31.718,92.81
31.734,84.16
31.750,71.08
31.765,52.55
31.781,28.23
31.796,-1.09
31.812,-33.51
31.828,-66.43
31.843,-97.27
31.859,-124.42
31.875,-147.45
31.890,-166.86
31.906,-183.24
31.921,-196.4
31.937,-205.01
31.953,-206.98
31.968,-200.4
31.984,-184.5
32.000,-160.22
32.015,-130.07
32.031,-97.31
32.046,-64.91
32.062,-34.92
32.078,-8.2
32.093,15.11
32.109,35.09
32.125,51.6
32.140,64.35
32.156,73.25
32.171,78.77
32.187,82.08
32.203,84.72
32.218,88.06
32.234,92.75
32.250,98.47
32.265,104.14
32.281,108.49
32.296,110.71
32.312,110.87
32.328,109.82
32.343,108.77
32.359,108.63
32.375,109.55
32.390,110.91
32.406,111.62
32.421,110.61
32.437,107.15
32.453,100.92
32.468,92.08
32.484,81.21
32.500,69.2
32.515,57.06
32.531,45.3
32.546,33.29
32.562,18.86
32.578,-1.23
32.593,-30.1
32.609,-69.03
32.625,-116.08
32.640,-165.89
32.656,-210.94
32.671,-243.84
32.687,-259.7
32.703,-257.5
32.718,-239.94
32.734,-212.07
32.750,-179.35
32.765,-146.11
32.781,-114.94
32.796,-86.97
32.812,-62.61
32.828,-42.19
32.843,-26.14
32.859,-14.67
32.875,-7.33
32.890,-2.86
32.906,0.54
32.921,4.57
32.937,10.09
32.953,16.8
32.968,23.48
32.984,28.61
33.000,31.11
33.015,30.92
33.031,28.95
33.046,26.57
33.062,25.01
33.078,24.68
33.093,25.06
33.109,25.04
33.125,23.52
33.140,20.07
33.156,15.04
33.171,9.41
33.187,4.28
33.203,0.32
33.218,-2.4
33.234,-4.38
33.250,-6.32
33.265,-8.83
33.281,-12.27
33.296,-16.77
33.312,-22.32
33.328,-28.72
33.343,-35.34
33.359,-41.0
33.375,-43.92
33.390,-42.15
33.406,-34.2
33.421,-19.62
33.437,0.64
33.453,24.49
33.468,49.34
33.484,72.83
33.500,93.45
33.515,110.54
33.531,123.99
33.546,133.87
33.562,140.25
33.578,143.45
33.593,144.28
33.609,144.01
33.625,143.85
33.640,144.12
33.656,143.63
33.671,139.78
33.687,129.51
33.703,110.75
33.718,83.57
33.734,50.48
33.750,15.68
33.765,-16.43
33.781,-42.63
33.796,-61.48
33.812,-73.33
33.828,-79.53
33.843,-81.71
33.859,-81.29
33.875,-79.24
33.890,-76.24
33.906,-72.84
33.921,-69.57
33.937,-66.88
33.953,-65.17
33.968,-64.67
33.984,-65.45
34.000,-67.58
34.015,-71.15
34.031,-76.35
34.046,-83.3
34.062,-91.73
34.078,-100.6
34.093,-108.1
34.109,-111.92
34.125,-110.02
34.140,-101.44
34.156,-86.69
34.171,-67.67
34.187,-46.86
34.203,-26.49
34.218,-7.81
34.234,8.85
34.250,23.69
34.265,36.71
34.281,47.36
34.296,54.63
34.312,57.64
34.328,56.19
34.343,50.99
34.359,43.5
34.375,35.09
34.390,26.58
34.406,17.75
34.421,7.47
34.437,-5.65
34.453,-22.68
34.468,-43.76
34.484,-68.12
34.500,-94.13
34.515,-119.62
34.531,-142.17
34.546,-159.8
34.562,-171.61
34.578,-178.41
34.593,-182.54
34.609,-186.79
34.625,-192.97
34.640,-200.64
34.656,-207.09
34.671,-208.43
34.687,-201.56
34.703,-185.82
34.718,-163.42
34.734,-138.57
34.750,-115.78
34.765,-98.3
34.781,-87.18
34.796,-81.43
34.812,-78.73
34.828,-76.28
34.843,-71.43
34.859,-62.09
34.875,-47.17
34.890,-26.66
34.906,-1.52
34.921,26.68
34.937,56.27
34.953,85.81
34.968,114.28
34.984,141.0
35.000,165.48
35.015,187.33
35.031,206.26
35.046,222.13
35.062,234.93
35.078,244.67
35.093,251.1
35.109,253.63
35.125,251.44
35.140,243.83
35.156,230.85
35.171,213.73
35.187,194.81
35.203,176.93
35.218,162.43
35.234,152.39
35.250,146.27
35.265,142.23
35.281,137.91
35.296,131.21
35.312,120.83
35.328,106.44
35.343,88.51
35.359,67.9
35.375,45.68
35.390,22.89
35.406,0.45
35.421,-20.89
35.437,-40.56
35.453,-58.12
35.468,-73.38
35.484,-86.32
35.500,-97.2
35.515,-106.43
35.531,-114.39
35.546,-121.16
35.562,-126.31
35.578,-128.83
35.593,-127.47
35.609,-121.19
35.625,-109.68
35.640,-93.69
35.656,-74.82
35.671,-55.04
35.687,-36.09
35.703,-18.99
35.718,-3.98
35.734,9.14
35.750,20.47
35.765,29.8
35.781,36.51
35.796,39.99
35.812,40.13
35.828,37.62
35.843,33.93
35.859,30.82
35.875,29.85
35.890,31.81
35.906,36.58
35.921,43.37
35.937,51.04
35.953,58.52
35.968,65.06
35.984,70.21
36.000,73.78
36.015,75.75
36.031,76.2
36.046,75.34
36.062,73.44
36.078,70.8
36.093,67.61
36.109,63.91
36.125,59.58
36.140,54.39
36.156,48.1
36.171,40.49
36.187,31.47
36.203,21.05
36.218,9.5
36.234,-2.54
36.250,-13.95
36.265,-23.25
36.281,-28.87
36.296,-29.58
36.312,-24.87
36.328,-15.17
36.343,-1.7
36.359,13.75
36.375,29.32
36.390,43.43
36.406,55.0
36.421,63.43
36.437,68.59
36.453,70.61
36.468,69.84
36.484,66.8
36.500,62.18
36.515,56.76
36.531,51.23
36.546,46.06
36.562,41.37
36.578,36.94
36.593,32.44
36.609,27.66
36.625,22.68
36.640,17.85
36.656,13.57
36.671,10.06
36.687,7.14
36.703,4.3
36.718,0.94
36.734,-3.36
36.750,-8.68
36.765,-14.73
36.781,-21.01
36.796,-27.06
36.812,-32.49
36.828,-37.06
36.843,-40.68
36.859,-43.38
36.875,-45.42
36.890,-47.27
36.906,-49.41
36.921,-52.11
36.937,-55.03
36.953,-57.11
36.968,-56.81
36.984,-52.61
37.000,-43.71
37.015,-30.34
37.031,-13.77
37.046,4.17
37.062,21.66
37.078,37.43
37.093,50.91
37.109,62.21
37.125,71.84
37.140,80.47
37.156,88.7
37.171,96.85
37.187,104.82
37.203,112.08
37.218,117.73
37.234,120.8
37.250,120.63
37.265,117.12
37.281,110.89
37.296,103.09
37.312,95.15
37.328,88.38
37.343,83.72
37.359,81.49
37.375,81.31
37.390,82.27
37.406,83.07
37.421,82.41
37.437,79.29
37.453,73.26
37.468,64.46
37.484,53.55
37.500,41.42
37.515,28.91
37.531,16.6
37.546,4.73
37.562,-6.81
37.578,-18.4
37.593,-30.63
37.609,-44.03
37.625,-58.92
37.640,-75.1
37.656,-91.8
37.671,-107.73
37.687,-121.4
37.703,-131.52
37.718,-137.27
37.734,-138.45
37.750,-135.22
37.765,-127.99
37.781,-117.24
37.796,-103.53
37.812,-87.69
37.828,-70.93
37.843,-54.75
37.859,-40.56
37.875,-29.45
37.890,-21.78
37.906,-17.28
37.921,-15.22
37.937,-14.74
37.953,-15.15
37.968,-15.99
37.984,-17.03
38.000,-18.11
38.015,-19.09
38.031,-19.84
38.046,-20.29
38.062,-20.52
38.078,-20.8
38.093,-21.51
38.109,-22.96
38.125,-25.31
38.140,-28.39
38.156,-31.84
38.171,-35.21
38.187,-38.13
38.203,-40.37
38.218,-41.82
38.234,-42.47
38.250,-42.31
38.265,-41.45
38.281,-40.18
38.296,-38.98
38.312,-38.37
38.328,-38.69
38.343,-39.76
38.359,-40.68
38.375,-39.99
38.390,-36.07
38.406,-27.71
38.421,-14.59
38.437,2.48
38.453,21.83
38.468,41.37
38.484,59.27
38.500,74.37
38.515,86.39
38.531,95.67
38.546,102.81
38.562,108.26
38.578,112.14
38.593,114.27
38.609,114.42
38.625,112.46
38.640,108.58
38.656,103.16
38.671,96.66
38.687,89.56
38.703,82.22
38.718,74.9
38.734,67.85
38.750,61.26
38.765,55.29
38.781,50.06
38.796,45.47
38.812,41.26
38.828,37.07
38.843,32.48
38.859,27.2
38.875,21.09
38.890,14.29
38.906,7.1
38.921,-0.06
38.937,-6.79
38.953,-12.83
38.968,-18.08
38.984,-22.59
39.000,-26.48
39.015,-29.85
39.031,-32.73
39.046,-35.04
39.062,-36.66
39.078,-37.42
39.093,-37.17
39.109,-35.71
39.125,-32.88
39.140,-28.53
39.156,-22.64
39.171,-15.48
39.187,-7.43
39.203,1.15
39.218,10.24
39.234,20.26
39.250,31.93
39.265,45.93
39.281,62.37
39.296,80.59
39.312,99.26
39.328,116.69
39.343,131.32
39.359,142.08
39.375,148.41
39.390,150.29
39.406,148.01
39.421,142.26
39.437,134.05
39.453,124.65
39.468,115.41
39.484,107.44
39.500,101.25
39.515,96.79
39.531,93.6
39.546,91.14
39.562,89.26
39.578,88.28
39.593,88.97
39.609,92.17
39.625,98.33
39.640,107.24
39.656,117.89
39.671,128.73
39.687,138.07
39.703,144.64
39.718,147.92
39.734,148.27
39.750,146.75
39.765,144.54
39.781,142.34
39.796,139.99
39.812,136.47
39.828,130.37
39.843,120.65
39.859,107.06
39.875,90.28
39.890,71.47
39.906,51.69
39.921,31.64
39.937,11.65
39.953,-8.04
39.968,-27.15
39.984,-45.58
40.000,-63.57
40.015,-81.51
40.031,-99.39
40.046,-116.18
40.062,-129.83
40.078,-138.05
40.093,-139.57
40.109,-135.16
40.125,-127.57
40.140,-120.3
40.156,-115.92
40.171,-114.99
40.187,-116.16
40.203,-117.44
40.218,-117.68
40.234,-117.47
40.250,-118.85
40.265,-124.22
40.281,-135.13
40.296,-151.46
40.312,-171.47
40.328,-192.29
40.343,-210.85
40.359,-224.69
40.375,-232.52
40.390,-234.32
40.406,-231.07
40.421,-224.21
40.437,-215.14
40.453,-204.82
40.468,-193.76
40.484,-182.01
40.500,-169.41
40.515,-155.69
40.531,-140.65
40.546,-124.35
40.562,-107.21
40.578,-90.03
40.593,-73.77
40.609,-59.23
40.625,-46.72
40.640,-36.0
40.656,-26.49
40.671,-17.57
40.687,-8.94
40.703,-0.55
40.718,7.58
40.734,15.61
40.750,23.89
40.765,32.66
40.781,41.68
40.796,50.08
40.812,56.59
40.828,60.19
40.843,60.63
40.859,58.6
40.875,55.35
40.890,52.06
40.906,49.15
40.921,46.17
40.937,42.12
40.953,36.26
40.968,28.57
40.984,20.03
41.000,12.18
41.015,6.44
41.031,3.46
41.046,2.87
41.062,3.51
41.078,3.97
41.093,3.29
41.109,1.39
41.125,-0.95
41.140,-2.38
41.156,-1.56
41.171,2.33
41.187,9.33
41.203,18.82
41.218,29.64
41.234,40.48
41.250,50.09
41.265,57.48
41.281,61.97
41.296,63.25
41.312,61.34
41.328,56.59
41.343,49.65
41.359,41.43
41.375,32.95
41.390,25.2
41.406,18.84
41.421,14.16
41.437,10.99
41.453,8.85
41.468,7.16
41.484,5.51
41.500,3.68
41.515,1.66
41.531,-0.52
41.546,-2.93
41.562,-5.79
41.578,-9.31
41.593,-13.6
41.609,-18.52
41.625,-23.69
41.640,-28.64
41.656,-33.05
41.671,-36.87
41.687,-40.41
41.703,-44.1
41.718,-48.29
41.734,-53.02
41.750,-57.86
41.765,-62.05
41.781,-64.76
41.796,-65.32
41.812,-63.44
41.828,-59.21
41.843,-53.07
41.859,-45.6
41.875,-37.4
41.890,-28.97
41.906,-20.75
41.921,-13.07
41.937,-6.24
41.953,-0.52
41.968,4.01
41.984,7.37
42.000,9.76
42.015,11.37
42.031,12.27
42.046,12.4
42.062,11.57
42.078,9.72
42.093,7.0
42.109,3.85
42.125,0.85
42.140,-1.48
42.156,-2.99
42.171,-3.87
42.187,-4.59
42.203,-5.55
42.218,-6.98
42.234,-8.84
42.250,-11.03
42.265,-13.55
42.281,-16.64
42.296,-20.77
42.312,-26.42
42.328,-33.91
42.343,-43.21
42.359,-53.87
42.375,-65.04
42.390,-75.68
42.406,-84.66
42.421,-91.0
42.437,-93.94
42.453,-93.1
42.468,-88.42
42.484,-80.27
42.500,-69.29
42.515,-56.42
42.531,-42.72
42.546,-29.32
42.562,-17.19
42.578,-7.06
42.593,0.72
42.609,6.15
42.625,9.57
42.640,11.5
42.656,12.51
42.671,13.1
42.687,13.57
42.703,14.01
42.718,14.45
42.734,14.87
42.750,15.33
42.765,15.97
42.781,16.9
42.796,18.11
42.812,19.44
42.828,20.67
42.843,21.61
42.859,22.25
42.875,22.72
42.890,23.2
42.906,23.73
42.921,24.2
42.937,24.36
42.953,24.0
42.968,23.01
42.984,21.47
43.000,19.53
43.015,17.31
43.031,14.85
43.046,12.2
43.062,9.57
43.078,7.46
43.093,6.68
43.109,8.26
43.125,13.15
43.140,21.89
43.156,34.39
43.171,49.76
43.187,66.44
43.203,82.45
43.218,95.73
43.234,104.46
43.250,107.3
43.265,103.59
43.281,93.45
43.296,77.79
43.312,58.24
43.328,36.86
43.343,15.74
43.359,-3.56
43.375,-20.34
43.390,-34.78
43.406,-47.63
43.421,-59.61
43.437,-70.94
43.453,-81.15
43.468,-89.41
43.484,-94.93
43.500,-97.39
43.515,-97.09
43.531,-94.71
43.546,-91.06
43.562,-86.72
43.578,-82.0
43.593,-77.1
43.609,-72.32
43.625,-68.25
43.640,-65.67
43.656,-65.39
43.671,-67.87
43.687,-73.03
43.703,-80.15
43.718,-87.91
43.734,-94.57
43.750,-98.28
43.765,-97.43
43.781,-91.02
43.796,-78.97
43.812,-62.22
43.828,-42.62
43.843,-22.42
43.859,-3.68
43.875,12.22
43.890,24.76
43.906,34.12
43.921,40.68
43.937,44.71
43.953,46.28
43.968,45.49
43.984,42.79
44.000,39.1
44.015,35.53
44.031,33.01
44.046,31.87
44.062,31.72
44.078,31.68
44.093,30.92
44.109,29.08
44.125,26.4
44.140,23.69
44.156,21.75
44.171,21.05
44.187,21.44
44.203,22.3
44.218,22.85
44.234,22.58
44.250,21.55
44.265,20.38
44.281,19.94
44.296,20.98
44.312,23.72
44.328,27.77
44.343,32.2
44.359,35.94
44.375,38.08
44.390,38.17
44.406,36.31
44.421,33.14
44.437,29.68
44.453,27.07
44.468,26.38
44.484,28.32
44.500,33.13
44.515,40.55
44.531,50.01
44.546,60.83
44.562,72.45
44.578,84.47
44.593,96.54
44.609,108.16
44.625,118.65
44.640,127.26
44.656,133.5
44.671,137.42
44.687,139.68
44.703,141.35
44.718,143.56
44.734,147.15
44.750,152.52
44.765,159.33
44.781,166.45
44.796,171.85
44.812,172.97
44.828,167.3
44.843,153.22
44.859,130.63
44.875,100.99
44.890,66.73
44.906,30.21
44.921,-7.32
44.937,-46.06
44.953,-87.21
44.968,-131.64
44.984,-178.62
45.000,-225.13
45.015,-266.43
45.031,-297.51
45.046,-315.08
45.062,-318.72
45.078,-311.02
45.093,-296.42
45.109,-279.21
45.125,-261.95
45.140,-244.86
45.156,-226.53
45.171,-205.27
45.187,-180.52
45.203,-153.17
45.218,-125.12
45.234,-98.24
45.250,-73.45
45.265,-50.66
45.281,-29.24
45.296,-8.84
45.312,10.16
45.328,26.61
45.343,39.23
45.359,47.36
45.375,51.43
45.390,52.83
45.406,53.34
45.421,54.32
45.437,56.27
45.453,58.76
45.468,60.91
45.484,61.99
45.500,61.85
45.515,60.98
45.531,60.25
45.546,60.4
45.562,61.68
45.578,63.64
45.593,65.28
45.609,65.39
45.625,63.04
45.640,57.86
45.656,50.16
45.671,40.77
45.687,30.66
45.703,20.64
45.718,11.28
45.734,2.9
45.750,-4.2
45.765,-9.71
45.781,-13.23
45.796,-14.49
45.812,-13.53
45.828,-10.77
45.843,-7.0
45.859,-3.14
45.875,0.02
45.890,1.88
45.906,2.23
45.921,1.13
45.937,-1.14
45.953,-4.09
45.968,-7.23
45.984,-10.06
46.000,-12.2
46.015,-13.49
46.031,-14.0
46.046,-14.03
46.062,-13.98
46.078,-14.24
46.093,-15.01
46.109,-16.3
46.125,-17.85
46.140,-19.32
46.156,-20.4
46.171,-20.94
46.187,-20.96
46.203,-20.63
46.218,-20.12
46.234,-19.53
46.250,-18.92
46.265,-18.27
46.281,-17.6
46.296,-16.99
46.312,-16.59
46.328,-16.53
46.343,-16.96
46.359,-17.97
46.375,-19.59
46.390,-21.8
46.406,-24.56
46.421,-27.78
46.437,-31.32
46.453,-35.05
46.468,-38.79
46.484,-42.46
46.500,-46.12
46.515,-49.99
46.531,-54.44
46.546,-59.84
46.562,-66.2
46.578,-72.94
46.593,-78.73
46.609,-81.72
46.625,-80.11
46.640,-72.78
46.656,-59.7
46.671,-42.02
46.687,-21.63
46.703,-0.61
46.718,19.37
46.734,37.22
46.750,52.37
46.765,64.55
46.781,73.62
46.796,79.55
46.812,82.54
46.828,83.09
46.843,81.93
46.859,79.82
46.875,77.31
46.890,74.64
46.906,71.72
46.921,68.37
46.937,64.33
46.953,59.47
46.968,53.8
46.984,47.45
47.000,40.62
47.015,33.53
47.031,26.27
47.046,18.72
47.062,10.56
47.078,1.42
47.093,-8.8
47.109,-19.64
47.125,-30.01
47.140,-38.47
47.156,-43.87
47.171,-45.81
47.187,-44.97
47.203,-42.86
47.218,-41.33
47.234,-41.89
47.250,-45.33
47.265,-51.62
47.281,-60.07
47.296,-69.51
47.312,-78.45
47.328,-85.19
47.343,-87.98
47.359,-85.42
47.375,-76.94
47.390,-63.18
47.406,-46.0
47.421,-27.97
47.437,-11.55
47.453,1.69
47.468,11.41
47.484,18.4
47.500,23.96
47.515,29.31
47.531,35.24
47.546,41.98
47.562,49.36
47.578,56.89
47.593,63.67
47.609,68.25
47.625,68.84
47.640,63.85
47.656,52.72
47.671,36.39
47.687,17.35
47.703,-1.1
47.718,-15.91
47.734,-25.32
47.750,-29.22
47.765,-28.87
47.781,-26.19
47.796,-23.02
47.812,-20.57
47.828,-19.39
47.843,-19.47
47.859,-20.46
47.875,-21.83
47.890,-22.98
47.906,-23.46
47.921,-23.11
47.937,-22.34
47.953,-22.01
47.968,-23.19
47.984,-26.6
48.000,-32.08
48.015,-38.23
48.031,-42.65
48.046,-42.61
48.062,-35.99
48.078,-21.96
48.093,-1.23
48.109,24.33
48.125,52.37
48.140,80.65
48.156,107.26
48.171,130.74
48.187,150.15
48.203,165.39
48.218,177.41
48.234,187.95
48.250,198.53
48.265,209.25
48.281,217.9
48.296,220.3
48.312,211.75
48.328,189.15
48.343,152.46
48.359,104.92
48.375,51.85
48.390,-1.08
48.406,-49.14
48.421,-88.83
48.437,-117.61
48.453,-133.76
48.468,-136.79
48.484,-128.2
48.500,-111.92
48.515,-93.61
48.531,-79.12
48.546,-72.58
48.562,-75.23
48.578,-85.33
48.593,-99.22
48.609,-112.78
48.625,-122.78
48.640,-127.62
48.656,-127.54
48.671,-124.32
48.687,-120.65
48.703,-119.4
48.718,-122.7
48.734,-131.15
48.750,-143.44
48.765,-156.59
48.781,-166.6
48.796,-169.42
48.812,-161.87
48.828,-142.47
48.843,-111.99
48.859,-73.49
48.875,-31.83
48.890,7.54
48.906,39.9
48.921,62.5
48.937,74.87
48.953,78.48
48.968,75.84
48.984,69.63
49.000,62.05
49.015,54.71
49.031,48.63
49.046,44.33
49.062,41.81
49.078,40.65
49.093,40.07
49.109,39.19
49.125,37.23
49.140,33.74
49.156,28.56
49.171,21.88
49.187,14.12
49.203,5.86
49.218,-2.38
49.234,-10.32
49.250,-18.11
49.265,-26.27
49.281,-35.48
49.296,-46.2
49.312,-58.4
49.328,-71.43
49.343,-84.24
49.359,-95.64
49.375,-104.7
49.390,-111.09
49.406,-115.05
49.421,-117.41
49.437,-119.21
49.453,-121.36
49.468,-124.25
49.484,-127.52
49.500,-130.08
49.515,-130.38
49.531,-126.79
49.546,-118.08
49.562,-103.81
49.578,-84.41
49.593,-61.08
49.609,-35.51
49.625,-9.51
49.640,15.3
49.656,37.66
49.671,56.65
49.687,71.67
49.703,82.39
49.718,88.83
49.734,91.33
49.750,90.61
49.765,87.62
49.781,83.4
49.796,78.81
49.812,74.43
49.828,70.54
49.843,67.22
49.859,64.49
49.875,62.38
49.890,60.92
49.906,60.15
49.921,59.96
49.937,60.07
49.953,60.14
49.968,59.8
49.984,58.81
50.000,57.04
50.015,54.45
50.031,51.05
50.046,46.87
50.062,42.06
50.078,36.81
50.093,31.35
50.109,25.85
50.125,20.35
50.140,14.69
50.156,8.6
50.171,1.85
50.187,-5.62
50.203,-13.58
50.218,-21.63
50.234,-29.31
50.250,-36.33
50.265,-42.76
50.281,-49.12
50.296,-56.23
50.312,-64.92
50.328,-75.67
50.343,-88.2
50.359,-101.28
50.375,-112.81
50.390,-120.34
50.406,-121.67
50.421,-115.55
50.437,-102.07
50.453,-82.54
50.468,-59.15
50.484,-34.22
50.500,-9.76
50.515,12.81
50.531,32.57
50.546,48.92
50.562,61.5
50.578,70.14
50.593,75.05
50.609,76.9
50.625,76.68
50.640,75.5
50.656,74.19
50.671,73.14
50.687,72.32
50.703,71.5
50.718,70.44
50.734,69.13
50.750,67.76
50.765,66.58
50.781,65.74
50.796,65.16
50.812,64.6
50.828,63.71
50.843,62.19
50.859,59.89
50.875,56.84
50.890,53.16
50.906,49.04
50.921,44.63
50.937,39.99
50.953,35.06
50.968,29.68
50.984,23.62
51.000,16.74
51.015,9.02
51.031,0.61
51.046,-8.25
51.062,-17.22
51.078,-25.98
51.093,-34.29
51.109,-42.16
51.125,-49.83
51.140,-57.81
51.156,-66.8
51.171,-77.35
51.187,-89.59
51.203,-102.78
51.218,-115.3
51.234,-124.81
51.250,-128.91
51.265,-125.88
51.281,-115.16
51.296,-97.59
51.312,-75.13
51.328,-50.26
51.343,-25.34
51.359,-2.18
51.375,18.11
51.390,35.06
51.406,48.52
51.421,58.58
51.437,65.43
51.453,69.42
51.468,71.21
51.484,71.63
51.500,71.66
51.515,72.2
51.531,73.78
51.546,76.51
51.562,80.07
51.578,84.03
51.593,88.06
51.609,92.14
51.625,96.48
51.640,101.29
51.656,106.49
51.671,111.59
51.687,115.77
51.703,118.19
51.718,118.31
51.734,116.1
51.750,111.97
51.765,106.52
51.781,100.31
51.796,93.6
51.812,86.36
51.828,78.36
51.843,69.31
51.859,59.1
51.875,47.87
51.890,36.04
51.906,24.18
51.921,12.83
51.937,2.33
51.953,-7.34
51.968,-16.54
51.984,-25.89
52.000,-36.05
52.015,-47.43
52.031,-59.99
52.046,-73.06
52.062,-85.32
52.078,-94.94
52.093,-99.96
52.109,-98.85
52.125,-90.94
52.140,-76.75
52.156,-57.9
52.171,-36.69
52.187,-15.46
52.203,3.93
52.218,20.41
52.234,33.6
52.250,43.61
52.265,50.73
52.281,55.23
52.296,57.38
52.312,57.53
52.328,56.15
52.343,53.88
52.359,51.42
52.375,49.29
52.390,47.77
52.406,46.86
52.421,46.42
52.437,46.35
52.453,46.71
52.468,47.75
52.484,49.72
52.500,52.62
52.515,56.1
52.531,59.41
52.546,61.6
52.562,61.84
52.578,59.83
52.593,55.96
52.609,51.21
52.625,46.71
52.640,43.33
52.656,41.31
52.671,40.12
52.687,38.82
52.703,36.53
52.718,32.92
52.734,28.35
52.750,23.74
52.765,20.01
52.781,17.73
52.796,16.73
52.812,16.4
52.828,15.86
52.843,14.27
52.859,10.99
52.875,5.52
52.890,-2.22
52.906,-11.61
52.921,-21.1
52.937,-28.26
52.953,-30.55
52.968,-26.5
52.984,-16.74
53.000,-4.22
53.015,6.63
53.031,11.64
53.046,8.58
53.062,-2.1
53.078,-17.6
53.093,-34.23
53.109,-48.92
53.125,-60.15
53.140,-67.85
53.156,-72.64
53.171,-75.07
53.187,-75.15
53.203,-72.67
53.218,-67.53
53.234,-60.19
53.250,-51.7
53.265,-43.28
53.281,-35.89
53.296,-29.81
53.312,-24.75
53.328,-20.01
53.343,-15.06
53.359,-9.75
53.375,-4.46
53.390,0.07
53.406,3.08
53.421,4.16
53.437,3.38
53.453,1.34
53.468,-1.15
53.484,-3.33
53.500,-4.85
53.515,-5.91
53.531,-7.14
53.546,-9.36
53.562,-13.21
53.578,-18.9
53.593,-26.06
53.609,-33.8
53.625,-41.1
53.640,-47.11
53.656,-51.52
53.671,-54.72
53.687,-57.61
53.703,-61.33
53.718,-66.75
53.734,-74.17
53.750,-83.05
53.765,-92.1
53.781,-99.58
53.796,-103.65
53.812,-102.84
53.828,-96.41
53.843,-84.49
53.859,-67.98
53.875,-48.37
53.890,-27.4
53.906,-6.74
53.921,12.19
53.937,28.42
53.953,41.43
53.968,51.23
53.984,58.16
54.000,62.8
54.015,65.74
54.031,67.4
54.046,68.05
54.062,67.75
54.078,66.64
54.093,64.93
54.109,63.04
54.125,61.41
54.140,60.45
54.156,60.39
54.171,61.32
54.187,63.13
54.203,65.63
54.218,68.57
54.234,71.6
54.250,74.36
54.265,76.49
54.281,77.75
54.296,78.01
54.312,77.36
54.328,75.98
54.343,74.06
54.359,71.77
54.375,69.17
54.390,66.22
54.406,62.88
54.421,59.06
54.437,54.59
54.453,49.2
54.468,42.58
54.484,34.43
54.500,24.69
54.515,13.45
54.531,0.99
54.546,-12.39
54.562,-26.38
54.578,-40.53
54.593,-54.02
54.609,-65.52
54.625,-73.32
54.640,-75.77
54.656,-71.93
54.671,-61.92
54.687,-47.07
54.703,-29.44
54.718,-11.24
54.734,5.76
54.750,20.47
54.765,32.48
54.781,41.78
54.796,48.47
54.812,52.69
54.828,54.6
54.843,54.5
54.859,52.86
54.875,50.25
54.890,47.21
54.906,44.15
54.921,41.28
54.937,38.61
54.953,36.14
54.968,33.87
54.984,31.93
55.000,30.49
55.015,29.66
55.031,29.34
55.046,29.24
55.062,28.89
55.078,27.88
55.093,26.02
55.109,23.34
55.125,20.16
55.140,16.79
55.156,13.43
55.171,10.07
55.187,6.55
55.203,2.66
55.218,-1.68
55.234,-6.37
55.250,-11.26
55.265,-16.12
55.281,-20.87
55.296,-25.68
55.312,-30.92
55.328,-37.13
55.343,-44.9
55.359,-54.62
55.375,-66.32
55.390,-79.42
55.406,-92.72
55.421,-104.46
55.437,-112.73
55.453,-115.89
55.468,-113.05
55.484,-104.34
55.500,-90.79
55.515,-74.04
55.531,-55.93
55.546,-38.07
55.562,-21.61
55.578,-7.26
55.593,4.63
55.609,13.89
55.625,20.54
55.640,24.69
55.656,26.6
55.671,26.59
55.687,25.02
55.703,22.29
55.718,18.75
55.734,14.74
55.750,10.53
55.765,6.42
55.781,2.55
55.796,-0.91
55.812,-3.94
55.828,-6.5
55.843,-8.68
55.859,-10.61
55.875,-12.5
55.890,-14.58
55.906,-16.98
55.921,-19.68
55.937,-22.46
55.953,-24.98
55.968,-26.89
55.984,-28.01
56.000,-28.43
56.015,-28.4
56.031,-28.26
56.046,-28.23
56.062,-28.33
56.078,-28.42
56.093,-28.27
56.109,-27.63
56.125,-26.48
56.140,-25.05
56.156,-23.91
56.171,-23.84
56.187,-25.65
56.203,-29.8
56.218,-36.04
56.234,-43.27
56.250,-49.68
56.265,-53.22
56.281,-52.27
56.296,-46.13
56.312,-35.18
56.328,-20.73
56.343,-4.48
56.359,11.9
56.375,27.12
56.390,40.33
56.406,51.03
56.421,58.92
56.437,63.84
56.453,65.84
56.468,65.27
56.484,62.81
56.500,59.3
56.515,55.6
56.531,52.32
56.546,49.72
56.562,47.75
56.578,46.21
56.593,44.9
56.609,43.75
56.625,42.82
56.640,42.19
56.656,41.76
56.671,41.22
56.687,40.11
56.703,37.94
56.718,34.44
56.734,29.71
56.750,24.13
56.765,18.22
56.781,12.46
56.796,7.07
56.812,2.03
56.828,-2.84
56.843,-7.74
56.859,-12.78
56.875,-17.92
56.890,-23.09
56.906,-28.14
56.921,-33.06
56.937,-37.86
56.953,-42.68
56.968,-47.75
56.984,-53.39
57.000,-59.92
57.015,-67.45
57.031,-75.75
57.046,-83.98
57.062,-90.83
57.078,-94.65
57.093,-93.96
57.109,-87.91
57.125,-76.59
57.140,-61.1
57.156,-43.21
57.171,-24.83
57.187,-7.58
57.203,7.61
57.218,20.37
57.234,30.69
57.250,38.62
57.265,44.14
57.281,47.22
57.296,48.01
57.312,46.91
57.328,44.59
57.343,41.76
57.359,38.92
57.375,36.26
57.390,33.69
57.406,31.07
57.421,28.35
57.437,25.69
57.453,23.34
57.468,21.45
57.484,19.98
57.500,18.68
57.515,17.21
57.531,15.3
57.546,12.83
57.562,9.83
57.578,6.44
57.593,2.82
57.609,-0.93
57.625,-4.76
57.640,-8.71
57.656,-12.81
57.671,-17.1
57.687,-21.53
57.703,-25.99
57.718,-30.3
57.734,-34.27
57.750,-37.8
57.765,-40.97
57.781,-44.08
57.796,-47.65
57.812,-52.33
57.828,-58.59
57.843,-66.44
57.859,-75.18
57.875,-83.37
57.890,-89.14
57.906,-90.63
57.921,-86.67
57.937,-77.11
57.953,-62.8
57.968,-45.35
57.984,-26.51
58.000,-7.8
58.015,9.75
58.031,25.57
58.046,39.32
58.062,50.72
58.078,59.61
58.093,65.99
58.109,70.14
58.125,72.66
58.140,74.28
58.156,75.7
58.171,77.35
58.187,79.34
58.203,81.53
58.218,83.71
58.234,85.82
58.250,88.03
58.265,90.62
58.281,93.82
58.296,97.63
58.312,101.86
58.328,106.15
58.343,110.19
58.359,113.87
58.375,117.21
58.390,120.29
58.406,122.98
58.421,124.87
58.437,125.32
58.453,123.81
58.468,120.19
58.484,114.82
58.500,108.56
58.515,102.33
58.531,96.72
58.546,91.61
58.562,86.1
58.578,78.83
58.593,68.43
58.609,54.02
58.625,35.46
58.640,13.46
58.656,-10.63
58.671,-34.97
58.687,-57.43
58.703,-75.81
58.718,-88.18
58.734,-93.28
58.750,-90.9
58.765,-82.09
58.781,-68.95
58.796,-54.2
58.812,-40.43
58.828,-29.57
58.843,-22.51
58.859,-19.32
58.875,-19.51
58.890,-22.46
58.906,-27.59
58.921,-34.32
58.937,-41.97
58.953,-49.65
58.968,-56.43
58.984,-61.45
59.000,-64.28
59.015,-64.95
59.031,-63.92
59.046,-61.83
59.062,-59.22
59.078,-56.43
59.093,-53.59
59.109,-50.75
59.125,-48.02
59.140,-45.63
59.156,-43.81
59.171,-42.72
59.187,-42.41
59.203,-42.77
59.218,-43.63
59.234,-44.8
59.250,-46.1
59.265,-47.43
59.281,-48.71
59.296,-49.88
59.312,-50.94
59.328,-51.87
59.343,-52.68
59.359,-53.36
59.375,-54.03
59.390,-54.91
59.406,-56.44
59.421,-59.2
59.437,-63.68
59.453,-70.01
59.468,-77.64
59.484,-85.26
59.500,-90.97
59.515,-92.8
59.531,-89.28
59.546,-79.94
59.562,-65.47
59.578,-47.47
59.593,-27.99
59.609,-8.98
59.625,8.13
59.640,22.61
59.656,34.24
59.671,43.17
59.687,49.6
59.703,53.71
59.718,55.68
59.734,55.74
59.750,54.32
59.765,52.03
59.781,49.47
59.796,47.14
59.812,45.25
59.828,43.72
59.843,42.39
59.859,41.11
59.875,39.93
59.890,39.05
59.906,38.66
59.921,38.77
59.937,39.09
59.953,39.14
59.968,38.41
59.984,36.65
