timestamp,value
00.000,-79.5
00.015,-87.81
00.031,-101.72
00.046,-122.4
00.062,-148.13
00.078,-174.24
00.093,-194.74
00.109,-204.81
00.125,-202.89
00.140,-191.1
00.156,-174.0
00.171,-156.43
00.187,-141.75
00.203,-131.37
00.218,-125.52
00.234,-124.24
00.250,-127.74
00.265,-135.91
00.281,-147.37
00.296,-159.07
00.312,-167.03
00.328,-167.84
00.343,-160.03
00.359,-144.67
00.375,-124.82
00.390,-104.06
00.406,-85.16
00.421,-69.32
00.437,-56.3
00.453,-45.16
00.468,-35.07
00.484,-25.7
00.500,-17.34
00.515,-10.57
00.531,-5.71
00.546,-2.63
00.562,-0.61
00.578,1.54
00.593,5.14
00.609,11.34
00.625,20.62
00.640,32.72
00.656,46.53
00.671,60.48
00.687,72.89
00.703,82.32
00.718,87.88
00.734,89.32
00.750,87.11
00.765,82.27
00.781,76.19
00.796,70.19
00.812,65.26
00.828,61.7
00.843,59.26
00.859,57.5
00.875,56.17
00.890,55.56
00.906,56.26
00.921,58.79
00.937,63.18
00.953,68.8
00.968,74.51
00.984,79.13
01.000,81.89
01.015,82.57
01.031,81.42
01.046,78.94
01.062,75.68
01.078,72.21
01.093,69.15
01.109,67.25
01.125,67.08
01.140,68.9
01.156,72.26
01.171,76.15
01.187,79.44
01.203,81.7
01.218,83.53
01.234,86.38
01.250,91.48
01.265,98.69
01.281,106.14
01.296,110.75
01.312,109.8
01.328,102.11
01.343,88.4
01.359,70.53
01.375,50.42
01.390,29.53
01.406,8.95
01.421,-9.85
01.437,-24.68
01.453,-33.26
01.468,-34.54
01.484,-29.93
01.500,-23.34
01.515,-19.95
01.531,-23.92
01.546,-36.79
01.562,-56.95
01.578,-80.7
01.593,-103.87
01.609,-123.24
01.625,-137.16
01.640,-145.24
01.656,-147.88
01.671,-145.79
01.687,-139.88
01.703,-131.26
01.718,-121.4
01.734,-111.83
01.750,-103.95
01.765,-98.81
01.781,-97.1
01.796,-99.38
01.812,-105.87
01.828,-116.21
01.843,-128.91
01.859,-141.56
01.875,-151.57
01.890,-157.43
01.906,-159.7
01.921,-160.95
01.937,-164.53
01.953,-172.74
01.968,-185.61
01.984,-200.68
02.000,-214.01
02.015,-221.79
02.031,-221.5
02.046,-212.41
02.062,-195.2
02.078,-171.4
02.093,-142.85
02.109,-111.65
02.125,-80.06
02.140,-50.34
02.156,-24.53
02.171,-4.06
02.187,10.53
02.203,19.6
02.218,24.33
02.234,26.36
02.250,27.52
02.265,29.38
02.281,32.95
02.296,38.51
02.312,45.62
02.328,53.48
02.343,61.29
02.359,68.57
02.375,75.33
02.390,81.93
02.406,88.87
02.421,96.35
02.437,104.1
02.453,111.34
02.468,116.93
02.484,119.79
02.500,119.36
02.515,115.82
02.531,110.09
02.546,103.46
02.562,97.05
02.578,91.38
02.593,86.22
02.609,80.82
02.625,74.35
02.640,66.44
02.656,57.32
02.671,47.7
02.687,38.42
02.703,30.11
02.718,23.0
02.734,17.07
02.750,12.38
02.765,9.24
02.781,8.3
02.796,10.34
02.812,15.82
02.828,24.67
02.843,36.0
02.859,48.34
02.875,59.92
02.890,69.17
02.906,75.02
02.921,77.17
02.937,76.09
02.953,72.87
02.968,69.15
02.984,66.65
03.000,66.73
03.015,69.82
03.031,74.89
03.046,79.42
03.062,79.87
03.078,72.74
03.093,55.91
03.109,29.62
03.125,-3.39
03.140,-38.7
03.156,-71.75
03.171,-99.27
03.187,-120.06
03.203,-134.64
03.218,-144.15
03.234,-149.24
03.250,-149.56
03.265,-144.29
03.281,-133.22
03.296,-117.64
03.312,-100.39
03.328,-84.9
03.343,-73.71
03.359,-67.42
03.375,-64.77
03.390,-63.5
03.406,-61.77
03.421,-58.95
03.437,-55.46
03.453,-51.99
03.468,-48.41
03.484,-43.54
03.500,-35.62
03.515,-23.34
03.531,-6.78
03.546,12.52
03.562,32.08
03.578,49.56
03.593,63.62
03.609,74.28
03.625,82.61
03.640,90.08
03.656,97.8
03.671,106.15
03.687,114.79
03.703,122.94
03.718,129.91
03.734,135.28
03.750,139.1
03.765,141.68
03.781,143.25
03.796,143.82
03.812,142.97
03.828,140.14
03.843,134.89
03.859,127.18
03.875,117.51
03.890,106.81
03.906,96.18
03.921,86.54
03.937,78.47
03.953,72.06
03.968,67.05
03.984,62.92
04.000,59.16
04.015,55.39
04.031,51.42
04.046,47.33
04.062,43.44
04.078,40.44
04.093,39.17
04.109,40.57
04.125,45.2
04.140,52.66
04.156,61.33
04.171,68.42
04.187,70.77
04.203,65.94
04.218,53.36
04.234,34.62
04.250,13.08
04.265,-7.29
04.281,-23.17
04.296,-32.62
04.312,-35.32
04.328,-32.1
04.343,-24.52
04.359,-14.39
04.375,-3.72
04.390,5.41
04.406,11.03
04.421,11.85
04.437,7.68
04.453,-0.2
04.468,-9.36
04.484,-16.97
04.500,-20.9
04.515,-20.55
04.531,-17.1
04.546,-12.94
04.562,-10.48
04.578,-10.95
04.593,-13.7
04.609,-16.37
04.625,-16.0
04.640,-10.49
04.656,0.25
04.671,13.96
04.687,26.69
04.703,34.16
04.718,33.07
04.734,22.13
04.750,2.23
04.765,-24.16
04.781,-53.9
04.796,-84.26
04.812,-113.58
04.828,-141.39
04.843,-167.87
04.859,-193.05
04.875,-215.91
04.890,-234.0
04.906,-243.97
04.921,-242.78
04.937,-229.2
04.953,-204.56
04.968,-172.53
04.984,-137.57
05.000,-103.39
05.015,-71.9
05.031,-43.26
05.046,-17.07
05.062,6.73
05.078,27.32
05.093,43.55
05.109,54.91
05.125,62.11
05.140,66.76
05.156,70.35
05.171,73.21
05.187,74.19
05.203,71.18
05.218,62.08
05.234,45.81
05.250,22.85
05.265,-4.8
05.281,-33.97
05.296,-61.04
05.312,-82.81
05.328,-97.35
05.343,-104.38
05.359,-105.02
05.375,-100.91
05.390,-93.28
05.406,-82.47
05.421,-68.46
05.437,-51.75
05.453,-34.27
05.468,-19.29
05.484,-10.04
05.500,-7.95
05.515,-11.5
05.531,-16.56
05.546,-18.29
05.562,-13.35
05.578,-1.41
05.593,15.08
05.609,32.49
05.625,47.86
05.640,60.04
05.656,69.33
05.671,76.36
05.687,81.0
05.703,82.3
05.718,79.27
05.734,71.94
05.750,61.94
05.765,51.98
05.781,44.56
05.796,40.9
05.812,40.83
05.828,43.39
05.843,47.77
05.859,53.83
05.875,61.7
05.890,70.96
05.906,79.96
05.921,86.11
05.937,86.85
05.953,80.99
05.968,69.2
05.984,53.72
06.000,37.42
06.015,22.69
06.031,10.88
06.046,2.31
06.062,-3.39
06.078,-6.89
06.093,-9.0
06.109,-10.56
06.125,-12.43
06.140,-15.23
06.156,-18.92
06.171,-22.72
06.187,-25.41
06.203,-26.01
06.218,-24.47
06.234,-21.84
06.250,-19.79
06.265,-19.81
06.281,-22.49
06.296,-27.2
06.312,-32.3
06.328,-35.75
06.343,-36.06
06.359,-33.01
06.375,-28.04
06.390,-23.9
06.406,-23.71
06.421,-29.72
06.437,-42.56
06.453,-60.89
06.468,-81.71
06.484,-101.06
06.500,-114.75
06.515,-118.86
06.531,-110.48
06.546,-88.42
06.562,-54.01
06.578,-11.6
06.593,31.86
06.609,68.46
06.625,91.56
06.640,97.69
06.656,87.37
06.671,64.43
06.687,34.66
06.703,4.43
06.718,-20.46
06.734,-35.66
06.750,-39.07
06.765,-31.76
06.781,-18.09
06.796,-4.68
06.812,1.93
06.828,-2.18
06.843,-16.69
06.859,-37.11
06.875,-56.56
06.890,-68.34
06.906,-68.13
06.921,-55.19
06.937,-32.19
06.953,-4.18
06.968,23.02
06.984,44.55
07.000,57.82
07.015,63.15
07.031,63.49
07.046,62.99
07.062,65.28
07.078,71.96
07.093,82.17
07.109,93.28
07.125,102.38
07.140,107.53
07.156,108.22
07.171,105.1
07.187,99.31
07.203,91.94
07.218,83.91
07.234,75.81
07.250,67.84
07.265,59.74
07.281,50.71
07.296,39.61
07.312,25.52
07.328,8.34
07.343,-10.89
07.359,-30.12
07.375,-46.96
07.390,-59.49
07.406,-66.89
07.421,-69.69
07.437,-69.7
07.453,-69.59
07.468,-72.03
07.484,-78.83
07.500,-89.89
07.515,-102.86
07.531,-113.52
07.546,-117.33
07.562,-111.3
07.578,-95.38
07.593,-72.7
07.609,-48.38
07.625,-27.47
07.640,-13.09
07.656,-5.57
07.671,-2.85
07.687,-1.7
07.703,0.73
07.718,5.97
07.734,13.91
07.750,23.19
07.765,31.9
07.781,38.37
07.796,41.74
07.812,42.32
07.828,41.67
07.843,42.02
07.859,45.45
07.875,52.75
07.890,62.76
07.906,72.56
07.921,78.57
07.937,77.94
07.953,69.72
07.968,55.1
07.984,36.74
08.000,17.83
08.015,1.03
08.031,-11.96
08.046,-20.36
08.062,-24.18
08.078,-24.17
08.093,-21.9
08.109,-19.87
08.125,-21.18
08.140,-28.82
08.156,-44.73
08.171,-69.31
08.187,-101.1
08.203,-137.25
08.218,-174.12
08.234,-207.88
08.250,-235.09
08.265,-252.87
08.281,-259.18
08.296,-252.93
08.312,-234.47
08.328,-205.62
08.343,-169.65
08.359,-130.65
08.375,-92.65
08.390,-58.69
08.406,-30.34
08.421,-7.73
08.437,9.9
08.453,23.54
08.468,34.08
08.484,42.21
08.500,48.7
08.515,54.31
08.531,59.67
08.546,64.99
08.562,70.03
08.578,74.31
08.593,77.58
08.609,80.07
08.625,82.47
08.640,85.63
08.656,90.02
08.671,95.42
08.687,100.87
08.703,104.92
08.718,105.99
08.734,102.9
08.750,95.13
08.765,83.11
08.781,68.18
08.796,52.39
08.812,38.07
08.828,27.19
08.843,20.84
08.859,18.97
08.875,20.64
08.890,24.44
08.906,29.09
08.921,33.69
08.937,37.84
08.953,41.45
08.968,44.51
08.984,47.21
09.000,50.03
09.015,53.95
09.031,60.24
09.046,70.11
09.062,84.1
09.078,101.88
09.093,122.21
09.109,143.33
09.125,163.42
09.140,180.77
09.156,193.79
09.171,201.23
09.187,202.46
09.203,198.03
09.218,189.75
09.234,180.0
09.250,170.32
09.265,160.26
09.281,147.25
09.296,127.85
09.312,99.9
09.328,64.33
09.343,25.46
09.359,-10.37
09.375,-37.32
09.390,-52.18
09.406,-55.37
09.421,-50.33
09.437,-42.0
09.453,-35.1
09.468,-33.02
09.484,-37.37
09.500,-48.18
09.515,-64.25
09.531,-83.45
09.546,-103.12
09.562,-120.5
09.578,-133.25
09.593,-139.99
09.609,-140.81
09.625,-137.38
09.640,-132.59
09.656,-129.89
09.671,-131.94
09.687,-139.59
09.703,-151.07
09.718,-162.38
09.734,-168.34
09.750,-164.55
09.765,-149.04
09.781,-123.08
09.796,-90.77
09.812,-57.59
09.828,-28.51
09.843,-6.66
09.859,7.14
09.875,13.88
09.890,15.26
09.906,12.91
09.921,8.04
09.937,1.45
09.953,-6.17
09.968,-14.29
09.984,-22.47
10.000,-30.35
10.015,-37.45
10.031,-42.94
10.046,-45.6
10.062,-44.32
10.078,-38.7
10.093,-29.67
10.109,-19.4
10.125,-10.76
10.140,-6.19
10.156,-6.78
10.171,-11.86
10.187,-19.32
10.203,-26.62
10.218,-32.01
10.234,-35.14
10.250,-37.12
10.265,-39.71
10.281,-44.28
10.296,-51.06
10.312,-59.11
10.328,-66.77
10.343,-72.57
10.359,-75.87
10.375,-77.01
10.390,-77.09
10.406,-77.41
10.421,-78.94
10.437,-81.99
10.453,-86.1
10.468,-90.1
10.484,-92.42
10.500,-91.53
10.515,-86.35
10.531,-76.56
10.546,-62.7
10.562,-45.83
10.578,-27.2
10.593,-7.92
10.609,11.16
10.625,29.37
10.640,46.18
10.656,61.05
10.671,73.61
10.687,83.76
10.703,91.7
10.718,98.03
10.734,103.45
10.750,108.59
10.765,113.84
10.781,119.17
10.796,124.18
10.812,128.2
10.828,130.6
10.843,131.0
10.859,129.55
10.875,126.8
10.890,123.51
10.906,120.3
10.921,117.32
10.937,114.26
10.953,110.49
10.968,105.46
10.984,99.02
11.000,91.64
11.015,84.32
11.031,78.36
11.046,74.92
11.062,74.59
11.078,77.21
11.093,81.75
11.109,86.52
11.125,89.49
11.140,88.84
11.156,83.47
11.171,73.42
11.187,59.84
11.203,44.63
11.218,29.76
11.234,16.65
11.250,5.88
11.265,-2.66
11.281,-9.24
11.296,-13.75
11.312,-15.48
11.328,-13.41
11.343,-6.94
11.359,3.51
11.375,16.21
11.390,28.58
11.406,38.24
11.421,44.11
11.437,47.01
11.453,49.44
11.468,54.51
11.484,64.45
11.500,79.53
11.515,97.65
11.531,115.06
11.546,127.75
11.562,132.74
11.578,128.94
11.593,117.3
11.609,100.48
11.625,82.24
11.640,66.62
11.656,56.81
11.671,54.02
11.687,56.63
11.703,60.41
11.718,59.84
11.734,50.32
11.750,30.23
11.765,1.88
11.781,-29.26
11.796,-56.78
11.812,-75.82
11.828,-84.76
11.843,-85.41
11.859,-81.97
11.875,-79.19
11.890,-80.62
11.906,-87.65
11.921,-99.28
11.937,-112.77
11.953,-124.68
11.968,-131.93
11.984,-132.48
12.000,-125.67
12.015,-111.87
12.031,-92.3
12.046,-68.84
12.062,-43.93
12.078,-20.56
12.093,-1.79
12.109,10.14
12.125,14.78
12.140,13.98
12.156,11.5
12.171,11.58
12.187,16.96
12.203,27.59
12.218,40.42
12.234,50.61
12.250,53.67
12.265,47.55
12.281,33.39
12.296,14.95
12.312,-3.11
12.328,-17.19
12.343,-25.91
12.359,-30.05
12.375,-31.83
12.390,-33.65
12.406,-37.47
12.421,-44.42
12.437,-54.96
12.453,-69.09
12.468,-86.47
12.484,-106.62
12.500,-128.92
12.515,-152.68
12.531,-177.05
12.546,-200.98
12.562,-223.0
12.578,-241.11
12.593,-253.0
12.609,-256.37
12.625,-249.55
12.640,-231.97
12.656,-204.49
12.671,-169.32
12.687,-129.65
12.703,-88.96
12.718,-50.31
12.734,-15.85
12.750,13.35
12.765,37.21
12.781,56.25
12.796,71.11
12.812,82.33
12.828,90.43
12.843,95.87
12.859,99.27
12.875,101.34
12.890,102.77
12.906,104.06
12.921,105.52
12.937,107.2
12.953,108.96
12.968,110.68
12.984,112.17
13.000,113.25
13.015,113.56
13.031,112.51
13.046,109.28
13.062,102.91
13.078,92.68
13.093,78.46
13.109,60.94
13.125,41.6
13.140,22.36
13.156,5.04
13.171,-9.18
13.187,-20.01
13.203,-28.06
13.218,-34.48
13.234,-40.45
13.250,-46.78
13.265,-53.88
13.281,-61.76
13.296,-70.17
13.312,-78.7
13.328,-86.62
13.343,-92.78
13.359,-95.78
13.375,-94.12
13.390,-86.87
13.406,-74.13
13.421,-57.11
13.437,-37.84
13.453,-18.54
13.468,-0.86
13.484,14.45
13.500,27.56
13.515,39.08
13.531,49.66
13.546,59.61
13.562,68.84
13.578,76.94
13.593,83.43
13.609,87.99
13.625,90.62
13.640,91.68
13.656,91.75
13.671,91.57
13.687,91.55
13.703,91.62
13.718,90.94
13.734,88.07
13.750,81.46
13.765,69.86
13.781,52.97
13.796,31.57
13.812,7.4
13.828,-17.25
13.843,-40.11
13.859,-59.4
13.875,-74.06
13.890,-83.84
13.906,-89.19
13.921,-90.99
13.937,-90.45
13.953,-88.82
13.968,-87.36
13.984,-87.12
14.000,-88.74
14.015,-92.26
14.031,-97.01
14.046,-101.61
14.062,-104.39
14.078,-103.84
14.093,-99.06
14.109,-90.07
14.125,-77.68
14.140,-63.08
14.156,-47.5
14.171,-31.76
14.187,-16.35
14.203,-1.48
14.218,12.6
14.234,25.55
14.250,36.88
14.265,46.21
14.281,53.44
14.296,58.83
14.312,62.92
14.328,66.41
14.343,69.87
14.359,73.58
14.375,77.5
14.390,81.34
14.406,84.65
14.421,87.23
14.437,89.1
14.453,90.66
14.468,92.49
14.484,95.03
14.500,98.41
14.515,102.36
14.531,106.3
14.546,109.41
14.562,111.03
14.578,110.61
14.593,108.13
14.609,104.06
14.625,99.22
14.640,94.53
14.656,90.49
14.671,87.04
14.687,83.52
14.703,79.2
14.718,73.75
14.734,67.64
14.750,61.99
14.765,57.91
14.781,56.07
14.796,56.28
14.812,57.8
14.828,59.84
14.843,62.25
14.859,65.48
14.875,70.33
14.890,77.33
14.906,86.29
14.921,96.1
14.937,105.04
14.953,111.09
14.968,112.22
14.984,106.62
15.000,92.92
15.015,70.76
15.031,41.3
15.046,7.4
15.062,-26.65
15.078,-56.27
15.093,-78.09
15.109,-91.31
15.125,-98.03
15.140,-102.37
15.156,-108.71
15.171,-119.78
15.187,-135.68
15.203,-154.34
15.218,-172.87
15.234,-189.23
15.250,-203.0
15.265,-215.11
15.281,-226.69
15.296,-238.02
15.312,-248.12
15.328,-255.34
15.343,-258.38
15.359,-257.07
15.375,-252.33
15.390,-245.5
15.406,-237.23
15.421,-226.83
15.437,-212.6
15.453,-192.69
15.468,-166.24
15.484,-134.17
15.500,-99.15
15.515,-64.7
15.531,-34.05
15.546,-8.97
15.562,10.62
15.578,26.22
15.593,39.79
15.609,52.59
15.625,64.62
15.640,74.81
15.656,81.9
15.671,85.33
15.687,85.78
15.703,84.91
15.718,84.57
15.734,85.98
15.750,89.16
15.765,93.09
15.781,96.3
15.796,97.62
15.812,96.66
15.828,93.82
15.843,89.94
15.859,85.9
15.875,82.24
15.890,79.07
15.906,76.15
15.921,73.07
15.937,69.44
15.953,64.85
15.968,59.13
15.984,52.4
16.000,45.27
16.015,38.99
16.031,35.21
16.046,35.5
16.062,40.45
16.078,48.96
16.093,58.13
16.109,64.0
16.125,63.0
16.140,53.54
16.156,36.87
16.171,16.76
16.187,-1.95
16.203,-15.25
16.218,-21.34
16.234,-20.96
16.250,-16.7
16.265,-11.75
16.281,-8.9
16.296,-9.91
16.312,-15.27
16.328,-24.08
16.343,-34.16
16.359,-42.21
16.375,-44.69
16.390,-38.95
16.406,-24.39
16.421,-2.94
16.437,21.66
16.453,45.09
16.468,64.0
16.484,76.74
16.500,83.35
16.515,84.85
16.531,82.64
16.546,78.14
16.562,72.9
16.578,68.48
16.593,66.38
16.609,67.45
16.625,71.5
16.640,77.25
16.656,82.76
16.671,86.02
16.687,85.8
16.703,82.06
16.718,75.96
16.734,69.6
16.750,65.34
16.765,65.11
16.781,69.62
16.796,77.97
16.812,87.58
16.828,94.97
16.843,96.69
16.859,90.56
16.875,76.46
16.890,56.33
16.906,33.5
16.921,11.35
16.937,-7.79
16.953,-23.41
16.968,-36.43
16.984,-48.29
17.000,-59.69
17.015,-69.93
17.031,-77.09
17.046,-78.96
17.062,-74.22
17.078,-63.23
17.093,-48.01
17.109,-31.5
17.125,-16.71
17.140,-5.84
17.156,-0.04
17.171,0.5
17.187,-3.73
17.203,-11.88
17.218,-23.06
17.234,-36.58
17.250,-51.97
17.265,-68.6
17.281,-85.29
17.296,-100.03
17.312,-110.32
17.328,-114.31
17.343,-112.09
17.359,-106.52
17.375,-102.54
17.390,-105.42
17.406,-118.49
17.421,-141.75
17.437,-171.79
17.453,-202.93
17.468,-228.83
17.484,-243.88
17.500,-244.11
17.515,-227.78
17.531,-196.04
17.546,-153.11
17.562,-105.77
17.578,-61.76
17.593,-27.34
17.609,-5.26
17.625,5.87
17.640,10.39
17.656,13.3
17.671,18.06
17.687,25.7
17.703,35.49
17.718,46.2
17.734,57.18
17.750,68.28
17.765,79.13
17.781,88.21
17.796,92.72
17.812,89.54
17.828,76.77
17.843,55.23
17.859,28.82
17.875,3.62
17.890,-13.99
17.906,-19.64
17.921,-12.34
17.937,5.19
17.953,27.73
17.968,49.4
17.984,65.34
18.000,72.83
18.015,71.29
18.031,61.7
18.046,45.79
18.062,25.61
18.078,3.23
18.093,-19.09
18.109,-39.07
18.125,-54.65
18.140,-64.55
18.156,-68.64
18.171,-67.96
18.187,-64.3
18.203,-59.47
18.218,-54.7
18.234,-50.42
18.250,-46.53
18.265,-42.82
18.281,-39.35
18.296,-36.53
18.312,-34.76
18.328,-34.28
18.343,-34.86
18.359,-35.86
18.375,-36.55
18.390,-36.28
18.406,-34.66
18.421,-31.49
18.437,-26.72
18.453,-20.52
18.468,-13.33
18.484,-5.87
18.500,1.02
18.515,6.64
18.531,10.54
18.546,12.53
18.562,12.61
18.578,10.69
18.593,6.74
18.609,0.88
18.625,-6.32
18.640,-13.86
18.656,-20.65
18.671,-26.06
18.687,-30.25
18.703,-34.02
18.718,-38.34
18.734,-43.44
18.750,-48.44
18.765,-51.61
18.781,-51.18
18.796,-46.37
18.812,-37.74
18.828,-26.95
18.843,-15.91
18.859,-5.87
18.875,2.99
18.890,11.21
18.906,19.31
18.921,27.29
18.937,34.44
18.953,39.77
18.968,42.59
18.984,42.83
19.000,40.95
19.015,37.67
19.031,33.42
19.046,28.1
19.062,21.24
19.078,12.23
19.093,0.76
19.109,-12.99
19.125,-28.13
19.140,-43.36
19.156,-57.04
19.171,-67.63
19.187,-74.0
19.203,-75.65
19.218,-72.86
19.234,-66.57
19.250,-58.25
19.265,-49.6
19.281,-42.26
19.296,-37.59
19.312,-36.48
19.328,-39.23
19.343,-45.5
19.359,-54.29
19.375,-64.02
19.390,-72.75
19.406,-78.6
19.421,-80.05
19.437,-76.31
19.453,-67.53
19.468,-54.61
19.484,-38.91
19.500,-21.85
19.515,-4.54
19.531,12.32
19.546,28.49
19.562,43.97
19.578,58.75
19.593,72.69
19.609,85.53
19.625,96.96
19.640,106.75
19.656,114.95
19.671,121.84
19.687,127.85
19.703,133.43
19.718,138.82
19.734,144.08
19.750,149.12
19.765,153.82
19.781,158.2
19.796,162.36
19.812,166.42
19.828,170.43
19.843,174.3
19.859,177.85
19.875,180.86
19.890,183.15
19.906,184.65
19.921,185.43
19.937,185.57
19.953,185.15
19.968,184.09
19.984,182.28
20.000,179.67
20.015,176.71
20.031,174.5
20.046,174.64
20.062,178.43
20.078,185.87
20.093,194.81
20.109,200.99
20.125,199.24
20.140,185.14
20.156,156.57
20.171,114.34
20.187,61.87
20.203,4.26
20.218,-52.69
20.234,-103.28
20.250,-142.61
20.265,-167.46
20.281,-176.97
20.296,-173.16
20.312,-160.43
20.328,-144.33
20.343,-129.7
20.359,-119.23
20.375,-113.01
20.390,-109.18
20.406,-105.27
20.421,-99.3
20.437,-90.72
20.453,-80.41
20.468,-70.43
20.484,-63.43
20.500,-61.86
20.515,-67.31
20.531,-79.84
20.546,-97.96
20.562,-119.07
20.578,-140.28
20.593,-159.24
20.609,-174.58
20.625,-185.65
20.640,-191.82
20.656,-192.07
20.671,-185.01
20.687,-169.58
20.703,-146.03
20.718,-116.59
20.734,-85.06
20.750,-55.76
20.765,-32.02
20.781,-15.06
20.796,-3.95
20.812,3.55
20.828,9.77
20.843,16.17
20.859,23.06
20.875,30.03
20.890,36.67
20.906,42.93
20.921,49.1
20.937,55.36
20.953,61.4
20.968,66.44
20.984,69.56
21.000,70.2
21.015,68.44
21.031,65.02
21.046,60.94
21.062,57.02
21.078,53.65
21.093,50.67
21.109,47.63
21.125,44.06
21.140,39.61
21.156,34.2
21.171,27.94
21.187,21.01
21.203,13.61
21.218,5.82
21.234,-2.48
21.250,-11.5
21.265,-21.43
21.281,-32.02
21.296,-42.35
21.312,-50.72
21.328,-54.99
21.343,-53.18
21.359,-44.09
21.375,-27.79
21.390,-5.66
21.406,19.79
21.421,45.21
21.437,66.84
21.453,80.91
21.468,84.29
21.484,75.41
21.500,55.03
21.515,26.35
21.531,-5.69
21.546,-35.93
21.562,-60.55
21.578,-78.07
21.593,-89.34
21.609,-96.61
21.625,-102.2
21.640,-107.54
21.656,-112.72
21.671,-116.82
21.687,-118.41
21.703,-116.25
21.718,-109.7
21.734,-99.05
21.750,-85.34
21.765,-70.13
21.781,-54.99
21.796,-41.05
21.812,-28.86
21.828,-18.52
21.843,-10.21
21.859,-4.37
21.875,-1.89
21.890,-3.5
21.906,-9.33
21.921,-18.49
21.937,-29.01
21.953,-38.38
21.968,-44.34
21.984,-45.52
22.000,-41.84
22.015,-34.28
22.031,-24.31
22.046,-13.21
22.062,-1.72
22.078,10.07
22.093,22.28
22.109,34.81
22.125,47.04
22.140,57.96
22.156,66.61
22.171,72.62
22.187,76.46
22.203,79.25
22.218,82.22
22.234,86.07
22.250,90.7
22.265,95.27
22.281,98.8
22.296,100.67
22.312,101.0
22.328,100.46
22.343,99.71
22.359,98.97
22.375,97.64
22.390,94.61
22.406,88.78
22.421,79.72
22.437,67.86
22.453,54.42
22.468,40.78
22.484,27.96
22.500,16.34
22.515,5.62
22.531,-4.81
22.546,-15.33
22.562,-25.87
22.578,-35.72
22.593,-43.71
22.609,-48.54
22.625,-49.09
22.640,-44.72
22.656,-35.44
22.671,-21.93
22.687,-5.46
22.703,12.29
22.718,29.58
22.734,45.03
22.750,58.01
22.765,68.77
22.781,78.1
22.796,86.5
22.812,93.42
22.828,96.85
22.843,93.96
22.859,82.31
22.875,61.13
22.890,31.9
22.906,-2.02
22.921,-36.37
22.937,-67.12
22.953,-90.99
22.968,-105.62
22.984,-109.45
23.000,-101.88
23.015,-83.75
23.031,-57.75
23.046,-28.21
23.062,-0.12
23.078,22.32
23.093,36.97
23.109,43.96
23.125,45.13
23.140,42.73
23.156,38.27
23.171,32.12
23.187,23.82
23.203,12.93
23.218,-0.15
23.234,-13.87
23.250,-25.95
23.265,-34.25
23.281,-37.74
23.296,-36.88
23.312,-33.19
23.328,-28.31
23.343,-23.03
23.359,-16.9
23.375,-8.76
23.390,2.24
23.406,15.83
23.421,30.54
23.437,44.39
23.453,55.88
23.468,64.64
23.484,71.26
23.500,76.47
23.515,80.59
23.531,83.45
23.546,85.02
23.562,86.16
23.578,88.4
23.593,92.94
23.609,99.19
23.625,104.01
23.640,102.56
23.656,90.51
23.671,66.52
23.687,33.67
23.703,-1.32
23.718,-30.56
23.734,-48.15
23.750,-52.32
23.765,-45.76
23.781,-33.86
23.796,-22.06
23.812,-13.77
23.828,-9.75
23.843,-9.0
23.859,-10.19
23.875,-12.86
23.890,-17.59
23.906,-25.23
23.921,-35.92
23.937,-48.41
23.953,-60.43
23.968,-69.22
23.984,-72.56
24.000,-69.31
24.015,-59.86
24.031,-46.32
24.046,-32.33
24.062,-22.41
24.078,-20.59
24.093,-28.97
24.109,-46.27
24.125,-67.81
24.140,-86.63
24.156,-95.86
24.171,-90.98
24.187,-71.2
24.203,-39.47
24.218,-1.2
24.234,37.36
24.250,70.84
24.265,95.63
24.281,110.32
24.296,115.53
24.312,113.43
24.328,107.17
24.343,100.1
24.359,95.16
24.375,94.25
24.390,97.94
24.406,105.36
24.421,114.4
24.437,122.33
24.453,126.57
24.468,125.53
24.484,119.08
24.500,108.43
24.515,95.4
24.531,81.51
24.546,67.21
24.562,51.81
24.578,34.09
24.593,13.08
24.609,-11.19
24.625,-37.48
24.640,-63.82
24.656,-88.15
24.671,-108.85
24.687,-124.77
24.703,-135.01
24.718,-138.74
24.734,-135.69
24.750,-126.82
24.765,-114.98
24.781,-104.4
24.796,-99.44
24.812,-102.92
24.828,-114.95
24.843,-133.06
24.859,-153.12
24.875,-170.79
24.890,-182.49
24.906,-185.9
24.921,-180.04
24.937,-165.45
24.953,-144.37
24.968,-120.62
24.984,-98.86
25.000,-83.08
25.015,-75.14
25.031,-74.13
25.046,-76.93
25.062,-79.84
25.078,-80.03
25.093,-76.45
25.109,-69.45
25.125,-60.05
25.140,-49.12
25.156,-37.11
25.171,-24.35
25.187,-11.31
25.203,1.25
25.218,12.33
25.234,21.07
25.250,27.14
25.265,30.75
25.281,32.61
25.296,33.49
25.312,33.89
25.328,33.87
25.343,33.16
25.359,31.46
25.375,28.72
25.390,25.3
25.406,21.75
25.421,18.65
25.437,16.24
25.453,14.41
25.468,12.75
25.484,10.8
25.500,8.24
25.515,5.07
25.531,1.52
25.546,-2.15
25.562,-5.73
25.578,-9.33
25.593,-13.3
25.609,-18.15
25.625,-24.38
25.640,-32.14
25.656,-41.03
25.671,-50.12
25.687,-58.1
25.703,-63.56
25.718,-65.42
25.734,-63.24
25.750,-57.24
25.765,-48.27
25.781,-37.47
25.796,-25.93
25.812,-14.46
25.828,-3.57
25.843,6.56
25.859,15.82
25.875,24.07
25.890,31.12
25.906,36.78
25.921,41.02
25.937,43.99
25.953,46.03
25.968,47.55
25.984,48.89
26.000,50.2
26.015,51.5
26.031,52.58
26.046,53.25
26.062,53.3
26.078,52.54
26.093,50.88
26.109,48.24
26.125,44.62
26.140,40.06
26.156,34.71
26.171,28.83
26.187,22.75
26.203,16.91
26.218,11.63
26.234,7.1
26.250,3.28
26.265,0.01
26.281,-3.1
26.296,-6.37
26.312,-10.13
26.328,-14.69
26.343,-20.26
26.359,-26.98
26.375,-34.89
26.390,-43.85
26.406,-53.42
26.421,-62.83
26.437,-70.95
26.453,-76.48
26.468,-78.28
26.484,-75.71
26.500,-68.88
26.515,-58.62
26.531,-46.26
26.546,-33.12
26.562,-20.25
26.578,-8.21
26.593,2.81
26.609,12.7
26.625,21.23
26.640,28.04
26.656,32.75
26.671,35.19
26.687,35.57
26.703,34.4
26.718,32.33
26.734,29.96
26.750,27.66
26.765,25.67
26.781,24.12
26.796,23.17
26.812,23.08
26.828,24.05
26.843,26.22
26.859,29.45
26.875,33.43
26.890,37.69
26.906,41.84
26.921,45.56
26.937,48.77
26.953,51.38
26.968,53.36
26.984,54.52
27.000,54.6
27.015,53.35
27.031,50.64
27.046,46.67
27.062,42.0
27.078,37.52
27.093,34.37
27.109,33.61
27.125,36.06
27.140,42.03
27.156,51.18
27.171,62.54
27.187,74.83
27.203,86.96
27.218,98.47
27.234,109.66
27.250,121.27
27.265,133.84
27.281,147.08
27.296,159.72
27.312,169.97
27.328,176.24
27.343,177.89
27.359,175.66
27.375,171.52
27.390,168.27
27.406,168.68
27.421,174.62
27.437,186.06
27.453,200.62
27.468,213.73
27.484,219.85
27.500,214.13
27.515,194.21
27.531,161.22
27.546,119.75
27.562,76.42
27.578,37.96
27.593,9.2
27.609,-8.15
27.625,-15.79
27.640,-17.9
27.656,-19.29
27.671,-23.48
27.687,-31.19
27.703,-40.19
27.718,-46.64
27.734,-47.37
27.750,-41.78
27.765,-32.66
27.781,-25.24
27.796,-25.17
27.812,-36.36
27.828,-59.79
27.843,-93.5
27.859,-133.43
27.875,-174.39
27.890,-210.74
27.906,-237.0
27.921,-248.51
27.937,-242.46
27.953,-219.02
27.968,-181.82
27.984,-137.45
28.000,-93.76
28.015,-57.58
28.031,-32.79
28.046,-19.48
28.062,-14.53
28.078,-13.3
28.093,-11.68
28.109,-7.65
28.125,-1.82
28.140,3.22
28.156,4.52
28.171,0.23
28.187,-9.51
28.203,-22.73
28.218,-36.57
28.234,-48.68
28.250,-57.89
28.265,-64.26
28.281,-68.51
28.296,-71.36
28.312,-73.35
28.328,-75.13
28.343,-77.42
28.359,-80.78
28.375,-85.14
28.390,-89.34
28.406,-91.57
28.421,-90.53
28.437,-86.61
28.453,-82.37
28.468,-81.63
28.484,-87.53
28.500,-100.86
28.515,-119.54
28.531,-139.39
28.546,-156.25
28.562,-167.74
28.578,-173.87
28.593,-176.27
28.609,-176.51
28.625,-174.72
28.640,-169.41
28.656,-158.49
28.671,-140.82
28.687,-117.18
28.703,-90.32
28.718,-63.74
28.734,-40.2
28.750,-20.72
28.765,-4.51
28.781,10.03
28.796,24.15
28.812,37.96
28.828,50.33
28.843,59.72
28.859,65.22
28.875,67.15
28.890,67.11
28.906,67.23
28.921,69.21
28.937,73.59
28.953,79.6
28.968,85.56
28.984,89.74
29.000,91.06
29.015,89.42
29.031,85.55
29.046,80.51
29.062,75.14
29.078,69.78
29.093,64.27
29.109,58.17
29.125,50.98
29.140,42.49
29.156,32.84
29.171,22.5
29.187,12.12
29.203,2.33
29.218,-6.43
29.234,-14.03
29.250,-20.51
29.265,-26.15
29.281,-31.31
29.296,-36.48
29.312,-42.2
29.328,-48.95
29.343,-56.88
29.359,-65.49
29.375,-73.66
29.390,-79.83
29.406,-82.44
29.421,-80.55
29.437,-74.11
29.453,-63.93
29.468,-51.37
29.484,-37.85
29.500,-24.55
29.515,-12.26
29.531,-1.46
29.546,7.52
29.562,14.4
29.578,18.95
29.593,21.11
29.609,21.18
29.625,19.8
29.640,17.83
29.656,16.18
29.671,15.48
29.687,15.88
29.703,17.08
29.718,18.5
29.734,19.6
29.750,20.11
29.765,20.17
29.781,20.13
29.796,20.29
29.812,20.65
29.828,20.88
29.843,20.46
29.859,18.95
29.875,16.25
29.890,12.59
29.906,8.45
29.921,4.28
29.937,0.38
29.953,-3.13
29.968,-6.28
29.984,-9.2
30.000,-12.05
30.015,-15.0
30.031,-18.33
30.046,-22.13
30.062,-26.28
30.078,-30.19
30.093,-32.81
30.109,-32.9
30.125,-29.42
30.140,-21.98
30.156,-10.92
30.171,2.71
30.187,17.57
30.203,32.42
30.218,46.38
30.234,59.0
30.250,70.08
30.265,79.57
30.281,87.4
30.296,93.55
30.312,98.17
30.328,101.63
30.343,104.49
30.359,107.33
30.375,110.69
30.390,114.76
30.406,119.57
30.421,124.91
30.437,130.57
30.453,136.39
30.468,142.38
30.484,148.62
30.500,155.12
30.515,161.76
30.531,168.1
30.546,173.67
30.562,177.97
30.578,180.81
30.593,182.34
30.609,182.96
30.625,183.16
30.640,183.14
30.656,182.72
30.671,181.33
30.687,177.99
30.703,171.35
30.718,159.82
30.734,141.99
30.750,117.29
30.765,86.87
30.781,53.9
30.796,23.2
30.812,-0.05
30.828,-12.08
30.843,-11.89
30.859,-1.71
30.875,13.96
30.890,29.9
30.906,41.98
30.921,48.1
30.937,48.31
30.953,44.16
30.968,37.81
30.984,31.24
31.000,25.54
31.015,20.7
31.031,15.56
31.046,8.16
31.062,-3.65
31.078,-21.47
31.093,-45.63
31.109,-74.86
31.125,-106.08
31.140,-135.11
31.156,-157.62
31.171,-170.38
31.187,-172.21
31.203,-164.41
31.218,-150.27
31.234,-134.15
31.250,-120.11
31.265,-110.91
31.281,-107.61
31.296,-109.95
31.312,-116.91
31.328,-127.16
31.343,-138.94
31.359,-149.87
31.375,-157.09
31.390,-158.06
31.406,-151.81
31.421,-139.81
31.437,-125.79
31.453,-114.36
31.468,-109.37
31.484,-112.13
31.500,-121.04
31.515,-132.09
31.531,-140.27
31.546,-141.13
31.562,-131.86
31.578,-111.78
31.593,-82.28
31.609,-46.64
31.625,-9.48
31.640,24.24
31.656,50.37
31.671,66.6
31.687,72.84
31.703,70.86
31.718,63.44
31.734,53.68
31.750,44.55
31.765,38.85
31.781,38.96
31.796,46.11
31.812,59.52
31.828,76.02
31.843,90.82
31.859,98.99
31.875,97.33
31.890,85.62
31.906,66.64
31.921,44.95
31.937,25.23
31.953,11.03
31.968,3.87
31.984,3.14
32.000,6.35
32.015,9.84
32.031,9.95
32.046,4.31
32.062,-6.96
32.078,-21.15
32.093,-33.82
32.109,-40.98
32.125,-41.09
32.140,-36.13
32.156,-31.01
32.171,-31.61
32.187,-42.39
32.203,-64.54
32.218,-95.54
32.234,-129.99
32.250,-161.57
32.265,-184.88
32.281,-196.79
32.296,-196.64
32.312,-185.7
32.328,-166.28
32.343,-140.9
32.359,-111.9
32.375,-81.53
32.390,-51.85
32.406,-24.52
32.421,-0.66
32.437,19.12
32.453,34.63
32.468,45.72
32.484,52.2
32.500,54.08
32.515,51.74
32.531,46.27
32.546,39.14
32.562,31.76
32.578,25.0
32.593,19.15
32.609,14.06
32.625,9.74
32.640,6.42
32.656,4.44
32.671,3.75
32.687,3.74
32.703,3.18
32.718,0.78
32.734,-4.15
32.750,-11.43
32.765,-20.06
32.781,-28.72
32.796,-36.33
32.812,-42.41
32.828,-47.17
32.843,-51.37
32.859,-55.75
32.875,-60.9
32.890,-66.98
32.906,-73.86
32.921,-81.21
32.937,-88.59
32.953,-95.49
32.968,-101.26
32.984,-105.17
33.000,-106.45
33.015,-104.59
33.031,-99.51
33.046,-91.65
33.062,-81.98
33.078,-71.63
33.093,-61.63
33.109,-52.59
33.125,-44.73
33.140,-37.97
33.156,-32.16
33.171,-27.24
33.187,-23.16
33.203,-19.89
33.218,-17.28
33.234,-15.15
33.250,-13.25
33.265,-11.48
33.281,-9.75
33.296,-8.06
33.312,-6.33
33.328,-4.4
33.343,-2.17
33.359,0.39
33.375,3.13
33.390,5.74
33.406,7.8
33.421,8.94
33.437,8.87
33.453,7.44
33.468,4.77
33.484,1.12
33.500,-2.98
33.515,-6.92
33.531,-10.23
33.546,-12.58
33.562,-14.0
33.578,-14.77
33.593,-15.3
33.609,-15.92
33.625,-16.88
33.640,-18.21
33.656,-19.62
33.671,-20.56
33.687,-20.16
33.703,-17.4
33.718,-11.36
33.734,-1.53
33.750,12.0
33.765,28.56
33.781,47.06
33.796,66.25
33.812,84.91
33.828,102.03
33.843,116.79
33.859,128.61
33.875,137.25
33.890,142.88
33.906,146.14
33.921,148.07
33.937,149.83
33.953,152.37
33.968,156.11
33.984,160.75
34.000,165.45
34.015,169.12
34.031,170.91
34.046,170.54
34.062,168.41
34.078,165.39
34.093,162.44
34.109,160.15
34.125,158.5
34.140,156.82
34.156,154.1
34.171,149.36
34.187,142.02
34.203,132.18
34.218,120.56
34.234,108.25
34.250,96.34
34.265,85.54
34.281,76.02
34.296,67.42
34.312,59.08
34.328,50.28
34.343,40.64
34.359,30.3
34.375,20.06
34.390,11.18
34.406,5.03
34.421,2.6
34.437,4.11
34.453,8.93
34.468,15.88
34.484,23.74
34.500,31.62
34.515,39.19
34.531,46.6
34.546,54.1
34.562,61.61
34.578,68.35
34.593,72.8
34.609,72.82
34.625,66.35
34.640,52.15
34.656,30.66
34.671,4.22
34.687,-23.35
34.703,-47.79
34.718,-65.54
34.734,-74.48
34.750,-74.16
34.765,-65.46
34.781,-50.26
34.796,-31.29
34.812,-11.98
34.828,3.49
34.843,11.05
34.859,7.88
34.875,-6.42
34.890,-29.44
34.906,-56.66
34.921,-82.94
34.937,-104.04
34.953,-117.56
34.968,-123.09
34.984,-121.61
35.000,-115.06
35.015,-105.95
35.031,-97.29
35.046,-92.12
35.062,-92.86
35.078,-100.11
35.093,-111.99
35.109,-124.26
35.125,-131.6
35.140,-129.53
35.156,-116.18
35.171,-92.8
35.187,-63.05
35.203,-31.5
35.218,-2.0
35.234,23.14
35.250,43.25
35.265,58.82
35.281,70.77
35.296,79.87
35.312,86.66
35.328,91.18
35.343,93.12
35.359,91.91
35.375,86.91
35.390,77.64
35.406,64.04
35.421,46.86
35.437,27.99
35.453,10.45
35.468,-2.1
35.484,-6.56
35.500,-1.81
35.515,10.18
35.531,24.25
35.546,33.65
35.562,32.38
35.578,17.78
35.593,-8.44
35.609,-40.97
35.625,-73.15
35.640,-99.35
35.656,-116.43
35.671,-123.81
35.687,-122.75
35.703,-115.54
35.718,-105.26
35.734,-95.82
35.750,-91.66
35.765,-96.8
35.781,-113.27
35.796,-139.85
35.812,-171.72
35.828,-201.73
35.843,-222.57
35.859,-229.1
35.875,-219.91
35.890,-197.27
35.906,-166.09
35.921,-131.93
35.937,-99.47
35.953,-71.48
35.968,-48.78
35.984,-30.84
36.000,-16.66
36.015,-5.31
36.031,3.82
36.046,11.2
36.062,17.43
36.078,23.21
36.093,29.29
36.109,35.99
36.125,43.13
36.140,49.99
36.156,55.66
36.171,59.45
36.187,61.26
36.203,61.55
36.218,61.15
36.234,60.86
36.250,61.06
36.265,61.61
36.281,61.95
36.296,61.42
36.312,59.54
36.328,56.17
36.343,51.43
36.359,45.59
36.375,38.93
36.390,31.73
36.406,24.17
36.421,16.47
36.437,8.83
36.453,1.43
36.468,-5.75
36.484,-12.89
36.500,-20.2
36.515,-27.74
36.531,-35.26
36.546,-42.15
36.562,-47.57
36.578,-50.66
36.593,-50.79
36.609,-47.74
36.625,-41.7
36.640,-33.28
36.656,-23.4
36.671,-13.15
36.687,-3.54
36.703,4.72
36.718,11.38
36.734,16.56
36.750,20.49
36.765,23.37
36.781,25.17
36.796,25.76
36.812,25.1
36.828,23.45
36.843,21.33
36.859,19.28
36.875,17.64
36.890,16.46
36.906,15.6
36.921,14.94
36.937,14.61
36.953,14.96
36.968,16.37
36.984,18.88
37.000,22.11
37.015,25.36
37.031,27.89
37.046,29.24
37.062,29.45
37.078,29.01
37.093,28.64
37.109,28.99
37.125,30.34
37.140,32.59
37.156,35.27
37.171,37.7
37.187,39.12
37.203,38.83
37.218,36.34
37.234,31.6
37.250,25.16
37.265,18.27
37.281,12.81
37.296,10.74
37.312,13.68
37.328,22.37
37.343,36.55
37.359,55.07
37.375,76.28
37.390,98.47
37.406,120.09
37.421,139.9
37.437,156.71
37.453,169.31
37.468,176.49
37.484,177.28
37.500,171.18
37.515,158.51
37.531,140.54
37.546,119.28
37.562,97.1
37.578,76.28
37.593,58.74
37.609,45.81
37.625,38.13
37.640,35.49
37.656,36.6
37.671,39.08
37.687,39.79
37.703,35.57
37.718,24.13
37.734,4.83
37.750,-21.01
37.765,-50.46
37.781,-79.8
37.796,-105.43
37.812,-124.71
37.828,-136.32
37.843,-140.2
37.859,-137.37
37.875,-129.36
37.890,-117.9
37.906,-104.51
37.921,-90.43
37.937,-76.56
37.953,-63.59
37.968,-51.97
37.984,-41.92
38.000,-33.43
38.015,-26.27
38.031,-20.14
38.046,-14.83
38.062,-10.26
38.078,-6.44
38.093,-3.35
38.109,-0.86
38.125,1.25
38.140,3.25
38.156,5.41
38.171,7.89
38.187,10.73
38.203,13.92
38.218,17.37
38.234,21.0
38.250,24.66
38.265,28.23
38.281,31.61
38.296,34.74
38.312,37.55
38.328,39.97
38.343,41.96
38.359,43.45
38.375,44.38
38.390,44.65
38.406,44.16
38.421,42.75
38.437,40.28
38.453,36.62
38.468,31.79
38.484,25.95
38.500,19.31
38.515,12.13
38.531,4.59
38.546,-3.24
38.562,-11.41
38.578,-20.05
38.593,-29.38
38.609,-39.72
38.625,-51.3
38.640,-64.07
38.656,-77.28
38.671,-89.43
38.687,-98.46
38.703,-102.35
38.718,-99.85
38.734,-90.95
38.750,-76.82
38.765,-59.48
38.781,-41.07
38.796,-23.34
38.812,-7.39
38.828,6.17
38.843,17.08
38.859,25.13
38.875,30.23
38.890,32.57
38.906,32.61
38.921,31.07
38.937,28.69
38.953,26.03
38.968,23.37
38.984,20.75
39.000,18.13
39.015,15.57
39.031,13.26
39.046,11.48
39.062,10.37
39.078,9.84
39.093,9.44
39.109,8.57
39.125,6.68
39.140,3.46
39.156,-1.02
39.171,-6.4
39.187,-12.02
39.203,-17.12
39.218,-20.87
39.234,-22.72
39.250,-22.61
39.265,-21.3
39.281,-20.4
39.296,-22.04
39.312,-28.01
39.328,-38.85
39.343,-53.17
39.359,-67.89
39.375,-79.23
39.390,-84.1
39.406,-81.2
39.421,-71.3
39.437,-56.56
39.453,-39.27
39.468,-21.04
39.484,-2.67
39.500,15.38
39.515,32.09
39.531,45.73
39.546,54.27
39.562,56.49
39.578,52.94
39.593,45.97
39.609,38.92
39.625,34.58
39.640,33.88
39.656,35.49
39.671,36.6
39.687,34.2
39.703,26.29
39.718,12.75
39.734,-4.77
39.750,-23.56
39.765,-40.8
39.781,-54.59
39.796,-64.41
39.812,-71.14
39.828,-76.45
39.843,-81.93
39.859,-88.27
39.875,-95.14
39.890,-101.5
39.906,-106.31
39.921,-109.08
39.937,-109.93
39.953,-109.14
39.968,-106.6
39.984,-101.99
40.000,-95.45
40.015,-88.42
40.031,-83.59
40.046,-83.88
40.062,-90.62
40.078,-102.27
40.093,-114.65
40.109,-122.48
40.125,-121.71
40.140,-111.38
40.156,-93.81
40.171,-73.36
40.187,-54.43
40.203,-39.85
40.218,-30.21
40.234,-24.39
40.250,-20.42
40.265,-16.4
40.281,-11.01
40.296,-3.56
40.312,6.05
40.328,17.6
40.343,30.54
40.359,44.16
40.375,57.59
40.390,69.9
40.406,80.2
40.421,87.84
40.437,92.68
40.453,95.11
40.468,95.99
40.484,96.38
40.500,97.14
40.515,98.75
40.531,101.25
40.546,104.37
40.562,107.68
40.578,110.82
40.593,113.55
40.609,115.68
40.625,117.23
40.640,118.3
40.656,119.16
40.671,120.15
40.687,121.66
40.703,123.82
40.718,126.47
40.734,129.09
40.750,130.9
40.765,131.08
40.781,129.01
40.796,124.35
40.812,116.98
40.828,106.96
40.843,94.57
40.859,80.38
40.875,65.22
40.890,50.11
40.906,35.83
40.921,22.64
40.937,10.19
40.953,-2.2
40.968,-15.13
40.984,-28.67
41.000,-42.26
41.015,-54.89
41.031,-65.42
41.046,-72.85
41.062,-76.55
41.078,-76.17
41.093,-71.65
41.109,-63.25
41.125,-51.64
41.140,-37.79
41.156,-23.06
41.171,-8.84
41.187,3.58
41.203,13.29
41.218,19.96
41.234,23.94
41.250,26.2
41.265,27.85
41.281,29.79
41.296,32.32
41.312,35.0
41.328,36.94
41.343,37.39
41.359,36.25
41.375,34.39
41.390,33.53
41.406,35.57
41.421,41.77
41.437,51.86
41.453,63.89
41.468,74.57
41.484,80.46
41.500,79.4
41.515,71.61
41.531,59.82
41.546,48.18
41.562,40.49
41.578,38.36
41.593,40.46
41.609,42.88
41.625,40.6
41.640,29.49
41.656,8.1
41.671,-21.31
41.687,-52.93
41.703,-79.02
41.718,-92.79
41.734,-91.28
41.750,-77.11
41.765,-58.15
41.781,-44.97
41.796,-46.94
41.812,-68.69
41.828,-108.58
41.843,-159.68
41.859,-212.71
41.875,-259.25
41.890,-293.83
41.906,-314.33
41.921,-321.06
41.937,-315.75
41.953,-300.72
41.968,-278.83
41.984,-253.24
42.000,-226.84
42.015,-201.36
42.031,-176.67
42.046,-150.68
42.062,-120.16
42.078,-82.15
42.093,-35.31
42.109,19.19
42.125,77.82
42.140,135.63
42.156,187.6
42.171,229.72
42.187,259.85
42.203,277.89
42.218,285.48
42.234,285.46
42.250,281.06
42.265,275.14
42.281,269.67
42.296,265.6
42.312,263.17
42.328,262.34
42.343,262.96
42.359,264.52
42.375,265.74
42.390,264.2
42.406,256.56
42.421,239.54
42.437,211.08
42.453,171.51
42.468,123.86
42.484,73.22
42.500,25.5
42.515,-14.17
42.531,-42.72
42.546,-59.99
42.562,-68.58
42.578,-73.08
42.593,-78.76
42.609,-90.12
42.625,-109.67
42.640,-137.44
42.656,-171.22
42.671,-207.33
42.687,-241.72
42.703,-270.6
42.718,-291.06
42.734,-301.37
42.750,-301.11
42.765,-291.23
42.781,-273.55
42.796,-249.87
42.812,-221.2
42.828,-187.41
42.843,-147.88
42.859,-102.78
42.875,-54.42
42.890,-7.68
42.906,30.86
42.921,55.15
42.937,62.05
42.953,52.72
42.968,32.4
42.984,8.52
43.000,-11.7
43.015,-23.31
43.031,-24.41
43.046,-15.9
43.062,-0.6
43.078,17.81
43.093,35.55
43.109,49.21
43.125,56.35
43.140,56.06
43.156,49.27
43.171,38.7
43.187,28.0
43.203,20.39
43.218,17.56
43.234,19.01
43.250,22.23
43.265,23.39
43.281,18.44
43.296,4.41
43.312,-19.34
43.328,-50.37
43.343,-83.7
43.359,-113.24
43.375,-133.95
43.390,-143.5
43.406,-142.64
43.421,-133.96
43.437,-120.11
43.453,-102.51
43.468,-81.38
43.484,-57.1
43.500,-31.45
43.515,-7.8
43.531,10.23
43.546,20.75
43.562,24.64
43.578,24.89
43.593,24.47
43.609,24.29
43.625,22.65
43.640,16.68
43.656,4.62
43.671,-12.48
43.687,-30.72
43.703,-45.14
43.718,-51.92
43.734,-49.94
43.750,-40.91
43.765,-28.06
43.781,-14.57
43.796,-2.47
43.812,7.52
43.828,15.53
43.843,21.68
43.859,25.77
43.875,27.24
43.890,25.65
43.906,21.03
43.921,14.15
43.937,6.28
43.953,-1.2
43.968,-7.23
43.984,-11.4
44.000,-14.01
44.015,-15.83
44.031,-17.78
44.046,-20.57
44.062,-24.5
44.078,-29.58
44.093,-35.72
44.109,-42.9
44.125,-51.1
44.140,-60.02
44.156,-68.79
44.171,-75.82
44.187,-79.19
44.203,-77.22
44.218,-69.15
44.234,-55.49
44.250,-37.93
44.265,-18.78
44.281,-0.29
44.296,15.89
44.312,28.86
44.328,38.32
44.343,44.17
44.359,46.27
44.375,44.41
44.390,38.39
44.406,28.31
44.421,14.8
44.437,-1.06
44.453,-17.91
44.468,-34.41
44.484,-49.43
44.500,-62.09
44.515,-71.84
44.531,-78.38
44.546,-81.87
44.562,-83.01
44.578,-83.06
44.593,-83.64
44.609,-86.1
44.625,-90.9
44.640,-97.14
44.656,-102.9
44.671,-106.1
44.687,-105.43
44.703,-100.77
44.718,-92.86
44.734,-82.5
44.750,-69.87
44.765,-54.59
44.781,-36.25
44.796,-15.21
44.812,7.14
44.828,28.84
44.843,48.22
44.859,64.84
44.875,79.59
44.890,94.0
44.906,109.02
44.921,124.33
44.937,138.19
44.953,148.39
44.968,153.34
44.984,152.93
45.000,148.65
45.015,142.85
45.031,137.77
45.046,134.56
45.062,132.97
45.078,131.78
45.093,129.71
45.109,126.23
45.125,121.77
45.140,117.47
45.156,114.53
45.171,113.69
45.187,115.21
45.203,119.09
45.218,125.48
45.234,134.7
45.250,146.82
45.265,160.76
45.281,173.75
45.296,181.6
45.312,180.05
45.328,166.66
45.343,142.29
45.359,111.04
45.375,78.73
45.390,50.56
45.406,29.11
45.421,13.98
45.437,2.96
45.453,-6.2
45.468,-14.42
45.484,-21.4
45.500,-26.59
45.515,-30.33
45.531,-33.96
45.546,-38.99
45.562,-45.94
45.578,-53.65
45.593,-59.81
45.609,-62.04
45.625,-59.22
45.640,-51.91
45.656,-42.07
45.671,-32.14
45.687,-23.82
45.703,-17.45
45.718,-11.81
45.734,-4.72
45.750,6.12
45.765,22.08
45.781,42.89
45.796,66.62
45.812,90.27
45.828,110.78
45.843,125.91
45.859,134.45
45.875,136.14
45.890,131.43
45.906,121.26
45.921,107.01
45.937,90.59
45.953,74.13
45.968,59.55
45.984,48.07
46.000,39.92
46.015,34.43
46.031,30.5
46.046,27.07
46.062,23.4
46.078,19.19
46.093,14.41
46.109,9.25
46.125,3.87
46.140,-1.85
46.156,-8.38
46.171,-16.45
46.187,-26.43
46.203,-37.88
46.218,-49.32
46.234,-58.78
46.250,-64.58
46.265,-66.09
46.281,-64.06
46.296,-60.21
46.312,-56.54
46.328,-54.64
46.343,-55.34
46.359,-58.71
46.375,-64.27
46.390,-71.15
46.406,-78.22
46.421,-84.23
46.437,-88.0
46.453,-88.84
46.468,-86.7
46.484,-81.89
46.500,-74.75
46.515,-65.25
46.531,-53.11
46.546,-38.22
46.562,-21.08
46.578,-2.95
46.593,14.44
46.609,29.39
46.625,40.8
46.640,48.13
46.656,51.4
46.671,51.02
46.687,47.86
46.703,43.55
46.718,40.55
46.734,41.52
46.750,48.31
46.765,60.94
46.781,77.24
46.796,93.65
46.812,106.8
46.828,114.9
46.843,118.29
46.859,118.76
46.875,118.3
46.890,117.92
46.906,117.46
46.921,116.03
46.937,112.95
46.953,108.22
46.968,102.56
46.984,97.01
47.000,92.53
47.015,89.79
47.031,89.35
47.046,91.66
47.062,96.89
47.078,104.61
47.093,113.4
47.109,120.85
47.125,124.13
47.140,120.86
47.156,110.06
47.171,92.71
47.187,71.64
47.203,50.67
47.218,33.52
47.234,22.66
47.250,18.67
47.265,20.39
47.281,25.49
47.296,31.58
47.312,37.05
47.328,41.34
47.343,44.71
47.359,47.37
47.375,48.78
47.390,47.2
47.406,40.06
47.421,24.77
47.437,-0.2
47.453,-34.56
47.468,-76.08
47.484,-121.06
47.500,-165.04
47.515,-203.62
47.531,-233.19
47.546,-251.55
47.562,-258.42
47.578,-255.76
47.593,-247.57
47.609,-239.04
47.625,-235.01
47.640,-238.4
47.656,-248.94
47.671,-263.02
47.687,-274.86
47.703,-278.43
47.718,-269.65
47.734,-247.87
47.750,-216.14
47.765,-180.12
47.781,-146.23
47.796,-119.42
47.812,-101.87
47.828,-92.59
47.843,-88.25
47.859,-84.68
47.875,-78.4
47.890,-67.51
47.906,-51.84
47.921,-32.38
47.937,-10.42
47.953,13.07
47.968,37.7
47.984,63.54
48.000,90.78
48.015,119.37
48.031,148.95
48.046,178.76
48.062,207.74
48.078,234.55
48.093,257.6
48.109,275.14
48.125,285.39
48.140,286.66
48.156,277.77
48.171,258.52
48.187,230.13
48.203,195.39
48.218,158.15
48.234,122.32
48.250,90.63
48.265,63.94
48.281,41.45
48.296,21.86
48.312,4.53
48.328,-9.9
48.343,-20.14
48.359,-25.48
48.375,-26.89
48.390,-27.12
48.406,-29.36
48.421,-35.52
48.437,-44.95
48.453,-54.66
48.468,-60.84
48.484,-60.84
48.500,-54.38
48.515,-43.48
48.531,-31.34
48.546,-20.82
48.562,-13.68
48.578,-10.55
48.593,-11.59
48.609,-17.05
48.625,-27.28
48.640,-42.25
48.656,-61.1
48.671,-82.02
48.687,-102.82
48.703,-121.7
48.718,-137.75
48.734,-150.88
48.750,-161.38
48.765,-169.19
48.781,-173.75
48.796,-174.26
48.812,-170.39
48.828,-162.97
48.843,-154.45
48.859,-148.52
48.875,-149.07
48.890,-158.92
48.906,-178.42
48.921,-204.85
48.937,-232.89
48.953,-255.98
48.968,-268.38
48.984,-267.03
49.000,-252.27
49.015,-227.36
49.031,-196.98
49.046,-165.49
49.062,-135.8
49.078,-109.3
49.093,-86.33
49.109,-66.97
49.125,-51.22
49.140,-38.92
49.156,-29.4
49.171,-21.3
49.187,-12.93
49.203,-2.95
49.218,8.99
49.234,22.04
49.250,34.57
49.265,44.87
49.281,52.05
49.296,56.37
49.312,59.16
49.328,62.17
49.343,66.71
49.359,73.03
49.375,80.26
49.390,86.64
49.406,90.33
49.421,90.14
49.437,85.97
49.453,78.85
49.468,70.38
49.484,62.03
49.500,54.41
49.515,47.15
49.531,39.16
49.546,29.53
49.562,18.26
49.578,6.73
49.593,-2.61
49.609,-7.19
49.625,-5.33
49.640,3.08
49.656,16.61
49.671,32.88
49.687,49.6
49.703,65.22
49.718,79.02
49.734,90.85
49.750,100.68
49.765,108.34
49.781,113.71
49.796,116.94
49.812,118.55
49.828,119.18
49.843,119.1
49.859,117.75
49.875,114.02
49.890,106.8
49.906,95.89
49.921,82.22
49.937,67.41
49.953,52.77
49.968,38.62
49.984,24.34
50.000,9.03
50.015,-7.38
50.031,-23.84
50.046,-38.55
50.062,-50.02
50.078,-57.91
50.093,-63.3
50.109,-68.13
50.125,-74.19
50.140,-82.31
50.156,-92.02
50.171,-101.8
50.187,-109.71
50.203,-113.92
50.218,-113.13
50.234,-106.71
50.250,-94.72
50.265,-77.92
50.281,-57.64
50.296,-35.71
50.312,-14.29
50.328,4.4
50.343,18.37
50.359,26.35
50.375,28.09
50.390,24.39
50.406,16.78
50.421,7.08
50.437,-3.14
50.453,-12.81
50.468,-21.31
50.484,-28.33
50.500,-33.76
50.515,-37.64
50.531,-40.23
50.546,-41.95
50.562,-43.17
50.578,-44.03
50.593,-44.32
50.609,-43.53
50.625,-41.25
50.640,-37.39
50.656,-32.42
50.671,-27.29
50.687,-23.07
50.703,-20.58
50.718,-20.26
50.734,-22.07
50.750,-25.57
50.765,-30.15
50.781,-34.95
50.796,-38.98
50.812,-41.15
50.828,-40.39
50.843,-35.99
50.859,-27.75
50.875,-16.11
50.890,-2.01
50.906,13.26
50.921,28.43
50.937,42.38
50.953,54.15
50.968,62.95
50.984,67.88
51.000,68.03
51.015,62.6
51.031,51.28
51.046,34.55
51.062,13.86
51.078,-8.46
51.093,-29.71
51.109,-47.29
51.125,-59.43
51.140,-65.53
51.156,-66.23
51.171,-63.06
51.187,-57.86
51.203,-52.25
51.218,-47.32
51.234,-43.63
51.250,-41.4
51.265,-40.88
51.281,-42.27
51.296,-45.74
51.312,-51.04
51.328,-57.41
51.343,-63.74
51.359,-68.86
51.375,-71.91
51.390,-72.4
51.406,-70.06
51.421,-64.53
51.437,-55.2
51.453,-41.36
51.468,-22.51
51.484,1.17
51.500,28.72
51.515,58.49
51.531,88.43
51.546,116.61
51.562,141.55
51.578,162.36
51.593,178.83
51.609,191.17
51.625,199.89
51.640,205.52
51.656,208.54
51.671,209.29
51.687,208.1
51.703,205.39
51.718,201.69
51.734,197.61
51.750,193.65
51.765,190.06
51.781,186.78
51.796,183.36
51.812,179.18
51.828,173.62
51.843,166.32
51.859,157.28
51.875,146.87
51.890,135.82
51.906,124.98
51.921,115.35
51.937,107.74
51.953,102.65
51.968,99.92
51.984,98.63
52.000,97.11
52.015,93.43
52.031,86.11
52.046,74.8
52.062,60.66
52.078,46.09
52.093,33.96
52.109,26.5
52.125,24.48
52.140,26.77
52.156,30.72
52.171,33.23
52.187,31.92
52.203,26.03
52.218,16.57
52.234,5.63
52.250,-4.62
52.265,-12.91
52.281,-19.16
52.296,-24.16
52.312,-28.73
52.328,-33.26
52.343,-37.55
52.359,-41.22
52.375,-44.09
52.390,-46.27
52.406,-47.89
52.421,-48.75
52.437,-48.18
52.453,-45.39
52.468,-40.0
52.484,-32.49
52.500,-24.09
52.515,-16.53
52.531,-11.68
52.546,-11.16
52.562,-16.21
52.578,-27.43
52.593,-44.57
52.609,-66.39
52.625,-90.85
52.640,-115.59
52.656,-138.69
52.671,-159.04
52.687,-176.36
52.703,-190.83
52.718,-202.46
52.734,-210.98
52.750,-216.08
52.765,-217.64
52.781,-215.95
52.796,-211.44
52.812,-204.2
52.828,-193.72
52.843,-179.07
52.859,-159.4
52.875,-134.72
52.890,-106.16
52.906,-75.83
52.921,-46.16
52.937,-19.14
52.953,4.12
52.968,23.53
52.984,39.62
53.000,53.09
53.015,64.43
53.031,73.79
53.046,81.21
53.062,86.82
53.078,91.07
53.093,94.6
53.109,98.06
53.125,101.84
53.140,105.86
53.156,109.68
53.171,112.72
53.187,114.53
53.203,114.97
53.218,114.15
53.234,112.26
53.250,109.38
53.265,105.5
53.281,100.58
53.296,94.76
53.312,88.43
53.328,82.21
53.343,76.68
53.359,72.2
53.375,68.87
53.390,66.5
53.406,64.82
53.421,63.54
53.437,62.53
53.453,61.68
53.468,60.96
53.484,60.26
53.500,59.55
53.515,59.02
53.531,59.23
53.546,61.18
53.562,66.27
53.578,75.96
53.593,91.28
53.609,112.26
53.625,137.71
53.640,165.34
53.656,192.31
53.671,216.01
53.687,234.51
53.703,246.83
53.718,252.8
53.734,252.8
53.750,247.53
53.765,237.96
53.781,225.29
53.796,210.81
53.812,195.56
53.828,180.08
53.843,164.36
53.859,148.13
53.875,131.19
53.890,113.59
53.906,95.44
53.921,76.48
53.937,55.77
53.953,31.93
53.968,3.73
53.984,-28.82
54.000,-63.77
54.015,-97.22
54.031,-124.36
54.046,-141.35
54.062,-147.04
54.078,-143.67
54.093,-135.97
54.109,-128.99
54.125,-125.88
54.140,-126.9
54.156,-130.11
54.171,-133.17
54.187,-135.25
54.203,-137.49
54.218,-142.07
54.234,-150.34
54.250,-161.72
54.265,-173.83
54.281,-183.81
54.296,-189.69
54.312,-190.89
54.328,-187.87
54.343,-181.29
54.359,-171.42
54.375,-158.25
54.390,-141.72
54.406,-122.02
54.421,-99.48
54.437,-74.31
54.453,-46.59
54.468,-16.81
54.484,13.6
54.500,42.24
54.515,66.24
54.531,83.4
54.546,92.83
54.562,95.05
54.578,91.21
54.593,82.31
54.609,68.66
54.625,50.33
54.640,27.87
54.656,2.83
54.671,-22.29
54.687,-44.91
54.703,-63.4
54.718,-77.62
54.734,-88.66
54.750,-97.78
54.765,-105.35
54.781,-110.63
54.796,-112.29
54.812,-109.42
54.828,-102.41
54.843,-92.84
54.859,-82.69
54.875,-73.31
54.890,-64.87
54.906,-56.58
54.921,-47.6
54.937,-37.75
54.953,-27.77
54.968,-18.72
54.984,-11.23
55.000,-5.09
55.015,0.51
55.031,6.24
55.046,12.0
55.062,16.75
55.078,19.1
55.093,18.01
55.109,13.45
55.125,6.37
55.140,-1.79
55.156,-9.78
55.171,-17.05
55.187,-23.8
55.203,-30.69
55.218,-38.29
55.234,-46.74
55.250,-55.66
55.265,-64.23
55.281,-71.51
55.296,-76.64
55.312,-78.94
55.328,-77.97
55.343,-73.55
55.359,-65.84
55.375,-55.47
55.390,-43.41
55.406,-30.79
55.421,-18.61
55.437,-7.45
55.453,2.52
55.468,11.44
55.484,19.36
55.500,25.97
55.515,30.66
55.531,32.87
55.546,32.58
55.562,30.52
55.578,28.16
55.593,27.15
55.609,28.68
55.625,33.1
55.640,39.87
55.656,48.01
55.671,56.6
55.687,65.12
55.703,73.38
55.718,81.26
55.734,88.37
55.750,93.97
55.765,97.27
55.781,97.82
55.796,95.7
55.812,91.63
55.828,86.43
55.843,80.71
55.859,74.55
55.875,67.67
55.890,59.72
55.906,50.94
55.921,42.3
55.937,35.42
55.953,31.79
55.968,32.12
55.984,35.59
56.000,39.83
56.015,41.41
56.031,36.79
56.046,23.17
56.062,-0.87
56.078,-35.11
56.093,-77.35
56.109,-123.19
56.125,-166.16
56.140,-198.78
56.156,-214.41
56.171,-209.52
56.187,-185.45
56.203,-148.25
56.218,-106.69
56.234,-69.05
56.250,-40.34
56.265,-21.23
56.281,-9.07
56.296,-0.29
56.312,7.46
56.328,14.41
56.343,19.43
56.359,21.54
56.375,21.01
56.390,19.38
56.406,18.46
56.421,19.22
56.437,21.12
56.453,22.47
56.468,21.46
56.484,17.37
56.500,10.86
56.515,3.7
56.531,-2.22
56.546,-5.76
56.562,-6.98
56.578,-6.89
56.593,-6.8
56.609,-7.72
56.625,-9.86
56.640,-12.73
56.656,-15.41
56.671,-17.02
56.687,-17.17
56.703,-16.1
56.718,-14.62
56.734,-13.72
56.750,-14.24
56.765,-16.53
56.781,-20.36
56.796,-25.09
56.812,-29.89
56.828,-33.98
56.843,-36.73
56.859,-37.81
56.875,-37.24
56.890,-35.43
56.906,-33.11
56.921,-31.24
56.937,-30.73
56.953,-32.15
56.968,-35.66
56.984,-41.02
57.000,-47.67
57.015,-54.83
57.031,-61.46
57.046,-66.15
57.062,-67.39
57.078,-63.94
57.093,-55.26
57.109,-41.96
57.125,-25.62
57.140,-8.32
57.156,8.03
57.171,22.11
57.187,33.3
57.203,41.35
57.218,46.19
57.234,47.7
57.250,45.94
57.265,41.31
57.281,34.67
57.296,27.22
57.312,20.16
57.328,14.37
57.343,10.28
57.359,7.89
57.375,6.92
57.390,6.99
57.406,7.79
57.421,9.09
57.437,10.77
57.453,12.74
57.468,14.83
57.484,16.7
57.500,17.93
57.515,18.11
57.531,17.13
57.546,15.2
57.562,12.8
57.578,10.39
57.593,8.15
57.609,5.88
57.625,3.05
57.640,-0.85
57.656,-6.04
57.671,-12.25
57.687,-18.72
57.703,-24.41
57.718,-28.14
57.734,-28.91
57.750,-26.08
57.765,-19.51
57.781,-9.61
57.796,2.68
57.812,16.27
57.828,30.15
57.843,43.53
57.859,55.89
57.875,66.79
57.890,75.68
57.906,81.94
57.921,85.03
57.937,84.75
57.953,81.4
57.968,75.72
57.984,68.57
58.000,60.58
58.015,52.01
58.031,42.78
58.046,32.76
58.062,22.06
58.078,11.22
58.093,1.11
58.109,-7.39
58.125,-13.88
58.140,-18.59
58.156,-22.46
58.171,-26.58
58.187,-31.7
58.203,-37.83
58.218,-44.2
58.234,-49.68
58.250,-53.36
58.265,-55.03
58.281,-55.12
58.296,-54.48
58.312,-53.77
58.328,-53.25
58.343,-52.88
58.359,-52.46
58.375,-51.93
58.390,-51.17
58.406,-49.87
58.421,-47.33
58.437,-42.64
58.453,-34.98
58.468,-23.97
58.484,-9.9
58.500,6.51
58.515,24.27
58.531,42.49
58.546,60.37
58.562,77.05
58.578,91.59
58.593,103.03
58.609,110.64
58.625,114.33
58.640,114.81
58.656,113.5
58.671,112.25
58.687,112.8
58.703,116.21
58.718,122.36
58.734,129.4
58.750,133.72
58.765,130.8
58.781,116.89
58.796,90.91
58.812,55.64
58.828,17.27
58.843,-16.85
58.859,-41.1
58.875,-53.75
58.890,-56.95
58.906,-54.92
58.921,-51.5
58.937,-48.71
58.953,-46.94
58.968,-46.23
58.984,-47.41
59.000,-52.01
59.015,-61.15
59.031,-74.3
59.046,-88.97
59.062,-101.63
59.078,-109.42
59.093,-111.33
59.109,-108.27
59.125,-102.15
59.140,-94.64
59.156,-86.36
59.171,-76.84
59.187,-65.28
59.203,-51.34
59.218,-35.6
59.234,-19.56
59.250,-4.97
59.265,6.81
59.281,15.45
59.296,21.7
59.312,26.97
59.328,32.48
59.343,38.57
59.359,44.38
59.375,48.19
59.390,48.26
59.406,43.61
59.421,34.71
59.437,23.4
59.453,12.43
59.468,4.43
59.484,0.84
59.500,1.35
59.515,4.0
59.531,6.28
59.546,6.31
59.562,3.84
59.578,0.21
59.593,-2.56
59.609,-2.99
59.625,-0.98
59.640,2.26
59.656,4.81
59.671,5.1
59.687,2.43
59.703,-2.86
59.718,-9.86
59.734,-17.55
59.750,-25.1
59.765,-32.01
59.781,-38.01
59.796,-43.16
59.812,-47.71
59.828,-51.97
59.843,-55.99
59.859,-59.41
59.875,-61.56
59.890,-61.72
59.906,-59.58
59.921,-55.27
59.937,-49.35
59.953,-42.42
59.968,-34.92
59.984,-27.04
