timestamp,value
00.000,23.34
00.015,23.87
00.031,24.14
00.046,24.0
00.062,23.33
00.078,22.17
00.093,20.61
00.109,18.81
00.125,16.92
00.140,15.09
00.156,13.49
00.171,12.3
00.187,11.59
00.203,11.33
00.218,11.41
00.234,11.63
00.250,11.88
00.265,12.12
00.281,12.43
00.296,12.84
00.312,13.3
00.328,13.69
00.343,13.82
00.359,13.52
00.375,12.79
00.390,11.7
00.406,10.42
00.421,9.1
00.437,7.84
00.453,6.64
00.468,5.54
00.484,4.56
00.500,3.78
00.515,3.22
00.531,2.88
00.546,2.68
00.562,2.47
00.578,2.12
00.593,1.58
00.609,0.86
00.625,0.05
00.640,-0.79
00.656,-1.62
00.671,-2.49
00.687,-3.5
00.703,-4.7
00.718,-6.08
00.734,-7.47
00.750,-8.75
00.765,-9.78
00.781,-10.63
00.796,-11.47
00.812,-12.54
00.828,-14.07
00.843,-16.13
00.859,-18.63
00.875,-21.36
00.890,-24.06
00.906,-26.51
00.921,-28.64
00.937,-30.48
00.953,-32.18
00.968,-33.98
00.984,-36.14
01.000,-38.84
01.015,-42.07
01.031,-45.55
01.046,-48.67
01.062,-50.59
01.078,-50.42
01.093,-47.48
01.109,-41.61
01.125,-33.21
01.140,-23.22
01.156,-12.84
01.171,-3.13
01.187,5.13
01.203,11.62
01.218,16.37
01.234,19.59
01.250,21.53
01.265,22.43
01.281,22.48
01.296,21.91
01.312,21.02
01.328,20.13
01.343,19.51
01.359,19.33
01.375,19.55
01.390,19.95
01.406,20.31
01.421,20.44
01.437,20.3
01.453,20.06
01.468,19.92
01.484,19.97
01.500,20.13
01.515,20.04
01.531,19.32
01.546,17.68
01.562,15.05
01.578,11.66
01.593,7.93
01.609,4.26
01.625,0.93
01.640,-1.95
01.656,-4.43
01.671,-6.69
01.687,-8.89
01.703,-11.23
01.718,-13.83
01.734,-16.76
01.750,-19.93
01.765,-23.01
01.781,-25.45
01.796,-26.63
01.812,-25.97
01.828,-23.06
01.843,-17.87
01.859,-10.7
01.875,-2.21
01.890,6.65
01.906,14.96
01.921,21.95
01.937,27.15
01.953,30.5
01.968,32.24
01.984,32.76
02.000,32.44
02.015,31.57
02.031,30.31
02.046,28.81
02.062,27.21
02.078,25.63
02.093,24.11
02.109,22.65
02.125,21.13
02.140,19.52
02.156,17.85
02.171,16.2
02.187,14.67
02.203,13.29
02.218,11.98
02.234,10.64
02.250,9.09
02.265,7.22
02.281,4.92
02.296,2.19
02.312,-0.96
02.328,-4.42
02.343,-8.0
02.359,-11.45
02.375,-14.62
02.390,-17.46
02.406,-20.14
02.421,-22.9
02.437,-25.93
02.453,-29.21
02.468,-32.4
02.484,-34.95
02.500,-36.11
02.515,-35.16
02.531,-31.62
02.546,-25.41
02.562,-16.92
02.578,-6.97
02.593,3.38
02.609,13.02
02.625,21.05
02.640,26.98
02.656,30.71
02.671,32.44
02.687,32.45
02.703,31.07
02.718,28.59
02.734,25.38
02.750,21.83
02.765,18.48
02.781,15.81
02.796,14.09
02.812,13.37
02.828,13.37
02.843,13.67
02.859,13.85
02.875,13.7
02.890,13.19
02.906,12.5
02.921,11.83
02.937,11.21
02.953,10.47
02.968,9.28
02.984,7.32
03.000,4.43
03.015,0.72
03.031,-3.43
03.046,-7.49
03.062,-11.04
03.078,-13.88
03.093,-16.1
03.109,-18.01
03.125,-20.01
03.140,-22.37
03.156,-25.11
03.171,-27.98
03.187,-30.39
03.203,-31.61
03.218,-30.9
03.234,-27.77
03.250,-22.15
03.265,-14.5
03.281,-5.69
03.296,3.27
03.312,11.48
03.328,18.37
03.343,23.72
03.359,27.53
03.375,29.85
03.390,30.71
03.406,30.21
03.421,28.57
03.437,26.19
03.453,23.64
03.468,21.36
03.484,19.61
03.500,18.34
03.515,17.39
03.531,16.52
03.546,15.73
03.562,15.09
03.578,14.72
03.593,14.6
03.609,14.54
03.625,14.23
03.640,13.29
03.656,11.56
03.671,9.02
03.687,5.86
03.703,2.34
03.718,-1.27
03.734,-4.77
03.750,-7.99
03.765,-10.9
03.781,-13.48
03.796,-15.85
03.812,-18.2
03.828,-20.71
03.843,-23.5
03.859,-26.47
03.875,-29.26
03.890,-31.28
03.906,-31.89
03.921,-30.47
03.937,-26.7
03.953,-20.61
03.968,-12.67
03.984,-3.68
04.000,5.37
04.015,13.56
04.031,20.21
04.046,25.0
04.062,27.94
04.078,29.22
04.093,29.1
04.109,27.81
04.125,25.61
04.140,22.77
04.156,19.72
04.171,16.93
04.187,14.77
04.203,13.39
04.218,12.66
04.234,12.28
04.250,11.95
04.265,11.53
04.281,11.06
04.296,10.63
04.312,10.35
04.328,10.15
04.343,9.87
04.359,9.22
04.375,7.98
04.390,6.0
04.406,3.3
04.421,0.05
04.437,-3.44
04.453,-6.85
04.468,-9.84
04.484,-12.26
04.500,-14.19
04.515,-15.92
04.531,-17.87
04.546,-20.41
04.562,-23.67
04.578,-27.44
04.593,-31.17
04.609,-34.08
04.625,-35.34
04.640,-34.31
04.656,-30.69
04.671,-24.59
04.687,-16.51
04.703,-7.22
04.718,2.31
04.734,11.17
04.750,18.62
04.765,24.19
04.781,27.77
04.796,29.53
04.812,29.78
04.828,28.91
04.843,27.23
04.859,25.0
04.875,22.45
04.890,19.77
04.906,17.2
04.921,14.94
04.937,13.23
04.953,12.15
04.968,11.69
04.984,11.65
05.000,11.77
05.015,11.76
05.031,11.4
05.046,10.61
05.062,9.37
05.078,7.79
05.093,5.92
05.109,3.8
05.125,1.38
05.140,-1.38
05.156,-4.42
05.171,-7.62
05.187,-10.79
05.203,-13.77
05.218,-16.43
05.234,-18.71
05.250,-20.63
05.265,-22.32
05.281,-23.99
05.296,-25.84
05.312,-28.08
05.328,-30.76
05.343,-33.78
05.359,-36.81
05.375,-39.34
05.390,-40.79
05.406,-40.59
05.421,-38.36
05.437,-33.93
05.453,-27.41
05.468,-19.15
05.484,-9.78
05.500,-0.1
05.515,9.03
05.531,16.84
05.546,22.81
05.562,26.68
05.578,28.5
05.593,28.56
05.609,27.31
05.625,25.23
05.640,22.76
05.656,20.28
05.671,18.07
05.687,16.34
05.703,15.14
05.718,14.39
05.734,13.97
05.750,13.75
05.765,13.62
05.781,13.54
05.796,13.49
05.812,13.36
05.828,13.04
05.843,12.32
05.859,11.0
05.875,9.01
05.890,6.42
05.906,3.47
05.921,0.49
05.937,-2.21
05.953,-4.49
05.968,-6.35
05.984,-8.03
06.000,-9.78
06.015,-11.77
06.031,-13.97
06.046,-16.22
06.062,-18.26
06.078,-19.96
06.093,-21.34
06.109,-22.56
06.125,-23.94
06.140,-25.72
06.156,-27.97
06.171,-30.58
06.187,-33.16
06.203,-35.1
06.218,-35.77
06.234,-34.65
06.250,-31.4
06.265,-26.1
06.281,-19.09
06.296,-10.98
06.312,-2.55
06.328,5.44
06.343,12.4
06.359,17.95
06.375,21.96
06.390,24.51
06.406,25.83
06.421,26.16
06.437,25.74
06.453,24.74
06.468,23.32
06.484,21.66
06.500,19.95
06.515,18.34
06.531,16.95
06.546,15.78
06.562,14.79
06.578,13.87
06.593,12.94
06.609,12.01
06.625,11.07
06.640,10.09
06.656,9.01
06.671,7.7
06.687,6.05
06.703,4.0
06.718,1.64
06.734,-0.82
06.750,-3.17
06.765,-5.28
06.781,-7.15
06.796,-8.89
06.812,-10.62
06.828,-12.48
06.843,-14.47
06.859,-16.54
06.875,-18.57
06.890,-20.48
06.906,-22.22
06.921,-23.83
06.937,-25.42
06.953,-27.13
06.968,-29.18
06.984,-31.62
07.000,-34.38
07.015,-37.09
07.031,-39.25
07.046,-40.19
07.062,-39.33
07.078,-36.28
07.093,-30.97
07.109,-23.75
07.125,-15.24
07.140,-6.31
07.156,2.2
07.171,9.6
07.187,15.44
07.203,19.55
07.218,21.94
07.234,22.72
07.250,22.11
07.265,20.41
07.281,18.0
07.296,15.3
07.312,12.75
07.328,10.71
07.343,9.34
07.359,8.67
07.375,8.58
07.390,8.93
07.406,9.56
07.421,10.26
07.437,10.76
07.453,10.79
07.468,10.11
07.484,8.67
07.500,6.58
07.515,4.12
07.531,1.55
07.546,-0.92
07.562,-3.19
07.578,-5.22
07.593,-6.99
07.609,-8.51
07.625,-9.82
07.640,-10.99
07.656,-12.2
07.671,-13.59
07.687,-15.2
07.703,-16.92
07.718,-18.54
07.734,-19.89
07.750,-20.94
07.765,-21.92
07.781,-23.07
07.796,-24.61
07.812,-26.48
07.828,-28.29
07.843,-29.35
07.859,-28.9
07.875,-26.37
07.890,-21.58
07.906,-14.84
07.921,-6.84
07.937,1.57
07.953,9.58
07.968,16.59
07.984,22.22
08.000,26.23
08.015,28.53
08.031,29.12
08.046,28.13
08.062,25.87
08.078,22.84
08.093,19.62
08.109,16.75
08.125,14.57
08.140,13.18
08.156,12.51
08.171,12.35
08.187,12.47
08.203,12.65
08.218,12.73
08.234,12.61
08.250,12.21
08.265,11.47
08.281,10.3
08.296,8.73
08.312,6.85
08.328,4.82
08.343,2.83
08.359,0.98
08.375,-0.78
08.390,-2.59
08.406,-4.61
08.421,-6.97
08.437,-9.63
08.453,-12.4
08.468,-15.07
08.484,-17.49
08.500,-19.66
08.515,-21.74
08.531,-23.93
08.546,-26.37
08.562,-29.06
08.578,-31.79
08.593,-34.24
08.609,-35.97
08.625,-36.49
08.640,-35.37
08.656,-32.27
08.671,-27.15
08.687,-20.2
08.703,-12.02
08.718,-3.36
08.734,4.94
08.750,12.18
08.765,17.91
08.781,21.97
08.796,24.4
08.812,25.35
08.828,25.03
08.843,23.71
08.859,21.7
08.875,19.36
08.890,17.01
08.906,14.99
08.921,13.48
08.937,12.54
08.953,12.17
08.968,12.27
08.984,12.73
09.000,13.37
09.015,13.99
09.031,14.31
09.046,14.13
09.062,13.29
09.078,11.72
09.093,9.51
09.109,6.79
09.125,3.74
09.140,0.55
09.156,-2.6
09.171,-5.61
09.187,-8.43
09.203,-11.11
09.218,-13.7
09.234,-16.18
09.250,-18.47
09.265,-20.43
09.281,-21.94
09.296,-23.08
09.312,-24.11
09.328,-25.4
09.343,-27.33
09.359,-30.02
09.375,-33.25
09.390,-36.5
09.406,-39.06
09.421,-40.15
09.437,-39.16
09.453,-35.7
09.468,-29.81
09.484,-21.91
09.500,-12.78
09.515,-3.32
09.531,5.57
09.546,13.21
09.562,19.26
09.578,23.63
09.593,26.46
09.609,27.96
09.625,28.34
09.640,27.79
09.656,26.59
09.671,24.99
09.687,23.24
09.703,21.56
09.718,20.07
09.734,18.86
09.750,17.98
09.765,17.41
09.781,17.1
09.796,16.94
09.812,16.75
09.828,16.33
09.843,15.54
09.859,14.31
09.875,12.59
09.890,10.41
09.906,7.82
09.921,4.97
09.937,1.99
09.953,-0.86
09.968,-3.47
09.984,-5.76
10.000,-7.8
10.015,-9.73
10.031,-11.61
10.046,-13.47
10.062,-15.26
10.078,-16.92
10.093,-18.51
10.109,-20.17
10.125,-22.1
10.140,-24.46
10.156,-27.32
10.171,-30.54
10.187,-33.81
10.203,-36.67
10.218,-38.52
10.234,-38.76
10.250,-36.84
10.265,-32.49
10.281,-25.8
10.296,-17.33
10.312,-7.94
10.328,1.36
10.343,9.67
10.359,16.43
10.375,21.42
10.390,24.75
10.406,26.67
10.421,27.42
10.437,27.19
10.453,26.13
10.468,24.46
10.484,22.46
10.500,20.47
10.515,18.78
10.531,17.56
10.546,16.86
10.562,16.55
10.578,16.42
10.593,16.27
10.609,15.9
10.625,15.17
10.640,14.06
10.656,12.6
10.671,10.89
10.687,9.04
10.703,7.11
10.718,5.09
10.734,2.94
10.750,0.58
10.765,-1.98
10.781,-4.68
10.796,-7.39
10.812,-10.02
10.828,-12.48
10.843,-14.72
10.859,-16.72
10.875,-18.46
10.890,-20.04
10.906,-21.62
10.921,-23.35
10.937,-25.44
10.953,-27.93
10.968,-30.69
10.984,-33.3
11.000,-35.17
11.015,-35.66
11.031,-34.25
11.046,-30.69
11.062,-25.06
11.078,-17.78
11.093,-9.57
11.109,-1.24
11.125,6.44
11.140,12.88
11.156,17.76
11.171,21.04
11.187,22.9
11.203,23.58
11.218,23.37
11.234,22.51
11.250,21.23
11.265,19.72
11.281,18.21
11.296,16.9
11.312,15.94
11.328,15.42
11.343,15.25
11.359,15.26
11.375,15.25
11.390,15.08
11.406,14.66
11.421,13.99
11.437,13.14
11.453,12.13
11.468,10.96
11.484,9.54
11.500,7.76
11.515,5.56
11.531,2.94
11.546,-0.01
11.562,-3.12
11.578,-6.19
11.593,-9.07
11.609,-11.64
11.625,-13.89
11.640,-15.85
11.656,-17.62
11.671,-19.39
11.687,-21.38
11.703,-23.76
11.718,-26.57
11.734,-29.61
11.750,-32.35
11.765,-34.11
11.781,-34.17
11.796,-32.03
11.812,-27.56
11.828,-21.01
11.843,-12.96
11.859,-4.19
11.875,4.5
11.890,12.4
11.906,18.97
11.921,23.84
11.937,26.82
11.953,27.85
11.968,27.11
11.984,24.94
12.000,21.89
12.015,18.61
12.031,15.74
12.046,13.76
12.062,12.82
12.078,12.76
12.093,13.19
12.109,13.67
12.125,13.85
12.140,13.57
12.156,12.84
12.171,11.76
12.187,10.39
12.203,8.8
12.218,7.0
12.234,4.99
12.250,2.77
12.265,0.32
12.281,-2.36
12.296,-5.25
12.312,-8.26
12.328,-11.22
12.343,-13.93
12.359,-16.28
12.375,-18.3
12.390,-20.15
12.406,-22.13
12.421,-24.46
12.437,-27.31
12.453,-30.53
12.468,-33.71
12.484,-36.18
12.500,-37.13
12.515,-35.83
12.531,-31.84
12.546,-25.2
12.562,-16.52
12.578,-6.81
12.593,2.78
12.609,11.23
12.625,17.92
12.640,22.64
12.656,25.51
12.671,26.78
12.687,26.7
12.703,25.45
12.718,23.2
12.734,20.25
12.750,17.09
12.765,14.22
12.781,12.12
12.796,10.96
12.812,10.61
12.828,10.65
12.843,10.61
12.859,10.1
12.875,9.0
12.890,7.35
12.906,5.36
12.921,3.22
12.937,1.08
12.953,-1.02
12.968,-3.14
12.984,-5.34
13.000,-7.76
13.015,-10.51
13.031,-13.69
13.046,-17.38
13.062,-21.57
13.078,-26.16
13.093,-30.84
13.109,-35.19
13.125,-38.67
13.140,-40.93
13.156,-41.91
13.171,-41.88
13.187,-41.31
13.203,-40.58
13.218,-39.66
13.234,-38.13
13.250,-35.38
13.265,-30.97
13.281,-24.9
13.296,-17.72
13.312,-10.29
13.328,-3.4
13.343,2.4
13.359,6.91
13.375,10.21
13.390,12.37
13.406,13.45
13.421,13.47
13.437,12.6
13.453,11.11
13.468,9.48
13.484,8.22
13.500,7.83
13.515,8.55
13.531,10.34
13.546,12.9
13.562,15.72
13.578,18.25
13.593,20.04
13.609,20.89
13.625,20.81
13.640,20.0
13.656,18.65
13.671,16.87
13.687,14.73
13.703,12.18
13.718,9.28
13.734,6.11
13.750,2.91
13.765,-0.13
13.781,-2.87
13.796,-5.23
13.812,-7.23
13.828,-8.95
13.843,-10.56
13.859,-12.33
13.875,-14.57
13.890,-17.49
13.906,-21.06
13.921,-24.91
13.937,-28.3
13.953,-30.32
13.968,-30.15
13.984,-27.3
14.000,-21.72
14.015,-13.86
14.031,-4.48
14.046,5.49
14.062,15.14
14.078,23.72
14.093,30.65
14.109,35.57
14.125,38.32
14.140,38.97
14.156,37.74
14.171,35.06
14.187,31.43
14.203,27.48
14.218,23.77
14.234,20.68
14.250,18.42
14.265,16.92
14.281,16.02
14.296,15.5
14.312,15.23
14.328,15.15
14.343,15.21
14.359,15.33
14.375,15.27
14.390,14.75
14.406,13.42
14.421,11.11
14.437,7.82
14.453,3.82
14.468,-0.46
14.484,-4.59
14.500,-8.27
14.515,-11.45
14.531,-14.2
14.546,-16.74
14.562,-19.27
14.578,-21.93
14.593,-24.75
14.609,-27.63
14.625,-30.22
14.640,-32.01
14.656,-32.31
14.671,-30.49
14.687,-26.21
14.703,-19.6
14.718,-11.36
14.734,-2.55
14.750,5.71
14.765,12.49
14.781,17.3
14.796,20.17
14.812,21.44
14.828,21.74
14.843,21.75
14.859,22.01
14.875,22.83
14.890,24.13
14.906,25.51
14.921,26.37
14.937,26.04
14.953,24.07
14.968,20.33
14.984,15.14
15.000,9.16
15.015,3.4
15.031,-1.17
15.046,-3.7
15.062,-3.84
15.078,-1.81
15.093,1.53
15.109,4.84
15.125,6.7
15.140,6.02
15.156,2.47
15.171,-3.49
15.187,-10.74
15.203,-17.93
15.218,-23.79
15.234,-27.53
15.250,-28.95
15.265,-28.44
15.281,-26.86
15.296,-25.31
15.312,-24.81
15.328,-25.88
15.343,-28.38
15.359,-31.35
15.375,-33.45
15.390,-33.32
15.406,-30.11
15.421,-23.84
15.437,-15.25
15.453,-5.57
15.468,3.88
15.484,11.89
15.500,17.48
15.515,19.96
15.531,19.07
15.546,15.15
15.562,9.18
15.578,2.64
15.593,-2.93
15.609,-6.39
15.625,-7.39
15.640,-6.38
15.656,-4.37
15.671,-2.43
15.687,-1.27
15.703,-1.12
15.718,-1.76
15.734,-2.73
15.750,-3.59
15.765,-4.07
15.781,-4.08
15.796,-3.65
15.812,-2.85
15.828,-1.73
15.843,-0.35
15.859,1.28
15.875,3.03
15.890,4.75
15.906,6.13
15.921,6.89
15.937,6.77
15.953,5.63
15.968,3.5
15.984,0.66
16.000,-2.27
16.015,-4.43
16.031,-4.87
16.046,-2.83
16.062,1.99
16.078,9.36
16.093,18.46
16.109,28.13
16.125,37.18
16.140,44.69
16.156,50.11
16.171,53.32
16.187,54.6
16.203,54.4
16.218,53.22
16.234,51.51
16.250,49.57
16.265,47.62
16.281,45.82
16.296,44.33
16.312,43.31
16.328,42.86
16.343,42.97
16.359,43.55
16.375,44.47
16.390,45.63
16.406,47.02
16.421,48.62
16.437,50.31
16.453,51.85
16.468,52.9
16.484,53.15
16.500,52.53
16.515,51.2
16.531,49.56
16.546,48.05
16.562,46.97
16.578,46.42
16.593,46.32
16.609,46.51
16.625,46.85
16.640,47.28
16.656,47.79
16.671,48.4
16.687,49.23
16.703,50.44
16.718,52.31
16.734,55.11
16.750,59.05
16.765,64.09
16.781,69.96
16.796,76.17
16.812,82.17
16.828,87.46
16.843,91.6
16.859,94.18
16.875,94.82
16.890,93.32
16.906,89.79
16.921,84.88
16.937,79.82
16.953,76.16
16.968,75.35
16.984,78.36
17.000,85.23
17.015,95.05
17.031,106.17
17.046,116.58
17.062,124.42
17.078,128.42
17.093,128.09
17.109,123.67
17.125,115.78
17.140,105.1
17.156,92.08
17.171,76.94
17.187,59.78
17.203,40.83
17.218,20.41
17.234,-1.09
17.250,-23.27
17.265,-45.79
17.281,-68.24
17.296,-89.9
17.312,-109.69
17.328,-126.37
17.343,-138.91
17.359,-147.0
17.375,-151.21
17.390,-152.59
17.406,-152.03
17.421,-149.66
17.437,-144.7
17.453,-135.9
17.468,-122.48
17.484,-104.53
17.500,-83.07
17.515,-59.56
17.531,-35.15
17.546,-10.51
17.562,13.91
17.578,37.37
17.593,58.54
17.609,75.92
17.625,88.65
17.640,97.16
17.656,102.91
17.671,107.53
17.687,111.65
17.703,114.36
17.718,113.57
17.734,107.16
17.750,94.13
17.765,75.2
17.781,52.31
17.796,27.69
17.812,2.83
17.828,-21.94
17.843,-47.04
17.859,-73.0
17.875,-99.83
17.890,-126.78
17.906,-152.64
17.921,-176.2
17.937,-196.57
17.953,-213.14
17.968,-225.48
17.984,-233.05
18.000,-235.01
18.015,-230.42
18.031,-218.54
18.046,-199.28
18.062,-173.41
18.078,-142.48
18.093,-108.5
18.109,-73.52
18.125,-39.57
18.140,-8.75
18.156,16.54
18.171,33.67
18.187,40.49
18.203,36.44
18.218,23.4
18.234,5.44
18.250,-12.53
18.265,-26.64
18.281,-34.96
18.296,-37.33
18.312,-34.38
18.328,-26.54
18.343,-14.02
18.359,2.66
18.375,22.01
18.390,41.89
18.406,60.59
18.421,77.95
18.437,95.53
18.453,115.37
18.468,138.16
18.484,161.99
18.500,182.78
18.515,196.0
18.531,198.8
18.546,190.82
18.562,173.98
18.578,151.05
18.593,124.44
18.609,95.7
18.625,65.7
18.640,35.14
18.656,5.07
18.671,-22.86
18.687,-46.73
18.703,-64.79
18.718,-76.33
18.734,-82.33
18.750,-85.37
18.765,-88.86
18.781,-95.47
18.796,-105.71
18.812,-117.24
18.828,-125.46
18.843,-125.49
18.859,-114.23
18.875,-91.95
18.890,-62.2
18.906,-30.39
18.921,-1.85
18.937,19.57
18.953,31.84
18.968,34.18
18.984,26.32
19.000,8.58
19.015,-17.59
19.031,-48.66
19.046,-79.27
19.062,-103.33
19.078,-116.25
19.093,-116.72
19.109,-107.15
19.125,-92.64
19.140,-78.55
19.156,-68.09
19.171,-61.21
19.187,-55.22
19.203,-46.76
19.218,-33.84
19.234,-16.96
19.250,1.19
19.265,16.93
19.281,27.2
19.296,30.34
19.312,25.98
19.328,14.43
19.343,-4.0
19.359,-28.75
19.375,-58.45
19.390,-90.18
19.406,-119.6
19.421,-141.86
19.437,-153.33
19.453,-152.96
19.468,-142.71
19.484,-126.57
19.500,-108.83
19.515,-92.59
19.531,-78.8
19.546,-66.56
19.562,-53.92
19.578,-38.94
19.593,-20.54
19.609,1.16
19.625,24.6
19.640,46.9
19.656,64.15
19.671,72.06
19.687,66.82
19.703,46.17
19.718,10.21
19.734,-38.16
19.750,-93.41
19.765,-148.3
19.781,-195.39
19.796,-228.69
19.812,-245.07
19.828,-244.87
19.843,-231.46
19.859,-209.9
19.875,-185.36
19.890,-161.94
19.906,-142.1
19.921,-127.01
19.937,-117.01
19.953,-111.93
19.968,-111.23
19.984,-113.8
20.000,-117.98
20.015,-121.99
20.031,-124.44
20.046,-124.79
20.062,-123.45
20.078,-121.43
20.093,-119.65
20.109,-118.33
20.125,-116.73
20.140,-113.41
20.156,-106.81
20.171,-96.02
20.187,-81.16
20.203,-63.45
20.218,-44.73
20.234,-26.64
20.250,-10.19
20.265,4.54
20.281,18.11
20.296,31.21
20.312,44.19
20.328,56.9
20.343,68.75
20.359,79.01
20.375,87.22
20.390,93.24
20.406,97.33
20.421,99.92
20.437,101.52
20.453,102.54
20.468,103.32
20.484,104.08
20.500,105.03
20.515,106.27
20.531,107.78
20.546,109.33
20.562,110.49
20.578,110.8
20.593,109.91
20.609,107.81
20.625,104.74
20.640,101.12
20.656,97.43
20.671,93.93
20.687,90.76
20.703,87.95
20.718,85.39
20.734,83.01
20.750,80.65
20.765,78.13
20.781,75.34
20.796,72.25
20.812,68.95
20.828,65.6
20.843,62.33
20.859,59.09
20.875,55.78
20.890,52.24
20.906,48.49
20.921,44.73
20.937,41.22
20.953,38.12
20.968,35.4
20.984,32.81
21.000,30.1
21.015,27.16
21.031,24.05
21.046,21.05
21.062,18.43
21.078,16.26
21.093,14.4
21.109,12.56
21.125,10.41
21.140,7.73
21.156,4.46
21.171,0.68
21.187,-3.4
21.203,-7.57
21.218,-11.7
21.234,-15.79
21.250,-20.0
21.265,-24.54
21.281,-29.6
21.296,-35.16
21.312,-40.95
21.328,-46.54
21.343,-51.51
21.359,-55.63
21.375,-58.96
21.390,-61.83
21.406,-64.65
21.421,-67.91
21.437,-72.01
21.453,-77.24
21.468,-83.58
21.484,-90.55
21.500,-97.03
21.515,-101.31
21.531,-101.63
21.546,-96.6
21.562,-85.85
21.578,-70.16
21.593,-51.29
21.609,-31.34
21.625,-12.26
21.640,4.59
21.656,18.47
21.671,29.03
21.687,36.21
21.703,40.19
21.718,41.41
21.734,40.74
21.750,39.36
21.765,38.45
21.781,38.85
21.796,40.75
21.812,43.7
21.828,46.78
21.843,48.95
21.859,49.46
21.875,48.05
21.890,44.94
21.906,40.7
21.921,35.99
21.937,31.42
21.953,27.42
21.968,24.29
21.984,22.19
22.000,21.16
22.015,21.07
22.031,21.55
22.046,22.01
22.062,21.78
22.078,20.17
22.093,16.57
22.109,10.67
22.125,2.42
22.140,-7.76
22.156,-18.91
22.171,-29.54
22.187,-37.87
22.203,-42.16
22.218,-41.37
22.234,-35.43
22.250,-25.33
22.265,-12.79
22.281,0.26
22.296,12.25
22.312,22.23
22.328,29.74
22.343,34.75
22.359,37.35
22.375,37.77
22.390,36.42
22.406,33.89
22.421,30.92
22.437,28.23
22.453,26.35
22.468,25.49
22.484,25.66
22.500,26.65
22.515,28.2
22.531,30.02
22.546,31.68
22.562,32.79
22.578,32.92
22.593,31.79
22.609,29.27
22.625,25.54
22.640,20.87
22.656,15.61
22.671,10.06
22.687,4.31
22.703,-1.62
22.718,-7.96
22.734,-15.0
22.750,-22.97
22.765,-31.77
22.781,-40.88
22.796,-49.28
22.812,-55.49
22.828,-58.03
22.843,-55.78
22.859,-48.41
22.875,-36.62
22.890,-21.89
22.906,-6.05
22.921,9.23
22.937,22.79
22.953,34.19
22.968,43.37
22.984,50.43
23.000,55.44
23.015,58.38
23.031,59.32
23.046,58.53
23.062,56.47
23.078,53.72
23.093,50.82
23.109,48.03
23.125,45.4
23.140,42.89
23.156,40.44
23.171,38.06
23.187,35.71
23.203,33.29
23.218,30.56
23.234,27.29
23.250,23.24
23.265,18.38
23.281,12.88
23.296,7.01
23.312,1.03
23.328,-4.94
23.343,-11.03
23.359,-17.58
23.375,-24.99
23.390,-33.64
23.406,-43.64
23.421,-54.56
23.437,-65.45
23.453,-74.77
23.468,-80.82
23.484,-82.13
23.500,-77.98
23.515,-68.69
23.531,-55.49
23.546,-40.14
23.562,-24.38
23.578,-9.54
23.593,3.72
23.609,15.17
23.625,24.82
23.640,32.63
23.656,38.5
23.671,42.32
23.687,44.18
23.703,44.4
23.718,43.47
23.734,42.04
23.750,40.75
23.765,40.13
23.781,40.57
23.796,42.18
23.812,44.81
23.828,47.98
23.843,50.97
23.859,53.0
23.875,53.33
23.890,51.47
23.906,47.27
23.921,40.89
23.937,32.74
23.953,23.39
23.968,13.52
23.984,3.78
24.000,-5.28
24.015,-13.28
24.031,-20.25
24.046,-26.58
24.062,-32.98
24.078,-40.18
24.093,-48.5
24.109,-57.5
24.125,-65.89
24.140,-71.8
24.156,-73.41
24.171,-69.6
24.187,-60.41
24.203,-47.01
24.218,-31.27
24.234,-15.06
24.250,0.24
24.265,13.98
24.281,26.12
24.296,36.76
24.312,45.9
24.328,53.35
24.343,58.77
24.359,61.96
24.375,63.08
24.390,62.62
24.406,61.26
24.421,59.7
24.437,58.39
24.453,57.43
24.468,56.68
24.484,55.79
24.500,54.48
24.515,52.65
24.531,50.34
24.546,47.75
24.562,44.96
24.578,41.93
24.593,38.46
24.609,34.33
24.625,29.39
24.640,23.73
24.656,17.6
24.671,11.35
24.687,5.27
24.703,-0.51
24.718,-6.02
24.734,-11.41
24.750,-16.89
24.765,-22.77
24.781,-29.34
24.796,-36.87
24.812,-45.38
24.828,-54.51
24.843,-63.36
24.859,-70.55
24.875,-74.57
24.890,-74.19
24.906,-68.96
24.921,-59.34
24.937,-46.56
24.953,-32.28
24.968,-17.95
24.984,-4.56
25.000,7.51
25.015,18.17
25.031,27.41
25.046,35.03
25.062,40.65
25.078,44.03
25.093,45.16
25.109,44.51
25.125,42.81
25.140,40.91
25.156,39.41
25.171,38.53
25.187,38.18
25.203,38.02
25.218,37.78
25.234,37.28
25.250,36.54
25.265,35.63
25.281,34.61
25.296,33.3
25.312,31.45
25.328,28.69
25.343,24.76
25.359,19.59
25.375,13.37
25.390,6.53
25.406,-0.39
25.421,-6.87
25.437,-12.62
25.453,-17.63
25.468,-22.1
25.484,-26.47
25.500,-31.12
25.515,-36.34
25.531,-42.23
25.546,-48.61
25.562,-55.04
25.578,-60.89
25.593,-65.28
25.609,-67.25
25.625,-65.98
25.640,-61.05
25.656,-52.59
25.671,-41.42
25.687,-28.79
25.703,-16.03
25.718,-4.2
25.734,6.09
25.750,14.7
25.765,21.68
25.781,27.18
25.796,31.21
25.812,33.77
25.828,34.93
25.843,35.01
25.859,34.43
25.875,33.67
25.890,33.06
25.906,32.65
25.921,32.31
25.937,31.8
25.953,30.96
25.968,29.67
25.984,27.97
26.000,25.93
26.015,23.67
26.031,21.28
26.046,18.77
26.062,16.07
26.078,13.05
26.093,9.55
26.109,5.47
26.125,0.93
26.140,-3.79
26.156,-8.31
26.171,-12.33
26.187,-15.76
26.203,-18.79
26.218,-21.75
26.234,-25.02
26.250,-28.92
26.265,-33.64
26.281,-39.13
26.296,-45.08
26.312,-50.73
26.328,-54.99
26.343,-56.6
26.359,-54.58
26.375,-48.53
26.390,-38.88
26.406,-26.77
26.421,-13.7
26.437,-1.1
26.453,10.1
26.468,19.47
26.484,26.99
26.500,32.76
26.515,36.86
26.531,39.31
26.546,40.24
26.562,39.95
26.578,38.94
26.593,37.84
26.609,37.17
26.625,37.16
26.640,37.66
26.656,38.31
26.671,38.68
26.687,38.52
26.703,37.85
26.718,36.87
26.734,35.89
26.750,35.07
26.765,34.33
26.781,33.39
26.796,31.79
26.812,29.05
26.828,24.88
26.843,19.38
26.859,12.96
26.875,6.31
26.890,0.09
26.906,-5.36
26.921,-10.05
26.937,-14.41
26.953,-18.98
26.968,-24.13
26.984,-29.98
27.000,-36.39
27.015,-43.04
27.031,-49.46
27.046,-55.05
27.062,-58.98
27.078,-60.33
27.093,-58.32
27.109,-52.63
27.125,-43.67
27.140,-32.53
27.156,-20.6
27.171,-9.17
27.187,0.97
27.203,9.55
27.218,16.76
27.234,22.9
27.250,28.16
27.265,32.53
27.281,35.84
27.296,38.01
27.312,39.03
27.328,39.11
27.343,38.59
27.359,37.87
27.375,37.27
27.390,36.97
27.406,36.94
27.421,37.0
27.437,36.91
27.453,36.41
27.468,35.3
27.484,33.55
27.500,31.22
27.515,28.38
27.531,25.1
27.546,21.36
27.562,17.1
27.578,12.25
27.593,6.85
27.609,1.08
27.625,-4.77
27.640,-10.38
27.656,-15.57
27.671,-20.28
27.687,-24.65
27.703,-28.89
27.718,-33.23
27.734,-37.88
27.750,-42.94
27.765,-48.52
27.781,-54.59
27.796,-60.89
27.812,-66.82
27.828,-71.37
27.843,-73.32
27.859,-71.63
27.875,-65.76
27.890,-55.96
27.906,-43.27
27.921,-29.18
27.937,-15.17
27.953,-2.33
27.968,8.83
27.984,18.25
28.000,26.07
28.015,32.42
28.031,37.36
28.046,40.82
28.062,42.83
28.078,43.52
28.093,43.22
28.109,42.31
28.125,41.19
28.140,40.16
28.156,39.31
28.171,38.61
28.187,37.92
28.203,37.1
28.218,36.0
28.234,34.52
28.250,32.63
28.265,30.33
28.281,27.64
28.296,24.58
28.312,21.21
28.328,17.53
28.343,13.57
28.359,9.32
28.375,4.75
28.390,-0.16
28.406,-5.37
28.421,-10.73
28.437,-16.04
28.453,-21.02
28.468,-25.43
28.484,-29.17
28.500,-32.33
28.515,-35.29
28.531,-38.55
28.546,-42.64
28.562,-47.77
28.578,-53.69
28.593,-59.58
28.609,-64.12
28.625,-65.88
28.640,-63.66
28.656,-57.0
28.671,-46.32
28.687,-32.88
28.703,-18.28
28.718,-4.08
28.734,8.64
28.750,19.46
28.765,28.39
28.781,35.66
28.796,41.43
28.812,45.72
28.828,48.43
28.843,49.61
28.859,49.52
28.875,48.54
28.890,47.14
28.906,45.63
28.921,44.1
28.937,42.52
28.953,40.81
28.968,39.0
28.984,37.21
29.000,35.69
29.015,34.49
29.031,33.47
29.046,32.2
29.062,30.19
29.078,27.16
29.093,23.13
29.109,18.46
29.125,13.61
29.140,8.98
29.156,4.61
29.171,0.27
29.187,-4.36
29.203,-9.47
29.218,-14.93
29.234,-20.41
29.250,-25.49
29.265,-29.9
29.281,-33.61
29.296,-36.83
29.312,-39.86
29.328,-43.02
29.343,-46.56
29.359,-50.63
29.375,-55.21
29.390,-59.93
29.406,-64.0
29.421,-66.29
29.437,-65.62
29.453,-61.16
29.468,-52.81
29.484,-41.34
29.500,-28.12
29.515,-14.7
29.531,-2.32
29.546,8.31
29.562,17.01
29.578,23.88
29.593,29.15
29.609,33.0
29.625,35.48
29.640,36.65
29.656,36.63
29.671,35.64
29.687,34.02
29.703,32.18
29.718,30.53
29.734,29.37
29.750,28.83
29.765,28.75
29.781,28.85
29.796,28.75
29.812,28.11
29.828,26.77
29.843,24.72
29.859,22.07
29.875,18.95
29.890,15.53
29.906,11.96
29.921,8.4
29.937,5.01
29.953,1.86
29.968,-1.04
29.984,-3.73
30.000,-6.3
30.015,-8.76
30.031,-11.05
30.046,-13.06
30.062,-14.74
30.078,-16.13
30.093,-17.54
30.109,-19.41
30.125,-22.21
30.140,-26.23
30.156,-31.29
30.171,-36.69
30.187,-41.27
30.203,-43.66
30.218,-42.75
30.234,-38.08
30.250,-30.02
30.265,-19.69
30.281,-8.62
30.296,1.75
30.312,10.44
30.328,17.05
30.343,21.6
30.359,24.28
30.375,25.2
30.390,24.36
30.406,21.78
30.421,17.66
30.437,12.53
30.453,7.21
30.468,2.55
30.484,-0.79
30.500,-2.52
30.515,-2.77
30.531,-1.9
30.546,-0.31
30.562,1.69
30.578,3.97
30.593,6.47
30.609,9.12
30.625,11.75
30.640,14.06
30.656,15.7
30.671,16.3
30.687,15.65
30.703,13.75
30.718,10.91
30.734,7.54
30.750,4.13
30.765,1.02
30.781,-1.66
30.796,-4.07
30.812,-6.55
30.828,-9.47
30.843,-13.14
30.859,-17.75
30.875,-23.34
30.890,-29.69
30.906,-36.27
30.921,-42.06
30.937,-45.84
30.953,-46.45
30.968,-43.14
30.984,-35.96
31.000,-25.71
31.015,-13.81
31.031,-1.77
31.046,9.15
31.062,18.25
31.078,25.39
31.093,30.78
31.109,34.69
31.125,37.24
31.140,38.43
31.156,38.2
31.171,36.58
31.187,33.87
31.203,30.49
31.218,26.96
31.234,23.73
31.250,21.06
31.265,19.01
31.281,17.46
31.296,16.19
31.312,14.96
31.328,13.64
31.343,12.16
31.359,10.56
31.375,8.87
31.390,7.06
31.406,4.93
31.421,2.23
31.437,-1.26
31.453,-5.51
31.468,-10.25
31.484,-15.0
31.500,-19.3
31.515,-22.94
31.531,-26.02
31.546,-28.93
31.562,-32.17
31.578,-36.15
31.593,-41.1
31.609,-47.01
31.625,-53.67
31.640,-60.5
31.656,-66.6
31.671,-70.82
31.687,-71.94
31.703,-68.96
31.718,-61.5
31.734,-50.02
31.750,-35.68
31.765,-20.17
31.781,-5.17
31.796,8.1
31.812,18.95
31.828,27.42
31.843,33.95
31.859,39.06
31.875,43.06
31.890,46.09
31.906,48.12
31.921,49.21
31.937,49.61
31.953,49.71
31.968,49.92
31.984,50.4
32.000,51.0
32.015,51.35
32.031,51.1
32.046,50.15
32.062,48.7
32.078,47.17
32.093,45.93
32.109,45.18
32.125,44.81
32.140,44.44
32.156,43.62
32.171,41.95
32.187,39.25
32.203,35.57
32.218,31.21
32.234,26.56
32.250,22.02
32.265,17.84
32.281,14.03
32.296,10.4
32.312,6.62
32.328,2.32
32.343,-2.66
32.359,-8.2
32.375,-13.86
32.390,-18.88
32.406,-22.35
32.421,-23.41
32.437,-21.37
32.453,-15.99
32.468,-7.43
32.484,3.77
32.500,16.82
32.515,30.96
32.531,45.67
32.546,60.83
32.562,76.68
32.578,93.66
32.593,112.07
32.609,131.7
32.625,151.76
32.640,171.12
32.656,188.88
32.671,204.89
32.687,220.03
32.703,235.93
32.718,254.23
32.734,275.65
32.750,299.25
32.765,322.37
32.781,341.18
32.796,351.76
32.812,351.08
32.828,337.66
32.843,311.63
32.859,274.34
32.875,227.72
32.890,173.94
32.906,115.41
32.921,54.89
32.937,-4.6
32.953,-60.36
32.968,-110.94
32.984,-156.64
33.000,-199.4
33.015,-241.52
33.031,-284.3
33.046,-327.38
33.062,-369.08
33.078,-407.69
33.093,-442.53
33.109,-474.28
33.125,-504.06
33.140,-532.42
33.156,-558.73
33.171,-581.58
33.187,-599.52
33.203,-611.58
33.218,-616.9
33.234,-613.96
33.250,-600.23
33.265,-572.87
33.281,-530.11
33.296,-472.65
33.312,-403.87
33.328,-328.86
33.343,-252.96
33.359,-180.46
33.375,-114.39
33.390,-56.84
33.406,-9.28
33.421,27.51
33.437,53.76
33.453,71.04
33.468,82.1
33.484,90.15
33.500,97.92
33.515,106.92
33.531,117.25
33.546,128.05
33.562,137.97
33.578,145.73
33.593,150.46
33.609,151.71
33.625,149.52
33.640,144.36
33.656,137.07
33.671,128.61
33.687,119.91
33.703,111.61
33.718,103.96
33.734,96.88
33.750,90.2
33.765,83.86
33.781,78.04
33.796,73.05
33.812,69.05
33.828,65.82
33.843,62.55
33.859,57.92
33.875,50.29
33.890,38.25
33.906,21.05
33.921,-0.69
33.937,-24.74
33.953,-47.42
33.968,-64.54
33.984,-72.72
34.000,-70.59
34.015,-59.26
34.031,-41.79
34.046,-21.91
34.062,-2.65
34.078,14.55
34.093,29.67
34.109,43.47
34.125,56.6
34.140,69.02
34.156,80.18
34.171,89.4
34.187,96.42
34.203,101.57
34.218,105.69
34.234,109.7
34.250,114.27
34.265,119.51
34.281,125.04
34.296,130.24
34.312,134.52
34.328,137.59
34.343,139.46
34.359,140.31
34.375,140.13
34.390,138.72
34.406,135.52
34.421,130.0
34.437,122.03
34.453,112.17
34.468,101.79
34.484,92.63
34.500,86.31
34.515,83.66
34.531,84.38
34.546,87.16
34.562,90.08
34.578,91.18
34.593,88.94
34.609,82.57
34.625,72.11
34.640,58.42
34.656,43.0
34.671,27.78
34.687,14.71
34.703,5.19
34.718,-0.42
34.734,-3.08
34.750,-4.93
34.765,-8.55
34.781,-15.92
34.796,-27.55
34.812,-42.09
34.828,-56.73
34.843,-68.28
34.859,-74.51
34.875,-75.07
34.890,-71.65
34.906,-67.24
34.921,-64.84
34.937,-66.23
34.953,-71.51
34.968,-79.32
34.984,-87.69
35.000,-94.96
35.015,-100.27
35.031,-103.33
35.046,-104.04
35.062,-102.04
35.078,-96.8
35.093,-88.04
35.109,-76.25
35.125,-62.72
35.140,-49.26
35.156,-37.43
35.171,-28.04
35.187,-21.01
35.203,-15.7
35.218,-11.51
35.234,-8.29
35.250,-6.44
35.265,-6.79
35.281,-10.25
35.296,-17.55
35.312,-28.92
35.328,-43.9
35.343,-61.06
35.359,-77.9
35.375,-91.17
35.390,-97.61
35.406,-94.94
35.421,-82.7
35.437,-62.62
35.453,-38.08
35.468,-13.23
35.484,8.33
35.500,24.44
35.515,34.64
35.531,39.81
35.546,41.57
35.562,41.5
35.578,40.68
35.593,39.64
35.609,38.49
35.625,37.26
35.640,36.1
35.656,35.28
35.671,34.98
35.687,35.23
35.703,35.79
35.718,36.22
35.734,36.18
35.750,35.49
35.765,34.09
35.781,31.57
35.796,26.97
35.812,18.8
35.828,5.78
35.843,-12.27
35.859,-33.73
35.875,-55.29
35.890,-73.04
35.906,-83.87
35.921,-86.82
35.937,-83.29
35.953,-76.33
35.968,-69.27
35.984,-64.43
36.000,-62.55
36.015,-62.99
36.031,-64.37
36.046,-65.19
36.062,-64.02
36.078,-59.53
36.093,-50.55
36.109,-36.32
36.125,-17.08
36.140,5.53
36.156,28.44
36.171,47.85
36.187,60.48
36.203,64.87
36.218,62.09
36.234,55.4
36.250,48.96
36.265,46.1
36.281,48.04
36.296,53.64
36.312,60.32
36.328,65.5
36.343,67.82
36.359,67.5
36.375,65.88
36.390,64.37
36.406,63.69
36.421,63.59
36.437,63.23
36.453,61.65
36.468,58.23
36.484,52.64
36.500,44.86
36.515,35.06
36.531,23.76
36.546,11.83
36.562,0.5
36.578,-8.98
36.593,-15.82
36.609,-20.01
36.625,-22.48
36.640,-24.81
36.656,-28.89
36.671,-36.32
36.687,-47.95
36.703,-63.34
36.718,-80.69
36.734,-97.04
36.750,-109.03
36.765,-113.9
36.781,-110.37
36.796,-98.99
36.812,-81.91
36.828,-62.0
36.843,-41.89
36.859,-23.38
36.875,-7.26
36.890,6.46
36.906,18.04
36.921,27.66
36.937,35.13
36.953,40.02
36.968,41.84
36.984,40.48
37.000,36.53
37.015,31.32
37.031,26.54
37.046,23.68
37.062,23.35
37.078,25.07
37.093,27.57
37.109,29.52
37.125,30.11
37.140,29.39
37.156,27.99
37.171,26.7
37.187,26.05
37.203,26.26
37.218,27.34
37.234,29.2
37.250,31.68
37.265,34.38
37.281,36.6
37.296,37.6
37.312,36.77
37.328,33.88
37.343,29.06
37.359,22.7
37.375,15.13
37.390,6.77
37.406,-1.88
37.421,-10.01
37.437,-16.45
37.453,-20.03
37.468,-19.91
37.484,-15.94
37.500,-8.76
37.515,0.53
37.531,10.71
37.546,20.68
37.562,29.66
37.578,37.15
37.593,42.79
37.609,46.35
37.625,47.75
37.640,47.06
37.656,44.58
37.671,40.82
37.687,36.36
37.703,31.79
37.718,27.57
37.734,23.83
37.750,20.42
37.765,17.03
37.781,13.25
37.796,8.81
37.812,3.56
37.828,-2.65
37.843,-10.01
37.859,-18.69
37.875,-28.65
37.890,-39.32
37.906,-49.56
37.921,-57.97
37.937,-63.28
37.953,-64.93
37.968,-63.27
37.984,-59.32
38.000,-54.39
38.015,-49.61
38.031,-45.83
38.046,-43.58
38.062,-43.32
38.078,-45.26
38.093,-49.11
38.109,-53.85
38.125,-57.74
38.140,-58.73
38.156,-55.31
38.171,-47.0
38.187,-34.58
38.203,-19.73
38.218,-4.33
38.234,10.17
38.250,23.01
38.265,34.12
38.281,43.65
38.296,51.7
38.312,58.15
38.328,62.7
38.343,65.14
38.359,65.52
38.375,64.23
38.390,61.87
38.406,59.03
38.421,56.05
38.437,53.06
38.453,50.02
38.468,46.91
38.484,43.84
38.500,41.0
38.515,38.54
38.531,36.45
38.546,34.54
38.562,32.56
38.578,30.31
38.593,27.75
38.609,24.92
38.625,21.86
38.640,18.59
38.656,15.07
38.671,11.28
38.687,7.38
38.703,3.6
38.718,0.24
38.734,-2.47
38.750,-4.48
38.765,-5.94
38.781,-7.22
38.796,-8.79
38.812,-11.11
38.828,-14.41
38.843,-18.47
38.859,-22.61
38.875,-25.79
38.890,-26.92
38.906,-25.35
38.921,-21.03
38.937,-14.75
38.953,-7.85
38.968,-1.95
38.984,1.47
39.000,1.45
39.015,-2.32
39.031,-9.32
39.046,-18.34
39.062,-27.66
39.078,-35.43
39.093,-40.09
39.109,-40.76
39.125,-37.39
39.140,-30.68
39.156,-21.82
39.171,-12.12
39.187,-2.72
39.203,5.64
39.218,12.62
39.234,18.22
39.250,22.61
39.265,25.98
39.281,28.5
39.296,30.26
39.312,31.39
39.328,32.08
39.343,32.6
39.359,33.27
39.375,34.34
39.390,35.88
39.406,37.79
39.421,39.85
39.437,41.86
39.453,43.78
39.468,45.73
39.484,47.96
39.500,50.64
39.515,53.65
39.531,56.53
39.546,58.6
39.562,59.19
39.578,57.92
39.593,54.81
39.609,50.23
39.625,44.71
39.640,38.72
39.656,32.5
39.671,26.17
39.687,19.92
39.703,14.15
39.718,9.42
39.734,6.31
39.750,5.13
39.765,5.72
39.781,7.44
39.796,9.43
39.812,10.98
39.828,11.72
39.843,11.67
39.859,11.07
39.875,10.07
39.890,8.69
39.906,6.74
39.921,4.03
39.937,0.55
39.953,-3.52
39.968,-7.88
39.984,-12.32
40.000,-16.72
40.015,-21.14
40.031,-25.55
40.046,-29.9
40.062,-34.02
40.078,-37.73
40.093,-40.98
40.109,-43.87
40.125,-46.68
40.140,-49.72
40.156,-53.38
40.171,-57.89
40.187,-63.22
40.203,-68.99
40.218,-74.39
40.234,-78.41
40.250,-80.23
40.265,-79.7
40.281,-77.46
40.296,-74.96
40.312,-73.71
40.328,-74.69
40.343,-77.75
40.359,-81.56
40.375,-84.13
40.390,-83.39
40.406,-77.92
40.421,-67.29
40.437,-52.12
40.453,-33.81
40.468,-14.12
40.484,5.18
40.500,22.74
40.515,37.7
40.531,49.72
40.546,58.86
40.562,65.41
40.578,69.68
40.593,71.91
40.609,72.24
40.625,70.77
40.640,67.7
40.656,63.39
40.671,58.49
40.687,53.9
40.703,50.61
40.718,49.31
40.734,50.11
40.750,52.41
40.765,55.09
40.781,56.98
40.796,57.3
40.812,55.87
40.828,52.97
40.843,48.93
40.859,43.88
40.875,37.61
40.890,29.86
40.906,20.67
40.921,10.56
40.937,0.48
40.953,-8.63
40.968,-16.25
40.984,-22.45
41.000,-27.82
41.015,-33.03
41.031,-38.59
41.046,-44.64
41.062,-51.24
41.078,-58.58
41.093,-67.2
41.109,-77.73
41.125,-90.3
41.140,-104.02
41.156,-116.89
41.171,-126.22
41.187,-129.6
41.203,-125.78
41.218,-115.11
41.234,-99.34
41.250,-80.83
41.265,-61.68
41.281,-43.25
41.296,-26.13
41.312,-10.62
41.328,2.97
41.343,14.11
41.359,22.39
41.375,27.91
41.390,31.46
41.406,34.31
41.421,37.7
41.437,42.28
41.453,47.87
41.468,53.66
41.484,58.67
41.500,62.37
41.515,64.92
41.531,66.88
41.546,68.86
41.562,70.99
41.578,72.86
41.593,73.62
41.609,72.48
41.625,69.09
41.640,63.7
41.656,56.97
41.671,49.75
41.687,42.65
41.703,35.93
41.718,29.51
41.734,23.17
41.750,16.84
41.765,10.71
41.781,5.19
41.796,0.7
41.812,-2.66
41.828,-5.16
41.843,-7.45
41.859,-10.22
41.875,-13.96
41.890,-18.67
41.906,-23.95
41.921,-29.13
41.937,-33.55
41.953,-36.71
41.968,-38.29
41.984,-38.18
42.000,-36.46
42.015,-33.31
42.031,-29.0
42.046,-23.95
42.062,-18.59
42.078,-13.37
42.093,-8.63
42.109,-4.63
42.125,-1.54
42.140,0.47
42.156,1.24
42.171,0.68
42.187,-1.17
42.203,-3.99
42.218,-7.21
42.234,-10.08
42.250,-12.0
42.265,-12.65
42.281,-12.26
42.296,-11.56
42.312,-11.66
42.328,-13.68
42.343,-18.28
42.359,-25.38
42.375,-33.94
42.390,-42.24
42.406,-48.35
42.421,-50.87
42.437,-49.42
42.453,-44.73
42.468,-38.23
42.484,-31.39
42.500,-25.24
42.515,-20.13
42.531,-16.02
42.546,-12.79
42.562,-10.46
42.578,-9.12
42.593,-8.69
42.609,-8.87
42.625,-9.13
42.640,-9.04
42.656,-8.37
42.671,-7.08
42.687,-5.11
42.703,-2.25
42.718,1.9
42.734,7.71
42.750,15.16
42.765,23.75
42.781,32.63
42.796,40.91
42.812,47.98
42.828,53.62
42.843,57.87
42.859,61.0
42.875,63.3
42.890,65.05
42.906,66.44
42.921,67.51
42.937,68.1
42.953,67.86
42.968,66.4
42.984,63.68
43.000,60.11
43.015,56.58
43.031,54.11
43.046,53.38
43.062,54.32
43.078,56.21
43.093,58.01
43.109,58.84
43.125,58.4
43.140,56.94
43.156,54.89
43.171,52.57
43.187,50.01
43.203,46.98
43.218,43.21
43.234,38.63
43.250,33.42
43.265,27.93
43.281,22.55
43.296,17.57
43.312,13.14
43.328,9.25
43.343,5.75
43.359,2.4
43.375,-1.01
43.390,-4.41
43.406,-7.42
43.421,-9.36
43.437,-9.49
43.453,-7.46
43.468,-3.62
43.484,0.98
43.500,4.87
43.515,6.73
43.531,5.87
43.546,2.42
43.562,-2.84
43.578,-8.86
43.593,-14.77
43.609,-20.1
43.625,-24.79
43.640,-29.1
43.656,-33.56
43.671,-38.79
43.687,-45.42
43.703,-53.72
43.718,-63.24
43.734,-72.55
43.750,-79.49
43.765,-81.89
43.781,-78.55
43.796,-69.82
43.812,-57.52
43.828,-44.29
43.843,-32.41
43.859,-23.12
43.875,-16.33
43.890,-11.15
43.906,-6.62
43.921,-2.21
43.937,2.13
43.953,6.33
43.968,10.51
43.984,15.03
44.000,20.18
44.015,25.71
44.031,30.69
44.046,33.75
44.062,33.71
44.078,30.16
44.093,23.72
44.109,15.7
44.125,7.55
44.140,0.3
44.156,-5.64
44.171,-10.25
44.187,-13.46
44.203,-14.99
44.218,-14.46
44.234,-11.8
44.250,-7.46
44.265,-2.43
44.281,2.21
44.296,5.64
44.312,7.59
44.328,8.29
44.343,8.12
44.359,7.38
44.375,6.2
44.390,4.55
44.406,2.42
44.421,-0.19
44.437,-3.24
44.453,-6.78
44.468,-10.79
44.484,-15.19
44.500,-19.63
44.515,-23.5
44.531,-26.14
44.546,-27.13
44.562,-26.57
44.578,-25.12
44.593,-23.95
44.609,-24.28
44.625,-27.01
44.640,-32.35
44.656,-39.62
44.671,-47.45
44.687,-54.06
44.703,-57.85
44.718,-57.88
44.734,-54.17
44.750,-47.59
44.765,-39.56
44.781,-31.53
44.796,-24.66
44.812,-19.62
44.828,-16.68
44.843,-15.77
44.859,-16.58
44.875,-18.57
44.890,-20.95
44.906,-22.74
44.921,-22.96
44.937,-20.88
44.953,-16.25
44.968,-9.28
44.984,-0.54
45.000,9.3
45.015,19.57
45.031,29.73
45.046,39.27
45.062,47.73
45.078,54.55
45.093,59.21
45.109,61.26
45.125,60.5
45.140,57.04
45.156,51.37
45.171,44.33
45.187,36.88
45.203,29.88
45.218,23.91
45.234,19.06
45.250,14.99
45.265,11.07
45.281,6.69
45.296,1.63
45.312,-3.87
45.328,-9.07
45.343,-13.09
45.359,-15.31
45.375,-15.66
45.390,-14.58
45.406,-12.84
45.421,-11.12
45.437,-9.75
45.453,-8.62
45.468,-7.42
45.484,-5.91
45.500,-4.11
45.515,-2.41
45.531,-1.35
45.546,-1.33
45.562,-2.51
45.578,-4.74
45.593,-7.51
45.609,-10.12
45.625,-11.65
45.640,-11.1
45.656,-7.74
45.671,-1.27
45.687,7.95
45.703,18.82
45.718,29.94
45.734,40.0
45.750,48.19
45.765,54.35
45.781,58.85
45.796,62.2
45.812,64.69
45.828,66.31
45.843,66.79
45.859,65.86
45.875,63.49
45.890,60.01
45.906,56.05
45.921,52.3
45.937,49.33
45.953,47.35
45.968,46.21
45.984,45.48
46.000,44.69
46.015,43.5
46.031,41.83
46.046,39.76
46.062,37.34
46.078,34.47
46.093,30.84
46.109,26.21
46.125,20.49
46.140,13.97
46.156,7.18
46.171,0.75
46.187,-4.8
46.203,-9.19
46.218,-12.43
46.234,-14.79
46.250,-16.68
46.265,-18.58
46.281,-20.86
46.296,-23.72
46.312,-27.12
46.328,-30.75
46.343,-34.14
46.359,-36.92
46.375,-38.95
46.390,-40.48
46.406,-41.9
46.421,-43.56
46.437,-45.51
46.453,-47.44
46.468,-48.92
46.484,-49.58
46.500,-49.36
46.515,-48.51
46.531,-47.45
46.546,-46.57
46.562,-46.1
46.578,-46.06
46.593,-46.32
46.609,-46.57
46.625,-46.29
46.640,-44.81
46.656,-41.46
46.671,-35.8
46.687,-27.99
46.703,-18.85
46.718,-9.68
46.734,-1.82
46.750,3.85
46.765,7.16
46.781,8.61
46.796,9.02
46.812,9.14
46.828,9.35
46.843,9.66
46.859,9.85
46.875,9.75
46.890,9.37
46.906,8.9
46.921,8.64
46.937,8.77
46.953,9.28
46.968,9.94
46.984,10.48
47.000,10.61
47.015,10.2
47.031,9.18
47.046,7.49
47.062,5.16
47.078,2.23
47.093,-1.03
47.109,-4.12
47.125,-6.26
47.140,-6.65
47.156,-4.74
47.171,-0.47
47.187,5.72
47.203,12.99
47.218,20.31
47.234,26.8
47.250,31.82
47.265,35.11
47.281,36.67
47.296,36.76
47.312,35.65
47.328,33.59
47.343,30.8
47.359,27.38
47.375,23.49
47.390,19.33
47.406,15.19
47.421,11.34
47.437,7.92
47.453,4.93
47.468,2.25
47.484,-0.25
47.500,-2.66
47.515,-5.01
47.531,-7.34
47.546,-9.78
47.562,-12.55
47.578,-15.9
47.593,-19.9
47.609,-24.49
47.625,-29.38
47.640,-34.24
47.656,-38.77
47.671,-42.84
47.687,-46.42
47.703,-49.56
47.718,-52.26
47.734,-54.46
47.750,-56.06
47.765,-56.93
47.781,-56.93
47.796,-55.89
47.812,-53.78
47.828,-50.68
47.843,-46.83
47.859,-42.51
47.875,-37.91
47.890,-33.03
47.906,-27.58
47.921,-21.27
47.937,-14.02
47.953,-6.13
47.968,1.7
47.984,8.67
48.000,14.19
48.015,18.17
48.031,21.0
48.046,23.4
48.062,26.04
48.078,29.26
48.093,33.01
48.109,37.0
48.125,40.86
48.140,44.38
48.156,47.5
48.171,50.23
48.187,52.53
48.203,54.16
48.218,54.76
48.234,53.99
48.250,51.76
48.265,48.31
48.281,44.2
48.296,40.06
48.312,36.37
48.328,33.24
48.343,30.4
48.359,27.42
48.375,23.89
48.390,19.61
48.406,14.69
48.421,9.48
48.437,4.4
48.453,-0.11
48.468,-3.66
48.484,-5.89
48.500,-6.5
48.515,-5.41
48.531,-2.77
48.546,0.98
48.562,5.27
48.578,9.51
48.593,13.26
48.609,16.34
48.625,18.63
48.640,20.08
48.656,20.47
48.671,19.49
48.687,16.73
48.703,12.01
48.718,5.48
48.734,-2.21
48.750,-9.99
48.765,-16.59
48.781,-20.9
48.796,-22.43
48.812,-21.48
48.828,-19.12
48.843,-16.66
48.859,-15.19
48.875,-15.14
48.890,-16.25
48.906,-17.85
48.921,-19.37
48.937,-20.69
48.953,-22.14
48.968,-24.28
48.984,-27.61
49.000,-32.4
49.015,-38.81
49.031,-46.86
49.046,-56.41
49.062,-66.82
49.078,-76.98
49.093,-85.36
49.109,-90.58
49.125,-91.98
49.140,-89.83
49.156,-85.19
49.171,-79.29
49.187,-72.91
49.203,-66.16
49.218,-58.63
49.234,-49.85
49.250,-39.71
49.265,-28.59
49.281,-17.11
49.296,-5.81
49.312,5.15
49.328,16.05
49.343,27.4
49.359,39.74
49.375,53.15
49.390,66.95
49.406,79.66
49.421,89.45
49.437,94.83
49.453,95.47
49.468,92.44
49.484,87.91
49.500,84.23
49.515,82.89
49.531,84.03
49.546,86.58
49.562,88.95
49.578,89.78
49.593,88.45
49.609,85.01
49.625,79.82
49.640,73.18
49.656,65.18
49.671,55.82
49.687,45.34
49.703,34.36
49.718,23.81
49.734,14.65
49.750,7.44
49.765,2.13
49.781,-1.94
49.796,-5.66
49.812,-9.7
49.828,-14.08
49.843,-18.2
49.859,-21.23
49.875,-22.71
49.890,-23.04
49.906,-23.38
49.921,-25.23
49.937,-29.63
49.953,-36.66
49.968,-45.34
49.984,-54.04
50.000,-61.15
50.015,-65.59
50.031,-67.04
50.046,-65.88
50.062,-62.92
50.078,-59.25
50.093,-56.1
50.109,-54.66
50.125,-55.74
50.140,-59.35
50.156,-64.43
50.171,-69.03
50.187,-70.97
50.203,-68.64
50.218,-61.62
50.234,-50.81
50.250,-37.94
50.265,-24.76
50.281,-12.55
50.296,-1.87
50.312,7.22
50.328,14.82
50.343,21.0
50.359,25.83
50.375,29.51
50.390,32.41
50.406,35.07
50.421,37.96
50.437,41.32
50.453,45.05
50.468,48.67
50.484,51.46
50.500,52.68
50.515,52.0
50.531,49.69
50.546,46.75
50.562,44.6
50.578,44.56
50.593,47.28
50.609,52.35
50.625,58.42
50.640,63.69
50.656,66.61
50.671,66.54
50.687,63.91
50.703,59.88
50.718,55.83
50.734,52.72
50.750,50.7
50.765,49.15
50.781,47.01
50.796,43.19
50.812,37.05
50.828,28.57
50.843,18.37
50.859,7.54
50.875,-2.64
50.890,-10.94
50.906,-16.54
50.921,-19.15
50.937,-19.15
50.953,-17.43
50.968,-15.09
50.984,-13.02
51.000,-11.63
51.015,-10.73
51.031,-9.83
51.046,-8.47
51.062,-6.6
51.078,-4.74
51.093,-3.88
51.109,-5.12
51.125,-9.22
51.140,-16.25
51.156,-25.33
51.171,-34.89
51.187,-43.03
51.203,-48.19
51.218,-49.57
51.234,-47.44
51.250,-42.87
51.265,-37.35
51.281,-32.18
51.296,-28.06
51.312,-25.06
51.328,-22.75
51.343,-20.73
51.359,-18.72
51.375,-16.79
51.390,-15.19
51.406,-14.12
51.421,-13.61
51.437,-13.5
51.453,-13.49
51.468,-13.24
51.484,-12.34
51.500,-10.33
51.515,-6.65
51.531,-0.66
51.546,8.11
51.562,19.8
51.578,34.04
51.593,49.87
51.609,66.06
51.625,81.29
51.640,94.42
51.656,104.6
51.671,111.17
51.687,113.67
51.703,111.74
51.718,105.35
51.734,94.89
51.750,81.2
51.765,65.52
51.781,49.14
51.796,33.26
51.812,18.68
51.828,5.93
51.843,-4.73
51.859,-13.12
51.875,-19.19
51.890,-23.12
51.906,-25.52
51.921,-27.49
51.937,-30.35
51.953,-35.27
51.968,-42.67
51.984,-51.93
52.000,-61.42
52.015,-69.03
52.031,-72.9
52.046,-72.19
52.062,-67.33
52.078,-59.77
52.093,-51.37
52.109,-43.64
52.125,-37.47
52.140,-32.99
52.156,-29.93
52.171,-28.01
52.187,-27.1
52.203,-27.28
52.218,-28.63
52.234,-31.05
52.250,-34.16
52.265,-37.48
52.281,-40.59
52.296,-43.38
52.312,-46.08
52.328,-48.98
52.343,-52.31
52.359,-55.88
52.375,-59.14
52.390,-61.36
52.406,-61.96
52.421,-60.78
52.437,-58.23
52.453,-55.04
52.468,-51.97
52.484,-49.52
52.500,-47.76
52.515,-46.39
52.531,-45.0
52.546,-43.18
52.562,-40.87
52.578,-38.52
52.593,-37.09
52.609,-37.7
52.625,-41.21
52.640,-47.42
52.656,-54.87
52.671,-61.11
52.687,-63.51
52.703,-60.36
52.718,-51.66
52.734,-39.04
52.750,-25.04
52.765,-12.02
52.781,-1.28
52.796,7.07
52.812,13.75
52.828,19.55
52.843,24.89
52.859,29.85
52.875,34.59
52.890,39.61
52.906,45.71
52.921,53.54
52.937,62.96
52.953,72.91
52.968,81.75
52.984,87.97
53.000,90.99
53.015,91.48
53.031,90.86
53.046,90.49
53.062,90.78
53.078,90.99
53.093,89.67
53.109,85.54
53.125,78.28
53.140,68.7
53.156,58.4
53.171,49.01
53.187,41.64
53.203,36.56
53.218,33.4
53.234,31.46
53.250,30.02
53.265,28.41
53.281,26.09
53.296,22.63
53.312,17.79
53.328,11.68
53.343,4.74
53.359,-2.39
53.375,-8.98
53.390,-14.44
53.406,-18.44
53.421,-20.96
53.437,-22.32
53.453,-23.16
53.468,-24.26
53.484,-26.42
53.500,-30.22
53.515,-35.89
53.531,-43.21
53.546,-51.64
53.562,-60.43
53.578,-68.84
53.593,-76.19
53.609,-81.9
53.625,-85.56
53.640,-87.02
53.656,-86.64
53.671,-85.32
53.687,-84.52
53.703,-85.65
53.718,-89.5
53.734,-95.68
53.750,-102.57
53.765,-107.81
53.781,-109.29
53.796,-105.98
53.812,-98.36
53.828,-88.08
53.843,-77.22
53.859,-67.36
53.875,-59.03
53.890,-51.76
53.906,-44.51
53.921,-36.23
53.937,-26.3
53.953,-14.62
53.968,-1.53
53.984,12.34
54.000,26.4
54.015,40.05
54.031,52.86
54.046,64.51
54.062,74.72
54.078,83.3
54.093,90.12
54.109,95.26
54.125,99.0
54.140,101.78
54.156,103.98
54.171,105.79
54.187,107.08
54.203,107.48
54.218,106.61
54.234,104.34
54.250,100.9
54.265,96.93
54.281,93.18
54.296,90.27
54.312,88.44
54.328,87.5
54.343,86.97
54.359,86.36
54.375,85.35
54.390,83.88
54.406,82.05
54.421,79.79
54.437,76.73
54.453,72.23
54.468,65.72
54.484,57.02
54.500,46.65
54.515,35.71
54.531,25.42
54.546,16.63
54.562,9.39
54.578,3.02
54.593,-3.6
54.609,-11.48
54.625,-21.19
54.640,-32.61
54.656,-45.05
54.671,-57.44
54.687,-68.48
54.703,-76.95
54.718,-81.82
54.734,-82.51
54.750,-79.11
54.765,-72.37
54.781,-63.54
54.796,-54.08
54.812,-45.18
54.828,-37.41
54.843,-30.72
54.859,-24.63
54.875,-18.75
54.890,-13.17
54.906,-8.61
54.921,-6.06
54.937,-6.44
54.953,-10.07
54.968,-16.62
54.984,-25.24
55.000,-34.93
55.015,-44.84
55.031,-54.4
55.046,-63.27
55.062,-71.36
55.078,-78.82
55.093,-86.04
55.109,-93.31
55.125,-100.52
55.140,-106.92
55.156,-111.12
55.171,-111.68
55.187,-107.77
55.203,-99.61
55.218,-88.54
55.234,-76.35
55.250,-64.64
55.265,-54.28
55.281,-45.42
55.296,-37.8
55.312,-31.22
55.328,-25.69
55.343,-21.32
55.359,-18.08
55.375,-15.7
55.390,-13.72
55.406,-11.77
55.421,-9.79
55.437,-8.05
55.453,-7.02
55.468,-7.03
55.484,-8.03
55.500,-9.42
55.515,-10.12
55.531,-8.85
55.546,-4.55
55.562,3.25
55.578,14.21
55.593,27.23
55.609,40.75
55.625,53.3
55.640,63.83
55.656,71.97
55.671,77.89
55.687,82.07
55.703,84.98
55.718,87.1
55.734,88.83
55.750,90.62
55.765,92.75
55.781,95.06
55.796,96.93
55.812,97.47
55.828,95.96
55.843,92.36
55.859,87.4
55.875,82.22
55.890,77.73
55.906,74.11
55.921,70.51
55.937,65.69
55.953,58.42
55.968,48.25
55.984,35.43
56.000,20.85
56.015,5.63
56.031,-9.23
56.046,-22.82
56.062,-34.43
56.078,-43.45
56.093,-49.55
56.109,-52.71
56.125,-53.26
56.140,-52.0
56.156,-50.1
56.171,-48.96
56.187,-49.87
56.203,-53.68
56.218,-60.34
56.234,-68.73
56.250,-76.84
56.265,-82.29
56.281,-83.21
56.296,-78.7
56.312,-69.16
56.328,-55.95
56.343,-40.84
56.359,-25.36
56.375,-10.52
56.390,3.22
56.406,15.8
56.421,27.22
56.437,37.48
56.453,46.55
56.468,54.44
56.484,61.1
56.500,66.31
56.515,69.54
56.531,70.04
56.546,67.09
56.562,60.49
56.578,50.87
56.593,39.73
56.609,28.99
56.625,20.22
56.640,14.1
56.656,10.14
56.671,7.08
56.687,3.6
56.703,-1.04
56.718,-6.65
56.734,-12.43
56.750,-17.33
56.765,-20.65
56.781,-22.29
56.796,-22.77
56.812,-23.0
56.828,-24.05
56.843,-26.78
56.859,-31.51
56.875,-37.86
56.890,-44.69
56.906,-50.32
56.921,-53.12
56.937,-52.11
56.953,-47.31
56.968,-39.78
56.984,-31.21
57.000,-23.28
57.015,-17.12
57.031,-13.01
57.046,-10.44
57.062,-8.44
57.078,-5.98
57.093,-2.28
57.109,3.09
57.125,10.15
57.140,18.67
57.156,28.29
57.171,38.65
57.187,49.47
57.203,60.48
57.218,71.41
57.234,81.94
57.250,91.64
57.265,99.96
57.281,106.3
57.296,110.03
57.312,110.69
57.328,108.18
57.343,102.82
57.359,95.35
57.375,86.8
57.390,78.09
57.406,69.87
57.421,62.35
57.437,55.33
57.453,48.46
57.468,41.38
57.484,33.88
57.500,25.83
57.515,17.2
57.531,7.94
57.546,-2.02
57.562,-12.6
57.578,-23.65
57.593,-34.8
57.609,-45.57
57.625,-55.58
57.640,-64.52
57.656,-72.34
57.671,-79.18
57.687,-85.25
57.703,-90.82
57.718,-96.24
57.734,-101.86
57.750,-108.01
57.765,-114.88
57.781,-122.19
57.796,-129.24
57.812,-134.85
57.828,-137.77
57.843,-136.95
57.859,-131.99
57.875,-123.09
57.890,-110.93
57.906,-96.47
57.921,-80.6
57.937,-64.16
57.953,-47.85
57.968,-32.3
57.984,-17.96
58.000,-5.08
58.015,6.52
58.031,17.26
58.046,27.6
58.062,37.79
58.078,47.53
58.093,56.12
58.109,62.63
58.125,66.42
58.140,67.33
58.156,65.78
58.171,62.53
58.187,58.33
58.203,53.75
58.218,49.02
58.234,44.22
58.250,39.38
58.265,34.64
58.281,30.12
58.296,25.84
58.312,21.62
58.328,17.16
58.343,12.23
58.359,6.77
58.375,0.88
58.390,-5.35
58.406,-12.05
58.421,-19.53
58.437,-28.08
58.453,-37.49
58.468,-46.85
58.484,-54.64
58.500,-59.27
58.515,-59.75
58.531,-56.18
58.546,-49.7
58.562,-42.02
58.578,-34.74
58.593,-28.87
58.609,-24.64
58.625,-21.68
58.640,-19.31
58.656,-16.7
58.671,-12.98
58.687,-7.35
58.703,0.75
58.718,11.37
58.734,23.95
58.750,37.29
58.765,49.97
58.781,60.75
58.796,68.94
58.812,74.49
58.828,77.85
58.843,79.66
58.859,80.49
58.875,80.66
58.890,80.21
58.906,78.93
58.921,76.42
58.937,72.28
58.953,66.37
58.968,58.93
58.984,50.73
59.000,42.81
59.015,36.12
59.031,31.03
59.046,27.11
59.062,23.16
59.078,17.73
59.093,9.81
59.109,-0.68
59.125,-12.78
59.140,-24.93
59.156,-35.61
59.171,-43.88
59.187,-49.63
59.203,-53.44
59.218,-56.25
59.234,-58.96
59.250,-62.24
59.265,-66.31
59.281,-71.02
59.296,-75.81
59.312,-79.86
59.328,-82.24
59.343,-82.18
59.359,-79.23
59.375,-73.39
59.390,-65.01
59.406,-54.67
59.421,-43.04
59.437,-30.84
59.453,-18.68
59.468,-7.1
59.484,3.71
59.500,13.79
59.515,23.35
59.531,32.52
59.546,41.15
59.562,48.7
59.578,54.42
59.593,57.64
59.609,58.02
59.625,55.77
59.640,51.46
59.656,45.95
59.671,40.15
59.687,34.95
59.703,31.03
59.718,28.86
59.734,28.51
59.750,29.5
59.765,30.89
59.781,31.29
59.796,29.33
59.812,24.2
59.828,16.17
59.843,6.65
59.859,-2.08
59.875,-7.8
59.890,-9.15
59.906,-6.17
59.921,-0.27
59.937,6.42
59.953,11.88
59.968,14.78
59.984,14.81
