timestamp,value
00.000,65.92
00.015,81.08
00.031,92.53
00.046,99.7
00.062,102.81
00.078,102.67
00.093,100.32
00.109,96.71
00.125,92.44
00.140,87.81
00.156,82.92
00.171,77.82
00.187,72.49
00.203,66.83
00.218,60.74
00.234,54.17
00.250,47.32
00.265,40.64
00.281,34.68
00.296,29.85
00.312,26.12
00.328,22.95
00.343,19.44
00.359,14.65
00.375,7.94
00.390,-0.81
00.406,-11.23
00.421,-22.6
00.437,-34.15
00.453,-45.23
00.468,-55.44
00.484,-64.61
00.500,-72.73
00.515,-79.86
00.531,-86.12
00.546,-91.83
00.562,-97.57
00.578,-104.2
00.593,-112.49
00.609,-122.57
00.625,-133.49
00.640,-143.08
00.656,-148.54
00.671,-147.33
00.687,-138.27
00.703,-121.99
00.718,-100.77
00.734,-77.63
00.750,-55.29
00.765,-35.29
00.781,-17.81
00.796,-1.94
00.812,13.75
00.828,30.7
00.843,49.79
00.859,70.8
00.875,92.05
00.890,110.36
00.906,121.69
00.921,122.4
00.937,110.7
00.953,87.59
00.968,56.74
00.984,23.26
01.000,-8.0
01.015,-33.83
01.031,-53.14
01.046,-66.45
01.062,-74.88
01.078,-79.34
01.093,-80.28
01.109,-77.92
01.125,-72.57
01.140,-64.93
01.156,-55.84
01.171,-46.06
01.187,-36.04
01.203,-25.94
01.218,-15.86
01.234,-6.14
01.250,2.52
01.265,9.19
01.281,13.07
01.296,13.79
01.312,11.71
01.328,7.78
01.343,3.25
01.359,-0.87
01.375,-4.12
01.390,-6.78
01.406,-9.6
01.421,-13.51
01.437,-19.18
01.453,-26.74
01.468,-35.65
01.484,-44.7
01.500,-52.22
01.515,-56.48
01.531,-56.18
01.546,-50.82
01.562,-40.96
01.578,-28.05
01.593,-13.96
01.609,-0.51
01.625,11.18
01.640,20.81
01.656,28.78
01.671,35.82
01.687,42.48
01.703,48.85
01.718,54.59
01.734,59.08
01.750,61.74
01.765,62.36
01.781,61.19
01.796,58.87
01.812,56.18
01.828,53.84
01.843,52.33
01.859,51.76
01.875,51.95
01.890,52.47
01.906,52.81
01.921,52.63
01.937,51.74
01.953,50.18
01.968,48.09
01.984,45.63
02.000,42.88
02.015,39.87
02.031,36.64
02.046,33.24
02.062,29.74
02.078,26.07
02.093,22.0
02.109,17.16
02.125,11.17
02.140,3.9
02.156,-4.45
02.171,-13.3
02.187,-21.9
02.203,-29.67
02.218,-36.44
02.234,-42.54
02.250,-48.61
02.265,-55.22
02.281,-62.52
02.296,-69.97
02.312,-76.5
02.328,-80.84
02.343,-82.04
02.359,-79.71
02.375,-74.08
02.390,-65.72
02.406,-55.27
02.421,-43.25
02.437,-30.08
02.453,-16.33
02.468,-2.71
02.484,9.89
02.500,20.69
02.515,29.21
02.531,35.46
02.546,39.8
02.562,42.75
02.578,44.76
02.593,46.0
02.609,46.5
02.625,46.26
02.640,45.41
02.656,44.22
02.671,43.03
02.687,42.15
02.703,41.69
02.718,41.55
02.734,41.49
02.750,41.34
02.765,41.02
02.781,40.65
02.796,40.47
02.812,40.66
02.828,41.37
02.843,42.58
02.859,44.18
02.875,45.96
02.890,47.65
02.906,48.93
02.921,49.42
02.937,48.81
02.953,46.89
02.968,43.71
02.984,39.57
03.000,34.97
03.015,30.5
03.031,26.76
03.046,24.1
03.062,22.63
03.078,22.09
03.093,21.89
03.109,21.24
03.125,19.39
03.140,15.92
03.156,10.99
03.171,5.41
03.187,0.55
03.203,-2.06
03.218,-1.18
03.234,3.64
03.250,11.77
03.265,21.52
03.281,30.62
03.296,36.92
03.312,39.08
03.328,37.02
03.343,31.87
03.359,25.43
03.375,19.55
03.390,15.49
03.406,13.71
03.421,14.07
03.437,16.18
03.453,19.69
03.468,24.36
03.484,29.97
03.500,36.17
03.515,42.49
03.531,48.45
03.546,53.8
03.562,58.47
03.578,62.51
03.593,65.85
03.609,68.19
03.625,69.04
03.640,67.91
03.656,64.56
03.671,59.18
03.687,52.38
03.703,45.04
03.718,38.08
03.734,32.2
03.750,27.82
03.765,24.93
03.781,23.25
03.796,22.24
03.812,21.3
03.828,19.88
03.843,17.67
03.859,14.66
03.875,11.14
03.890,7.54
03.906,4.25
03.921,1.47
03.937,-0.9
03.953,-3.16
03.968,-5.73
03.984,-9.0
04.000,-13.24
04.015,-18.56
04.031,-24.83
04.046,-31.66
04.062,-38.31
04.078,-43.73
04.093,-46.73
04.109,-46.3
04.125,-41.99
04.140,-34.04
04.156,-23.44
04.171,-11.53
04.187,0.34
04.203,11.2
04.218,20.59
04.234,28.42
04.250,34.77
04.265,39.68
04.281,43.06
04.296,44.68
04.312,44.35
04.328,41.98
04.343,37.7
04.359,31.83
04.375,24.9
04.390,17.51
04.406,10.23
04.421,3.43
04.437,-2.84
04.453,-8.87
04.468,-15.29
04.484,-22.8
04.500,-31.99
04.515,-43.03
04.531,-55.42
04.546,-68.02
04.562,-79.05
04.578,-86.54
04.593,-88.76
04.609,-84.78
04.625,-74.82
04.640,-60.3
04.656,-43.58
04.671,-27.34
04.687,-13.96
04.703,-5.01
04.718,-0.98
04.734,-1.43
04.750,-5.32
04.765,-11.41
04.781,-18.61
04.796,-26.18
04.812,-33.77
04.828,-41.38
04.843,-49.25
04.859,-57.68
04.875,-66.82
04.890,-76.51
04.906,-86.12
04.921,-94.57
04.937,-100.74
04.953,-103.69
04.968,-103.12
04.984,-99.43
05.000,-93.61
05.015,-86.79
05.031,-79.88
05.046,-73.3
05.062,-66.96
05.078,-60.57
05.093,-53.96
05.109,-47.19
05.125,-40.6
05.140,-34.59
05.156,-29.39
05.171,-24.96
05.187,-21.07
05.203,-17.44
05.218,-13.96
05.234,-10.76
05.250,-8.05
05.265,-6.03
05.281,-4.71
05.296,-3.92
05.312,-3.4
05.328,-2.96
05.343,-2.56
05.359,-2.26
05.375,-2.22
05.390,-2.47
05.406,-2.9
05.421,-3.28
05.437,-3.36
05.453,-2.95
05.468,-2.09
05.484,-1.01
05.500,-0.07
05.515,0.35
05.531,0.06
05.546,-0.93
05.562,-2.34
05.578,-3.83
05.593,-5.15
05.609,-6.29
05.625,-7.45
05.640,-9.04
05.656,-11.41
05.671,-14.69
05.687,-18.77
05.703,-23.16
05.718,-27.12
05.734,-29.81
05.750,-30.4
05.765,-28.35
05.781,-23.46
05.796,-15.99
05.812,-6.51
05.828,4.19
05.843,15.3
05.859,26.11
05.875,36.08
05.890,44.86
05.906,52.3
05.921,58.34
05.937,62.99
05.953,66.25
05.968,68.16
05.984,68.77
06.000,68.28
06.015,66.97
06.031,65.24
06.046,63.45
06.062,61.89
06.078,60.76
06.093,60.12
06.109,60.01
06.125,60.43
06.140,61.35
06.156,62.61
06.171,63.92
06.187,64.93
06.203,65.35
06.218,65.09
06.234,64.27
06.250,63.18
06.265,62.17
06.281,61.54
06.296,61.44
06.312,61.87
06.328,62.69
06.343,63.68
06.359,64.64
06.375,65.47
06.390,66.28
06.406,67.33
06.421,69.04
06.437,71.75
06.453,75.54
06.468,80.12
06.484,84.96
06.500,89.51
06.515,93.65
06.531,97.87
06.546,103.3
06.562,111.33
06.578,123.07
06.593,138.72
06.609,157.15
06.625,175.87
06.640,191.46
06.656,200.46
06.671,200.36
06.687,190.52
06.703,172.38
06.718,149.18
06.734,124.97
06.750,103.48
06.765,87.07
06.781,76.08
06.796,68.8
06.812,61.98
06.828,51.85
06.843,35.36
06.859,11.16
06.875,-19.82
06.890,-54.75
06.906,-89.76
06.921,-121.13
06.937,-146.18
06.953,-163.67
06.968,-173.48
06.984,-176.2
07.000,-172.76
07.015,-164.42
07.031,-152.78
07.046,-139.74
07.062,-127.18
07.078,-116.41
07.093,-107.81
07.109,-100.95
07.125,-94.89
07.140,-88.8
07.156,-82.42
07.171,-76.08
07.187,-70.47
07.203,-66.28
07.218,-63.77
07.234,-62.9
07.250,-63.39
07.265,-64.91
07.281,-66.97
07.296,-68.78
07.312,-69.21
07.328,-67.17
07.343,-62.2
07.359,-55.01
07.375,-47.4
07.390,-41.55
07.406,-38.79
07.421,-38.85
07.437,-39.84
07.453,-39.17
07.468,-35.0
07.484,-27.17
07.500,-17.39
07.515,-8.28
07.531,-1.96
07.546,1.11
07.562,2.3
07.578,3.87
07.593,7.56
07.609,13.34
07.625,19.33
07.640,22.8
07.656,21.77
07.671,16.3
07.687,8.52
07.703,1.49
07.718,-2.46
07.734,-2.99
07.750,-1.69
07.765,-0.7
07.781,-1.01
07.796,-1.56
07.812,0.09
07.828,5.92
07.843,15.61
07.859,26.04
07.875,32.58
07.890,31.4
07.906,21.54
07.921,5.5
07.937,-12.0
07.953,-26.3
07.968,-34.93
07.984,-38.12
08.000,-37.75
08.015,-35.64
08.031,-32.38
08.046,-27.64
08.062,-21.36
08.078,-15.05
08.093,-11.59
08.109,-13.9
08.125,-23.03
08.140,-37.02
08.156,-51.5
08.171,-61.53
08.187,-63.93
08.203,-58.54
08.218,-47.75
08.234,-34.81
08.250,-21.94
08.265,-9.5
08.281,3.4
08.296,17.37
08.312,31.51
08.328,43.4
08.343,50.13
08.359,49.94
08.375,43.28
08.390,32.71
08.406,21.76
08.421,13.31
08.437,8.56
08.453,7.02
08.468,7.44
08.484,8.99
08.500,11.74
08.515,16.33
08.531,22.88
08.546,30.18
08.562,35.8
08.578,36.99
08.593,32.1
08.609,21.54
08.625,7.69
08.640,-6.14
08.656,-17.18
08.671,-24.2
08.687,-27.66
08.703,-28.86
08.718,-28.77
08.734,-27.49
08.750,-24.45
08.765,-19.45
08.781,-13.57
08.796,-9.34
08.812,-9.95
08.828,-17.74
08.843,-32.83
08.859,-52.69
08.875,-72.78
08.890,-88.28
08.906,-95.72
08.921,-94.23
08.937,-85.46
08.953,-72.66
08.968,-59.02
08.984,-46.38
09.000,-34.69
09.015,-22.57
09.031,-8.56
09.046,7.48
09.062,23.69
09.078,36.7
09.093,43.22
09.109,41.76
09.125,33.57
09.140,22.28
09.156,12.15
09.171,6.15
09.187,4.76
09.203,6.29
09.218,8.52
09.234,10.43
09.250,13.03
09.265,18.43
09.281,28.05
09.296,40.91
09.312,53.52
09.328,61.24
09.343,60.69
09.359,51.59
09.375,36.97
09.390,21.67
09.406,10.01
09.421,3.85
09.437,2.44
09.453,3.69
09.468,5.94
09.484,8.97
09.500,13.47
09.515,19.6
09.531,25.75
09.546,28.72
09.562,25.22
09.578,13.76
09.593,-4.28
09.609,-25.04
09.625,-44.0
09.640,-57.83
09.656,-65.39
09.671,-67.26
09.687,-64.55
09.703,-57.79
09.718,-46.73
09.734,-31.14
09.750,-11.82
09.765,8.94
09.781,27.78
09.796,41.45
09.812,48.03
09.828,47.62
09.843,42.1
09.859,34.28
09.875,26.67
09.890,20.69
09.906,16.52
09.921,13.5
09.937,10.84
09.953,8.17
09.968,5.63
09.984,3.54
10.000,2.03
10.015,0.76
10.031,-0.89
10.046,-3.37
10.062,-6.61
10.078,-9.98
10.093,-12.62
10.109,-14.04
10.125,-14.43
10.140,-14.58
10.156,-15.58
10.171,-18.26
10.187,-22.94
10.203,-29.45
10.218,-37.29
10.234,-45.97
10.250,-55.05
10.265,-64.17
10.281,-72.89
10.296,-80.75
10.312,-87.27
10.328,-92.17
10.343,-95.51
10.359,-97.72
10.375,-99.49
10.390,-101.49
10.406,-104.1
10.421,-107.15
10.437,-109.94
10.453,-111.26
10.468,-109.87
10.484,-104.82
10.500,-95.77
10.515,-83.1
10.531,-67.71
10.546,-50.74
10.562,-33.38
10.578,-16.87
10.593,-2.36
10.609,9.07
10.625,16.66
10.640,20.19
10.656,20.06
10.671,17.29
10.687,13.18
10.703,9.0
10.718,5.77
10.734,4.18
10.750,4.49
10.765,6.51
10.781,9.54
10.796,12.3
10.812,13.22
10.828,10.82
10.843,4.27
10.859,-6.29
10.875,-19.78
10.890,-34.6
10.906,-49.22
10.921,-62.61
10.937,-74.33
10.953,-84.28
10.968,-92.44
10.984,-98.67
11.000,-102.76
11.015,-104.75
11.031,-105.04
11.046,-104.32
11.062,-103.28
11.078,-102.32
11.093,-101.47
11.109,-100.45
11.125,-98.91
11.140,-96.51
11.156,-92.9
11.171,-87.5
11.187,-79.4
11.203,-67.52
11.218,-51.07
11.234,-29.96
11.250,-5.27
11.265,20.97
11.281,46.24
11.296,68.31
11.312,85.9
11.328,99.0
11.343,108.65
11.359,116.44
11.375,123.8
11.390,131.56
11.406,139.83
11.421,148.15
11.437,155.93
11.453,162.73
11.468,168.38
11.484,173.07
11.500,177.04
11.515,180.66
11.531,184.42
11.546,188.93
11.562,194.72
11.578,201.63
11.593,208.24
11.609,211.73
11.625,208.51
11.640,195.54
11.656,171.71
11.671,138.57
11.687,99.93
11.703,60.5
11.718,24.45
11.734,-5.56
11.750,-28.39
11.765,-43.91
11.781,-52.57
11.796,-55.29
11.812,-53.8
11.828,-50.72
11.843,-49.15
11.859,-51.63
11.875,-59.11
11.890,-70.57
11.906,-83.27
11.921,-93.9
11.937,-99.52
11.953,-98.47
11.968,-90.55
11.984,-76.76
12.000,-58.92
12.015,-39.14
12.031,-19.38
12.046,-1.03
12.062,15.33
12.078,30.04
12.093,44.01
12.109,58.02
12.125,71.82
12.140,83.46
12.156,89.42
12.171,85.61
12.187,69.03
12.203,39.44
12.218,-0.06
12.234,-43.76
12.250,-85.07
12.265,-118.71
12.281,-141.85
12.296,-154.36
12.312,-157.73
12.328,-153.99
12.343,-144.8
12.359,-131.42
12.375,-115.13
12.390,-97.52
12.406,-80.46
12.421,-65.61
12.437,-53.82
12.453,-44.9
12.468,-37.89
12.484,-31.56
12.500,-25.13
12.515,-18.59
12.531,-12.59
12.546,-7.94
12.562,-5.2
12.578,-4.31
12.593,-4.66
12.609,-5.54
12.625,-6.51
12.640,-7.69
12.656,-9.51
12.671,-12.3
12.687,-15.83
12.703,-19.15
12.718,-20.96
12.734,-20.1
12.750,-16.08
12.765,-9.27
12.781,-0.78
12.796,8.09
12.812,16.28
12.828,23.25
12.843,28.89
12.859,33.36
12.875,36.81
12.890,39.31
12.906,40.88
12.921,41.71
12.937,42.2
12.953,42.95
12.968,44.42
12.984,46.74
13.000,49.52
13.015,51.96
13.031,53.22
13.046,52.75
13.062,50.6
13.078,47.35
13.093,43.84
13.109,40.76
13.125,38.33
13.140,36.28
13.156,33.99
13.171,30.94
13.187,26.93
13.203,22.31
13.218,17.68
13.234,13.68
13.250,10.63
13.265,8.32
13.281,6.19
13.296,3.56
13.312,-0.09
13.328,-4.86
13.343,-10.45
13.359,-16.28
13.375,-21.67
13.390,-25.99
13.406,-28.75
13.421,-29.68
13.437,-28.66
13.453,-25.78
13.468,-21.3
13.484,-15.61
13.500,-9.26
13.515,-2.83
13.531,3.17
13.546,8.33
13.562,12.44
13.578,15.45
13.593,17.46
13.609,18.64
13.625,19.18
13.640,19.24
13.656,18.96
13.671,18.51
13.687,18.12
13.703,18.07
13.718,18.53
13.734,19.57
13.750,20.99
13.765,22.45
13.781,23.46
13.796,23.62
13.812,22.67
13.828,20.54
13.843,17.41
13.859,13.53
13.875,9.17
13.890,4.54
13.906,-0.28
13.921,-5.33
13.937,-10.8
13.953,-16.9
13.968,-23.8
13.984,-31.45
14.000,-39.51
14.015,-47.32
14.031,-53.9
14.046,-58.14
14.062,-58.95
14.078,-55.53
14.093,-47.65
14.109,-35.77
14.125,-21.12
14.140,-5.41
14.156,9.53
14.171,22.23
14.187,31.96
14.203,38.82
14.218,43.51
14.234,46.9
14.250,49.71
14.265,52.23
14.281,54.48
14.296,56.38
14.312,57.93
14.328,59.33
14.343,60.84
14.359,62.55
14.375,64.26
14.390,65.47
14.406,65.52
14.421,63.83
14.437,60.15
14.453,54.6
14.468,47.65
14.484,39.88
14.500,31.85
14.515,23.91
14.531,16.25
14.546,8.9
14.562,1.89
14.578,-4.81
14.593,-11.28
14.609,-17.68
14.625,-24.32
14.640,-31.45
14.656,-39.09
14.671,-46.73
14.687,-53.42
14.703,-57.91
14.718,-59.08
14.734,-56.35
14.750,-49.93
14.765,-40.78
14.781,-30.25
14.796,-19.73
14.812,-10.2
14.828,-2.19
14.843,4.27
14.859,9.34
14.875,13.3
14.890,16.35
14.906,18.72
14.921,20.66
14.937,22.47
14.953,24.46
14.968,26.77
14.984,29.36
15.000,31.99
15.015,34.29
15.031,36.0
15.046,36.96
15.062,37.23
15.078,36.89
15.093,36.04
15.109,34.7
15.125,32.78
15.140,30.21
15.156,26.89
15.171,22.82
15.187,18.08
15.203,12.85
15.218,7.32
15.234,1.6
15.250,-4.27
15.265,-10.4
15.281,-16.89
15.296,-23.75
15.312,-30.56
15.328,-36.54
15.343,-40.57
15.359,-41.52
15.375,-38.6
15.390,-31.72
15.406,-21.43
15.421,-8.78
15.437,5.03
15.453,18.98
15.468,32.41
15.484,45.06
15.500,56.86
15.515,67.8
15.531,77.86
15.546,87.03
15.562,95.45
15.578,103.39
15.593,111.18
15.609,119.09
15.625,127.12
15.640,134.97
15.656,142.17
15.671,148.28
15.687,153.13
15.703,156.92
15.718,160.11
15.734,163.27
15.750,166.8
15.765,170.76
15.781,174.71
15.796,177.78
15.812,178.92
15.828,177.27
15.843,172.52
15.859,165.06
15.875,155.76
15.890,145.36
15.906,133.91
15.921,120.54
15.937,103.61
15.953,81.5
15.968,53.21
15.984,18.69
16.000,-21.42
16.015,-66.14
16.031,-114.22
16.046,-163.82
16.062,-212.02
16.078,-254.76
16.093,-287.58
16.109,-306.98
16.125,-311.65
16.140,-302.92
16.156,-284.12
16.171,-259.23
16.187,-231.52
16.203,-202.92
16.218,-174.24
16.234,-145.88
16.250,-118.4
16.265,-92.63
16.281,-69.41
16.296,-49.17
16.312,-31.81
16.328,-16.83
16.343,-3.65
16.359,8.15
16.375,18.87
16.390,28.67
16.406,37.73
16.421,46.17
16.437,53.97
16.453,60.78
16.468,65.98
16.484,68.81
16.500,68.75
16.515,65.81
16.531,60.58
16.546,54.08
16.562,47.43
16.578,41.59
16.593,37.23
16.609,34.85
16.625,34.69
16.640,36.62
16.656,39.91
16.671,43.3
16.687,45.27
16.703,44.61
16.718,40.94
16.734,34.83
16.750,27.54
16.765,20.4
16.781,14.44
16.796,10.24
16.812,8.1
16.828,8.04
16.843,9.74
16.859,12.28
16.875,14.15
16.890,13.72
16.906,9.9
16.921,2.74
16.937,-6.53
16.953,-15.97
16.968,-23.76
16.984,-28.69
17.000,-30.2
17.015,-28.17
17.031,-22.68
17.046,-14.19
17.062,-3.99
17.078,5.71
17.093,12.04
17.109,12.49
17.125,5.94
17.140,-6.87
17.156,-23.69
17.171,-41.58
17.187,-58.0
17.203,-71.23
17.218,-80.35
17.234,-84.75
17.250,-83.88
17.265,-77.53
17.281,-66.48
17.296,-52.98
17.312,-40.54
17.328,-32.91
17.343,-32.72
17.359,-40.42
17.375,-54.08
17.390,-70.14
17.406,-84.68
17.421,-94.52
17.437,-97.84
17.453,-94.0
17.468,-83.25
17.484,-66.42
17.500,-45.04
17.515,-21.52
17.531,0.97
17.546,19.2
17.562,30.77
17.578,34.84
17.593,32.36
17.609,25.5
17.625,16.83
17.640,8.59
17.656,2.34
17.671,-0.95
17.687,-0.75
17.703,3.05
17.718,9.98
17.734,18.84
17.750,27.82
17.765,35.01
17.781,38.97
17.796,39.22
17.812,36.4
17.828,31.87
17.843,27.23
17.859,23.82
17.875,22.41
17.890,23.1
17.906,25.54
17.921,29.07
17.937,33.08
17.953,37.12
17.968,40.9
17.984,44.22
18.000,46.7
18.015,47.79
18.031,46.96
18.046,44.15
18.062,40.14
18.078,36.59
18.093,35.49
18.109,38.27
18.125,45.06
18.140,54.47
18.156,64.16
18.171,71.88
18.187,76.4
18.203,77.99
18.218,78.04
18.234,78.42
18.250,80.73
18.265,85.74
18.281,93.08
18.296,100.97
18.312,106.34
18.328,105.29
18.343,94.13
18.359,70.83
18.375,36.13
18.390,-6.29
18.406,-50.85
18.421,-91.79
18.437,-124.77
18.453,-147.68
18.468,-160.4
18.484,-164.15
18.500,-160.98
18.515,-153.42
18.531,-144.52
18.546,-137.37
18.562,-134.43
18.578,-136.59
18.593,-142.77
18.609,-150.38
18.625,-156.27
18.640,-157.98
18.656,-154.5
18.671,-146.26
18.687,-134.54
18.703,-120.82
18.718,-106.17
18.734,-91.16
18.750,-75.94
18.765,-60.45
18.781,-44.71
18.796,-28.89
18.812,-13.21
18.828,2.3
18.843,17.95
18.859,34.18
18.875,50.88
18.890,66.79
18.906,79.32
18.921,85.26
18.937,82.17
18.953,69.66
18.968,49.95
18.984,27.18
19.000,5.9
19.015,-10.4
19.031,-20.24
19.046,-23.99
19.062,-23.32
19.078,-20.4
19.093,-17.5
19.109,-16.75
19.125,-19.88
19.140,-27.71
19.156,-39.74
19.171,-54.11
19.187,-68.03
19.203,-78.79
19.218,-84.55
19.234,-84.78
19.250,-80.09
19.265,-71.89
19.281,-61.8
19.296,-51.38
19.312,-41.95
19.328,-34.42
19.343,-29.05
19.359,-25.31
19.375,-22.02
19.390,-17.76
19.406,-11.51
19.421,-3.06
19.437,6.73
19.453,16.38
19.468,24.29
19.484,29.4
19.500,31.45
19.515,30.88
19.531,28.5
19.546,25.13
19.562,21.4
19.578,17.72
19.593,14.36
19.609,11.56
19.625,9.51
19.640,8.35
19.656,8.15
19.671,8.89
19.687,10.57
19.703,13.09
19.718,16.22
19.734,19.54
19.750,22.41
19.765,24.08
19.781,23.87
19.796,21.42
19.812,16.8
19.828,10.49
19.843,3.26
19.859,-4.07
19.875,-10.76
19.890,-16.32
19.906,-20.59
19.921,-23.74
19.937,-26.19
19.953,-28.55
19.968,-31.39
19.984,-35.09
20.000,-39.63
20.015,-44.51
20.031,-48.89
20.046,-51.71
20.062,-52.03
20.078,-49.29
20.093,-43.43
20.109,-35.01
20.125,-25.05
20.140,-14.82
20.156,-5.51
20.171,2.01
20.187,7.36
20.203,10.64
20.218,12.23
20.234,12.57
20.250,11.98
20.265,10.66
20.281,8.74
20.296,6.45
20.312,4.15
20.328,2.32
20.343,1.41
20.359,1.63
20.375,2.88
20.390,4.71
20.406,6.54
20.421,7.77
20.437,8.06
20.453,7.3
20.468,5.68
20.484,3.49
20.500,0.99
20.515,-1.73
20.531,-4.73
20.546,-8.2
20.562,-12.31
20.578,-17.07
20.593,-22.34
20.609,-27.93
20.625,-33.56
20.640,-38.95
20.656,-43.64
20.671,-46.95
20.687,-48.08
20.703,-46.32
20.718,-41.32
20.734,-33.4
20.750,-23.5
20.765,-12.96
20.781,-3.1
20.796,5.13
20.812,11.34
20.828,15.66
20.843,18.44
20.859,20.06
20.875,20.78
20.890,20.63
20.906,19.63
20.921,17.9
20.937,15.79
20.953,13.86
20.968,12.66
20.984,12.51
21.000,13.3
21.015,14.56
21.031,15.59
21.046,15.77
21.062,14.81
21.078,12.78
21.093,10.06
21.109,7.06
21.125,4.15
21.140,1.58
21.156,-0.47
21.171,-1.82
21.187,-2.37
21.203,-2.16
21.218,-1.46
21.234,-0.73
21.250,-0.51
21.265,-1.16
21.281,-2.67
21.296,-4.56
21.312,-6.01
21.328,-6.07
21.343,-4.09
21.359,0.04
21.375,5.81
21.390,12.24
21.406,18.26
21.421,22.95
21.437,25.94
21.453,27.35
21.468,27.74
21.484,27.81
21.500,28.21
21.515,29.37
21.531,31.42
21.546,34.29
21.562,37.76
21.578,41.66
21.593,45.95
21.609,50.72
21.625,56.16
21.640,62.24
21.656,68.65
21.671,74.63
21.687,79.23
21.703,81.58
21.718,81.16
21.734,78.01
21.750,72.64
21.765,65.82
21.781,58.3
21.796,50.72
21.812,43.42
21.828,36.53
21.843,29.88
21.859,23.12
21.875,15.79
21.890,7.65
21.906,-1.09
21.921,-9.62
21.937,-16.68
21.953,-20.97
21.968,-21.63
21.984,-18.62
22.000,-12.65
22.015,-4.92
22.031,3.46
22.046,11.77
22.062,19.73
22.078,27.32
22.093,34.5
22.109,41.06
22.125,46.67
22.140,51.01
22.156,54.01
22.171,55.77
22.187,56.49
22.203,56.34
22.218,55.34
22.234,53.46
22.250,50.78
22.265,47.61
22.281,44.43
22.296,41.7
22.312,39.56
22.328,37.77
22.343,35.82
22.359,33.21
22.375,29.58
22.390,24.65
22.406,17.92
22.421,8.47
22.437,-4.95
22.453,-23.39
22.468,-46.91
22.484,-74.2
22.500,-102.6
22.515,-128.8
22.531,-149.78
22.546,-163.49
22.562,-169.08
22.578,-166.73
22.593,-157.29
22.609,-142.0
22.625,-122.41
22.640,-100.37
22.656,-77.93
22.671,-56.93
22.687,-38.74
22.703,-23.93
22.718,-12.33
22.734,-3.29
22.750,3.97
22.765,10.08
22.781,15.35
22.796,19.87
22.812,23.57
22.828,26.41
22.843,28.46
22.859,29.93
22.875,31.09
22.890,32.1
22.906,33.03
22.921,33.71
22.937,33.86
22.953,33.2
22.968,31.5
22.984,28.74
23.000,25.01
23.015,20.53
23.031,15.59
23.046,10.47
23.062,5.44
23.078,0.72
23.093,-3.59
23.109,-7.63
23.125,-11.74
23.140,-16.4
23.156,-21.99
23.171,-28.53
23.187,-35.56
23.203,-42.17
23.218,-47.28
23.234,-50.01
23.250,-50.02
23.265,-47.63
23.281,-43.62
23.296,-38.99
23.312,-34.54
23.328,-30.74
23.343,-27.66
23.359,-25.14
23.375,-22.96
23.390,-21.08
23.406,-19.58
23.421,-18.66
23.437,-18.41
23.453,-18.7
23.468,-19.22
23.484,-19.54
23.500,-19.35
23.515,-18.58
23.531,-17.35
23.546,-15.93
23.562,-14.48
23.578,-13.04
23.593,-11.56
23.609,-10.05
23.625,-8.61
23.640,-7.49
23.656,-6.98
23.671,-7.17
23.687,-7.96
23.703,-9.05
23.718,-10.1
23.734,-10.9
23.750,-11.5
23.765,-12.23
23.781,-13.55
23.796,-15.85
23.812,-19.22
23.828,-23.29
23.843,-27.22
23.859,-29.97
23.875,-30.49
23.890,-28.12
23.906,-22.75
23.921,-14.83
23.937,-5.2
23.953,5.15
23.968,15.27
23.984,24.42
24.000,32.07
24.015,37.88
24.031,41.81
24.046,44.04
24.062,45.07
24.078,45.54
24.093,46.07
24.109,47.0
24.125,48.31
24.140,49.63
24.156,50.47
24.171,50.46
24.187,49.54
24.203,47.93
24.218,46.0
24.234,44.15
24.250,42.57
24.265,41.23
24.281,39.91
24.296,38.33
24.312,36.21
24.328,33.4
24.343,29.92
24.359,25.91
24.375,21.6
24.390,17.18
24.406,12.78
24.421,8.41
24.437,4.08
24.453,-0.28
24.468,-4.7
24.484,-9.26
24.500,-14.07
24.515,-19.07
24.531,-23.96
24.546,-28.08
24.562,-30.5
24.578,-30.33
24.593,-27.07
24.609,-20.87
24.625,-12.5
24.640,-3.15
24.656,6.02
24.671,14.14
24.687,20.83
24.703,26.08
24.718,30.03
24.734,32.84
24.750,34.57
24.765,35.28
24.781,35.13
24.796,34.41
24.812,33.47
24.828,32.72
24.843,32.37
24.859,32.5
24.875,32.91
24.890,33.28
24.906,33.29
24.921,32.71
24.937,31.58
24.953,30.08
24.968,28.48
24.984,26.94
25.000,25.38
25.015,23.48
25.031,20.89
25.046,17.4
25.062,13.15
25.078,8.59
25.093,4.28
25.109,0.65
25.125,-2.22
25.140,-4.67
25.156,-7.26
25.171,-10.55
25.187,-14.82
25.203,-19.94
25.218,-25.36
25.234,-30.29
25.250,-33.91
25.265,-35.55
25.281,-34.85
25.296,-31.78
25.312,-26.6
25.328,-19.76
25.343,-11.88
25.359,-3.62
25.375,4.35
25.390,11.48
25.406,17.43
25.421,22.08
25.437,25.51
25.453,27.93
25.468,29.47
25.484,30.26
25.500,30.31
25.515,29.67
25.531,28.41
25.546,26.79
25.562,25.11
25.578,23.65
25.593,22.63
25.609,22.08
25.625,21.87
25.640,21.84
25.656,21.78
25.671,21.52
25.687,20.96
25.703,19.99
25.718,18.49
25.734,16.37
25.750,13.57
25.765,10.23
25.781,6.6
25.796,3.07
25.812,-0.05
25.828,-2.68
25.843,-5.02
25.859,-7.5
25.875,-10.62
25.890,-14.71
25.906,-19.72
25.921,-25.16
25.937,-30.21
25.953,-33.87
25.968,-35.33
25.984,-34.1
26.000,-30.25
26.015,-24.33
26.031,-17.19
26.046,-9.7
26.062,-2.56
26.078,3.86
26.093,9.45
26.109,14.28
26.125,18.37
26.140,21.65
26.156,23.98
26.171,25.27
26.187,25.59
26.203,25.22
26.218,24.48
26.234,23.69
26.250,22.98
26.265,22.32
26.281,21.58
26.296,20.66
26.312,19.63
26.328,18.66
26.343,17.91
26.359,17.47
26.375,17.22
26.390,16.88
26.406,16.12
26.421,14.69
26.437,12.52
26.453,9.79
26.468,6.82
26.484,3.94
26.500,1.34
26.515,-0.99
26.531,-3.2
26.546,-5.55
26.562,-8.23
26.578,-11.37
26.593,-15.0
26.609,-19.07
26.625,-23.44
26.640,-27.83
26.656,-31.77
26.671,-34.62
26.687,-35.75
26.703,-34.62
26.718,-31.06
26.734,-25.33
26.750,-18.04
26.765,-10.02
26.781,-2.14
26.796,4.91
26.812,10.74
26.828,15.27
26.843,18.63
26.859,21.0
26.875,22.48
26.890,23.1
26.906,22.88
26.921,21.95
26.937,20.65
26.953,19.41
26.968,18.59
26.984,18.32
27.000,18.42
27.015,18.48
27.031,18.19
27.046,17.43
27.062,16.41
27.078,15.55
27.093,15.15
27.109,15.23
27.125,15.43
27.140,15.17
27.156,13.98
27.171,11.68
27.187,8.54
27.203,5.1
27.218,1.9
27.234,-0.75
27.250,-2.9
27.265,-4.81
27.281,-6.85
27.296,-9.22
27.312,-11.95
27.328,-14.85
27.343,-17.62
27.359,-19.9
27.375,-21.26
27.390,-21.23
27.406,-19.36
27.421,-15.32
27.437,-9.05
27.453,-0.88
27.468,8.47
27.484,18.11
27.500,27.08
27.515,34.71
27.531,40.73
27.546,45.32
27.562,48.98
27.578,52.25
27.593,55.49
27.609,58.77
27.625,61.85
27.640,64.3
27.656,65.63
27.671,65.46
27.687,63.67
27.703,60.45
27.718,56.37
27.734,52.25
27.750,48.91
27.765,46.86
27.781,46.03
27.796,45.67
27.812,44.56
27.828,41.45
27.843,35.46
27.859,26.4
27.875,14.74
27.890,1.43
27.906,-12.41
27.921,-25.78
27.937,-37.88
27.953,-48.22
27.968,-56.46
27.984,-62.42
28.000,-66.03
28.015,-67.45
28.031,-66.99
28.046,-65.1
28.062,-62.2
28.078,-58.48
28.093,-53.95
28.109,-48.48
28.125,-42.15
28.140,-35.33
28.156,-28.73
28.171,-23.18
28.187,-19.23
28.203,-17.03
28.218,-16.22
28.234,-16.25
28.250,-16.6
28.265,-16.94
28.281,-17.09
28.296,-16.86
28.312,-16.0
28.328,-14.18
28.343,-11.24
28.359,-7.26
28.375,-2.61
28.390,2.19
28.406,6.72
28.421,10.76
28.437,14.29
28.453,17.38
28.468,19.96
28.484,21.87
28.500,22.82
28.515,22.64
28.531,21.35
28.546,19.18
28.562,16.49
28.578,13.63
28.593,10.84
28.609,8.24
28.625,5.8
28.640,3.35
28.656,0.57
28.671,-2.96
28.687,-7.63
28.703,-13.63
28.718,-20.73
28.734,-28.28
28.750,-35.36
28.765,-41.04
28.781,-44.69
28.796,-46.13
28.812,-45.63
28.828,-43.71
28.843,-40.95
28.859,-37.84
28.875,-34.72
28.890,-31.76
28.906,-28.98
28.921,-26.31
28.937,-23.62
28.953,-20.78
28.968,-17.77
28.984,-14.66
29.000,-11.72
29.015,-9.22
29.031,-7.46
29.046,-6.62
29.062,-6.7
29.078,-7.49
29.093,-8.59
29.109,-9.53
29.125,-9.89
29.140,-9.49
29.156,-8.43
29.171,-7.21
29.187,-6.48
29.203,-6.95
29.218,-9.1
29.234,-13.07
29.250,-18.62
29.265,-25.29
29.281,-32.54
29.296,-39.98
29.312,-47.43
29.328,-54.81
29.343,-62.1
29.359,-69.11
29.375,-75.47
29.390,-80.6
29.406,-83.72
29.421,-84.03
29.437,-80.94
29.453,-74.27
29.468,-64.4
29.484,-52.33
29.500,-39.38
29.515,-26.92
29.531,-15.92
29.546,-6.77
29.562,0.69
29.578,6.91
29.593,12.3
29.609,17.04
29.625,21.04
29.640,24.18
29.656,26.47
29.671,28.14
29.687,29.62
29.703,31.31
29.718,33.44
29.734,35.99
29.750,38.69
29.765,41.18
29.781,43.19
29.796,44.65
29.812,45.7
29.828,46.58
29.843,47.44
29.859,48.26
29.875,48.85
29.890,49.02
29.906,48.69
29.921,48.06
29.937,47.5
29.953,47.37
29.968,47.8
29.984,48.55
30.000,49.11
30.015,48.9
30.031,47.69
30.046,45.78
30.062,44.08
30.078,43.9
30.093,46.54
30.109,52.99
30.125,63.54
30.140,77.71
30.156,94.25
30.171,111.3
30.187,126.7
30.203,138.34
30.218,144.63
30.234,144.86
30.250,139.31
30.265,129.19
30.281,116.23
30.296,102.18
30.312,88.42
30.328,75.71
30.343,64.31
30.359,54.09
30.375,44.86
30.390,36.54
30.406,29.19
30.421,23.02
30.437,18.22
30.453,14.83
30.468,12.59
30.484,10.98
30.500,9.27
30.515,6.8
30.531,3.25
30.546,-1.29
30.562,-6.39
30.578,-11.48
30.593,-16.2
30.609,-20.54
30.625,-24.88
30.640,-29.74
30.656,-35.48
30.671,-41.95
30.687,-48.32
30.703,-53.24
30.718,-55.15
30.734,-52.94
30.750,-46.3
30.765,-35.92
30.781,-23.23
30.796,-9.94
30.812,2.57
30.828,13.62
30.843,23.43
30.859,33.06
30.875,44.14
30.890,58.35
30.906,76.55
30.921,97.99
30.937,119.83
30.953,137.6
30.968,146.62
30.984,143.7
31.000,128.57
31.015,104.0
31.031,74.94
31.046,46.7
31.062,23.31
31.078,6.49
31.093,-4.47
31.109,-12.01
31.125,-19.29
31.140,-29.1
31.156,-43.05
31.171,-61.13
31.187,-81.71
31.203,-102.15
31.218,-119.63
31.234,-132.25
31.250,-139.6
31.265,-142.81
31.281,-143.95
31.296,-145.18
31.312,-148.01
31.328,-152.84
31.343,-159.06
31.359,-165.4
31.375,-170.46
31.390,-173.18
31.406,-172.98
31.421,-169.8
31.437,-163.8
31.453,-155.29
31.468,-144.58
31.484,-132.09
31.500,-118.3
31.515,-103.71
31.531,-88.82
31.546,-74.01
31.562,-59.66
31.578,-46.24
31.593,-34.34
31.609,-24.7
31.625,-17.94
31.640,-14.43
31.656,-14.06
31.671,-16.2
31.687,-19.63
31.703,-22.85
31.718,-24.35
31.734,-23.1
31.750,-18.97
31.765,-12.88
31.781,-6.44
31.796,-1.51
31.812,0.57
31.828,-0.56
31.843,-4.22
31.859,-8.89
31.875,-12.76
31.890,-14.3
31.906,-12.67
31.921,-8.17
31.937,-2.42
31.953,1.86
31.968,1.57
31.984,-5.71
32.000,-20.62
32.015,-41.52
32.031,-64.81
32.046,-86.15
32.062,-101.93
32.078,-110.36
32.093,-111.75
32.109,-107.81
32.125,-100.63
32.140,-91.76
32.156,-81.85
32.171,-70.91
32.187,-58.88
32.203,-46.06
32.218,-33.23
32.234,-21.39
32.250,-11.3
32.265,-3.26
32.281,3.01
32.296,8.09
32.312,12.59
32.328,16.8
32.343,20.71
32.359,24.08
32.375,26.69
32.390,28.53
32.406,29.84
32.421,30.94
32.437,32.14
32.453,33.48
32.468,34.72
32.484,35.42
32.500,35.11
32.515,33.44
32.531,30.38
32.546,26.26
32.562,21.62
32.578,17.0
32.593,12.71
32.609,8.63
32.625,4.3
32.640,-0.83
32.656,-7.04
32.671,-14.02
32.687,-20.88
32.703,-26.37
32.718,-29.3
32.734,-28.96
32.750,-25.32
32.765,-18.99
32.781,-10.95
32.796,-2.26
32.812,6.2
32.828,13.89
32.843,20.52
32.859,25.96
32.875,30.07
32.890,32.72
32.906,33.82
32.921,33.42
32.937,31.76
32.953,29.2
32.968,26.18
32.984,22.93
33.000,19.51
33.015,15.78
33.031,11.59
33.046,7.0
33.062,2.3
33.078,-2.01
33.093,-5.48
33.109,-7.95
33.125,-9.66
33.140,-11.12
33.156,-12.87
33.171,-15.16
33.187,-17.81
33.203,-20.3
33.218,-22.1
33.234,-22.96
33.250,-23.09
33.265,-23.14
33.281,-23.88
33.296,-25.93
33.312,-29.56
33.328,-34.61
33.343,-40.58
33.359,-46.71
33.375,-52.04
33.390,-55.49
33.406,-56.09
33.421,-53.15
33.437,-46.54
33.453,-36.77
33.468,-24.83
33.484,-11.96
33.500,0.74
33.515,12.52
33.531,22.98
33.546,31.98
33.562,39.48
33.578,45.46
33.593,49.94
33.609,53.12
33.625,55.35
33.640,57.14
33.656,58.93
33.671,61.03
33.687,63.54
33.703,66.35
33.718,69.28
33.734,72.12
33.750,74.72
33.765,76.98
33.781,78.86
33.796,80.28
33.812,81.18
33.828,81.5
33.843,81.25
33.859,80.5
33.875,79.44
33.890,78.33
33.906,77.42
33.921,76.87
33.937,76.74
33.953,76.83
33.968,76.77
33.984,76.0
34.000,74.01
34.015,70.53
34.031,65.72
34.046,60.47
34.062,56.13
34.078,54.32
34.093,56.39
34.109,62.98
34.125,73.74
34.140,87.49
34.156,102.59
34.171,117.39
34.187,130.6
34.203,141.34
34.218,149.12
34.234,153.67
34.250,154.89
34.265,152.87
34.281,147.9
34.296,140.54
34.312,131.47
34.328,121.32
34.343,110.46
34.359,98.92
34.375,86.42
34.390,72.57
34.406,57.15
34.421,40.31
34.437,22.69
34.453,5.19
34.468,-11.2
34.484,-25.86
34.500,-38.63
34.515,-49.79
34.531,-59.75
34.546,-68.82
34.562,-77.11
34.578,-84.5
34.593,-90.94
34.609,-96.51
34.625,-101.54
34.640,-106.47
34.656,-111.68
34.671,-117.39
34.687,-123.64
34.703,-130.47
34.718,-137.84
34.734,-145.69
34.750,-153.63
34.765,-160.84
34.781,-166.08
34.796,-167.95
34.812,-165.27
34.828,-157.62
34.843,-145.51
34.859,-130.24
34.875,-113.53
34.890,-96.94
34.906,-81.46
34.921,-67.41
34.937,-54.59
34.953,-42.58
34.968,-31.14
34.984,-20.24
35.000,-10.1
35.015,-0.99
35.031,6.89
35.046,13.51
35.062,18.92
35.078,23.15
35.093,26.24
35.109,28.12
35.125,28.73
35.140,28.08
35.156,26.31
35.171,23.68
35.187,20.49
35.203,16.95
35.218,13.16
35.234,9.01
35.250,4.31
35.265,-1.1
35.281,-7.17
35.296,-13.58
35.312,-19.78
35.328,-25.2
35.343,-29.5
35.359,-32.63
35.375,-34.91
35.390,-36.85
35.406,-38.96
35.421,-41.58
35.437,-44.8
35.453,-48.36
35.468,-51.72
35.484,-54.18
35.500,-54.92
35.515,-53.29
35.531,-48.93
35.546,-41.89
35.562,-32.58
35.578,-21.75
35.593,-10.22
35.609,1.25
35.625,12.07
35.640,21.77
35.656,30.03
35.671,36.67
35.687,41.65
35.703,45.08
35.718,47.26
35.734,48.56
35.750,49.35
35.765,49.91
35.781,50.37
35.796,50.83
35.812,51.31
35.828,51.91
35.843,52.75
35.859,53.9
35.875,55.3
35.890,56.71
35.906,57.7
35.921,57.81
35.937,56.71
35.953,54.3
35.968,50.83
35.984,46.88
36.000,43.15
36.015,40.22
36.031,38.3
36.046,37.07
36.062,35.79
36.078,33.58
36.093,29.85
36.109,24.59
36.125,18.46
36.140,12.47
36.156,7.65
36.171,4.64
36.187,3.64
36.203,4.58
36.218,7.36
36.234,11.87
36.250,17.74
36.265,24.18
36.281,30.03
36.296,34.42
36.312,37.36
36.328,40.03
36.343,44.06
36.359,50.2
36.375,57.23
36.390,61.86
36.406,60.17
36.421,49.83
36.437,31.64
36.453,9.61
36.468,-10.94
36.484,-25.83
36.500,-33.76
36.515,-36.35
36.531,-36.46
36.546,-35.98
36.562,-34.52
36.578,-29.87
36.593,-19.89
36.609,-4.77
36.625,12.1
36.640,25.04
36.656,28.76
36.671,21.09
36.687,4.25
36.703,-16.09
36.718,-33.6
36.734,-44.21
36.750,-47.71
36.765,-46.97
36.781,-45.49
36.796,-44.95
36.812,-44.39
36.828,-41.52
36.843,-35.17
36.859,-27.0
36.875,-21.04
36.890,-21.52
36.906,-30.2
36.921,-45.1
36.937,-61.26
36.953,-73.06
36.968,-76.66
36.984,-71.13
37.000,-57.83
37.015,-38.96
37.031,-16.45
37.046,8.03
37.062,32.3
37.078,53.04
37.093,66.35
37.109,69.19
37.125,60.99
37.140,44.22
37.156,23.49
37.171,3.75
37.187,-11.41
37.203,-20.4
37.218,-23.05
37.234,-19.48
37.250,-9.63
37.265,6.29
37.281,26.67
37.296,47.77
37.312,64.3
37.328,71.24
37.343,66.01
37.359,49.65
37.375,26.43
37.390,2.05
37.406,-18.6
37.421,-32.81
37.437,-39.99
37.453,-40.51
37.468,-34.6
37.484,-22.24
37.500,-4.27
37.515,16.21
37.531,33.58
37.546,41.13
37.562,33.88
37.578,11.17
37.593,-22.57
37.609,-59.23
37.625,-90.21
37.640,-109.36
37.656,-114.46
37.671,-106.62
37.687,-88.68
37.703,-63.8
37.718,-35.24
37.734,-6.91
37.750,16.43
37.765,29.9
37.781,30.35
37.796,17.96
37.812,-3.47
37.828,-27.92
37.843,-49.65
37.859,-65.2
37.875,-74.2
37.890,-78.47
37.906,-80.5
37.921,-82.08
37.937,-83.86
37.953,-85.78
37.968,-87.6
37.984,-89.27
38.000,-90.7
38.015,-91.56
38.031,-91.11
38.046,-88.49
38.062,-83.07
38.078,-74.8
38.093,-64.31
38.109,-52.65
38.125,-40.96
38.140,-30.13
38.156,-20.59
38.171,-12.28
38.187,-4.92
38.203,1.69
38.218,7.45
38.234,11.86
38.250,14.36
38.265,14.8
38.281,13.84
38.296,13.07
38.312,14.63
38.328,20.52
38.343,31.98
38.359,48.87
38.375,69.47
38.390,90.54
38.406,107.84
38.421,116.99
38.437,114.65
38.453,99.68
38.468,73.61
38.484,40.44
38.500,5.38
38.515,-26.66
38.531,-52.32
38.546,-70.18
38.562,-80.32
38.578,-83.51
38.593,-80.61
38.609,-72.5
38.625,-60.3
38.640,-45.66
38.656,-30.63
38.671,-17.06
38.687,-6.05
38.703,2.42
38.718,9.19
38.734,15.38
38.750,21.7
38.765,28.16
38.781,34.11
38.796,38.69
38.812,41.32
38.828,41.95
38.843,41.06
38.859,39.41
38.875,37.69
38.890,36.38
38.906,35.7
38.921,35.68
38.937,36.13
38.953,36.64
38.968,36.56
38.984,35.17
39.000,32.12
39.015,27.78
39.031,23.36
39.046,20.47
39.062,20.56
39.078,24.2
39.093,30.94
39.109,39.52
39.125,48.33
39.140,55.96
39.156,61.49
39.171,64.47
39.187,64.86
39.203,62.9
39.218,59.11
39.234,54.16
39.250,48.8
39.265,43.62
39.281,39.05
39.296,35.34
39.312,32.7
39.328,31.28
39.343,31.11
39.359,31.89
39.375,32.96
39.390,33.53
39.406,32.89
39.421,30.76
39.437,27.32
39.453,23.06
39.468,18.53
39.484,14.13
39.500,10.09
39.515,6.63
39.531,4.12
39.546,3.1
39.562,4.23
39.578,8.04
39.593,14.66
39.609,23.79
39.625,34.69
39.640,46.44
39.656,58.13
39.671,69.01
39.687,78.51
39.703,86.29
39.718,92.14
39.734,95.96
39.750,97.68
39.765,97.02
39.781,93.35
39.796,85.86
39.812,73.92
39.828,57.67
39.843,38.46
39.859,18.62
39.875,0.76
39.890,-13.12
39.906,-22.22
39.921,-26.97
39.937,-28.4
39.953,-27.37
39.968,-24.29
39.984,-19.28
40.000,-12.81
40.015,-6.05
40.031,-0.76
40.046,1.37
40.062,-0.48
40.078,-5.75
40.093,-12.83
40.109,-19.74
40.125,-25.14
40.140,-28.84
40.156,-31.69
40.171,-35.01
40.187,-39.8
40.203,-46.24
40.218,-53.77
40.234,-61.55
40.250,-68.97
40.265,-75.96
40.281,-82.83
40.296,-90.0
40.312,-97.74
40.328,-106.09
40.343,-114.98
40.359,-124.32
40.375,-133.84
40.390,-143.02
40.406,-150.93
40.421,-156.57
40.437,-159.15
40.453,-158.58
40.468,-155.45
40.484,-150.83
40.500,-145.6
40.515,-140.12
40.531,-133.97
40.546,-126.07
40.562,-115.17
40.578,-100.49
40.593,-82.45
40.609,-63.04
40.625,-45.7
40.640,-34.49
40.656,-32.69
40.671,-41.46
40.687,-59.03
40.703,-81.01
40.718,-101.74
40.734,-116.11
40.750,-121.08
40.765,-116.27
40.781,-103.53
40.796,-85.91
40.812,-66.48
40.828,-47.76
40.843,-31.5
40.859,-18.8
40.875,-10.29
40.890,-5.94
40.906,-5.05
40.921,-6.25
40.937,-7.87
40.953,-8.36
40.968,-6.94
40.984,-3.81
41.000,0.01
41.015,3.11
41.031,4.38
41.046,3.58
41.062,1.48
41.078,-0.32
41.093,-0.01
41.109,3.8
41.125,11.55
41.140,22.66
41.156,35.76
41.171,49.3
41.187,62.07
41.203,73.47
41.218,83.4
41.234,91.91
41.250,98.98
41.265,104.45
41.281,108.28
41.296,110.77
41.312,112.56
41.328,114.47
41.343,117.04
41.359,120.37
41.375,124.15
41.390,128.0
41.406,131.73
41.421,135.43
41.437,139.09
41.453,142.26
41.468,143.78
41.484,142.13
41.500,136.06
41.515,125.32
41.531,111.01
41.546,95.4
41.562,81.07
41.578,70.07
41.593,63.2
41.609,59.76
41.625,57.89
41.640,55.18
41.656,49.53
41.671,39.79
41.687,26.13
41.703,10.05
41.718,-5.97
41.734,-19.22
41.750,-27.58
41.765,-30.44
41.781,-29.17
41.796,-26.9
41.812,-27.63
41.828,-34.84
41.843,-50.17
41.859,-72.77
41.875,-99.61
41.890,-126.6
41.906,-149.99
41.921,-167.37
41.937,-177.93
41.953,-182.01
41.968,-180.36
41.984,-173.75
42.000,-162.9
42.015,-148.76
42.031,-132.78
42.046,-116.77
42.062,-102.38
42.078,-90.62
42.093,-81.58
42.109,-74.42
42.125,-67.89
42.140,-60.84
42.156,-52.67
42.171,-43.5
42.187,-34.03
42.203,-25.21
42.218,-17.88
42.234,-12.54
42.250,-9.29
42.265,-7.86
42.281,-7.87
42.296,-9.0
42.312,-11.1
42.328,-14.13
42.343,-18.02
42.359,-22.32
42.375,-26.12
42.390,-28.05
42.406,-26.59
42.421,-20.64
42.437,-9.94
42.453,4.64
42.468,21.39
42.484,38.23
42.500,53.42
42.515,66.01
42.531,75.94
42.546,83.74
42.562,90.11
42.578,95.56
42.593,100.28
42.609,104.28
42.625,107.52
42.640,110.1
42.656,112.21
42.671,114.0
42.687,115.5
42.703,116.59
42.718,117.11
42.734,116.98
42.750,116.3
42.765,115.33
42.781,114.45
42.796,113.97
42.812,113.95
42.828,114.11
42.843,113.79
42.859,112.21
42.875,108.63
42.890,102.72
42.906,94.6
42.921,84.9
42.937,74.44
42.953,63.96
42.968,53.82
42.984,43.89
43.000,33.82
43.015,23.41
43.031,12.99
43.046,3.62
43.062,-3.1
43.078,-5.58
43.093,-2.79
43.109,5.24
43.125,17.43
43.140,31.97
43.156,46.98
43.171,60.94
43.187,72.97
43.203,82.62
43.218,89.62
43.234,93.64
43.250,94.34
43.265,91.66
43.281,85.98
43.296,78.12
43.312,69.13
43.328,59.89
43.343,50.79
43.359,41.67
43.375,32.0
43.390,21.31
43.406,9.5
43.421,-3.0
43.437,-15.36
43.453,-26.57
43.468,-35.87
43.484,-42.92
43.500,-47.92
43.515,-51.55
43.531,-54.62
43.546,-57.87
43.562,-61.66
43.578,-65.85
43.593,-69.87
43.609,-72.89
43.625,-74.15
43.640,-73.27
43.656,-70.51
43.671,-66.73
43.687,-63.19
43.703,-61.17
43.718,-61.47
43.734,-64.2
43.750,-68.56
43.765,-73.14
43.781,-76.23
43.796,-76.36
43.812,-72.77
43.828,-65.66
43.843,-56.15
43.859,-45.84
43.875,-36.11
43.890,-27.53
43.906,-19.71
43.921,-11.62
43.937,-2.24
43.953,8.7
43.968,20.47
43.984,31.52
44.000,40.06
44.015,44.71
44.031,44.98
44.046,41.47
44.062,35.64
44.078,29.39
44.093,24.46
44.109,21.96
44.125,22.1
44.140,24.25
44.156,27.29
44.171,30.06
44.187,31.76
44.203,31.95
44.218,30.43
44.234,26.99
44.250,21.52
44.265,14.03
44.281,4.94
44.296,-4.9
44.312,-14.47
44.328,-23.0
44.343,-30.29
44.359,-36.73
44.375,-43.1
44.390,-50.06
44.406,-57.77
44.421,-65.65
44.437,-72.53
44.453,-77.0
44.468,-77.98
44.484,-75.1
44.500,-68.81
44.515,-60.12
44.531,-50.29
44.546,-40.24
44.562,-30.45
44.578,-20.9
44.593,-11.31
44.609,-1.56
44.625,8.21
44.640,17.53
44.656,25.86
44.671,32.82
44.687,38.38
44.703,42.94
44.718,47.12
44.734,51.55
44.750,56.6
44.765,62.21
44.781,67.93
44.796,73.14
44.812,77.39
44.828,80.65
44.843,83.39
44.859,86.36
44.875,90.26
44.890,95.35
44.906,101.22
44.921,106.97
44.937,111.42
44.953,113.58
44.968,112.96
44.984,109.62
45.000,104.1
45.015,97.32
45.031,90.41
45.046,84.47
45.062,80.23
45.078,77.53
45.093,75.05
45.109,70.47
45.125,61.27
45.140,45.95
45.156,24.87
45.171,0.56
45.187,-23.13
45.203,-42.3
45.218,-54.43
45.234,-59.05
45.250,-57.63
45.265,-52.67
45.281,-46.66
45.296,-41.29
45.312,-37.28
45.328,-34.64
45.343,-33.12
45.359,-32.52
45.375,-32.68
45.390,-33.42
45.406,-34.53
45.421,-35.73
45.437,-36.84
45.453,-37.85
45.468,-38.99
45.484,-40.73
45.500,-43.48
45.515,-47.35
45.531,-51.96
45.546,-56.54
45.562,-60.19
45.578,-62.37
45.593,-63.15
45.609,-63.32
45.625,-64.1
45.640,-66.66
45.656,-71.65
45.671,-78.93
45.687,-87.6
45.703,-96.37
45.718,-104.16
45.734,-110.52
45.750,-115.91
45.765,-121.38
45.781,-128.08
45.796,-136.65
45.812,-146.85
45.828,-157.5
45.843,-166.98
45.859,-173.82
45.875,-177.18
45.890,-177.02
45.906,-173.79
45.921,-167.91
45.937,-159.48
45.953,-148.28
45.968,-134.04
45.984,-116.76
46.000,-96.75
46.015,-74.47
46.031,-50.41
46.046,-25.05
46.062,0.98
46.078,26.66
46.093,50.66
46.109,71.62
46.125,88.59
46.140,101.45
46.156,110.95
46.171,118.4
46.187,125.28
46.203,132.83
46.218,141.7
46.234,151.69
46.250,161.54
46.265,169.08
46.281,171.73
46.296,167.38
46.312,155.33
46.328,136.81
46.343,114.78
46.359,92.98
46.375,74.73
46.390,61.97
46.406,54.86
46.421,52.09
46.437,51.63
46.453,51.47
46.468,50.14
46.484,46.91
46.500,41.68
46.515,34.89
46.531,27.49
46.546,20.87
46.562,16.68
46.578,16.41
46.593,20.71
46.609,29.0
46.625,39.34
46.640,48.96
46.656,55.23
46.671,56.64
46.687,53.33
46.703,46.98
46.718,40.05
46.734,34.9
46.750,33.07
46.765,34.88
46.781,39.49
46.796,45.2
46.812,50.01
46.828,52.07
46.843,50.21
46.859,44.31
46.875,35.34
46.890,25.02
46.906,15.3
46.921,7.69
46.937,2.79
46.953,0.22
46.968,-1.14
46.984,-2.71
47.000,-5.72
47.015,-11.05
47.031,-18.96
47.046,-29.18
47.062,-40.75
47.078,-52.18
47.093,-61.68
47.109,-67.67
47.125,-69.48
47.140,-67.63
47.156,-63.85
47.171,-60.43
47.187,-59.37
47.203,-61.81
47.218,-67.66
47.234,-75.77
47.250,-84.31
47.265,-91.12
47.281,-94.3
47.296,-92.77
47.312,-86.77
47.328,-77.98
47.343,-69.29
47.359,-63.7
47.375,-63.37
47.390,-68.79
47.406,-78.62
47.421,-90.04
47.437,-99.6
47.453,-104.13
47.468,-101.61
47.484,-91.78
47.500,-76.21
47.515,-57.97
47.531,-40.69
47.546,-27.42
47.562,-19.78
47.578,-17.64
47.593,-19.4
47.609,-22.63
47.625,-25.07
47.640,-25.43
47.656,-23.8
47.671,-21.61
47.687,-20.97
47.703,-23.73
47.718,-30.58
47.734,-40.71
47.750,-52.21
47.765,-62.94
47.781,-71.32
47.796,-76.64
47.812,-78.66
47.828,-77.08
47.843,-71.31
47.859,-60.91
47.875,-46.22
47.890,-28.65
47.906,-10.54
47.921,5.83
47.937,18.99
47.953,28.67
47.968,35.49
47.984,40.32
48.000,43.58
48.015,45.08
48.031,44.2
48.046,40.24
48.062,32.88
48.078,22.49
48.093,10.19
48.109,-2.21
48.125,-12.56
48.140,-18.79
48.156,-19.63
48.171,-14.92
48.187,-5.81
48.203,5.66
48.218,17.21
48.234,27.0
48.250,34.06
48.265,38.29
48.281,40.19
48.296,40.38
48.312,39.41
48.328,37.62
48.343,35.25
48.359,32.55
48.375,29.85
48.390,27.52
48.406,25.92
48.421,25.37
48.437,26.02
48.453,27.89
48.468,30.86
48.484,34.67
48.500,39.01
48.515,43.55
48.531,47.96
48.546,52.02
48.562,55.59
48.578,58.62
48.593,61.09
48.609,63.08
48.625,64.65
48.640,65.89
48.656,66.9
48.671,67.77
48.687,68.6
48.703,69.38
48.718,70.05
48.734,70.4
48.750,70.13
48.765,69.02
48.781,67.08
48.796,64.63
48.812,62.31
48.828,60.75
48.843,60.22
48.859,60.31
48.875,59.98
48.890,57.84
48.906,52.82
48.921,44.59
48.937,33.82
48.953,21.91
48.968,10.52
48.984,1.03
49.000,-5.81
49.015,-9.96
49.031,-11.92
49.046,-12.47
49.062,-12.43
49.078,-12.45
49.093,-12.91
49.109,-13.9
49.125,-15.19
49.140,-16.4
49.156,-17.05
49.171,-16.69
49.187,-15.03
49.203,-11.94
49.218,-7.57
49.234,-2.39
49.250,2.78
49.265,6.88
49.281,8.9
49.296,8.22
49.312,4.79
49.328,-1.01
49.343,-8.61
49.359,-17.62
49.375,-27.93
49.390,-39.48
49.406,-52.0
49.421,-64.8
49.437,-76.78
49.453,-86.81
49.468,-94.06
49.484,-98.13
49.500,-98.93
49.515,-96.37
49.531,-90.18
49.546,-79.89
49.562,-65.16
49.578,-45.98
49.593,-22.81
49.609,3.43
49.625,31.3
49.640,58.58
49.656,82.18
49.671,98.41
49.687,104.01
49.703,97.45
49.718,79.98
49.734,55.66
49.750,29.92
49.765,7.71
49.781,-8.26
49.796,-17.92
49.812,-22.99
49.828,-25.55
49.843,-26.92
49.859,-27.59
49.875,-27.74
49.890,-27.87
49.906,-29.08
49.921,-32.57
49.937,-39.02
49.953,-48.19
49.968,-59.08
49.984,-70.5
50.000,-81.65
50.015,-92.42
50.031,-103.2
50.046,-114.49
50.062,-126.47
50.078,-138.75
50.093,-150.33
50.109,-159.77
50.125,-165.56
50.140,-166.54
50.156,-162.22
50.171,-152.75
50.187,-138.8
50.203,-121.31
50.218,-101.31
50.234,-79.89
50.250,-58.12
50.265,-36.95
50.281,-17.09
50.296,1.13
50.312,17.58
50.328,32.17
50.343,44.64
50.359,54.5
50.375,61.21
50.390,64.43
50.406,64.35
50.421,61.67
50.437,57.5
50.453,52.86
50.468,48.39
50.484,44.22
50.500,40.0
50.515,35.24
50.531,29.62
50.546,23.23
50.562,16.49
50.578,10.08
50.593,4.5
50.609,-0.07
50.625,-3.95
50.640,-7.75
50.656,-12.18
50.671,-17.68
50.687,-24.28
50.703,-31.47
50.718,-38.24
50.734,-43.3
50.750,-45.36
50.765,-43.34
50.781,-36.71
50.796,-25.55
50.812,-10.58
50.828,7.05
50.843,26.0
50.859,45.06
50.875,63.29
50.890,80.11
50.906,95.18
50.921,108.32
50.937,119.39
50.953,128.3
50.968,135.02
50.984,139.55
51.000,141.95
51.015,142.18
51.031,140.13
51.046,135.7
51.062,128.97
51.078,120.43
51.093,111.01
51.109,101.76
51.125,93.44
51.140,85.94
51.156,78.22
51.171,68.57
51.187,55.34
51.203,37.79
51.218,16.54
51.234,-6.57
51.250,-29.34
51.265,-49.95
51.281,-67.52
51.296,-81.95
51.312,-93.55
51.328,-102.73
51.343,-110.02
51.359,-116.39
51.375,-123.42
51.390,-132.87
51.406,-145.83
51.421,-161.86
51.437,-178.62
51.453,-192.44
51.468,-199.51
51.484,-197.31
51.500,-185.44
51.515,-165.64
51.531,-141.08
51.546,-115.12
51.562,-90.42
51.578,-68.38
51.593,-49.16
51.609,-32.19
51.625,-16.76
51.640,-2.54
51.656,10.4
51.671,21.88
51.687,31.9
51.703,40.82
51.718,48.98
51.734,56.46
51.750,62.78
51.765,67.12
51.781,68.86
51.796,68.06
51.812,65.63
51.828,63.0
51.843,61.52
51.859,61.96
51.875,64.23
51.890,67.49
51.906,70.56
51.921,72.4
51.937,72.51
51.953,71.02
51.968,68.55
51.984,65.79
52.000,63.22
52.015,60.82
52.031,58.2
52.046,54.88
52.062,50.5
52.078,44.96
52.093,38.31
52.109,30.71
52.125,22.35
52.140,13.65
52.156,5.42
52.171,-1.1
52.187,-4.39
52.203,-2.86
52.218,4.9
52.234,19.92
52.250,42.49
52.265,71.67
52.281,104.86
52.296,137.76
52.312,165.13
52.328,182.22
52.343,186.35
52.359,177.75
52.375,159.46
52.390,136.17
52.406,112.7
52.421,92.82
52.437,78.66
52.453,70.76
52.468,68.3
52.484,69.42
52.500,71.6
52.515,72.1
52.531,68.62
52.546,59.91
52.562,46.26
52.578,29.33
52.593,11.63
52.609,-4.33
52.625,-16.73
52.640,-24.99
52.656,-29.73
52.671,-32.44
52.687,-35.0
52.703,-39.07
52.718,-45.72
52.734,-55.16
52.750,-66.85
52.765,-79.65
52.781,-92.15
52.796,-102.82
52.812,-110.35
52.828,-113.95
52.843,-113.7
52.859,-110.64
52.875,-106.48
52.890,-102.93
52.906,-100.95
52.921,-100.32
52.937,-99.71
52.953,-97.18
52.968,-90.86
52.984,-79.58
53.000,-63.27
53.015,-43.26
53.031,-22.23
53.046,-3.87
53.062,8.1
53.078,11.31
53.093,5.74
53.109,-5.87
53.125,-19.01
53.140,-29.05
53.156,-33.02
53.171,-30.49
53.187,-23.19
53.203,-13.79
53.218,-4.51
53.234,3.53
53.250,10.16
53.265,15.43
53.281,19.1
53.296,20.55
53.312,19.2
53.328,15.06
53.343,8.89
53.359,1.99
53.375,-4.36
53.390,-9.4
53.406,-13.08
53.421,-15.94
53.437,-18.65
53.453,-21.72
53.468,-25.27
53.484,-29.22
53.500,-33.47
53.515,-38.15
53.531,-43.53
53.546,-49.79
53.562,-56.67
53.578,-63.38
53.593,-68.73
53.609,-71.54
53.625,-71.02
53.640,-67.02
53.656,-60.01
53.671,-50.82
53.687,-40.44
53.703,-29.74
53.718,-19.39
53.734,-9.86
53.750,-1.42
53.765,5.89
53.781,12.2
53.796,17.79
53.812,22.98
53.828,28.06
53.843,33.2
53.859,38.44
53.875,43.64
53.890,48.55
53.906,52.79
53.921,56.0
53.937,57.9
53.953,58.46
53.968,57.9
53.984,56.55
54.000,54.8
54.015,52.87
54.031,50.82
54.046,48.6
54.062,46.16
54.078,43.56
54.093,40.94
54.109,38.52
54.125,36.51
54.140,34.97
54.156,33.87
54.171,33.07
54.187,32.44
54.203,31.83
54.218,31.17
54.234,30.43
54.250,29.61
54.265,28.73
54.281,27.93
54.296,27.44
54.312,27.59
54.328,28.79
54.343,31.52
54.359,36.19
54.375,43.09
54.390,52.21
54.406,63.37
54.421,76.18
54.437,90.13
54.453,104.7
54.468,119.34
54.484,133.48
54.500,146.5
54.515,157.82
54.531,166.98
54.546,173.84
54.562,178.66
54.578,182.26
54.593,185.63
54.609,189.49
54.625,193.69
54.640,196.89
54.656,196.73
54.671,190.62
54.687,176.74
54.703,154.68
54.718,125.69
54.734,92.35
54.750,57.89
54.765,25.59
54.781,-1.82
54.796,-22.57
54.812,-36.09
54.828,-43.13
54.843,-45.58
54.859,-46.08
54.875,-47.37
54.890,-51.76
54.906,-60.45
54.921,-73.31
54.937,-88.69
54.953,-103.88
54.968,-115.86
54.984,-122.36
55.000,-122.84
55.015,-118.79
55.031,-113.33
55.046,-110.01
55.062,-111.61
55.078,-119.15
55.093,-131.7
55.109,-146.62
55.125,-160.34
55.140,-169.15
55.156,-170.24
55.171,-162.5
55.187,-147.07
55.203,-127.13
55.218,-106.98
55.234,-90.62
55.250,-80.59
55.265,-77.35
55.281,-79.48
55.296,-84.59
55.312,-90.23
55.328,-94.61
55.343,-97.0
55.359,-97.72
55.375,-97.92
55.390,-99.03
55.406,-102.19
55.421,-107.64
55.437,-114.53
55.453,-121.24
55.468,-125.99
55.484,-127.48
55.500,-125.22
55.515,-119.37
55.531,-110.27
55.546,-98.17
55.562,-83.14
55.578,-65.29
55.593,-45.11
55.609,-23.7
55.625,-2.63
55.640,16.37
55.656,31.9
55.671,43.27
55.687,50.63
55.703,54.83
55.718,56.99
55.734,58.12
55.750,58.74
55.765,58.83
55.781,57.95
55.796,55.52
55.812,51.19
55.828,45.03
55.843,37.51
55.859,29.29
55.875,21.01
55.890,13.28
55.906,6.79
55.921,2.5
55.937,1.6
55.953,5.22
55.968,13.85
55.984,26.94
56.000,42.92
56.015,59.73
56.031,75.59
56.046,89.41
56.062,100.54
56.078,108.19
56.093,110.77
56.109,106.09
56.125,92.29
56.140,69.03
56.156,38.27
56.171,4.03
56.187,-28.82
56.203,-56.18
56.218,-75.81
56.234,-87.51
56.250,-92.34
56.265,-91.7
56.281,-86.56
56.296,-77.42
56.312,-64.72
56.328,-49.31
56.343,-32.59
56.359,-16.25
56.375,-1.82
56.390,9.82
56.406,18.66
56.421,25.44
56.437,31.22
56.453,36.9
56.468,42.86
56.484,48.85
56.500,54.09
56.515,57.77
56.531,59.44
56.546,59.22
56.562,57.87
56.578,56.43
56.593,55.86
56.609,56.83
56.625,59.57
56.640,63.78
56.656,68.6
56.671,72.52
56.687,73.55
56.703,69.66
56.718,59.42
56.734,42.64
56.750,20.67
56.765,-3.93
56.781,-28.11
56.796,-49.21
56.812,-65.48
56.828,-76.31
56.843,-81.84
56.859,-82.71
56.875,-79.74
56.890,-74.01
56.906,-66.8
56.921,-59.46
56.937,-53.16
56.953,-48.51
56.968,-45.39
56.984,-43.09
57.000,-40.67
57.015,-37.53
57.031,-33.64
57.046,-29.62
57.062,-26.39
57.078,-24.75
57.093,-25.08
57.109,-27.23
57.125,-30.57
57.140,-34.31
57.156,-37.75
57.171,-40.39
57.187,-42.02
57.203,-42.59
57.218,-42.22
57.234,-41.15
57.250,-39.69
57.265,-38.17
57.281,-36.82
57.296,-35.71
57.312,-34.72
57.328,-33.64
57.343,-32.2
57.359,-30.26
57.375,-27.79
57.390,-24.89
57.406,-21.73
57.421,-18.52
57.437,-15.49
57.453,-12.82
57.468,-10.64
57.484,-8.79
57.500,-6.83
57.515,-3.94
57.531,0.81
57.546,8.12
57.562,18.15
57.578,30.34
57.593,43.57
57.609,56.46
57.625,67.87
57.640,77.25
57.656,84.67
57.671,90.73
57.687,96.23
57.703,101.95
57.718,108.47
57.734,115.99
57.750,124.03
57.765,131.34
57.781,135.93
57.796,135.52
57.812,128.34
57.828,113.93
57.843,93.55
57.859,69.92
57.875,46.41
57.890,25.91
57.906,10.2
57.921,-0.32
57.937,-6.14
57.953,-8.11
57.968,-6.98
57.984,-3.37
58.000,2.07
58.015,8.37
58.031,14.26
58.046,18.38
58.062,19.77
58.078,18.07
58.093,13.65
58.109,7.29
58.125,-0.2
58.140,-8.4
58.156,-17.31
58.171,-27.1
58.187,-37.84
58.203,-49.29
58.218,-60.97
58.234,-72.39
58.250,-83.23
58.265,-93.31
58.281,-102.27
58.296,-109.39
58.312,-113.59
58.328,-113.88
58.343,-109.85
58.359,-102.02
58.375,-91.68
58.390,-80.4
58.406,-69.37
58.421,-58.99
58.437,-49.04
58.453,-39.08
58.468,-28.98
58.484,-19.17
58.500,-10.33
58.515,-3.03
58.531,2.63
58.546,7.07
58.562,10.95
58.578,14.8
58.593,18.76
58.609,22.54
58.625,25.62
58.640,27.61
58.656,28.44
58.671,28.4
58.687,27.99
58.703,27.65
58.718,27.61
58.734,27.81
58.750,28.05
58.765,28.09
58.781,27.84
58.796,27.37
58.812,26.86
58.828,26.49
58.843,26.22
58.859,25.82
58.875,24.93
58.890,23.25
58.906,20.66
58.921,17.36
58.937,13.65
58.953,9.9
58.968,6.32
58.984,2.86
59.000,-0.68
59.015,-4.53
59.031,-8.71
59.046,-12.86
59.062,-16.22
59.078,-17.88
59.093,-17.05
59.109,-13.51
59.125,-7.76
59.140,-0.83
59.156,6.06
59.171,12.05
59.187,16.91
59.203,20.99
59.218,24.84
59.234,28.83
59.250,32.9
59.265,36.64
59.281,39.63
59.296,41.73
59.312,43.18
59.328,44.48
59.343,46.2
59.359,48.75
59.375,52.25
59.390,56.68
59.406,61.88
59.421,67.66
59.437,73.8
59.453,79.99
59.468,85.8
59.484,90.63
59.500,93.84
59.515,94.87
59.531,93.4
59.546,89.51
59.562,83.76
59.578,77.09
59.593,70.65
59.609,65.5
59.625,62.36
59.640,61.46
59.656,62.47
59.671,64.77
59.687,67.62
59.703,70.34
59.718,72.42
59.734,73.43
59.750,72.89
59.765,70.27
59.781,65.2
59.796,57.74
59.812,48.77
59.828,39.77
59.843,32.43
59.859,27.94
59.875,26.43
59.890,26.92
59.906,27.82
59.921,27.65
59.937,25.68
59.953,22.05
59.968,17.46
59.984,12.75
