timestamp,value
00.000,9.91
00.015,8.4
00.031,6.84
00.046,5.32
00.062,3.77
00.078,2.0
00.093,-0.13
00.109,-2.61
00.125,-5.18
00.140,-7.37
00.156,-8.67
00.171,-8.68
00.187,-7.27
00.203,-4.55
00.218,-0.84
00.234,3.54
00.250,8.28
00.265,13.23
00.281,18.26
00.296,23.3
00.312,28.16
00.328,32.48
00.343,35.71
00.359,37.26
00.375,36.73
00.390,34.04
00.406,29.58
00.421,24.13
00.437,18.65
00.453,14.1
00.468,11.07
00.484,9.7
00.500,9.55
00.515,9.9
00.531,9.87
00.546,8.82
00.562,6.51
00.578,3.15
00.593,-0.66
00.609,-4.19
00.625,-6.79
00.640,-8.01
00.656,-7.77
00.671,-6.25
00.687,-3.87
00.703,-1.14
00.718,1.41
00.734,3.34
00.750,4.45
00.765,4.71
00.781,4.26
00.796,3.39
00.812,2.4
00.828,1.61
00.843,1.23
00.859,1.28
00.875,1.48
00.890,1.28
00.906,-0.03
00.921,-3.05
00.937,-7.93
00.953,-14.21
00.968,-20.93
00.984,-26.88
01.000,-31.09
01.015,-33.08
01.031,-32.96
01.046,-31.33
01.062,-28.9
01.078,-26.26
01.093,-23.62
01.109,-20.91
01.125,-17.89
01.140,-14.41
01.156,-10.56
01.171,-6.64
01.187,-3.08
01.203,-0.28
01.218,1.55
01.234,2.46
01.250,2.57
01.265,2.05
01.281,0.94
01.296,-0.74
01.312,-2.89
01.328,-5.22
01.343,-7.39
01.359,-9.14
01.375,-10.51
01.390,-11.88
01.406,-13.82
01.421,-16.79
01.437,-20.91
01.453,-25.84
01.468,-30.88
01.484,-35.25
01.500,-38.41
01.515,-40.17
01.531,-40.72
01.546,-40.46
01.562,-39.8
01.578,-39.05
01.593,-38.32
01.609,-37.55
01.625,-36.59
01.640,-35.28
01.656,-33.56
01.671,-31.56
01.687,-29.55
01.703,-27.9
01.718,-26.94
01.734,-26.86
01.750,-27.53
01.765,-28.55
01.781,-29.25
01.796,-28.92
01.812,-26.99
01.828,-23.18
01.843,-17.55
01.859,-10.52
01.875,-2.69
01.890,5.32
01.906,12.97
01.921,19.89
01.937,25.89
01.953,30.88
01.968,34.81
01.984,37.65
02.000,39.43
02.015,40.25
02.031,40.31
02.046,39.91
02.062,39.32
02.078,38.8
02.093,38.48
02.109,38.41
02.125,38.5
02.140,38.58
02.156,38.5
02.171,38.15
02.187,37.5
02.203,36.61
02.218,35.59
02.234,34.5
02.250,33.32
02.265,31.94
02.281,30.21
02.296,28.0
02.312,25.33
02.328,22.3
02.343,19.14
02.359,16.1
02.375,13.38
02.390,11.16
02.406,9.52
02.421,8.47
02.437,7.9
02.453,7.6
02.468,7.3
02.484,6.71
02.500,5.63
02.515,3.96
02.531,1.73
02.546,-0.98
02.562,-4.13
02.578,-7.79
02.593,-12.01
02.609,-16.76
02.625,-21.78
02.640,-26.55
02.656,-30.33
02.671,-32.45
02.687,-32.42
02.703,-30.19
02.718,-26.14
02.734,-20.93
02.750,-15.26
02.765,-9.69
02.781,-4.52
02.796,0.11
02.812,4.17
02.828,7.61
02.843,10.3
02.859,12.1
02.875,13.02
02.890,13.2
02.906,12.94
02.921,12.59
02.937,12.36
02.953,12.27
02.968,12.18
02.984,11.88
03.000,11.26
03.015,10.33
03.031,9.26
03.046,8.24
03.062,7.4
03.078,6.76
03.093,6.23
03.109,5.73
03.125,5.22
03.140,4.68
03.156,4.15
03.171,3.61
03.187,3.0
03.203,2.41
03.218,1.98
03.234,1.94
03.250,2.5
03.265,3.71
03.281,5.38
03.296,7.2
03.312,8.88
03.328,10.25
03.343,11.35
03.359,12.26
03.375,12.96
03.390,13.35
03.406,13.21
03.421,12.38
03.437,10.81
03.453,8.54
03.468,5.64
03.484,2.2
03.500,-1.6
03.515,-5.41
03.531,-8.64
03.546,-10.65
03.562,-10.89
03.578,-9.17
03.593,-5.73
03.609,-1.12
03.625,3.98
03.640,8.93
03.656,13.35
03.671,17.11
03.687,20.24
03.703,22.83
03.718,24.95
03.734,26.55
03.750,27.44
03.765,27.44
03.781,26.4
03.796,24.35
03.812,21.5
03.828,18.17
03.843,14.66
03.859,11.23
03.875,8.03
03.890,5.19
03.906,2.77
03.921,0.77
03.937,-0.9
03.953,-2.43
03.968,-4.01
03.984,-5.8
04.000,-7.8
04.015,-9.89
04.031,-11.91
04.046,-13.71
04.062,-15.23
04.078,-16.47
04.093,-17.46
04.109,-18.23
04.125,-18.85
04.140,-19.34
04.156,-19.8
04.171,-20.32
04.187,-21.01
04.203,-21.94
04.218,-23.15
04.234,-24.6
04.250,-26.22
04.265,-27.84
04.281,-29.29
04.296,-30.39
04.312,-30.93
04.328,-30.72
04.343,-29.53
04.359,-27.21
04.375,-23.71
04.390,-19.16
04.406,-13.93
04.421,-8.51
04.437,-3.39
04.453,1.07
04.468,4.74
04.484,7.65
04.500,9.9
04.515,11.52
04.531,12.51
04.546,12.76
04.562,12.28
04.578,11.24
04.593,9.92
04.609,8.72
04.625,7.92
04.640,7.64
04.656,7.75
04.671,8.0
04.687,8.14
04.703,8.05
04.718,7.75
04.734,7.3
04.750,6.71
04.765,5.87
04.781,4.59
04.796,2.71
04.812,0.17
04.828,-2.87
04.843,-6.15
04.859,-9.38
04.875,-12.34
04.890,-14.99
04.906,-17.38
04.921,-19.69
04.937,-22.03
04.953,-24.45
04.968,-26.88
04.984,-29.28
05.000,-31.63
05.015,-33.97
05.031,-36.39
05.046,-38.88
05.062,-41.17
05.078,-42.77
05.093,-43.05
05.109,-41.45
05.125,-37.77
05.140,-32.17
05.156,-25.19
05.171,-17.53
05.187,-9.82
05.203,-2.5
05.218,4.12
05.234,9.88
05.250,14.61
05.265,18.13
05.281,20.37
05.296,21.41
05.312,21.47
05.328,20.94
05.343,20.19
05.359,19.46
05.375,18.82
05.390,18.14
05.406,17.27
05.421,16.14
05.437,14.82
05.453,13.54
05.468,12.58
05.484,12.11
05.500,12.13
05.515,12.47
05.531,12.84
05.546,12.93
05.562,12.58
05.578,11.69
05.593,10.31
05.609,8.54
05.625,6.51
05.640,4.38
05.656,2.3
05.671,0.38
05.687,-1.38
05.703,-3.06
05.718,-4.86
05.734,-6.9
05.750,-9.2
05.765,-11.66
05.781,-14.06
05.796,-16.21
05.812,-18.06
05.828,-19.78
05.843,-21.67
05.859,-24.03
05.875,-26.96
05.890,-30.25
05.906,-33.43
05.921,-35.8
05.937,-36.68
05.953,-35.64
05.968,-32.53
05.984,-27.59
06.000,-21.33
06.015,-14.4
06.031,-7.44
06.046,-0.97
06.062,4.73
06.078,9.62
06.093,13.82
06.109,17.52
06.125,20.86
06.140,23.83
06.156,26.29
06.171,28.05
06.187,29.02
06.203,29.29
06.218,29.11
06.234,28.76
06.250,28.53
06.265,28.52
06.281,28.63
06.296,28.67
06.312,28.42
06.328,27.7
06.343,26.48
06.359,24.88
06.375,23.03
06.390,21.13
06.406,19.28
06.421,17.52
06.437,15.83
06.453,14.15
06.468,12.48
06.484,10.79
06.500,9.05
06.515,7.24
06.531,5.31
06.546,3.21
06.562,0.98
06.578,-1.31
06.593,-3.54
06.609,-5.66
06.625,-7.64
06.640,-9.51
06.656,-11.32
06.671,-13.18
06.687,-15.19
06.703,-17.44
06.718,-20.01
06.734,-22.9
06.750,-26.07
06.765,-29.46
06.781,-32.96
06.796,-36.4
06.812,-39.51
06.828,-41.87
06.843,-42.96
06.859,-42.22
06.875,-39.37
06.890,-34.49
06.906,-28.04
06.921,-20.71
06.937,-13.21
06.953,-6.05
06.968,0.46
06.984,6.21
07.000,11.17
07.015,15.31
07.031,18.62
07.046,21.09
07.062,22.78
07.078,23.82
07.093,24.33
07.109,24.45
07.125,24.28
07.140,23.92
07.156,23.41
07.171,22.82
07.187,22.14
07.203,21.4
07.218,20.63
07.234,19.86
07.250,19.12
07.265,18.44
07.281,17.82
07.296,17.21
07.312,16.56
07.328,15.79
07.343,14.75
07.359,13.29
07.375,11.3
07.390,8.8
07.406,5.97
07.421,3.1
07.437,0.49
07.453,-1.7
07.468,-3.46
07.484,-4.94
07.500,-6.32
07.515,-7.7
07.531,-9.08
07.546,-10.38
07.562,-11.51
07.578,-12.44
07.593,-13.22
07.609,-13.91
07.625,-14.6
07.640,-15.39
07.656,-16.36
07.671,-17.63
07.687,-19.25
07.703,-21.21
07.718,-23.27
07.734,-25.02
07.750,-25.91
07.765,-25.4
07.781,-23.16
07.796,-19.17
07.812,-13.83
07.828,-7.77
07.843,-1.68
07.859,3.96
07.875,8.95
07.890,13.36
07.906,17.3
07.921,20.92
07.937,24.24
07.953,27.24
07.968,29.93
07.984,32.43
08.000,34.85
08.015,37.33
08.031,39.85
08.046,42.31
08.062,44.48
08.078,46.12
08.093,46.98
08.109,46.75
08.125,45.1
08.140,41.61
08.156,36.01
08.171,28.24
08.187,18.75
08.203,8.44
08.218,-1.42
08.234,-9.56
08.250,-15.09
08.265,-17.81
08.281,-18.17
08.296,-17.06
08.312,-15.42
08.328,-13.96
08.343,-12.96
08.359,-12.39
08.375,-12.11
08.390,-12.04
08.406,-12.26
08.421,-13.02
08.437,-14.55
08.453,-16.97
08.468,-20.17
08.484,-23.8
08.500,-27.38
08.515,-30.47
08.531,-32.82
08.546,-34.49
08.562,-35.77
08.578,-36.93
08.593,-38.06
08.609,-38.91
08.625,-38.97
08.640,-37.69
08.656,-34.74
08.671,-30.12
08.687,-24.23
08.703,-17.67
08.718,-11.06
08.734,-4.9
08.750,0.49
08.765,4.96
08.781,8.45
08.796,11.0
08.812,12.68
08.828,13.57
08.843,13.76
08.859,13.34
08.875,12.4
08.890,11.14
08.906,9.82
08.921,8.74
08.937,8.17
08.953,8.26
08.968,8.94
08.984,10.02
09.000,11.27
09.015,12.44
09.031,13.41
09.046,14.06
09.062,14.32
09.078,14.16
09.093,13.61
09.109,12.81
09.125,11.98
09.140,11.3
09.156,10.82
09.171,10.45
09.187,9.95
09.203,9.11
09.218,7.81
09.234,6.15
09.250,4.34
09.265,2.71
09.281,1.49
09.296,0.83
09.312,0.74
09.328,1.09
09.343,1.76
09.359,2.55
09.375,3.29
09.390,3.87
09.406,4.15
09.421,4.05
09.437,3.43
09.453,2.28
09.468,0.67
09.484,-1.11
09.500,-2.69
09.515,-3.63
09.531,-3.57
09.546,-2.33
09.562,-0.01
09.578,3.07
09.593,6.42
09.609,9.52
09.625,11.93
09.640,13.34
09.656,13.61
09.671,12.78
09.687,11.06
09.703,8.83
09.718,6.46
09.734,4.33
09.750,2.7
09.765,1.66
09.781,1.12
09.796,0.93
09.812,0.87
09.828,0.83
09.843,0.84
09.859,0.99
09.875,1.35
09.890,1.91
09.906,2.54
09.921,3.06
09.937,3.3
09.953,3.12
09.968,2.4
09.984,1.04
10.000,-1.11
10.015,-4.13
10.031,-7.94
10.046,-12.31
10.062,-16.8
10.078,-20.97
10.093,-24.5
10.109,-27.27
10.125,-29.31
10.140,-30.68
10.156,-31.38
10.171,-31.42
10.187,-30.81
10.203,-29.76
10.218,-28.52
10.234,-27.36
10.250,-26.4
10.265,-25.51
10.281,-24.39
10.296,-22.65
10.312,-20.04
10.328,-16.45
10.343,-12.01
10.359,-6.92
10.375,-1.45
10.390,4.16
10.406,9.74
10.421,15.17
10.437,20.36
10.453,25.22
10.468,29.57
10.484,33.12
10.500,35.56
10.515,36.6
10.531,36.15
10.546,34.35
10.562,31.57
10.578,28.33
10.593,25.06
10.609,22.08
10.625,19.44
10.640,16.99
10.656,14.5
10.671,11.75
10.687,8.7
10.703,5.48
10.718,2.41
10.734,-0.19
10.750,-2.04
10.765,-3.12
10.781,-3.63
10.796,-3.87
10.812,-4.15
10.828,-4.65
10.843,-5.38
10.859,-6.24
10.875,-7.16
10.890,-8.09
10.906,-9.08
10.921,-10.21
10.937,-11.52
10.953,-13.01
10.968,-14.58
10.984,-16.13
11.000,-17.51
11.015,-18.64
11.031,-19.39
11.046,-19.72
11.062,-19.65
11.078,-19.21
11.093,-18.54
11.109,-17.73
11.125,-16.82
11.140,-15.75
11.156,-14.44
11.171,-12.76
11.187,-10.69
11.203,-8.3
11.218,-5.76
11.234,-3.26
11.250,-0.91
11.265,1.17
11.281,2.93
11.296,4.24
11.312,5.01
11.328,5.17
11.343,4.75
11.359,3.98
11.375,3.15
11.390,2.6
11.406,2.55
11.421,3.07
11.437,4.02
11.453,5.16
11.468,6.17
11.484,6.73
11.500,6.62
11.515,5.75
11.531,4.2
11.546,2.22
11.562,0.16
11.578,-1.55
11.593,-2.55
11.609,-2.54
11.625,-1.41
11.640,0.79
11.656,3.88
11.671,7.49
11.687,11.22
11.703,14.62
11.718,17.37
11.734,19.28
11.750,20.42
11.765,20.9
11.781,20.93
11.796,20.64
11.812,20.09
11.828,19.33
11.843,18.37
11.859,17.22
11.875,15.9
11.890,14.49
11.906,13.15
11.921,12.18
11.937,11.95
11.953,12.79
11.968,14.86
11.984,17.96
12.000,21.69
12.015,25.58
12.031,29.27
12.046,32.61
12.062,35.62
12.078,38.31
12.093,40.54
12.109,42.05
12.125,42.61
12.140,42.18
12.156,40.95
12.171,39.27
12.187,37.42
12.203,35.54
12.218,33.56
12.234,31.34
12.250,28.79
12.265,25.9
12.281,22.74
12.296,19.36
12.312,15.79
12.328,11.98
12.343,7.95
12.359,3.83
12.375,-0.14
12.390,-3.69
12.406,-6.58
12.421,-8.74
12.437,-10.27
12.453,-11.33
12.468,-12.11
12.484,-12.81
12.500,-13.63
12.515,-14.77
12.531,-16.41
12.546,-18.65
12.562,-21.42
12.578,-24.5
12.593,-27.64
12.609,-30.62
12.625,-33.38
12.640,-35.99
12.656,-38.53
12.671,-40.98
12.687,-43.22
12.703,-45.08
12.718,-46.46
12.734,-47.37
12.750,-47.92
12.765,-48.12
12.781,-47.85
12.796,-46.84
12.812,-44.85
12.828,-41.79
12.843,-37.88
12.859,-33.51
12.875,-29.08
12.890,-24.85
12.906,-20.85
12.921,-16.97
12.937,-13.1
12.953,-9.29
12.968,-5.71
12.984,-2.62
13.000,-0.23
13.015,1.38
13.031,2.24
13.046,2.47
13.062,2.23
13.078,1.64
13.093,0.87
13.109,0.12
13.125,-0.39
13.140,-0.53
13.156,-0.28
13.171,0.27
13.187,1.0
13.203,1.76
13.218,2.47
13.234,3.08
13.250,3.61
13.265,4.01
13.281,4.26
13.296,4.31
13.312,4.18
13.328,3.87
13.343,3.47
13.359,2.98
13.375,2.48
13.390,2.01
13.406,1.67
13.421,1.59
13.437,1.92
13.453,2.75
13.468,4.09
13.484,5.85
13.500,7.84
13.515,9.82
13.531,11.49
13.546,12.64
13.562,13.12
13.578,12.93
13.593,12.2
13.609,11.14
13.625,9.94
13.640,8.76
13.656,7.7
13.671,6.8
13.687,6.11
13.703,5.68
13.718,5.58
13.734,5.83
13.750,6.44
13.765,7.42
13.781,8.78
13.796,10.55
13.812,12.78
13.828,15.46
13.843,18.43
13.859,21.44
13.875,24.15
13.890,26.27
13.906,27.64
13.921,28.29
13.937,28.34
13.953,28.01
13.968,27.52
13.984,26.97
14.000,26.41
14.015,25.81
14.031,25.14
14.046,24.42
14.062,23.8
14.078,23.46
14.093,23.67
14.109,24.67
14.125,26.52
14.140,29.14
14.156,32.3
14.171,35.75
14.187,39.25
14.203,42.66
14.218,45.9
14.234,48.95
14.250,51.76
14.265,54.3
14.281,56.65
14.296,58.9
14.312,61.19
14.328,63.55
14.343,65.75
14.359,67.41
14.375,68.06
14.390,67.34
14.406,65.1
14.421,61.48
14.437,56.77
14.453,51.41
14.468,45.78
14.484,40.2
14.500,34.94
14.515,30.2
14.531,26.09
14.546,22.62
14.562,19.63
14.578,16.81
14.593,13.78
14.609,10.19
14.625,5.89
14.640,1.05
14.656,-3.96
14.671,-8.62
14.687,-12.51
14.703,-15.42
14.718,-17.4
14.734,-18.72
14.750,-19.71
14.765,-20.62
14.781,-21.58
14.796,-22.54
14.812,-23.34
14.828,-23.77
14.843,-23.68
14.859,-23.02
14.875,-21.92
14.890,-20.6
14.906,-19.31
14.921,-18.12
14.937,-16.99
14.953,-15.76
14.968,-14.28
14.984,-12.52
15.000,-10.63
15.015,-8.83
15.031,-7.29
15.046,-6.14
15.062,-5.31
15.078,-4.71
15.093,-4.24
15.109,-3.79
15.125,-3.32
15.140,-2.7
15.156,-1.69
15.171,-0.05
15.187,2.43
15.203,5.73
15.218,9.65
15.234,13.78
15.250,17.73
15.265,21.12
15.281,23.67
15.296,25.19
15.312,25.5
15.328,24.57
15.343,22.54
15.359,19.95
15.375,17.6
15.390,16.29
15.406,16.49
15.421,18.02
15.437,20.13
15.453,21.83
15.468,22.31
15.484,21.28
15.500,18.93
15.515,15.67
15.531,11.77
15.546,7.2
15.562,1.71
15.578,-4.8
15.593,-12.11
15.609,-19.47
15.625,-25.87
15.640,-30.38
15.656,-32.46
15.671,-32.06
15.687,-29.51
15.703,-25.31
15.718,-19.98
15.734,-14.04
15.750,-7.98
15.765,-2.38
15.781,2.22
15.796,5.42
15.812,7.14
15.828,7.68
15.843,7.51
15.859,7.1
15.875,6.65
15.890,6.05
15.906,5.06
15.921,3.51
15.937,1.5
15.953,-0.52
15.968,-2.05
15.984,-2.68
16.000,-2.23
16.015,-0.82
16.031,1.34
16.046,4.03
16.062,7.01
16.078,10.06
16.093,12.83
16.109,14.84
16.125,15.68
16.140,15.15
16.156,13.36
16.171,10.79
16.187,8.06
16.203,5.71
16.218,4.18
16.234,3.71
16.250,4.37
16.265,5.98
16.281,7.9
16.296,8.86
16.312,7.13
16.328,0.98
16.343,-10.73
16.359,-28.03
16.375,-49.74
16.390,-73.81
16.406,-97.97
16.421,-120.29
16.437,-139.42
16.453,-154.58
16.468,-165.31
16.484,-171.38
16.500,-172.77
16.515,-169.77
16.531,-163.07
16.546,-153.72
16.562,-142.83
16.578,-131.39
16.593,-120.01
16.609,-108.95
16.625,-98.22
16.640,-87.69
16.656,-77.34
16.671,-67.33
16.687,-58.02
16.703,-49.84
16.718,-43.07
16.734,-37.79
16.750,-33.75
16.765,-30.53
16.781,-27.67
16.796,-24.91
16.812,-22.16
16.828,-19.5
16.843,-17.04
16.859,-14.76
16.875,-12.58
16.890,-10.34
16.906,-7.97
16.921,-5.55
16.937,-3.28
16.953,-1.39
16.968,0.03
16.984,0.95
17.000,1.52
17.015,1.8
17.031,1.83
17.046,1.56
17.062,0.96
17.078,0.11
17.093,-0.8
17.109,-1.51
17.125,-1.82
17.140,-1.53
17.156,-0.5
17.171,1.47
17.187,4.68
17.203,9.4
17.218,15.76
17.234,23.59
17.250,32.33
17.265,41.12
17.281,49.09
17.296,55.53
17.312,60.09
17.328,62.76
17.343,63.73
17.359,63.3
17.375,61.75
17.390,59.36
17.406,56.39
17.421,53.06
17.437,49.51
17.453,45.76
17.468,41.66
17.484,36.97
17.500,31.51
17.515,25.3
17.531,18.62
17.546,11.95
17.562,5.78
17.578,0.38
17.593,-4.3
17.609,-8.59
17.625,-12.88
17.640,-17.39
17.656,-21.97
17.671,-26.13
17.687,-29.25
17.703,-30.8
17.718,-30.55
17.734,-28.56
17.750,-25.1
17.765,-20.52
17.781,-15.18
17.796,-9.45
17.812,-3.76
17.828,1.45
17.843,5.77
17.859,8.92
17.875,10.77
17.890,11.31
17.906,10.69
17.921,9.12
17.937,6.85
17.953,4.09
17.968,1.01
17.984,-2.3
18.000,-5.8
18.015,-9.44
18.031,-13.06
18.046,-16.44
18.062,-19.4
18.078,-22.03
18.093,-24.82
18.109,-28.61
18.125,-34.33
18.140,-42.62
18.156,-53.57
18.171,-66.55
18.187,-80.32
18.203,-93.29
18.218,-103.81
18.234,-110.49
18.250,-112.39
18.265,-109.19
18.281,-101.24
18.296,-89.51
18.312,-75.38
18.328,-60.37
18.343,-45.81
18.359,-32.65
18.375,-21.33
18.390,-11.87
18.406,-3.99
18.421,2.72
18.437,8.59
18.453,13.84
18.468,18.62
18.484,22.98
18.500,26.97
18.515,30.68
18.531,34.16
18.546,37.36
18.562,40.14
18.578,42.27
18.593,43.58
18.609,44.15
18.625,44.33
18.640,44.6
18.656,45.4
18.671,46.8
18.687,48.41
18.703,49.48
18.718,49.29
18.734,47.5
18.750,44.41
18.765,40.95
18.781,38.31
18.796,37.52
18.812,39.12
18.828,43.08
18.843,48.87
18.859,55.74
18.875,62.89
18.890,69.58
18.906,75.2
18.921,79.26
18.937,81.48
18.953,81.77
18.968,80.24
18.984,77.12
19.000,72.56
19.015,66.69
19.031,59.51
19.046,51.05
19.062,41.46
19.078,30.97
19.093,19.84
19.109,8.31
19.125,-3.44
19.140,-15.22
19.156,-26.75
19.171,-37.64
19.187,-47.5
19.203,-56.14
19.218,-63.57
19.234,-70.07
19.250,-75.92
19.265,-81.19
19.281,-85.55
19.296,-88.33
19.312,-88.75
19.328,-86.18
19.343,-80.39
19.359,-71.66
19.375,-60.6
19.390,-48.05
19.406,-34.82
19.421,-21.61
19.437,-9.03
19.453,2.47
19.468,12.56
19.484,21.09
19.500,27.96
19.515,33.23
19.531,36.94
19.546,39.12
19.562,39.88
19.578,39.42
19.593,38.08
19.609,36.33
19.625,34.69
19.640,33.5
19.656,32.86
19.671,32.68
19.687,32.71
19.703,32.7
19.718,32.41
19.734,31.76
19.750,30.68
19.765,29.19
19.781,27.34
19.796,25.14
19.812,22.57
19.828,19.5
19.843,15.8
19.859,11.37
19.875,6.36
19.890,1.26
19.906,-3.15
19.921,-5.97
19.937,-6.45
19.953,-4.3
19.968,0.22
19.984,6.36
20.000,13.1
20.015,19.31
20.031,24.1
20.046,26.81
20.062,27.12
20.078,24.99
20.093,20.7
20.109,14.68
20.125,7.54
20.140,-0.09
20.156,-7.69
20.171,-14.85
20.187,-21.27
20.203,-26.77
20.218,-31.27
20.234,-34.77
20.250,-37.4
20.265,-39.37
20.281,-40.86
20.296,-42.04
20.312,-42.91
20.328,-43.4
20.343,-43.42
20.359,-43.02
20.375,-42.38
20.390,-41.82
20.406,-41.69
20.421,-42.25
20.437,-43.56
20.453,-45.39
20.468,-47.25
20.484,-48.52
20.500,-48.48
20.515,-46.51
20.531,-42.24
20.546,-35.57
20.562,-26.69
20.578,-16.02
20.593,-4.14
20.609,8.33
20.625,20.71
20.640,32.36
20.656,42.69
20.671,51.23
20.687,57.65
20.703,61.94
20.718,64.21
20.734,64.77
20.750,63.97
20.765,62.13
20.781,59.48
20.796,56.12
20.812,52.06
20.828,47.28
20.843,41.88
20.859,36.08
20.875,30.35
20.890,25.27
20.906,21.38
20.921,19.01
20.937,18.09
20.953,18.09
20.968,18.17
20.984,17.4
21.000,15.0
21.015,10.66
21.031,4.57
21.046,-2.53
21.062,-9.54
21.078,-15.25
21.093,-18.68
21.109,-19.32
21.125,-17.28
21.140,-13.26
21.156,-8.31
21.171,-3.53
21.187,0.27
21.203,2.72
21.218,3.83
21.234,3.9
21.250,3.27
21.265,2.15
21.281,0.66
21.296,-1.15
21.312,-3.19
21.328,-5.34
21.343,-7.39
21.359,-9.23
21.375,-10.87
21.390,-12.38
21.406,-13.86
21.421,-15.36
21.437,-16.79
21.453,-18.02
21.468,-18.98
21.484,-19.7
21.500,-20.31
21.515,-20.97
21.531,-21.75
21.546,-22.51
21.562,-23.0
21.578,-22.91
21.593,-22.04
21.609,-20.31
21.625,-17.76
21.640,-14.44
21.656,-10.34
21.671,-5.34
21.687,0.67
21.703,7.73
21.718,15.68
21.734,24.15
21.750,32.69
21.765,40.9
21.781,48.52
21.796,55.43
21.812,61.47
21.828,66.27
21.843,69.2
21.859,69.53
21.875,66.85
21.890,61.38
21.906,54.07
21.921,46.26
21.937,39.12
21.953,33.19
21.968,28.18
21.984,23.29
22.000,17.81
22.015,11.56
22.031,5.05
22.046,-0.84
22.062,-5.34
22.078,-8.1
22.093,-9.28
22.109,-9.35
22.125,-8.74
22.140,-7.7
22.156,-6.28
22.171,-4.48
22.187,-2.34
22.203,-0.02
22.218,2.32
22.234,4.55
22.250,6.54
22.265,8.09
22.281,8.88
22.296,8.53
22.312,6.75
22.328,3.59
22.343,-0.44
22.359,-4.45
22.375,-7.51
22.390,-8.92
22.406,-8.64
22.421,-7.19
22.437,-5.53
22.453,-4.67
22.468,-5.31
22.484,-7.67
22.500,-11.57
22.515,-16.55
22.531,-22.12
22.546,-27.98
22.562,-33.92
22.578,-39.76
22.593,-45.22
22.609,-49.87
22.625,-53.21
22.640,-54.89
22.656,-54.85
22.671,-53.43
22.687,-51.29
22.703,-49.07
22.718,-47.06
22.734,-45.06
22.750,-42.41
22.765,-38.37
22.781,-32.57
22.796,-25.18
22.812,-16.9
22.828,-8.64
22.843,-1.2
22.859,4.87
22.875,9.16
22.890,11.32
22.906,10.99
22.921,8.01
22.937,2.77
22.953,-3.69
22.968,-9.87
22.984,-14.25
23.000,-15.86
23.015,-14.58
23.031,-11.0
23.046,-6.15
23.062,-1.06
23.078,3.38
23.093,6.41
23.109,7.35
23.125,5.61
23.140,0.89
23.156,-6.64
23.171,-16.25
23.187,-26.74
23.203,-36.75
23.218,-45.01
23.234,-50.67
23.250,-53.36
23.265,-53.2
23.281,-50.72
23.296,-46.69
23.312,-41.99
23.328,-37.41
23.343,-33.48
23.359,-30.28
23.375,-27.54
23.390,-24.71
23.406,-21.31
23.421,-17.09
23.437,-12.19
23.453,-7.05
23.468,-2.21
23.484,1.92
23.500,5.27
23.515,8.16
23.531,11.15
23.546,14.78
23.562,19.3
23.578,24.57
23.593,30.06
23.609,35.08
23.625,39.06
23.640,41.64
23.656,42.85
23.671,42.95
23.687,42.37
23.703,41.54
23.718,40.81
23.734,40.4
23.750,40.42
23.765,40.85
23.781,41.56
23.796,42.37
23.812,43.06
23.828,43.49
23.843,43.62
23.859,43.58
23.875,43.66
23.890,44.12
23.906,44.97
23.921,45.68
23.937,45.19
23.953,42.12
23.968,35.31
23.984,24.42
24.000,10.17
24.015,-5.8
24.031,-21.43
24.046,-34.93
24.062,-45.15
24.078,-51.66
24.093,-54.48
24.109,-53.92
24.125,-50.38
24.140,-44.53
24.156,-37.28
24.171,-29.71
24.187,-22.71
24.203,-16.73
24.218,-11.62
24.234,-6.93
24.250,-2.29
24.265,2.37
24.281,6.69
24.296,10.16
24.312,12.37
24.328,13.31
24.343,13.34
24.359,13.04
24.375,13.03
24.390,13.73
24.406,15.29
24.421,17.6
24.437,20.34
24.453,23.05
24.468,25.24
24.484,26.52
24.500,26.73
24.515,25.95
24.531,24.42
24.546,22.42
24.562,20.13
24.578,17.68
24.593,15.15
24.609,12.65
24.625,10.31
24.640,8.28
24.656,6.59
24.671,5.18
24.687,3.9
24.703,2.64
24.718,1.39
24.734,0.2
24.750,-0.89
24.765,-1.89
24.781,-2.86
24.796,-3.9
24.812,-4.95
24.828,-5.78
24.843,-6.06
24.859,-5.46
24.875,-3.82
24.890,-1.21
24.906,2.04
24.921,5.5
24.937,8.73
24.953,11.35
24.968,13.12
24.984,13.94
25.000,13.85
25.015,13.02
25.031,11.69
25.046,10.16
25.062,8.7
25.078,7.45
25.093,6.36
25.109,5.26
25.125,3.93
25.140,2.22
25.156,0.13
25.171,-2.19
25.187,-4.53
25.203,-6.65
25.218,-8.4
25.234,-9.67
25.250,-10.42
25.265,-10.7
25.281,-10.63
25.296,-10.39
25.312,-10.22
25.328,-10.27
25.343,-10.54
25.359,-10.91
25.375,-11.13
25.390,-11.03
25.406,-10.57
25.421,-9.9
25.437,-9.25
25.453,-8.9
25.468,-9.02
25.484,-9.62
25.500,-10.61
25.515,-11.72
25.531,-12.51
25.546,-12.54
25.562,-11.42
25.578,-9.01
25.593,-5.5
25.609,-1.31
25.625,2.98
25.640,6.85
25.656,9.97
25.671,12.21
25.687,13.57
25.703,14.17
25.718,14.15
25.734,13.68
25.750,12.95
25.765,12.12
25.781,11.28
25.796,10.51
25.812,9.8
25.828,9.17
25.843,8.6
25.859,8.09
25.875,7.64
25.890,7.23
25.906,6.9
25.921,6.69
25.937,6.7
25.953,6.95
25.968,7.32
25.984,7.57
26.000,7.46
26.015,6.82
26.031,5.74
26.046,4.4
26.062,3.06
26.078,1.88
26.093,0.81
26.109,-0.34
26.125,-1.74
26.140,-3.48
26.156,-5.55
26.171,-7.79
26.187,-9.98
26.203,-11.91
26.218,-13.36
26.234,-14.18
26.250,-14.29
26.265,-13.68
26.281,-12.42
26.296,-10.63
26.312,-8.45
26.328,-5.98
26.343,-3.36
26.359,-0.74
26.375,1.62
26.390,3.44
26.406,4.51
26.421,4.74
26.437,4.24
26.453,3.31
26.468,2.24
26.484,1.26
26.500,0.49
26.515,-0.11
26.531,-0.61
26.546,-1.08
26.562,-1.55
26.578,-2.02
26.593,-2.48
26.609,-2.96
26.625,-3.51
26.640,-4.16
26.656,-4.92
26.671,-5.78
26.687,-6.69
26.703,-7.65
26.718,-8.68
26.734,-9.82
26.750,-11.1
26.765,-12.5
26.781,-13.95
26.796,-15.46
26.812,-17.01
26.828,-18.72
26.843,-20.68
26.859,-22.94
26.875,-25.37
26.890,-27.64
26.906,-29.18
26.921,-29.31
26.937,-27.47
26.953,-23.4
26.968,-17.24
26.984,-9.57
27.000,-1.17
27.015,7.09
27.031,14.53
27.046,20.68
27.062,25.39
27.078,28.66
27.093,30.65
27.109,31.65
27.125,31.97
27.140,31.99
27.156,32.02
27.171,32.29
27.187,32.85
27.203,33.61
27.218,34.36
27.234,34.86
27.250,34.96
27.265,34.56
27.281,33.75
27.296,32.67
27.312,31.51
27.328,30.4
27.343,29.3
27.359,28.02
27.375,26.22
27.390,23.6
27.406,19.97
27.421,15.42
27.437,10.23
27.453,4.86
27.468,-0.27
27.484,-4.89
27.500,-8.99
27.515,-12.76
27.531,-16.51
27.546,-20.5
27.562,-24.81
27.578,-29.35
27.593,-33.8
27.609,-37.74
27.625,-40.67
27.640,-42.15
27.656,-41.85
27.671,-39.68
27.687,-35.87
27.703,-30.91
27.718,-25.52
27.734,-20.38
27.750,-16.04
27.765,-12.76
27.781,-10.56
27.796,-9.31
27.812,-8.81
27.828,-8.9
27.843,-9.4
27.859,-10.11
27.875,-10.71
27.890,-10.86
27.906,-10.25
27.921,-8.66
27.937,-6.04
27.953,-2.47
27.968,1.93
27.984,7.03
28.000,12.76
28.015,19.06
28.031,25.8
28.046,32.7
28.062,39.33
28.078,45.14
28.093,49.61
28.109,52.35
28.125,53.21
28.140,52.24
28.156,49.67
28.171,45.89
28.187,41.42
28.203,36.88
28.218,32.85
28.234,29.67
28.250,27.11
28.265,24.25
28.281,19.59
28.296,11.55
28.312,-0.9
28.328,-17.68
28.343,-37.49
28.359,-58.19
28.375,-77.52
28.390,-93.68
28.406,-105.58
28.421,-112.71
28.437,-114.86
28.453,-111.98
28.468,-104.25
28.484,-92.34
28.500,-77.57
28.515,-61.77
28.531,-46.7
28.546,-33.59
28.562,-22.81
28.578,-13.97
28.593,-6.3
28.609,0.85
28.625,7.76
28.640,14.36
28.656,20.46
28.671,25.97
28.687,31.07
28.703,36.06
28.718,41.27
28.734,46.86
28.750,52.68
28.765,58.29
28.781,63.1
28.796,66.53
28.812,68.19
28.828,68.02
28.843,66.21
28.859,63.24
28.875,59.62
28.890,55.82
28.906,52.03
28.921,48.17
28.937,43.93
28.953,38.87
28.968,32.68
28.984,25.24
29.000,16.65
29.015,7.1
29.031,-3.24
29.046,-14.4
29.062,-26.4
29.078,-39.13
29.093,-52.13
29.109,-64.48
29.125,-74.99
29.140,-82.43
29.156,-85.95
29.171,-85.25
29.187,-80.73
29.203,-73.21
29.218,-63.8
29.234,-53.6
29.250,-43.52
29.265,-34.12
29.281,-25.55
29.296,-17.59
29.312,-9.76
29.328,-1.63
29.343,6.91
29.359,15.41
29.375,22.89
29.390,28.1
29.406,29.95
29.421,27.85
29.437,22.03
29.453,13.52
29.468,3.93
29.484,-4.82
29.500,-10.97
29.515,-13.31
29.531,-11.48
29.546,-6.03
29.562,1.75
29.578,10.36
29.593,18.5
29.609,25.45
29.625,31.16
29.640,35.98
29.656,40.39
29.671,44.77
29.687,49.25
29.703,53.76
29.718,57.94
29.734,60.98
29.750,61.58
29.765,58.2
29.781,49.49
29.796,34.95
29.812,15.34
29.828,-7.39
29.843,-30.63
29.859,-51.85
29.875,-69.3
29.890,-82.34
29.906,-91.31
29.921,-97.12
29.937,-100.73
29.953,-102.79
29.968,-103.51
29.984,-102.74
30.000,-100.13
30.015,-95.43
30.031,-88.67
30.046,-80.19
30.062,-70.44
30.078,-59.85
30.093,-48.7
30.109,-37.19
30.125,-25.59
30.140,-14.36
30.156,-4.05
30.171,4.85
30.187,12.14
30.203,18.08
30.218,23.21
30.234,28.1
30.250,32.96
30.265,37.55
30.281,41.27
30.296,43.41
30.312,43.46
30.328,41.28
30.343,37.16
30.359,31.69
30.375,25.61
30.390,19.65
30.406,14.39
30.421,10.16
30.437,7.02
30.453,4.78
30.468,3.01
30.484,1.23
30.500,-1.09
30.515,-4.37
30.531,-8.78
30.546,-14.18
30.562,-20.11
30.578,-25.85
30.593,-30.53
30.609,-33.42
30.625,-34.06
30.640,-32.44
30.656,-29.01
30.671,-24.51
30.687,-19.78
30.703,-15.49
30.718,-11.97
30.734,-9.19
30.750,-6.9
30.765,-4.78
30.781,-2.6
30.796,-0.27
30.812,2.12
30.828,4.42
30.843,6.49
30.859,8.27
30.875,9.85
30.890,11.39
30.906,13.08
30.921,15.04
30.937,17.23
30.953,19.47
30.968,21.54
30.984,23.27
31.000,24.63
31.015,25.65
31.031,26.37
31.046,26.74
31.062,26.6
31.078,25.75
31.093,24.12
31.109,21.83
31.125,19.15
31.140,16.38
31.156,13.74
31.171,11.29
31.187,8.98
31.203,6.64
31.218,4.08
31.234,1.1
31.250,-2.48
31.265,-6.73
31.281,-11.62
31.296,-16.88
31.312,-22.14
31.328,-26.98
31.343,-31.13
31.359,-34.56
31.375,-37.42
31.390,-39.92
31.406,-42.09
31.421,-43.69
31.437,-44.2
31.453,-42.99
31.468,-39.55
31.484,-33.72
31.500,-25.78
31.515,-16.42
31.531,-6.54
31.546,2.94
31.562,11.36
31.578,18.43
31.593,24.24
31.609,29.1
31.625,33.37
31.640,37.2
31.656,40.49
31.671,43.0
31.687,44.48
31.703,44.92
31.718,44.61
31.734,43.97
31.750,43.42
31.765,43.17
31.781,43.14
31.796,43.08
31.812,42.74
31.828,42.01
31.843,40.97
31.859,39.77
31.875,38.55
31.890,37.35
31.906,36.12
31.921,34.76
31.937,33.19
31.953,31.46
31.968,29.6
31.984,27.64
32.000,25.49
32.015,23.02
32.031,20.13
32.046,16.88
32.062,13.45
32.078,10.05
32.093,6.85
32.109,3.79
32.125,0.69
32.140,-2.66
32.156,-6.4
32.171,-10.45
32.187,-14.6
32.203,-18.58
32.218,-22.18
32.234,-25.32
32.250,-28.06
32.265,-30.56
32.281,-33.02
32.296,-35.61
32.312,-38.29
32.328,-40.79
32.343,-42.53
32.359,-42.73
32.375,-40.72
32.390,-36.18
32.406,-29.31
32.421,-20.79
32.437,-11.59
32.453,-2.6
32.468,5.57
32.484,12.75
32.500,19.06
32.515,24.77
32.531,30.09
32.546,35.01
32.562,39.32
32.578,42.71
32.593,44.93
32.609,45.89
32.625,45.68
32.640,44.5
32.656,42.55
32.671,40.03
32.687,37.05
32.703,33.75
32.718,30.34
32.734,27.11
32.750,24.3
32.765,22.05
32.781,20.3
32.796,18.72
32.812,16.94
32.828,14.65
32.843,11.79
32.859,8.56
32.875,5.32
32.890,2.42
32.906,0.06
32.921,-1.79
32.937,-3.32
32.953,-4.79
32.968,-6.29
32.984,-7.77
33.000,-9.05
33.015,-10.01
33.031,-10.62
33.046,-11.0
33.062,-11.4
33.078,-11.98
33.093,-12.83
33.109,-13.86
33.125,-14.92
33.140,-15.8
33.156,-16.26
33.171,-16.08
33.187,-15.0
33.203,-12.76
33.218,-9.17
33.234,-4.15
33.250,2.21
33.265,9.58
33.281,17.52
33.296,25.47
33.312,32.89
33.328,39.36
33.343,44.67
33.359,48.83
33.375,51.94
33.390,54.12
33.406,55.36
33.421,55.55
33.437,54.6
33.453,52.6
33.468,49.8
33.484,46.57
33.500,43.23
33.515,39.95
33.531,36.75
33.546,33.7
33.562,30.99
33.578,28.91
33.593,27.7
33.609,27.26
33.625,27.13
33.640,26.57
33.656,24.88
33.671,21.71
33.687,17.14
33.703,11.57
33.718,5.46
33.734,-0.86
33.750,-7.2
33.765,-13.46
33.781,-19.43
33.796,-24.79
33.812,-29.21
33.828,-32.52
33.843,-34.83
33.859,-36.57
33.875,-38.27
33.890,-40.32
33.906,-42.8
33.921,-45.4
33.937,-47.54
33.953,-48.59
33.968,-48.04
33.984,-45.74
34.000,-41.92
34.015,-37.08
34.031,-31.84
34.046,-26.68
34.062,-21.88
34.078,-17.48
34.093,-13.31
34.109,-9.26
34.125,-5.36
34.140,-1.77
34.156,1.23
34.171,3.46
34.187,4.88
34.203,5.67
34.218,6.1
34.234,6.47
34.250,7.01
34.265,7.84
34.281,8.95
34.296,10.21
34.312,11.43
34.328,12.4
34.343,12.96
34.359,13.08
34.375,12.89
34.390,12.71
34.406,12.95
34.421,13.99
34.437,15.94
34.453,18.56
34.468,21.2
34.484,22.96
34.500,22.9
34.515,20.4
34.531,15.35
34.546,8.16
34.562,-0.31
34.578,-9.15
34.593,-17.51
34.609,-24.78
34.625,-30.62
34.640,-34.81
34.656,-37.22
34.671,-37.74
34.687,-36.38
34.703,-33.3
34.718,-28.83
34.734,-23.41
34.750,-17.52
34.765,-11.54
34.781,-5.69
34.796,-0.08
34.812,5.2
34.828,10.02
34.843,14.19
34.859,17.51
34.875,19.78
34.890,21.0
34.906,21.26
34.921,20.83
34.937,20.02
34.953,19.18
34.968,18.65
34.984,18.73
35.000,19.59
35.015,21.2
35.031,23.22
35.046,25.02
35.062,25.79
35.078,24.78
35.093,21.6
35.109,16.3
35.125,9.42
35.140,1.7
35.156,-6.11
35.171,-13.51
35.187,-20.33
35.203,-26.56
35.218,-32.3
35.234,-37.59
35.250,-42.42
35.265,-46.86
35.281,-51.07
35.296,-55.25
35.312,-59.49
35.328,-63.64
35.343,-67.17
35.359,-69.32
35.375,-69.38
35.390,-66.87
35.406,-61.79
35.421,-54.58
35.437,-46.07
35.453,-37.18
35.468,-28.8
35.484,-21.52
35.500,-15.61
35.515,-10.99
35.531,-7.25
35.546,-3.88
35.562,-0.35
35.578,3.71
35.593,8.41
35.609,13.59
35.625,18.92
35.640,24.05
35.656,28.63
35.671,32.45
35.687,35.5
35.703,37.94
35.718,40.15
35.734,42.51
35.750,45.25
35.765,48.18
35.781,50.56
35.796,51.2
35.812,48.8
35.828,42.41
35.843,31.8
35.859,17.61
35.875,1.11
35.890,-16.22
35.906,-33.06
35.921,-48.47
35.937,-61.82
35.953,-72.62
35.968,-80.38
35.984,-84.68
36.000,-85.33
36.015,-82.55
36.031,-77.06
36.046,-69.81
36.062,-61.71
36.078,-53.31
36.093,-44.71
36.109,-35.76
36.125,-26.31
36.140,-16.46
36.156,-6.69
36.171,2.37
36.187,10.14
36.203,16.33
36.218,21.02
36.234,24.58
36.250,27.52
36.265,30.29
36.281,33.2
36.296,36.36
36.312,39.64
36.328,42.73
36.343,45.22
36.359,46.77
36.375,47.22
36.390,46.68
36.406,45.52
36.421,44.26
36.437,43.38
36.453,43.18
36.468,43.67
36.484,44.65
36.500,45.77
36.515,46.7
36.531,47.2
36.546,47.2
36.562,46.76
36.578,46.05
36.593,45.3
36.609,44.81
36.625,44.69
36.640,44.79
36.656,44.61
36.671,43.24
36.687,39.75
36.703,33.45
36.718,24.25
36.734,12.78
36.750,0.24
36.765,-12.01
36.781,-22.79
36.796,-31.36
36.812,-37.35
36.828,-40.66
36.843,-41.34
36.859,-39.51
36.875,-35.48
36.890,-29.76
36.906,-23.07
36.921,-16.14
36.937,-9.65
36.953,-4.01
36.968,0.53
36.984,3.92
37.000,6.16
37.015,7.21
37.031,7.06
37.046,5.71
37.062,3.25
37.078,-0.05
37.093,-3.82
37.109,-7.65
37.125,-11.15
37.140,-14.15
37.156,-16.71
37.171,-19.15
37.187,-21.93
37.203,-25.51
37.218,-30.14
37.234,-35.82
37.250,-42.26
37.265,-48.87
37.281,-54.88
37.296,-59.55
37.312,-62.25
37.328,-62.7
37.343,-61.02
37.359,-57.68
37.375,-53.34
37.390,-48.66
37.406,-44.12
37.421,-39.98
37.437,-36.24
37.453,-32.81
37.468,-29.57
37.484,-26.42
37.500,-23.35
37.515,-20.38
37.531,-17.54
37.546,-14.82
37.562,-12.18
37.578,-9.5
37.593,-6.63
37.609,-3.51
37.625,-0.22
37.640,2.99
37.656,5.69
37.671,7.46
37.687,8.03
37.703,7.4
37.718,5.91
37.734,4.13
37.750,2.64
37.765,1.91
37.781,2.11
37.796,2.94
37.812,3.72
37.828,3.5
37.843,1.35
37.859,-3.28
37.875,-10.27
37.890,-18.8
37.906,-27.45
37.921,-34.66
37.937,-39.09
37.953,-39.94
37.968,-37.09
37.984,-30.95
38.000,-22.34
38.015,-12.33
38.031,-2.13
38.046,7.14
38.062,14.52
38.078,19.44
38.093,21.77
38.109,21.74
38.125,19.81
38.140,16.49
38.156,12.26
38.171,7.58
38.187,2.96
38.203,-0.97
38.218,-3.62
38.234,-4.48
38.250,-3.48
38.265,-0.98
38.281,2.24
38.296,5.19
38.312,6.97
38.328,7.05
38.343,5.44
38.359,2.6
38.375,-0.75
38.390,-3.89
38.406,-6.31
38.421,-7.8
38.437,-8.52
38.453,-8.72
38.468,-8.72
38.484,-8.74
38.500,-8.81
38.515,-8.84
38.531,-8.69
38.546,-8.23
38.562,-7.41
38.578,-6.33
38.593,-5.25
38.609,-4.5
38.625,-4.49
38.640,-5.57
38.656,-7.82
38.671,-10.97
38.687,-14.32
38.703,-16.85
38.718,-17.42
38.734,-15.18
38.750,-9.88
38.765,-2.04
38.781,7.1
38.796,15.98
38.812,23.08
38.828,27.42
38.843,28.78
38.859,27.62
38.875,24.84
38.890,21.27
38.906,17.34
38.921,12.94
38.937,7.69
38.953,1.26
38.968,-6.14
38.984,-13.71
39.000,-20.25
39.015,-24.54
39.031,-25.82
39.046,-23.94
39.062,-19.34
39.078,-12.77
39.093,-5.05
39.109,3.14
39.125,11.19
39.140,18.55
39.156,24.7
39.171,29.25
39.187,32.04
39.203,33.25
39.218,33.38
39.234,33.0
39.250,32.65
39.265,32.6
39.281,32.89
39.296,33.31
39.312,33.64
39.328,33.62
39.343,33.19
39.359,32.41
39.375,31.5
39.390,30.77
39.406,30.38
39.421,30.42
39.437,30.66
39.453,30.68
39.468,29.99
39.484,28.1
39.500,24.75
39.515,19.92
39.531,13.87
39.546,7.01
39.562,-0.09
39.578,-6.8
39.593,-12.45
39.609,-16.38
39.625,-18.08
39.640,-17.26
39.656,-14.03
39.671,-8.84
39.687,-2.5
39.703,4.1
39.718,10.15
39.734,15.18
39.750,19.09
39.765,22.04
39.781,24.29
39.796,26.02
39.812,27.3
39.828,28.1
39.843,28.42
39.859,28.3
39.875,27.85
39.890,27.15
39.906,26.23
39.921,25.13
39.937,23.93
39.953,22.8
39.968,21.97
39.984,21.69
40.000,22.17
40.015,23.5
40.031,25.62
40.046,28.29
40.062,31.07
40.078,33.4
40.093,34.73
40.109,34.63
40.125,33.0
40.140,30.09
40.156,26.45
40.171,22.76
40.187,19.5
40.203,16.76
40.218,14.15
40.234,10.95
40.250,6.31
40.265,-0.32
40.281,-9.05
40.296,-19.38
40.312,-30.42
40.328,-41.11
40.343,-50.52
40.359,-58.08
40.375,-63.47
40.390,-66.71
40.406,-67.96
40.421,-67.57
40.437,-66.03
40.453,-63.95
40.468,-61.95
40.484,-60.52
40.500,-59.9
40.515,-59.94
40.531,-60.24
40.546,-60.23
40.562,-59.26
40.578,-56.76
40.593,-52.36
40.609,-46.01
40.625,-38.02
40.640,-29.06
40.656,-19.96
40.671,-11.54
40.687,-4.29
40.703,1.59
40.718,6.27
40.734,9.99
40.750,12.99
40.765,15.34
40.781,17.08
40.796,18.26
40.812,19.08
40.828,19.88
40.843,21.04
40.859,22.85
40.875,25.38
40.890,28.46
40.906,31.72
40.921,34.7
40.937,37.01
40.953,38.4
40.968,38.91
40.984,38.76
41.000,38.32
41.015,37.89
41.031,37.66
41.046,37.59
41.062,37.56
41.078,37.41
41.093,37.08
41.109,36.62
41.125,36.17
41.140,35.77
41.156,35.4
41.171,34.9
41.187,34.07
41.203,32.79
41.218,31.1
41.234,29.13
41.250,27.07
41.265,25.01
41.281,22.92
41.296,20.71
41.312,18.18
41.328,15.25
41.343,11.89
41.359,8.17
41.375,4.16
41.390,-0.1
41.406,-4.65
41.421,-9.52
41.437,-14.65
41.453,-19.8
41.468,-24.52
41.484,-28.15
41.500,-30.09
41.515,-29.98
41.531,-27.91
41.546,-24.36
41.562,-20.09
41.578,-15.8
41.593,-11.95
41.609,-8.66
41.625,-5.83
41.640,-3.38
41.656,-1.39
41.671,-0.08
41.687,0.38
41.703,0.02
41.718,-0.84
41.734,-1.78
41.750,-2.45
41.765,-2.79
41.781,-3.02
41.796,-3.4
41.812,-4.07
41.828,-4.87
41.843,-5.42
41.859,-5.37
41.875,-4.52
41.890,-2.98
41.906,-1.01
41.921,1.11
41.937,3.3
41.953,5.66
41.968,8.41
41.984,11.7
42.000,15.44
42.015,19.37
42.031,23.05
42.046,26.07
42.062,28.09
42.078,29.01
42.093,28.96
42.109,28.25
42.125,27.28
42.140,26.44
42.156,25.99
42.171,25.93
42.187,26.08
42.203,26.12
42.218,25.75
42.234,24.82
42.250,23.42
42.265,21.85
42.281,20.53
42.296,19.82
42.312,19.95
42.328,21.01
42.343,22.96
42.359,25.69
42.375,29.06
42.390,32.86
42.406,36.86
42.421,40.72
42.437,44.04
42.453,46.55
42.468,48.14
42.484,49.0
42.500,49.59
42.515,50.44
42.531,51.96
42.546,54.24
42.562,56.99
42.578,59.62
42.593,61.38
42.609,61.52
42.625,59.41
42.640,54.52
42.656,46.5
42.671,35.25
42.687,21.01
42.703,4.45
42.718,-13.31
42.734,-30.98
42.750,-47.31
42.765,-61.44
42.781,-72.91
42.796,-81.71
42.812,-88.03
42.828,-92.14
42.843,-94.34
42.859,-94.98
42.875,-94.53
42.890,-93.5
42.906,-92.32
42.921,-91.23
42.937,-90.18
42.953,-88.87
42.968,-87.03
42.984,-84.48
43.000,-81.22
43.015,-77.39
43.031,-73.11
43.046,-68.4
43.062,-63.19
43.078,-57.37
43.093,-50.86
43.109,-43.68
43.125,-35.93
43.140,-27.82
43.156,-19.67
43.171,-11.85
43.187,-4.81
43.203,1.16
43.218,5.9
43.234,9.48
43.250,12.12
43.265,14.07
43.281,15.47
43.296,16.31
43.312,16.51
43.328,15.95
43.343,14.66
43.359,12.74
43.375,10.38
43.390,7.83
43.406,5.3
43.421,2.98
43.437,1.0
43.453,-0.61
43.468,-1.9
43.484,-2.96
43.500,-3.92
43.515,-4.92
43.531,-6.03
43.546,-7.28
43.562,-8.64
43.578,-10.09
43.593,-11.63
43.609,-13.26
43.625,-14.95
43.640,-16.61
43.656,-18.0
43.671,-18.7
43.687,-18.29
43.703,-16.34
43.718,-12.66
43.734,-7.36
43.750,-0.86
43.765,6.23
43.781,13.2
43.796,19.43
43.812,24.5
43.828,28.13
43.843,30.25
43.859,30.9
43.875,30.22
43.890,28.47
43.906,25.91
43.921,22.77
43.937,19.2
43.953,15.27
43.968,10.92
43.984,6.25
44.000,1.48
44.015,-3.07
44.031,-6.99
44.046,-10.08
44.062,-12.41
44.078,-14.34
44.093,-16.35
44.109,-18.8
44.125,-21.78
44.140,-25.12
44.156,-28.58
44.171,-32.01
44.187,-35.38
44.203,-38.7
44.218,-41.89
44.234,-44.76
44.250,-47.1
44.265,-48.88
44.281,-50.3
44.296,-51.71
44.312,-53.32
44.328,-55.01
44.343,-56.31
44.359,-56.56
44.375,-55.31
44.390,-52.46
44.406,-48.32
44.421,-43.4
44.437,-38.19
44.453,-33.01
44.468,-28.14
44.484,-23.83
44.500,-20.34
44.515,-17.93
44.531,-16.72
44.546,-16.58
44.562,-17.22
44.578,-18.22
44.593,-19.23
44.609,-20.0
44.625,-20.44
44.640,-20.54
44.656,-20.41
44.671,-20.22
44.687,-20.17
44.703,-20.44
44.718,-21.13
44.734,-22.28
44.750,-23.79
44.765,-25.58
44.781,-27.56
44.796,-29.63
44.812,-31.65
44.828,-33.45
44.843,-34.84
44.859,-35.72
44.875,-36.15
44.890,-36.33
44.906,-36.57
44.921,-37.12
44.937,-38.01
44.953,-39.01
44.968,-39.63
44.984,-39.22
45.000,-37.13
45.015,-32.83
45.031,-26.06
45.046,-16.99
45.062,-6.22
45.078,5.33
45.093,16.59
45.109,26.64
45.125,34.98
45.140,41.56
45.156,46.73
45.171,50.9
45.187,54.38
45.203,57.2
45.218,59.22
45.234,60.31
45.250,60.47
45.265,59.95
45.281,59.13
45.296,58.46
45.312,58.31
45.328,58.95
45.343,60.52
45.359,63.08
45.375,66.57
45.390,70.87
45.406,75.73
45.421,80.74
45.437,85.46
45.453,89.5
45.468,92.61
45.484,94.7
45.500,95.86
45.515,96.23
45.531,95.98
45.546,95.15
45.562,93.69
45.578,91.41
45.593,88.13
45.609,83.74
45.625,78.31
45.640,72.09
45.656,65.48
45.671,58.92
45.687,52.75
45.703,47.05
45.718,41.69
45.734,36.31
45.750,30.52
45.765,24.05
45.781,16.86
45.796,9.17
45.812,1.4
45.828,-5.91
45.843,-12.28
45.859,-17.38
45.875,-21.12
45.890,-23.67
45.906,-25.38
45.921,-26.67
45.937,-27.9
45.953,-29.36
45.968,-31.21
45.984,-33.56
46.000,-36.47
46.015,-39.94
46.031,-43.83
46.046,-47.91
46.062,-51.79
46.078,-55.06
46.093,-57.33
46.109,-58.31
46.125,-57.94
46.140,-56.41
46.156,-54.19
46.171,-51.9
46.187,-50.12
46.203,-49.2
46.218,-49.16
46.234,-49.65
46.250,-50.2
46.265,-50.41
46.281,-50.14
46.296,-49.5
46.312,-48.77
46.328,-48.3
46.343,-48.31
46.359,-48.99
46.375,-50.35
46.390,-52.35
46.406,-54.85
46.421,-57.64
46.437,-60.41
46.453,-62.85
46.468,-64.71
46.484,-65.88
46.500,-66.48
46.515,-66.81
46.531,-67.29
46.546,-68.17
46.562,-69.34
46.578,-70.17
46.593,-69.6
46.609,-66.47
46.625,-59.93
46.640,-49.78
46.656,-36.56
46.671,-21.47
46.687,-5.97
46.703,8.54
46.718,20.99
46.734,30.78
46.750,37.8
46.765,42.39
46.781,45.2
46.796,46.94
46.812,48.18
46.828,49.1
46.843,49.53
46.859,49.1
46.875,47.54
46.890,44.9
46.906,41.63
46.921,38.37
46.937,35.77
46.953,34.25
46.968,33.91
46.984,34.6
47.000,35.93
47.015,37.44
47.031,38.63
47.046,39.03
47.062,38.27
47.078,36.27
47.093,33.22
47.109,29.59
47.125,26.02
47.140,23.1
47.156,21.22
47.171,20.45
47.187,20.52
47.203,20.95
47.218,21.21
47.234,20.92
47.250,20.01
47.265,18.68
47.281,17.26
47.296,16.01
47.312,14.87
47.328,13.55
47.343,11.57
47.359,8.69
47.375,5.11
47.390,1.47
47.406,-1.24
47.421,-2.11
47.437,-0.56
47.453,3.46
47.468,9.58
47.484,17.14
47.500,25.52
47.515,34.23
47.531,42.96
47.546,51.55
47.562,59.75
47.578,67.29
47.593,73.78
47.609,78.78
47.625,81.94
47.640,83.03
47.656,82.0
47.671,79.02
47.687,74.41
47.703,68.6
47.718,61.98
47.734,54.88
47.750,47.53
47.765,40.14
47.781,32.93
47.796,26.11
47.812,19.87
47.828,14.24
47.843,9.06
47.859,4.07
47.875,-0.94
47.890,-5.96
47.906,-10.72
47.921,-14.75
47.937,-17.67
47.953,-19.37
47.968,-20.05
47.984,-20.22
48.000,-20.46
48.015,-21.32
48.031,-23.19
48.046,-26.22
48.062,-30.37
48.078,-35.32
48.093,-40.52
48.109,-45.29
48.125,-48.99
48.140,-51.18
48.156,-51.74
48.171,-50.77
48.187,-48.55
48.203,-45.41
48.218,-41.74
48.234,-38.0
48.250,-34.73
48.265,-32.43
48.281,-31.43
48.296,-31.73
48.312,-32.9
48.328,-34.15
48.343,-34.6
48.359,-33.5
48.375,-30.41
48.390,-25.33
48.406,-18.65
48.421,-11.0
48.437,-3.12
48.453,4.31
48.468,10.79
48.484,16.03
48.500,19.94
48.515,22.61
48.531,24.14
48.546,24.77
48.562,24.72
48.578,24.27
48.593,23.71
48.609,23.25
48.625,22.97
48.640,22.89
48.656,22.95
48.671,23.18
48.687,23.64
48.703,24.5
48.718,25.86
48.734,27.76
48.750,30.06
48.765,32.48
48.781,34.66
48.796,36.2
48.812,36.79
48.828,36.19
48.843,34.39
48.859,31.55
48.875,28.01
48.890,24.16
48.906,20.31
48.921,16.62
48.937,13.08
48.953,9.62
48.968,6.24
48.984,3.04
49.000,0.23
49.015,-1.98
49.031,-3.51
49.046,-4.45
49.062,-5.01
49.078,-5.49
49.093,-6.15
49.109,-7.2
49.125,-8.74
49.140,-10.71
49.156,-12.89
49.171,-14.95
49.187,-16.49
49.203,-17.1
49.218,-16.55
49.234,-14.78
49.250,-11.97
49.265,-8.46
49.281,-4.69
49.296,-1.05
49.312,2.18
49.328,4.9
49.343,7.16
49.359,9.17
49.375,11.07
49.390,12.96
49.406,14.78
49.421,16.42
49.437,17.76
49.453,18.71
49.468,19.29
49.484,19.46
49.500,19.23
49.515,18.62
49.531,17.75
49.546,16.86
49.562,16.37
49.578,16.67
49.593,18.08
49.609,20.65
49.625,24.2
49.640,28.47
49.656,33.19
49.671,38.26
49.687,43.62
49.703,49.15
49.718,54.48
49.734,58.87
49.750,61.35
49.765,60.88
49.781,56.72
49.796,48.69
49.812,37.27
49.828,23.5
49.843,8.78
49.859,-5.53
49.875,-18.31
49.890,-28.84
49.906,-36.68
49.921,-41.65
49.937,-43.66
49.953,-42.8
49.968,-39.32
49.984,-33.75
50.000,-26.87
50.015,-19.61
50.031,-12.87
50.046,-7.38
50.062,-3.49
50.078,-1.25
50.093,-0.33
50.109,-0.27
50.125,-0.54
50.140,-0.79
50.156,-0.82
50.171,-0.66
50.187,-0.35
50.203,0.02
50.218,0.4
50.234,0.69
50.250,0.76
50.265,0.36
50.281,-0.69
50.296,-2.46
50.312,-4.84
50.328,-7.51
50.343,-10.12
50.359,-12.38
50.375,-14.12
50.390,-15.43
50.406,-16.46
50.421,-17.45
50.437,-18.56
50.453,-19.91
50.468,-21.51
50.484,-23.32
50.500,-25.22
50.515,-27.0
50.531,-28.45
50.546,-29.4
50.562,-29.78
50.578,-29.72
50.593,-29.51
50.609,-29.47
50.625,-29.79
50.640,-30.48
50.656,-31.33
50.671,-32.09
50.687,-32.48
50.703,-32.36
50.718,-31.67
50.734,-30.33
50.750,-28.26
50.765,-25.38
50.781,-21.75
50.796,-17.59
50.812,-13.29
50.828,-9.31
50.843,-6.04
50.859,-3.67
50.875,-2.17
50.890,-1.4
50.906,-1.13
50.921,-1.2
50.937,-1.51
50.953,-2.0
50.968,-2.63
50.984,-3.39
51.000,-4.29
51.015,-5.31
51.031,-6.49
51.046,-7.83
51.062,-9.35
51.078,-10.99
51.093,-12.65
51.109,-14.13
51.125,-15.29
51.140,-16.09
51.156,-16.61
51.171,-17.13
51.187,-18.03
51.203,-19.64
51.218,-22.13
51.234,-25.45
51.250,-29.31
51.265,-33.31
51.281,-37.02
51.296,-40.11
51.312,-42.37
51.328,-43.69
51.343,-44.04
51.359,-43.41
51.375,-41.86
51.390,-39.42
51.406,-36.25
51.421,-32.53
51.437,-28.54
51.453,-24.62
51.468,-21.07
51.484,-18.13
51.500,-15.92
51.515,-14.48
51.531,-13.81
51.546,-13.84
51.562,-14.47
51.578,-15.57
51.593,-16.98
51.609,-18.5
51.625,-19.9
51.640,-21.13
51.656,-22.23
51.671,-23.35
51.687,-24.66
51.703,-26.14
51.718,-27.56
51.734,-28.48
51.750,-28.48
51.765,-27.23
51.781,-24.76
51.796,-21.35
51.812,-17.47
51.828,-13.6
51.843,-10.17
51.859,-7.45
51.875,-5.58
51.890,-4.54
51.906,-4.07
51.921,-3.66
51.937,-2.55
51.953,0.13
51.968,5.08
51.984,12.73
52.000,23.13
52.015,35.98
52.031,50.84
52.046,67.17
52.062,84.41
52.078,101.94
52.093,118.94
52.109,134.36
52.125,146.93
52.140,155.27
52.156,158.16
52.171,154.76
52.187,144.85
52.203,128.94
52.218,108.16
52.234,84.0
52.250,57.99
52.265,31.49
52.281,5.56
52.296,-18.88
52.312,-41.04
52.328,-60.22
52.343,-75.96
52.359,-88.21
52.375,-97.38
52.390,-104.24
52.406,-109.68
52.421,-114.47
52.437,-119.07
52.453,-123.55
52.468,-127.67
52.484,-130.99
52.500,-133.02
52.515,-133.33
52.531,-131.71
52.546,-128.16
52.562,-122.8
52.578,-115.75
52.593,-106.95
52.609,-96.15
52.625,-83.04
52.640,-67.58
52.656,-50.16
52.671,-31.69
52.687,-13.38
52.703,3.54
52.718,18.22
52.734,30.33
52.750,40.05
52.765,47.91
52.781,54.51
52.796,60.32
52.812,65.57
52.828,70.28
52.843,74.35
52.859,77.68
52.875,80.24
52.890,82.04
52.906,83.14
52.921,83.51
52.937,83.08
52.953,81.74
52.968,79.45
52.984,76.33
53.000,72.61
53.015,68.62
53.031,64.55
53.046,60.44
53.062,56.05
53.078,51.03
53.093,45.11
53.109,38.23
53.125,30.7
53.140,23.03
53.156,15.8
53.171,9.42
53.187,3.99
53.203,-0.66
53.218,-4.89
53.234,-9.06
53.250,-13.35
53.265,-17.66
53.281,-21.61
53.296,-24.63
53.312,-26.12
53.328,-25.63
53.343,-22.98
53.359,-18.39
53.375,-12.32
53.390,-5.44
53.406,1.58
53.421,8.18
53.437,14.0
53.453,18.81
53.468,22.54
53.484,25.17
53.500,26.77
53.515,27.48
53.531,27.42
53.546,26.76
53.562,25.58
53.578,23.94
53.593,21.87
53.609,19.44
53.625,16.77
53.640,14.09
53.656,11.64
53.671,9.67
53.687,8.29
53.703,7.52
53.718,7.23
53.734,7.27
53.750,7.48
53.765,7.79
53.781,8.1
53.796,8.29
53.812,8.18
53.828,7.58
53.843,6.33
53.859,4.38
53.875,1.79
53.890,-1.24
53.906,-4.47
53.921,-7.64
53.937,-10.57
53.953,-13.15
53.968,-15.38
53.984,-17.17
54.000,-18.44
54.015,-19.02
54.031,-18.81
54.046,-17.79
54.062,-16.04
54.078,-13.65
54.093,-10.56
54.109,-6.59
54.125,-1.41
54.140,5.22
54.156,13.21
54.171,22.12
54.187,31.2
54.203,39.59
54.218,46.63
54.234,51.9
54.250,55.23
54.265,56.64
54.281,56.21
54.296,54.11
54.312,50.62
54.328,46.12
54.343,41.05
54.359,35.77
54.375,30.48
54.390,25.15
54.406,19.64
54.421,13.82
54.437,7.79
54.453,1.89
54.468,-3.4
54.484,-7.66
54.500,-10.71
54.515,-12.76
54.531,-14.21
54.546,-15.55
54.562,-17.08
54.578,-18.92
54.593,-20.96
54.609,-23.02
54.625,-25.1
54.640,-27.31
54.656,-29.92
54.671,-33.16
54.687,-37.09
54.703,-41.48
54.718,-45.87
54.734,-49.6
54.750,-52.06
54.765,-52.81
54.781,-51.72
54.796,-48.95
54.812,-44.9
54.828,-40.09
54.843,-35.02
54.859,-30.06
54.875,-25.41
54.890,-21.06
54.906,-16.89
54.921,-12.83
54.937,-8.9
54.953,-5.33
54.968,-2.39
54.984,-0.31
55.000,0.95
55.015,1.68
55.031,2.33
55.046,3.35
55.062,4.95
55.078,7.13
55.093,9.72
55.109,12.57
55.125,15.6
55.140,18.82
55.156,22.15
55.171,25.4
55.187,28.3
55.203,30.56
55.218,32.0
55.234,32.59
55.250,32.38
55.265,31.44
55.281,29.78
55.296,27.33
55.312,24.06
55.328,20.03
55.343,15.47
55.359,10.68
55.375,6.07
55.390,2.02
55.406,-1.12
55.421,-3.01
55.437,-3.49
55.453,-2.59
55.468,-0.65
55.484,1.76
55.500,4.07
55.515,5.89
55.531,7.17
55.546,8.17
55.562,9.25
55.578,10.57
55.593,12.07
55.609,13.47
55.625,14.51
55.640,15.2
55.656,15.8
55.671,16.74
55.687,18.28
55.703,20.37
55.718,22.56
55.734,24.26
55.750,24.96
55.765,24.36
55.781,22.48
55.796,19.45
55.812,15.37
55.828,10.21
55.843,3.99
55.859,-3.16
55.875,-10.73
55.890,-17.91
55.906,-23.77
55.921,-27.55
55.937,-28.93
55.953,-28.06
55.968,-25.48
55.984,-21.85
56.000,-17.81
56.015,-13.85
56.031,-10.34
56.046,-7.66
56.062,-6.15
56.078,-6.07
56.093,-7.55
56.109,-10.46
56.125,-14.43
56.140,-18.96
56.156,-23.57
56.171,-27.87
56.187,-31.65
56.203,-34.72
56.218,-36.94
56.234,-38.11
56.250,-38.04
56.265,-36.67
56.281,-34.11
56.296,-30.68
56.312,-26.79
56.328,-22.87
56.343,-19.24
56.359,-16.1
56.375,-13.51
56.390,-11.43
56.406,-9.79
56.421,-8.49
56.437,-7.36
56.453,-6.34
56.468,-5.35
56.484,-4.34
56.500,-3.29
56.515,-2.2
56.531,-1.02
56.546,0.22
56.562,1.54
56.578,2.85
56.593,4.06
56.609,5.09
56.625,5.88
56.640,6.39
56.656,6.59
56.671,6.44
56.687,5.88
56.703,4.88
56.718,3.54
56.734,2.04
56.750,0.7
56.765,-0.22
56.781,-0.6
56.796,-0.53
56.812,-0.3
56.828,-0.25
56.843,-0.65
56.859,-1.58
56.875,-2.99
56.890,-4.74
56.906,-6.72
56.921,-8.86
56.937,-10.98
56.953,-12.86
56.968,-14.19
56.984,-14.65
57.000,-14.05
57.015,-12.42
57.031,-9.92
57.046,-6.8
57.062,-3.27
57.078,0.51
57.093,4.43
57.109,8.33
57.125,11.96
57.140,15.06
57.156,17.37
57.171,18.75
57.187,19.15
57.203,18.64
57.218,17.35
57.234,15.46
57.250,13.14
57.265,10.57
57.281,7.83
57.296,4.96
57.312,1.98
57.328,-1.07
57.343,-4.1
57.359,-6.94
57.375,-9.47
57.390,-11.72
57.406,-13.93
57.421,-16.57
57.437,-20.13
57.453,-24.91
57.468,-30.78
57.484,-37.24
57.500,-43.56
57.515,-49.11
57.531,-53.62
57.546,-57.06
57.562,-59.55
57.578,-61.09
57.593,-61.48
57.609,-60.46
57.625,-57.91
57.640,-53.96
57.656,-48.92
57.671,-43.17
57.687,-36.95
57.703,-30.34
57.718,-23.43
57.734,-16.35
57.750,-9.39
57.765,-2.86
57.781,3.02
57.796,8.14
57.812,12.46
57.828,15.9
57.843,18.19
57.859,18.94
57.875,17.9
57.890,15.12
57.906,11.15
57.921,6.93
57.937,3.56
57.953,1.92
57.968,2.3
57.984,4.32
58.000,7.13
58.015,9.83
58.031,11.98
58.046,13.86
58.062,16.24
58.078,20.04
58.093,25.69
58.109,32.89
58.125,40.67
58.140,47.76
58.156,53.05
58.171,55.87
58.187,56.04
58.203,53.65
58.218,48.92
58.234,42.11
58.250,33.62
58.265,24.15
58.281,14.72
58.296,6.49
58.312,0.46
58.328,-2.75
58.343,-3.13
58.359,-1.14
58.375,2.42
58.390,6.76
58.406,11.24
58.421,15.5
58.437,19.39
58.453,22.93
58.468,26.22
58.484,29.29
58.500,32.16
58.515,34.86
58.531,37.44
58.546,40.05
58.562,42.82
58.578,45.73
58.593,48.55
58.609,50.81
58.625,51.93
58.640,51.38
58.656,48.97
58.671,44.87
58.687,39.61
58.703,33.81
58.718,28.04
58.734,22.59
58.750,17.47
58.765,12.51
58.781,7.49
58.796,2.21
58.812,-3.41
58.828,-9.29
58.843,-15.22
58.859,-20.86
58.875,-25.77
58.890,-29.56
58.906,-31.99
58.921,-33.12
58.937,-33.46
58.953,-33.93
58.968,-35.57
58.984,-39.19
59.000,-45.0
59.015,-52.44
59.031,-60.33
59.046,-67.19
59.062,-71.79
59.078,-73.44
59.093,-72.16
59.109,-68.47
59.125,-63.14
59.140,-56.91
59.156,-50.38
59.171,-44.02
59.187,-38.29
59.203,-33.55
59.218,-30.05
59.234,-27.76
59.250,-26.36
59.265,-25.35
59.281,-24.17
59.296,-22.37
59.312,-19.8
59.328,-16.61
59.343,-13.17
59.359,-9.94
59.375,-7.3
59.390,-5.43
59.406,-4.24
59.421,-3.36
59.437,-2.19
59.453,-0.06
59.468,3.56
59.484,8.89
59.500,15.66
59.515,23.23
59.531,30.74
59.546,37.36
59.562,42.54
59.578,46.11
59.593,48.13
59.609,48.85
59.625,48.46
59.640,47.06
59.656,44.7
59.671,41.48
59.687,37.69
59.703,33.75
59.718,30.13
59.734,27.13
59.750,24.83
59.765,23.01
59.781,21.37
59.796,19.61
59.812,17.63
59.828,15.55
59.843,13.57
59.859,11.89
59.875,10.54
59.890,9.46
59.906,8.44
59.921,7.41
59.937,6.4
59.953,5.58
59.968,5.13
59.984,5.21
