timestamp,value
00.000,-25.94
00.015,-28.86
00.031,-31.59
00.046,-33.66
00.062,-34.61
00.078,-33.98
00.093,-31.5
00.109,-27.13
00.125,-21.11
00.140,-13.94
00.156,-6.25
00.171,1.33
00.187,8.36
00.203,14.53
00.218,19.78
00.234,24.11
00.250,27.56
00.265,30.15
00.281,31.83
00.296,32.57
00.312,32.38
00.328,31.35
00.343,29.63
00.359,27.42
00.375,24.95
00.390,22.43
00.406,20.1
00.421,18.12
00.437,16.62
00.453,15.6
00.468,14.95
00.484,14.45
00.500,13.88
00.515,13.0
00.531,11.65
00.546,9.79
00.562,7.49
00.578,4.91
00.593,2.23
00.609,-0.37
00.625,-2.82
00.640,-5.1
00.656,-7.33
00.671,-9.63
00.687,-12.12
00.703,-14.85
00.718,-17.73
00.734,-20.57
00.750,-23.16
00.765,-25.34
00.781,-27.11
00.796,-28.62
00.812,-30.15
00.828,-31.97
00.843,-34.15
00.859,-36.54
00.875,-38.76
00.890,-40.26
00.906,-40.51
00.921,-39.17
00.937,-36.11
00.953,-31.44
00.968,-25.47
00.984,-18.62
01.000,-11.37
01.015,-4.2
01.031,2.48
01.046,8.35
01.062,13.18
01.078,16.88
01.093,19.47
01.109,21.03
01.125,21.67
01.140,21.52
01.156,20.73
01.171,19.44
01.187,17.81
01.203,16.01
01.218,14.22
01.234,12.58
01.250,11.22
01.265,10.22
01.281,9.59
01.296,9.24
01.312,9.03
01.328,8.78
01.343,8.35
01.359,7.72
01.375,6.94
01.390,6.11
01.406,5.25
01.421,4.28
01.437,3.02
01.453,1.31
01.468,-0.85
01.484,-3.32
01.500,-5.83
01.515,-8.1
01.531,-10.03
01.546,-11.64
01.562,-13.09
01.578,-14.54
01.593,-16.0
01.609,-17.42
01.625,-18.73
01.640,-19.93
01.656,-21.09
01.671,-22.26
01.687,-23.36
01.703,-24.08
01.718,-23.92
01.734,-22.37
01.750,-19.15
01.765,-14.31
01.781,-8.3
01.796,-1.8
01.812,4.5
01.828,10.07
01.843,14.61
01.859,18.07
01.875,20.54
01.890,22.22
01.906,23.22
01.921,23.69
01.937,23.68
01.953,23.23
01.968,22.33
01.984,21.04
02.000,19.42
02.015,17.62
02.031,15.81
02.046,14.18
02.062,12.87
02.078,11.94
02.093,11.3
02.109,10.84
02.125,10.42
02.140,9.92
02.156,9.28
02.171,8.45
02.187,7.36
02.203,5.89
02.218,3.96
02.234,1.59
02.250,-1.06
02.265,-3.75
02.281,-6.23
02.296,-8.36
02.312,-10.17
02.328,-11.74
02.343,-13.22
02.359,-14.67
02.375,-16.15
02.390,-17.71
02.406,-19.42
02.421,-21.3
02.437,-23.21
02.453,-24.77
02.468,-25.45
02.484,-24.73
02.500,-22.26
02.515,-18.09
02.531,-12.56
02.546,-6.24
02.562,0.25
02.578,6.39
02.593,11.83
02.609,16.39
02.625,20.01
02.640,22.63
02.656,24.21
02.671,24.76
02.687,24.29
02.703,22.95
02.718,20.99
02.734,18.68
02.750,16.33
02.765,14.15
02.781,12.26
02.796,10.72
02.812,9.59
02.828,8.9
02.843,8.65
02.859,8.75
02.875,8.98
02.890,9.05
02.906,8.71
02.921,7.82
02.937,6.43
02.953,4.7
02.968,2.8
02.984,0.85
03.000,-1.1
03.015,-3.05
03.031,-4.96
03.046,-6.76
03.062,-8.39
03.078,-9.81
03.093,-11.08
03.109,-12.33
03.125,-13.74
03.140,-15.45
03.156,-17.49
03.171,-19.73
03.187,-21.89
03.203,-23.57
03.218,-24.28
03.234,-23.61
03.250,-21.28
03.265,-17.27
03.281,-11.84
03.296,-5.47
03.312,1.22
03.328,7.65
03.343,13.33
03.359,17.98
03.375,21.49
03.390,23.91
03.406,25.36
03.421,25.96
03.437,25.82
03.453,25.0
03.468,23.59
03.484,21.74
03.500,19.67
03.515,17.56
03.531,15.57
03.546,13.78
03.562,12.18
03.578,10.74
03.593,9.42
03.609,8.26
03.625,7.32
03.640,6.64
03.656,6.17
03.671,5.71
03.687,5.02
03.703,3.83
03.718,2.03
03.734,-0.32
03.750,-2.91
03.765,-5.4
03.781,-7.51
03.796,-9.18
03.812,-10.61
03.828,-12.03
03.843,-13.62
03.859,-15.37
03.875,-17.08
03.890,-18.54
03.906,-19.61
03.921,-20.36
03.937,-21.04
03.953,-21.96
03.968,-23.37
03.984,-25.39
04.000,-27.92
04.015,-30.69
04.031,-33.23
04.046,-34.96
04.062,-35.35
04.078,-33.99
04.093,-30.72
04.109,-25.68
04.125,-19.3
04.140,-12.17
04.156,-4.87
04.171,2.08
04.187,8.32
04.203,13.69
04.218,18.11
04.234,21.63
04.250,24.31
04.265,26.18
04.281,27.25
04.296,27.55
04.312,27.12
04.328,26.06
04.343,24.55
04.359,22.81
04.375,21.06
04.390,19.48
04.406,18.15
04.421,17.09
04.437,16.26
04.453,15.58
04.468,14.95
04.484,14.29
04.500,13.52
04.515,12.56
04.531,11.39
04.546,9.96
04.562,8.31
04.578,6.52
04.593,4.69
04.609,2.97
04.625,1.44
04.640,0.11
04.656,-1.11
04.671,-2.4
04.687,-3.91
04.703,-5.71
04.718,-7.77
04.734,-9.99
04.750,-12.27
04.765,-14.53
04.781,-16.78
04.796,-19.0
04.812,-21.14
04.828,-23.17
04.843,-25.03
04.859,-26.81
04.875,-28.67
04.890,-30.77
04.906,-33.12
04.921,-35.49
04.937,-37.37
04.953,-38.16
04.968,-37.31
04.984,-34.54
05.000,-29.88
05.015,-23.69
05.031,-16.49
05.046,-8.87
05.062,-1.35
05.078,5.67
05.093,11.91
05.109,17.15
05.125,21.24
05.140,24.07
05.156,25.62
05.171,25.99
05.187,25.42
05.203,24.27
05.218,22.92
05.234,21.63
05.250,20.46
05.265,19.32
05.281,18.06
05.296,16.61
05.312,15.04
05.328,13.56
05.343,12.36
05.359,11.52
05.375,10.99
05.390,10.61
05.406,10.19
05.421,9.66
05.437,8.97
05.453,8.13
05.468,7.1
05.484,5.83
05.500,4.28
05.515,2.52
05.531,0.69
05.546,-1.01
05.562,-2.4
05.578,-3.5
05.593,-4.47
05.609,-5.6
05.625,-7.11
05.640,-9.12
05.656,-11.51
05.671,-14.03
05.687,-16.39
05.703,-18.42
05.718,-20.13
05.734,-21.7
05.750,-23.43
05.765,-25.53
05.781,-28.13
05.796,-31.04
05.812,-33.87
05.828,-36.04
05.843,-36.9
05.859,-35.96
05.875,-33.01
05.890,-28.18
05.906,-21.91
05.921,-14.83
05.937,-7.57
05.953,-0.61
05.968,5.68
05.984,11.12
06.000,15.54
06.015,18.83
06.031,20.95
06.046,21.95
06.062,22.04
06.078,21.5
06.093,20.65
06.109,19.63
06.125,18.47
06.140,17.09
06.156,15.45
06.171,13.61
06.187,11.8
06.203,10.27
06.218,9.24
06.234,8.76
06.250,8.66
06.265,8.72
06.281,8.66
06.296,8.29
06.312,7.49
06.328,6.24
06.343,4.61
06.359,2.72
06.375,0.74
06.390,-1.16
06.406,-2.86
06.421,-4.33
06.437,-5.66
06.453,-6.98
06.468,-8.45
06.484,-10.19
06.500,-12.25
06.515,-14.55
06.531,-16.96
06.546,-19.26
06.562,-21.22
06.578,-22.72
06.593,-23.81
06.609,-24.71
06.625,-25.77
06.640,-27.3
06.656,-29.43
06.671,-31.92
06.687,-34.17
06.703,-35.42
06.718,-34.97
06.734,-32.4
06.750,-27.76
06.765,-21.5
06.781,-14.33
06.796,-6.94
06.812,0.09
06.828,6.42
06.843,11.87
06.859,16.31
06.875,19.68
06.890,21.93
06.906,23.11
06.921,23.35
06.937,22.91
06.953,22.03
06.968,20.92
06.984,19.66
07.000,18.29
07.015,16.85
07.031,15.41
07.046,14.14
07.062,13.21
07.078,12.73
07.093,12.66
07.109,12.82
07.125,12.95
07.140,12.76
07.156,12.06
07.171,10.74
07.187,8.84
07.203,6.45
07.218,3.74
07.234,0.86
07.250,-2.0
07.265,-4.67
07.281,-7.08
07.296,-9.2
07.312,-11.09
07.328,-12.83
07.343,-14.51
07.359,-16.19
07.375,-17.92
07.390,-19.75
07.406,-21.77
07.421,-24.03
07.437,-26.47
07.453,-28.82
07.468,-30.68
07.484,-31.52
07.500,-30.85
07.515,-28.36
07.531,-24.01
07.546,-18.05
07.562,-10.99
07.578,-3.49
07.593,3.81
07.609,10.34
07.625,15.77
07.640,20.0
07.656,23.09
07.671,25.19
07.687,26.42
07.703,26.85
07.718,26.47
07.734,25.35
07.750,23.64
07.765,21.63
07.781,19.67
07.796,18.08
07.812,17.01
07.828,16.45
07.843,16.22
07.859,16.14
07.875,16.1
07.890,16.02
07.906,15.89
07.921,15.66
07.937,15.23
07.953,14.45
07.968,13.22
07.984,11.5
08.000,9.32
08.015,6.81
08.031,4.08
08.046,1.25
08.062,-1.59
08.078,-4.41
08.093,-7.21
08.109,-10.05
08.125,-13.07
08.140,-16.39
08.156,-20.06
08.171,-24.03
08.187,-28.04
08.203,-31.72
08.218,-34.58
08.234,-36.08
08.250,-35.76
08.265,-33.32
08.281,-28.72
08.296,-22.2
08.312,-14.3
08.328,-5.72
08.343,2.75
08.359,10.38
08.375,16.62
08.390,21.2
08.406,24.11
08.421,25.6
08.437,26.04
08.453,25.83
08.468,25.25
08.484,24.41
08.500,23.31
08.515,21.92
08.531,20.27
08.546,18.51
08.562,16.83
08.578,15.41
08.593,14.28
08.609,13.38
08.625,12.56
08.640,11.72
08.656,10.8
08.671,9.8
08.687,8.7
08.703,7.45
08.718,5.88
08.734,3.86
08.750,1.28
08.765,-1.85
08.781,-5.35
08.796,-8.95
08.812,-12.41
08.828,-15.53
08.843,-18.28
08.859,-20.75
08.875,-23.13
08.890,-25.64
08.906,-28.5
08.921,-31.77
08.937,-35.36
08.953,-38.91
08.968,-41.86
08.984,-43.5
09.000,-43.2
09.015,-40.57
09.031,-35.54
09.046,-28.37
09.062,-19.57
09.078,-9.81
09.093,0.19
09.109,9.72
09.125,18.13
09.140,24.9
09.156,29.81
09.171,32.93
09.187,34.58
09.203,35.22
09.218,35.18
09.234,34.67
09.250,33.7
09.265,32.26
09.281,30.4
09.296,28.31
09.312,26.3
09.328,24.56
09.343,23.22
09.359,22.2
09.375,21.34
09.390,20.5
09.406,19.61
09.421,18.69
09.437,17.8
09.453,16.96
09.468,15.99
09.484,14.62
09.500,12.53
09.515,9.51
09.531,5.57
09.546,0.97
09.562,-3.81
09.578,-8.29
09.593,-12.13
09.609,-15.25
09.625,-17.79
09.640,-20.05
09.656,-22.37
09.671,-25.07
09.687,-28.26
09.703,-31.8
09.718,-35.3
09.734,-38.1
09.750,-39.42
09.765,-38.59
09.781,-35.19
09.796,-29.28
09.812,-21.33
09.828,-12.09
09.843,-2.47
09.859,6.68
09.875,14.72
09.890,21.21
09.906,26.02
09.921,29.23
09.937,31.04
09.953,31.67
09.968,31.33
09.984,30.15
10.000,28.29
10.015,25.97
10.031,23.49
10.046,21.16
10.062,19.2
10.078,17.64
10.093,16.42
10.109,15.37
10.125,14.36
10.140,13.33
10.156,12.3
10.171,11.24
10.187,10.15
10.203,8.95
10.218,7.58
10.234,5.97
10.250,4.05
10.265,1.78
10.281,-0.85
10.296,-3.75
10.312,-6.76
10.328,-9.66
10.343,-12.3
10.359,-14.61
10.375,-16.67
10.390,-18.66
10.406,-20.78
10.421,-23.24
10.437,-26.13
10.453,-29.4
10.468,-32.83
10.484,-35.94
10.500,-38.06
10.515,-38.5
10.531,-36.68
10.546,-32.35
10.562,-25.67
10.578,-17.24
10.593,-7.86
10.609,1.55
10.625,10.21
10.640,17.58
10.656,23.39
10.671,27.59
10.687,30.31
10.703,31.77
10.718,32.19
10.734,31.75
10.750,30.63
10.765,28.96
10.781,26.89
10.796,24.62
10.812,22.3
10.828,20.09
10.843,18.08
10.859,16.33
10.875,14.82
10.890,13.51
10.906,12.33
10.921,11.18
10.937,10.02
10.953,8.77
10.968,7.41
10.984,5.86
11.000,4.11
11.015,2.11
11.031,-0.12
11.046,-2.5
11.062,-4.91
11.078,-7.23
11.093,-9.41
11.109,-11.49
11.125,-13.53
11.140,-15.61
11.156,-17.71
11.171,-19.79
11.187,-21.76
11.203,-23.63
11.218,-25.47
11.234,-27.42
11.250,-29.65
11.265,-32.18
11.281,-34.85
11.296,-37.28
11.312,-38.88
11.328,-39.03
11.343,-37.21
11.359,-33.22
11.375,-27.21
11.390,-19.69
11.406,-11.39
11.421,-3.05
11.437,4.65
11.453,11.3
11.468,16.67
11.484,20.7
11.500,23.46
11.515,25.09
11.531,25.74
11.546,25.56
11.562,24.7
11.578,23.28
11.593,21.48
11.609,19.48
11.625,17.51
11.640,15.76
11.656,14.39
11.671,13.41
11.687,12.73
11.703,12.2
11.718,11.7
11.734,11.19
11.750,10.66
11.765,10.12
11.781,9.54
11.796,8.81
11.812,7.78
11.828,6.35
11.843,4.55
11.859,2.51
11.875,0.44
11.890,-1.52
11.906,-3.3
11.921,-4.99
11.937,-6.69
11.953,-8.53
11.968,-10.51
11.984,-12.58
12.000,-14.68
12.015,-16.79
12.031,-18.93
12.046,-21.06
12.062,-23.0
12.078,-24.37
12.093,-24.64
12.109,-23.28
12.125,-19.99
12.140,-14.81
12.156,-8.15
12.171,-0.7
12.187,6.8
12.203,13.7
12.218,19.56
12.234,24.16
12.250,27.43
12.265,29.36
12.281,29.92
12.296,29.15
12.312,27.19
12.328,24.37
12.343,21.1
12.359,17.87
12.375,15.03
12.390,12.75
12.406,11.03
12.421,9.71
12.437,8.67
12.453,7.79
12.468,7.07
12.484,6.48
12.500,6.01
12.515,5.61
12.531,5.17
12.546,4.56
12.562,3.66
12.578,2.38
12.593,0.68
12.609,-1.38
12.625,-3.69
12.640,-6.07
12.656,-8.37
12.671,-10.54
12.687,-12.58
12.703,-14.6
12.718,-16.72
12.734,-19.07
12.750,-21.64
12.765,-24.35
12.781,-26.98
12.796,-29.18
12.812,-30.6
12.828,-30.81
12.843,-29.52
12.859,-26.52
12.875,-21.82
12.890,-15.63
12.906,-8.4
12.921,-0.72
12.937,6.72
12.953,13.27
12.968,18.48
12.984,22.17
13.000,24.44
13.015,25.53
13.031,25.74
13.046,25.3
13.062,24.34
13.078,22.93
13.093,21.17
13.109,19.25
13.125,17.36
13.140,15.67
13.156,14.26
13.171,13.13
13.187,12.21
13.203,11.51
13.218,11.03
13.234,10.79
13.250,10.76
13.265,10.79
13.281,10.63
13.296,10.02
13.312,8.78
13.328,6.8
13.343,4.15
13.359,1.01
13.375,-2.35
13.390,-5.58
13.406,-8.39
13.421,-10.56
13.437,-12.04
13.453,-12.99
13.468,-13.8
13.484,-14.86
13.500,-16.54
13.515,-18.99
13.531,-22.1
13.546,-25.5
13.562,-28.65
13.578,-30.94
13.593,-31.77
13.609,-30.73
13.625,-27.56
13.640,-22.37
13.656,-15.58
13.671,-7.89
13.687,-0.11
13.703,7.03
13.718,13.02
13.734,17.66
13.750,20.99
13.765,23.14
13.781,24.27
13.796,24.47
13.812,23.81
13.828,22.44
13.843,20.56
13.859,18.43
13.875,16.27
13.890,14.18
13.906,12.23
13.921,10.44
13.937,8.82
13.953,7.48
13.968,6.48
13.984,5.83
14.000,5.4
14.015,5.0
14.031,4.39
14.046,3.45
14.062,2.18
14.078,0.69
14.093,-0.87
14.109,-2.43
14.125,-3.99
14.140,-5.63
14.156,-7.44
14.171,-9.5
14.187,-11.78
14.203,-14.16
14.218,-16.49
14.234,-18.64
14.250,-20.56
14.265,-22.3
14.281,-23.92
14.296,-25.53
14.312,-27.16
14.328,-28.8
14.343,-30.36
14.359,-31.66
14.375,-32.4
14.390,-32.21
14.406,-30.72
14.421,-27.62
14.437,-22.87
14.453,-16.72
14.468,-9.65
14.484,-2.31
14.500,4.69
14.515,10.89
14.531,16.03
14.546,20.04
14.562,22.95
14.578,24.82
14.593,25.73
14.609,25.76
14.625,25.06
14.640,23.87
14.656,22.44
14.671,20.99
14.687,19.66
14.703,18.43
14.718,17.21
14.734,15.95
14.750,14.63
14.765,13.36
14.781,12.26
14.796,11.39
14.812,10.73
14.828,10.15
14.843,9.5
14.859,8.69
14.875,7.7
14.890,6.55
14.906,5.19
14.921,3.56
14.937,1.57
14.953,-0.79
14.968,-3.4
14.984,-6.08
15.000,-8.58
15.015,-10.78
15.031,-12.64
15.046,-14.27
15.062,-15.82
15.078,-17.44
15.093,-19.21
15.109,-21.15
15.125,-23.29
15.140,-25.64
15.156,-28.14
15.171,-30.63
15.187,-32.75
15.203,-33.99
15.218,-33.82
15.234,-31.81
15.250,-27.81
15.265,-22.06
15.281,-15.1
15.296,-7.62
15.312,-0.28
15.328,6.42
15.343,12.23
15.359,17.03
15.375,20.81
15.390,23.56
15.406,25.24
15.421,25.86
15.437,25.5
15.453,24.33
15.468,22.61
15.484,20.54
15.500,18.33
15.515,16.1
15.531,13.96
15.546,12.05
15.562,10.46
15.578,9.28
15.593,8.45
15.609,7.86
15.625,7.33
15.640,6.72
15.656,5.94
15.671,4.96
15.687,3.76
15.703,2.3
15.718,0.55
15.734,-1.52
15.750,-3.85
15.765,-6.31
15.781,-8.78
15.796,-11.15
15.812,-13.39
15.828,-15.47
15.843,-17.35
15.859,-18.94
15.875,-20.2
15.890,-21.13
15.906,-21.91
15.921,-22.77
15.937,-23.93
15.953,-25.51
15.968,-27.42
15.984,-29.42
16.000,-31.07
16.015,-31.9
16.031,-31.49
16.046,-29.53
16.062,-25.91
16.078,-20.78
16.093,-14.49
16.109,-7.6
16.125,-0.73
16.140,5.6
16.156,11.01
16.171,15.32
16.187,18.51
16.203,20.62
16.218,21.73
16.234,21.99
16.250,21.55
16.265,20.61
16.281,19.31
16.296,17.81
16.312,16.18
16.328,14.52
16.343,12.92
16.359,11.52
16.375,10.45
16.390,9.76
16.406,9.42
16.421,9.34
16.437,9.36
16.453,9.4
16.468,9.37
16.484,9.18
16.500,8.73
16.515,7.83
16.531,6.36
16.546,4.27
16.562,1.72
16.578,-1.02
16.593,-3.62
16.609,-5.86
16.625,-7.7
16.640,-9.25
16.656,-10.72
16.671,-12.29
16.687,-14.06
16.703,-16.01
16.718,-18.08
16.734,-20.14
16.750,-21.98
16.765,-23.34
16.781,-23.84
16.796,-23.13
16.812,-20.93
16.828,-17.18
16.843,-12.06
16.859,-6.02
16.875,0.4
16.890,6.65
16.906,12.26
16.921,16.92
16.937,20.44
16.953,22.8
16.968,24.05
16.984,24.34
17.000,23.84
17.015,22.76
17.031,21.26
17.046,19.52
17.062,17.69
17.078,15.96
17.093,14.5
17.109,13.42
17.125,12.76
17.140,12.48
17.156,12.5
17.171,12.69
17.187,12.92
17.203,13.06
17.218,13.0
17.234,12.65
17.250,11.94
17.265,10.81
17.281,9.26
17.296,7.3
17.312,4.97
17.328,2.41
17.343,-0.22
17.359,-2.72
17.375,-4.92
17.390,-6.8
17.406,-8.44
17.421,-10.11
17.437,-12.1
17.453,-14.6
17.468,-17.59
17.484,-20.79
17.500,-23.68
17.515,-25.67
17.531,-26.23
17.546,-24.99
17.562,-21.88
17.578,-17.07
17.593,-10.93
17.609,-3.99
17.625,3.19
17.640,10.09
17.656,16.29
17.671,21.48
17.687,25.49
17.703,28.21
17.718,29.61
17.734,29.71
17.750,28.58
17.765,26.43
17.781,23.56
17.796,20.37
17.812,17.28
17.828,14.67
17.843,12.78
17.859,11.69
17.875,11.32
17.890,11.53
17.906,12.1
17.921,12.8
17.937,13.44
17.953,13.85
17.968,13.95
17.984,13.73
18.000,13.22
18.015,12.51
18.031,11.7
18.046,10.9
18.062,10.23
18.078,9.74
18.093,9.43
18.109,9.21
18.125,8.95
18.140,8.47
18.156,7.68
18.171,6.61
18.187,5.39
18.203,4.2
18.218,3.17
18.234,2.35
18.250,1.7
18.265,1.16
18.281,0.69
18.296,0.36
18.312,0.2
18.328,0.25
18.343,0.4
18.359,0.53
18.375,0.48
18.390,0.17
18.406,-0.37
18.421,-1.11
18.437,-1.94
18.453,-2.79
18.468,-3.59
18.484,-4.32
18.500,-4.96
18.515,-5.55
18.531,-6.11
18.546,-6.61
18.562,-6.96
18.578,-7.02
18.593,-6.64
18.609,-5.83
18.625,-4.74
18.640,-3.69
18.656,-3.04
18.671,-3.05
18.687,-3.79
18.703,-5.16
18.718,-6.95
18.734,-8.98
18.750,-11.13
18.765,-13.4
18.781,-15.8
18.796,-18.35
18.812,-20.97
18.828,-23.54
18.843,-25.86
18.859,-27.77
18.875,-29.19
18.890,-30.16
18.906,-30.85
18.921,-31.46
18.937,-32.21
18.953,-33.27
18.968,-34.76
18.984,-36.7
19.000,-39.02
19.015,-41.49
19.031,-43.68
19.046,-44.96
19.062,-44.62
19.078,-42.08
19.093,-37.09
19.109,-29.84
19.125,-20.96
19.140,-11.29
19.156,-1.74
19.171,6.94
19.187,14.24
19.203,19.95
19.218,24.04
19.234,26.6
19.250,27.79
19.265,27.75
19.281,26.68
19.296,24.77
19.312,22.3
19.328,19.48
19.343,16.53
19.359,13.54
19.375,10.52
19.390,7.42
19.406,4.27
19.421,1.14
19.437,-1.78
19.453,-4.33
19.468,-6.43
19.484,-8.09
19.500,-9.38
19.515,-10.38
19.531,-11.15
19.546,-11.74
19.562,-12.22
19.578,-12.65
19.593,-13.09
19.609,-13.51
19.625,-13.78
19.640,-13.79
19.656,-13.59
19.671,-13.41
19.687,-13.69
19.703,-14.92
19.718,-17.39
19.734,-21.07
19.750,-25.53
19.765,-29.99
19.781,-33.51
19.796,-35.25
19.812,-34.65
19.828,-31.58
19.843,-26.33
19.859,-19.55
19.875,-12.05
19.890,-4.65
19.906,2.04
19.921,7.61
19.937,11.93
19.953,15.01
19.968,17.03
19.984,18.21
20.000,18.83
20.015,19.14
20.031,19.3
20.046,19.36
20.062,19.27
20.078,18.89
20.093,18.11
20.109,16.87
20.125,15.2
20.140,13.18
20.156,10.91
20.171,8.47
20.187,5.93
20.203,3.31
20.218,0.61
20.234,-2.23
20.250,-5.34
20.265,-8.84
20.281,-12.75
20.296,-16.94
20.312,-21.15
20.328,-25.02
20.343,-28.3
20.359,-30.94
20.375,-33.06
20.390,-34.85
20.406,-36.36
20.421,-37.4
20.437,-37.53
20.453,-36.3
20.468,-33.44
20.484,-29.0
20.500,-23.38
20.515,-17.13
20.531,-10.75
20.546,-4.55
20.562,1.36
20.578,6.98
20.593,12.3
20.609,17.16
20.625,21.33
20.640,24.61
20.656,26.9
20.671,28.3
20.687,29.07
20.703,29.5
20.718,29.86
20.734,30.24
20.750,30.59
20.765,30.76
20.781,30.63
20.796,30.18
20.812,29.51
20.828,28.8
20.843,28.22
20.859,27.77
20.875,27.27
20.890,26.35
20.906,24.57
20.921,21.58
20.937,17.2
20.953,11.44
20.968,4.42
20.984,-3.61
21.000,-12.29
21.015,-21.07
21.031,-29.18
21.046,-35.75
21.062,-39.94
21.078,-41.21
21.093,-39.4
21.109,-34.68
21.125,-27.45
21.140,-18.12
21.156,-7.14
21.171,4.99
21.187,17.67
21.203,30.21
21.218,41.93
21.234,52.3
21.250,61.05
21.265,68.12
21.281,73.52
21.296,77.15
21.312,78.67
21.328,77.6
21.343,73.5
21.359,66.21
21.375,56.05
21.390,43.86
21.406,30.92
21.421,18.63
21.437,8.24
21.453,0.65
21.468,-3.74
21.484,-4.98
21.500,-3.38
21.515,0.56
21.531,6.22
21.546,12.89
21.562,19.66
21.578,25.45
21.593,29.07
21.609,29.41
21.625,25.68
21.640,17.67
21.656,5.89
21.671,-8.59
21.687,-24.33
21.703,-39.89
21.718,-54.14
21.734,-66.39
21.750,-76.22
21.765,-83.28
21.781,-87.07
21.796,-86.93
21.812,-82.27
21.828,-72.92
21.843,-59.37
21.859,-42.77
21.875,-24.66
21.890,-6.56
21.906,10.32
21.921,25.16
21.937,37.39
21.953,46.57
21.968,52.32
21.984,54.46
22.000,53.12
22.015,48.92
22.031,42.77
22.046,35.64
22.062,28.33
22.078,21.4
22.093,15.25
22.109,10.26
22.125,6.7
22.140,4.67
22.156,3.91
22.171,3.81
22.187,3.7
22.203,3.1
22.218,1.98
22.234,0.69
22.250,-0.29
22.265,-0.65
22.281,-0.46
22.296,0.03
22.312,0.5
22.328,0.81
22.343,0.99
22.359,1.11
22.375,1.11
22.390,0.66
22.406,-0.71
22.421,-3.44
22.437,-7.73
22.453,-13.35
22.468,-19.72
22.484,-25.92
22.500,-30.88
22.515,-33.69
22.531,-33.74
22.546,-30.94
22.562,-25.79
22.578,-19.15
22.593,-12.07
22.609,-5.44
22.625,0.14
22.640,4.46
22.656,7.59
22.671,9.74
22.687,11.16
22.703,12.09
22.718,12.73
22.734,13.22
22.750,13.66
22.765,14.07
22.781,14.39
22.796,14.45
22.812,14.14
22.828,13.35
22.843,12.13
22.859,10.68
22.875,9.26
22.890,8.2
22.906,7.75
22.921,8.06
22.937,9.07
22.953,10.54
22.968,12.06
22.984,13.14
23.000,13.37
23.015,12.52
23.031,10.61
23.046,7.94
23.062,4.94
23.078,2.03
23.093,-0.52
23.109,-2.67
23.125,-4.55
23.140,-6.38
23.156,-8.32
23.171,-10.49
23.187,-12.92
23.203,-15.66
23.218,-18.66
23.234,-21.88
23.250,-25.16
23.265,-28.28
23.281,-31.03
23.296,-33.32
23.312,-35.22
23.328,-36.9
23.343,-38.52
23.359,-40.01
23.375,-41.1
23.390,-41.29
23.406,-40.06
23.421,-37.09
23.437,-32.42
23.453,-26.35
23.468,-19.41
23.484,-12.18
23.500,-5.12
23.515,1.43
23.531,7.23
23.546,12.12
23.562,15.93
23.578,18.55
23.593,19.91
23.609,20.12
23.625,19.42
23.640,18.23
23.656,16.96
23.671,15.92
23.687,15.3
23.703,15.12
23.718,15.25
23.734,15.54
23.750,15.84
23.765,15.97
23.781,15.86
23.796,15.46
23.812,14.8
23.828,14.0
23.843,13.19
23.859,12.46
23.875,11.85
23.890,11.3
23.906,10.76
23.921,10.2
23.937,9.57
23.953,8.84
23.968,7.85
23.984,6.41
24.000,4.43
24.015,1.96
24.031,-0.72
24.046,-3.27
24.062,-5.37
24.078,-6.93
24.093,-8.05
24.109,-8.97
24.125,-9.93
24.140,-11.16
24.156,-12.82
24.171,-15.07
24.187,-17.94
24.203,-21.26
24.218,-24.57
24.234,-27.16
24.250,-28.2
24.265,-27.09
24.281,-23.63
24.296,-18.13
24.312,-11.3
24.328,-4.03
24.343,2.92
24.359,8.99
24.375,13.91
24.390,17.64
24.406,20.23
24.421,21.85
24.437,22.67
24.453,22.94
24.468,22.92
24.484,22.91
24.500,23.09
24.515,23.46
24.531,23.83
24.546,23.85
24.562,23.18
24.578,21.63
24.593,19.26
24.609,16.39
24.625,13.54
24.640,11.23
24.656,9.83
24.671,9.43
24.687,9.82
24.703,10.56
24.718,11.13
24.734,11.1
24.750,10.26
24.765,8.64
24.781,6.46
24.796,4.05
24.812,1.69
24.828,-0.43
24.843,-2.22
24.859,-3.68
24.875,-4.8
24.890,-5.61
24.906,-6.18
24.921,-6.7
24.937,-7.37
24.953,-8.41
24.968,-9.99
24.984,-12.09
25.000,-14.61
25.015,-17.41
25.031,-20.32
25.046,-23.24
25.062,-26.03
25.078,-28.48
25.093,-30.31
25.109,-31.22
25.125,-30.98
25.140,-29.51
25.156,-26.93
25.171,-23.5
25.187,-19.49
25.203,-15.16
25.218,-10.66
25.234,-6.07
25.250,-1.47
25.265,3.04
25.281,7.27
25.296,10.97
25.312,13.85
25.328,15.68
25.343,16.42
25.359,16.22
25.375,15.42
25.390,14.44
25.406,13.62
25.421,13.19
25.437,13.19
25.453,13.55
25.468,14.14
25.484,14.89
25.500,15.83
25.515,17.01
25.531,18.47
25.546,20.15
25.562,21.87
25.578,23.34
25.593,24.3
25.609,24.63
25.625,24.42
25.640,24.0
25.656,23.75
25.671,23.98
25.687,24.78
25.703,25.97
25.718,27.17
25.734,28.01
25.750,28.23
25.765,27.74
25.781,26.61
25.796,25.04
25.812,23.28
25.828,21.67
25.843,20.65
25.859,20.56
25.875,21.32
25.890,22.19
25.906,21.75
25.921,18.3
25.937,10.71
25.953,-0.77
25.968,-14.29
25.984,-26.93
26.000,-35.62
26.015,-38.29
26.031,-34.44
26.046,-24.99
26.062,-11.69
26.078,3.52
26.093,18.97
26.109,33.39
26.125,45.9
26.140,56.17
26.156,64.53
26.171,71.88
26.187,79.37
26.203,87.74
26.218,97.0
26.234,106.37
26.250,114.8
26.265,121.47
26.281,126.09
26.296,128.79
26.312,129.85
26.328,129.58
26.343,128.31
26.359,126.44
26.375,124.05
26.390,120.38
26.406,113.61
26.421,101.39
26.437,82.27
26.453,57.24
26.468,30.25
26.484,7.07
26.500,-7.09
26.515,-10.04
26.531,-3.61
26.546,7.39
26.562,17.55
26.578,23.2
26.593,23.41
26.609,19.23
26.625,12.2
26.640,3.0
26.656,-8.72
26.671,-23.69
26.687,-42.13
26.703,-63.28
26.718,-85.67
26.734,-107.58
26.750,-127.29
26.765,-142.98
26.781,-152.47
26.796,-153.28
26.812,-143.23
26.828,-121.33
26.843,-88.53
26.859,-47.75
26.875,-3.19
26.890,40.84
26.906,80.85
26.921,114.69
26.937,141.42
26.953,161.01
26.968,174.04
26.984,181.47
27.000,184.47
27.015,184.05
27.031,180.75
27.046,174.45
27.062,164.57
27.078,150.61
27.093,132.76
27.109,112.14
27.125,90.58
27.140,69.95
27.156,51.54
27.171,35.78
27.187,22.29
27.203,10.23
27.218,-1.46
27.234,-13.85
27.250,-27.89
27.265,-44.07
27.281,-62.01
27.296,-80.21
27.312,-96.24
27.328,-107.46
27.343,-111.8
27.359,-108.47
27.375,-98.17
27.390,-82.77
27.406,-64.7
27.421,-46.28
27.437,-29.39
27.453,-15.31
27.468,-4.85
27.484,1.57
27.500,3.85
27.515,2.17
27.531,-2.99
27.546,-11.06
27.562,-21.45
27.578,-33.71
27.593,-47.53
27.609,-62.61
27.625,-78.5
27.640,-94.53
27.656,-109.73
27.671,-123.07
27.687,-133.68
27.703,-141.12
27.718,-145.43
27.734,-147.13
27.750,-146.95
27.765,-145.6
27.781,-143.58
27.796,-141.23
27.812,-138.72
27.828,-136.19
27.843,-133.79
27.859,-131.63
27.875,-129.79
27.890,-128.33
27.906,-127.31
27.921,-126.78
27.937,-126.8
27.953,-127.27
27.968,-127.88
27.984,-128.01
28.000,-126.97
28.015,-124.18
28.031,-119.45
28.046,-113.1
28.062,-105.84
28.078,-98.48
28.093,-91.62
28.109,-85.36
28.125,-79.38
28.140,-73.14
28.156,-66.22
28.171,-58.53
28.187,-50.45
28.203,-42.6
28.218,-35.64
28.234,-29.94
28.250,-25.41
28.265,-21.45
28.281,-17.02
28.296,-11.0
28.312,-2.6
28.328,8.14
28.343,20.11
28.359,31.35
28.375,39.67
28.390,43.54
28.406,42.81
28.421,38.75
28.437,33.52
28.453,29.07
28.468,26.42
28.484,25.35
28.500,24.92
28.515,24.15
28.531,22.68
28.546,20.82
28.562,19.27
28.578,18.85
28.593,20.16
28.609,23.65
28.625,29.54
28.640,37.23
28.656,44.87
28.671,49.17
28.687,46.28
28.703,33.53
28.718,11.26
28.734,-16.51
28.750,-43.11
28.765,-61.87
28.781,-68.77
28.796,-63.97
28.812,-51.22
28.828,-35.66
28.843,-21.38
28.859,-10.08
28.875,-1.36
28.890,5.93
28.906,12.29
28.921,17.16
28.937,19.65
28.953,19.57
28.968,17.93
28.984,16.64
29.000,17.39
29.015,20.76
29.031,25.92
29.046,31.25
29.062,35.34
29.078,37.9
29.093,39.82
29.109,42.41
29.125,46.32
29.140,50.54
29.156,52.4
29.171,48.58
29.187,36.81
29.203,17.35
29.218,-6.45
29.234,-29.05
29.250,-44.68
29.265,-49.51
29.281,-42.96
29.296,-27.59
29.312,-7.61
29.328,13.01
29.343,32.01
29.359,49.29
29.375,66.28
29.390,84.86
29.406,106.2
29.421,130.08
29.437,154.65
29.453,176.71
29.468,192.45
29.484,198.45
29.500,192.82
29.515,175.89
29.531,150.14
29.546,119.26
29.562,86.94
29.578,55.54
29.593,25.65
29.609,-3.65
29.625,-33.86
29.640,-65.92
29.656,-99.69
29.671,-133.71
29.687,-165.58
29.703,-192.41
29.718,-211.34
29.734,-220.11
29.750,-217.68
29.765,-204.98
29.781,-185.17
29.796,-163.31
29.812,-145.07
29.828,-135.01
29.843,-134.95
29.859,-143.18
29.875,-155.09
29.890,-164.86
29.906,-167.68
29.921,-161.36
29.937,-146.83
29.953,-127.16
29.968,-106.13
29.984,-86.64
30.000,-69.99
30.015,-56.15
30.031,-44.82
30.046,-36.48
30.062,-32.55
30.078,-34.67
30.093,-43.61
30.109,-58.62
30.125,-77.6
30.140,-97.95
30.156,-117.45
30.171,-134.51
30.187,-147.94
30.203,-156.64
30.218,-159.65
30.234,-156.48
30.250,-147.49
30.265,-133.71
30.281,-116.23
30.296,-95.62
30.312,-72.0
30.328,-45.72
30.343,-18.4
30.359,7.0
30.375,26.92
30.390,38.8
30.406,42.22
30.421,38.99
30.437,32.12
30.453,24.43
30.468,17.62
30.484,12.18
30.500,7.82
30.515,4.25
30.531,1.59
30.546,0.33
30.562,0.97
30.578,3.54
30.593,7.25
30.609,10.56
30.625,11.71
30.640,9.58
30.656,4.49
30.671,-1.6
30.687,-5.61
30.703,-4.64
30.718,2.86
30.734,16.44
30.750,34.08
30.765,53.19
30.781,71.79
30.796,89.12
30.812,105.54
30.828,121.85
30.843,138.6
30.859,155.63
30.875,172.03
30.890,186.52
30.906,197.86
30.921,205.22
30.937,208.47
30.953,208.12
30.968,205.2
30.984,200.75
31.000,195.53
31.015,189.95
31.031,184.07
31.046,178.0
31.062,171.99
31.078,166.4
31.093,161.45
31.109,157.0
31.125,152.38
31.140,146.72
31.156,139.24
31.171,129.59
31.187,118.04
31.203,105.3
31.218,92.2
31.234,79.37
31.250,67.06
31.265,54.99
31.281,42.59
31.296,29.18
31.312,14.22
31.328,-2.37
31.343,-20.13
31.359,-38.01
31.375,-54.43
31.390,-67.68
31.406,-76.17
31.421,-78.86
31.437,-75.46
31.453,-66.55
31.468,-53.33
31.484,-37.37
31.500,-20.21
31.515,-3.15
31.531,12.86
31.546,27.19
31.562,39.34
31.578,48.91
31.593,55.59
31.609,59.17
31.625,59.74
31.640,57.68
31.656,53.55
31.671,47.9
31.687,41.12
31.703,33.4
31.718,24.93
31.734,16.07
31.750,7.56
31.765,0.39
31.781,-4.48
31.796,-6.49
31.812,-5.76
31.828,-2.99
31.843,0.69
31.859,4.24
31.875,6.95
31.890,8.54
31.906,9.09
31.921,8.73
31.937,7.53
31.953,5.35
31.968,2.0
31.984,-2.87
32.000,-9.56
32.015,-18.22
32.031,-28.74
32.046,-40.53
32.062,-52.5
32.078,-63.14
32.093,-70.83
32.109,-74.29
32.125,-72.99
32.140,-67.3
32.156,-58.39
32.171,-47.86
32.187,-37.19
32.203,-27.46
32.218,-19.11
32.234,-12.07
32.250,-5.91
32.265,-0.1
32.281,5.83
32.296,12.25
32.312,19.23
32.328,26.61
32.343,33.96
32.359,40.6
32.375,45.74
32.390,48.67
32.406,48.86
32.421,46.14
32.437,40.77
32.453,33.32
32.468,24.7
32.484,15.88
32.500,7.71
32.515,0.75
32.531,-4.9
32.546,-9.48
32.562,-13.54
32.578,-17.67
32.593,-22.42
32.609,-28.12
32.625,-34.98
32.640,-43.11
32.656,-52.54
32.671,-63.22
32.687,-74.81
32.703,-86.64
32.718,-97.62
32.734,-106.43
32.750,-111.86
32.765,-113.13
32.781,-110.15
32.796,-103.52
32.812,-94.28
32.828,-83.62
32.843,-72.56
32.859,-61.79
32.875,-51.75
32.890,-42.7
32.906,-34.84
32.921,-28.35
32.937,-23.31
32.953,-19.64
32.968,-17.1
32.984,-15.39
33.000,-14.19
33.015,-13.35
33.031,-12.88
33.046,-12.8
33.062,-13.12
33.078,-13.68
33.093,-14.22
33.109,-14.47
33.125,-14.25
33.140,-13.58
33.156,-12.67
33.171,-11.89
33.187,-11.59
33.203,-12.08
33.218,-13.51
33.234,-15.89
33.250,-19.12
33.265,-23.07
33.281,-27.61
33.296,-32.69
33.312,-38.4
33.328,-44.86
33.343,-52.14
33.359,-60.03
33.375,-67.93
33.390,-74.86
33.406,-79.69
33.421,-81.44
33.437,-79.58
33.453,-74.13
33.468,-65.64
33.484,-54.93
33.500,-42.96
33.515,-30.59
33.531,-18.6
33.546,-7.68
33.562,1.66
33.578,9.1
33.593,14.64
33.609,18.64
33.625,21.78
33.640,24.83
33.656,28.5
33.671,33.16
33.687,38.7
33.703,44.63
33.718,50.29
33.734,55.16
33.750,59.17
33.765,62.79
33.781,66.79
33.796,71.88
33.812,78.26
33.828,85.36
33.843,91.94
33.859,96.51
33.875,97.85
33.890,95.41
33.906,89.35
33.921,80.3
33.937,68.96
33.953,55.64
33.968,40.1
33.984,21.62
34.000,-0.7
34.015,-27.45
34.031,-58.44
34.046,-92.45
34.062,-127.3
34.078,-160.12
34.093,-187.94
34.109,-208.13
34.125,-218.75
34.140,-218.7
34.156,-207.77
34.171,-186.75
34.187,-157.48
34.203,-122.89
34.218,-86.71
34.234,-52.72
34.250,-24.03
34.265,-2.3
34.281,12.39
34.296,21.2
34.312,25.85
34.328,27.99
34.343,28.88
34.359,29.44
34.375,30.44
34.390,32.5
34.406,36.0
34.421,40.84
34.437,46.4
34.453,51.82
34.468,56.4
34.484,59.92
34.500,62.74
34.515,65.4
34.531,68.2
34.546,70.94
34.562,72.94
34.578,73.36
34.593,71.72
34.609,68.04
34.625,62.77
34.640,56.47
34.656,49.43
34.671,41.55
34.687,32.48
34.703,21.91
34.718,9.93
34.734,-2.75
34.750,-14.94
34.765,-25.11
34.781,-31.82
34.796,-34.11
34.812,-31.65
34.828,-24.81
34.843,-14.46
34.859,-1.71
34.875,12.44
34.890,27.17
34.906,41.86
34.921,55.91
34.937,68.66
34.953,79.36
34.968,87.36
34.984,92.23
35.000,94.0
35.015,93.07
35.031,90.14
35.046,85.98
35.062,81.3
35.078,76.63
35.093,72.38
35.109,68.79
35.125,65.99
35.140,63.92
35.156,62.34
35.171,60.83
35.187,58.94
35.203,56.21
35.218,52.4
35.234,47.46
35.250,41.67
35.265,35.47
35.281,29.43
35.296,23.96
35.312,19.23
35.328,15.03
35.343,10.86
35.359,6.08
35.375,0.11
35.390,-7.45
35.406,-16.69
35.421,-27.49
35.437,-39.49
35.453,-52.06
35.468,-64.39
35.484,-75.53
35.500,-84.63
35.515,-91.05
35.531,-94.6
35.546,-95.5
35.562,-94.3
35.578,-91.72
35.593,-88.54
35.609,-85.65
35.625,-84.02
35.640,-84.63
35.656,-88.07
35.671,-94.09
35.687,-101.36
35.703,-107.66
35.718,-110.55
35.734,-108.27
35.750,-100.43
35.765,-88.09
35.781,-73.4
35.796,-58.78
35.812,-46.13
35.828,-36.49
35.843,-30.03
35.859,-26.31
35.875,-24.63
35.890,-24.17
35.906,-24.16
35.921,-23.91
35.937,-22.97
35.953,-21.28
35.968,-19.14
35.984,-17.08
36.000,-15.56
36.015,-14.75
36.031,-14.69
36.046,-15.54
36.062,-17.87
36.078,-22.59
36.093,-30.38
36.109,-40.97
36.125,-52.65
36.140,-62.68
36.156,-68.23
36.171,-67.57
36.187,-60.55
36.203,-48.34
36.218,-32.49
36.234,-14.06
36.250,6.5
36.265,28.81
36.281,51.95
36.296,74.37
36.312,94.55
36.328,111.96
36.343,127.28
36.359,141.87
36.375,156.5
36.390,170.51
36.406,181.86
36.421,188.33
36.437,189.05
36.453,185.34
36.468,180.25
36.484,177.16
36.500,178.26
36.515,183.6
36.531,191.09
36.546,197.31
36.562,198.73
36.578,192.97
36.593,179.81
36.609,161.44
36.625,141.85
36.640,125.18
36.656,113.78
36.671,107.0
36.687,101.45
36.703,92.78
36.718,78.04
36.734,57.12
36.750,32.6
36.765,8.05
36.781,-14.01
36.796,-33.14
36.812,-50.34
36.828,-66.25
36.843,-79.8
36.859,-88.04
36.875,-87.52
36.890,-76.47
36.906,-56.16
36.921,-30.67
36.937,-5.28
36.953,15.8
36.968,31.1
36.984,42.1
37.000,51.79
37.015,63.08
37.031,77.37
37.046,94.22
37.062,111.84
37.078,127.69
37.093,138.84
37.109,142.06
37.125,134.09
37.140,112.69
37.156,77.94
37.171,33.14
37.187,-15.58
37.203,-61.11
37.218,-97.92
37.234,-124.05
37.250,-141.4
37.265,-154.3
37.281,-167.13
37.296,-182.31
37.312,-199.71
37.328,-217.34
37.343,-232.88
37.359,-244.93
37.375,-253.29
37.390,-258.46
37.406,-260.93
37.421,-260.39
37.437,-255.91
37.453,-246.46
37.468,-231.6
37.484,-211.77
37.500,-188.3
37.515,-162.81
37.531,-136.61
37.546,-110.39
37.562,-84.2
37.578,-57.88
37.593,-31.41
37.609,-5.24
37.625,19.7
37.640,42.24
37.656,61.26
37.671,76.02
37.687,86.35
37.703,92.7
37.718,95.95
37.734,97.17
37.750,97.33
37.765,97.06
37.781,96.7
37.796,96.25
37.812,95.56
37.828,94.46
37.843,92.79
37.859,90.42
37.875,87.28
37.890,83.27
37.906,78.33
37.921,72.41
37.937,65.55
37.953,57.88
37.968,49.66
37.984,41.16
38.000,32.48
38.015,23.57
38.031,14.14
38.046,4.0
38.062,-6.79
38.078,-17.61
38.093,-27.33
38.109,-34.55
38.125,-38.01
38.140,-37.0
38.156,-31.56
38.171,-22.5
38.187,-11.13
38.203,1.1
38.218,12.85
38.234,23.13
38.250,31.33
38.265,37.11
38.281,40.38
38.296,41.22
38.312,39.87
38.328,36.69
38.343,32.19
38.359,26.98
38.375,21.73
38.390,17.06
38.406,13.42
38.421,11.08
38.437,9.98
38.453,9.78
38.468,9.88
38.484,9.61
38.500,8.37
38.515,5.81
38.531,2.0
38.546,-2.68
38.562,-7.66
38.578,-12.41
38.593,-16.64
38.609,-20.39
38.625,-23.94
38.640,-27.69
38.656,-31.98
38.671,-36.93
38.687,-42.35
38.703,-47.66
38.718,-51.92
38.734,-53.95
38.750,-52.57
38.765,-46.96
38.781,-37.01
38.796,-23.45
38.812,-7.71
38.828,8.49
38.843,23.55
38.859,36.37
38.875,46.43
38.890,53.61
38.906,58.0
38.921,59.76
38.937,59.08
38.953,56.35
38.968,52.2
38.984,47.47
39.000,43.02
39.015,39.49
39.031,37.15
39.046,35.89
39.062,35.28
39.078,34.86
39.093,34.15
39.109,32.86
39.125,30.77
39.140,27.86
39.156,24.18
39.171,19.89
39.187,15.17
39.203,10.15
39.218,4.91
39.234,-0.59
39.250,-6.5
39.265,-12.99
39.281,-20.1
39.296,-27.7
39.312,-35.28
39.328,-41.98
39.343,-46.7
39.359,-48.36
39.375,-46.19
39.390,-40.04
39.406,-30.47
39.421,-18.63
39.437,-5.98
39.453,6.17
39.468,16.84
39.484,25.51
39.500,31.97
39.515,36.19
39.531,38.21
39.546,38.16
39.562,36.33
39.578,33.19
39.593,29.43
39.609,25.8
39.625,22.89
39.640,20.97
39.656,19.98
39.671,19.55
39.687,19.14
39.703,18.29
39.718,16.69
39.734,14.3
39.750,11.28
39.765,7.91
39.781,4.41
39.796,0.8
39.812,-3.14
39.828,-7.73
39.843,-13.3
39.859,-19.91
39.875,-27.38
39.890,-35.26
39.906,-42.86
39.921,-49.35
39.937,-53.82
39.953,-55.44
39.968,-53.53
39.984,-47.83
40.000,-38.68
40.015,-26.98
40.031,-14.06
40.046,-1.32
40.062,10.07
40.078,19.39
40.093,26.31
40.109,30.8
40.125,32.97
40.140,33.01
40.156,31.25
40.171,28.23
40.187,24.66
40.203,21.31
40.218,18.75
40.234,17.2
40.250,16.44
40.265,16.0
40.281,15.39
40.296,14.33
40.312,12.76
40.328,10.84
40.343,8.73
40.359,6.48
40.375,3.98
40.390,1.02
40.406,-2.61
40.421,-7.13
40.437,-12.66
40.453,-19.23
40.468,-26.64
40.484,-34.38
40.500,-41.6
40.515,-47.13
40.531,-49.87
40.546,-49.04
40.562,-44.44
40.578,-36.5
40.593,-26.1
40.609,-14.4
40.625,-2.49
40.640,8.69
40.656,18.46
40.671,26.38
40.687,32.14
40.703,35.61
40.718,36.79
40.734,35.9
40.750,33.35
40.765,29.74
40.781,25.74
40.796,21.94
40.812,18.75
40.828,16.27
40.843,14.35
40.859,12.72
40.875,11.15
40.890,9.49
40.906,7.73
40.921,5.87
40.937,3.84
40.953,1.5
40.968,-1.43
40.984,-5.21
41.000,-10.08
41.015,-16.17
41.031,-23.48
41.046,-31.75
41.062,-40.42
41.078,-48.58
41.093,-55.09
41.109,-58.8
41.125,-58.77
41.140,-54.67
41.156,-46.77
41.171,-35.95
41.187,-23.43
41.203,-10.43
41.218,2.02
41.234,13.23
41.250,22.72
41.265,30.14
41.281,35.21
41.296,37.77
41.312,37.92
41.328,36.11
41.343,33.06
41.359,29.62
41.375,26.53
41.390,24.19
41.406,22.59
41.421,21.41
41.437,20.21
41.453,18.64
41.468,16.52
41.484,13.89
41.500,10.85
41.515,7.57
41.531,4.1
41.546,0.32
41.562,-3.96
41.578,-9.02
41.593,-15.07
41.609,-22.21
41.625,-30.31
41.640,-38.97
41.656,-47.47
41.671,-54.8
41.687,-59.83
41.703,-61.54
41.718,-59.34
41.734,-53.27
41.750,-44.02
41.765,-32.8
41.781,-20.89
41.796,-9.36
41.812,1.13
41.828,10.32
41.843,18.09
41.859,24.26
41.875,28.59
41.890,30.83
41.906,30.94
41.921,29.25
41.937,26.38
41.953,23.12
41.968,20.11
41.984,17.7
42.000,15.92
42.015,14.51
42.031,13.15
42.046,11.54
42.062,9.56
42.078,7.16
42.093,4.38
42.109,1.27
42.125,-2.17
42.140,-6.02
42.156,-10.45
42.171,-15.63
42.187,-21.7
42.203,-28.57
42.218,-35.87
42.234,-42.87
42.250,-48.55
42.265,-51.85
42.281,-51.91
42.296,-48.31
42.312,-41.16
42.328,-31.08
42.343,-19.03
42.359,-6.11
42.375,6.66
42.390,18.48
42.406,28.73
42.421,36.98
42.437,42.9
42.453,46.32
42.468,47.23
42.484,45.97
42.500,43.14
42.515,39.52
42.531,35.87
42.546,32.7
42.562,30.16
42.578,28.04
42.593,26.0
42.609,23.72
42.625,21.1
42.640,18.23
42.656,15.22
42.671,12.17
42.687,8.95
42.703,5.38
42.718,1.18
42.734,-3.9
42.750,-10.01
42.765,-17.15
42.781,-25.11
42.796,-33.37
42.812,-41.04
42.828,-47.02
42.843,-50.16
42.859,-49.59
42.875,-44.98
42.890,-36.68
42.906,-25.6
42.921,-12.98
42.937,-0.07
42.953,12.12
42.968,22.9
42.984,31.87
43.000,38.82
43.015,43.61
43.031,46.19
43.046,46.58
43.062,45.0
43.078,41.9
43.093,37.92
43.109,33.76
43.125,30.04
43.140,27.1
43.156,24.97
43.171,23.38
43.187,21.96
43.203,20.33
43.218,18.23
43.234,15.56
43.250,12.31
43.265,8.6
43.281,4.51
43.296,0.15
43.312,-4.47
43.328,-9.41
43.343,-14.85
43.359,-21.05
43.375,-28.19
43.390,-36.23
43.406,-44.69
43.421,-52.68
43.437,-58.94
43.453,-62.2
43.468,-61.48
43.484,-56.36
43.500,-47.16
43.515,-34.78
43.531,-20.56
43.546,-5.91
43.562,7.93
43.578,20.09
43.593,30.08
43.609,37.73
43.625,43.14
43.640,46.48
43.656,48.02
43.671,48.05
43.687,46.89
43.703,44.91
43.718,42.5
43.734,40.02
43.750,37.73
43.765,35.8
43.781,34.19
43.796,32.84
43.812,31.57
43.828,30.2
43.843,28.55
43.859,26.42
43.875,23.61
43.890,19.97
43.906,15.42
43.921,10.06
43.937,4.15
43.953,-1.97
43.968,-8.03
43.984,-13.91
44.000,-19.71
44.015,-25.71
44.031,-32.25
44.046,-39.54
44.062,-47.59
44.078,-55.96
44.093,-63.8
44.109,-69.86
44.125,-72.75
44.140,-71.4
44.156,-65.37
44.171,-55.13
44.187,-41.86
44.203,-27.09
44.218,-12.33
44.234,1.33
44.250,13.25
44.265,23.19
44.281,31.1
44.296,36.99
44.312,40.92
44.328,43.01
44.343,43.58
44.359,43.01
44.375,41.74
44.390,40.14
44.406,38.52
44.421,37.03
44.437,35.73
44.453,34.59
44.468,33.58
44.484,32.62
44.500,31.69
44.515,30.74
44.531,29.71
44.546,28.43
44.562,26.68
44.578,24.18
44.593,20.72
44.609,16.21
44.625,10.79
44.640,4.71
44.656,-1.59
44.671,-7.76
44.687,-13.52
44.703,-18.76
44.718,-23.55
44.734,-28.11
44.750,-32.76
44.765,-37.9
44.781,-43.83
44.796,-50.59
44.812,-57.82
44.828,-64.63
44.843,-69.74
44.859,-71.76
44.875,-69.6
44.890,-62.84
44.906,-51.93
44.921,-38.05
44.937,-22.81
44.953,-7.78
44.968,5.86
44.984,17.43
45.000,26.78
45.015,34.02
45.031,39.39
45.046,43.06
45.062,45.19
45.078,45.96
45.093,45.65
45.109,44.65
45.125,43.39
45.140,42.22
45.156,41.35
45.171,40.76
45.187,40.28
45.203,39.69
45.218,38.82
45.234,37.56
45.250,35.95
45.265,33.99
45.281,31.73
45.296,29.11
45.312,26.05
45.328,22.44
45.343,18.22
45.359,13.41
45.375,8.1
45.390,2.49
45.406,-3.21
45.421,-8.75
45.437,-13.95
45.453,-18.68
45.468,-22.95
45.484,-26.9
45.500,-30.82
45.515,-35.1
45.531,-40.04
45.546,-45.81
45.562,-52.18
45.578,-58.52
45.593,-63.78
45.609,-66.8
45.625,-66.57
45.640,-62.5
45.656,-54.65
45.671,-43.67
45.687,-30.69
45.703,-17.06
45.718,-3.98
45.734,7.65
45.750,17.41
45.765,25.28
45.781,31.45
45.796,36.13
45.812,39.49
45.828,41.59
45.843,42.51
45.859,42.45
45.875,41.67
45.890,40.5
45.906,39.21
45.921,37.99
45.937,36.91
45.953,35.99
45.968,35.23
45.984,34.57
46.000,33.88
46.015,32.97
46.031,31.61
46.046,29.65
46.062,27.04
46.078,23.83
46.093,20.15
46.109,16.14
46.125,11.92
46.140,7.55
46.156,3.04
46.171,-1.62
46.187,-6.41
46.203,-11.25
46.218,-15.97
46.234,-20.37
46.250,-24.3
46.265,-27.85
46.281,-31.3
46.296,-35.08
46.312,-39.59
46.328,-44.98
46.343,-51.0
46.359,-56.95
46.375,-61.77
46.390,-64.31
46.406,-63.61
46.421,-59.16
46.437,-51.02
46.453,-39.97
46.468,-27.16
46.484,-13.91
46.500,-1.4
46.515,9.64
46.531,18.88
46.546,26.36
46.562,32.24
46.578,36.65
46.593,39.7
46.609,41.47
46.625,42.14
46.640,41.97
46.656,41.33
46.671,40.48
46.687,39.66
46.703,38.93
46.718,38.28
46.734,37.65
46.750,36.99
46.765,36.24
46.781,35.34
46.796,34.16
46.812,32.54
46.828,30.37
46.843,27.58
46.859,24.23
46.875,20.47
46.890,16.47
46.906,12.4
46.921,8.34
46.937,4.32
46.953,0.28
46.968,-3.86
46.984,-8.19
47.000,-12.72
47.015,-17.36
47.031,-21.93
47.046,-26.22
47.062,-30.06
47.078,-33.5
47.093,-36.76
47.109,-40.23
47.125,-44.31
47.140,-49.14
47.156,-54.42
47.171,-59.38
47.187,-62.89
47.203,-63.74
47.218,-61.08
47.234,-54.66
47.250,-44.96
47.265,-33.08
47.281,-20.41
47.296,-8.23
47.312,2.55
47.328,11.51
47.343,18.66
47.359,24.2
47.375,28.33
47.390,31.13
47.406,32.63
47.421,32.9
47.437,32.17
47.453,30.82
47.468,29.33
47.484,28.12
47.500,27.35
47.515,26.98
47.531,26.73
47.546,26.31
47.562,25.55
47.578,24.42
47.593,23.06
47.609,21.6
47.625,20.09
47.640,18.37
47.656,16.18
47.671,13.23
47.687,9.37
47.703,4.73
47.718,-0.39
47.734,-5.5
47.750,-10.18
47.765,-14.15
47.781,-17.41
47.796,-20.23
47.812,-23.03
47.828,-26.25
47.843,-30.23
47.859,-35.06
47.875,-40.52
47.890,-46.07
47.906,-50.86
47.921,-53.95
47.937,-54.49
47.953,-51.93
47.968,-46.24
47.984,-37.88
48.000,-27.72
48.015,-16.83
48.031,-6.2
48.046,3.42
48.062,11.56
48.078,18.05
48.093,22.9
48.109,26.21
48.125,28.13
48.140,28.82
48.156,28.5
48.171,27.45
48.187,26.0
48.203,24.47
48.218,23.18
48.234,22.3
48.250,21.85
48.265,21.69
48.281,21.56
48.296,21.21
48.312,20.46
48.328,19.32
48.343,17.82
48.359,16.02
48.375,13.87
48.390,11.24
48.406,8.0
48.421,4.11
48.437,-0.29
48.453,-4.92
48.468,-9.46
48.484,-13.66
48.500,-17.45
48.515,-20.94
48.531,-24.37
48.546,-28.01
48.562,-32.12
48.578,-36.88
48.593,-42.24
48.609,-47.9
48.625,-53.17
48.640,-57.14
48.656,-58.79
48.671,-57.34
48.687,-52.51
48.703,-44.6
48.718,-34.45
48.734,-23.17
48.750,-11.84
48.765,-1.29
48.781,7.93
48.796,15.57
48.812,21.57
48.828,26.0
48.843,29.05
48.859,30.94
48.875,31.93
48.890,32.28
48.906,32.15
48.921,31.69
48.937,31.03
48.953,30.32
48.968,29.71
48.984,29.3
49.000,29.13
49.015,29.08
49.031,28.96
49.046,28.49
49.062,27.49
49.078,25.84
49.093,23.54
49.109,20.68
49.125,17.42
49.140,13.88
49.156,10.1
49.171,6.09
49.187,1.8
49.203,-2.71
49.218,-7.35
49.234,-11.94
49.250,-16.3
49.265,-20.35
49.281,-24.12
49.296,-27.76
49.312,-31.5
49.328,-35.55
49.343,-40.12
49.359,-45.3
49.375,-50.97
49.390,-56.69
49.406,-61.66
49.421,-64.81
49.437,-65.06
49.453,-61.65
49.468,-54.48
49.484,-44.17
49.500,-31.91
49.515,-19.12
49.531,-7.04
49.546,3.58
49.562,12.5
49.578,19.89
49.593,26.06
49.609,31.25
49.625,35.53
49.640,38.81
49.656,41.03
49.671,42.17
49.687,42.38
49.703,41.92
49.718,41.02
49.734,39.9
49.750,38.66
49.765,37.35
49.781,36.05
49.796,34.92
49.812,34.08
49.828,33.63
49.843,33.49
49.859,33.35
49.875,32.79
49.890,31.4
49.906,28.94
49.921,25.46
49.937,21.27
49.953,16.76
49.968,12.31
49.984,8.1
50.000,4.1
50.015,0.16
50.031,-3.94
50.046,-8.29
50.062,-12.88
50.078,-17.53
50.093,-22.04
50.109,-26.24
50.125,-30.03
50.140,-33.47
50.156,-36.67
50.171,-39.89
50.187,-43.46
50.203,-47.67
50.218,-52.74
50.234,-58.59
50.250,-64.72
50.265,-70.18
50.281,-73.75
50.296,-74.2
50.312,-70.77
50.328,-63.38
50.343,-52.68
50.359,-39.92
50.375,-26.48
50.390,-13.59
50.406,-2.06
50.421,7.75
50.437,15.9
50.453,22.63
50.468,28.21
50.484,32.89
50.500,36.76
50.515,39.84
50.531,42.08
50.546,43.42
50.562,43.87
50.578,43.57
50.593,42.71
50.609,41.57
50.625,40.43
50.640,39.46
50.656,38.75
50.671,38.25
50.687,37.87
50.703,37.42
50.718,36.78
50.734,35.77
50.750,34.24
50.765,32.06
50.781,29.19
50.796,25.68
50.812,21.71
50.828,17.58
50.843,13.58
50.859,9.95
50.875,6.78
50.890,3.99
50.906,1.33
50.921,-1.51
50.937,-4.81
50.953,-8.68
50.968,-13.01
50.984,-17.54
51.000,-21.93
51.015,-25.96
51.031,-29.66
51.046,-33.21
51.062,-36.9
51.078,-40.98
51.093,-45.61
51.109,-50.77
51.125,-56.28
51.140,-61.67
51.156,-66.26
51.171,-69.14
51.187,-69.34
51.203,-66.2
51.218,-59.5
51.234,-49.67
51.250,-37.68
51.265,-24.78
51.281,-12.2
51.296,-0.88
51.312,8.71
51.328,16.49
51.343,22.66
51.359,27.53
51.375,31.34
51.390,34.27
51.406,36.34
51.421,37.59
51.437,38.11
51.453,38.1
51.468,37.79
51.484,37.4
51.500,37.03
51.515,36.71
51.531,36.38
51.546,36.0
51.562,35.55
51.578,35.03
51.593,34.44
51.609,33.74
51.625,32.83
51.640,31.6
51.656,29.91
51.671,27.62
51.687,24.68
51.703,21.15
51.718,17.21
51.734,13.15
51.750,9.26
51.765,5.75
51.781,2.67
51.796,-0.08
51.812,-2.71
51.828,-5.43
51.843,-8.4
51.859,-11.65
51.875,-15.1
51.890,-18.6
51.906,-22.01
51.921,-25.22
51.937,-28.26
51.953,-31.25
51.968,-34.42
51.984,-38.03
52.000,-42.28
52.015,-47.12
52.031,-52.2
52.046,-56.78
52.062,-59.89
52.078,-60.53
52.093,-58.0
52.109,-52.12
52.125,-43.28
52.140,-32.46
52.156,-20.84
52.171,-9.58
52.187,0.45
52.203,8.81
52.218,15.42
52.234,20.46
52.250,24.25
52.265,27.05
52.281,29.08
52.296,30.46
52.312,31.23
52.328,31.47
52.343,31.24
52.359,30.69
52.375,29.93
52.390,29.06
52.406,28.17
52.421,27.31
52.437,26.51
52.453,25.79
52.468,25.16
52.484,24.54
52.500,23.77
52.515,22.65
52.531,21.0
52.546,18.74
52.562,15.96
52.578,12.84
52.593,9.54
52.609,6.16
52.625,2.71
52.640,-0.82
52.656,-4.37
52.671,-7.83
52.687,-11.06
52.703,-14.01
52.718,-16.78
52.734,-19.56
52.750,-22.55
52.765,-25.91
52.781,-29.64
52.796,-33.66
52.812,-37.76
52.828,-41.6
52.843,-44.71
52.859,-46.45
52.875,-46.13
52.890,-43.21
52.906,-37.58
52.921,-29.59
52.937,-20.08
52.953,-10.13
52.968,-0.77
52.984,7.28
53.000,13.67
53.015,18.42
53.031,21.69
53.046,23.69
53.062,24.57
53.078,24.49
53.093,23.63
53.109,22.34
53.125,21.0
53.140,19.96
53.156,19.37
53.171,19.17
53.187,19.09
53.203,18.87
53.218,18.39
53.234,17.64
53.250,16.72
53.265,15.74
53.281,14.7
53.296,13.52
53.312,12.05
53.328,10.19
53.343,7.82
53.359,4.88
53.375,1.4
53.390,-2.48
53.406,-6.5
53.421,-10.33
53.437,-13.75
53.453,-16.72
53.468,-19.44
53.484,-22.27
53.500,-25.56
53.515,-29.45
53.531,-33.79
53.546,-38.12
53.562,-41.73
53.578,-43.84
53.593,-43.75
53.609,-41.06
53.625,-35.76
53.640,-28.27
53.656,-19.33
53.671,-9.88
53.687,-0.79
53.703,7.29
53.718,14.02
53.734,19.31
53.750,23.32
53.765,26.26
53.781,28.36
53.796,29.72
53.812,30.45
53.828,30.59
53.843,30.26
53.859,29.64
53.875,28.98
53.890,28.49
53.906,28.31
53.921,28.44
53.937,28.79
53.953,29.21
53.968,29.54
53.984,29.66
54.000,29.44
54.015,28.79
54.031,27.67
54.046,26.07
54.062,24.1
54.078,21.92
54.093,19.79
54.109,17.96
54.125,16.6
54.140,15.74
54.156,15.25
54.171,14.89
54.187,14.37
54.203,13.49
54.218,12.18
54.234,10.54
54.250,8.81
54.265,7.22
54.281,5.97
54.296,5.14
54.312,4.65
54.328,4.34
54.343,4.0
54.359,3.51
54.375,2.86
54.390,2.11
54.406,1.34
54.421,0.58
54.437,-0.18
54.453,-1.04
54.468,-2.05
54.484,-3.21
54.500,-4.47
54.515,-5.72
54.531,-6.92
54.546,-8.11
54.562,-9.4
54.578,-10.89
54.593,-12.6
54.609,-14.44
54.625,-16.23
54.640,-17.84
54.656,-19.27
54.671,-20.63
54.687,-22.14
54.703,-23.94
54.718,-26.13
54.734,-28.66
54.750,-31.42
54.765,-34.26
54.781,-37.05
54.796,-39.69
54.812,-42.17
54.828,-44.58
54.843,-47.06
54.859,-49.89
54.875,-53.37
54.890,-57.69
54.906,-62.76
54.921,-68.07
54.937,-72.63
54.953,-75.19
54.968,-74.51
54.984,-69.84
55.000,-61.17
55.015,-49.33
55.031,-35.78
55.046,-22.15
55.062,-9.79
55.078,0.48
55.093,8.46
55.109,14.41
55.125,18.74
55.140,21.88
55.156,24.11
55.171,25.67
55.187,26.72
55.203,27.47
55.218,28.05
55.234,28.52
55.250,28.83
55.265,28.86
55.281,28.52
55.296,27.8
55.312,26.86
55.328,25.91
55.343,25.13
55.359,24.54
55.375,24.01
55.390,23.24
55.406,21.92
55.421,19.81
55.437,16.89
55.453,13.29
55.468,9.28
55.484,5.15
55.500,1.08
55.515,-2.89
55.531,-6.95
55.546,-11.37
55.562,-16.37
55.578,-21.84
55.593,-27.3
55.609,-31.89
55.625,-34.61
55.640,-34.66
55.656,-31.72
55.671,-26.07
55.687,-18.44
55.703,-9.8
55.718,-1.07
55.734,7.03
55.750,14.05
55.765,19.81
55.781,24.26
55.796,27.51
55.812,29.67
55.828,30.88
55.843,31.21
55.859,30.71
55.875,29.42
55.890,27.5
55.906,25.17
55.921,22.77
55.937,20.64
55.953,18.94
55.968,17.65
55.984,16.56
56.000,15.39
56.015,13.91
56.031,12.05
56.046,9.83
56.062,7.37
56.078,4.74
56.093,1.98
56.109,-0.95
56.125,-4.11
56.140,-7.54
56.156,-11.29
56.171,-15.43
56.187,-20.0
56.203,-24.94
56.218,-29.91
56.234,-34.31
56.250,-37.28
56.265,-37.97
56.281,-35.76
56.296,-30.61
56.312,-23.07
56.328,-14.15
56.343,-5.02
56.359,3.34
56.375,10.33
56.390,15.81
56.406,19.94
56.421,22.98
56.437,25.13
56.453,26.5
56.468,27.1
56.484,26.92
56.500,26.06
56.515,24.67
56.531,22.99
56.546,21.27
56.562,19.66
56.578,18.22
56.593,16.92
56.609,15.64
56.625,14.26
56.640,12.72
56.656,11.01
56.671,9.15
56.687,7.17
56.703,5.05
56.718,2.73
56.734,0.12
56.750,-2.87
56.765,-6.29
56.781,-10.12
56.796,-14.3
56.812,-18.71
56.828,-23.13
56.843,-27.2
56.859,-30.42
56.875,-32.22
56.890,-32.03
56.906,-29.54
56.921,-24.74
56.937,-18.02
56.953,-10.05
56.968,-1.69
56.984,6.27
57.000,13.22
57.015,18.83
57.031,23.03
57.046,25.93
57.062,27.72
57.078,28.61
57.093,28.78
57.109,28.37
57.125,27.48
57.140,26.26
57.156,24.78
57.171,23.11
57.187,21.34
57.203,19.52
57.218,17.78
57.234,16.24
57.250,15.03
57.265,14.17
57.281,13.58
57.296,13.01
57.312,12.12
57.328,10.57
57.343,8.19
57.359,5.02
57.375,1.35
57.390,-2.41
57.406,-5.93
57.421,-9.04
57.437,-11.85
57.453,-14.66
57.468,-17.78
57.484,-21.44
57.500,-25.57
57.515,-29.83
57.531,-33.59
57.546,-36.11
57.562,-36.69
57.578,-34.85
57.593,-30.45
57.609,-23.84
57.625,-15.74
57.640,-7.03
57.656,1.4
57.671,8.93
57.687,15.26
57.703,20.33
57.718,24.25
57.734,27.1
57.750,28.91
57.765,29.71
57.781,29.57
57.796,28.69
57.812,27.33
57.828,25.86
57.843,24.56
57.859,23.54
57.875,22.78
57.890,22.13
57.906,21.43
57.921,20.56
57.937,19.52
57.953,18.38
57.968,17.22
57.984,16.07
58.000,14.87
58.015,13.47
58.031,11.71
58.046,9.51
58.062,6.88
58.078,3.96
58.093,0.91
58.109,-2.1
58.125,-5.0
58.140,-7.79
58.156,-10.49
58.171,-13.19
58.187,-15.97
58.203,-18.95
58.218,-22.22
58.234,-25.74
58.250,-29.27
58.265,-32.27
58.281,-34.09
58.296,-34.03
58.312,-31.68
58.328,-27.04
58.343,-20.51
58.359,-12.8
58.375,-4.72
58.390,3.02
58.406,9.87
58.421,15.47
58.437,19.69
58.453,22.54
58.468,24.15
58.484,24.76
58.500,24.62
58.515,23.99
58.531,23.07
58.546,22.05
58.562,21.06
58.578,20.18
58.593,19.39
58.609,18.65
58.625,17.85
58.640,16.97
58.656,16.08
58.671,15.3
58.687,14.73
58.703,14.32
58.718,13.9
58.734,13.19
58.750,11.92
58.765,9.94
58.781,7.33
58.796,4.35
58.812,1.33
58.828,-1.49
58.843,-3.96
58.859,-6.13
58.875,-8.16
58.890,-10.25
58.906,-12.6
58.921,-15.33
58.937,-18.43
58.953,-21.68
58.968,-24.67
58.984,-26.9
59.000,-27.82
59.015,-27.02
59.031,-24.36
59.046,-19.97
59.062,-14.24
59.078,-7.74
59.093,-1.04
59.109,5.3
59.125,10.87
59.140,15.43
59.156,18.92
59.171,21.38
59.187,22.97
59.203,23.83
59.218,24.06
59.234,23.79
59.250,23.14
59.265,22.28
59.281,21.36
59.296,20.52
59.312,19.84
59.328,19.29
59.343,18.81
59.359,18.32
59.375,17.76
59.390,17.12
59.406,16.41
59.421,15.62
59.437,14.68
59.453,13.46
59.468,11.75
59.484,9.43
59.500,6.51
59.515,3.2
59.531,-0.12
59.546,-3.05
59.562,-5.37
59.578,-7.15
59.593,-8.71
59.609,-10.51
59.625,-12.9
59.640,-16.02
59.656,-19.74
59.671,-23.71
59.687,-27.41
59.703,-30.27
59.718,-31.73
59.734,-31.28
59.750,-28.68
59.765,-23.96
59.781,-17.51
59.796,-10.01
59.812,-2.22
59.828,5.14
59.843,11.56
59.859,16.78
59.875,20.76
59.890,23.58
59.906,25.39
59.921,26.33
59.937,26.55
59.953,26.19
59.968,25.39
59.984,24.25
