timestamp,value
00.000,-8.19
00.015,-6.86
00.031,-5.68
00.046,-5.19
00.062,-5.81
00.078,-7.59
00.093,-10.24
00.109,-13.24
00.125,-16.08
00.140,-18.51
00.156,-20.49
00.171,-22.25
00.187,-24.05
00.203,-26.01
00.218,-28.08
00.234,-30.04
00.250,-31.62
00.265,-32.53
00.281,-32.57
00.296,-31.59
00.312,-29.48
00.328,-26.29
00.343,-22.16
00.359,-17.41
00.375,-12.51
00.390,-7.98
00.406,-4.29
00.421,-1.8
00.437,-0.67
00.453,-0.81
00.468,-1.97
00.484,-3.79
00.500,-5.9
00.515,-7.99
00.531,-9.81
00.546,-11.21
00.562,-12.09
00.578,-12.45
00.593,-12.38
00.609,-12.08
00.625,-11.76
00.640,-11.59
00.656,-11.67
00.671,-11.94
00.687,-12.28
00.703,-12.55
00.718,-12.67
00.734,-12.62
00.750,-12.45
00.765,-12.26
00.781,-12.15
00.796,-12.2
00.812,-12.42
00.828,-12.76
00.843,-13.11
00.859,-13.43
00.875,-13.75
00.890,-14.16
00.906,-14.79
00.921,-15.6
00.937,-16.36
00.953,-16.63
00.968,-15.82
00.984,-13.39
01.000,-9.01
01.015,-2.62
01.031,5.62
01.046,15.31
01.062,26.0
01.078,37.17
01.093,48.29
01.109,58.88
01.125,68.54
01.140,77.05
01.156,84.28
01.171,90.21
01.187,94.81
01.203,98.05
01.218,99.83
01.234,100.03
01.250,98.55
01.265,95.32
01.281,90.4
01.296,83.95
01.312,76.33
01.328,68.04
01.343,59.73
01.359,52.04
01.375,45.4
01.390,40.0
01.406,35.74
01.421,32.35
01.437,29.52
01.453,26.99
01.468,24.56
01.484,22.11
01.500,19.46
01.515,16.45
01.531,12.93
01.546,8.85
01.562,4.31
01.578,-0.5
01.593,-5.29
01.609,-9.85
01.625,-14.06
01.640,-17.92
01.656,-21.5
01.671,-24.88
01.687,-28.06
01.703,-30.92
01.718,-33.27
01.734,-34.94
01.750,-35.83
01.765,-36.04
01.781,-35.8
01.796,-35.47
01.812,-35.37
01.828,-35.74
01.843,-36.59
01.859,-37.7
01.875,-38.56
01.890,-38.49
01.906,-36.78
01.921,-32.83
01.937,-26.46
01.953,-17.92
01.968,-7.89
01.984,2.67
02.000,12.84
02.015,21.92
02.031,29.52
02.046,35.5
02.062,39.92
02.078,42.82
02.093,44.31
02.109,44.53
02.125,43.71
02.140,42.21
02.156,40.39
02.171,38.57
02.187,36.9
02.203,35.38
02.218,33.91
02.234,32.42
02.250,30.9
02.265,29.46
02.281,28.23
02.296,27.34
02.312,26.79
02.328,26.44
02.343,26.06
02.359,25.38
02.375,24.12
02.390,22.21
02.406,19.7
02.421,16.85
02.437,13.97
02.453,11.29
02.468,8.92
02.484,6.8
02.500,4.74
02.515,2.53
02.531,-0.02
02.546,-2.96
02.562,-6.27
02.578,-9.83
02.593,-13.51
02.609,-17.19
02.625,-20.85
02.640,-24.58
02.656,-28.57
02.671,-32.95
02.687,-37.71
02.703,-42.62
02.718,-47.15
02.734,-50.61
02.750,-52.3
02.765,-51.72
02.781,-48.7
02.796,-43.35
02.812,-36.06
02.828,-27.43
02.843,-18.18
02.859,-9.07
02.875,-0.81
02.890,5.99
02.906,10.96
02.921,13.99
02.937,15.19
02.953,14.87
02.968,13.3
02.984,10.83
03.000,7.74
03.015,4.38
03.031,1.12
03.046,-1.61
03.062,-3.49
03.078,-4.36
03.093,-4.26
03.109,-3.44
03.125,-2.23
03.140,-0.9
03.156,0.38
03.171,1.52
03.187,2.52
03.203,3.3
03.218,3.73
03.234,3.68
03.250,3.09
03.265,2.0
03.281,0.59
03.296,-0.88
03.312,-2.23
03.328,-3.36
03.343,-4.3
03.359,-5.16
03.375,-6.08
03.390,-7.2
03.406,-8.67
03.421,-10.54
03.437,-12.81
03.453,-15.27
03.468,-17.57
03.484,-19.25
03.500,-19.88
03.515,-19.17
03.531,-17.09
03.546,-13.82
03.562,-9.62
03.578,-4.82
03.593,0.33
03.609,5.57
03.625,10.6
03.640,15.08
03.656,18.62
03.671,20.89
03.687,21.73
03.703,21.18
03.718,19.5
03.734,17.08
03.750,14.29
03.765,11.44
03.781,8.77
03.796,6.38
03.812,4.35
03.828,2.67
03.843,1.32
03.859,0.18
03.875,-0.9
03.890,-2.05
03.906,-3.32
03.921,-4.67
03.937,-5.98
03.953,-7.14
03.968,-8.15
03.984,-9.07
04.000,-10.03
04.015,-11.13
04.031,-12.4
04.046,-13.8
04.062,-15.3
04.078,-16.92
04.093,-18.7
04.109,-20.64
04.125,-22.74
04.140,-24.94
04.156,-27.16
04.171,-29.32
04.187,-31.28
04.203,-32.81
04.218,-33.6
04.234,-33.25
04.250,-31.46
04.265,-28.14
04.281,-23.5
04.296,-17.97
04.312,-12.09
04.328,-6.41
04.343,-1.38
04.359,2.69
04.375,5.61
04.390,7.3
04.406,7.77
04.421,7.12
04.437,5.56
04.453,3.39
04.468,1.0
04.484,-1.23
04.500,-3.0
04.515,-4.16
04.531,-4.7
04.546,-4.74
04.562,-4.42
04.578,-3.93
04.593,-3.43
04.609,-3.12
04.625,-3.14
04.640,-3.63
04.656,-4.62
04.671,-6.06
04.687,-7.8
04.703,-9.71
04.718,-11.7
04.734,-13.74
04.750,-15.82
04.765,-17.94
04.781,-20.05
04.796,-22.15
04.812,-24.25
04.828,-26.25
04.843,-27.92
04.859,-28.87
04.875,-28.64
04.890,-26.92
04.906,-23.57
04.921,-18.81
04.937,-13.09
04.953,-6.98
04.968,-1.02
04.984,4.34
05.000,8.84
05.015,12.29
05.031,14.65
05.046,15.97
05.062,16.34
05.078,15.94
05.093,14.95
05.109,13.57
05.125,12.0
05.140,10.5
05.156,9.24
05.171,8.35
05.187,7.86
05.203,7.64
05.218,7.52
05.234,7.37
05.250,7.11
05.265,6.69
05.281,6.13
05.296,5.4
05.312,4.44
05.328,3.19
05.343,1.61
05.359,-0.23
05.375,-2.29
05.390,-4.56
05.406,-7.09
05.421,-9.97
05.437,-13.24
05.453,-16.78
05.468,-20.27
05.484,-23.24
05.500,-25.15
05.515,-25.54
05.531,-24.15
05.546,-21.0
05.562,-16.34
05.578,-10.61
05.593,-4.37
05.609,1.83
05.625,7.49
05.640,12.28
05.656,16.0
05.671,18.66
05.687,20.4
05.703,21.45
05.718,22.03
05.734,22.34
05.750,22.48
05.765,22.46
05.781,22.27
05.796,21.81
05.812,21.07
05.828,20.04
05.843,18.79
05.859,17.39
05.875,15.96
05.890,14.6
05.906,13.34
05.921,12.18
05.937,11.02
05.953,9.73
05.968,8.15
05.984,6.19
06.000,3.83
06.015,1.17
06.031,-1.59
06.046,-4.28
06.062,-6.79
06.078,-9.21
06.093,-11.72
06.109,-14.58
06.125,-17.92
06.140,-21.65
06.156,-25.43
06.171,-28.71
06.187,-30.87
06.203,-31.38
06.218,-29.94
06.234,-26.51
06.250,-21.31
06.265,-14.76
06.281,-7.42
06.296,0.09
06.312,7.14
06.328,13.24
06.343,18.03
06.359,21.39
06.375,23.41
06.390,24.33
06.406,24.41
06.421,23.89
06.437,22.9
06.453,21.48
06.468,19.65
06.484,17.39
06.500,14.69
06.515,11.58
06.531,8.18
06.546,4.74
06.562,1.64
06.578,-0.72
06.593,-2.03
06.609,-2.23
06.625,-1.6
06.640,-0.64
06.656,0.08
06.671,0.17
06.687,-0.52
06.703,-1.82
06.718,-3.4
06.734,-4.92
06.750,-6.14
06.765,-7.05
06.781,-7.84
06.796,-8.79
06.812,-10.17
06.828,-12.06
06.843,-14.22
06.859,-16.1
06.875,-16.99
06.890,-16.26
06.906,-13.56
06.921,-8.91
06.937,-2.74
06.953,4.22
06.968,11.12
06.984,17.11
07.000,21.52
07.015,23.9
07.031,24.1
07.046,22.26
07.062,18.76
07.078,14.13
07.093,8.9
07.109,3.53
07.125,-1.63
07.140,-6.27
07.156,-10.14
07.171,-13.03
07.187,-14.78
07.203,-15.38
07.218,-14.92
07.234,-13.62
07.250,-11.69
07.265,-9.41
07.281,-7.02
07.296,-4.78
07.312,-2.99
07.328,-1.93
07.343,-1.74
07.359,-2.42
07.375,-3.74
07.390,-5.38
07.406,-6.96
07.421,-8.25
07.437,-9.22
07.453,-10.03
07.468,-11.07
07.484,-12.68
07.500,-15.07
07.515,-18.05
07.531,-21.06
07.546,-23.25
07.562,-23.76
07.578,-21.98
07.593,-17.83
07.609,-11.81
07.625,-4.83
07.640,2.1
07.656,8.16
07.671,12.87
07.687,16.11
07.703,18.02
07.718,18.81
07.734,18.71
07.750,17.91
07.765,16.56
07.781,14.86
07.796,13.01
07.812,11.16
07.828,9.42
07.843,7.87
07.859,6.51
07.875,5.38
07.890,4.47
07.906,3.7
07.921,2.94
07.937,1.97
07.953,0.57
07.968,-1.4
07.984,-3.89
08.000,-6.69
08.015,-9.48
08.031,-11.96
08.046,-13.95
08.062,-15.48
08.078,-16.7
08.093,-17.79
08.109,-18.92
08.125,-20.15
08.140,-21.41
08.156,-22.55
08.171,-23.28
08.187,-23.21
08.203,-21.84
08.218,-18.78
08.234,-13.86
08.250,-7.26
08.265,0.4
08.281,8.33
08.296,15.69
08.312,21.92
08.328,26.77
08.343,30.3
08.359,32.75
08.375,34.34
08.390,35.24
08.406,35.52
08.421,35.22
08.437,34.39
08.453,33.14
08.468,31.61
08.484,29.92
08.500,28.17
08.515,26.35
08.531,24.33
08.546,22.0
08.562,19.25
08.578,16.08
08.593,12.62
08.609,9.06
08.625,5.56
08.640,2.18
08.656,-1.12
08.671,-4.38
08.687,-7.69
08.703,-11.03
08.718,-14.42
08.734,-17.88
08.750,-21.44
08.765,-25.07
08.781,-28.59
08.796,-31.63
08.812,-33.58
08.828,-33.88
08.843,-32.09
08.859,-28.15
08.875,-22.34
08.890,-15.25
08.906,-7.63
08.921,-0.11
08.937,6.82
08.953,12.89
08.968,17.92
08.984,21.81
09.000,24.44
09.015,25.76
09.031,25.85
09.046,24.9
09.062,23.27
09.078,21.29
09.093,19.23
09.109,17.22
09.125,15.38
09.140,13.8
09.156,12.57
09.171,11.76
09.187,11.31
09.203,10.99
09.218,10.47
09.234,9.41
09.250,7.58
09.265,4.98
09.281,1.8
09.296,-1.68
09.312,-5.16
09.328,-8.45
09.343,-11.47
09.359,-14.3
09.375,-17.09
09.390,-20.03
09.406,-23.22
09.421,-26.67
09.437,-30.14
09.453,-33.18
09.468,-35.19
09.484,-35.55
09.500,-33.88
09.515,-30.08
09.531,-24.49
09.546,-17.75
09.562,-10.57
09.578,-3.61
09.593,2.73
09.609,8.24
09.625,12.83
09.640,16.42
09.656,18.88
09.671,20.14
09.687,20.2
09.703,19.33
09.718,17.91
09.734,16.34
09.750,14.92
09.765,13.83
09.781,13.05
09.796,12.48
09.812,12.05
09.828,11.71
09.843,11.46
09.859,11.25
09.875,11.02
09.890,10.61
09.906,9.85
09.921,8.56
09.937,6.59
09.953,3.88
09.968,0.54
09.984,-3.18
10.000,-6.94
10.015,-10.36
10.031,-13.21
10.046,-15.47
10.062,-17.35
10.078,-19.19
10.093,-21.33
10.109,-23.96
10.125,-26.93
10.140,-29.8
10.156,-31.95
10.171,-32.7
10.187,-31.61
10.203,-28.56
10.218,-23.79
10.234,-17.75
10.250,-11.0
10.265,-4.07
10.281,2.6
10.296,8.64
10.312,13.76
10.328,17.74
10.343,20.5
10.359,22.12
10.375,22.85
10.390,23.02
10.406,22.91
10.421,22.69
10.437,22.41
10.453,22.05
10.468,21.58
10.484,20.97
10.500,20.16
10.515,19.06
10.531,17.65
10.546,15.93
10.562,13.94
10.578,11.84
10.593,9.73
10.609,7.67
10.625,5.6
10.640,3.43
10.656,1.02
10.671,-1.66
10.687,-4.57
10.703,-7.59
10.718,-10.6
10.734,-13.54
10.750,-16.41
10.765,-19.25
10.781,-22.14
10.796,-25.16
10.812,-28.25
10.828,-31.26
10.843,-33.89
10.859,-35.69
10.875,-36.26
10.890,-35.22
10.906,-32.4
10.921,-27.84
10.937,-21.84
10.953,-14.87
10.968,-7.5
10.984,-0.31
11.000,6.21
11.015,11.73
11.031,16.06
11.046,19.12
11.062,20.94
11.078,21.61
11.093,21.32
11.109,20.38
11.125,19.21
11.140,18.28
11.156,17.97
11.171,18.46
11.187,19.69
11.203,21.32
11.218,22.97
11.234,24.28
11.250,25.0
11.265,24.99
11.281,24.23
11.296,22.76
11.312,20.69
11.328,18.15
11.343,15.28
11.359,12.22
11.375,9.02
11.390,5.73
11.406,2.35
11.421,-1.11
11.437,-4.6
11.453,-8.02
11.468,-11.29
11.484,-14.4
11.500,-17.45
11.515,-20.61
11.531,-24.07
11.546,-27.89
11.562,-31.92
11.578,-35.77
11.593,-38.83
11.609,-40.39
11.625,-39.9
11.640,-37.03
11.656,-31.88
11.671,-24.89
11.687,-16.77
11.703,-8.33
11.718,-0.29
11.734,6.77
11.750,12.5
11.765,16.74
11.781,19.47
11.796,20.77
11.812,20.87
11.828,20.05
11.843,18.71
11.859,17.2
11.875,15.78
11.890,14.6
11.906,13.65
11.921,12.83
11.937,12.02
11.953,11.13
11.968,10.19
11.984,9.25
12.000,8.42
12.015,7.74
12.031,7.13
12.046,6.42
12.062,5.35
12.078,3.76
12.093,1.63
12.109,-0.9
12.125,-3.6
12.140,-6.26
12.156,-8.79
12.171,-11.23
12.187,-13.71
12.203,-16.38
12.218,-19.31
12.234,-22.45
12.250,-25.63
12.265,-28.54
12.281,-30.75
12.296,-31.78
12.312,-31.18
12.328,-28.7
12.343,-24.3
12.359,-18.23
12.375,-10.9
12.390,-2.93
12.406,5.01
12.421,12.32
12.437,18.45
12.453,23.01
12.468,25.86
12.484,27.04
12.500,26.79
12.515,25.48
12.531,23.52
12.546,21.28
12.562,19.09
12.578,17.16
12.593,15.6
12.609,14.45
12.625,13.6
12.640,12.94
12.656,12.36
12.671,11.76
12.687,11.12
12.703,10.37
12.718,9.38
12.734,8.02
12.750,6.11
12.765,3.63
12.781,0.68
12.796,-2.51
12.812,-5.66
12.828,-8.57
12.843,-11.15
12.859,-13.45
12.875,-15.56
12.890,-17.6
12.906,-19.69
12.921,-21.9
12.937,-24.25
12.953,-26.69
12.968,-28.94
12.984,-30.54
13.000,-30.88
13.015,-29.39
13.031,-25.77
13.046,-20.17
13.062,-13.09
13.078,-5.21
13.093,2.75
13.109,10.27
13.125,17.0
13.140,22.69
13.156,27.1
13.171,29.99
13.187,31.17
13.203,30.64
13.218,28.69
13.234,25.83
13.250,22.71
13.265,19.89
13.281,17.67
13.296,16.14
13.312,15.14
13.328,14.39
13.343,13.68
13.359,12.9
13.375,12.08
13.390,11.26
13.406,10.5
13.421,9.73
13.437,8.82
13.453,7.63
13.468,5.99
13.484,3.85
13.500,1.27
13.515,-1.6
13.531,-4.57
13.546,-7.49
13.562,-10.27
13.578,-12.89
13.593,-15.35
13.609,-17.65
13.625,-19.82
13.640,-21.93
13.656,-24.15
13.671,-26.58
13.687,-29.16
13.703,-31.52
13.718,-33.03
13.734,-32.92
13.750,-30.59
13.765,-25.77
13.781,-18.72
13.796,-10.12
13.812,-0.8
13.828,8.37
13.843,16.73
13.859,23.83
13.875,29.4
13.890,33.34
13.906,35.69
13.921,36.64
13.937,36.43
13.953,35.42
13.968,33.9
13.984,32.16
14.000,30.42
14.015,28.8
14.031,27.37
14.046,26.09
14.062,24.9
14.078,23.71
14.093,22.45
14.109,21.08
14.125,19.58
14.140,17.91
14.156,15.94
14.171,13.5
14.187,10.44
14.203,6.75
14.218,2.57
14.234,-1.78
14.250,-5.99
14.265,-9.86
14.281,-13.36
14.296,-16.62
14.312,-19.78
14.328,-22.88
14.343,-25.87
14.359,-28.69
14.375,-31.42
14.390,-34.28
14.406,-37.53
14.421,-41.23
14.437,-45.1
14.453,-48.47
14.468,-50.54
14.484,-50.64
14.500,-48.5
14.515,-44.27
14.531,-38.42
14.546,-31.51
14.562,-23.99
14.578,-16.21
14.593,-8.4
14.609,-0.82
14.625,6.22
14.640,12.44
14.656,17.61
14.671,21.62
14.687,24.49
14.703,26.31
14.718,27.21
14.734,27.43
14.750,27.26
14.765,27.0
14.781,27.02
14.796,27.49
14.812,28.41
14.828,29.64
14.843,30.89
14.859,31.84
14.875,32.25
14.890,31.99
14.906,31.04
14.921,29.54
14.937,27.61
14.953,25.36
14.968,22.84
14.984,19.95
15.000,16.56
15.015,12.57
15.031,7.96
15.046,2.85
15.062,-2.5
15.078,-7.85
15.093,-13.0
15.109,-17.84
15.125,-22.43
15.140,-26.87
15.156,-31.31
15.171,-35.85
15.187,-40.47
15.203,-44.89
15.218,-48.56
15.234,-50.79
15.250,-50.91
15.265,-48.52
15.281,-43.56
15.296,-36.4
15.312,-27.71
15.328,-18.27
15.343,-8.84
15.359,-0.04
15.375,7.65
15.390,13.88
15.406,18.4
15.421,21.16
15.437,22.25
15.453,22.01
15.468,20.91
15.484,19.51
15.500,18.25
15.515,17.38
15.531,16.94
15.546,16.73
15.562,16.51
15.578,16.05
15.593,15.26
15.609,14.18
15.625,12.94
15.640,11.65
15.656,10.34
15.671,9.01
15.687,7.51
15.703,5.71
15.718,3.49
15.734,0.85
15.750,-2.04
15.765,-4.94
15.781,-7.6
15.796,-9.84
15.812,-11.66
15.828,-13.27
15.843,-14.94
15.859,-16.95
15.875,-19.43
15.890,-22.34
15.906,-25.38
15.921,-28.1
15.937,-29.96
15.953,-30.39
15.968,-29.0
15.984,-25.57
16.000,-20.22
16.015,-13.33
16.031,-5.5
16.046,2.54
16.062,10.11
16.078,16.7
16.093,21.94
16.109,25.67
16.125,27.9
16.140,28.73
16.156,28.37
16.171,27.07
16.187,25.14
16.203,22.88
16.218,20.61
16.234,18.61
16.250,17.03
16.265,15.96
16.281,15.31
16.296,14.96
16.312,14.73
16.328,14.45
16.343,14.06
16.359,13.54
16.375,12.9
16.390,12.16
16.406,11.37
16.421,10.54
16.437,9.76
16.453,9.04
16.468,8.43
16.484,7.88
16.500,7.33
16.515,6.72
16.531,5.98
16.546,5.14
16.562,4.27
16.578,3.42
16.593,2.66
16.609,2.0
16.625,1.38
16.640,0.77
16.656,0.13
16.671,-0.57
16.687,-1.31
16.703,-2.04
16.718,-2.76
16.734,-3.45
16.750,-4.1
16.765,-4.75
16.781,-5.39
16.796,-5.98
16.812,-6.5
16.828,-6.93
16.843,-7.29
16.859,-7.7
16.875,-8.29
16.890,-9.18
16.906,-10.48
16.921,-12.11
16.937,-13.94
16.953,-15.76
16.968,-17.35
16.984,-18.59
17.000,-19.51
17.015,-20.25
17.031,-21.04
17.046,-22.1
17.062,-23.49
17.078,-25.19
17.093,-27.06
17.109,-28.91
17.125,-30.62
17.140,-32.23
17.156,-33.9
17.171,-35.87
17.187,-38.31
17.203,-41.1
17.218,-43.79
17.234,-45.64
17.250,-45.84
17.265,-43.79
17.281,-39.29
17.296,-32.68
17.312,-24.65
17.328,-16.04
17.343,-7.65
17.359,-0.01
17.375,6.54
17.390,11.86
17.406,15.88
17.421,18.61
17.437,20.09
17.453,20.48
17.468,19.97
17.484,18.84
17.500,17.3
17.515,15.59
17.531,13.88
17.546,12.31
17.562,11.0
17.578,9.95
17.593,9.18
17.609,8.57
17.625,8.01
17.640,7.36
17.656,6.52
17.671,5.43
17.687,4.04
17.703,2.38
17.718,0.46
17.734,-1.65
17.750,-3.93
17.765,-6.37
17.781,-9.02
17.796,-11.98
17.812,-15.28
17.828,-18.76
17.843,-21.98
17.859,-24.31
17.875,-25.03
17.890,-23.61
17.906,-19.94
17.921,-14.37
17.937,-7.55
17.953,-0.29
17.968,6.76
17.984,13.11
18.000,18.46
18.015,22.61
18.031,25.41
18.046,26.71
18.062,26.49
18.078,24.88
18.093,22.19
18.109,18.9
18.125,15.54
18.140,12.52
18.156,10.14
18.171,8.45
18.187,7.3
18.203,6.4
18.218,5.48
18.234,4.31
18.250,2.8
18.265,1.0
18.281,-1.0
18.296,-3.06
18.312,-5.07
18.328,-7.02
18.343,-8.96
18.359,-11.0
18.375,-13.33
18.390,-16.07
18.406,-19.25
18.421,-22.72
18.437,-26.04
18.453,-28.58
18.468,-29.67
18.484,-28.65
18.500,-25.19
18.515,-19.37
18.531,-11.67
18.546,-2.87
18.562,6.1
18.578,14.41
18.593,21.42
18.609,26.78
18.625,30.4
18.640,32.33
18.656,32.69
18.671,31.66
18.687,29.42
18.703,26.2
18.718,22.34
18.734,18.27
18.750,14.52
18.765,11.53
18.781,9.45
18.796,8.16
18.812,7.25
18.828,6.2
18.843,4.66
18.859,2.55
18.875,0.02
18.890,-2.6
18.906,-5.06
18.921,-7.3
18.937,-9.43
18.953,-11.63
18.968,-14.09
18.984,-16.93
19.000,-20.14
19.015,-23.68
19.031,-27.39
19.046,-30.85
19.062,-33.43
19.078,-34.31
19.093,-32.73
19.109,-28.3
19.125,-21.15
19.140,-12.01
19.156,-2.01
19.171,7.67
19.187,16.14
19.203,22.94
19.218,28.04
19.234,31.58
19.250,33.75
19.265,34.66
19.281,34.33
19.296,32.82
19.312,30.26
19.328,26.96
19.343,23.36
19.359,19.84
19.375,16.69
19.390,13.99
19.406,11.64
19.421,9.41
19.437,7.03
19.453,4.28
19.468,1.07
19.484,-2.54
19.500,-6.37
19.515,-10.21
19.531,-13.89
19.546,-17.33
19.562,-20.51
19.578,-23.53
19.593,-26.49
19.609,-29.51
19.625,-32.73
19.640,-36.23
19.656,-39.9
19.671,-43.34
19.687,-45.85
19.703,-46.47
19.718,-44.25
19.734,-38.57
19.750,-29.39
19.765,-17.38
19.781,-3.75
19.796,10.07
19.812,22.86
19.828,33.72
19.843,42.27
19.859,48.49
19.875,52.5
19.890,54.46
19.906,54.47
19.921,52.68
19.937,49.41
19.953,45.14
19.968,40.44
19.984,35.86
20.000,31.75
20.015,28.2
20.031,25.03
20.046,22.04
20.062,19.05
20.078,16.01
20.093,12.94
20.109,9.83
20.125,6.57
20.140,3.02
20.156,-0.96
20.171,-5.3
20.187,-9.77
20.203,-13.98
20.218,-17.66
20.234,-20.7
20.250,-23.31
20.265,-25.98
20.281,-29.16
20.296,-33.13
20.312,-37.73
20.328,-42.31
20.343,-45.85
20.359,-47.24
20.375,-45.65
20.390,-40.77
20.406,-33.01
20.421,-23.26
20.437,-12.73
20.453,-2.59
20.468,6.26
20.484,13.25
20.500,18.07
20.515,20.6
20.531,20.8
20.546,18.81
20.562,14.9
20.578,9.51
20.593,3.25
20.609,-3.29
20.625,-9.64
20.640,-15.57
20.656,-21.02
20.671,-26.07
20.687,-30.84
20.703,-35.38
20.718,-39.72
20.734,-43.85
20.750,-47.75
20.765,-51.33
20.781,-54.42
20.796,-56.68
20.812,-57.61
20.828,-56.7
20.843,-53.63
20.859,-48.42
20.875,-41.51
20.890,-33.64
20.906,-25.62
20.921,-18.17
20.937,-11.7
20.953,-6.29
20.968,-1.66
20.984,2.7
21.000,7.48
21.015,13.27
21.031,20.42
21.046,28.92
21.062,38.38
21.078,48.08
21.093,57.17
21.109,64.93
21.125,70.82
21.140,74.69
21.156,76.61
21.171,76.89
21.187,75.95
21.203,74.18
21.218,71.93
21.234,69.43
21.250,66.79
21.265,64.13
21.281,61.61
21.296,59.45
21.312,57.86
21.328,56.95
21.343,56.6
21.359,56.58
21.375,56.59
21.390,56.39
21.406,55.86
21.421,55.02
21.437,53.88
21.453,52.39
21.468,50.51
21.484,48.21
21.500,45.58
21.515,42.77
21.531,39.88
21.546,36.81
21.562,33.24
21.578,28.68
21.593,22.71
21.609,15.26
21.625,6.68
21.640,-2.16
21.656,-10.13
21.671,-16.1
21.687,-19.22
21.703,-19.17
21.718,-16.19
21.734,-11.03
21.750,-4.69
21.765,1.79
21.781,7.57
21.796,12.1
21.812,15.09
21.828,16.46
21.843,16.24
21.859,14.57
21.875,11.7
21.890,8.05
21.906,4.04
21.921,0.06
21.937,-3.57
21.953,-6.72
21.968,-9.42
21.984,-11.77
22.000,-13.8
22.015,-15.49
22.031,-16.7
22.046,-17.34
22.062,-17.46
22.078,-17.28
22.093,-17.16
22.109,-17.44
22.125,-18.31
22.140,-19.75
22.156,-21.58
22.171,-23.53
22.187,-25.36
22.203,-26.95
22.218,-28.28
22.234,-29.43
22.250,-30.48
22.265,-31.58
22.281,-32.9
22.296,-34.66
22.312,-36.95
22.328,-39.68
22.343,-42.46
22.359,-44.63
22.375,-45.42
22.390,-44.11
22.406,-40.28
22.421,-33.98
22.437,-25.74
22.453,-16.43
22.468,-7.06
22.484,1.5
22.500,8.74
22.515,14.49
22.531,18.77
22.546,21.7
22.562,23.32
22.578,23.58
22.593,22.52
22.609,20.32
22.625,17.4
22.640,14.27
22.656,11.41
22.671,9.02
22.687,7.07
22.703,5.31
22.718,3.54
22.734,1.59
22.750,-0.51
22.765,-2.68
22.781,-4.85
22.796,-7.06
22.812,-9.48
22.828,-12.26
22.843,-15.42
22.859,-18.76
22.875,-21.87
22.890,-24.28
22.906,-25.57
22.921,-25.67
22.937,-24.74
22.953,-23.26
22.968,-21.78
22.984,-20.84
23.000,-20.79
23.015,-21.75
23.031,-23.63
23.046,-26.11
23.062,-28.71
23.078,-30.84
23.093,-31.84
23.109,-31.13
23.125,-28.29
23.140,-23.14
23.156,-15.89
23.171,-7.11
23.187,2.37
23.203,11.62
23.218,19.9
23.234,26.74
23.250,32.03
23.265,35.85
23.281,38.43
23.296,39.94
23.312,40.46
23.328,40.05
23.343,38.78
23.359,36.87
23.375,34.56
23.390,32.14
23.406,29.77
23.421,27.51
23.437,25.24
23.453,22.82
23.468,20.14
23.484,17.17
23.500,14.0
23.515,10.71
23.531,7.37
23.546,3.96
23.562,0.43
23.578,-3.26
23.593,-7.04
23.609,-10.79
23.625,-14.3
23.640,-17.36
23.656,-19.87
23.671,-21.85
23.687,-23.43
23.703,-24.86
23.718,-26.38
23.734,-28.17
23.750,-30.3
23.765,-32.7
23.781,-35.19
23.796,-37.41
23.812,-38.97
23.828,-39.39
23.843,-38.22
23.859,-35.14
23.875,-30.12
23.890,-23.39
23.906,-15.51
23.921,-7.15
23.937,1.01
23.953,8.37
23.968,14.54
23.984,19.24
24.000,22.37
24.015,23.98
24.031,24.3
24.046,23.64
24.062,22.4
24.078,20.91
24.093,19.37
24.109,17.84
24.125,16.34
24.140,14.86
24.156,13.46
24.171,12.23
24.187,11.34
24.203,10.89
24.218,10.95
24.234,11.43
24.250,12.15
24.265,12.86
24.281,13.27
24.296,13.18
24.312,12.47
24.328,11.24
24.343,9.69
24.359,8.03
24.375,6.44
24.390,4.93
24.406,3.42
24.421,1.74
24.437,-0.29
24.453,-2.86
24.468,-6.04
24.484,-9.76
24.500,-13.72
24.515,-17.42
24.531,-20.24
24.546,-21.68
24.562,-21.36
24.578,-19.23
24.593,-15.51
24.609,-10.68
24.625,-5.28
24.640,0.11
24.656,5.05
24.671,9.22
24.687,12.5
24.703,14.95
24.718,16.69
24.734,17.78
24.750,18.18
24.765,17.78
24.781,16.46
24.796,14.25
24.812,11.26
24.828,7.75
24.843,3.99
24.859,0.27
24.875,-3.15
24.890,-6.07
24.906,-8.34
24.921,-9.93
24.937,-10.97
24.953,-11.76
24.968,-12.67
24.984,-14.03
25.000,-16.0
25.015,-18.53
25.031,-21.4
25.046,-24.31
25.062,-26.92
25.078,-29.05
25.093,-30.69
25.109,-32.07
25.125,-33.58
25.140,-35.61
25.156,-38.32
25.171,-41.46
25.187,-44.31
25.203,-45.82
25.218,-44.82
25.234,-40.43
25.250,-32.37
25.265,-21.06
25.281,-7.59
25.296,6.6
25.312,20.03
25.328,31.57
25.343,40.64
25.359,47.13
25.375,51.33
25.390,53.66
25.406,54.46
25.421,54.02
25.437,52.55
25.453,50.27
25.468,47.36
25.484,44.05
25.500,40.47
25.515,36.72
25.531,32.84
25.546,28.84
25.562,24.76
25.578,20.65
25.593,16.61
25.609,12.74
25.625,9.13
25.640,5.85
25.656,2.83
25.671,-0.06
25.687,-3.12
25.703,-6.59
25.718,-10.58
25.734,-15.0
25.750,-19.54
25.765,-23.83
25.781,-27.59
25.796,-30.74
25.812,-33.41
25.828,-35.93
25.843,-38.57
25.859,-41.5
25.875,-44.72
25.890,-48.11
25.906,-51.47
25.921,-54.55
25.937,-56.97
25.953,-58.25
25.968,-57.85
25.984,-55.29
26.000,-50.32
26.015,-43.04
26.031,-33.9
26.046,-23.53
26.062,-12.59
26.078,-1.59
26.093,9.08
26.109,19.06
26.125,27.94
26.140,35.25
26.156,40.61
26.171,43.81
26.187,44.93
26.203,44.37
26.218,42.59
26.234,40.06
26.250,37.08
26.265,33.75
26.281,30.1
26.296,26.2
26.312,22.2
26.328,18.36
26.343,14.92
26.359,12.01
26.375,9.64
26.390,7.71
26.406,6.12
26.421,4.76
26.437,3.56
26.453,2.43
26.468,1.25
26.484,-0.18
26.500,-2.08
26.515,-4.67
26.531,-8.04
26.546,-12.15
26.562,-16.83
26.578,-21.81
26.593,-26.75
26.609,-31.3
26.625,-35.01
26.640,-37.42
26.656,-38.07
26.671,-36.58
26.687,-32.82
26.703,-26.84
26.718,-19.07
26.734,-10.18
26.750,-0.92
26.765,7.99
26.781,15.95
26.796,22.58
26.812,27.64
26.828,30.99
26.843,32.63
26.859,32.72
26.875,31.55
26.890,29.58
26.906,27.27
26.921,25.06
26.937,23.19
26.953,21.74
26.968,20.67
26.984,19.87
27.000,19.26
27.015,18.77
27.031,18.32
27.046,17.71
27.062,16.71
27.078,15.08
27.093,12.68
27.109,9.53
27.125,5.82
27.140,1.78
27.156,-2.38
27.171,-6.48
27.187,-10.45
27.203,-14.22
27.218,-17.75
27.234,-20.98
27.250,-23.98
27.265,-26.85
27.281,-29.74
27.296,-32.76
27.312,-35.83
27.328,-38.65
27.343,-40.65
27.359,-41.13
27.375,-39.44
27.390,-35.18
27.406,-28.33
27.421,-19.33
27.437,-8.97
27.453,1.76
27.468,11.92
27.484,20.79
27.500,28.0
27.515,33.41
27.531,37.09
27.546,39.15
27.562,39.71
27.578,38.9
27.593,36.92
27.609,34.07
27.625,30.78
27.640,27.47
27.656,24.47
27.671,21.95
27.687,19.91
27.703,18.22
27.718,16.67
27.734,15.06
27.750,13.18
27.765,10.89
27.781,8.15
27.796,4.97
27.812,1.52
27.828,-1.97
27.843,-5.27
27.859,-8.21
27.875,-10.69
27.890,-12.72
27.906,-14.4
27.921,-15.93
27.937,-17.6
27.953,-19.63
27.968,-22.16
27.984,-25.12
28.000,-28.11
28.015,-30.57
28.031,-31.81
28.046,-31.28
28.062,-28.66
28.078,-24.02
28.093,-17.78
28.109,-10.58
28.125,-3.18
28.140,3.79
28.156,9.84
28.171,14.67
28.187,18.13
28.203,20.19
28.218,20.81
28.234,20.06
28.250,18.07
28.265,15.09
28.281,11.5
28.296,7.72
28.312,4.14
28.328,1.09
28.343,-1.24
28.359,-2.79
28.375,-3.67
28.390,-4.12
28.406,-4.5
28.421,-5.12
28.437,-6.17
28.453,-7.65
28.468,-9.39
28.484,-11.18
28.500,-12.85
28.515,-14.32
28.531,-15.66
28.546,-16.99
28.562,-18.45
28.578,-20.11
28.593,-22.09
28.609,-24.43
28.625,-27.18
28.640,-30.14
28.656,-32.83
28.671,-34.55
28.687,-34.53
28.703,-32.18
28.718,-27.31
28.734,-20.26
28.750,-11.72
28.765,-2.63
28.781,6.16
28.796,13.96
28.812,20.34
28.828,25.07
28.843,28.1
28.859,29.5
28.875,29.44
28.890,28.2
28.906,26.1
28.921,23.44
28.937,20.49
28.953,17.48
28.968,14.55
28.984,11.82
29.000,9.4
29.015,7.29
29.031,5.49
29.046,3.9
29.062,2.33
29.078,0.63
29.093,-1.35
29.109,-3.65
29.125,-6.22
29.140,-8.97
29.156,-11.79
29.171,-14.62
29.187,-17.43
29.203,-20.23
29.218,-23.11
29.234,-26.21
29.250,-29.67
29.265,-33.59
29.281,-37.89
29.296,-42.12
29.312,-45.6
29.328,-47.47
29.343,-47.0
29.359,-43.84
29.375,-38.11
29.390,-30.36
29.406,-21.43
29.421,-12.26
29.437,-3.62
29.453,3.83
29.468,9.69
29.484,13.73
29.500,15.9
29.515,16.34
29.531,15.31
29.546,13.18
29.562,10.28
29.578,6.94
29.593,3.37
29.609,-0.23
29.625,-3.61
29.640,-6.45
29.656,-8.34
29.671,-8.97
29.687,-8.25
29.703,-6.41
29.718,-3.95
29.734,-1.5
29.750,0.44
29.765,1.65
29.781,2.15
29.796,2.22
29.812,2.08
29.828,1.91
29.843,1.69
29.859,1.31
29.875,0.6
29.890,-0.65
29.906,-2.65
29.921,-5.61
29.937,-9.51
29.953,-14.13
29.968,-18.86
29.984,-22.87
30.000,-25.22
30.015,-25.19
30.031,-22.53
30.046,-17.51
30.062,-10.89
30.078,-3.64
30.093,3.3
30.109,9.25
30.125,13.86
30.140,17.08
30.156,19.08
30.171,20.08
30.187,20.34
30.203,20.04
30.218,19.38
30.234,18.53
30.250,17.66
30.265,16.91
30.281,16.37
30.296,16.02
30.312,15.76
30.328,15.4
30.343,14.76
30.359,13.61
30.375,11.78
30.390,9.2
30.406,5.9
30.421,2.1
30.437,-1.92
30.453,-5.86
30.468,-9.5
30.484,-12.76
30.500,-15.71
30.515,-18.52
30.531,-21.35
30.546,-24.39
30.562,-27.78
30.578,-31.53
30.593,-35.43
30.609,-39.04
30.625,-41.62
30.640,-42.41
30.656,-40.76
30.671,-36.52
30.687,-30.07
30.703,-22.31
30.718,-14.33
30.734,-7.09
30.750,-1.21
30.765,3.19
30.781,6.27
30.796,8.4
30.812,9.86
30.828,10.76
30.843,11.13
30.859,10.93
30.875,10.19
30.890,9.0
30.906,7.51
30.921,5.83
30.937,4.04
30.953,2.25
30.968,0.56
30.984,-0.82
31.000,-1.75
31.015,-2.22
31.031,-2.38
31.046,-2.54
31.062,-3.06
31.078,-4.16
31.093,-5.8
31.109,-7.72
31.125,-9.52
31.140,-10.91
31.156,-11.78
31.171,-12.3
31.187,-12.81
31.203,-13.68
31.218,-15.1
31.234,-16.92
31.250,-18.67
31.265,-19.64
31.281,-19.12
31.296,-16.66
31.312,-12.22
31.328,-6.19
31.343,0.74
31.359,7.79
31.375,14.33
31.390,20.0
31.406,24.66
31.421,28.32
31.437,31.06
31.453,32.88
31.468,33.82
31.484,33.91
31.500,33.3
31.515,32.23
31.531,31.02
31.546,29.92
31.562,29.06
31.578,28.48
31.593,28.1
31.609,27.8
31.625,27.51
31.640,27.16
31.656,26.73
31.671,26.17
31.687,25.4
31.703,24.35
31.718,23.0
31.734,21.4
31.750,19.61
31.765,17.74
31.781,15.9
31.796,14.14
31.812,12.55
31.828,11.08
31.843,9.66
31.859,8.12
31.875,6.29
31.890,4.05
31.906,1.47
31.921,-1.27
31.937,-3.85
31.953,-6.02
31.968,-7.68
31.984,-8.97
32.000,-10.16
32.015,-11.59
32.031,-13.46
32.046,-15.84
32.062,-18.63
32.078,-21.58
32.093,-24.26
32.109,-26.1
32.125,-26.47
32.140,-24.76
32.156,-20.66
32.171,-14.24
32.187,-6.01
32.203,3.2
32.218,12.55
32.234,21.41
32.250,29.49
32.265,36.74
32.281,43.16
32.296,48.66
32.312,53.04
32.328,56.05
32.343,57.58
32.359,57.72
32.375,56.78
32.390,55.19
32.406,53.41
32.421,51.89
32.437,50.97
32.453,51.0
32.468,52.13
32.484,54.36
32.500,57.44
32.515,61.0
32.531,64.66
32.546,68.21
32.562,71.69
32.578,75.37
32.593,79.55
32.609,84.4
32.625,89.83
32.640,95.41
32.656,100.56
32.671,104.66
32.687,107.17
32.703,107.7
32.718,105.97
32.734,101.82
32.750,95.26
32.765,86.54
32.781,76.26
32.796,65.2
32.812,54.24
32.828,44.03
32.843,34.86
32.859,26.6
32.875,18.85
32.890,11.14
32.906,3.17
32.921,-5.14
32.937,-13.63
32.953,-21.97
32.968,-29.76
32.984,-36.61
33.000,-42.17
33.015,-46.17
33.031,-48.39
33.046,-48.7
33.062,-47.1
33.078,-43.69
33.093,-38.82
33.109,-32.99
33.125,-26.88
33.140,-21.16
33.156,-16.45
33.171,-13.08
33.187,-11.17
33.203,-10.61
33.218,-11.19
33.234,-12.68
33.250,-14.78
33.265,-17.18
33.281,-19.52
33.296,-21.5
33.312,-22.94
33.328,-23.85
33.343,-24.36
33.359,-24.66
33.375,-24.88
33.390,-25.06
33.406,-25.24
33.421,-25.46
33.437,-25.88
33.453,-26.61
33.468,-27.66
33.484,-28.88
33.500,-29.98
33.515,-30.7
33.531,-30.94
33.546,-30.81
33.562,-30.55
33.578,-30.4
33.593,-30.45
33.609,-30.67
33.625,-30.91
33.640,-31.05
33.656,-31.06
33.671,-30.95
33.687,-30.74
33.703,-30.44
33.718,-30.0
33.734,-29.4
33.750,-28.69
33.765,-28.0
33.781,-27.43
33.796,-26.92
33.812,-26.23
33.828,-24.97
33.843,-22.78
33.859,-19.53
33.875,-15.32
33.890,-10.47
33.906,-5.38
33.921,-0.4
33.937,4.18
33.953,8.14
33.968,11.26
33.984,13.32
34.000,14.2
34.015,13.91
34.031,12.69
34.046,10.89
34.062,8.87
34.078,6.87
34.093,4.97
34.109,3.16
34.125,1.36
34.140,-0.42
34.156,-2.14
34.171,-3.71
34.187,-5.02
34.203,-6.03
34.218,-6.81
34.234,-7.48
34.250,-8.21
34.265,-9.15
34.281,-10.34
34.296,-11.76
34.312,-13.31
34.328,-14.82
34.343,-16.16
34.359,-17.22
34.375,-17.99
34.390,-18.56
34.406,-19.09
34.421,-19.74
34.437,-20.63
34.453,-21.76
34.468,-23.03
34.484,-24.28
34.500,-25.34
34.515,-26.09
34.531,-26.46
34.546,-26.37
34.562,-25.74
34.578,-24.45
34.593,-22.44
34.609,-19.75
34.625,-16.62
34.640,-13.41
34.656,-10.51
34.671,-8.28
34.687,-6.92
34.703,-6.48
34.718,-6.88
34.734,-7.95
34.750,-9.52
34.765,-11.41
34.781,-13.39
34.796,-15.22
34.812,-16.68
34.828,-17.59
34.843,-17.95
34.859,-17.87
34.875,-17.61
34.890,-17.37
34.906,-17.35
34.921,-17.6
34.937,-18.11
34.953,-18.82
34.968,-19.66
34.984,-20.54
35.000,-21.4
35.015,-22.24
35.031,-23.1
35.046,-24.05
35.062,-25.23
35.078,-26.72
35.093,-28.54
35.109,-30.59
35.125,-32.72
35.140,-34.71
35.156,-36.27
35.171,-37.07
35.187,-36.79
35.203,-35.23
35.218,-32.4
35.234,-28.55
35.250,-24.15
35.265,-19.76
35.281,-15.82
35.296,-12.56
35.312,-10.0
35.328,-8.05
35.343,-6.7
35.359,-6.04
35.375,-6.23
35.390,-7.36
35.406,-9.32
35.421,-11.72
35.437,-14.03
35.453,-15.69
35.468,-16.35
35.484,-15.92
35.500,-14.62
35.515,-12.85
35.531,-11.07
35.546,-9.61
35.562,-8.65
35.578,-8.17
35.593,-8.03
35.609,-8.02
35.625,-7.95
35.640,-7.72
35.656,-7.33
35.671,-6.88
35.687,-6.49
35.703,-6.25
35.718,-6.13
35.734,-5.87
35.750,-5.07
35.765,-3.23
35.781,0.14
35.796,5.31
35.812,12.25
35.828,20.64
35.843,29.89
35.859,39.33
35.875,48.34
35.890,56.41
35.906,63.21
35.921,68.57
35.937,72.44
35.953,74.91
35.968,76.15
35.984,76.34
36.000,75.67
36.015,74.25
36.031,72.16
36.046,69.47
36.062,66.29
36.078,62.75
36.093,59.0
36.109,55.14
36.125,51.21
36.140,47.2
36.156,43.14
36.171,39.08
36.187,35.16
36.203,31.46
36.218,27.99
36.234,24.7
36.250,21.49
36.265,18.18
36.281,14.64
36.296,10.8
36.312,6.61
36.328,2.22
36.343,-2.19
36.359,-6.39
36.375,-10.21
36.390,-13.63
36.406,-16.85
36.421,-20.15
36.437,-23.8
36.453,-27.88
36.468,-32.25
36.484,-36.52
36.500,-40.17
36.515,-42.69
36.531,-43.64
36.546,-42.83
36.562,-40.21
36.578,-35.94
36.593,-30.37
36.609,-23.97
36.625,-17.39
36.640,-11.3
36.656,-6.31
36.671,-2.87
36.687,-1.13
36.703,-0.89
36.718,-1.75
36.734,-3.17
36.750,-4.69
36.765,-6.05
36.781,-7.16
36.796,-8.01
36.812,-8.62
36.828,-8.95
36.843,-8.88
36.859,-8.33
36.875,-7.26
36.890,-5.68
36.906,-3.72
36.921,-1.51
36.937,0.8
36.953,3.07
36.968,5.22
36.984,7.27
37.000,9.32
37.015,11.6
37.031,14.37
37.046,17.78
37.062,21.84
37.078,26.39
37.093,31.16
37.109,35.97
37.125,40.84
37.140,45.99
37.156,51.78
37.171,58.51
37.187,66.15
37.203,74.36
37.218,82.42
37.234,89.46
37.250,94.66
37.265,97.31
37.281,96.93
37.296,93.24
37.312,86.08
37.328,75.43
37.343,61.53
37.359,44.81
37.375,25.98
37.390,6.02
37.406,-13.96
37.421,-32.85
37.437,-49.65
37.453,-63.55
37.468,-74.1
37.484,-81.29
37.500,-85.62
37.515,-87.96
37.531,-89.38
37.546,-90.77
37.562,-92.6
37.578,-94.9
37.593,-97.22
37.609,-98.97
37.625,-99.66
37.640,-99.0
37.656,-97.04
37.671,-94.06
37.687,-90.51
37.703,-86.82
37.718,-83.44
37.734,-80.62
37.750,-78.37
37.765,-76.39
37.781,-74.13
37.796,-70.88
37.812,-66.02
37.828,-59.23
37.843,-50.5
37.859,-40.25
37.875,-29.16
37.890,-18.06
37.906,-7.73
37.921,1.18
37.937,8.3
37.953,13.58
37.968,17.23
37.984,19.66
38.000,21.27
38.015,22.48
38.031,23.51
38.046,24.47
38.062,25.37
38.078,26.16
38.093,26.77
38.109,27.11
38.125,27.1
38.140,26.7
38.156,25.91
38.171,24.78
38.187,23.36
38.203,21.72
38.218,19.92
38.234,18.05
38.250,16.17
38.265,14.27
38.281,12.28
38.296,10.03
38.312,7.34
38.328,4.1
38.343,0.34
38.359,-3.72
38.375,-7.66
38.390,-10.94
38.406,-13.06
38.421,-13.66
38.437,-12.6
38.453,-10.0
38.468,-6.17
38.484,-1.54
38.500,3.37
38.515,8.11
38.531,12.34
38.546,15.83
38.562,18.37
38.578,19.83
38.593,20.17
38.609,19.47
38.625,17.98
38.640,16.02
38.656,13.9
38.671,11.89
38.687,10.07
38.703,8.45
38.718,6.94
38.734,5.48
38.750,4.1
38.765,2.91
38.781,2.03
38.796,1.55
38.812,1.48
38.828,1.74
38.843,2.17
38.859,2.58
38.875,2.74
38.890,2.44
38.906,1.47
38.921,-0.3
38.937,-2.92
38.953,-6.16
38.968,-9.61
38.984,-12.57
39.000,-14.32
39.015,-14.32
39.031,-12.37
39.046,-8.71
39.062,-3.87
39.078,1.48
39.093,6.72
39.109,11.43
39.125,15.37
39.140,18.43
39.156,20.47
39.171,21.44
39.187,21.25
39.203,19.96
39.218,17.75
39.234,14.92
39.250,11.89
39.265,9.04
39.281,6.69
39.296,4.94
39.312,3.74
39.328,2.85
39.343,1.98
39.359,0.91
39.375,-0.45
39.390,-2.02
39.406,-3.72
39.421,-5.45
39.437,-7.24
39.453,-9.16
39.468,-11.28
39.484,-13.66
39.500,-16.28
39.515,-19.13
39.531,-22.12
39.546,-25.06
39.562,-27.52
39.578,-28.81
39.593,-28.2
39.609,-25.17
39.625,-19.69
39.640,-12.36
39.656,-4.25
39.671,3.52
39.687,10.09
39.703,15.17
39.718,18.87
39.734,21.43
39.750,23.08
39.765,23.79
39.781,23.45
39.796,22.0
39.812,19.54
39.828,16.38
39.843,12.92
39.859,9.51
39.875,6.38
39.890,3.65
39.906,1.35
39.921,-0.47
39.937,-1.79
39.953,-2.67
39.968,-3.18
39.984,-3.53
40.000,-3.99
40.015,-4.79
40.031,-6.06
40.046,-7.78
40.062,-9.86
40.078,-12.13
40.093,-14.54
40.109,-17.11
40.125,-19.85
40.140,-22.64
40.156,-25.13
40.171,-26.76
40.187,-26.89
40.203,-25.1
40.218,-21.28
40.234,-15.7
40.250,-8.94
40.265,-1.65
40.281,5.57
40.296,12.27
40.312,18.1
40.328,22.81
40.343,26.18
40.359,28.07
40.375,28.47
40.390,27.57
40.406,25.68
40.421,23.24
40.437,20.67
40.453,18.26
40.468,16.23
40.484,14.61
40.500,13.34
40.515,12.3
40.531,11.25
40.546,10.04
40.562,8.55
40.578,6.76
40.593,4.76
40.609,2.65
40.625,0.52
40.640,-1.63
40.656,-3.88
40.671,-6.39
40.687,-9.29
40.703,-12.63
40.718,-16.34
40.734,-20.24
40.750,-23.99
40.765,-27.24
40.781,-29.61
40.796,-30.73
40.812,-30.31
40.828,-28.19
40.843,-24.38
40.859,-19.07
40.875,-12.59
40.890,-5.42
40.906,1.87
40.921,8.67
40.937,14.48
40.953,18.89
40.968,21.78
40.984,23.22
41.000,23.46
41.015,22.85
41.031,21.71
41.046,20.26
41.062,18.68
41.078,17.08
41.093,15.56
41.109,14.23
41.125,13.16
41.140,12.32
41.156,11.64
41.171,11.01
41.187,10.28
41.203,9.31
41.218,7.99
41.234,6.26
41.250,4.11
41.265,1.63
41.281,-1.04
41.296,-3.74
41.312,-6.38
41.328,-8.95
41.343,-11.58
41.359,-14.36
41.375,-17.41
41.390,-20.68
41.406,-23.96
41.421,-26.88
41.437,-28.91
41.453,-29.43
41.468,-27.9
41.484,-24.04
41.500,-17.97
41.515,-10.25
41.531,-1.78
41.546,6.51
41.562,13.89
41.578,19.95
41.593,24.64
41.609,28.04
41.625,30.29
41.640,31.4
41.656,31.44
41.671,30.51
41.687,28.9
41.703,26.97
41.718,25.06
41.734,23.34
41.750,21.86
41.765,20.48
41.781,19.09
41.796,17.67
41.812,16.26
41.828,14.98
41.843,13.85
41.859,12.81
41.875,11.72
41.890,10.4
41.906,8.67
41.921,6.44
41.937,3.72
41.953,0.62
41.968,-2.68
41.984,-5.98
42.000,-9.09
42.015,-11.89
42.031,-14.39
42.046,-16.73
42.062,-19.11
42.078,-21.76
42.093,-24.71
42.109,-27.7
42.125,-30.21
42.140,-31.52
42.156,-30.98
42.171,-28.2
42.187,-23.22
42.203,-16.48
42.218,-8.73
42.234,-0.83
42.250,6.48
42.265,12.65
42.281,17.38
42.296,20.61
42.312,22.36
42.328,22.82
42.343,22.17
42.359,20.68
42.375,18.63
42.390,16.4
42.406,14.34
42.421,12.67
42.437,11.53
42.453,10.82
42.468,10.33
42.484,9.83
42.500,9.19
42.515,8.35
42.531,7.31
42.546,6.04
42.562,4.47
42.578,2.5
42.593,0.08
42.609,-2.71
42.625,-5.68
42.640,-8.6
42.656,-11.28
42.671,-13.65
42.687,-15.79
42.703,-17.9
42.718,-20.2
42.734,-22.85
42.750,-25.82
42.765,-28.86
42.781,-31.49
42.796,-33.05
42.812,-32.89
42.828,-30.49
42.843,-25.71
42.859,-18.77
42.875,-10.34
42.890,-1.29
42.906,7.44
42.921,15.05
42.937,21.04
42.953,25.22
42.968,27.67
42.984,28.63
43.000,28.41
43.015,27.34
43.031,25.69
43.046,23.68
43.062,21.47
43.078,19.15
43.093,16.81
43.109,14.57
43.125,12.56
43.140,10.92
43.156,9.72
43.171,8.88
43.187,8.18
43.203,7.32
43.218,6.06
43.234,4.26
43.250,2.03
43.265,-0.48
43.281,-3.06
43.296,-5.55
43.312,-7.92
43.328,-10.24
43.343,-12.62
43.359,-15.22
43.375,-18.15
43.390,-21.39
43.406,-24.79
43.421,-27.93
43.437,-30.19
43.453,-30.9
43.468,-29.52
43.484,-25.85
43.500,-20.12
43.515,-12.89
43.531,-4.9
43.546,3.11
43.562,10.53
43.578,16.93
43.593,22.02
43.609,25.62
43.625,27.67
43.640,28.24
43.656,27.51
43.671,25.82
43.687,23.52
43.703,20.95
43.718,18.35
43.734,15.92
43.750,13.78
43.765,12.01
43.781,10.64
43.796,9.58
43.812,8.7
43.828,7.88
43.843,6.99
43.859,5.97
43.875,4.75
43.890,3.29
43.906,1.49
43.921,-0.73
43.937,-3.35
43.953,-6.21
43.968,-9.09
43.984,-11.75
44.000,-14.04
44.015,-16.04
44.031,-18.03
44.046,-20.28
44.062,-22.94
44.078,-25.89
44.093,-28.59
44.109,-30.35
44.125,-30.39
44.140,-28.18
44.156,-23.56
44.171,-16.87
44.187,-8.77
44.203,-0.09
44.218,8.38
44.234,16.01
44.250,22.39
44.265,27.27
44.281,30.53
44.296,32.19
44.312,32.38
44.328,31.39
44.343,29.62
44.359,27.56
44.375,25.65
44.390,24.17
44.406,23.26
44.421,22.85
44.437,22.74
44.453,22.74
44.468,22.7
44.484,22.54
44.500,22.26
44.515,21.85
44.531,21.28
44.546,20.58
44.562,19.77
44.578,18.89
44.593,18.02
44.609,17.14
44.625,16.2
44.640,15.06
44.656,13.64
44.671,11.97
44.687,10.2
44.703,8.56
44.718,7.22
44.734,6.27
44.750,5.62
44.765,5.13
44.781,4.66
44.796,4.11
44.812,3.48
44.828,2.8
44.843,2.1
44.859,1.34
44.875,0.51
44.890,-0.4
44.906,-1.32
44.921,-2.11
44.937,-2.65
44.953,-2.88
44.968,-2.86
44.984,-2.74
45.000,-2.72
45.015,-2.88
45.031,-3.29
45.046,-3.88
45.062,-4.55
45.078,-5.27
45.093,-6.04
45.109,-6.92
45.125,-8.0
45.140,-9.28
45.156,-10.72
45.171,-12.19
45.187,-13.58
45.203,-14.79
45.218,-15.88
45.234,-16.96
45.250,-18.21
45.265,-19.78
45.281,-21.71
45.296,-23.94
45.312,-26.3
45.328,-28.62
45.343,-30.79
45.359,-32.84
45.375,-34.88
45.390,-37.05
45.406,-39.48
45.421,-42.24
45.437,-45.29
45.453,-48.52
45.468,-51.68
45.484,-54.32
45.500,-55.85
45.515,-55.62
45.531,-53.1
45.546,-48.08
45.562,-40.82
45.578,-31.92
45.593,-22.22
45.609,-12.51
45.625,-3.44
45.640,4.65
45.656,11.52
45.671,17.03
45.687,21.08
45.703,23.6
45.718,24.7
45.734,24.6
45.750,23.69
45.765,22.39
45.781,21.02
45.796,19.72
45.812,18.51
45.828,17.3
45.843,16.02
45.859,14.7
45.875,13.43
45.890,12.29
45.906,11.29
45.921,10.34
45.937,9.28
45.953,7.99
45.968,6.43
45.984,4.61
46.000,2.65
46.015,0.59
46.031,-1.56
46.046,-3.83
46.062,-6.25
46.078,-8.85
46.093,-11.58
46.109,-14.39
46.125,-17.26
46.140,-20.1
46.156,-22.75
46.171,-24.86
46.187,-25.94
46.203,-25.48
46.218,-23.15
46.234,-18.93
46.250,-13.21
46.265,-6.67
46.281,-0.04
46.296,6.08
46.312,11.35
46.328,15.64
46.343,18.95
46.359,21.29
46.375,22.57
46.390,22.77
46.406,21.93
46.421,20.25
46.437,18.03
46.453,15.58
46.468,13.16
46.484,10.88
46.500,8.8
46.515,6.92
46.531,5.29
46.546,3.92
46.562,2.77
46.578,1.75
46.593,0.71
46.609,-0.51
46.625,-1.94
46.640,-3.53
46.656,-5.17
46.671,-6.75
46.687,-8.27
46.703,-9.84
46.718,-11.57
46.734,-13.54
46.750,-15.78
46.765,-18.25
46.781,-20.91
46.796,-23.68
46.812,-26.38
46.828,-28.66
46.843,-30.0
46.859,-29.81
46.875,-27.67
46.890,-23.44
46.906,-17.43
46.921,-10.26
46.937,-2.73
46.953,4.47
46.968,10.82
46.984,16.04
47.000,20.05
47.015,22.9
47.031,24.72
47.046,25.66
47.062,25.93
47.078,25.77
47.093,25.44
47.109,25.1
47.125,24.87
47.140,24.8
47.156,24.84
47.171,24.87
47.187,24.71
47.203,24.17
47.218,23.05
47.234,21.2
47.250,18.6
47.265,15.43
47.281,12.03
47.296,8.77
47.312,5.9
47.328,3.43
47.343,1.12
47.359,-1.35
47.375,-4.25
47.390,-7.58
47.406,-11.1
47.421,-14.39
47.437,-17.1
47.453,-19.0
47.468,-20.01
47.484,-20.09
47.500,-19.1
47.515,-16.81
47.531,-13.01
47.546,-7.72
47.562,-1.28
47.578,5.63
47.593,12.26
47.609,18.01
47.625,22.62
47.640,26.07
47.656,28.48
47.671,29.94
47.687,30.43
47.703,29.92
47.718,28.47
47.734,26.33
47.750,23.87
47.765,21.48
47.781,19.43
47.796,17.77
47.812,16.38
47.828,15.06
47.843,13.64
47.859,12.0
47.875,10.12
47.890,8.0
47.906,5.65
47.921,3.08
47.937,0.3
47.953,-2.7
47.968,-5.87
47.984,-9.18
48.000,-12.62
48.015,-16.22
48.031,-20.08
48.046,-24.33
48.062,-28.93
48.078,-33.62
48.093,-37.89
48.109,-41.1
48.125,-42.61
48.140,-42.04
48.156,-39.27
48.171,-34.53
48.187,-28.17
48.203,-20.65
48.218,-12.45
48.234,-4.07
48.250,3.91
48.265,10.91
48.281,16.43
48.296,20.19
48.312,22.17
48.328,22.62
48.343,21.98
48.359,20.72
48.375,19.21
48.390,17.74
48.406,16.45
48.421,15.35
48.437,14.41
48.453,13.56
48.468,12.71
48.484,11.82
48.500,10.79
48.515,9.57
48.531,8.02
48.546,6.05
48.562,3.58
48.578,0.59
48.593,-2.8
48.609,-6.42
48.625,-10.03
48.640,-13.41
48.656,-16.36
48.671,-18.89
48.687,-21.12
48.703,-23.31
48.718,-25.73
48.734,-28.59
48.750,-31.87
48.765,-35.24
48.781,-38.12
48.796,-39.78
48.812,-39.59
48.828,-37.07
48.843,-32.14
48.859,-25.08
48.875,-16.49
48.890,-7.16
48.906,2.09
48.921,10.56
48.937,17.81
48.953,23.64
48.968,28.0
48.984,30.94
49.000,32.51
49.015,32.82
49.031,32.05
49.046,30.51
49.062,28.54
49.078,26.49
49.093,24.64
49.109,23.09
49.125,21.82
49.140,20.69
49.156,19.56
49.171,18.25
49.187,16.68
49.203,14.79
49.218,12.56
49.234,10.04
49.250,7.27
49.265,4.31
49.281,1.22
49.296,-1.96
49.312,-5.17
49.328,-8.25
49.343,-11.03
49.359,-13.41
49.375,-15.39
49.390,-17.11
49.406,-18.83
49.421,-20.84
49.437,-23.36
49.453,-26.38
49.468,-29.63
49.484,-32.55
49.500,-34.4
49.515,-34.42
49.531,-32.08
49.546,-27.24
49.562,-20.28
49.578,-11.94
49.593,-3.14
49.609,5.31
49.625,12.81
49.640,18.98
49.656,23.6
49.671,26.61
49.687,28.0
49.703,27.98
49.718,26.87
49.734,25.12
49.750,23.18
49.765,21.39
49.781,19.88
49.796,18.59
49.812,17.37
49.828,16.08
49.843,14.68
49.859,13.2
49.875,11.7
49.890,10.22
49.906,8.79
49.921,7.37
49.937,5.9
49.953,4.27
49.968,2.41
49.984,0.31
50.000,-1.97
50.015,-4.33
50.031,-6.69
50.046,-8.96
50.062,-11.11
50.078,-13.19
50.093,-15.31
50.109,-17.63
50.125,-20.24
50.140,-23.15
50.156,-26.15
50.171,-28.82
50.187,-30.55
50.203,-30.69
50.218,-28.7
50.234,-24.37
50.250,-17.9
50.265,-9.9
50.281,-1.23
50.296,7.19
50.312,14.64
50.328,20.65
50.343,24.99
50.359,27.65
50.375,28.75
50.390,28.49
50.406,27.12
50.421,24.97
50.437,22.42
50.453,19.8
50.468,17.38
50.484,15.27
50.500,13.52
50.515,12.07
50.531,10.81
50.546,9.62
50.562,8.38
50.578,6.99
50.593,5.36
50.609,3.46
50.625,1.31
50.640,-1.01
50.656,-3.45
50.671,-5.97
50.687,-8.54
50.703,-11.19
50.718,-13.93
50.734,-16.75
50.750,-19.66
50.765,-22.6
50.781,-25.54
50.796,-28.43
50.812,-31.16
50.828,-33.45
50.843,-34.93
50.859,-35.1
50.875,-33.5
50.890,-29.82
50.906,-24.08
50.921,-16.62
50.937,-8.08
50.953,0.78
50.968,9.24
50.984,16.67
51.000,22.68
51.015,27.02
51.031,29.71
51.046,30.94
51.062,31.04
51.078,30.42
51.093,29.46
51.109,28.35
51.125,27.13
51.140,25.77
51.156,24.19
51.171,22.36
51.187,20.34
51.203,18.29
51.218,16.3
51.234,14.49
51.250,12.82
51.265,11.19
51.281,9.5
51.296,7.59
51.312,5.38
51.328,2.84
51.343,0.02
51.359,-2.99
51.375,-6.02
51.390,-8.94
51.406,-11.66
51.421,-14.13
51.437,-16.41
51.453,-18.63
51.468,-21.02
51.484,-23.77
51.500,-26.96
51.515,-30.38
51.531,-33.56
51.546,-35.81
51.562,-36.41
51.578,-34.81
51.593,-30.77
51.609,-24.5
51.625,-16.59
51.640,-7.85
51.656,0.87
51.671,8.85
51.687,15.65
51.703,21.08
51.718,25.16
51.734,28.02
51.750,29.82
51.765,30.66
51.781,30.7
51.796,30.1
51.812,29.04
51.828,27.73
51.843,26.33
51.859,24.92
51.875,23.51
51.890,22.02
51.906,20.37
51.921,18.46
51.937,16.27
51.953,13.86
51.968,11.38
51.984,8.97
52.000,6.73
52.015,4.64
52.031,2.64
52.046,0.54
52.062,-1.77
52.078,-4.3
52.093,-6.97
52.109,-9.57
52.125,-11.94
52.140,-14.04
52.156,-15.96
52.171,-17.94
52.187,-20.26
52.203,-23.11
52.218,-26.55
52.234,-30.47
52.250,-34.6
52.265,-38.62
52.281,-42.09
52.296,-44.47
52.312,-45.22
52.328,-43.83
52.343,-40.0
52.359,-33.81
52.375,-25.78
52.390,-16.7
52.406,-7.52
52.421,0.99
52.437,8.32
52.453,14.26
52.468,18.85
52.484,22.2
52.500,24.46
52.515,25.72
52.531,26.14
52.546,25.87
52.562,25.09
52.578,23.97
52.593,22.69
52.609,21.38
52.625,20.14
52.640,19.05
52.656,18.1
52.671,17.24
52.687,16.31
52.703,15.19
52.718,13.79
52.734,12.15
52.750,10.37
52.765,8.55
52.781,6.74
52.796,4.87
52.812,2.82
52.828,0.48
52.843,-2.15
52.859,-4.98
52.875,-7.88
52.890,-10.71
52.906,-13.39
52.921,-15.89
52.937,-18.28
52.953,-20.68
52.968,-23.26
52.984,-26.13
53.000,-29.27
53.015,-32.44
53.031,-35.16
53.046,-36.8
53.062,-36.73
53.078,-34.55
53.093,-30.17
53.109,-23.91
53.125,-16.37
53.140,-8.26
53.156,-0.22
53.171,7.27
53.187,13.87
53.203,19.36
53.218,23.6
53.234,26.53
53.250,28.16
53.265,28.59
53.281,28.11
53.296,27.07
53.312,25.86
53.328,24.76
53.343,23.87
53.359,23.11
53.375,22.28
53.390,21.18
53.406,19.7
53.421,17.9
53.437,15.94
53.453,14.03
53.468,12.37
53.484,10.97
53.500,9.74
53.515,8.5
53.531,7.04
53.546,5.25
53.562,3.16
53.578,0.84
53.593,-1.59
53.609,-4.02
53.625,-6.43
53.640,-8.87
53.656,-11.4
53.671,-14.07
53.687,-16.84
53.703,-19.71
53.718,-22.64
53.734,-25.67
53.750,-28.75
53.765,-31.67
53.781,-33.98
53.796,-35.05
53.812,-34.33
53.828,-31.5
53.843,-26.65
53.859,-20.26
53.875,-13.01
53.890,-5.56
53.906,1.53
53.921,7.94
53.937,13.41
53.953,17.8
53.968,20.89
53.984,22.67
54.000,23.24
54.015,22.89
54.031,21.99
54.046,20.9
54.062,19.92
54.078,19.21
54.093,18.8
54.109,18.58
54.125,18.38
54.140,17.96
54.156,17.13
54.171,15.8
54.187,14.04
54.203,12.03
54.218,9.96
54.234,7.92
54.250,5.89
54.265,3.79
54.281,1.52
54.296,-0.93
54.312,-3.51
54.328,-6.1
54.343,-8.58
54.359,-10.86
54.375,-12.9
54.390,-14.69
54.406,-16.37
54.421,-18.21
54.437,-20.54
54.453,-23.59
54.468,-27.33
54.484,-31.34
54.500,-34.85
54.515,-36.95
54.531,-36.94
54.546,-34.53
54.562,-29.92
54.578,-23.63
54.593,-16.35
54.609,-8.67
54.625,-1.13
54.640,5.83
54.656,11.86
54.671,16.64
54.687,19.97
54.703,21.79
54.718,22.24
54.734,21.6
54.750,20.23
54.765,18.48
54.781,16.63
54.796,14.86
54.812,13.24
54.828,11.76
54.843,10.37
54.859,9.07
54.875,7.83
54.890,6.66
54.906,5.59
54.921,4.53
54.937,3.31
54.953,1.8
54.968,-0.1
54.984,-2.33
55.000,-4.71
55.015,-7.01
55.031,-9.07
55.046,-10.81
55.062,-12.35
55.078,-13.82
55.093,-15.47
55.109,-17.49
55.125,-19.97
55.140,-22.84
55.156,-25.79
55.171,-28.21
55.187,-29.37
55.203,-28.61
55.218,-25.59
55.234,-20.45
55.250,-13.75
55.265,-6.26
55.281,1.25
55.296,8.25
55.312,14.35
55.328,19.3
55.343,22.81
55.359,24.67
55.375,24.79
55.390,23.34
55.406,20.69
55.421,17.35
55.437,13.86
55.453,10.6
55.468,7.84
55.484,5.69
55.500,4.12
55.515,3.05
55.531,2.32
55.546,1.7
55.562,0.93
55.578,-0.17
55.593,-1.73
55.609,-3.73
55.625,-6.08
55.640,-8.64
55.656,-11.28
55.671,-13.94
55.687,-16.55
55.703,-19.11
55.718,-21.62
55.734,-24.17
55.750,-26.85
55.765,-29.7
55.781,-32.64
55.796,-35.4
55.812,-37.49
55.828,-38.26
55.843,-37.07
55.859,-33.49
55.875,-27.46
55.890,-19.3
55.906,-9.71
55.921,0.44
55.937,10.27
55.953,19.07
55.968,26.34
55.984,31.78
56.000,35.35
56.015,37.1
56.031,37.27
56.046,36.18
56.062,34.23
56.078,31.75
56.093,29.07
56.109,26.4
56.125,23.87
56.140,21.63
56.156,19.75
56.171,18.27
56.187,17.14
56.203,16.2
56.218,15.25
56.234,14.1
56.250,12.61
56.265,10.73
56.281,8.51
56.296,6.0
56.312,3.29
56.328,0.5
56.343,-2.31
56.359,-5.11
56.375,-7.88
56.390,-10.69
56.406,-13.62
56.421,-16.74
56.437,-20.09
56.453,-23.6
56.468,-27.01
56.484,-29.87
56.500,-31.6
56.515,-31.54
56.531,-29.25
56.546,-24.59
56.562,-17.84
56.578,-9.68
56.593,-0.95
56.609,7.47
56.625,14.89
56.640,20.78
56.656,24.92
56.671,27.28
56.687,28.05
56.703,27.57
56.718,26.23
56.734,24.39
56.750,22.29
56.765,20.05
56.781,17.75
56.796,15.51
56.812,13.54
56.828,12.03
56.843,11.11
56.859,10.65
56.875,10.34
56.890,9.84
56.906,8.86
56.921,7.38
56.937,5.56
56.953,3.65
56.968,1.88
56.984,0.32
57.000,-1.12
57.015,-2.64
57.031,-4.48
57.046,-6.85
57.062,-9.89
57.078,-13.61
57.093,-17.94
57.109,-22.56
57.125,-26.99
57.140,-30.53
57.156,-32.5
57.171,-32.33
57.187,-29.78
57.203,-24.96
57.218,-18.28
57.234,-10.44
57.250,-2.16
57.265,5.88
57.281,13.12
57.296,19.11
57.312,23.54
57.328,26.26
57.343,27.33
57.359,27.02
57.375,25.72
57.390,23.89
57.406,21.94
57.421,20.17
57.437,18.77
57.453,17.8
57.468,17.21
57.484,16.9
57.500,16.7
57.515,16.4
57.531,15.8
57.546,14.73
57.562,13.1
57.578,10.86
57.593,7.96
57.609,4.37
57.625,0.15
57.640,-4.49
57.656,-9.18
57.671,-13.45
57.687,-16.91
57.703,-19.44
57.718,-21.25
57.734,-22.86
57.750,-24.91
57.765,-27.79
57.781,-31.46
57.796,-35.36
57.812,-38.64
57.828,-40.36
57.843,-39.86
57.859,-36.86
57.875,-31.54
57.890,-24.41
57.906,-16.14
57.921,-7.49
57.937,0.87
57.953,8.29
57.968,14.3
57.984,18.57
58.000,21.03
58.015,21.88
58.031,21.48
58.046,20.35
58.062,18.93
58.078,17.51
58.093,16.19
58.109,14.95
58.125,13.71
58.140,12.46
58.156,11.27
58.171,10.24
58.187,9.42
58.203,8.77
58.218,8.14
58.234,7.34
58.250,6.19
58.265,4.59
58.281,2.52
58.296,0.08
58.312,-2.65
58.328,-5.54
58.343,-8.44
58.359,-11.18
58.375,-13.61
58.390,-15.71
58.406,-17.57
58.421,-19.41
58.437,-21.44
58.453,-23.66
58.468,-25.8
58.484,-27.29
58.500,-27.42
58.515,-25.64
58.531,-21.72
58.546,-15.9
58.562,-8.77
58.578,-1.1
58.593,6.29
58.609,12.77
58.625,17.86
58.640,21.32
58.656,23.15
58.671,23.54
58.687,22.81
58.703,21.35
58.718,19.54
58.734,17.7
58.750,15.99
58.765,14.48
58.781,13.15
58.796,11.93
58.812,10.74
58.828,9.53
58.843,8.26
58.859,6.9
58.875,5.4
58.890,3.64
58.906,1.56
58.921,-0.81
58.937,-3.37
58.953,-5.91
58.968,-8.2
58.984,-10.12
59.000,-11.72
59.015,-13.19
59.031,-14.81
59.046,-16.87
59.062,-19.49
59.078,-22.63
59.093,-25.97
59.109,-29.04
59.125,-31.23
59.140,-31.95
59.156,-30.74
59.171,-27.41
59.187,-22.15
59.203,-15.48
59.218,-8.1
59.234,-0.72
59.250,6.05
59.265,11.77
59.281,16.19
59.296,19.19
59.312,20.79
59.328,21.13
59.343,20.46
59.359,19.09
59.375,17.37
59.390,15.57
59.406,13.87
59.421,12.38
59.437,11.08
59.453,9.91
59.468,8.81
59.484,7.67
59.500,6.39
59.515,4.9
59.531,3.2
59.546,1.42
59.562,-0.21
59.578,-1.5
59.593,-2.39
59.609,-3.01
59.625,-3.62
59.640,-4.5
59.656,-5.8
59.671,-7.52
59.687,-9.53
59.703,-11.73
59.718,-14.07
59.734,-16.45
59.750,-18.6
59.765,-20.05
59.781,-20.22
59.796,-18.57
59.812,-14.91
59.828,-9.48
59.843,-2.91
59.859,3.96
59.875,10.39
59.890,15.84
59.906,20.07
59.921,23.06
59.937,24.96
59.953,25.95
59.968,26.15
59.984,25.64
