timestamp,value
00.000,32.71
00.015,34.89
00.031,36.57
00.046,37.85
00.062,38.74
00.078,39.19
00.093,39.08
00.109,38.31
00.125,36.89
00.140,35.02
00.156,32.94
00.171,30.97
00.187,29.34
00.203,28.13
00.218,27.24
00.234,26.39
00.250,25.15
00.265,23.14
00.281,20.17
00.296,16.29
00.312,11.86
00.328,7.44
00.343,3.47
00.359,0.14
00.375,-2.63
00.390,-5.13
00.406,-7.66
00.421,-10.4
00.437,-13.37
00.453,-16.55
00.468,-19.89
00.484,-23.36
00.500,-26.86
00.515,-30.16
00.531,-32.82
00.546,-34.27
00.562,-33.95
00.578,-31.47
00.593,-26.71
00.609,-19.94
00.625,-11.77
00.640,-2.98
00.656,5.7
00.671,13.72
00.687,20.79
00.703,26.72
00.718,31.4
00.734,34.71
00.750,36.6
00.765,37.17
00.781,36.8
00.796,36.02
00.812,35.4
00.828,35.24
00.843,35.43
00.859,35.62
00.875,35.32
00.890,34.19
00.906,32.16
00.921,29.45
00.937,26.35
00.953,23.2
00.968,20.16
00.984,17.34
01.000,14.72
01.015,12.19
01.031,9.61
01.046,6.83
01.062,3.74
01.078,0.27
01.093,-3.52
01.109,-7.55
01.125,-11.72
01.140,-15.97
01.156,-20.32
01.171,-24.74
01.187,-29.01
01.203,-32.82
01.218,-35.83
01.234,-37.79
01.250,-38.64
01.265,-38.52
01.281,-37.55
01.296,-35.84
01.312,-33.29
01.328,-29.72
01.343,-25.0
01.359,-19.19
01.375,-12.55
01.390,-5.46
01.406,1.64
01.421,8.38
01.437,14.49
01.453,19.74
01.468,23.89
01.484,26.73
01.500,28.12
01.515,28.09
01.531,26.88
01.546,24.98
01.562,22.98
01.578,21.43
01.593,20.62
01.609,20.49
01.625,20.7
01.640,20.79
01.656,20.43
01.671,19.47
01.687,17.98
01.703,16.09
01.718,13.91
01.734,11.4
01.750,8.61
01.765,5.65
01.781,2.81
01.796,0.44
01.812,-1.19
01.828,-2.16
01.843,-2.78
01.859,-3.55
01.875,-4.95
01.890,-7.23
01.906,-10.41
01.921,-14.26
01.937,-18.43
01.953,-22.52
01.968,-26.18
01.984,-29.09
02.000,-30.97
02.015,-31.61
02.031,-30.88
02.046,-28.76
02.062,-25.39
02.078,-21.07
02.093,-16.24
02.109,-11.3
02.125,-6.53
02.140,-2.02
02.156,2.33
02.171,6.67
02.187,11.04
02.203,15.33
02.218,19.24
02.234,22.38
02.250,24.5
02.265,25.51
02.281,25.49
02.296,24.69
02.312,23.42
02.328,21.93
02.343,20.4
02.359,18.92
02.375,17.49
02.390,16.13
02.406,14.84
02.421,13.64
02.437,12.48
02.453,11.25
02.468,9.77
02.484,7.88
02.500,5.49
02.515,2.66
02.531,-0.41
02.546,-3.47
02.562,-6.28
02.578,-8.7
02.593,-10.76
02.609,-12.57
02.625,-14.31
02.640,-16.21
02.656,-18.48
02.671,-21.3
02.687,-24.68
02.703,-28.45
02.718,-32.17
02.734,-35.23
02.750,-36.93
02.765,-36.73
02.781,-34.36
02.796,-29.86
02.812,-23.63
02.828,-16.27
02.843,-8.43
02.859,-0.75
02.875,6.29
02.890,12.28
02.906,17.01
02.921,20.41
02.937,22.62
02.953,23.92
02.968,24.68
02.984,25.23
03.000,25.82
03.015,26.55
03.031,27.38
03.046,28.2
03.062,28.78
03.078,28.85
03.093,28.17
03.109,26.55
03.125,24.05
03.140,21.05
03.156,18.15
03.171,16.0
03.187,15.04
03.203,15.23
03.218,16.04
03.234,16.83
03.250,16.97
03.265,16.26
03.281,14.87
03.296,13.15
03.312,11.39
03.328,9.72
03.343,8.06
03.359,6.33
03.375,4.65
03.390,3.2
03.406,2.22
03.421,1.79
03.437,1.77
03.453,1.82
03.468,1.6
03.484,0.84
03.500,-0.55
03.515,-2.39
03.531,-4.42
03.546,-6.2
03.562,-7.35
03.578,-7.66
03.593,-7.19
03.609,-6.32
03.625,-5.52
03.640,-5.23
03.656,-5.48
03.671,-6.11
03.687,-6.77
03.703,-7.28
03.718,-7.75
03.734,-8.43
03.750,-9.58
03.765,-11.13
03.781,-12.82
03.796,-14.18
03.812,-15.0
03.828,-15.34
03.843,-15.56
03.859,-16.12
03.875,-17.35
03.890,-19.36
03.906,-22.03
03.921,-25.13
03.937,-28.32
03.953,-31.34
03.968,-33.95
03.984,-35.97
04.000,-37.43
04.015,-38.49
04.031,-39.41
04.046,-40.55
04.062,-42.19
04.078,-44.48
04.093,-47.39
04.109,-50.63
04.125,-53.6
04.140,-55.55
04.156,-55.66
04.171,-53.38
04.187,-48.62
04.203,-41.85
04.218,-33.92
04.234,-25.72
04.250,-18.06
04.265,-11.39
04.281,-5.92
04.296,-1.61
04.312,1.61
04.328,3.95
04.343,5.65
04.359,7.03
04.375,8.42
04.390,9.97
04.406,11.64
04.421,13.25
04.437,14.51
04.453,15.21
04.468,15.22
04.484,14.52
04.500,13.17
04.515,11.31
04.531,9.17
04.546,7.03
04.562,5.18
04.578,3.81
04.593,2.91
04.609,2.28
04.625,1.59
04.640,0.55
04.656,-1.03
04.671,-3.16
04.687,-5.78
04.703,-8.77
04.718,-12.02
04.734,-15.36
04.750,-18.59
04.765,-21.55
04.781,-24.01
04.796,-25.76
04.812,-26.53
04.828,-26.02
04.843,-24.05
04.859,-20.67
04.875,-16.21
04.890,-11.23
04.906,-6.33
04.921,-1.86
04.937,2.21
04.953,6.24
04.968,10.68
04.984,15.67
05.000,20.97
05.015,25.94
05.031,29.86
05.046,32.24
05.062,32.99
05.078,32.44
05.093,31.15
05.109,29.68
05.125,28.45
05.140,27.63
05.156,27.21
05.171,26.99
05.187,26.83
05.203,26.57
05.218,26.13
05.234,25.52
05.250,24.78
05.265,23.93
05.281,22.99
05.296,21.97
05.312,20.82
05.328,19.62
05.343,18.45
05.359,17.46
05.375,16.64
05.390,15.98
05.406,15.32
05.421,14.46
05.437,13.27
05.453,11.65
05.468,9.66
05.484,7.36
05.500,4.92
05.515,2.54
05.531,0.53
05.546,-0.85
05.562,-1.42
05.578,-1.24
05.593,-0.59
05.609,0.13
05.625,0.61
05.640,0.68
05.656,0.42
05.671,-0.06
05.687,-0.71
05.703,-1.51
05.718,-2.46
05.734,-3.5
05.750,-4.4
05.765,-4.91
05.781,-4.98
05.796,-4.72
05.812,-4.46
05.828,-4.61
05.843,-5.43
05.859,-7.06
05.875,-9.57
05.890,-12.94
05.906,-17.1
05.921,-21.86
05.937,-26.86
05.953,-31.66
05.968,-35.89
05.984,-39.41
06.000,-42.43
06.015,-45.44
06.031,-48.99
06.046,-53.34
06.062,-58.27
06.078,-63.05
06.093,-66.56
06.109,-67.72
06.125,-65.74
06.140,-60.44
06.156,-52.28
06.171,-42.22
06.187,-31.52
06.203,-21.31
06.218,-12.49
06.234,-5.59
06.250,-0.83
06.265,1.81
06.281,2.61
06.296,2.06
06.312,0.89
06.328,-0.17
06.343,-0.55
06.359,-0.03
06.375,1.25
06.390,2.87
06.406,4.33
06.421,5.24
06.437,5.37
06.453,4.72
06.468,3.43
06.484,1.78
06.500,0.14
06.515,-1.07
06.531,-1.67
06.546,-1.72
06.562,-1.56
06.578,-1.7
06.593,-2.52
06.609,-4.2
06.625,-6.65
06.640,-9.75
06.656,-13.4
06.671,-17.58
06.687,-22.08
06.703,-26.31
06.718,-29.39
06.734,-30.33
06.750,-28.48
06.765,-23.78
06.781,-16.86
06.796,-8.76
06.812,-0.55
06.828,6.97
06.843,13.49
06.859,19.02
06.875,23.77
06.890,27.93
06.906,31.56
06.921,34.59
06.937,36.83
06.953,38.07
06.968,38.17
06.984,37.13
07.000,35.11
07.015,32.42
07.031,29.34
07.046,26.02
07.062,22.54
07.078,18.92
07.093,15.19
07.109,11.55
07.125,8.28
07.140,5.59
07.156,3.59
07.171,2.07
07.187,0.61
07.203,-1.24
07.218,-3.81
07.234,-7.2
07.250,-11.26
07.265,-15.74
07.281,-20.33
07.296,-24.66
07.312,-28.24
07.328,-30.53
07.343,-30.96
07.359,-29.11
07.375,-24.83
07.390,-18.39
07.406,-10.44
07.421,-1.86
07.437,6.45
07.453,13.77
07.468,19.78
07.484,24.54
07.500,28.36
07.515,31.63
07.531,34.56
07.546,37.08
07.562,38.89
07.578,39.6
07.593,38.98
07.609,37.1
07.625,34.36
07.640,31.29
07.656,28.39
07.671,25.9
07.687,23.82
07.703,21.98
07.718,20.23
07.734,18.41
07.750,16.51
07.765,14.5
07.781,12.3
07.796,9.73
07.812,6.6
07.828,2.76
07.843,-1.75
07.859,-6.75
07.875,-12.03
07.890,-17.33
07.906,-22.43
07.921,-27.07
07.937,-30.84
07.953,-33.15
07.968,-33.37
07.984,-31.07
08.000,-26.3
08.015,-19.61
08.031,-11.93
08.046,-4.16
08.062,3.04
08.078,9.49
08.093,15.36
08.109,20.9
08.125,26.13
08.140,30.78
08.156,34.41
08.171,36.58
08.187,37.18
08.203,36.36
08.218,34.56
08.234,32.29
08.250,29.96
08.265,27.77
08.281,25.69
08.296,23.6
08.312,21.34
08.328,18.78
08.343,15.9
08.359,12.78
08.375,9.52
08.390,6.19
08.406,2.86
08.421,-0.49
08.437,-3.96
08.453,-7.65
08.468,-11.63
08.484,-15.82
08.500,-20.09
08.515,-24.19
08.531,-27.87
08.546,-30.79
08.562,-32.6
08.578,-32.91
08.593,-31.39
08.609,-27.92
08.625,-22.58
08.640,-15.82
08.656,-8.21
08.671,-0.4
08.687,7.18
08.703,14.22
08.718,20.58
08.734,26.14
08.750,30.68
08.765,34.04
08.781,36.02
08.796,36.59
08.812,35.86
08.828,34.1
08.843,31.67
08.859,28.94
08.875,26.24
08.890,23.74
08.906,21.49
08.921,19.43
08.937,17.41
08.953,15.34
08.968,13.17
08.984,10.91
09.000,8.49
09.015,5.73
09.031,2.39
09.046,-1.73
09.062,-6.57
09.078,-11.84
09.093,-17.1
09.109,-21.87
09.125,-25.77
09.140,-28.62
09.156,-30.37
09.171,-30.99
09.187,-30.4
09.203,-28.48
09.218,-25.17
09.234,-20.54
09.250,-14.8
09.265,-8.22
09.281,-1.11
09.296,6.19
09.312,13.29
09.328,19.76
09.343,25.12
09.359,28.96
09.375,31.07
09.390,31.54
09.406,30.72
09.421,29.1
09.437,27.15
09.453,25.24
09.468,23.59
09.484,22.25
09.500,21.17
09.515,20.24
09.531,19.29
09.546,18.14
09.562,16.62
09.578,14.62
09.593,12.09
09.609,9.01
09.625,5.42
09.640,1.47
09.656,-2.67
09.671,-6.79
09.687,-10.68
09.703,-14.25
09.718,-17.54
09.734,-20.7
09.750,-23.89
09.765,-27.28
09.781,-30.72
09.796,-33.95
09.812,-36.52
09.828,-37.96
09.843,-37.83
09.859,-35.82
09.875,-31.81
09.890,-25.87
09.906,-18.41
09.921,-9.99
09.937,-1.34
09.953,6.81
09.968,13.88
09.984,19.55
10.000,23.75
10.015,26.57
10.031,28.25
10.046,29.03
10.062,29.24
10.078,29.15
10.093,29.03
10.109,28.97
10.125,28.81
10.140,28.27
10.156,26.99
10.171,24.7
10.187,21.41
10.203,17.4
10.218,13.1
10.234,9.0
10.250,5.51
10.265,2.8
10.281,0.83
10.296,-0.62
10.312,-1.89
10.328,-3.3
10.343,-5.09
10.359,-7.36
10.375,-10.11
10.390,-13.24
10.406,-16.73
10.421,-20.54
10.437,-24.63
10.453,-28.8
10.468,-32.79
10.484,-36.26
10.500,-38.87
10.515,-40.36
10.531,-40.51
10.546,-39.23
10.562,-36.45
10.578,-32.27
10.593,-26.88
10.609,-20.61
10.625,-13.9
10.640,-7.17
10.656,-0.74
10.671,5.14
10.687,10.32
10.703,14.71
10.718,18.32
10.734,21.15
10.750,23.25
10.765,24.58
10.781,25.0
10.796,24.39
10.812,22.77
10.828,20.39
10.843,17.75
10.859,15.42
10.875,13.73
10.890,12.76
10.906,12.22
10.921,11.69
10.937,10.77
10.953,9.33
10.968,7.39
10.984,5.12
11.000,2.67
11.015,0.05
11.031,-2.69
11.046,-5.45
11.062,-8.03
11.078,-10.19
11.093,-11.82
11.109,-13.03
11.125,-14.11
11.140,-15.43
11.156,-17.25
11.171,-19.62
11.187,-22.34
11.203,-25.19
11.218,-27.89
11.234,-30.3
11.250,-32.25
11.265,-33.47
11.281,-33.64
11.296,-32.43
11.312,-29.64
11.328,-25.36
11.343,-20.04
11.359,-14.24
11.375,-8.61
11.390,-3.62
11.406,0.54
11.421,3.96
11.437,6.9
11.453,9.73
11.468,12.65
11.484,15.59
11.500,18.33
11.515,20.47
11.531,21.79
11.546,22.29
11.562,22.23
11.578,21.98
11.593,21.83
11.609,21.79
11.625,21.67
11.640,21.27
11.656,20.46
11.671,19.26
11.687,17.81
11.703,16.23
11.718,14.56
11.734,12.77
11.750,10.78
11.765,8.58
11.781,6.17
11.796,3.57
11.812,0.83
11.828,-1.97
11.843,-4.74
11.859,-7.35
11.875,-9.76
11.890,-12.1
11.906,-14.62
11.921,-17.66
11.937,-21.43
11.953,-25.87
11.968,-30.6
11.984,-35.06
12.000,-38.55
12.015,-40.55
12.031,-40.71
12.046,-38.89
12.062,-35.24
12.078,-30.03
12.093,-23.7
12.109,-16.78
12.125,-9.83
12.140,-3.35
12.156,2.25
12.171,6.74
12.187,10.03
12.203,12.15
12.218,13.27
12.234,13.69
12.250,13.74
12.265,13.77
12.281,14.01
12.296,14.54
12.312,15.26
12.328,15.91
12.343,16.22
12.359,15.98
12.375,15.2
12.390,13.96
12.406,12.49
12.421,10.97
12.437,9.51
12.453,8.16
12.468,6.92
12.484,5.72
12.500,4.47
12.515,3.03
12.531,1.16
12.546,-1.3
12.562,-4.44
12.578,-8.15
12.593,-12.17
12.609,-16.06
12.625,-19.48
12.640,-22.18
12.656,-24.15
12.671,-25.59
12.687,-26.79
12.703,-28.04
12.718,-29.58
12.734,-31.41
12.750,-33.37
12.765,-35.08
12.781,-36.04
12.796,-35.79
12.812,-33.99
12.828,-30.51
12.843,-25.45
12.859,-19.18
12.875,-12.17
12.890,-5.03
12.906,1.66
12.921,7.43
12.937,11.95
12.953,15.13
12.968,17.08
12.984,18.05
13.000,18.38
13.015,18.44
13.031,18.61
13.046,19.11
13.062,20.06
13.078,21.29
13.093,22.47
13.109,23.14
13.125,22.95
13.140,21.73
13.156,19.61
13.171,16.87
13.187,13.86
13.203,10.86
13.218,8.12
13.234,5.8
13.250,4.02
13.265,2.78
13.281,1.94
13.296,1.24
13.312,0.32
13.328,-1.11
13.343,-3.21
13.359,-5.99
13.375,-9.34
13.390,-13.01
13.406,-16.81
13.421,-20.51
13.437,-23.93
13.453,-26.98
13.468,-29.59
13.484,-31.7
13.500,-33.28
13.515,-34.15
13.531,-34.06
13.546,-32.79
13.562,-30.25
13.578,-26.51
13.593,-21.78
13.609,-16.42
13.625,-10.67
13.640,-4.78
13.656,1.08
13.671,6.7
13.687,11.77
13.703,15.92
13.718,18.94
13.734,20.7
13.750,21.26
13.765,20.84
13.781,19.72
13.796,18.27
13.812,16.88
13.828,15.91
13.843,15.6
13.859,16.02
13.875,16.95
13.890,18.03
13.906,18.84
13.921,19.07
13.937,18.61
13.953,17.49
13.968,15.77
13.984,13.51
14.000,10.76
14.015,7.58
14.031,4.11
14.046,0.59
14.062,-2.77
14.078,-5.83
14.093,-8.51
14.109,-10.93
14.125,-13.2
14.140,-15.56
14.156,-18.24
14.171,-21.43
14.187,-25.12
14.203,-29.03
14.218,-32.65
14.234,-35.37
14.250,-36.74
14.265,-36.59
14.281,-34.99
14.296,-32.2
14.312,-28.37
14.328,-23.59
14.343,-17.9
14.359,-11.43
14.375,-4.51
14.390,2.4
14.406,8.82
14.421,14.4
14.437,18.99
14.453,22.59
14.468,25.24
14.484,27.01
14.500,27.94
14.515,28.16
14.531,27.81
14.546,27.1
14.562,26.18
14.578,25.13
14.593,24.01
14.609,22.85
14.625,21.72
14.640,20.69
14.656,19.84
14.671,19.07
14.687,18.13
14.703,16.64
14.718,14.22
14.734,10.65
14.750,5.99
14.765,0.62
14.781,-4.8
14.796,-9.58
14.812,-13.27
14.828,-15.83
14.843,-17.75
14.859,-19.75
14.875,-22.5
14.890,-26.24
14.906,-30.61
14.921,-34.84
14.937,-38.15
14.953,-40.13
14.968,-40.86
14.984,-40.88
15.000,-40.7
15.015,-40.41
15.031,-39.47
15.046,-36.81
15.062,-31.25
15.078,-22.1
15.093,-9.53
15.109,5.39
15.125,21.07
15.140,35.84
15.156,48.56
15.171,58.79
15.187,66.92
15.203,74.09
15.218,82.18
15.234,93.64
15.250,110.89
15.265,135.01
15.281,164.51
15.296,194.62
15.312,218.22
15.328,228.23
15.343,220.39
15.359,195.16
15.375,157.53
15.390,114.85
15.406,73.93
15.421,38.84
15.437,10.46
15.453,-12.31
15.468,-30.73
15.484,-45.12
15.500,-54.99
15.515,-59.9
15.531,-60.44
15.546,-58.34
15.562,-55.75
15.578,-54.36
15.593,-54.76
15.609,-56.52
15.625,-58.53
15.640,-59.84
15.656,-59.97
15.671,-59.11
15.687,-57.83
15.703,-56.72
15.718,-55.96
15.734,-55.19
15.750,-53.58
15.765,-50.09
15.781,-43.91
15.796,-34.77
15.812,-23.13
15.828,-9.99
15.843,3.37
15.859,15.78
15.875,26.44
15.890,35.05
15.906,41.76
15.921,47.07
15.937,51.66
15.953,56.18
15.968,60.93
15.984,65.7
16.000,69.78
16.015,72.12
16.031,71.95
16.046,69.08
16.062,64.12
16.078,58.17
16.093,52.33
16.109,47.21
16.125,42.74
16.140,38.41
16.156,33.6
16.171,28.08
16.187,22.08
16.203,16.22
16.218,11.19
16.234,7.42
16.250,4.96
16.265,3.45
16.281,2.31
16.296,1.07
16.312,-0.52
16.328,-2.37
16.343,-4.11
16.359,-5.23
16.375,-5.36
16.390,-4.18
16.406,-1.53
16.421,2.69
16.437,8.49
16.453,15.8
16.468,24.32
16.484,33.55
16.500,42.92
16.515,51.79
16.531,59.68
16.546,66.19
16.562,71.03
16.578,73.93
16.593,74.72
16.609,73.39
16.625,70.11
16.640,65.27
16.656,59.29
16.671,52.65
16.687,45.72
16.703,38.78
16.718,31.99
16.734,25.27
16.750,17.95
16.765,9.03
16.781,-2.75
16.796,-18.28
16.812,-37.55
16.828,-59.59
16.843,-82.98
16.859,-106.49
16.875,-129.36
16.890,-150.93
16.906,-169.73
16.921,-183.24
16.937,-188.6
16.953,-184.07
16.968,-170.56
16.984,-151.9
17.000,-133.52
17.015,-120.17
17.031,-114.03
17.046,-114.21
17.062,-117.87
17.078,-122.15
17.093,-125.42
17.109,-127.44
17.125,-128.39
17.140,-127.93
17.156,-124.9
17.171,-118.0
17.187,-106.66
17.203,-91.64
17.218,-74.82
17.234,-58.28
17.250,-43.71
17.265,-31.79
17.281,-22.3
17.296,-14.58
17.312,-7.97
17.328,-2.08
17.343,3.25
17.359,7.86
17.375,11.72
17.390,14.76
17.406,17.13
17.421,19.0
17.437,20.49
17.453,21.59
17.468,22.12
17.484,21.86
17.500,20.6
17.515,18.25
17.531,14.97
17.546,11.09
17.562,7.0
17.578,3.06
17.593,-0.51
17.609,-3.68
17.625,-6.64
17.640,-9.62
17.656,-12.92
17.671,-16.7
17.687,-20.95
17.703,-25.42
17.718,-29.65
17.734,-33.2
17.750,-35.83
17.765,-37.68
17.781,-39.21
17.796,-40.99
17.812,-43.38
17.828,-46.29
17.843,-49.15
17.859,-51.14
17.875,-51.41
17.890,-49.45
17.906,-45.15
17.921,-38.79
17.937,-30.88
17.953,-22.07
17.968,-13.0
17.984,-4.36
18.000,3.28
18.015,9.48
18.031,14.01
18.046,16.85
18.062,18.2
18.078,18.34
18.093,17.65
18.109,16.49
18.125,15.22
18.140,14.17
18.156,13.53
18.171,13.31
18.187,13.34
18.203,13.33
18.218,12.92
18.234,11.88
18.250,10.12
18.265,7.75
18.281,4.91
18.296,1.77
18.312,-1.55
18.328,-4.99
18.343,-8.44
18.359,-11.83
18.375,-15.11
18.390,-18.34
18.406,-21.67
18.421,-25.31
18.437,-29.38
18.453,-33.88
18.468,-38.63
18.484,-43.39
18.500,-47.96
18.515,-52.15
18.531,-55.64
18.546,-57.94
18.562,-58.32
18.578,-56.04
18.593,-50.56
18.609,-41.82
18.625,-30.2
18.640,-16.44
18.656,-1.43
18.671,14.01
18.687,29.16
18.703,43.45
18.718,56.52
18.734,68.28
18.750,78.97
18.765,89.07
18.781,99.03
18.796,108.97
18.812,118.54
18.828,126.84
18.843,132.67
18.859,134.91
18.875,132.93
18.890,126.86
18.906,117.8
18.921,107.56
18.937,98.28
18.953,91.8
18.968,88.94
18.984,89.34
19.000,91.61
19.015,93.9
19.031,94.59
19.046,92.73
19.062,88.09
19.078,80.92
19.093,71.78
19.109,61.52
19.125,51.39
19.140,43.1
19.156,38.48
19.171,38.67
19.187,43.7
19.203,52.16
19.218,61.72
19.234,70.1
19.250,75.89
19.265,78.91
19.281,79.93
19.296,79.87
19.312,79.06
19.328,77.05
19.343,72.81
19.359,65.42
19.375,54.64
19.390,41.2
19.406,26.67
19.421,12.87
19.437,1.29
19.453,-7.41
19.468,-13.57
19.484,-18.36
19.500,-23.29
19.515,-29.82
19.531,-39.03
19.546,-51.5
19.562,-67.25
19.578,-85.77
19.593,-106.32
19.609,-128.11
19.625,-150.72
19.640,-174.18
19.656,-198.62
19.671,-223.62
19.687,-247.5
19.703,-267.17
19.718,-278.79
19.734,-279.08
19.750,-266.51
19.765,-242.01
19.781,-208.76
19.796,-171.29
19.812,-134.5
19.828,-102.81
19.843,-79.51
19.859,-66.33
19.875,-62.91
19.890,-66.73
19.906,-73.46
19.921,-78.2
19.937,-76.96
19.953,-67.83
19.968,-51.37
19.984,-30.12
20.000,-7.41
20.015,13.64
20.031,30.86
20.046,43.2
20.062,50.54
20.078,53.51
20.093,53.06
20.109,50.27
20.125,45.94
20.140,40.64
20.156,34.58
20.171,28.05
20.187,21.44
20.203,15.39
20.218,10.58
20.234,7.53
20.250,6.38
20.265,6.89
20.281,8.61
20.296,10.92
20.312,13.18
20.328,14.74
20.343,15.08
20.359,13.89
20.375,11.18
20.390,7.25
20.406,2.62
20.421,-2.1
20.437,-6.38
20.453,-9.91
20.468,-12.61
20.484,-14.69
20.500,-16.54
20.515,-18.69
20.531,-21.54
20.546,-25.35
20.562,-30.05
20.578,-35.2
20.593,-40.11
20.609,-43.94
20.625,-45.9
20.640,-45.35
20.656,-42.06
20.671,-36.15
20.687,-28.14
20.703,-18.78
20.718,-8.81
20.734,1.21
20.750,10.96
20.765,20.28
20.781,29.02
20.796,36.9
20.812,43.61
20.828,48.85
20.843,52.57
20.859,54.94
20.875,56.37
20.890,57.32
20.906,58.11
20.921,58.89
20.937,59.69
20.953,60.47
20.968,61.17
20.984,61.86
21.000,62.66
21.015,63.63
21.031,64.82
21.046,66.08
21.062,67.16
21.078,67.75
21.093,67.59
21.109,66.62
21.125,65.0
21.140,63.08
21.156,61.19
21.171,59.53
21.187,58.04
21.203,56.45
21.218,54.38
21.234,51.54
21.250,47.99
21.265,44.26
21.281,41.21
21.296,39.88
21.312,41.17
21.328,45.42
21.343,52.21
21.359,60.27
21.375,67.63
21.390,72.03
21.406,71.55
21.421,65.06
21.437,52.63
21.453,35.47
21.468,15.48
21.484,-5.24
21.500,-25.0
21.515,-42.68
21.531,-57.63
21.546,-69.36
21.562,-77.38
21.578,-81.23
21.593,-80.72
21.609,-76.12
21.625,-68.25
21.640,-58.3
21.656,-47.53
21.671,-37.2
21.687,-28.56
21.703,-22.63
21.718,-20.04
21.734,-20.61
21.750,-23.13
21.765,-25.56
21.781,-25.87
21.796,-22.83
21.812,-16.63
21.828,-8.86
21.843,-1.83
21.859,2.24
21.875,2.03
21.890,-2.6
21.906,-10.75
21.921,-21.0
21.937,-31.97
21.953,-42.57
21.968,-52.11
21.984,-60.08
22.000,-65.93
22.015,-68.94
22.031,-68.38
22.046,-63.73
22.062,-55.13
22.078,-43.47
22.093,-30.29
22.109,-17.4
22.125,-6.28
22.140,2.19
22.156,7.96
22.171,11.55
22.187,13.79
22.203,15.36
22.218,16.76
22.234,18.15
22.250,19.43
22.265,20.51
22.281,21.44
22.296,22.34
22.312,23.27
22.328,24.05
22.343,24.15
22.359,22.93
22.375,19.99
22.390,15.42
22.406,9.96
22.421,4.79
22.437,0.97
22.453,-0.98
22.468,-1.36
22.484,-1.15
22.500,-1.62
22.515,-3.69
22.531,-7.51
22.546,-12.2
22.562,-16.11
22.578,-17.29
22.593,-14.21
22.609,-6.21
22.625,6.22
22.640,21.6
22.656,37.92
22.671,53.27
22.687,66.54
22.703,77.5
22.718,86.77
22.734,95.17
22.750,103.19
22.765,110.39
22.781,115.59
22.796,117.24
22.812,114.19
22.828,106.48
22.843,95.46
22.859,83.56
22.875,73.48
22.890,67.28
22.906,65.61
22.921,67.47
22.937,70.63
22.953,72.29
22.968,70.1
22.984,62.75
23.000,50.36
23.015,34.29
23.031,16.59
23.046,-0.5
23.062,-15.12
23.078,-25.97
23.093,-32.69
23.109,-35.77
23.125,-36.43
23.140,-36.32
23.156,-37.11
23.171,-40.17
23.187,-46.38
23.203,-55.91
23.218,-68.04
23.234,-81.18
23.250,-93.04
23.265,-101.1
23.281,-103.32
23.296,-98.68
23.312,-87.47
23.328,-71.17
23.343,-51.91
23.359,-31.98
23.375,-13.48
23.390,2.09
23.406,13.88
23.421,21.87
23.437,26.87
23.453,30.32
23.468,33.78
23.484,38.37
23.500,44.42
23.515,51.42
23.531,58.49
23.546,64.92
23.562,70.41
23.578,75.18
23.593,79.63
23.609,84.06
23.625,88.51
23.640,92.87
23.656,96.93
23.671,100.65
23.687,104.11
23.703,107.4
23.718,110.45
23.734,113.02
23.750,114.63
23.765,114.57
23.781,112.06
23.796,106.18
23.812,96.06
23.828,81.14
23.843,61.27
23.859,37.0
23.875,9.49
23.890,-19.69
23.906,-48.77
23.921,-75.93
23.937,-99.45
23.953,-117.64
23.968,-128.92
23.984,-132.26
24.000,-127.37
24.015,-115.18
24.031,-97.86
24.046,-78.37
24.062,-59.84
24.078,-44.74
24.093,-34.34
24.109,-28.51
24.125,-26.09
24.140,-25.42
24.156,-24.96
24.171,-23.74
24.187,-21.61
24.203,-18.89
24.218,-16.13
24.234,-13.59
24.250,-11.2
24.265,-8.71
24.281,-5.9
24.296,-2.77
24.312,0.39
24.328,3.23
24.343,5.69
24.359,8.02
24.375,10.7
24.390,14.1
24.406,18.09
24.421,21.95
24.437,24.67
24.453,25.35
24.468,23.76
24.484,20.24
24.500,15.41
24.515,9.69
24.531,3.09
24.546,-4.48
24.562,-12.54
24.578,-19.61
24.593,-23.35
24.609,-21.36
24.625,-12.36
24.640,2.94
24.656,21.9
24.671,40.97
24.687,56.98
24.703,68.23
24.718,74.88
24.734,78.36
24.750,80.54
24.765,82.99
24.781,86.54
24.796,91.46
24.812,97.48
24.828,103.72
24.843,108.49
24.859,109.41
24.875,103.87
24.890,90.13
24.906,68.02
24.921,39.3
24.937,7.0
24.953,-25.76
24.968,-56.93
24.984,-85.94
25.000,-113.2
25.015,-139.09
25.031,-162.97
25.046,-183.01
25.062,-196.81
25.078,-202.49
25.093,-199.49
25.109,-188.87
25.125,-172.89
25.140,-154.33
25.156,-135.87
25.171,-119.63
25.187,-106.84
25.203,-97.72
25.218,-91.35
25.234,-85.93
25.250,-79.3
25.265,-69.66
25.281,-56.17
25.296,-39.14
25.312,-19.66
25.328,0.94
25.343,21.7
25.359,42.0
25.375,61.43
25.390,79.27
25.406,94.31
25.421,104.92
25.437,109.48
25.453,106.85
25.468,96.76
25.484,79.92
25.500,57.99
25.515,33.14
25.531,7.54
25.546,-17.19
25.562,-40.35
25.578,-62.06
25.593,-82.72
25.609,-102.38
25.625,-120.3
25.640,-135.09
25.656,-145.13
25.671,-149.44
25.687,-148.09
25.703,-142.23
25.718,-133.65
25.734,-123.88
25.750,-113.65
25.765,-102.61
25.781,-89.84
25.796,-74.45
25.812,-56.3
25.828,-36.21
25.843,-15.59
25.859,4.11
25.875,22.08
25.890,38.25
25.906,53.11
25.921,67.1
25.937,80.16
25.953,91.65
25.968,100.49
25.984,105.83
26.000,107.37
26.015,105.75
26.031,102.35
26.046,98.88
26.062,96.86
26.078,97.09
26.093,99.67
26.109,104.17
26.125,109.99
26.140,116.56
26.156,123.33
26.171,129.5
26.187,133.78
26.203,134.8
26.218,131.74
26.234,125.0
26.250,116.38
26.265,108.56
26.281,103.79
26.296,102.97
26.312,105.07
26.328,107.55
26.343,107.32
26.359,101.79
26.375,89.7
26.390,71.43
26.406,48.8
26.421,24.39
26.437,0.91
26.453,-19.59
26.468,-36.09
26.484,-48.48
26.500,-57.23
26.515,-62.69
26.531,-64.8
26.546,-63.4
26.562,-58.8
26.578,-52.5
26.593,-47.15
26.609,-45.71
26.625,-50.26
26.640,-61.06
26.656,-76.79
26.671,-95.62
26.687,-116.66
26.703,-140.32
26.718,-167.31
26.734,-196.8
26.750,-224.91
26.765,-245.0
26.781,-250.03
26.796,-235.74
26.812,-203.09
26.828,-158.38
26.843,-111.01
26.859,-70.05
26.875,-41.33
26.890,-26.49
26.906,-23.88
26.921,-30.42
26.937,-43.16
26.953,-59.83
26.968,-78.49
26.984,-97.01
27.000,-112.97
27.015,-124.21
27.031,-129.48
27.046,-129.09
27.062,-124.86
27.078,-119.48
27.093,-115.57
27.109,-114.68
27.125,-116.78
27.140,-120.41
27.156,-123.35
27.171,-123.51
27.187,-119.68
27.203,-111.8
27.218,-100.75
27.234,-87.87
27.250,-74.29
27.265,-60.58
27.281,-46.78
27.296,-32.79
27.312,-18.72
27.328,-5.15
27.343,6.94
27.359,16.58
27.375,23.08
27.390,26.38
27.406,27.07
27.421,26.3
27.437,25.32
27.453,25.25
27.468,26.82
27.484,30.27
27.500,35.35
27.515,41.45
27.531,47.8
27.546,53.65
27.562,58.39
27.578,61.71
27.593,63.61
27.609,64.35
27.625,64.3
27.640,63.76
27.656,62.76
27.671,61.04
27.687,58.1
27.703,53.39
27.718,46.5
27.734,37.42
27.750,26.62
27.765,15.03
27.781,3.86
27.796,-5.59
27.812,-12.23
27.828,-15.29
27.843,-14.42
27.859,-9.66
27.875,-1.47
27.890,9.34
27.906,21.7
27.921,34.47
27.937,46.66
27.953,57.61
27.968,67.04
27.984,74.96
28.000,81.53
28.015,86.87
28.031,91.02
28.046,94.0
28.062,95.84
28.078,96.71
28.093,96.81
28.109,96.27
28.125,95.18
28.140,93.56
28.156,91.49
28.171,89.2
28.187,86.98
28.203,85.12
28.218,83.8
28.234,82.98
28.250,82.41
28.265,81.72
28.281,80.53
28.296,78.49
28.312,75.44
28.328,71.43
28.343,66.71
28.359,61.62
28.375,56.57
28.390,51.76
28.406,47.29
28.421,43.17
28.437,39.33
28.453,35.83
28.468,32.75
28.484,30.21
28.500,28.28
28.515,26.94
28.531,26.03
28.546,25.36
28.562,24.7
28.578,23.88
28.593,22.86
28.609,21.68
28.625,20.45
28.640,19.21
28.656,17.94
28.671,16.44
28.687,14.55
28.703,12.16
28.718,9.23
28.734,5.96
28.750,2.57
28.765,-0.66
28.781,-3.53
28.796,-5.81
28.812,-7.41
28.828,-8.3
28.843,-8.64
28.859,-8.67
28.875,-8.66
28.890,-8.72
28.906,-8.77
28.921,-8.51
28.937,-7.6
28.953,-5.82
28.968,-3.18
28.984,0.09
29.000,3.56
29.015,6.72
29.031,9.09
29.046,10.28
29.062,10.17
29.078,8.8
29.093,6.48
29.109,3.64
29.125,0.83
29.140,-1.6
29.156,-3.45
29.171,-4.76
29.187,-5.68
29.203,-6.36
29.218,-6.82
29.234,-7.09
29.250,-7.17
29.265,-7.07
29.281,-6.86
29.296,-6.61
29.312,-6.39
29.328,-6.24
29.343,-6.18
29.359,-6.24
29.375,-6.41
29.390,-6.73
29.406,-7.28
29.421,-8.23
29.437,-9.84
29.453,-12.35
29.468,-15.82
29.484,-20.03
29.500,-24.46
29.515,-28.37
29.531,-31.11
29.546,-32.35
29.562,-32.22
29.578,-31.19
29.593,-29.91
29.609,-28.93
29.625,-28.51
29.640,-28.69
29.656,-29.26
29.671,-29.99
29.687,-30.77
29.703,-31.6
29.718,-32.63
29.734,-34.05
29.750,-35.98
29.765,-38.33
29.781,-40.8
29.796,-42.92
29.812,-44.09
29.828,-43.78
29.843,-41.54
29.859,-37.12
29.875,-30.51
29.890,-22.01
29.906,-12.15
29.921,-1.71
29.937,8.42
29.953,17.46
29.968,24.86
29.984,30.41
30.000,34.21
30.015,36.51
30.031,37.62
30.046,37.77
30.062,37.13
30.078,35.85
30.093,34.07
30.109,31.97
30.125,29.8
30.140,27.79
30.156,26.08
30.171,24.77
30.187,23.75
30.203,22.8
30.218,21.7
30.234,20.21
30.250,18.22
30.265,15.77
30.281,13.02
30.296,10.12
30.312,7.19
30.328,4.23
30.343,1.19
30.359,-2.01
30.375,-5.4
30.390,-8.97
30.406,-12.62
30.421,-16.17
30.437,-19.26
30.453,-21.51
30.468,-22.44
30.484,-21.69
30.500,-19.08
30.515,-14.64
30.531,-8.61
30.546,-1.33
30.562,6.72
30.578,15.11
30.593,23.31
30.609,30.83
30.625,37.19
30.640,42.03
30.656,45.17
30.671,46.63
30.687,46.68
30.703,45.67
30.718,44.07
30.734,42.27
30.750,40.53
30.765,38.94
30.781,37.39
30.796,35.71
30.812,33.69
30.828,31.23
30.843,28.36
30.859,25.25
30.875,22.05
30.890,18.83
30.906,15.6
30.921,12.28
30.937,8.81
30.953,5.19
30.968,1.5
30.984,-2.14
31.000,-5.67
31.015,-9.12
31.031,-12.66
31.046,-16.56
31.062,-21.0
31.078,-25.98
31.093,-31.22
31.109,-36.07
31.125,-39.74
31.140,-41.48
31.156,-40.83
31.171,-37.67
31.187,-32.3
31.203,-25.27
31.218,-17.26
31.234,-8.97
31.250,-1.04
31.265,5.98
31.281,11.71
31.296,15.99
31.312,18.97
31.328,20.93
31.343,22.27
31.359,23.27
31.375,24.02
31.390,24.52
31.406,24.65
31.421,24.38
31.437,23.71
31.453,22.71
31.468,21.45
31.484,19.94
31.500,18.17
31.515,16.21
31.531,14.14
31.546,12.02
31.562,9.92
31.578,7.78
31.593,5.54
31.609,3.13
31.625,0.56
31.640,-2.16
31.656,-5.02
31.671,-8.04
31.687,-11.29
31.703,-14.74
31.718,-18.33
31.734,-21.93
31.750,-25.46
31.765,-28.8
31.781,-31.79
31.796,-34.08
31.812,-35.17
31.828,-34.52
31.843,-31.71
31.859,-26.79
31.875,-20.24
31.890,-12.9
31.906,-5.64
31.921,0.91
31.937,6.54
31.953,11.31
31.968,15.45
31.984,19.11
32.000,22.26
32.015,24.89
32.031,27.01
32.046,28.74
32.062,30.26
32.078,31.64
32.093,32.79
32.109,33.53
32.125,33.69
32.140,33.23
32.156,32.3
32.171,31.16
32.187,30.02
32.203,28.96
32.218,27.9
32.234,26.72
32.250,25.34
32.265,23.8
32.281,22.19
32.296,20.63
32.312,19.19
32.328,17.84
32.343,16.55
32.359,15.21
32.375,13.71
32.390,11.98
32.406,10.06
32.421,8.03
32.437,6.04
32.453,4.24
32.468,2.78
32.484,1.78
32.500,1.32
32.515,1.4
32.531,1.96
32.546,2.84
32.562,3.74
32.578,4.31
32.593,4.21
32.609,3.27
32.625,1.49
32.640,-0.87
32.656,-3.5
32.671,-5.99
32.687,-8.11
32.703,-9.71
32.718,-10.78
32.734,-11.46
32.750,-11.92
32.765,-12.35
32.781,-12.89
32.796,-13.59
32.812,-14.49
32.828,-15.61
32.843,-17.0
32.859,-18.67
32.875,-20.57
32.890,-22.55
32.906,-24.4
32.921,-25.95
32.937,-27.06
32.953,-27.85
32.968,-28.58
32.984,-29.63
33.000,-31.3
33.015,-33.73
33.031,-36.9
33.046,-40.65
33.062,-44.83
33.078,-49.22
33.093,-53.53
33.109,-57.27
33.125,-59.82
33.140,-60.44
33.156,-58.63
33.171,-54.26
33.187,-47.69
33.203,-39.65
33.218,-30.95
33.234,-22.3
33.250,-14.1
33.265,-6.59
33.281,0.06
33.296,5.68
33.312,10.15
33.328,13.45
33.343,15.73
33.359,17.28
33.375,18.43
33.390,19.43
33.406,20.37
33.421,21.2
33.437,21.83
33.453,22.17
33.468,22.26
33.484,22.21
33.500,22.13
33.515,22.0
33.531,21.65
33.546,20.76
33.562,18.96
33.578,16.07
33.593,12.17
33.609,7.63
33.625,2.99
33.640,-1.27
33.656,-4.85
33.671,-7.77
33.687,-10.24
33.703,-12.56
33.718,-15.0
33.734,-17.74
33.750,-20.75
33.765,-23.88
33.781,-26.93
33.796,-29.57
33.812,-31.44
33.828,-32.16
33.843,-31.35
33.859,-28.76
33.875,-24.31
33.890,-18.1
33.906,-10.52
33.921,-2.18
33.937,6.16
33.953,13.69
33.968,19.71
33.984,23.77
34.000,25.71
34.015,25.77
34.031,24.44
34.046,22.39
34.062,20.25
34.078,18.55
34.093,17.52
34.109,17.11
34.125,17.08
34.140,17.03
34.156,16.56
34.171,15.42
34.187,13.57
34.203,11.17
34.218,8.48
34.234,5.83
34.250,3.4
34.265,1.28
34.281,-0.6
34.296,-2.41
34.312,-4.34
34.328,-6.59
34.343,-9.27
34.359,-12.42
34.375,-16.02
34.390,-20.01
34.406,-24.19
34.421,-28.32
34.437,-31.98
34.453,-34.63
34.468,-35.7
34.484,-34.68
34.500,-31.3
34.515,-25.71
34.531,-18.5
34.546,-10.53
34.562,-2.7
34.578,4.26
34.593,10.06
34.609,14.66
34.625,18.22
34.640,20.91
34.656,22.82
34.671,23.96
34.687,24.38
34.703,24.2
34.718,23.64
34.734,22.86
34.750,21.98
34.765,20.96
34.781,19.69
34.796,18.15
34.812,16.39
34.828,14.52
34.843,12.68
34.859,10.93
34.875,9.23
34.890,7.49
34.906,5.64
34.921,3.64
34.937,1.46
34.953,-0.9
34.968,-3.55
34.984,-6.6
35.000,-10.1
35.015,-13.99
35.031,-18.08
35.046,-22.14
35.062,-25.96
35.078,-29.41
35.093,-32.32
35.109,-34.56
35.125,-35.88
35.140,-36.04
35.156,-34.82
35.171,-32.11
35.187,-27.98
35.203,-22.66
35.218,-16.49
35.234,-9.79
35.250,-2.9
35.265,3.92
35.281,10.28
35.296,15.8
35.312,20.12
35.328,23.0
35.343,24.42
35.359,24.59
35.375,23.87
35.390,22.67
35.406,21.34
35.421,20.1
35.437,19.02
35.453,18.17
35.468,17.56
35.484,17.21
35.500,17.08
35.515,17.02
35.531,16.68
35.546,15.61
35.562,13.39
35.578,9.83
35.593,5.18
35.609,0.02
35.625,-4.87
35.640,-8.83
35.656,-11.58
35.671,-13.33
35.687,-14.67
35.703,-16.28
35.718,-18.68
35.734,-21.98
35.750,-25.91
35.765,-29.85
35.781,-33.01
35.796,-34.61
35.812,-34.06
35.828,-31.11
35.843,-25.9
35.859,-18.9
35.875,-10.7
35.890,-1.86
35.906,7.26
35.921,16.41
35.937,25.29
35.953,33.42
35.968,40.22
35.984,45.14
36.000,48.01
36.015,49.27
36.031,49.86
36.046,50.99
36.062,53.64
36.078,58.22
36.093,64.35
36.109,71.08
36.125,77.13
36.140,81.26
36.156,82.55
36.171,80.46
36.187,75.1
36.203,67.36
36.218,58.84
36.234,51.54
36.250,47.22
36.265,46.52
36.281,48.57
36.296,51.18
36.312,51.69
36.328,48.2
36.343,40.29
36.359,29.21
36.375,17.1
36.390,6.04
36.406,-2.73
36.421,-8.9
36.437,-12.74
36.453,-14.62
36.468,-14.73
36.484,-13.13
36.500,-10.12
36.515,-6.17
36.531,-2.08
36.546,1.46
36.562,4.11
36.578,6.01
36.593,7.67
36.609,9.65
36.625,12.33
36.640,15.56
36.656,18.81
36.671,21.16
36.687,21.67
36.703,19.72
36.718,15.25
36.734,8.85
36.750,1.6
36.765,-5.24
36.781,-10.62
36.796,-13.85
36.812,-14.87
36.828,-14.02
36.843,-11.93
36.859,-9.36
36.875,-7.07
36.890,-5.68
36.906,-5.63
36.921,-7.13
36.937,-10.09
36.953,-14.27
36.968,-19.28
36.984,-24.78
37.000,-30.54
37.015,-36.47
37.031,-42.57
37.046,-48.82
37.062,-55.2
37.078,-61.42
37.093,-66.97
37.109,-71.23
37.125,-73.58
37.140,-73.74
37.156,-71.84
37.171,-68.44
37.187,-64.34
37.203,-60.25
37.218,-56.55
37.234,-53.29
37.250,-50.34
37.265,-47.59
37.281,-45.12
37.296,-43.04
37.312,-41.44
37.328,-40.2
37.343,-39.0
37.359,-37.37
37.375,-34.97
37.390,-31.67
37.406,-27.67
37.421,-23.34
37.437,-19.1
37.453,-15.33
37.468,-12.24
37.484,-9.9
37.500,-8.27
37.515,-7.3
37.531,-6.98
37.546,-7.36
37.562,-8.54
37.578,-10.48
37.593,-13.05
37.609,-15.86
37.625,-18.5
37.640,-20.61
37.656,-22.09
37.671,-23.11
37.687,-24.09
37.703,-25.51
37.718,-27.63
37.734,-30.38
37.750,-33.26
37.765,-35.52
37.781,-36.4
37.796,-35.38
37.812,-32.25
37.828,-27.17
37.843,-20.59
37.859,-13.04
37.875,-5.11
37.890,2.67
37.906,9.79
37.921,15.81
37.937,20.42
37.953,23.51
37.968,25.12
37.984,25.47
38.000,24.86
38.015,23.6
38.031,21.95
38.046,20.12
38.062,18.24
38.078,16.35
38.093,14.49
38.109,12.6
38.125,10.61
38.140,8.49
38.156,6.27
38.171,4.01
38.187,1.85
38.203,-0.06
38.218,-1.63
38.234,-2.92
38.250,-4.21
38.265,-5.86
38.281,-8.24
38.296,-11.56
38.312,-15.8
38.328,-20.69
38.343,-25.87
38.359,-30.96
38.375,-35.62
38.390,-39.43
38.406,-41.84
38.421,-42.24
38.437,-40.13
38.453,-35.39
38.468,-28.36
38.484,-19.88
38.500,-10.93
38.515,-2.38
38.531,5.27
38.546,11.82
38.562,17.28
38.578,21.66
38.593,24.83
38.609,26.75
38.625,27.46
38.640,27.22
38.656,26.46
38.671,25.54
38.687,24.55
38.703,23.32
38.718,21.48
38.734,18.74
38.750,15.05
38.765,10.66
38.781,6.05
38.796,1.72
38.812,-1.98
38.828,-4.96
38.843,-7.32
38.859,-9.28
38.875,-11.05
38.890,-12.8
38.906,-14.6
38.921,-16.53
38.937,-18.59
38.953,-20.76
38.968,-22.86
38.984,-24.55
39.000,-25.33
39.015,-24.7
39.031,-22.35
39.046,-18.28
39.062,-12.85
39.078,-6.53
39.093,0.19
39.109,7.02
39.125,13.76
39.140,20.29
39.156,26.34
39.171,31.54
39.187,35.46
39.203,37.69
39.218,38.02
39.234,36.35
39.250,32.78
39.265,27.58
39.281,21.14
39.296,14.05
39.312,7.01
39.328,0.8
39.343,-3.98
39.359,-7.04
39.375,-8.45
39.390,-8.55
39.406,-7.77
39.421,-6.53
39.437,-5.14
39.453,-3.83
39.468,-2.78
39.484,-2.19
39.500,-2.31
39.515,-3.33
39.531,-5.42
39.546,-8.54
39.562,-12.46
39.578,-16.7
39.593,-20.61
39.609,-23.46
39.625,-24.64
39.640,-23.8
39.656,-21.02
39.671,-16.71
39.687,-11.49
39.703,-5.95
39.718,-0.54
39.734,4.52
39.750,9.11
39.765,13.2
39.781,16.7
39.796,19.53
39.812,21.53
39.828,22.65
39.843,22.99
39.859,22.75
39.875,22.26
39.890,21.86
39.906,21.78
39.921,22.06
39.937,22.58
39.953,23.05
39.968,23.21
39.984,22.91
40.000,22.11
40.015,20.93
40.031,19.44
40.046,17.67
40.062,15.56
40.078,13.05
40.093,10.15
40.109,6.97
40.125,3.68
40.140,0.47
40.156,-2.65
40.171,-5.85
40.187,-9.38
40.203,-13.41
40.218,-17.84
40.234,-22.17
40.250,-25.63
40.265,-27.36
40.281,-26.55
40.296,-22.75
40.312,-15.96
40.328,-6.67
40.343,4.19
40.359,15.48
40.375,26.08
40.390,35.14
40.406,42.11
40.421,46.85
40.437,49.48
40.453,50.33
40.468,49.84
40.484,48.52
40.500,46.87
40.515,45.38
40.531,44.29
40.546,43.56
40.562,42.91
40.578,41.9
40.593,40.22
40.609,37.79
40.625,34.7
40.640,31.2
40.656,27.58
40.671,23.99
40.687,20.62
40.703,17.62
40.718,15.11
40.734,13.16
40.750,11.7
40.765,10.46
40.781,9.1
40.796,7.36
40.812,5.08
40.828,2.39
40.843,-0.54
40.859,-3.47
40.875,-6.29
40.890,-8.93
40.906,-11.35
40.921,-13.42
40.937,-14.82
40.953,-15.12
40.968,-13.82
40.984,-10.5
41.000,-4.99
41.015,2.63
41.031,11.99
41.046,22.55
41.062,33.75
41.078,45.08
41.093,56.04
41.109,66.22
41.125,75.18
41.140,82.35
41.156,87.15
41.171,89.08
41.187,88.11
41.203,84.83
41.218,80.45
41.234,76.35
41.250,73.49
41.265,71.85
41.281,70.32
41.296,67.14
41.312,60.7
41.328,50.37
41.343,36.73
41.359,21.29
41.375,5.59
41.390,-9.46
41.406,-23.85
41.421,-38.25
41.437,-53.4
41.453,-69.64
41.468,-86.84
41.484,-104.61
41.500,-122.46
41.515,-139.81
41.531,-155.87
41.546,-169.47
41.562,-179.3
41.578,-184.23
41.593,-183.95
41.609,-179.21
41.625,-171.67
41.640,-163.3
41.656,-155.75
41.671,-149.96
41.687,-145.96
41.703,-143.27
41.718,-141.02
41.734,-138.28
41.750,-134.14
41.765,-127.76
41.781,-118.55
41.796,-106.27
41.812,-91.32
41.828,-74.51
41.843,-56.96
41.859,-39.69
41.875,-23.36
41.890,-8.27
41.906,5.61
41.921,18.37
41.937,30.14
41.953,40.95
41.968,50.93
41.984,60.18
42.000,68.9
42.015,77.17
42.031,84.88
42.046,91.87
42.062,97.93
42.078,103.13
42.093,107.71
42.109,112.09
42.125,116.45
42.140,120.67
42.156,124.3
42.171,126.77
42.187,127.7
42.203,127.15
42.218,125.65
42.234,124.0
42.250,122.93
42.265,122.75
42.281,123.32
42.296,124.1
42.312,124.37
42.328,123.48
42.343,121.1
42.359,117.26
42.375,112.35
42.390,106.91
42.406,101.49
42.421,96.56
42.437,92.42
42.453,89.16
42.468,86.46
42.484,83.42
42.500,78.58
42.515,70.23
42.531,57.05
42.546,38.74
42.562,16.22
42.578,-8.61
42.593,-33.66
42.609,-57.2
42.625,-78.11
42.640,-95.59
42.656,-108.73
42.671,-116.27
42.687,-117.07
42.703,-110.78
42.718,-98.54
42.734,-83.05
42.750,-67.98
42.765,-56.93
42.781,-52.41
42.796,-55.22
42.812,-64.32
42.828,-77.24
42.843,-90.74
42.859,-101.59
42.875,-107.27
42.890,-106.5
42.906,-99.44
42.921,-87.34
42.937,-72.08
42.953,-55.6
42.968,-39.53
42.984,-25.0
43.000,-12.65
43.015,-2.71
43.031,5.04
43.046,11.19
43.062,16.67
43.078,22.52
43.093,29.55
43.109,38.0
43.125,47.37
43.140,56.55
43.156,64.31
43.171,69.78
43.187,72.83
43.203,74.03
43.218,74.27
43.234,74.17
43.250,73.69
43.265,72.15
43.281,68.7
43.296,63.07
43.312,56.01
43.328,49.28
43.343,44.95
43.359,44.74
43.375,49.25
43.390,57.85
43.406,68.85
43.421,79.84
43.437,88.05
43.453,90.71
43.468,85.46
43.484,70.94
43.500,47.36
43.515,16.64
43.531,-17.91
43.546,-52.48
43.562,-83.73
43.578,-109.45
43.593,-128.66
43.609,-141.28
43.625,-147.55
43.640,-147.88
43.656,-143.0
43.671,-134.24
43.687,-123.74
43.703,-114.34
43.718,-108.79
43.734,-109.05
43.750,-115.49
43.765,-126.69
43.781,-139.95
43.796,-152.17
43.812,-160.87
43.828,-164.86
43.843,-164.24
43.859,-159.81
43.875,-152.23
43.890,-141.61
43.906,-127.65
43.921,-110.22
43.937,-90.18
43.953,-69.51
43.968,-50.96
43.984,-37.06
44.000,-29.15
44.015,-26.93
44.031,-28.63
44.046,-31.76
44.062,-33.98
44.078,-33.76
44.093,-30.61
44.109,-24.9
44.125,-17.54
44.140,-9.6
44.156,-1.99
44.171,4.77
44.187,10.69
44.203,16.17
44.218,21.85
44.234,28.16
44.250,35.12
44.265,42.25
44.281,48.75
44.296,53.89
44.312,57.17
44.328,58.46
44.343,57.79
44.359,55.31
44.375,51.4
44.390,46.81
44.406,42.73
44.421,40.63
44.437,41.71
44.453,46.31
44.468,53.59
44.484,61.59
44.500,67.85
44.515,70.29
44.531,67.85
44.546,60.82
44.562,50.53
44.578,38.92
44.593,27.74
44.609,18.21
44.625,10.87
44.640,5.63
44.656,2.03
44.671,-0.65
44.687,-3.13
44.703,-6.08
44.718,-9.75
44.734,-13.94
44.750,-18.03
44.765,-21.21
44.781,-23.17
44.796,-24.3
44.812,-25.87
44.828,-29.46
44.843,-36.22
44.859,-46.05
44.875,-57.3
44.890,-67.12
44.906,-72.32
44.921,-70.61
44.937,-61.42
44.953,-46.06
44.968,-27.17
44.984,-7.81
45.000,9.5
45.015,23.34
45.031,33.42
45.046,40.16
45.062,44.21
45.078,46.14
45.093,46.37
45.109,45.31
45.125,43.48
45.140,41.37
45.156,39.4
45.171,37.66
45.187,35.99
45.203,34.04
45.218,31.57
45.234,28.59
45.250,25.36
45.265,22.31
45.281,19.75
45.296,17.82
45.312,16.27
45.328,14.61
45.343,12.26
45.359,8.83
45.375,4.33
45.390,-0.83
45.406,-5.98
45.421,-10.53
45.437,-14.16
45.453,-17.03
45.468,-19.62
45.484,-22.49
45.500,-26.03
45.515,-30.31
45.531,-35.04
45.546,-39.78
45.562,-44.08
45.578,-47.64
45.593,-50.34
45.609,-52.34
45.625,-53.84
45.640,-55.08
45.656,-56.15
45.671,-56.85
45.687,-56.75
45.703,-55.26
45.718,-51.86
45.734,-46.22
45.750,-38.44
45.765,-28.87
45.781,-18.11
45.796,-6.9
45.812,4.04
45.828,14.1
45.843,22.78
45.859,29.89
45.875,35.46
45.890,39.75
45.906,43.12
45.921,45.85
45.937,48.1
45.953,49.9
45.968,51.27
45.984,52.34
46.000,53.38
46.015,54.64
46.031,56.26
46.046,58.12
46.062,59.85
46.078,60.98
46.093,61.11
46.109,60.0
46.125,57.59
46.140,53.96
46.156,49.27
46.171,43.74
46.187,37.73
46.203,31.6
46.218,25.75
46.234,20.45
46.250,15.82
46.265,11.73
46.281,7.94
46.296,4.16
46.312,0.17
46.328,-4.09
46.343,-8.62
46.359,-13.37
46.375,-18.27
46.390,-23.28
46.406,-28.29
46.421,-33.05
46.437,-37.14
46.453,-39.97
46.468,-40.98
46.484,-39.85
46.500,-36.56
46.515,-31.46
46.531,-25.16
46.546,-18.26
46.562,-11.24
46.578,-4.32
46.593,2.39
46.609,8.87
46.625,15.05
46.640,20.74
46.656,25.75
46.671,29.85
46.687,32.89
46.703,34.79
46.718,35.63
46.734,35.56
46.750,34.84
46.765,33.87
46.781,33.06
46.796,32.72
46.812,33.0
46.828,33.8
46.843,34.83
46.859,35.61
46.875,35.61
46.890,34.41
46.906,31.9
46.921,28.3
46.937,24.15
46.953,20.09
46.968,16.57
46.984,13.68
47.000,11.12
47.015,8.36
47.031,4.94
47.046,0.76
47.062,-4.02
47.078,-9.12
47.093,-14.39
47.109,-19.93
47.125,-25.91
47.140,-32.29
47.156,-38.66
47.171,-44.37
47.187,-48.75
47.203,-51.36
47.218,-52.01
47.234,-50.51
47.250,-46.52
47.265,-39.54
47.281,-29.27
47.296,-16.06
47.312,-1.1
47.328,13.87
47.343,27.08
47.359,37.41
47.375,44.63
47.390,49.24
47.406,51.93
47.421,53.24
47.437,53.32
47.453,52.17
47.468,49.89
47.484,46.78
47.500,43.42
47.515,40.35
47.531,37.91
47.546,36.12
47.562,34.8
47.578,33.72
47.593,32.83
47.609,32.23
47.625,32.15
47.640,32.76
47.656,34.0
47.671,35.51
47.687,36.73
47.703,37.11
47.718,36.37
47.734,34.61
47.750,32.33
47.765,30.18
47.781,28.73
47.796,28.21
47.812,28.46
47.828,28.97
47.843,29.11
47.859,28.32
47.875,26.31
47.890,23.16
47.906,19.22
47.921,15.07
47.937,11.28
47.953,8.32
47.968,6.3
47.984,4.96
48.000,3.62
48.015,1.42
48.031,-2.35
48.046,-7.85
48.062,-14.46
48.078,-20.88
48.093,-25.52
48.109,-27.1
48.125,-25.11
48.140,-19.9
48.156,-12.53
48.171,-4.32
48.187,3.61
48.203,10.43
48.218,15.64
48.234,18.76
48.250,19.41
48.265,17.32
48.281,12.57
48.296,5.7
48.312,-2.25
48.328,-10.13
48.343,-16.88
48.359,-21.9
48.375,-25.16
48.390,-27.07
48.406,-28.28
48.421,-29.44
48.437,-31.0
48.453,-33.13
48.468,-35.79
48.484,-38.83
48.500,-42.02
48.515,-45.16
48.531,-48.08
48.546,-50.71
48.562,-53.03
48.578,-55.06
48.593,-56.81
48.609,-58.3
48.625,-59.4
48.640,-59.88
48.656,-59.32
48.671,-57.26
48.687,-53.3
48.703,-47.2
48.718,-38.99
48.734,-29.02
48.750,-17.97
48.765,-6.72
48.781,3.82
48.796,12.94
48.812,20.33
48.828,26.04
48.843,30.42
48.859,33.88
48.875,36.73
48.890,39.02
48.906,40.67
48.921,41.58
48.937,41.76
48.953,41.38
48.968,40.71
48.984,39.99
49.000,39.3
49.015,38.49
49.031,37.27
49.046,35.24
49.062,32.05
49.078,27.43
49.093,21.24
49.109,13.39
49.125,3.94
49.140,-6.85
49.156,-18.37
49.171,-29.54
49.187,-39.09
49.203,-45.89
49.218,-49.43
49.234,-50.08
49.250,-48.99
49.265,-47.6
49.281,-47.05
49.296,-47.7
49.312,-49.05
49.328,-50.02
49.343,-49.49
49.359,-46.76
49.375,-41.72
49.390,-34.74
49.406,-26.41
49.421,-17.22
49.437,-7.56
49.453,2.39
49.468,12.33
49.484,21.93
49.500,30.74
49.515,38.49
49.531,45.3
49.546,51.69
49.562,58.28
49.578,65.21
49.593,71.87
49.609,76.82
49.625,78.53
49.640,76.1
49.656,70.06
49.671,62.26
49.687,55.36
49.703,51.7
49.718,52.49
49.734,57.45
49.750,64.94
49.765,72.74
49.781,78.47
49.796,80.22
49.812,76.75
49.828,67.8
49.843,54.28
49.859,38.22
49.875,22.41
49.890,9.46
49.906,0.93
49.921,-3.29
49.937,-4.85
49.953,-6.24
49.968,-9.77
49.984,-16.54
50.000,-26.19
50.015,-36.96
50.031,-46.4
50.046,-52.14
50.062,-52.52
50.078,-46.99
50.093,-36.17
50.109,-21.49
50.125,-4.73
50.140,12.36
50.156,28.38
50.171,42.26
50.187,53.23
50.203,60.94
50.218,65.63
50.234,68.31
50.250,70.56
50.265,74.17
50.281,80.27
50.296,88.76
50.312,98.22
50.328,106.41
50.343,111.17
50.359,111.3
50.375,106.99
50.390,99.77
50.406,92.06
50.421,86.37
50.437,84.69
50.453,87.96
50.468,95.73
50.484,106.35
50.500,117.27
50.515,125.65
50.531,129.13
50.546,126.55
50.562,118.18
50.578,105.8
50.593,92.22
50.609,80.47
50.625,73.06
50.640,71.42
50.656,75.65
50.671,84.53
50.687,95.91
50.703,106.89
50.718,114.51
50.734,116.39
50.750,111.43
50.765,100.23
50.781,85.03
50.796,68.87
50.812,54.43
50.828,43.18
50.843,34.92
50.859,28.16
50.875,20.96
50.890,11.66
50.906,-0.4
50.921,-14.88
50.937,-30.58
50.953,-45.81
50.968,-59.0
50.984,-69.25
51.000,-76.62
51.015,-82.16
51.031,-87.63
51.046,-94.66
51.062,-104.12
51.078,-115.7
51.093,-128.03
51.109,-139.27
51.125,-147.9
51.140,-153.29
51.156,-155.8
51.171,-156.7
51.187,-157.5
51.203,-159.48
51.218,-163.26
51.234,-168.67
51.250,-174.92
51.265,-180.95
51.281,-185.75
51.296,-188.49
51.312,-188.78
51.328,-186.76
51.343,-183.46
51.359,-180.86
51.375,-181.46
51.390,-187.44
51.406,-199.4
51.421,-215.63
51.437,-232.44
51.453,-245.42
51.468,-251.29
51.484,-249.29
51.500,-241.4
51.515,-231.27
51.531,-222.53
51.546,-217.25
51.562,-215.54
51.578,-216.15
51.593,-217.58
51.609,-218.96
51.625,-220.31
51.640,-222.02
51.656,-224.16
51.671,-226.3
51.687,-227.73
51.703,-228.11
51.718,-227.94
51.734,-228.01
51.750,-228.38
51.765,-227.45
51.781,-221.76
51.796,-207.28
51.812,-181.49
51.828,-144.84
51.843,-101.09
51.859,-55.85
51.875,-14.24
51.890,20.96
51.906,49.79
51.921,74.09
51.937,95.65
51.953,114.88
51.968,130.66
51.984,141.18
52.000,145.3
52.015,143.2
52.031,136.16
52.046,125.74
52.062,112.87
52.078,97.68
52.093,79.86
52.109,59.56
52.125,37.97
52.140,17.38
52.156,0.56
52.171,-10.31
52.187,-14.38
52.203,-12.26
52.218,-5.61
52.234,3.79
52.250,14.78
52.265,26.91
52.281,40.23
52.296,54.69
52.312,69.66
52.328,84.0
52.343,96.39
52.359,105.87
52.375,112.08
52.390,115.38
52.406,116.52
52.421,116.32
52.437,115.45
52.453,114.34
52.468,113.33
52.484,112.74
52.500,112.77
52.515,113.39
52.531,114.35
52.546,115.22
52.562,115.56
52.578,115.11
52.593,113.9
52.609,112.19
52.625,110.44
52.640,109.18
52.656,108.84
52.671,109.59
52.687,111.23
52.703,113.11
52.718,114.25
52.734,113.61
52.750,110.5
52.765,104.81
52.781,97.19
52.796,88.77
52.812,80.88
52.828,74.68
52.843,70.84
52.859,69.43
52.875,69.74
52.890,70.49
52.906,70.05
52.921,67.02
52.937,60.7
52.953,51.47
52.968,40.86
52.984,30.99
53.000,23.88
53.015,20.48
53.031,20.39
53.046,22.07
53.062,23.51
53.078,23.04
53.093,19.75
53.109,13.62
53.125,5.16
53.140,-4.9
53.156,-15.76
53.171,-26.54
53.187,-36.18
53.203,-43.45
53.218,-47.32
53.234,-47.3
53.250,-43.68
53.265,-37.59
53.281,-30.63
53.296,-24.35
53.312,-19.81
53.328,-17.33
53.343,-16.62
53.359,-17.02
53.375,-17.96
53.390,-19.15
53.406,-20.73
53.421,-23.08
53.437,-26.57
53.453,-31.4
53.468,-37.53
53.484,-44.83
53.500,-53.13
53.515,-62.27
53.531,-71.88
53.546,-81.16
53.562,-88.82
53.578,-93.33
53.593,-93.42
53.609,-88.58
53.625,-79.29
53.640,-66.9
53.656,-53.23
53.671,-40.03
53.687,-28.59
53.703,-19.56
53.718,-13.04
53.734,-8.79
53.750,-6.35
53.765,-5.16
53.781,-4.63
53.796,-4.15
53.812,-3.25
53.828,-1.63
53.843,0.68
53.859,3.34
53.875,5.79
53.890,7.48
53.906,8.03
53.921,7.4
53.937,5.88
53.953,4.03
53.968,2.31
53.984,1.01
54.000,0.14
54.015,-0.6
54.031,-1.54
54.046,-3.04
54.062,-5.22
54.078,-8.02
54.093,-11.16
54.109,-14.34
54.125,-17.37
54.140,-20.14
54.156,-22.79
54.171,-25.51
54.187,-28.54
54.203,-32.04
54.218,-35.99
54.234,-40.04
54.250,-43.54
54.265,-45.68
54.281,-45.6
54.296,-42.78
54.312,-37.12
54.328,-29.01
54.343,-19.22
54.359,-8.64
54.375,1.85
54.390,11.62
54.406,20.15
54.421,27.17
54.437,32.46
54.453,36.01
54.468,38.04
54.484,38.9
54.500,39.09
54.515,39.09
54.531,39.21
54.546,39.61
54.562,40.26
54.578,41.0
54.593,41.62
54.609,42.03
54.625,42.1
54.640,41.78
54.656,41.0
54.671,39.59
54.687,37.53
54.703,34.79
54.718,31.43
54.734,27.6
54.750,23.54
54.765,19.38
54.781,15.25
54.796,11.12
54.812,6.85
54.828,2.26
54.843,-2.85
54.859,-8.69
54.875,-15.32
54.890,-22.56
54.906,-29.99
54.921,-36.79
54.937,-41.95
54.953,-44.6
54.968,-44.08
54.984,-40.28
55.000,-33.63
55.015,-24.9
55.031,-15.07
55.046,-5.04
55.062,4.54
55.078,13.34
55.093,21.22
55.109,28.23
55.125,34.42
55.140,39.73
55.156,44.07
55.171,47.32
55.187,49.41
55.203,50.47
55.218,50.79
55.234,50.62
55.250,50.15
55.265,49.34
55.281,47.99
55.296,45.92
55.312,43.13
55.328,39.83
55.343,36.35
55.359,32.94
55.375,29.56
55.390,25.94
55.406,21.8
55.421,16.99
55.437,11.75
55.453,6.49
55.468,1.68
55.484,-2.41
55.500,-5.87
55.515,-9.07
55.531,-12.45
55.546,-16.39
55.562,-21.09
55.578,-26.45
55.593,-32.2
55.609,-37.87
55.625,-42.75
55.640,-46.08
55.656,-47.09
55.671,-45.21
55.687,-40.33
55.703,-32.84
55.718,-23.54
55.734,-13.42
55.750,-3.41
55.765,5.93
55.781,14.41
55.796,22.02
55.812,28.74
55.828,34.4
55.843,38.65
55.859,41.25
55.875,42.24
55.890,42.02
55.906,41.24
55.921,40.56
55.937,40.34
55.953,40.52
55.968,40.69
55.984,40.35
56.000,39.19
56.015,37.17
56.031,34.53
56.046,31.53
56.062,28.32
56.078,24.83
56.093,20.84
56.109,16.21
56.125,11.07
56.140,5.82
56.156,0.94
56.171,-3.22
56.187,-6.62
56.203,-9.58
56.218,-12.6
56.234,-16.12
56.250,-20.41
56.265,-25.47
56.281,-31.08
56.296,-36.85
56.312,-42.26
56.328,-46.59
56.343,-49.0
56.359,-48.77
56.375,-45.5
56.390,-39.3
56.406,-30.88
56.421,-21.21
56.437,-11.3
56.453,-1.82
56.468,6.94
56.484,14.96
56.500,22.27
56.515,28.8
56.531,34.39
56.546,38.9
56.562,42.34
56.578,44.89
56.593,46.78
56.609,48.14
56.625,48.96
56.640,49.06
56.656,48.33
56.671,46.77
56.687,44.57
56.703,41.99
56.718,39.28
56.734,36.6
56.750,33.93
56.765,31.14
56.781,27.95
56.796,24.08
56.812,19.26
56.828,13.41
56.843,6.72
56.859,-0.37
56.875,-7.21
56.890,-13.24
56.906,-18.11
56.921,-21.92
56.937,-25.04
56.953,-28.08
56.968,-31.6
56.984,-35.86
57.000,-40.76
57.015,-45.8
57.031,-50.17
57.046,-52.87
57.062,-52.97
57.078,-49.84
57.093,-43.4
57.109,-34.15
57.125,-23.09
57.140,-11.34
57.156,0.08
57.171,10.54
57.187,19.71
57.203,27.52
57.218,33.95
57.234,38.96
57.250,42.57
57.265,44.93
57.281,46.35
57.296,47.25
57.312,48.07
57.328,49.08
57.343,50.34
57.359,51.73
57.375,53.04
57.390,54.01
57.406,54.45
57.421,54.27
57.437,53.41
57.453,52.02
57.468,50.26
57.484,48.27
57.500,46.13
57.515,43.84
57.531,41.3
57.546,38.54
57.562,35.64
57.578,32.81
57.593,30.25
57.609,28.04
57.625,26.05
57.640,24.07
57.656,21.9
57.671,19.51
57.687,17.04
57.703,14.76
57.718,12.9
57.734,11.52
57.750,10.53
57.765,9.73
57.781,8.94
57.796,8.02
57.812,6.98
57.828,5.8
57.843,4.53
57.859,3.18
57.875,1.84
57.890,0.59
57.906,-0.44
57.921,-1.18
57.937,-1.69
57.953,-2.13
57.968,-2.75
57.984,-3.75
58.000,-5.22
58.015,-7.07
58.031,-9.05
58.046,-10.9
58.062,-12.45
58.078,-13.69
58.093,-14.7
58.109,-15.68
58.125,-16.77
58.140,-18.07
58.156,-19.59
58.171,-21.24
58.187,-22.93
58.203,-24.63
58.218,-26.48
58.234,-28.67
58.250,-31.47
58.265,-34.94
58.281,-38.91
58.296,-42.96
58.312,-46.62
58.328,-49.55
58.343,-51.79
58.359,-53.7
58.375,-55.78
58.390,-58.49
58.406,-62.02
58.421,-66.28
58.437,-70.82
58.453,-74.97
58.468,-77.88
58.484,-78.68
58.500,-76.62
58.515,-71.34
58.531,-63.0
58.546,-52.3
58.562,-40.31
58.578,-28.17
58.593,-16.78
58.609,-6.69
58.625,1.97
58.640,9.23
58.656,15.2
58.671,19.98
58.687,23.64
58.703,26.34
58.718,28.28
58.734,29.82
58.750,31.24
58.765,32.77
58.781,34.35
58.796,35.74
58.812,36.55
58.828,36.49
58.843,35.46
58.859,33.63
58.875,31.34
58.890,28.9
58.906,26.46
58.921,23.87
58.937,20.93
58.953,17.43
58.968,13.42
58.984,9.18
59.000,5.09
59.015,1.46
59.031,-1.63
59.046,-4.33
59.062,-6.98
59.078,-9.87
59.093,-13.21
59.109,-16.96
59.125,-20.99
59.140,-25.1
59.156,-29.05
59.171,-32.55
59.187,-35.28
59.203,-36.79
59.218,-36.59
59.234,-34.35
59.250,-29.96
59.265,-23.71
59.281,-16.22
59.296,-8.27
59.312,-0.57
59.328,6.34
59.343,12.28
59.359,17.27
59.375,21.36
59.390,24.63
59.406,27.08
59.421,28.69
59.437,29.6
59.453,29.98
59.468,30.03
59.484,29.91
59.500,29.66
59.515,29.18
59.531,28.34
59.546,27.05
59.562,25.26
59.578,22.98
59.593,20.29
59.609,17.24
59.625,13.9
59.640,10.26
59.656,6.3
59.671,2.09
59.687,-2.26
59.703,-6.45
59.718,-10.21
59.734,-13.29
59.750,-15.7
59.765,-17.65
59.781,-19.58
59.796,-21.93
59.812,-25.03
59.828,-29.01
59.843,-33.67
59.859,-38.59
59.875,-43.07
59.890,-46.24
59.906,-47.23
59.921,-45.47
59.937,-40.82
59.953,-33.69
59.968,-25.03
59.984,-15.92
