timestamp,value
00.000,66.43
00.015,64.08
00.031,63.1
00.046,62.92
00.062,63.04
00.078,63.18
00.093,63.27
00.109,63.45
00.125,64.05
00.140,65.46
00.156,68.07
00.171,72.01
00.187,76.79
00.203,81.15
00.218,83.11
00.234,80.36
00.250,70.89
00.265,53.62
00.281,28.86
00.296,-1.49
00.312,-34.14
00.328,-64.84
00.343,-89.18
00.359,-103.56
00.375,-106.0
00.390,-96.5
00.406,-76.79
00.421,-49.73
00.437,-18.62
00.453,13.16
00.468,42.25
00.484,65.23
00.500,78.99
00.515,81.46
00.531,72.48
00.546,54.27
00.562,31.04
00.578,7.79
00.593,-11.26
00.609,-23.67
00.625,-29.04
00.640,-28.41
00.656,-23.35
00.671,-15.24
00.687,-5.06
00.703,6.37
00.718,18.1
00.734,28.92
00.750,37.58
00.765,43.06
00.781,44.82
00.796,42.95
00.812,38.04
00.828,30.85
00.843,22.2
00.859,12.69
00.875,2.6
00.890,-8.05
00.906,-19.48
00.921,-31.79
00.937,-44.71
00.953,-57.38
00.968,-68.5
00.984,-76.55
01.000,-80.27
01.015,-78.99
01.031,-72.71
01.046,-62.03
01.062,-47.86
01.078,-31.22
01.093,-13.03
01.109,5.84
01.125,24.63
01.140,42.56
01.156,58.8
01.171,72.44
01.187,82.49
01.203,88.11
01.218,88.87
01.234,84.98
01.250,77.48
01.265,67.96
01.281,58.25
01.296,49.8
01.312,43.41
01.328,39.03
01.343,36.0
01.359,33.45
01.375,30.49
01.390,26.49
01.406,20.99
01.421,13.63
01.437,4.14
01.453,-7.56
01.468,-21.21
01.484,-36.08
01.500,-50.99
01.515,-64.65
01.531,-76.03
01.546,-84.76
01.562,-91.2
01.578,-96.36
01.593,-101.49
01.609,-107.72
01.625,-115.71
01.640,-125.33
01.656,-135.62
01.671,-144.78
01.687,-150.46
01.703,-150.32
01.718,-142.71
01.734,-127.15
01.750,-104.63
01.765,-77.24
01.781,-47.55
01.796,-18.0
01.812,9.66
01.828,34.47
01.843,55.99
01.859,74.01
01.875,88.31
01.890,98.67
01.906,105.04
01.921,107.73
01.937,107.51
01.953,105.42
01.968,102.58
01.984,99.85
02.000,97.68
02.015,96.12
02.031,94.97
02.046,94.02
02.062,93.2
02.078,92.71
02.093,92.87
02.109,93.89
02.125,95.69
02.140,97.74
02.156,99.2
02.171,99.11
02.187,96.82
02.203,92.2
02.218,85.7
02.234,78.12
02.250,70.3
02.265,62.72
02.281,55.42
02.296,48.01
02.312,39.91
02.328,30.61
02.343,19.74
02.359,7.33
02.375,-6.1
02.390,-19.28
02.406,-30.16
02.421,-36.27
02.437,-35.35
02.453,-26.25
02.468,-9.49
02.484,12.76
02.500,37.35
02.515,61.24
02.531,82.49
02.546,100.56
02.562,115.95
02.578,129.55
02.593,141.89
02.609,152.91
02.625,162.13
02.640,168.98
02.656,173.0
02.671,173.88
02.687,171.31
02.703,164.92
02.718,154.41
02.734,139.79
02.750,121.71
02.765,101.43
02.781,80.8
02.796,61.91
02.812,46.64
02.828,36.4
02.843,31.88
02.859,33.07
02.875,39.21
02.890,48.82
02.906,59.71
02.921,69.05
02.937,73.75
02.953,71.27
02.968,60.42
02.984,41.98
03.000,18.62
03.015,-6.07
03.031,-28.87
03.046,-48.06
03.062,-63.81
03.078,-77.46
03.093,-90.24
03.109,-102.22
03.125,-112.0
03.140,-117.37
03.156,-116.53
03.171,-109.07
03.187,-96.32
03.203,-80.79
03.218,-65.27
03.234,-51.84
03.250,-41.41
03.265,-33.66
03.281,-27.52
03.296,-21.65
03.312,-14.98
03.328,-7.0
03.343,1.96
03.359,10.87
03.375,18.21
03.390,22.49
03.406,22.8
03.421,19.24
03.437,12.77
03.453,4.85
03.468,-3.15
03.484,-10.36
03.500,-16.38
03.515,-20.97
03.531,-23.67
03.546,-23.74
03.562,-20.42
03.578,-13.53
03.593,-3.88
03.609,6.69
03.625,15.77
03.640,21.18
03.656,21.64
03.671,17.11
03.687,8.58
03.703,-2.52
03.718,-14.92
03.734,-27.8
03.750,-40.74
03.765,-53.69
03.781,-66.86
03.796,-80.94
03.812,-97.11
03.828,-116.66
03.843,-140.31
03.859,-167.3
03.875,-194.99
03.890,-219.39
03.906,-236.45
03.921,-243.53
03.937,-240.38
03.953,-228.92
03.968,-212.14
03.984,-192.82
04.000,-172.51
04.015,-151.57
04.031,-129.71
04.046,-106.82
04.062,-83.3
04.078,-60.13
04.093,-38.42
04.109,-18.99
04.125,-2.11
04.140,12.36
04.156,24.81
04.171,35.61
04.187,44.91
04.203,52.73
04.218,59.02
04.234,63.82
04.250,67.33
04.265,69.91
04.281,71.94
04.296,73.65
04.312,75.07
04.328,76.0
04.343,76.11
04.359,75.12
04.375,72.89
04.390,69.54
04.406,65.49
04.421,61.3
04.437,57.69
04.453,55.25
04.468,54.28
04.484,54.65
04.500,55.77
04.515,56.76
04.531,56.75
04.546,54.95
04.562,50.77
04.578,43.7
04.593,33.32
04.609,19.44
04.625,2.48
04.640,-16.33
04.656,-35.03
04.671,-51.41
04.687,-63.73
04.703,-71.29
04.718,-74.58
04.734,-74.99
04.750,-74.2
04.765,-73.59
04.781,-73.99
04.796,-75.79
04.812,-79.12
04.828,-84.09
04.843,-90.83
04.859,-99.23
04.875,-108.75
04.890,-118.33
04.906,-126.44
04.921,-131.45
04.937,-132.15
04.953,-128.14
04.968,-120.0
04.984,-109.07
05.000,-96.92
05.015,-84.8
05.031,-73.23
05.046,-62.09
05.062,-50.83
05.078,-39.0
05.093,-26.49
05.109,-13.67
05.125,-1.16
05.140,10.43
05.156,20.84
05.171,30.25
05.187,39.17
05.203,48.28
05.218,58.06
05.234,68.6
05.250,79.56
05.265,90.34
05.281,100.34
05.296,109.13
05.312,116.54
05.328,122.59
05.343,127.43
05.359,131.33
05.375,134.89
05.390,139.17
05.406,145.57
05.421,155.54
05.437,170.04
05.453,189.11
05.468,211.66
05.484,235.81
05.500,259.32
05.515,280.18
05.531,296.86
05.546,308.41
05.562,314.22
05.578,313.84
05.593,307.1
05.609,294.41
05.625,277.25
05.640,258.16
05.656,240.22
05.671,225.79
05.687,215.29
05.703,206.55
05.718,195.45
05.734,177.62
05.750,150.56
05.765,115.01
05.781,74.99
05.796,36.35
05.812,4.76
05.828,-16.2
05.843,-25.99
05.859,-26.97
05.875,-23.54
05.890,-20.97
05.906,-24.08
05.921,-36.15
05.937,-57.99
05.953,-87.71
05.968,-121.04
05.984,-152.43
06.000,-176.57
06.015,-189.71
06.031,-190.62
06.046,-180.78
06.062,-163.83
06.078,-144.61
06.093,-127.87
06.109,-117.01
06.125,-112.95
06.140,-114.01
06.156,-116.51
06.171,-116.42
06.187,-110.99
06.203,-99.81
06.218,-84.6
06.234,-68.0
06.250,-52.05
06.265,-37.29
06.281,-23.08
06.296,-8.68
06.312,5.65
06.328,18.35
06.343,27.44
06.359,31.75
06.375,31.84
06.390,29.6
06.406,26.81
06.421,23.7
06.437,18.63
06.453,8.97
06.468,-7.11
06.484,-29.15
06.500,-54.12
06.515,-77.36
06.531,-94.38
06.546,-102.62
06.562,-102.21
06.578,-95.53
06.593,-86.04
06.609,-76.89
06.625,-70.19
06.640,-66.85
06.656,-67.18
06.671,-71.55
06.687,-80.83
06.703,-96.39
06.718,-119.55
06.734,-150.77
06.750,-188.85
06.765,-230.76
06.781,-272.03
06.796,-307.77
06.812,-333.64
06.828,-346.66
06.843,-345.49
06.859,-330.32
06.875,-302.34
06.890,-263.23
06.906,-214.79
06.921,-159.15
06.937,-99.23
06.953,-39.05
06.968,16.37
06.984,62.01
07.000,94.2
07.015,111.74
07.031,116.19
07.046,111.06
07.062,100.28
07.078,86.98
07.093,73.08
07.109,60.01
07.125,49.66
07.140,44.76
07.156,48.1
07.171,60.9
07.187,81.48
07.203,105.13
07.218,125.73
07.234,138.19
07.250,140.53
07.265,134.36
07.281,123.71
07.296,112.64
07.312,103.6
07.328,97.07
07.343,92.66
07.359,90.4
07.375,91.23
07.390,96.06
07.406,104.19
07.421,112.31
07.437,114.94
07.453,106.67
07.468,84.75
07.484,50.83
07.500,10.64
07.515,-28.23
07.531,-59.18
07.546,-78.78
07.562,-87.05
07.578,-86.34
07.593,-79.48
07.609,-68.44
07.625,-54.19
07.640,-37.19
07.656,-18.08
07.671,2.22
07.687,22.78
07.703,43.18
07.718,63.51
07.734,83.76
07.750,103.02
07.765,119.09
07.781,128.9
07.796,129.71
07.812,120.4
07.828,102.24
07.843,78.54
07.859,53.44
07.875,30.6
07.890,12.2
07.906,-1.12
07.921,-9.88
07.937,-15.11
07.953,-17.97
07.968,-19.57
07.984,-21.12
08.000,-24.03
08.015,-29.82
08.031,-39.78
08.046,-54.44
08.062,-73.24
08.078,-94.57
08.093,-116.25
08.109,-136.12
08.125,-152.82
08.140,-166.04
08.156,-176.37
08.171,-184.9
08.187,-192.5
08.203,-199.38
08.218,-204.98
08.234,-208.28
08.250,-208.3
08.265,-204.5
08.281,-196.94
08.296,-186.11
08.312,-172.66
08.328,-157.18
08.343,-140.11
08.359,-121.9
08.375,-103.22
08.390,-85.02
08.406,-68.44
08.421,-54.54
08.437,-43.96
08.453,-36.76
08.468,-32.44
08.484,-30.2
08.500,-29.2
08.515,-28.69
08.531,-28.07
08.546,-26.73
08.562,-24.1
08.578,-19.78
08.593,-13.81
08.609,-6.82
08.625,0.02
08.640,5.41
08.656,8.42
08.671,8.8
08.687,7.03
08.703,3.97
08.718,0.43
08.734,-3.2
08.750,-7.0
08.765,-11.34
08.781,-16.69
08.796,-23.49
08.812,-31.92
08.828,-41.79
08.843,-52.13
08.859,-61.03
08.875,-65.65
08.890,-62.74
08.906,-49.48
08.921,-24.52
08.937,11.63
08.953,56.55
08.968,106.63
08.984,158.07
09.000,207.64
09.015,253.05
09.031,292.98
09.046,326.72
09.062,354.01
09.078,375.12
09.093,391.17
09.109,404.05
09.125,415.81
09.140,427.57
09.156,438.5
09.171,445.6
09.187,444.78
09.203,432.62
09.218,408.15
09.234,373.54
09.250,333.26
09.265,292.22
09.281,254.02
09.296,219.9
09.312,189.07
09.328,159.84
09.343,130.59
09.359,100.26
09.375,68.19
09.390,33.94
09.406,-2.51
09.421,-40.38
09.437,-77.96
09.453,-112.82
09.468,-142.57
09.484,-165.67
09.500,-181.74
09.515,-191.47
09.531,-195.93
09.546,-196.17
09.562,-192.95
09.578,-186.92
09.593,-178.76
09.609,-169.19
09.625,-158.95
09.640,-148.81
09.656,-139.83
09.671,-133.45
09.687,-131.45
09.703,-135.35
09.718,-145.53
09.734,-160.58
09.750,-177.29
09.765,-191.69
09.781,-200.25
09.796,-201.28
09.812,-195.23
09.828,-184.24
09.843,-170.97
09.859,-157.52
09.875,-144.96
09.890,-133.5
09.906,-123.07
09.921,-113.59
09.937,-104.95
09.953,-96.69
09.968,-87.76
09.984,-76.83
10.000,-63.06
10.015,-46.81
10.031,-29.76
10.046,-14.28
10.062,-2.31
10.078,5.44
10.093,9.48
10.109,10.84
10.125,10.23
10.140,7.6
10.156,2.62
10.171,-4.49
10.187,-12.42
10.203,-18.82
10.218,-21.3
10.234,-18.6
10.250,-11.54
10.265,-2.59
10.281,5.17
10.296,9.49
10.312,9.82
10.328,7.28
10.343,3.95
10.359,1.76
10.375,1.75
10.390,3.78
10.406,6.7
10.421,8.81
10.437,8.4
10.453,4.27
10.468,-3.97
10.484,-15.6
10.500,-29.06
10.515,-42.18
10.531,-52.99
10.546,-60.37
10.562,-64.46
10.578,-66.67
10.593,-69.01
10.609,-73.34
10.625,-80.69
10.640,-91.0
10.656,-103.34
10.671,-116.39
10.687,-129.09
10.703,-141.11
10.718,-152.73
10.734,-164.41
10.750,-176.01
10.765,-186.31
10.781,-192.97
10.796,-193.13
10.812,-184.28
10.828,-165.02
10.843,-135.36
10.859,-96.77
10.875,-51.99
10.890,-4.62
10.906,41.24
10.921,81.6
10.937,113.38
10.953,135.07
10.968,146.94
10.984,150.61
11.000,148.14
11.015,141.14
11.031,130.22
11.046,115.31
11.062,96.28
11.078,73.59
11.093,48.5
11.109,22.68
11.125,-2.41
11.140,-26.05
11.156,-48.3
11.171,-69.64
11.187,-90.56
11.203,-111.26
11.218,-131.59
11.234,-151.34
11.250,-170.32
11.265,-188.43
11.281,-205.42
11.296,-220.49
11.312,-232.26
11.328,-238.85
11.343,-238.32
11.359,-229.4
11.375,-211.98
11.390,-187.22
11.406,-157.17
11.421,-124.18
11.437,-90.21
11.453,-56.58
11.468,-24.01
11.484,7.01
11.500,35.87
11.515,61.64
11.531,83.25
11.546,99.85
11.562,111.23
11.578,117.95
11.593,121.14
11.609,122.19
11.625,122.28
11.640,122.11
11.656,121.96
11.671,121.85
11.687,121.78
11.703,121.73
11.718,121.7
11.734,121.48
11.750,120.8
11.765,119.38
11.781,117.14
11.796,114.35
11.812,111.43
11.828,108.73
11.843,106.24
11.859,103.43
11.875,99.28
11.890,92.55
11.906,82.05
11.921,66.96
11.937,47.15
11.953,23.53
11.968,-1.86
11.984,-25.95
12.000,-45.14
12.015,-56.18
12.031,-57.01
12.046,-47.4
12.062,-28.93
12.078,-4.6
12.093,22.14
12.109,48.17
12.125,71.31
12.140,90.48
12.156,105.53
12.171,116.88
12.187,125.21
12.203,131.22
12.218,135.49
12.234,138.4
12.250,140.08
12.265,140.43
12.281,139.27
12.296,136.48
12.312,132.21
12.328,126.96
12.343,121.68
12.359,117.51
12.375,115.39
12.390,115.61
12.406,117.41
12.421,118.99
12.437,118.01
12.453,112.36
12.468,100.86
12.484,83.6
12.500,61.69
12.515,36.81
12.531,10.78
12.546,-14.82
12.562,-38.74
12.578,-60.15
12.593,-78.66
12.609,-94.18
12.625,-106.71
12.640,-115.88
12.656,-120.69
12.671,-119.65
12.687,-111.27
12.703,-94.89
12.718,-71.14
12.734,-41.88
12.750,-9.56
12.765,23.59
12.781,56.09
12.796,87.29
12.812,117.19
12.828,146.15
12.843,174.67
12.859,202.89
12.875,229.97
12.890,253.63
12.906,270.24
12.921,275.61
12.937,266.47
12.953,241.78
12.968,203.04
12.984,153.55
13.000,97.0
13.015,36.51
13.031,-25.37
13.046,-85.74
13.062,-140.61
13.078,-185.1
13.093,-214.94
13.109,-228.37
13.125,-227.24
13.140,-216.52
13.156,-202.31
13.171,-189.52
13.187,-180.39
13.203,-174.61
13.218,-170.64
13.234,-167.28
13.250,-164.66
13.265,-164.07
13.281,-167.03
13.296,-174.14
13.312,-184.45
13.328,-195.48
13.343,-203.89
13.359,-206.37
13.375,-200.72
13.390,-186.38
13.406,-164.38
13.421,-136.99
13.437,-106.8
13.453,-76.03
13.468,-46.15
13.484,-17.86
13.500,8.49
13.515,32.54
13.531,53.72
13.546,71.45
13.562,85.3
13.578,95.32
13.593,102.06
13.609,106.31
13.625,108.88
13.640,110.34
13.656,110.95
13.671,110.74
13.687,109.7
13.703,107.92
13.718,105.65
13.734,103.21
13.750,100.84
13.765,98.61
13.781,96.31
13.796,93.47
13.812,89.53
13.828,84.11
13.843,77.1
13.859,68.83
13.875,59.97
13.890,51.35
13.906,43.77
13.921,37.77
13.937,33.51
13.953,30.74
13.968,28.88
13.984,27.14
14.000,24.76
14.015,21.23
14.031,16.56
14.046,11.54
14.062,7.78
14.078,7.45
14.093,12.73
14.109,25.14
14.125,44.86
14.140,70.65
14.156,100.24
14.171,130.97
14.187,160.6
14.203,187.72
14.218,211.63
14.234,232.12
14.250,248.94
14.265,261.73
14.281,270.15
14.296,274.06
14.312,273.77
14.328,269.9
14.343,263.28
14.359,254.64
14.375,244.56
14.390,233.57
14.406,222.24
14.421,211.3
14.437,201.55
14.453,193.64
14.468,187.94
14.484,184.55
14.500,183.57
14.515,185.35
14.531,190.44
14.546,198.89
14.562,209.64
14.578,220.07
14.593,226.35
14.609,224.69
14.625,212.78
14.640,190.71
14.656,160.97
14.671,127.42
14.687,93.95
14.703,63.41
14.718,37.28
14.734,15.92
14.750,-1.05
14.765,-14.44
14.781,-25.42
14.796,-35.61
14.812,-46.97
14.828,-61.27
14.843,-79.38
14.859,-100.61
14.875,-122.65
14.890,-142.19
14.906,-156.25
14.921,-163.36
14.937,-164.34
14.953,-161.89
14.968,-159.57
14.984,-160.31
15.000,-165.46
15.015,-174.62
15.031,-186.26
15.046,-198.46
15.062,-209.38
15.078,-217.06
15.093,-219.24
15.109,-213.65
15.125,-199.09
15.140,-176.78
15.156,-151.02
15.171,-128.38
15.187,-115.45
15.203,-116.32
15.218,-130.74
15.234,-154.18
15.250,-179.86
15.265,-201.51
15.281,-215.55
15.296,-221.64
15.312,-221.66
15.328,-217.97
15.343,-212.0
15.359,-204.13
15.375,-194.44
15.390,-183.58
15.406,-173.13
15.421,-165.06
15.437,-160.76
15.453,-160.31
15.468,-162.56
15.484,-165.75
15.500,-168.36
15.515,-169.52
15.531,-168.73
15.546,-165.23
15.562,-157.55
15.578,-143.74
15.593,-122.19
15.609,-92.62
15.625,-56.68
15.640,-17.68
15.656,20.3
15.671,53.47
15.687,79.24
15.703,96.5
15.718,105.53
15.734,107.8
15.750,105.64
15.765,101.95
15.781,99.74
15.796,101.43
15.812,108.26
15.828,119.79
15.843,134.11
15.859,148.54
15.875,160.74
15.890,169.53
15.906,175.34
15.921,179.91
15.937,185.56
15.953,194.14
15.968,206.02
15.984,219.63
16.000,231.56
16.015,237.47
16.031,233.39
16.046,217.15
16.062,189.23
16.078,152.73
16.093,112.31
16.109,72.48
16.125,36.04
16.140,3.39
16.156,-26.94
16.171,-56.85
16.187,-87.06
16.203,-116.2
16.218,-141.08
16.234,-157.9
16.250,-163.98
16.265,-159.05
16.281,-145.57
16.296,-127.71
16.312,-109.52
16.328,-93.17
16.343,-78.33
16.359,-63.07
16.375,-45.74
16.390,-26.77
16.406,-9.15
16.421,2.77
16.437,5.47
16.453,-1.83
16.468,-16.91
16.484,-35.85
16.500,-55.02
16.515,-72.57
16.531,-88.35
16.546,-102.78
16.562,-115.57
16.578,-125.46
16.593,-130.93
16.609,-131.34
16.625,-127.47
16.640,-121.06
16.656,-113.64
16.671,-105.83
16.687,-97.52
16.703,-88.68
16.718,-80.29
16.734,-74.38
16.750,-73.1
16.765,-77.47
16.781,-86.61
16.796,-98.06
16.812,-108.81
16.828,-116.61
16.843,-120.62
16.859,-121.26
16.875,-119.37
16.890,-115.44
16.906,-109.42
16.921,-101.0
16.937,-90.15
16.953,-77.5
16.968,-64.3
16.984,-52.03
17.000,-41.86
17.015,-34.21
17.031,-28.53
17.046,-23.53
17.062,-17.61
17.078,-9.51
17.093,1.14
17.109,13.57
17.125,26.07
17.140,36.63
17.156,43.69
17.171,46.68
17.187,46.15
17.203,43.5
17.218,40.35
17.234,37.96
17.250,36.74
17.265,36.03
17.281,34.27
17.296,29.53
17.312,20.27
17.328,5.88
17.343,-13.02
17.359,-34.96
17.375,-58.15
17.390,-81.15
17.406,-103.0
17.421,-123.19
17.437,-141.53
17.453,-158.02
17.468,-172.96
17.484,-186.64
17.500,-199.08
17.515,-209.36
17.531,-215.59
17.546,-215.35
17.562,-206.72
17.578,-189.33
17.593,-164.63
17.609,-135.34
17.625,-104.38
17.640,-74.02
17.656,-45.69
17.671,-20.42
17.687,0.58
17.703,15.87
17.718,24.2
17.734,25.27
17.750,20.1
17.765,10.86
17.781,0.21
17.796,-9.38
17.812,-16.11
17.828,-18.99
17.843,-17.76
17.859,-12.71
17.875,-4.64
17.890,5.28
17.906,15.74
17.921,25.46
17.937,33.39
17.953,38.86
17.968,41.5
17.984,41.26
18.000,38.4
18.015,33.44
18.031,27.06
18.046,20.0
18.062,12.78
18.078,5.59
18.093,-1.74
18.109,-9.34
18.125,-17.01
18.140,-23.88
18.156,-28.43
18.171,-28.87
18.187,-23.85
18.203,-12.88
18.218,3.36
18.234,23.32
18.250,45.1
18.265,66.86
18.281,87.03
18.296,104.24
18.312,117.2
18.328,124.71
18.343,125.96
18.359,120.84
18.375,110.1
18.390,95.2
18.406,78.02
18.421,60.38
18.437,43.82
18.453,29.58
18.468,18.57
18.484,11.46
18.500,8.54
18.515,9.65
18.531,14.09
18.546,20.77
18.562,28.39
18.578,35.76
18.593,41.98
18.609,46.61
18.625,49.54
18.640,50.96
18.656,51.02
18.671,49.73
18.687,46.96
18.703,42.58
18.718,36.8
18.734,30.49
18.750,25.15
18.765,22.57
18.781,24.18
18.796,30.45
18.812,40.64
18.828,53.05
18.843,65.69
18.859,76.87
18.875,85.62
18.890,91.61
18.906,94.84
18.921,95.28
18.937,92.9
18.953,87.7
18.968,79.93
18.984,70.18
19.000,59.24
19.015,47.99
19.031,37.26
19.046,27.7
19.062,19.79
19.078,13.76
19.093,9.47
19.109,6.5
19.125,4.26
19.140,2.28
19.156,0.36
19.171,-1.46
19.187,-3.08
19.203,-4.61
19.218,-6.44
19.234,-9.24
19.250,-13.67
19.265,-20.29
19.281,-29.26
19.296,-40.32
19.312,-52.61
19.328,-64.54
19.343,-73.97
19.359,-78.6
19.375,-76.67
19.390,-67.6
19.406,-52.25
19.421,-32.6
19.437,-10.9
19.453,11.13
19.468,32.68
19.484,53.7
19.500,74.27
19.515,94.11
19.531,112.44
19.546,128.3
19.562,141.02
19.578,150.48
19.593,157.06
19.609,161.33
19.625,163.81
19.640,164.88
19.656,164.86
19.671,164.11
19.687,162.99
19.703,161.74
19.718,160.28
19.734,158.29
19.750,155.21
19.765,150.47
19.781,143.62
19.796,134.52
19.812,123.43
19.828,111.04
19.843,98.43
19.859,86.73
19.875,76.98
19.890,69.83
19.906,65.45
19.921,63.36
19.937,62.27
19.953,60.09
19.968,54.1
19.984,41.76
20.000,21.67
20.015,-5.51
20.031,-36.93
20.046,-68.37
20.062,-95.56
20.078,-115.5
20.093,-126.89
20.109,-129.82
20.125,-124.91
20.140,-112.78
20.156,-94.25
20.171,-70.97
20.187,-45.8
20.203,-22.51
20.218,-4.59
20.234,5.97
20.250,9.48
20.265,8.26
20.281,5.6
20.296,4.42
20.312,6.36
20.328,11.57
20.343,18.99
20.359,27.14
20.375,34.65
20.390,40.65
20.406,44.82
20.421,47.29
20.437,48.32
20.453,48.15
20.468,46.83
20.484,44.26
20.500,40.25
20.515,34.72
20.531,27.8
20.546,19.76
20.562,10.96
20.578,1.71
20.593,-7.74
20.609,-17.24
20.625,-26.69
20.640,-36.04
20.656,-45.19
20.671,-54.01
20.687,-62.19
20.703,-69.36
20.718,-75.14
20.734,-79.34
20.750,-82.12
20.765,-84.02
20.781,-85.97
20.796,-89.1
20.812,-94.48
20.828,-102.7
20.843,-113.47
20.859,-125.31
20.875,-135.62
20.890,-141.12
20.906,-138.78
20.921,-126.69
20.937,-104.68
20.953,-74.37
20.968,-38.66
20.984,-0.99
21.000,35.37
21.015,67.77
21.031,94.42
21.046,114.37
21.062,127.53
21.078,134.53
21.093,136.48
21.109,134.65
21.125,130.11
21.140,123.5
21.156,115.07
21.171,104.99
21.187,93.62
21.203,81.69
21.218,70.12
21.234,59.93
21.250,51.79
21.265,45.92
21.281,42.03
21.296,39.45
21.312,37.38
21.328,35.15
21.343,32.4
21.359,29.13
21.375,25.66
21.390,22.42
21.406,19.72
21.421,17.62
21.437,16.01
21.453,14.72
21.468,13.65
21.484,12.89
21.500,12.6
21.515,12.83
21.531,13.42
21.546,13.94
21.562,13.77
21.578,12.3
21.593,8.97
21.609,3.39
21.625,-4.56
21.640,-14.58
21.656,-25.74
21.671,-36.46
21.687,-44.63
21.703,-48.19
21.718,-45.74
21.734,-37.05
21.750,-23.24
21.765,-6.53
21.781,10.44
21.796,25.3
21.812,36.47
21.828,43.34
21.843,46.09
21.859,45.39
21.875,42.06
21.890,36.87
21.906,30.42
21.921,23.19
21.937,15.53
21.953,7.82
21.968,0.49
21.984,-5.95
22.000,-11.0
22.015,-14.28
22.031,-15.68
22.046,-15.29
22.062,-13.36
22.078,-10.04
22.093,-5.32
22.109,0.9
22.125,8.57
22.140,17.3
22.156,26.29
22.171,34.39
22.187,40.47
22.203,43.51
22.218,42.8
22.234,37.9
22.250,28.71
22.265,15.53
22.281,-0.79
22.296,-18.9
22.312,-37.07
22.328,-53.56
22.343,-67.14
22.359,-77.45
22.375,-85.05
22.390,-91.21
22.406,-97.31
22.421,-104.13
22.437,-111.41
22.453,-117.69
22.468,-120.74
22.484,-118.3
22.500,-108.9
22.515,-92.29
22.531,-69.56
22.546,-42.69
22.562,-14.02
22.578,14.24
22.593,40.24
22.609,62.56
22.625,80.21
22.640,92.64
22.656,99.75
22.671,102.13
22.687,101.01
22.703,98.09
22.718,95.0
22.734,92.64
22.750,90.64
22.765,87.35
22.781,80.52
22.796,68.32
22.812,50.26
22.828,27.56
22.843,2.64
22.859,-21.79
22.875,-43.76
22.890,-62.36
22.906,-77.65
22.921,-89.88
22.937,-99.1
22.953,-104.99
22.968,-107.17
22.984,-105.71
23.000,-101.36
23.015,-95.36
23.031,-89.03
23.046,-83.23
23.062,-78.09
23.078,-72.96
23.093,-66.92
23.109,-59.38
23.125,-50.62
23.140,-41.88
23.156,-34.9
23.171,-31.14
23.187,-30.92
23.203,-33.05
23.218,-35.1
23.234,-34.14
23.250,-27.68
23.265,-14.36
23.281,5.71
23.296,30.83
23.312,57.89
23.328,82.88
23.343,101.67
23.359,111.11
23.375,109.91
23.390,99.02
23.406,81.3
23.421,60.45
23.437,39.82
23.453,21.67
23.468,6.99
23.484,-4.05
23.500,-11.61
23.515,-15.81
23.531,-16.71
23.546,-14.46
23.562,-9.32
23.578,-1.65
23.593,8.17
23.609,19.7
23.625,32.19
23.640,44.38
23.656,54.63
23.671,61.24
23.687,62.97
23.703,59.21
23.718,49.79
23.734,34.53
23.750,13.14
23.765,-14.37
23.781,-46.87
23.796,-81.55
23.812,-114.13
23.828,-140.02
23.843,-156.04
23.859,-161.67
23.875,-159.33
23.890,-153.37
23.906,-148.3
23.921,-147.09
23.937,-150.21
23.953,-155.63
23.968,-159.86
23.984,-159.24
24.000,-151.38
24.015,-135.95
24.031,-114.9
24.046,-91.67
24.062,-69.93
24.078,-52.33
24.093,-39.77
24.109,-31.67
24.125,-26.76
24.140,-23.82
24.156,-21.89
24.171,-19.95
24.187,-16.35
24.203,-8.96
24.218,4.0
24.234,22.57
24.250,44.19
24.265,63.92
24.281,76.11
24.296,76.54
24.312,64.18
24.328,41.58
24.343,13.71
24.359,-14.08
24.375,-37.87
24.390,-56.03
24.406,-68.91
24.421,-77.82
24.437,-83.95
24.453,-87.76
24.468,-89.1
24.484,-87.58
24.500,-83.16
24.515,-76.44
24.531,-68.66
24.546,-61.45
24.562,-56.33
24.578,-54.33
24.593,-55.58
24.609,-59.34
24.625,-64.17
24.640,-68.34
24.656,-70.23
24.671,-68.63
24.687,-62.79
24.703,-52.35
24.718,-37.19
24.734,-17.39
24.750,6.71
24.765,34.3
24.781,63.9
24.796,93.18
24.812,119.15
24.828,138.56
24.843,148.64
24.859,147.96
24.875,136.9
24.890,117.83
24.906,94.64
24.921,71.94
24.937,53.86
24.953,43.06
24.968,40.17
24.984,43.84
25.000,51.35
25.015,59.47
25.031,65.4
25.046,67.45
25.062,65.41
25.078,60.43
25.093,54.55
25.109,50.04
25.125,48.53
25.140,50.46
25.156,54.73
25.171,58.98
25.187,60.28
25.203,56.12
25.218,45.13
25.234,27.38
25.250,4.13
25.265,-22.9
25.281,-51.96
25.296,-81.46
25.312,-109.72
25.328,-134.73
25.343,-154.35
25.359,-166.62
25.375,-170.51
25.390,-166.27
25.406,-155.27
25.421,-139.3
25.437,-119.85
25.453,-97.63
25.468,-72.68
25.484,-45.08
25.500,-15.41
25.515,14.82
25.531,43.38
25.546,67.67
25.562,85.2
25.578,94.19
25.593,94.09
25.609,85.96
25.625,72.45
25.640,57.26
25.656,44.14
25.671,35.75
25.687,32.88
25.703,34.66
25.718,39.11
25.734,44.3
25.750,48.94
25.765,52.44
25.781,54.63
25.796,55.28
25.812,54.01
25.828,50.51
25.843,44.86
25.859,37.68
25.875,29.86
25.890,22.16
25.906,14.88
25.921,7.78
25.937,0.21
25.953,-8.57
25.968,-19.01
25.984,-31.11
26.000,-44.21
26.015,-57.09
26.031,-68.09
26.046,-75.48
26.062,-77.8
26.078,-74.23
26.093,-64.78
26.109,-50.2
26.125,-31.67
26.140,-10.52
26.156,11.94
26.171,34.43
26.187,55.53
26.203,73.71
26.218,87.43
26.234,95.56
26.250,97.77
26.265,94.68
26.281,87.69
26.296,78.58
26.312,68.99
26.328,60.07
26.343,52.4
26.359,46.05
26.375,40.85
26.390,36.41
26.406,32.23
26.421,27.73
26.437,22.21
26.453,15.0
26.468,5.63
26.484,-6.06
26.500,-19.8
26.515,-34.9
26.531,-50.4
26.546,-65.27
26.562,-78.7
26.578,-90.29
26.593,-100.18
26.609,-109.03
26.625,-117.82
26.640,-127.47
26.656,-138.31
26.671,-149.73
26.687,-160.01
26.703,-166.63
26.718,-166.94
26.734,-158.98
26.750,-142.14
26.765,-117.54
26.781,-87.7
26.796,-56.02
26.812,-25.83
26.828,0.17
26.843,20.41
26.859,34.44
26.875,42.74
26.890,46.36
26.906,46.6
26.921,44.75
26.937,41.95
26.953,39.08
26.968,36.71
26.984,35.15
27.000,34.43
27.015,34.37
27.031,34.66
27.046,34.96
27.062,34.97
27.078,34.48
27.093,33.4
27.109,31.73
27.125,29.48
27.140,26.67
27.156,23.27
27.171,19.19
27.187,14.35
27.203,8.72
27.218,2.37
27.234,-4.49
27.250,-11.55
27.265,-18.58
27.281,-25.59
27.296,-32.96
27.312,-41.22
27.328,-50.75
27.343,-61.31
27.359,-71.73
27.375,-79.95
27.390,-83.62
27.406,-80.87
27.421,-71.0
27.437,-54.67
27.453,-33.65
27.468,-10.16
27.484,13.77
27.500,36.58
27.515,57.25
27.531,75.08
27.546,89.6
27.562,100.68
27.578,108.67
27.593,114.45
27.609,119.26
27.625,124.28
27.640,130.18
27.656,136.93
27.671,143.84
27.687,149.98
27.703,154.58
27.718,157.39
27.734,158.8
27.750,159.74
27.765,161.32
27.781,164.53
27.796,169.67
27.812,175.89
27.828,180.97
27.843,181.62
27.859,174.35
27.875,156.77
27.890,128.75
27.906,92.63
27.921,52.51
27.937,12.77
27.953,-23.53
27.968,-55.38
27.984,-83.52
28.000,-109.28
28.015,-133.38
28.031,-155.13
28.046,-172.54
28.062,-182.99
28.078,-184.06
28.093,-174.41
28.109,-154.12
28.125,-124.94
28.140,-90.07
28.156,-53.68
28.171,-20.05
28.187,7.35
28.203,26.59
28.218,37.47
28.234,41.19
28.250,39.69
28.265,34.99
28.281,28.83
28.296,22.57
28.312,17.29
28.328,13.69
28.343,12.12
28.359,12.42
28.375,14.0
28.390,16.1
28.406,18.12
28.421,19.98
28.437,22.06
28.453,25.01
28.468,29.2
28.484,34.47
28.500,40.02
28.515,44.67
28.531,47.38
28.546,47.67
28.562,45.74
28.578,42.38
28.593,38.39
28.609,34.24
28.625,29.78
28.640,24.24
28.656,16.5
28.671,5.55
28.687,-9.08
28.703,-26.98
28.718,-46.67
28.734,-65.75
28.750,-81.35
28.765,-90.78
28.781,-92.31
28.796,-85.71
28.812,-72.28
28.828,-54.49
28.843,-35.12
28.859,-16.63
28.875,-0.53
28.890,12.61
28.906,22.88
28.921,30.64
28.937,36.25
28.953,39.95
28.968,41.95
28.984,42.65
29.000,42.58
29.015,42.41
29.031,42.71
29.046,43.84
29.062,45.91
29.078,48.82
29.093,52.42
29.109,56.57
29.125,61.06
29.140,65.55
29.156,69.53
29.171,72.34
29.187,73.38
29.203,72.3
29.218,69.14
29.234,64.3
29.250,58.38
29.265,51.99
29.281,45.62
29.296,39.55
29.312,33.91
29.328,28.73
29.343,23.98
29.359,19.62
29.375,15.66
29.390,12.13
29.406,9.16
29.421,6.88
29.437,5.36
29.453,4.54
29.468,4.28
29.484,4.32
29.500,4.49
29.515,4.7
29.531,5.0
29.546,5.49
29.562,6.23
29.578,7.22
29.593,8.37
29.609,9.57
29.625,10.74
29.640,11.83
29.656,12.76
29.671,13.37
29.687,13.4
29.703,12.53
29.718,10.5
29.734,7.27
29.750,3.02
29.765,-1.77
29.781,-6.52
29.796,-10.69
29.812,-14.05
29.828,-16.71
29.843,-19.11
29.859,-21.9
29.875,-25.65
29.890,-30.7
29.906,-37.04
29.921,-44.3
29.937,-51.9
29.953,-59.19
29.968,-65.65
29.984,-70.99
30.000,-75.2
30.015,-78.62
30.031,-81.95
30.046,-86.2
30.062,-92.34
30.078,-100.8
30.093,-110.9
30.109,-120.6
30.125,-126.86
30.140,-126.49
30.156,-117.32
30.171,-98.98
30.187,-73.18
30.203,-43.07
30.218,-12.19
30.234,16.37
30.250,40.55
30.265,59.29
30.281,72.08
30.296,78.76
30.312,79.38
30.328,74.46
30.343,65.1
30.359,53.11
30.375,40.66
30.390,29.92
30.406,22.51
30.421,19.16
30.437,19.6
30.453,22.86
30.468,27.66
30.484,32.88
30.500,37.88
30.515,42.41
30.531,46.48
30.546,50.01
30.562,52.73
30.578,54.35
30.593,54.86
30.609,54.63
30.625,54.27
30.640,54.18
30.656,54.06
30.671,53.02
30.687,49.91
30.703,44.06
30.718,35.57
30.734,25.14
30.750,13.35
30.765,0.12
30.781,-15.18
30.796,-33.04
30.812,-52.79
30.828,-72.2
30.843,-88.01
30.859,-97.39
30.875,-99.24
30.890,-94.69
30.906,-86.45
30.921,-77.45
30.937,-69.72
30.953,-64.06
30.968,-60.56
30.984,-59.43
31.000,-61.33
31.015,-67.14
31.031,-77.16
31.046,-90.53
31.062,-105.27
31.078,-118.86
31.093,-129.13
31.109,-134.9
31.125,-136.11
31.140,-133.47
31.156,-127.9
31.171,-120.25
31.187,-111.14
31.203,-101.17
31.218,-91.03
31.234,-81.49
31.250,-73.32
31.265,-67.05
31.281,-62.94
31.296,-61.01
31.312,-61.34
31.328,-64.18
31.343,-69.83
31.359,-78.18
31.375,-88.23
31.390,-97.84
31.406,-104.14
31.421,-104.24
31.437,-96.31
31.453,-80.18
31.468,-57.41
31.484,-30.73
31.500,-3.22
31.515,22.56
31.531,44.87
31.546,62.9
31.562,76.45
31.578,85.75
31.593,91.18
31.609,93.27
31.625,92.6
31.640,89.88
31.656,85.8
31.671,81.09
31.687,76.35
31.703,72.12
31.718,68.73
31.734,66.37
31.750,65.03
31.765,64.54
31.781,64.58
31.796,64.69
31.812,64.4
31.828,63.4
31.843,61.66
31.859,59.43
31.875,57.15
31.890,55.23
31.906,53.82
31.921,52.6
31.937,50.91
31.953,47.88
31.968,42.8
31.984,35.44
32.000,26.46
32.015,17.46
32.031,10.85
32.046,9.23
32.062,14.64
32.078,27.9
32.093,48.26
32.109,73.7
32.125,101.65
32.140,129.63
32.156,155.81
32.171,179.07
32.187,198.61
32.203,213.53
32.218,222.65
32.234,224.5
32.250,217.84
32.265,202.19
32.281,178.32
32.296,148.5
32.312,116.36
32.328,86.18
32.343,61.88
32.359,45.76
32.375,37.7
32.390,35.03
32.406,33.39
32.421,28.14
32.437,15.92
32.453,-4.38
32.468,-31.49
32.484,-62.45
32.500,-93.71
32.515,-122.17
32.531,-145.8
32.546,-163.73
32.562,-176.06
32.578,-183.47
32.593,-186.97
32.609,-187.64
32.625,-186.45
32.640,-184.03
32.656,-180.41
32.671,-174.78
32.687,-165.61
32.703,-150.96
32.718,-129.16
32.734,-99.52
32.750,-62.81
32.765,-21.34
32.781,21.75
32.796,63.38
32.812,101.51
32.828,135.34
32.843,164.7
32.859,189.15
32.875,207.26
32.890,216.8
32.906,215.67
32.921,203.22
32.937,180.99
32.953,152.37
32.968,121.47
32.984,91.61
33.000,64.42
33.015,39.87
33.031,17.06
33.046,-4.7
33.062,-25.35
33.078,-44.17
33.093,-60.42
33.109,-74.08
33.125,-86.25
33.140,-98.86
33.156,-113.9
33.171,-132.42
33.187,-153.87
33.203,-176.13
33.218,-196.38
33.234,-212.16
33.250,-222.33
33.265,-227.23
33.281,-228.22
33.296,-226.95
33.312,-224.74
33.328,-222.46
33.343,-220.49
33.359,-218.66
33.375,-215.98
33.390,-210.41
33.406,-198.98
33.421,-178.49
33.437,-146.41
33.453,-101.77
33.468,-45.67
33.484,18.78
33.500,86.85
33.515,152.82
33.531,210.8
33.546,255.67
33.562,284.15
33.578,295.77
33.593,293.28
33.609,282.31
33.625,269.77
33.640,261.69
33.656,260.88
33.671,265.86
33.687,271.27
33.703,269.85
33.718,255.28
33.734,224.65
33.750,179.56
33.765,125.4
33.781,69.24
33.796,17.44
33.812,-26.13
33.828,-60.39
33.843,-86.28
33.859,-105.54
33.875,-119.8
33.890,-130.42
33.906,-138.83
33.921,-146.96
33.937,-157.19
33.953,-171.87
33.968,-192.5
33.984,-219.1
34.000,-250.05
34.015,-282.54
34.031,-313.35
34.046,-339.43
34.062,-358.23
34.078,-367.65
34.093,-365.94
34.109,-351.95
34.125,-325.39
34.140,-287.28
34.156,-240.09
34.171,-187.45
34.187,-133.54
34.203,-82.3
34.218,-36.82
34.234,1.06
34.250,30.74
34.265,52.71
34.281,68.19
34.296,78.76
34.312,85.95
34.328,91.03
34.343,94.79
34.359,97.52
34.375,99.22
34.390,99.83
34.406,99.42
34.421,98.3
34.437,97.0
34.453,96.06
34.468,95.84
34.484,96.26
34.500,96.88
34.515,96.95
34.531,95.68
34.546,92.5
34.562,87.24
34.578,80.23
34.593,72.22
34.609,64.22
34.625,57.16
34.640,51.65
34.656,47.73
34.671,44.76
34.687,41.6
34.703,36.91
34.718,29.71
34.734,19.97
34.750,9.0
34.765,-0.69
34.781,-5.85
34.796,-3.53
34.812,7.97
34.828,28.46
34.843,55.75
34.859,86.26
34.875,115.94
34.890,141.38
34.906,160.55
34.921,173.05
34.937,179.6
34.953,181.26
34.968,178.79
34.984,172.44
35.000,162.43
35.015,149.6
35.031,135.65
35.046,122.94
35.062,113.57
35.078,108.68
35.093,108.14
35.109,110.89
35.125,115.5
35.140,120.47
35.156,124.09
35.171,124.3
35.187,119.13
35.203,107.74
35.218,91.49
35.234,74.33
35.250,61.82
35.265,58.9
35.281,67.57
35.296,85.63
35.312,107.14
35.328,124.47
35.343,130.99
35.359,123.08
35.375,100.91
35.390,67.79
35.406,28.76
35.421,-11.0
35.437,-47.23
35.453,-77.2
35.468,-99.69
35.484,-114.77
35.500,-123.45
35.515,-127.28
35.531,-128.01
35.546,-127.23
35.562,-125.96
35.578,-124.49
35.593,-122.38
35.609,-118.89
35.625,-113.39
35.640,-105.84
35.656,-96.75
35.671,-87.12
35.687,-77.9
35.703,-69.74
35.718,-62.72
35.734,-56.47
35.750,-50.42
35.765,-44.2
35.781,-37.89
35.796,-32.11
35.812,-27.73
35.828,-25.54
35.843,-25.85
35.859,-28.36
35.875,-32.29
35.890,-36.71
35.906,-40.94
35.921,-44.84
35.937,-48.82
35.953,-53.67
35.968,-60.14
35.984,-68.71
36.000,-79.35
36.015,-91.57
36.031,-104.53
36.046,-117.34
36.062,-129.25
36.078,-139.8
36.093,-148.95
36.109,-157.07
36.125,-164.77
36.140,-172.5
36.156,-180.0
36.171,-185.86
36.187,-187.39
36.203,-181.3
36.218,-164.69
36.234,-136.33
36.250,-97.43
36.265,-51.53
36.281,-3.6
36.296,41.28
36.312,79.17
36.328,107.95
36.343,127.4
36.359,138.86
36.375,144.69
36.390,147.76
36.406,150.88
36.421,156.02
36.437,163.39
36.453,171.02
36.468,174.93
36.484,170.5
36.500,154.22
36.515,125.55
36.531,87.52
36.546,45.96
36.562,7.42
36.578,-23.06
36.593,-43.5
36.609,-55.0
36.625,-60.62
36.640,-63.72
36.656,-66.69
36.671,-70.58
36.687,-75.45
36.703,-81.02
36.718,-87.2
36.734,-94.09
36.750,-101.81
36.765,-110.39
36.781,-119.79
36.796,-129.99
36.812,-141.07
36.828,-152.94
36.843,-164.88
36.859,-175.16
36.875,-181.1
36.890,-179.69
36.906,-168.63
36.921,-147.29
36.937,-117.17
36.953,-81.59
36.968,-44.76
36.984,-10.51
37.000,18.53
37.015,41.44
37.031,58.72
37.046,71.8
37.062,82.43
37.078,92.16
37.093,102.09
37.109,112.73
37.125,124.16
37.140,136.15
37.156,148.34
37.171,160.4
37.187,172.12
37.203,183.48
37.218,194.7
37.234,206.18
37.250,218.27
37.265,230.86
37.281,242.85
37.296,252.02
37.312,255.46
37.328,250.69
37.343,236.83
37.359,215.38
37.375,189.82
37.390,164.4
37.406,142.36
37.421,124.72
37.437,110.0
37.453,95.04
37.468,76.47
37.484,52.2
37.500,22.24
37.515,-11.28
37.531,-44.71
37.546,-73.93
37.562,-95.51
37.578,-107.71
37.593,-110.93
37.609,-107.56
37.625,-101.02
37.640,-94.52
37.656,-90.05
37.671,-87.91
37.687,-87.11
37.703,-86.13
37.718,-83.76
37.734,-79.57
37.750,-73.93
37.765,-67.67
37.781,-61.82
37.796,-57.29
37.812,-54.9
37.828,-55.27
37.843,-58.84
37.859,-65.68
37.875,-75.3
37.890,-86.6
37.906,-98.17
37.921,-108.63
37.937,-117.2
37.953,-123.98
37.968,-129.99
37.984,-136.72
38.000,-145.43
38.015,-156.49
38.031,-169.16
38.046,-181.95
38.062,-193.29
38.078,-202.26
38.093,-209.13
38.109,-215.16
38.125,-222.13
38.140,-231.53
38.156,-243.67
38.171,-257.18
38.187,-268.95
38.203,-274.72
38.218,-270.33
38.234,-253.13
38.250,-223.05
38.265,-182.81
38.281,-137.1
38.296,-91.13
38.312,-49.11
38.328,-13.45
38.343,15.3
38.359,37.63
38.375,54.34
38.390,65.97
38.406,72.82
38.421,75.31
38.437,74.3
38.453,71.1
38.468,67.13
38.484,63.53
38.500,60.86
38.515,59.08
38.531,57.85
38.546,56.85
38.562,55.92
38.578,55.01
38.593,54.04
38.609,52.62
38.625,50.16
38.640,45.95
38.656,39.47
38.671,30.65
38.687,19.92
38.703,8.1
38.718,-3.9
38.734,-15.35
38.750,-25.97
38.765,-36.04
38.781,-46.38
38.796,-58.0
38.812,-71.6
38.828,-86.92
38.843,-102.35
38.859,-114.99
38.875,-121.28
38.890,-118.14
38.906,-104.0
38.921,-79.54
38.937,-47.56
38.953,-12.17
38.968,22.39
38.984,52.81
39.000,77.26
39.015,95.32
39.031,107.49
39.046,114.75
39.062,118.21
39.078,119.14
39.093,118.96
39.109,119.09
39.125,120.7
39.140,124.18
39.156,129.05
39.171,134.04
39.187,137.63
39.203,138.65
39.218,136.71
39.234,132.24
39.250,126.16
39.265,119.34
39.281,112.27
39.296,104.95
39.312,97.11
39.328,88.5
39.343,79.21
39.359,69.77
39.375,61.0
39.390,53.72
39.406,48.41
39.421,44.91
39.437,42.33
39.453,39.31
39.468,34.53
39.484,27.24
39.500,17.76
39.515,7.53
39.531,-1.24
39.546,-6.25
39.562,-5.78
39.578,0.76
39.593,12.85
39.609,29.11
39.625,47.72
39.640,66.87
39.656,84.87
39.671,100.32
39.687,112.09
39.703,119.42
39.718,122.0
39.734,120.05
39.750,114.33
39.765,106.0
39.781,96.46
39.796,86.98
39.812,78.49
39.828,71.42
39.843,65.63
39.859,60.66
39.875,56.06
39.890,51.64
39.906,47.56
39.921,44.17
39.937,41.67
39.953,39.74
39.968,37.63
39.984,34.35
40.000,29.16
40.015,21.89
40.031,12.97
40.046,3.27
40.062,-6.3
40.078,-15.13
40.093,-23.02
40.109,-30.21
40.125,-37.36
40.140,-45.4
40.156,-55.37
40.171,-68.11
40.187,-83.8
40.203,-101.61
40.218,-119.55
40.234,-134.8
40.250,-144.43
40.265,-146.3
40.281,-139.77
40.296,-125.8
40.312,-106.59
40.328,-84.67
40.343,-62.14
40.359,-40.16
40.375,-19.07
40.390,1.27
40.406,20.98
40.421,39.84
40.437,57.42
40.453,73.29
40.468,87.29
40.484,99.7
40.500,111.13
40.515,122.26
40.531,133.57
40.546,145.09
40.562,156.47
40.578,167.16
40.593,176.76
40.609,185.19
40.625,192.57
40.640,198.89
40.656,203.6
40.671,205.37
40.687,202.44
40.703,193.25
40.718,177.27
40.734,155.51
40.750,130.41
40.765,105.14
40.781,82.67
40.796,65.03
40.812,52.85
40.828,45.57
40.843,41.84
40.859,39.96
40.875,38.23
40.890,35.3
40.906,30.35
40.921,23.46
40.937,15.69
40.953,9.01
40.968,5.87
40.984,8.46
41.000,17.99
41.015,34.34
41.031,56.01
41.046,80.59
41.062,105.52
41.078,128.78
41.093,149.37
41.109,167.3
41.125,183.07
41.140,196.87
41.156,207.96
41.171,214.58
41.187,214.54
41.203,206.25
41.218,189.55
41.234,165.98
41.250,138.16
41.265,108.77
41.281,79.52
41.296,50.85
41.312,22.31
41.328,-6.75
41.343,-36.57
41.359,-66.94
41.375,-97.66
41.390,-128.92
41.406,-161.32
41.421,-195.45
41.437,-231.17
41.453,-267.2
41.468,-301.19
41.484,-330.4
41.500,-352.61
41.515,-366.85
41.531,-373.67
41.546,-374.82
41.562,-372.65
41.578,-369.43
41.593,-366.88
41.609,-365.94
41.625,-366.75
41.640,-368.29
41.656,-368.38
41.671,-363.76
41.687,-350.75
41.703,-326.5
41.718,-290.19
41.734,-243.86
41.750,-192.05
41.765,-140.61
41.781,-94.93
41.796,-58.51
41.812,-32.39
41.828,-15.56
41.843,-5.95
41.859,-1.31
41.875,0.23
41.890,0.11
41.906,-0.65
41.921,-1.48
41.937,-2.38
41.953,-3.87
41.968,-6.66
41.984,-11.16
42.000,-17.09
42.015,-23.42
42.031,-28.67
42.046,-31.55
42.062,-31.35
42.078,-28.22
42.093,-22.94
42.109,-16.61
42.125,-10.35
42.140,-5.04
42.156,-1.28
42.171,0.68
42.187,1.0
42.203,0.18
42.218,-1.06
42.234,-2.04
42.250,-2.33
42.265,-1.74
42.281,-0.34
42.296,1.65
42.312,4.01
42.328,6.34
42.343,8.21
42.359,9.18
42.375,9.19
42.390,8.75
42.406,9.16
42.421,12.26
42.437,19.93
42.453,33.41
42.468,52.9
42.484,77.46
42.500,105.31
42.515,134.36
42.531,162.71
42.546,188.88
42.562,211.93
42.578,231.38
42.593,247.41
42.609,260.86
42.625,273.2
42.640,286.06
42.656,300.25
42.671,314.88
42.687,326.91
42.703,331.64
42.718,324.14
42.734,301.13
42.750,262.49
42.765,211.67
42.781,154.82
42.796,99.1
42.812,50.87
42.828,14.32
42.843,-8.9
42.859,-19.5
42.875,-19.82
42.890,-13.04
42.906,-2.46
42.921,9.18
42.937,20.13
42.953,29.65
42.968,37.59
42.984,43.64
43.000,46.68
43.015,44.65
43.031,35.03
43.046,15.84
43.062,-13.39
43.078,-51.06
43.093,-93.52
43.109,-135.77
43.125,-172.38
43.140,-198.49
43.156,-210.63
43.171,-207.24
43.187,-188.82
43.203,-157.91
43.218,-118.76
43.234,-76.76
43.250,-37.79
43.265,-7.2
43.281,11.09
43.296,15.53
43.312,7.26
43.328,-10.1
43.343,-31.41
43.359,-51.38
43.375,-65.99
43.390,-73.17
43.406,-72.86
43.421,-66.38
43.437,-55.55
43.453,-42.04
43.468,-27.12
43.484,-11.65
43.500,3.59
43.515,17.89
43.531,30.39
43.546,40.25
43.562,46.83
43.578,49.81
43.593,49.35
43.609,46.1
43.625,41.0
43.640,35.07
43.656,29.12
43.671,23.66
43.687,18.87
43.703,14.89
43.718,11.88
43.734,10.16
43.750,10.07
43.765,11.78
43.781,15.05
43.796,19.25
43.812,23.54
43.828,27.27
43.843,30.2
43.859,32.57
43.875,34.85
43.890,37.3
43.906,39.69
43.921,41.26
43.937,41.12
43.953,38.71
43.968,34.15
43.984,28.18
44.000,21.78
44.015,15.74
44.031,10.33
44.046,5.34
44.062,0.37
44.078,-4.92
44.093,-10.75
44.109,-17.24
44.125,-24.59
44.140,-33.09
44.156,-43.0
44.171,-54.26
44.187,-66.43
44.203,-78.67
44.218,-90.03
44.234,-99.71
44.250,-107.32
44.265,-112.94
44.281,-117.0
44.296,-120.18
44.312,-123.07
44.328,-126.16
44.343,-129.66
44.359,-133.67
44.375,-138.22
44.390,-143.34
44.406,-149.17
44.421,-155.89
44.437,-163.67
44.453,-172.61
44.468,-182.61
44.484,-193.0
44.500,-202.38
44.515,-208.56
44.531,-208.91
44.546,-201.1
44.562,-183.98
44.578,-158.17
44.593,-125.97
44.609,-90.8
44.625,-56.13
44.640,-24.66
44.656,2.06
44.671,23.48
44.687,39.75
44.703,51.2
44.718,58.26
44.734,61.59
44.750,62.09
44.765,60.95
44.781,59.48
44.796,58.79
44.812,59.62
44.828,62.2
44.843,66.36
44.859,71.69
44.875,77.81
44.890,84.41
44.906,91.25
44.921,97.98
44.937,104.03
44.953,108.64
44.968,111.02
44.984,110.72
45.000,107.96
45.015,103.62
45.031,98.98
45.046,95.26
45.062,93.16
45.078,92.62
45.093,92.97
45.109,93.26
45.125,92.71
45.140,90.99
45.156,88.3
45.171,85.23
45.187,82.58
45.203,81.09
45.218,81.23
45.234,83.04
45.250,86.02
45.265,89.22
45.281,91.42
45.296,91.52
45.312,88.82
45.328,83.15
45.343,74.78
45.359,64.16
45.375,51.67
45.390,37.51
45.406,21.86
45.421,5.06
45.437,-12.21
45.453,-28.94
45.468,-44.0
45.484,-56.4
45.500,-65.63
45.515,-71.68
45.531,-75.01
45.546,-76.42
45.562,-76.79
45.578,-76.91
45.593,-77.31
45.609,-78.22
45.625,-79.46
45.640,-80.63
45.656,-81.17
45.671,-80.76
45.687,-79.39
45.703,-77.48
45.718,-75.81
45.734,-75.19
45.750,-76.21
45.765,-78.96
45.781,-82.84
45.796,-86.52
45.812,-88.21
45.828,-85.94
45.843,-78.02
45.859,-63.56
45.875,-42.67
45.890,-16.48
45.906,13.17
45.921,44.16
45.937,74.45
45.953,102.31
45.968,126.4
45.984,145.79
46.000,160.07
46.015,169.42
46.031,174.68
46.046,177.14
46.062,178.15
46.078,178.83
46.093,179.96
46.109,182.03
46.125,185.3
46.140,189.56
46.156,193.68
46.171,195.43
46.187,191.68
46.203,179.27
46.218,156.22
46.234,122.43
46.250,79.63
46.265,30.46
46.281,-22.66
46.296,-77.98
46.312,-133.98
46.328,-188.4
46.343,-237.67
46.359,-277.42
46.375,-304.09
46.390,-316.67
46.406,-317.49
46.421,-311.37
46.437,-303.37
46.453,-296.51
46.468,-290.57
46.484,-282.55
46.500,-268.68
46.515,-246.6
46.531,-216.67
46.546,-181.75
46.562,-145.84
46.578,-112.33
46.593,-83.0
46.609,-57.9
46.625,-36.25
46.640,-17.28
46.656,-0.97
46.671,12.08
46.687,21.26
46.703,26.44
46.718,28.33
46.734,28.22
46.750,27.48
46.765,27.07
46.781,27.25
46.796,27.7
46.812,27.86
46.828,27.36
46.843,26.23
46.859,24.87
46.875,23.8
46.890,23.32
46.906,23.29
46.921,23.11
46.937,22.06
46.953,19.54
46.968,15.49
46.984,10.37
47.000,5.06
47.015,0.42
47.031,-3.07
47.046,-5.69
47.062,-8.49
47.078,-13.02
47.093,-20.79
47.109,-32.44
47.125,-47.25
47.140,-63.0
47.156,-76.48
47.171,-84.51
47.187,-84.96
47.203,-77.51
47.218,-63.58
47.234,-45.73
47.250,-26.67
47.265,-8.48
47.281,7.73
47.296,21.75
47.312,33.74
47.328,43.86
47.343,52.03
47.359,58.04
47.375,61.74
47.390,63.26
47.406,63.02
47.421,61.6
47.437,59.6
47.453,57.32
47.468,54.87
47.484,52.26
47.500,49.56
47.515,47.11
47.531,45.39
47.546,44.79
47.562,45.32
47.578,46.46
47.593,47.29
47.609,46.87
47.625,44.61
47.640,40.45
47.656,34.84
47.671,28.34
47.687,21.33
47.703,13.8
47.718,5.35
47.734,-4.57
47.750,-16.35
47.765,-30.04
47.781,-45.05
47.796,-60.08
47.812,-73.22
47.828,-82.22
47.843,-85.06
47.859,-80.62
47.875,-69.07
47.890,-51.89
47.906,-31.47
47.921,-10.28
47.937,9.75
47.953,27.6
47.968,42.96
47.984,55.92
48.000,66.52
48.015,74.63
48.031,80.08
48.046,82.87
48.062,83.37
48.078,82.2
48.093,80.09
48.109,77.55
48.125,74.76
48.140,71.66
48.156,68.1
48.171,64.13
48.187,60.06
48.203,56.4
48.218,53.54
48.234,51.65
48.250,50.52
48.265,49.64
48.281,48.47
48.296,46.55
48.312,43.67
48.328,39.93
48.343,35.67
48.359,31.43
48.375,27.81
48.390,25.39
48.406,24.42
48.421,24.81
48.437,25.92
48.453,26.72
48.468,26.0
48.484,22.71
48.500,16.39
48.515,7.57
48.531,-2.09
48.546,-10.0
48.562,-13.22
48.578,-9.34
48.593,2.66
48.609,22.01
48.625,46.34
48.640,72.41
48.656,97.11
48.671,118.15
48.687,134.3
48.703,145.26
48.718,151.22
48.734,152.55
48.750,149.78
48.765,143.61
48.781,134.97
48.796,124.97
48.812,114.66
48.828,104.78
48.843,95.61
48.859,86.98
48.875,78.53
48.890,69.89
48.906,60.95
48.921,51.96
48.937,43.45
48.953,36.01
48.968,29.94
48.984,25.08
49.000,20.75
49.015,16.02
49.031,10.07
49.046,2.52
49.062,-6.46
49.078,-16.21
49.093,-25.91
49.109,-34.95
49.125,-43.07
49.140,-50.36
49.156,-57.08
49.171,-63.45
49.187,-69.53
49.203,-75.21
49.218,-80.24
49.234,-84.21
49.250,-86.36
49.265,-85.5
49.281,-80.04
49.296,-68.35
49.312,-49.3
49.328,-22.78
49.343,10.04
49.359,46.89
49.375,84.83
49.390,120.8
49.406,152.12
49.421,176.69
49.437,193.12
49.453,200.76
49.468,199.66
49.484,190.72
49.500,175.63
49.515,156.77
49.531,136.83
49.546,118.26
49.562,102.68
49.578,90.48
49.593,80.83
49.609,72.31
49.625,63.83
49.640,55.39
49.656,48.19
49.671,43.64
49.687,42.13
49.703,41.91
49.718,39.19
49.734,29.22
49.750,8.14
49.765,-25.46
49.781,-69.83
49.796,-120.45
49.812,-171.24
49.828,-216.18
49.843,-250.64
49.859,-272.21
49.875,-280.96
49.890,-279.09
49.906,-270.22
49.921,-258.29
49.937,-246.46
49.953,-236.31
49.968,-227.45
49.984,-217.85
50.000,-204.5
50.015,-184.49
50.031,-155.92
50.046,-118.7
50.062,-74.67
50.078,-27.26
50.093,19.46
50.109,61.78
50.125,97.4
50.140,125.94
50.156,149.04
50.171,169.79
50.187,191.66
50.203,216.95
50.218,245.47
50.234,273.98
50.250,296.9
50.265,307.95
50.281,302.51
50.296,279.39
50.312,241.39
50.328,194.54
50.343,146.06
50.359,102.35
50.375,67.33
50.390,41.98
50.406,24.89
50.421,13.33
50.437,4.38
50.453,-4.37
50.468,-14.66
50.484,-27.75
50.500,-44.71
50.515,-66.45
50.531,-93.43
50.546,-125.09
50.562,-159.63
50.578,-194.14
50.593,-225.33
50.609,-250.52
50.625,-268.47
50.640,-279.65
50.656,-285.99
50.671,-290.29
50.687,-295.25
50.703,-302.63
50.718,-312.63
50.734,-323.66
50.750,-332.63
50.765,-335.87
50.781,-330.29
50.796,-314.37
50.812,-288.7
50.828,-255.66
50.843,-218.54
50.859,-180.41
50.875,-143.39
50.890,-108.45
50.906,-75.86
50.921,-45.69
50.937,-18.15
50.953,6.36
50.968,27.63
50.984,45.91
51.000,61.97
51.015,76.86
51.031,91.41
51.046,105.86
51.062,119.76
51.078,132.24
51.093,142.41
51.109,149.82
51.125,154.71
51.140,157.84
51.156,160.14
51.171,161.96
51.187,162.65
51.203,160.41
51.218,152.84
51.234,137.82
51.250,114.52
51.265,84.05
51.281,49.23
51.296,13.84
51.312,-18.62
51.328,-45.88
51.343,-67.4
51.359,-84.04
51.375,-97.37
51.390,-108.85
51.406,-119.33
51.421,-128.94
51.437,-137.25
51.453,-143.32
51.468,-145.89
51.484,-143.39
51.500,-134.32
51.515,-117.73
51.531,-93.84
51.546,-64.34
51.562,-32.16
51.578,-0.76
51.593,26.91
51.609,49.11
51.625,65.63
51.640,77.44
51.656,85.93
51.671,92.29
51.687,97.1
51.703,100.34
51.718,101.71
51.734,101.01
51.750,98.33
51.765,94.09
51.781,88.93
51.796,83.43
51.812,77.97
51.828,72.82
51.843,68.16
51.859,64.27
51.875,61.53
51.890,60.28
51.906,60.6
51.921,62.09
51.937,63.9
51.953,64.92
51.968,64.11
51.984,60.79
52.000,54.91
52.015,47.0
52.031,37.92
52.046,28.63
52.062,19.86
52.078,11.93
52.093,4.71
52.109,-2.22
52.125,-9.48
52.140,-17.59
52.156,-26.76
52.171,-36.78
52.187,-46.82
52.203,-55.67
52.218,-61.89
52.234,-64.3
52.250,-62.29
52.265,-56.08
52.281,-46.69
52.296,-35.63
52.312,-24.5
52.328,-14.53
52.343,-6.38
52.359,-0.17
52.375,4.37
52.390,7.61
52.406,9.93
52.421,11.7
52.437,13.24
52.453,14.88
52.468,16.81
52.484,19.02
52.500,21.2
52.515,22.86
52.531,23.51
52.546,22.92
52.562,21.18
52.578,18.76
52.593,16.2
52.609,13.93
52.625,12.02
52.640,10.15
52.656,7.74
52.671,4.16
52.687,-1.04
52.703,-7.95
52.718,-16.2
52.734,-25.1
52.750,-33.74
52.765,-41.35
52.781,-47.42
52.796,-51.9
52.812,-55.17
52.828,-57.96
52.843,-61.12
52.859,-65.37
52.875,-70.97
52.890,-77.44
52.906,-83.49
52.921,-87.22
52.937,-86.7
52.953,-80.62
52.968,-68.85
52.984,-52.51
53.000,-33.58
53.015,-14.24
53.031,3.88
53.046,19.93
53.062,33.84
53.078,45.82
53.093,55.93
53.109,63.91
53.125,69.33
53.140,71.99
53.156,72.24
53.171,71.02
53.187,69.48
53.203,68.47
53.218,68.24
53.234,68.34
53.250,67.99
53.265,66.6
53.281,64.11
53.296,61.0
53.312,57.99
53.328,55.42
53.343,53.07
53.359,50.19
53.375,45.8
53.390,39.3
53.406,30.75
53.421,20.95
53.437,11.02
53.453,2.0
53.468,-5.6
53.484,-12.0
53.500,-18.0
53.515,-24.61
53.531,-32.66
53.546,-42.46
53.562,-53.72
53.578,-65.61
53.593,-76.91
53.609,-86.16
53.625,-91.76
53.640,-92.24
53.656,-86.5
53.671,-74.16
53.687,-55.86
53.703,-33.11
53.718,-8.0
53.734,17.42
53.750,41.67
53.765,63.92
53.781,83.79
53.796,100.84
53.812,114.25
53.828,122.85
53.843,125.71
53.859,122.76
53.875,115.2
53.890,105.36
53.906,95.96
53.921,89.23
53.937,86.31
53.953,87.08
53.968,90.45
53.984,94.96
54.000,99.22
54.015,102.12
54.031,102.78
54.046,100.47
54.062,94.72
54.078,85.34
54.093,72.66
54.109,57.39
54.125,40.48
54.140,22.8
54.156,4.87
54.171,-13.2
54.187,-31.6
54.203,-50.5
54.218,-69.81
54.234,-88.92
54.250,-106.73
54.265,-121.82
54.281,-132.78
54.296,-138.53
54.312,-138.63
54.328,-133.4
54.343,-123.87
54.359,-111.56
54.375,-98.16
54.390,-85.2
54.406,-73.75
54.421,-64.3
54.437,-56.8
54.453,-50.87
54.468,-46.05
54.484,-41.96
54.500,-38.46
54.515,-35.53
54.531,-33.15
54.546,-31.14
54.562,-29.09
54.578,-26.44
54.593,-22.71
54.609,-17.76
54.625,-11.88
54.640,-5.71
54.656,-0.01
54.671,4.67
54.687,8.21
54.703,10.89
54.718,13.17
54.734,15.41
54.750,17.65
54.765,19.57
54.781,20.67
54.796,20.55
54.812,19.13
54.828,16.75
54.843,14.08
54.859,11.91
54.875,10.8
54.890,10.97
54.906,12.11
54.921,13.49
54.937,14.14
54.953,13.12
54.968,9.89
54.984,4.6
55.000,-1.65
55.015,-6.87
55.031,-8.53
55.046,-4.16
55.062,7.76
55.078,27.12
55.093,51.83
55.109,78.24
55.125,102.07
55.140,119.69
55.156,129.16
55.171,130.68
55.187,126.28
55.203,118.8
55.218,110.7
55.234,103.12
55.250,95.77
55.265,87.4
55.281,76.89
55.296,64.1
55.312,50.21
55.328,37.2
55.343,26.94
55.359,20.29
55.375,16.81
55.390,15.21
55.406,14.11
55.421,12.74
55.437,11.02
55.453,9.1
55.468,6.79
55.484,3.2
55.500,-2.89
55.515,-12.35
55.531,-25.11
55.546,-39.94
55.562,-54.86
55.578,-67.92
55.593,-77.91
55.609,-84.86
55.625,-89.84
55.640,-94.41
55.656,-99.82
55.671,-106.3
55.687,-112.72
55.703,-116.89
55.718,-116.29
55.734,-109.15
55.750,-95.05
55.765,-75.27
55.781,-52.29
55.796,-28.99
55.812,-7.82
55.828,9.67
55.843,22.9
55.859,31.99
55.875,37.3
55.890,39.23
55.906,38.14
55.921,34.43
55.937,28.62
55.953,21.38
55.968,13.49
55.984,5.76
56.000,-1.0
56.015,-6.18
56.031,-9.3
56.046,-10.14
56.062,-8.73
56.078,-5.26
56.093,0.05
56.109,7.03
56.125,15.57
56.140,25.37
56.156,35.71
56.171,45.23
56.187,51.96
56.203,53.79
56.218,49.09
56.234,37.16
56.250,18.45
56.265,-5.68
56.281,-33.22
56.296,-61.63
56.312,-87.79
56.328,-108.1
56.343,-118.95
56.359,-117.68
56.375,-103.65
56.390,-78.86
56.406,-47.66
56.421,-15.48
56.437,12.65
56.453,33.43
56.468,45.66
56.484,50.0
56.500,48.27
56.515,42.75
56.531,35.76
56.546,29.38
56.562,25.24
56.578,24.29
56.593,26.74
56.609,32.13
56.625,39.7
56.640,48.67
56.656,58.36
56.671,68.24
56.687,77.97
56.703,87.57
56.718,97.63
56.734,109.21
56.750,123.36
56.765,140.18
56.781,157.88
56.796,172.71
56.812,179.88
56.828,175.19
56.843,156.74
56.859,125.71
56.875,85.86
56.890,41.93
56.906,-2.03
56.921,-43.62
56.937,-81.75
56.953,-115.55
56.968,-143.31
56.984,-162.4
57.000,-170.32
57.015,-166.11
57.031,-151.21
57.046,-129.34
57.062,-105.25
57.078,-83.25
57.093,-66.15
57.109,-55.05
57.125,-49.73
57.140,-49.37
57.156,-53.01
57.171,-59.64
57.187,-68.14
57.203,-77.28
57.218,-86.02
57.234,-93.83
57.250,-100.71
57.265,-106.89
57.281,-112.39
57.296,-116.78
57.312,-119.38
57.328,-119.72
57.343,-117.99
57.359,-115.28
57.375,-113.24
57.390,-113.46
57.406,-116.8
57.421,-122.86
57.437,-129.98
57.453,-135.67
57.468,-137.33
57.484,-133.07
57.500,-122.45
57.515,-106.99
57.531,-90.12
57.546,-76.39
57.562,-70.04
57.578,-73.34
57.593,-85.39
57.609,-102.26
57.625,-118.23
57.640,-127.76
57.656,-127.33
57.671,-116.17
57.687,-95.98
57.703,-69.88
57.718,-41.33
57.734,-13.53
57.750,10.78
57.765,29.28
57.781,40.26
57.796,43.04
57.812,38.28
57.828,28.05
57.843,15.29
57.859,3.08
57.875,-6.2
57.890,-11.28
57.906,-12.18
57.921,-9.87
57.937,-5.91
57.953,-1.84
57.968,1.2
57.984,2.75
58.000,2.99
58.015,2.54
58.031,2.07
58.046,1.99
58.062,2.25
58.078,2.35
58.093,1.51
58.109,-1.09
58.125,-6.13
58.140,-14.1
58.156,-25.21
58.171,-39.3
58.187,-55.66
58.203,-72.92
58.218,-89.06
58.234,-101.68
58.250,-108.68
58.265,-108.85
58.281,-102.35
58.296,-90.67
58.312,-76.09
58.328,-60.79
58.343,-46.27
58.359,-33.07
58.375,-21.12
58.390,-10.25
58.406,-0.68
58.421,6.98
58.437,12.08
58.453,14.34
58.468,14.13
58.484,12.37
58.500,10.15
58.515,8.36
58.531,7.49
58.546,7.65
58.562,8.85
58.578,11.08
58.593,14.39
58.609,18.71
58.625,23.83
58.640,29.26
58.656,34.38
58.671,38.61
58.687,41.6
58.703,43.28
58.718,43.83
58.734,43.62
58.750,43.03
58.765,42.37
58.781,41.82
58.796,41.36
58.812,40.74
58.828,39.47
58.843,37.0
58.859,32.99
58.875,27.76
58.890,22.56
58.906,19.62
58.921,21.53
58.937,30.59
58.953,47.98
58.968,73.35
58.984,104.97
59.000,140.31
59.015,176.64
59.031,211.33
59.046,241.98
59.062,266.24
59.078,281.94
59.093,287.48
59.109,282.35
59.125,267.56
59.140,245.48
59.156,219.12
59.171,191.19
59.187,163.54
59.203,137.02
59.218,111.95
59.234,88.74
59.250,68.21
59.265,51.42
59.281,39.08
59.296,31.08
59.312,26.3
59.328,22.95
59.343,19.17
59.359,13.68
59.375,6.06
59.390,-3.39
59.406,-14.02
59.421,-25.13
59.437,-36.32
59.453,-47.48
59.468,-58.77
59.484,-70.47
59.500,-82.89
59.515,-96.24
59.531,-110.42
59.546,-124.99
59.562,-138.9
59.578,-150.66
59.593,-158.5
59.609,-160.87
59.625,-156.75
59.640,-145.96
59.656,-129.18
59.671,-107.79
59.687,-83.54
59.703,-58.22
59.718,-33.43
59.734,-10.45
59.750,9.79
59.765,26.75
59.781,40.25
59.796,50.5
59.812,58.13
59.828,64.04
59.843,69.27
59.859,74.73
59.875,80.99
59.890,88.06
59.906,95.47
59.921,102.31
59.937,107.57
59.953,110.31
59.968,109.92
59.984,106.21
