timestamp,value
00.000,-36.85
00.015,-35.48
00.031,-34.92
00.046,-35.12
00.062,-36.07
00.078,-37.69
00.093,-39.67
00.109,-41.25
00.125,-41.31
00.140,-38.48
00.156,-31.52
00.171,-19.74
00.187,-3.31
00.203,16.66
00.218,38.36
00.234,59.73
00.250,78.99
00.265,95.11
00.281,107.92
00.296,118.06
00.312,126.51
00.328,134.24
00.343,141.79
00.359,149.23
00.375,156.28
00.390,162.66
00.406,168.26
00.421,173.31
00.437,178.24
00.453,183.5
00.468,189.42
00.484,196.38
00.500,204.78
00.515,214.97
00.531,226.83
00.546,239.13
00.562,249.29
00.578,253.74
00.593,249.03
00.609,233.13
00.625,206.36
00.640,171.3
00.656,131.72
00.671,91.19
00.687,52.07
00.703,15.48
00.718,-18.13
00.734,-48.12
00.750,-73.41
00.765,-92.79
00.781,-105.7
00.796,-112.67
00.812,-115.38
00.828,-116.01
00.843,-116.61
00.859,-118.49
00.875,-122.18
00.890,-127.49
00.906,-133.76
00.921,-139.99
00.937,-144.93
00.953,-147.21
00.968,-145.61
00.984,-139.42
01.000,-128.71
01.015,-114.35
01.031,-97.82
01.046,-80.87
01.062,-65.07
01.078,-51.47
01.093,-40.58
01.109,-32.32
01.125,-26.28
01.140,-21.97
01.156,-18.94
01.171,-16.92
01.187,-15.73
01.203,-15.33
01.218,-15.65
01.234,-16.63
01.250,-18.15
01.265,-20.07
01.281,-22.19
01.296,-24.35
01.312,-26.48
01.328,-28.65
01.343,-31.05
01.359,-33.9
01.375,-37.26
01.390,-40.94
01.406,-44.42
01.421,-47.06
01.437,-48.33
01.453,-48.0
01.468,-46.24
01.484,-43.5
01.500,-40.36
01.515,-37.32
01.531,-34.69
01.546,-32.62
01.562,-31.14
01.578,-30.21
01.593,-29.8
01.609,-29.84
01.625,-30.38
01.640,-31.68
01.656,-34.2
01.671,-38.64
01.687,-45.67
01.703,-55.61
01.718,-68.0
01.734,-81.49
01.750,-93.85
01.765,-102.52
01.781,-105.27
01.796,-100.93
01.812,-89.75
01.828,-73.36
01.843,-54.23
01.859,-34.98
01.875,-17.7
01.890,-3.62
01.906,6.92
01.921,14.22
01.937,18.94
01.953,21.85
01.968,23.81
01.984,25.63
02.000,28.08
02.015,31.73
02.031,36.87
02.046,43.36
02.062,50.73
02.078,58.37
02.093,65.72
02.109,72.48
02.125,78.64
02.140,84.33
02.156,89.68
02.171,94.63
02.187,98.98
02.203,102.42
02.218,104.73
02.234,105.79
02.250,105.7
02.265,104.59
02.281,102.65
02.296,100.02
02.312,96.79
02.328,92.96
02.343,88.53
02.359,83.52
02.375,77.93
02.390,71.83
02.406,65.3
02.421,58.4
02.437,51.04
02.453,43.08
02.468,34.31
02.484,24.63
02.500,14.29
02.515,3.97
02.531,-5.29
02.546,-12.26
02.562,-15.96
02.578,-16.05
02.593,-13.08
02.609,-8.43
02.625,-4.03
02.640,-1.7
02.656,-2.68
02.671,-7.22
02.687,-14.68
02.703,-23.88
02.718,-33.6
02.734,-42.87
02.750,-50.98
02.765,-57.45
02.781,-61.79
02.796,-63.56
02.812,-62.42
02.828,-58.42
02.843,-51.99
02.859,-43.98
02.875,-35.43
02.890,-27.35
02.906,-20.54
02.921,-15.48
02.937,-12.35
02.953,-11.01
02.968,-11.11
02.984,-12.2
03.000,-13.73
03.015,-15.28
03.031,-16.54
03.046,-17.38
03.062,-17.88
03.078,-18.25
03.093,-18.77
03.109,-19.68
03.125,-21.07
03.140,-22.9
03.156,-25.05
03.171,-27.42
03.187,-30.02
03.203,-33.02
03.218,-36.73
03.234,-41.42
03.250,-47.21
03.265,-53.87
03.281,-60.75
03.296,-66.85
03.312,-70.94
03.328,-71.95
03.343,-69.12
03.359,-62.33
03.375,-52.06
03.390,-39.26
03.406,-25.1
03.421,-10.69
03.437,3.11
03.453,15.65
03.468,26.49
03.484,35.25
03.500,41.66
03.515,45.69
03.531,47.63
03.546,48.12
03.562,48.08
03.578,48.39
03.593,49.69
03.609,52.21
03.625,55.83
03.640,60.16
03.656,64.77
03.671,69.3
03.687,73.53
03.703,77.35
03.718,80.72
03.734,83.65
03.750,86.1
03.765,87.9
03.781,88.74
03.796,88.25
03.812,86.17
03.828,82.53
03.843,77.67
03.859,72.16
03.875,66.55
03.890,61.08
03.906,55.58
03.921,49.48
03.937,42.15
03.953,33.14
03.968,22.42
03.984,10.41
04.000,-2.05
04.015,-13.83
04.031,-23.66
04.046,-30.3
04.062,-32.78
04.078,-30.55
04.093,-23.66
04.109,-12.79
04.125,0.94
04.140,16.27
04.156,32.04
04.171,47.29
04.187,61.31
04.203,73.47
04.218,83.23
04.234,90.23
04.250,94.41
04.265,96.15
04.281,96.2
04.296,95.47
04.312,94.72
04.328,94.41
04.343,94.67
04.359,95.44
04.375,96.66
04.390,98.41
04.406,101.0
04.421,104.73
04.437,109.91
04.453,116.65
04.468,124.87
04.484,134.31
04.500,144.6
04.515,155.32
04.531,166.08
04.546,176.61
04.562,186.75
04.578,196.36
04.593,205.18
04.609,212.66
04.625,217.82
04.640,219.37
04.656,216.05
04.671,207.08
04.687,192.54
04.703,173.51
04.718,151.69
04.734,128.97
04.750,106.87
04.765,86.26
04.781,67.47
04.796,50.68
04.812,36.09
04.828,24.07
04.843,14.83
04.859,8.1
04.875,2.98
04.890,-1.95
04.906,-8.21
04.921,-16.94
04.937,-28.59
04.953,-42.79
04.968,-58.54
04.984,-74.44
05.000,-89.13
05.015,-101.46
05.031,-110.71
05.046,-116.53
05.062,-118.94
05.078,-118.31
05.093,-115.56
05.109,-112.11
05.125,-109.64
05.140,-109.6
05.156,-112.58
05.171,-117.89
05.187,-123.8
05.203,-128.22
05.218,-129.56
05.234,-127.3
05.250,-121.99
05.265,-114.77
05.281,-106.93
05.296,-99.66
05.312,-94.08
05.328,-91.28
05.343,-92.15
05.359,-97.01
05.375,-105.28
05.390,-115.47
05.406,-125.51
05.421,-133.26
05.437,-136.96
05.453,-135.47
05.468,-128.35
05.484,-115.99
05.500,-99.68
05.515,-81.45
05.531,-63.73
05.546,-48.69
05.562,-37.71
05.578,-31.04
05.593,-27.98
05.609,-27.29
05.625,-27.65
05.640,-27.95
05.656,-27.52
05.671,-26.13
05.687,-24.04
05.703,-21.87
05.718,-20.38
05.734,-20.03
05.750,-20.81
05.765,-22.07
05.781,-22.86
05.796,-22.27
05.812,-19.79
05.828,-15.44
05.843,-9.84
05.859,-3.97
05.875,0.93
05.890,3.66
05.906,3.48
05.921,0.38
05.937,-4.75
05.953,-10.36
05.968,-14.84
05.984,-17.37
06.000,-18.38
06.015,-19.44
06.031,-22.59
06.046,-29.24
06.062,-39.48
06.078,-51.95
06.093,-64.46
06.109,-74.85
06.125,-81.94
06.140,-85.7
06.156,-87.1
06.171,-87.55
06.187,-88.31
06.203,-90.24
06.218,-93.54
06.234,-97.65
06.250,-101.09
06.265,-101.47
06.281,-96.17
06.296,-83.44
06.312,-63.87
06.328,-40.97
06.343,-20.49
06.359,-8.44
06.375,-8.66
06.390,-21.13
06.406,-42.01
06.421,-65.36
06.437,-85.58
06.453,-99.42
06.468,-106.46
06.484,-108.31
06.500,-107.12
06.515,-104.47
06.531,-101.01
06.546,-96.98
06.562,-92.75
06.578,-89.12
06.593,-87.08
06.609,-87.28
06.625,-89.64
06.640,-93.26
06.656,-96.74
06.671,-98.67
06.687,-98.02
06.703,-94.35
06.718,-87.74
06.734,-78.5
06.750,-67.03
06.765,-53.59
06.781,-38.38
06.796,-21.67
06.812,-3.93
06.828,14.02
06.843,31.1
06.859,46.18
06.875,58.39
06.890,67.35
06.906,73.24
06.921,76.68
06.937,78.36
06.953,78.84
06.968,78.3
06.984,76.64
07.000,73.61
07.015,69.06
07.031,63.14
07.046,56.37
07.062,49.55
07.078,43.49
07.093,38.85
07.109,35.87
07.125,34.34
07.140,33.65
07.156,33.06
07.171,31.86
07.187,29.58
07.203,26.09
07.218,21.43
07.234,15.82
07.250,9.42
07.265,2.28
07.281,-5.74
07.296,-14.93
07.312,-25.64
07.328,-38.0
07.343,-51.58
07.359,-65.25
07.375,-77.13
07.390,-85.1
07.406,-87.33
07.421,-82.98
07.437,-72.43
07.453,-57.26
07.468,-39.65
07.484,-21.76
07.500,-5.24
07.515,9.01
07.531,20.71
07.546,29.94
07.562,36.97
07.578,42.14
07.593,45.82
07.609,48.43
07.625,50.42
07.640,52.09
07.656,53.65
07.671,55.14
07.687,56.54
07.703,57.83
07.718,59.05
07.734,60.29
07.750,61.54
07.765,62.65
07.781,63.19
07.796,62.55
07.812,60.11
07.828,55.43
07.843,48.45
07.859,39.59
07.875,29.55
07.890,19.2
07.906,9.24
07.921,-0.07
07.937,-8.88
07.953,-17.74
07.968,-27.21
07.984,-37.61
08.000,-48.73
08.015,-59.92
08.031,-70.21
08.046,-78.84
08.062,-85.54
08.078,-90.58
08.093,-94.47
08.109,-97.38
08.125,-98.72
08.140,-97.04
08.156,-90.59
08.171,-78.26
08.187,-60.38
08.203,-39.01
08.218,-17.56
08.234,0.23
08.250,11.59
08.265,15.52
08.281,13.16
08.296,7.68
08.312,3.56
08.328,5.68
08.343,17.43
08.359,38.96
08.375,65.86
08.390,89.51
08.406,99.14
08.421,85.18
08.437,42.82
08.453,-25.69
08.468,-110.99
08.484,-199.08
08.500,-275.12
08.515,-327.61
08.531,-350.93
08.546,-346.0
08.562,-318.68
08.578,-277.13
08.593,-229.04
08.609,-179.81
08.625,-132.05
08.640,-86.15
08.656,-41.53
08.671,2.03
08.687,43.63
08.703,81.54
08.718,113.58
08.734,137.95
08.750,153.84
08.765,161.64
08.781,162.91
08.796,159.96
08.812,155.1
08.828,150.29
08.843,146.9
08.859,145.8
08.875,147.51
08.890,152.14
08.906,159.15
08.921,167.19
08.937,174.18
08.953,177.91
08.968,176.84
08.984,170.71
09.000,160.71
09.015,149.02
09.031,138.02
09.046,129.39
09.062,123.56
09.078,119.77
09.093,116.48
09.109,112.28
09.125,106.46
09.140,99.36
09.156,92.08
09.171,85.83
09.187,81.34
09.203,78.53
09.218,76.58
09.234,74.3
09.250,70.73
09.265,65.41
09.281,58.55
09.296,50.85
09.312,43.26
09.328,36.59
09.343,31.3
09.359,27.39
09.375,24.42
09.390,21.75
09.406,18.83
09.421,15.47
09.437,11.86
09.453,8.49
09.468,5.9
09.484,4.45
09.500,4.17
09.515,4.77
09.531,5.78
09.546,6.75
09.562,7.33
09.578,7.39
09.593,6.93
09.609,6.18
09.625,5.54
09.640,5.48
09.656,6.48
09.671,8.79
09.687,12.28
09.703,16.37
09.718,20.04
09.734,22.2
09.750,22.03
09.765,19.27
09.781,14.4
09.796,8.39
09.812,2.35
09.828,-2.82
09.843,-6.68
09.859,-9.24
09.875,-10.71
09.890,-11.27
09.906,-10.94
09.921,-9.54
09.937,-6.88
09.953,-2.94
09.968,1.89
09.984,6.91
10.000,11.06
10.015,13.29
10.031,12.84
10.046,9.47
10.062,3.56
10.078,-4.08
10.093,-12.58
10.109,-21.33
10.125,-30.17
10.140,-39.27
10.156,-48.71
10.171,-58.22
10.187,-66.97
10.203,-73.77
10.218,-77.46
10.234,-77.25
10.250,-72.99
10.265,-65.02
10.281,-54.07
10.296,-41.0
10.312,-26.76
10.328,-12.44
10.343,0.75
10.359,11.57
10.375,19.13
10.390,23.11
10.406,23.9
10.421,22.45
10.437,19.92
10.453,17.26
10.468,14.97
10.484,13.07
10.500,11.34
10.515,9.52
10.531,7.57
10.546,5.66
10.562,4.13
10.578,3.29
10.593,3.29
10.609,4.15
10.625,5.74
10.640,7.96
10.656,10.73
10.671,14.04
10.687,17.74
10.703,21.47
10.718,24.65
10.734,26.61
10.750,26.87
10.765,25.27
10.781,22.07
10.796,17.69
10.812,12.42
10.828,6.21
10.843,-1.4
10.859,-11.0
10.875,-22.91
10.890,-36.83
10.906,-51.72
10.921,-65.9
10.937,-77.45
10.953,-84.71
10.968,-86.64
10.984,-83.13
11.000,-74.86
11.015,-63.13
11.031,-49.42
11.046,-35.03
11.062,-20.92
11.078,-7.65
11.093,4.44
11.109,15.06
11.125,23.82
11.140,30.37
11.156,34.54
11.171,36.56
11.187,37.12
11.203,37.21
11.218,37.82
11.234,39.58
11.250,42.62
11.265,46.6
11.281,50.84
11.296,54.66
11.312,57.57
11.328,59.37
11.343,60.12
11.359,60.09
11.375,59.68
11.390,59.23
11.406,59.0
11.421,59.02
11.437,59.14
11.453,59.08
11.468,58.59
11.484,57.53
11.500,55.89
11.515,53.77
11.531,51.28
11.546,48.53
11.562,45.56
11.578,42.37
11.593,38.88
11.609,34.94
11.625,30.38
11.640,25.17
11.656,19.48
11.671,13.72
11.687,8.47
11.703,4.24
11.718,1.29
11.734,-0.45
11.750,-1.24
11.765,-1.38
11.781,-0.97
11.796,0.07
11.812,1.85
11.828,4.41
11.843,7.53
11.859,10.82
11.875,13.85
11.890,16.36
11.906,18.32
11.921,19.92
11.937,21.44
11.953,23.05
11.968,24.69
11.984,26.11
12.000,26.89
12.015,26.6
12.031,24.86
12.046,21.38
12.062,15.91
12.078,8.28
12.093,-1.51
12.109,-13.24
12.125,-26.31
12.140,-39.86
12.156,-52.98
12.171,-64.93
12.187,-75.36
12.203,-84.23
12.218,-91.56
12.234,-97.13
12.250,-100.39
12.265,-100.52
12.281,-96.94
12.296,-89.69
12.312,-79.64
12.328,-68.36
12.343,-57.62
12.359,-48.85
12.375,-42.74
12.390,-39.15
12.406,-37.34
12.421,-36.42
12.437,-35.73
12.453,-35.01
12.468,-34.41
12.484,-34.25
12.500,-34.73
12.515,-35.8
12.531,-37.1
12.546,-38.14
12.562,-38.57
12.578,-38.36
12.593,-37.88
12.609,-37.68
12.625,-38.28
12.640,-39.85
12.656,-42.28
12.671,-45.13
12.687,-47.88
12.703,-50.01
12.718,-51.04
12.734,-50.52
12.750,-48.08
12.765,-43.51
12.781,-36.99
12.796,-29.15
12.812,-20.99
12.828,-13.56
12.843,-7.79
12.859,-4.17
12.875,-2.87
12.890,-3.85
12.906,-6.92
12.921,-11.72
12.937,-17.62
12.953,-23.63
12.968,-28.4
12.984,-30.62
13.000,-29.33
13.015,-24.19
13.031,-15.57
13.046,-4.42
13.062,8.08
13.078,20.72
13.093,32.45
13.109,42.48
13.125,50.3
13.140,55.59
13.156,58.34
13.171,58.68
13.187,56.91
13.203,53.42
13.218,48.62
13.234,43.01
13.250,37.09
13.265,31.43
13.281,26.59
13.296,23.02
13.312,20.97
13.328,20.46
13.343,21.27
13.359,23.06
13.375,25.48
13.390,28.27
13.406,31.31
13.421,34.57
13.437,38.03
13.453,41.59
13.468,45.05
13.484,48.03
13.500,49.99
13.515,50.27
13.531,48.26
13.546,43.6
13.562,36.41
13.578,27.46
13.593,17.94
13.609,9.32
13.625,2.84
13.640,-0.74
13.656,-1.4
13.671,0.02
13.687,1.85
13.703,1.91
13.718,-1.83
13.734,-10.53
13.750,-23.73
13.765,-39.35
13.781,-54.31
13.796,-65.65
13.812,-71.67
13.828,-72.35
13.843,-68.93
13.859,-63.05
13.875,-56.06
13.890,-48.83
13.906,-42.03
13.921,-36.51
13.937,-33.16
13.953,-32.5
13.968,-34.15
13.984,-36.79
14.000,-38.67
14.015,-38.47
14.031,-35.9
14.046,-31.73
14.062,-27.26
14.078,-23.5
14.093,-20.79
14.109,-18.73
14.125,-16.53
14.140,-13.52
14.156,-9.35
14.171,-4.02
14.187,2.13
14.203,8.63
14.218,14.94
14.234,20.51
14.250,24.82
14.265,27.58
14.281,28.7
14.296,28.5
14.312,27.47
14.328,26.19
14.343,25.02
14.359,23.87
14.375,22.15
14.390,18.94
14.406,13.34
14.421,4.87
14.437,-6.29
14.453,-19.27
14.468,-32.77
14.484,-45.3
14.500,-55.42
14.515,-61.85
14.531,-63.5
14.546,-59.65
14.562,-50.1
14.578,-35.39
14.593,-16.92
14.609,3.36
14.625,23.21
14.640,40.65
14.656,54.29
14.671,63.5
14.687,68.35
14.703,69.45
14.718,67.69
14.734,63.99
14.750,59.11
14.765,53.61
14.781,47.82
14.796,41.87
14.812,35.79
14.828,29.5
14.843,22.92
14.859,16.01
14.875,8.92
14.890,2.06
14.906,-3.88
14.921,-8.12
14.937,-10.08
14.953,-9.7
14.968,-7.5
14.984,-4.49
15.000,-1.77
15.015,-0.13
15.031,0.22
15.046,-0.42
15.062,-1.3
15.078,-1.66
15.093,-0.84
15.109,1.43
15.125,5.05
15.140,9.54
15.156,14.21
15.171,18.36
15.187,21.5
15.203,23.57
15.218,24.96
15.234,26.37
15.250,28.58
15.265,32.16
15.281,37.22
15.296,43.39
15.312,49.94
15.328,56.03
15.343,60.98
15.359,64.56
15.375,67.03
15.390,69.06
15.406,71.51
15.421,75.18
15.437,80.57
15.453,87.77
15.468,96.45
15.484,105.97
15.500,115.6
15.515,124.86
15.531,133.76
15.546,142.81
15.562,152.52
15.578,162.76
15.593,172.05
15.609,177.49
15.625,175.42
15.640,162.75
15.656,138.09
15.671,102.2
15.687,57.54
15.703,7.27
15.718,-45.4
15.734,-97.45
15.750,-145.69
15.765,-186.44
15.781,-216.0
15.796,-231.53
15.812,-232.23
15.828,-219.86
15.843,-198.24
15.859,-172.06
15.875,-145.35
15.890,-120.65
15.906,-98.81
15.921,-79.56
15.937,-62.13
15.953,-45.85
15.968,-30.24
15.984,-15.02
16.000,-0.15
16.015,13.98
16.031,26.35
16.046,35.36
16.062,39.15
16.078,36.3
16.093,26.44
16.109,10.69
16.125,-8.64
16.140,-28.58
16.156,-46.41
16.171,-60.21
16.187,-69.0
16.203,-72.55
16.218,-70.96
16.234,-64.58
16.250,-54.1
16.265,-40.67
16.281,-25.95
16.296,-11.85
16.312,-0.06
16.328,8.31
16.343,12.9
16.359,14.04
16.375,12.45
16.390,9.01
16.406,4.64
16.421,0.25
16.437,-3.29
16.453,-5.29
16.468,-5.4
16.484,-3.66
16.500,-0.52
16.515,3.42
16.531,7.55
16.546,11.39
16.562,14.46
16.578,16.26
16.593,16.23
16.609,13.95
16.625,9.44
16.640,3.5
16.656,-2.3
16.671,-5.91
16.687,-5.32
16.703,0.66
16.718,11.89
16.734,26.65
16.750,41.91
16.765,54.07
16.781,60.13
16.796,58.83
16.812,51.19
16.828,40.23
16.843,29.8
16.859,23.08
16.875,21.34
16.890,23.68
16.906,27.62
16.921,30.39
16.937,30.25
16.953,27.03
16.968,21.84
16.984,16.18
17.000,10.89
17.015,5.6
17.031,-1.02
17.046,-10.42
17.062,-23.27
17.078,-38.86
17.093,-55.27
17.109,-70.14
17.125,-81.72
17.140,-89.48
17.156,-94.06
17.171,-96.65
17.187,-98.06
17.203,-98.36
17.218,-96.99
17.234,-93.51
17.250,-88.15
17.265,-82.03
17.281,-76.53
17.296,-72.48
17.312,-69.43
17.328,-65.68
17.343,-59.14
17.359,-48.55
17.375,-34.46
17.390,-19.26
17.406,-6.33
17.421,1.48
17.437,3.09
17.453,-0.29
17.468,-5.86
17.484,-10.46
17.500,-11.92
17.515,-9.72
17.531,-4.88
17.546,0.82
17.562,5.76
17.578,9.08
17.593,10.75
17.609,11.24
17.625,11.09
17.640,10.68
17.656,10.18
17.671,9.77
17.687,9.67
17.703,10.19
17.718,11.6
17.734,13.95
17.750,17.01
17.765,20.38
17.781,23.68
17.796,26.71
17.812,29.43
17.828,31.77
17.843,33.33
17.859,33.38
17.875,30.99
17.890,25.49
17.906,16.81
17.921,5.68
17.937,-6.65
17.953,-18.85
17.968,-29.88
17.984,-39.09
18.000,-46.05
18.015,-50.3
18.031,-51.29
18.046,-48.56
18.062,-42.13
18.078,-32.62
18.093,-21.29
18.109,-9.71
18.125,0.56
18.140,8.24
18.156,12.51
18.171,13.04
18.187,10.16
18.203,4.82
18.218,-1.5
18.234,-7.17
18.250,-10.95
18.265,-12.51
18.281,-12.35
18.296,-11.51
18.312,-10.83
18.328,-10.52
18.343,-10.19
18.359,-9.28
18.375,-7.61
18.390,-5.64
18.406,-4.38
18.421,-4.75
18.437,-7.22
18.453,-11.68
18.468,-17.6
18.484,-24.52
18.500,-32.25
18.515,-40.84
18.531,-50.29
18.546,-60.32
18.562,-70.35
18.578,-79.73
18.593,-87.95
18.609,-94.83
18.625,-100.44
18.640,-104.75
18.656,-107.44
18.671,-107.83
18.687,-105.09
18.703,-98.63
18.718,-88.42
18.734,-75.1
18.750,-59.82
18.765,-43.91
18.781,-28.46
18.796,-14.12
18.812,-1.14
18.828,10.52
18.843,20.94
18.859,30.13
18.875,38.1
18.890,44.76
18.906,49.99
18.921,53.53
18.937,55.06
18.953,54.3
18.968,51.21
18.984,46.13
19.000,39.81
19.015,33.2
19.031,27.15
19.046,22.09
19.062,17.99
19.078,14.46
19.093,10.95
19.109,6.99
19.125,2.26
19.140,-3.43
19.156,-10.06
19.171,-17.44
19.187,-25.2
19.203,-32.82
19.218,-39.87
19.234,-46.21
19.250,-52.1
19.265,-58.22
19.281,-65.26
19.296,-73.51
19.312,-82.52
19.328,-90.95
19.343,-96.92
19.359,-98.57
19.375,-94.69
19.390,-85.15
19.406,-70.97
19.421,-53.96
19.437,-36.16
19.453,-19.32
19.468,-4.53
19.484,7.84
19.500,17.88
19.515,25.87
19.531,32.0
19.546,36.32
19.562,38.82
19.578,39.69
19.593,39.38
19.609,38.58
19.625,37.96
19.640,37.99
19.656,38.68
19.671,39.71
19.687,40.59
19.703,40.94
19.718,40.66
19.734,39.88
19.750,38.79
19.765,37.47
19.781,35.73
19.796,33.19
19.812,29.54
19.828,24.7
19.843,18.91
19.859,12.71
19.875,6.64
19.890,1.03
19.906,-4.12
19.921,-9.17
19.937,-14.68
19.953,-21.22
19.968,-29.16
19.984,-38.6
20.000,-49.2
20.015,-60.12
20.031,-70.02
20.046,-77.17
20.062,-79.95
20.078,-77.17
20.093,-68.6
20.109,-55.07
20.125,-38.22
20.140,-20.09
20.156,-2.5
20.171,13.38
20.187,27.0
20.203,38.32
20.218,47.5
20.234,54.67
20.250,59.93
20.265,63.47
20.281,65.66
20.296,67.0
20.312,67.98
20.328,68.91
20.343,69.86
20.359,70.76
20.375,71.56
20.390,72.31
20.406,73.15
20.421,74.15
20.437,75.17
20.453,75.8
20.468,75.47
20.484,73.65
20.500,70.1
20.515,64.92
20.531,58.53
20.546,51.61
20.562,44.77
20.578,38.46
20.593,32.84
20.609,27.71
20.625,22.75
20.640,17.71
20.656,12.61
20.671,7.84
20.687,3.92
20.703,1.2
20.718,-0.48
20.734,-1.83
20.750,-4.02
20.765,-8.28
20.781,-15.66
20.796,-26.64
20.812,-40.95
20.828,-57.4
20.843,-73.93
20.859,-87.68
20.875,-95.71
20.890,-95.88
20.906,-87.81
20.921,-73.29
20.937,-55.79
20.953,-39.33
20.968,-27.01
20.984,-20.06
21.000,-17.75
21.015,-18.11
21.031,-19.16
21.046,-19.73
21.062,-19.81
21.078,-20.06
21.093,-21.15
21.109,-23.32
21.125,-26.24
21.140,-29.44
21.156,-32.64
21.171,-36.08
21.187,-40.18
21.203,-45.15
21.218,-50.48
21.234,-54.78
21.250,-56.2
21.265,-53.14
21.281,-45.18
21.296,-33.42
21.312,-20.23
21.328,-8.39
21.343,-0.1
21.359,3.76
21.375,3.73
21.390,1.33
21.406,-1.71
21.421,-4.08
21.437,-5.18
21.453,-5.02
21.468,-3.95
21.484,-2.53
21.500,-1.44
21.515,-1.55
21.531,-3.76
21.546,-8.66
21.562,-16.13
21.578,-24.93
21.593,-32.86
21.609,-37.32
21.625,-36.27
21.640,-28.91
21.656,-16.0
21.671,0.4
21.687,17.72
21.703,33.64
21.718,46.6
21.734,56.01
21.750,62.02
21.765,65.21
21.781,66.28
21.796,65.9
21.812,64.59
21.828,62.79
21.843,60.75
21.859,58.6
21.875,56.4
21.890,54.17
21.906,52.05
21.921,50.33
21.937,49.33
21.953,49.2
21.968,49.74
21.984,50.29
22.000,49.86
22.015,47.44
22.031,42.39
22.046,34.68
22.062,25.07
22.078,15.01
22.093,6.41
22.109,1.3
22.125,1.11
22.140,6.2
22.156,15.54
22.171,26.92
22.187,37.66
22.203,45.53
22.218,49.42
22.234,49.58
22.250,47.25
22.265,44.02
22.281,41.13
22.296,38.93
22.312,36.89
22.328,33.95
22.343,29.0
22.359,21.57
22.375,12.1
22.390,1.82
22.406,-7.6
22.421,-14.4
22.437,-17.1
22.453,-14.64
22.468,-6.39
22.484,7.89
22.500,27.85
22.515,52.41
22.531,79.56
22.546,106.38
22.562,129.54
22.578,145.89
22.593,153.27
22.609,151.24
22.625,141.22
22.640,126.15
22.656,109.46
22.671,94.01
22.687,81.09
22.703,70.41
22.718,60.75
22.734,51.01
22.750,41.08
22.765,31.89
22.781,24.69
22.796,20.01
22.812,17.18
22.828,14.43
22.843,9.8
22.859,2.13
22.875,-8.41
22.890,-20.45
22.906,-32.19
22.921,-42.14
22.937,-49.68
22.953,-54.96
22.968,-58.59
22.984,-61.07
23.000,-62.5
23.015,-62.66
23.031,-61.32
23.046,-58.59
23.062,-54.98
23.078,-51.22
23.093,-48.0
23.109,-45.67
23.125,-44.2
23.140,-43.2
23.156,-42.07
23.171,-40.17
23.187,-36.79
23.203,-31.31
23.218,-23.27
23.234,-12.49
23.250,0.76
23.265,15.76
23.281,31.44
23.296,46.48
23.312,59.58
23.328,69.61
23.343,75.92
23.359,78.46
23.375,77.86
23.390,75.2
23.406,71.58
23.421,67.72
23.437,63.59
23.453,58.61
23.468,51.99
23.484,43.34
23.500,32.95
23.515,21.88
23.531,11.45
23.546,2.78
23.562,-3.64
23.578,-8.06
23.593,-11.16
23.609,-13.6
23.625,-15.69
23.640,-17.3
23.656,-17.97
23.671,-17.25
23.687,-14.97
23.703,-11.35
23.718,-7.01
23.734,-2.72
23.750,0.72
23.765,2.74
23.781,3.14
23.796,2.14
23.812,0.39
23.828,-1.2
23.843,-1.64
23.859,-0.16
23.875,3.59
23.890,9.38
23.906,16.5
23.921,24.0
23.937,31.11
23.953,37.67
23.968,44.39
23.984,52.87
24.000,65.03
24.015,82.32
24.031,104.63
24.046,129.7
24.062,153.37
24.078,170.79
24.093,178.2
24.109,174.39
24.125,161.21
24.140,142.69
24.156,123.38
24.171,106.6
24.187,93.63
24.203,83.9
24.218,75.9
24.234,68.1
24.250,59.43
24.265,49.29
24.281,37.31
24.296,23.3
24.312,7.44
24.328,-9.5
24.343,-26.11
24.359,-40.78
24.375,-52.27
24.390,-60.24
24.406,-65.37
24.421,-69.14
24.437,-73.07
24.453,-78.05
24.468,-83.85
24.484,-89.14
24.500,-92.17
24.515,-91.76
24.531,-88.04
24.546,-82.4
24.562,-76.81
24.578,-72.71
24.593,-70.41
24.609,-69.13
24.625,-67.89
24.640,-66.41
24.656,-65.58
24.671,-67.04
24.687,-72.17
24.703,-81.06
24.718,-92.26
24.734,-103.25
24.750,-111.46
24.765,-115.25
24.781,-114.24
24.796,-109.09
24.812,-101.08
24.828,-91.49
24.843,-81.43
24.859,-71.8
24.875,-63.36
24.890,-56.76
24.906,-52.31
24.921,-49.99
24.937,-49.2
24.953,-49.05
24.968,-48.59
24.984,-47.12
25.000,-44.4
25.015,-40.66
25.031,-36.5
25.046,-32.7
25.062,-29.96
25.078,-28.63
25.093,-28.51
25.109,-28.78
25.125,-28.27
25.140,-25.8
25.156,-20.7
25.171,-13.02
25.187,-3.52
25.203,6.79
25.218,17.01
25.234,26.64
25.250,35.61
25.265,43.98
25.281,51.85
25.296,59.17
25.312,65.82
25.328,71.64
25.343,76.42
25.359,79.91
25.375,81.79
25.390,81.79
25.406,79.8
25.421,75.9
25.437,70.42
25.453,63.81
25.468,56.53
25.484,49.03
25.500,41.75
25.515,35.14
25.531,29.66
25.546,25.71
25.562,23.41
25.578,22.6
25.593,22.8
25.609,23.36
25.625,23.69
25.640,23.38
25.656,22.33
25.671,20.69
25.687,18.71
25.703,16.57
25.718,14.23
25.734,11.44
25.750,7.85
25.765,3.23
25.781,-2.4
25.796,-8.75
25.812,-15.4
25.828,-21.97
25.843,-28.16
25.859,-33.71
25.875,-38.38
25.890,-41.82
25.906,-43.7
25.921,-43.88
25.937,-42.62
25.953,-40.61
25.968,-38.86
25.984,-38.27
26.000,-39.35
26.015,-42.04
26.031,-45.81
26.046,-49.91
26.062,-53.76
26.078,-57.07
26.093,-59.83
26.109,-62.14
26.125,-64.08
26.140,-65.7
26.156,-67.1
26.171,-68.51
26.187,-70.33
26.203,-72.85
26.218,-76.07
26.234,-79.51
26.250,-82.26
26.265,-83.23
26.281,-81.54
26.296,-76.73
26.312,-68.87
26.328,-58.57
26.343,-46.72
26.359,-34.31
26.375,-22.3
26.390,-11.45
26.406,-2.19
26.421,5.34
26.437,11.34
26.453,16.24
26.468,20.52
26.484,24.67
26.500,29.04
26.515,33.81
26.531,38.98
26.546,44.38
26.562,49.67
26.578,54.43
26.593,58.31
26.609,61.05
26.625,62.62
26.640,63.12
26.656,62.73
26.671,61.54
26.687,59.53
26.703,56.55
26.718,52.53
26.734,47.55
26.750,41.91
26.765,36.07
26.781,30.46
26.796,25.34
26.812,20.75
26.828,16.55
26.843,12.55
26.859,8.64
26.875,4.82
26.890,1.16
26.906,-2.33
26.921,-5.67
26.937,-8.9
26.953,-11.98
26.968,-14.72
26.984,-16.85
27.000,-18.19
27.015,-18.7
27.031,-18.56
27.046,-18.03
27.062,-17.34
27.078,-16.51
27.093,-15.4
27.109,-13.78
27.125,-11.48
27.140,-8.56
27.156,-5.24
27.171,-1.92
27.187,1.08
27.203,3.5
27.218,5.17
27.234,6.05
27.250,6.13
27.265,5.51
27.281,4.46
27.296,3.44
27.312,3.06
27.328,3.84
27.343,6.05
27.359,9.55
27.375,13.84
27.390,18.24
27.406,22.1
27.421,24.99
27.437,26.69
27.453,27.12
27.468,26.31
27.484,24.32
27.500,21.31
27.515,17.64
27.531,13.71
27.546,9.89
27.562,6.31
27.578,2.86
27.593,-0.78
27.609,-5.0
27.625,-10.18
27.640,-16.67
27.656,-24.78
27.671,-34.67
27.687,-46.15
27.703,-58.55
27.718,-70.54
27.734,-80.5
27.750,-86.84
27.765,-88.56
27.781,-85.62
27.796,-78.87
27.812,-69.8
27.828,-60.02
27.843,-50.97
27.859,-43.64
27.875,-38.63
27.890,-36.16
27.906,-36.16
27.921,-38.28
27.937,-41.96
27.953,-46.43
27.968,-50.89
27.984,-54.52
28.000,-56.47
28.015,-55.93
28.031,-52.19
28.046,-44.87
28.062,-34.28
28.078,-21.39
28.093,-7.77
28.109,4.91
28.125,15.26
28.140,22.53
28.156,26.66
28.171,28.15
28.187,27.93
28.203,27.13
28.218,27.04
28.234,28.89
28.250,33.6
28.265,41.48
28.281,51.94
28.296,63.49
28.312,73.99
28.328,81.31
28.343,83.8
28.359,80.89
28.375,73.14
28.390,62.15
28.406,50.16
28.421,39.51
28.437,32.2
28.453,29.47
28.468,31.74
28.484,38.54
28.500,48.72
28.515,60.77
28.531,73.09
28.546,84.31
28.562,93.46
28.578,100.16
28.593,104.46
28.609,106.81
28.625,107.76
28.640,107.86
28.656,107.53
28.671,107.07
28.687,106.66
28.703,106.33
28.718,105.86
28.734,104.79
28.750,102.53
28.765,98.77
28.781,93.64
28.796,87.93
28.812,82.78
28.828,79.16
28.843,77.33
28.859,76.63
28.875,75.86
28.890,73.8
28.906,69.92
28.921,64.54
28.937,58.64
28.953,53.34
28.968,49.47
28.984,47.43
29.000,47.25
29.015,48.82
29.031,51.98
29.046,56.63
29.062,62.64
29.078,70.0
29.093,78.7
29.109,88.6
29.125,99.39
29.140,110.49
29.156,121.19
29.171,130.9
29.187,139.36
29.203,146.59
29.218,152.86
29.234,158.37
29.250,163.02
29.265,166.3
29.281,167.33
29.296,164.97
29.312,157.93
29.328,145.12
29.343,125.82
29.359,99.97
29.375,68.19
29.390,31.67
29.406,-8.16
29.421,-50.0
29.437,-92.92
29.453,-136.53
29.468,-180.94
29.484,-226.71
29.500,-274.37
29.515,-323.8
29.531,-373.65
29.546,-420.94
29.562,-461.57
29.578,-491.24
29.593,-506.68
29.609,-506.41
29.625,-490.83
29.640,-461.85
29.656,-422.1
29.671,-374.58
29.687,-322.58
29.703,-269.66
29.718,-219.43
29.734,-174.87
29.750,-137.62
29.765,-107.6
29.781,-83.23
29.796,-62.19
29.812,-42.46
29.828,-22.95
29.843,-3.61
29.859,14.88
29.875,31.65
29.890,46.08
29.906,57.97
29.921,67.43
29.937,74.66
29.953,79.74
29.968,82.53
29.984,82.75
30.000,80.21
30.015,75.02
30.031,67.75
30.046,59.41
30.062,51.18
30.078,44.23
30.093,39.38
30.109,37.08
30.125,37.31
30.140,39.56
30.156,42.95
30.171,46.24
30.187,48.17
30.203,47.64
30.218,44.15
30.234,37.96
30.250,30.11
30.265,22.11
30.281,15.34
30.296,10.59
30.312,7.65
30.328,5.43
30.343,2.29
30.359,-3.3
30.375,-12.14
30.390,-23.95
30.406,-37.29
30.421,-50.05
30.437,-60.1
30.453,-65.95
30.468,-67.3
30.484,-65.03
30.500,-60.9
30.515,-56.96
30.531,-54.97
30.546,-55.91
30.562,-59.91
30.578,-66.31
30.593,-74.0
30.609,-81.84
30.625,-88.87
30.640,-94.56
30.656,-98.77
30.671,-101.68
30.687,-103.54
30.703,-104.55
30.718,-104.73
30.734,-104.01
30.750,-102.29
30.765,-99.58
30.781,-96.16
30.796,-92.58
30.812,-89.63
30.828,-88.28
30.843,-89.24
30.859,-92.66
30.875,-97.75
30.890,-102.88
30.906,-105.92
30.921,-105.02
30.937,-99.14
30.953,-88.55
30.968,-74.64
30.984,-59.5
31.000,-45.17
31.015,-33.01
31.031,-23.37
31.046,-15.54
31.062,-7.99
31.078,1.22
31.093,13.94
31.109,31.37
31.125,53.78
31.140,80.25
31.156,108.86
31.171,137.14
31.187,162.65
31.203,183.41
31.218,198.23
31.234,206.67
31.250,208.91
31.265,205.62
31.281,197.85
31.296,186.82
31.312,173.92
31.328,160.39
31.343,147.08
31.359,134.24
31.375,121.58
31.390,108.57
31.406,94.83
31.421,80.52
31.437,66.25
31.453,52.85
31.468,40.87
31.484,30.27
31.500,20.5
31.515,10.86
31.531,0.98
31.546,-8.83
31.562,-17.7
31.578,-24.63
31.593,-28.98
31.609,-30.84
31.625,-30.94
31.640,-30.29
31.656,-29.67
31.671,-29.36
31.687,-29.1
31.703,-28.34
31.718,-26.57
31.734,-23.55
31.750,-19.25
31.765,-13.79
31.781,-7.28
31.796,0.1
31.812,8.1
31.828,16.33
31.843,24.31
31.859,31.61
31.875,37.96
31.890,43.24
31.906,47.44
31.921,50.5
31.937,52.31
31.953,52.82
31.968,52.08
31.984,50.38
32.000,48.11
32.015,45.72
32.031,43.51
32.046,41.67
32.062,40.28
32.078,39.26
32.093,38.43
32.109,37.3
32.125,35.26
32.140,31.65
32.156,26.07
32.171,18.52
32.187,9.4
32.203,-0.65
32.218,-11.02
32.234,-21.3
32.250,-31.29
32.265,-40.8
32.281,-49.6
32.296,-57.28
32.312,-63.58
32.328,-68.46
32.343,-72.32
32.359,-75.98
32.375,-80.32
32.390,-86.02
32.406,-93.14
32.421,-101.09
32.437,-108.58
32.453,-113.95
32.468,-115.52
32.484,-112.01
32.500,-102.82
32.515,-88.17
32.531,-69.0
32.546,-46.71
32.562,-22.81
32.578,1.34
32.593,24.61
32.609,46.19
32.625,65.38
32.640,81.56
32.656,94.17
32.671,102.8
32.687,107.47
32.703,108.72
32.718,107.57
32.734,105.33
32.750,103.21
32.765,101.99
32.781,101.86
32.796,102.43
32.812,103.08
32.828,103.29
32.843,102.92
32.859,102.19
32.875,101.44
32.890,100.85
32.906,100.28
32.921,99.35
32.937,97.58
32.953,94.66
32.968,90.46
32.984,85.05
33.000,78.47
33.015,70.63
33.031,61.35
33.046,50.43
33.062,37.86
33.078,23.8
33.093,8.61
33.109,-7.47
33.125,-24.28
33.140,-41.78
33.156,-59.69
33.171,-77.34
33.187,-93.54
33.203,-106.92
33.218,-116.27
33.234,-120.86
33.250,-120.55
33.265,-115.63
33.281,-106.4
33.296,-93.13
33.312,-76.24
33.328,-56.51
33.343,-35.27
33.359,-14.28
33.375,4.82
33.390,21.01
33.406,34.14
33.421,44.85
33.437,54.23
33.453,63.56
33.468,74.23
33.484,87.83
33.500,105.89
33.515,129.39
33.531,157.76
33.546,188.28
33.562,216.03
33.578,235.17
33.593,240.9
33.609,231.45
33.625,209.01
33.640,179.02
33.656,148.17
33.671,122.01
33.687,103.18
33.703,91.15
33.718,83.05
33.734,75.17
33.750,64.3
33.765,48.61
33.781,27.83
33.796,3.16
33.812,-23.2
33.828,-48.66
33.843,-70.77
33.859,-87.83
33.875,-99.06
33.890,-104.48
33.906,-104.6
33.921,-100.2
33.937,-92.54
33.953,-83.4
33.968,-75.22
33.984,-70.53
34.000,-71.17
34.015,-77.48
34.031,-88.07
34.046,-100.31
34.062,-111.38
34.078,-119.21
34.093,-122.96
34.109,-122.9
34.125,-119.76
34.140,-114.16
34.156,-106.3
34.171,-96.0
34.187,-83.12
34.203,-67.9
34.218,-51.15
34.234,-34.12
34.250,-18.09
34.265,-3.93
34.281,8.13
34.296,18.49
34.312,27.9
34.328,36.88
34.343,45.51
34.359,53.17
34.375,58.87
34.390,61.57
34.406,60.68
34.421,56.31
34.437,49.27
34.453,40.82
34.468,32.2
34.484,24.17
34.500,16.8
34.515,9.51
34.531,1.49
34.546,-7.89
34.562,-18.64
34.578,-30.07
34.593,-41.06
34.609,-50.39
34.625,-57.17
34.640,-60.96
34.656,-61.71
34.671,-59.63
34.687,-55.02
34.703,-48.31
34.718,-40.06
34.734,-30.98
34.750,-21.9
34.765,-13.62
34.781,-6.78
34.796,-1.79
34.812,1.17
34.828,2.17
34.843,1.53
34.859,-0.14
34.875,-1.93
34.890,-2.73
34.906,-1.57
34.921,2.13
34.937,8.31
34.953,16.29
34.968,24.92
34.984,32.83
35.000,38.72
35.015,41.56
35.031,40.74
35.046,36.18
35.062,28.35
35.078,18.32
35.093,7.57
35.109,-2.38
35.125,-10.27
35.140,-15.51
35.156,-18.18
35.171,-18.78
35.187,-17.98
35.203,-16.21
35.218,-13.8
35.234,-11.25
35.250,-9.35
35.265,-9.18
35.281,-11.71
35.296,-17.32
35.312,-25.54
35.328,-35.44
35.343,-46.24
35.359,-57.52
35.375,-68.73
35.390,-78.2
35.406,-82.85
35.421,-79.13
35.437,-65.03
35.453,-42.04
35.468,-15.4
35.484,7.65
35.500,21.07
35.515,22.77
35.531,15.26
35.546,3.93
35.562,-5.99
35.578,-11.81
35.593,-13.83
35.609,-14.05
35.625,-14.04
35.640,-13.86
35.656,-12.33
35.671,-8.2
35.687,-1.27
35.703,7.45
35.718,16.54
35.734,24.97
35.750,32.66
35.765,40.36
35.781,49.0
35.796,58.82
35.812,69.04
35.828,78.06
35.843,84.09
35.859,85.92
35.875,83.47
35.890,77.82
35.906,70.76
35.921,64.09
35.937,58.89
35.953,55.25
35.968,52.46
35.984,49.54
36.000,45.87
36.015,41.4
36.031,36.72
36.046,32.47
36.062,29.02
36.078,26.18
36.093,23.37
36.109,20.01
36.125,15.76
36.140,10.63
36.156,4.79
36.171,-1.64
36.187,-8.64
36.203,-16.16
36.218,-23.91
36.234,-31.24
36.250,-37.2
36.265,-40.94
36.281,-42.07
36.296,-40.87
36.312,-38.23
36.328,-35.36
36.343,-33.36
36.359,-32.8
36.375,-33.65
36.390,-35.33
36.406,-37.08
36.421,-38.35
36.437,-38.95
36.453,-39.14
36.468,-39.3
36.484,-39.67
36.500,-40.14
36.515,-40.32
36.531,-39.75
36.546,-38.23
36.562,-35.94
36.578,-33.43
36.593,-31.28
36.609,-29.92
36.625,-29.41
36.640,-29.54
36.656,-29.92
36.671,-30.07
36.687,-29.41
36.703,-27.21
36.718,-22.71
36.734,-15.32
36.750,-5.03
36.765,7.36
36.781,20.3
36.796,31.86
36.812,40.38
36.828,45.02
36.843,45.85
36.859,43.63
36.875,39.39
36.890,34.02
36.906,28.19
36.921,22.58
36.937,18.07
36.953,15.76
36.968,16.8
36.984,21.91
37.000,31.03
37.015,43.21
37.031,56.72
37.046,69.52
37.062,79.77
37.078,86.24
37.093,88.57
37.109,87.12
37.125,82.74
37.140,76.37
37.156,68.86
37.171,60.84
37.187,52.82
37.203,45.34
37.218,38.93
37.234,33.99
37.250,30.53
37.265,28.06
37.281,25.69
37.296,22.5
37.312,17.9
37.328,11.95
37.343,5.34
37.359,-0.91
37.375,-5.8
37.390,-8.79
37.406,-9.96
37.421,-10.06
37.437,-10.22
37.453,-11.66
37.468,-15.36
37.484,-21.76
37.500,-30.77
37.515,-41.83
37.531,-54.15
37.546,-66.88
37.562,-79.25
37.578,-90.6
37.593,-100.22
37.609,-107.42
37.625,-111.58
37.640,-112.3
37.656,-109.52
37.671,-103.69
37.687,-95.63
37.703,-86.35
37.718,-76.86
37.734,-67.93
37.750,-60.1
37.765,-53.61
37.781,-48.54
37.796,-44.81
37.812,-42.33
37.828,-40.88
37.843,-40.22
37.859,-40.02
37.875,-39.92
37.890,-39.48
37.906,-38.32
37.921,-36.11
37.937,-32.67
37.953,-28.09
37.968,-22.66
37.984,-16.9
38.000,-11.34
38.015,-6.42
38.031,-2.39
38.046,0.75
38.062,3.2
38.078,5.22
38.093,7.04
38.109,8.72
38.125,10.13
38.140,11.07
38.156,11.39
38.171,11.18
38.187,10.72
38.203,10.43
38.218,10.6
38.234,11.17
38.250,11.74
38.265,11.67
38.281,10.37
38.296,7.5
38.312,3.03
38.328,-2.8
38.343,-9.75
38.359,-17.64
38.375,-26.36
38.390,-35.83
38.406,-45.9
38.421,-56.32
38.437,-66.69
38.453,-76.53
38.468,-85.17
38.484,-91.8
38.500,-95.55
38.515,-95.61
38.531,-91.47
38.546,-83.2
38.562,-71.38
38.578,-57.0
38.593,-41.15
38.609,-24.8
38.625,-8.74
38.640,6.3
38.656,19.58
38.671,30.33
38.687,37.89
38.703,42.09
38.718,43.43
38.734,43.02
38.750,42.31
38.765,42.73
38.781,45.33
38.796,50.62
38.812,58.5
38.828,67.96
38.843,77.01
38.859,82.74
38.875,82.05
38.890,72.8
38.906,54.92
38.921,30.82
38.937,4.74
38.953,-18.84
38.968,-36.85
38.984,-48.53
39.000,-55.13
39.015,-58.69
39.031,-60.7
39.046,-61.4
39.062,-60.07
39.078,-55.95
39.093,-49.15
39.109,-40.92
39.125,-33.24
39.140,-27.96
39.156,-26.06
39.171,-27.34
39.187,-30.57
39.203,-34.16
39.218,-36.81
39.234,-37.98
39.250,-38.04
39.265,-37.99
39.281,-39.02
39.296,-41.98
39.312,-47.15
39.328,-54.14
39.343,-62.17
39.359,-70.23
39.375,-77.35
39.390,-82.61
39.406,-85.26
39.421,-84.62
39.437,-80.28
39.453,-72.14
39.468,-60.69
39.484,-46.95
39.500,-32.4
39.515,-18.58
39.531,-6.74
39.546,2.54
39.562,9.44
39.578,14.7
39.593,19.29
39.609,23.95
39.625,29.02
39.640,34.35
39.656,39.47
39.671,43.85
39.687,47.08
39.703,49.01
39.718,49.66
39.734,49.26
39.750,48.07
39.765,46.41
39.781,44.53
39.796,42.6
39.812,40.7
39.828,38.76
39.843,36.69
39.859,34.31
39.875,31.5
39.890,28.15
39.906,24.31
39.921,20.08
39.937,15.65
39.953,11.2
39.968,6.8
39.984,2.49
40.000,-1.8
40.015,-6.1
40.031,-10.39
40.046,-14.54
40.062,-18.38
40.078,-21.78
40.093,-24.73
40.109,-27.45
40.125,-30.34
40.140,-33.98
40.156,-38.89
40.171,-45.38
40.187,-53.19
40.203,-61.47
40.218,-68.8
40.234,-73.56
40.250,-74.35
40.265,-70.45
40.281,-62.04
40.296,-50.08
40.312,-36.03
40.328,-21.43
40.343,-7.59
40.359,4.6
40.375,14.69
40.390,22.53
40.406,28.25
40.421,32.12
40.437,34.49
40.453,35.79
40.468,36.47
40.484,36.94
40.500,37.5
40.515,38.31
40.531,39.34
40.546,40.47
40.562,41.54
40.578,42.47
40.593,43.28
40.609,44.04
40.625,44.8
40.640,45.45
40.656,45.73
40.671,45.26
40.687,43.75
40.703,41.12
40.718,37.56
40.734,33.43
40.750,29.14
40.765,24.96
40.781,20.95
40.796,17.03
40.812,13.08
40.828,9.05
40.843,5.04
40.859,1.2
40.875,-2.34
40.890,-5.62
40.906,-8.78
40.921,-12.1
40.937,-15.89
40.953,-20.4
40.968,-25.79
40.984,-31.97
41.000,-38.56
41.015,-44.72
41.031,-49.23
41.046,-50.66
41.062,-47.83
41.078,-40.19
41.093,-28.17
41.109,-13.14
41.125,2.98
41.140,18.21
41.156,31.11
41.171,41.03
41.187,48.04
41.203,52.65
41.218,55.39
41.234,56.6
41.250,56.41
41.265,54.91
41.281,52.37
41.296,49.3
41.312,46.4
41.328,44.28
41.343,43.24
41.359,43.21
41.375,43.77
41.390,44.34
41.406,44.41
41.421,43.66
41.437,42.08
41.453,39.9
41.468,37.48
41.484,35.11
41.500,32.91
41.515,30.78
41.531,28.43
41.546,25.59
41.562,22.25
41.578,18.71
41.593,15.52
41.609,13.17
41.625,11.91
41.640,11.49
41.656,11.32
41.671,10.56
41.687,8.46
41.703,4.44
41.718,-1.74
41.734,-10.0
41.750,-19.85
41.765,-30.35
41.781,-40.11
41.796,-47.5
41.812,-50.93
41.828,-49.29
41.843,-42.38
41.859,-30.96
41.875,-16.67
41.890,-1.55
41.906,12.5
41.921,24.16
41.937,32.91
41.953,38.98
41.968,43.09
41.984,46.13
42.000,48.76
42.015,51.29
42.031,53.59
42.046,55.19
42.062,55.63
42.078,54.59
42.093,52.11
42.109,48.49
42.125,44.18
42.140,39.5
42.156,34.58
42.171,29.37
42.187,23.87
42.203,18.25
42.218,12.87
42.234,8.1
42.250,4.09
42.265,0.65
42.281,-2.7
42.296,-6.48
42.312,-10.96
42.328,-16.02
42.343,-21.31
42.359,-26.37
42.375,-30.9
42.390,-34.82
42.406,-38.3
42.421,-41.61
42.437,-45.09
42.453,-49.1
42.468,-53.9
42.484,-59.6
42.500,-66.01
42.515,-72.54
42.531,-78.23
42.546,-81.9
42.562,-82.45
42.578,-79.09
42.593,-71.59
42.609,-60.4
42.625,-46.58
42.640,-31.61
42.656,-17.07
42.671,-4.27
42.687,6.04
42.703,13.73
42.718,19.19
42.734,22.95
42.750,25.46
42.765,26.88
42.781,27.27
42.796,26.74
42.812,25.62
42.828,24.43
42.843,23.62
42.859,23.37
42.875,23.45
42.890,23.44
42.906,22.92
42.921,21.79
42.937,20.31
42.953,18.86
42.968,17.7
42.984,16.75
43.000,15.56
43.015,13.57
43.031,10.38
43.046,5.92
43.062,0.5
43.078,-5.39
43.093,-11.22
43.109,-16.75
43.125,-21.98
43.140,-27.22
43.156,-32.83
43.171,-39.16
43.187,-46.32
43.203,-54.19
43.218,-62.41
43.234,-70.4
43.250,-77.39
43.265,-82.54
43.281,-85.04
43.296,-84.15
43.312,-79.53
43.328,-71.3
43.343,-60.14
43.359,-47.14
43.375,-33.59
43.390,-20.65
43.406,-9.12
43.421,0.64
43.437,8.64
43.453,15.12
43.468,20.31
43.484,24.4
43.500,27.49
43.515,29.72
43.531,31.31
43.546,32.57
43.562,33.82
43.578,35.35
43.593,37.31
43.609,39.7
43.625,42.42
43.640,45.25
43.656,47.93
43.671,50.18
43.687,51.74
43.703,52.42
43.718,52.18
43.734,51.15
43.750,49.6
43.765,47.85
43.781,46.18
43.796,44.72
43.812,43.5
43.828,42.43
43.843,41.42
43.859,40.36
43.875,39.21
43.890,37.92
43.906,36.46
43.921,34.8
43.937,32.92
43.953,30.89
43.968,28.82
43.984,26.93
44.000,25.38
44.015,24.3
44.031,23.67
44.046,23.38
44.062,23.23
44.078,23.02
44.093,22.63
44.109,21.98
44.125,21.07
44.140,19.97
44.156,18.75
44.171,17.5
44.187,16.29
44.203,15.11
44.218,13.95
44.234,12.73
44.250,11.4
44.265,9.86
44.281,7.93
44.296,5.38
44.312,1.88
44.328,-2.9
44.343,-9.12
44.359,-16.7
44.375,-25.27
44.390,-34.3
44.406,-43.27
44.421,-51.89
44.437,-60.04
44.453,-67.74
44.468,-74.93
44.484,-81.43
44.500,-87.02
44.515,-91.7
44.531,-95.71
44.546,-99.48
44.562,-103.39
44.578,-107.46
44.593,-111.27
44.609,-114.18
44.625,-115.73
44.640,-115.96
44.656,-115.6
44.671,-115.85
44.687,-117.81
44.703,-121.99
44.718,-127.83
44.734,-133.69
44.750,-137.22
44.765,-136.03
44.781,-128.44
44.796,-114.03
44.812,-93.69
44.828,-69.28
44.843,-43.05
44.859,-17.05
44.875,7.2
44.890,28.7
44.906,46.78
44.921,61.0
44.937,71.16
44.953,77.38
44.968,80.23
44.984,80.69
45.000,79.88
45.015,78.75
45.031,77.83
45.046,77.2
45.062,76.67
45.078,75.97
45.093,74.98
45.109,73.85
45.125,72.9
45.140,72.51
45.156,72.9
45.171,74.0
45.187,75.37
45.203,76.27
45.218,75.86
45.234,73.43
45.250,68.52
45.265,61.17
45.281,51.86
45.296,41.36
45.312,30.6
45.328,20.38
45.343,11.21
45.359,3.12
45.375,-4.27
45.390,-11.59
45.406,-19.44
45.421,-27.89
45.437,-36.37
45.453,-43.59
45.468,-47.95
45.484,-48.15
45.500,-43.71
45.515,-35.23
45.531,-24.29
45.546,-12.87
45.562,-2.75
45.578,5.11
45.593,10.75
45.609,15.02
45.625,19.08
45.640,23.79
45.656,29.22
45.671,34.62
45.687,38.75
45.703,40.5
45.718,39.49
45.734,36.41
45.750,32.74
45.765,30.29
45.781,30.68
45.796,34.92
45.812,43.28
45.828,55.1
45.843,68.74
45.859,81.57
45.875,90.42
45.890,92.33
45.906,85.48
45.921,69.88
45.937,47.48
45.953,21.53
45.968,-4.44
45.984,-27.58
46.000,-46.22
46.015,-59.88
46.031,-68.94
46.046,-74.29
46.062,-77.13
46.078,-78.86
46.093,-80.83
46.109,-84.06
46.125,-88.87
46.140,-94.65
46.156,-99.94
46.171,-102.83
46.187,-101.51
46.203,-94.88
46.218,-82.98
46.234,-66.98
46.250,-48.81
46.265,-30.56
46.281,-13.9
46.296,0.28
46.312,11.88
46.328,21.26
46.343,28.83
46.359,34.78
46.375,39.07
46.390,41.6
46.406,42.4
46.421,41.85
46.437,40.51
46.453,39.04
46.468,37.87
46.484,37.12
46.500,36.63
46.515,36.14
46.531,35.55
46.546,35.06
46.562,35.05
46.578,35.85
46.593,37.47
46.609,39.49
46.625,41.12
46.640,41.53
46.656,40.06
46.671,36.46
46.687,30.93
46.703,23.96
46.718,16.1
46.734,7.77
46.750,-0.81
46.765,-9.69
46.781,-19.06
46.796,-29.25
46.812,-40.4
46.828,-52.3
46.843,-64.2
46.859,-74.8
46.875,-82.44
46.890,-85.53
46.906,-83.11
46.921,-75.09
46.937,-62.43
46.953,-46.77
46.968,-29.98
46.984,-13.68
47.000,1.06
47.015,13.71
47.031,24.09
47.046,32.17
47.062,37.96
47.078,41.52
47.093,43.11
47.109,43.21
47.125,42.47
47.140,41.51
47.156,40.81
47.171,40.56
47.187,40.73
47.203,41.15
47.218,41.48
47.234,41.4
47.250,40.63
47.265,38.94
47.281,36.28
47.296,32.72
47.312,28.41
47.328,23.47
47.343,17.97
47.359,11.9
47.375,5.33
47.390,-1.54
47.406,-8.38
47.421,-14.83
47.437,-20.65
47.453,-25.76
47.468,-30.33
47.484,-34.65
47.500,-39.18
47.515,-44.34
47.531,-50.57
47.546,-58.05
47.562,-66.58
47.578,-75.41
47.593,-83.21
47.609,-88.34
47.625,-89.32
47.640,-85.32
47.656,-76.41
47.671,-63.59
47.687,-48.41
47.703,-32.47
47.718,-17.07
47.734,-2.96
47.750,9.53
47.765,20.28
47.781,29.21
47.796,36.24
47.812,41.23
47.828,44.25
47.843,45.61
47.859,45.87
47.875,45.68
47.890,45.61
47.906,45.94
47.921,46.6
47.937,47.3
47.953,47.69
47.968,47.57
47.984,46.9
48.000,45.84
48.015,44.52
48.031,42.91
48.046,40.77
48.062,37.72
48.078,33.35
48.093,27.4
48.109,19.89
48.125,11.06
48.140,1.4
48.156,-8.57
48.171,-18.31
48.187,-27.34
48.203,-35.45
48.218,-42.69
48.234,-49.62
48.250,-57.18
48.265,-66.61
48.281,-78.89
48.296,-94.48
48.312,-112.83
48.328,-132.44
48.343,-151.13
48.359,-166.46
48.375,-176.32
48.390,-179.23
48.406,-174.67
48.421,-163.02
48.437,-145.43
48.453,-123.59
48.468,-99.35
48.484,-74.4
48.500,-49.99
48.515,-26.82
48.531,-5.15
48.546,14.94
48.562,33.37
48.578,49.96
48.593,64.51
48.609,76.93
48.625,87.39
48.640,96.36
48.656,104.39
48.671,111.94
48.687,119.23
48.703,126.24
48.718,132.76
48.734,138.66
48.750,143.95
48.765,148.8
48.781,153.53
48.796,158.55
48.812,164.33
48.828,171.33
48.843,179.75
48.859,189.24
48.875,198.56
48.890,205.62
48.906,207.96
48.921,203.4
48.937,190.8
48.953,170.37
48.968,143.53
48.984,112.49
49.000,79.72
49.015,47.54
49.031,17.87
49.046,-7.74
49.062,-28.35
49.078,-43.69
49.093,-54.21
49.109,-60.96
49.125,-65.18
49.140,-67.81
49.156,-69.13
49.171,-68.74
49.187,-65.86
49.203,-59.81
49.218,-50.42
49.234,-38.31
49.250,-24.76
49.265,-11.41
49.281,0.23
49.296,9.16
49.312,15.05
49.328,18.18
49.343,19.12
49.359,18.41
49.375,16.39
49.390,13.23
49.406,9.09
49.421,4.24
49.437,-0.88
49.453,-5.72
49.468,-9.84
49.484,-13.08
49.500,-15.61
49.515,-17.87
49.531,-20.36
49.546,-23.4
49.562,-26.98
49.578,-30.8
49.593,-34.3
49.609,-36.89
49.625,-38.11
49.640,-37.66
49.656,-35.48
49.671,-31.84
49.687,-27.24
49.703,-22.47
49.718,-18.42
49.734,-15.87
49.750,-15.26
49.765,-16.58
49.781,-19.39
49.796,-23.05
49.812,-27.03
49.828,-31.03
49.843,-35.06
49.859,-39.28
49.875,-43.83
49.890,-48.63
49.906,-53.27
49.921,-57.06
49.937,-59.02
49.953,-58.13
49.968,-53.49
49.984,-44.63
50.000,-31.7
50.015,-15.49
50.031,2.67
50.046,21.21
50.062,38.7
50.078,54.11
50.093,66.87
50.109,76.93
50.125,84.57
50.140,90.3
50.156,94.66
50.171,98.09
50.187,100.87
50.203,103.1
50.218,104.81
50.234,105.99
50.250,106.69
50.265,107.03
50.281,107.12
50.296,106.98
50.312,106.45
50.328,105.22
50.343,102.9
50.359,99.2
50.375,94.05
50.390,87.69
50.406,80.63
50.421,73.39
50.437,66.35
50.453,59.57
50.468,52.79
50.484,45.55
50.500,37.42
50.515,28.1
50.531,17.59
50.546,6.13
50.562,-5.67
50.578,-16.78
50.593,-25.77
50.609,-31.15
50.625,-32.01
50.640,-28.74
50.656,-23.44
50.671,-19.59
50.687,-20.93
50.703,-30.07
50.718,-47.46
50.734,-71.14
50.750,-97.52
50.765,-122.67
50.781,-143.49
50.796,-158.4
50.812,-167.25
50.828,-170.85
50.843,-170.32
50.859,-166.77
50.875,-161.21
50.890,-154.66
50.906,-148.16
50.921,-142.79
50.937,-139.37
50.953,-138.37
50.968,-139.67
50.984,-142.74
51.000,-146.75
51.015,-150.94
51.031,-154.75
51.046,-157.79
51.062,-159.63
51.078,-159.62
51.093,-156.89
51.109,-150.56
51.125,-140.12
51.140,-125.69
51.156,-108.11
51.171,-88.69
51.187,-68.88
51.203,-49.91
51.218,-32.58
51.234,-17.31
51.250,-4.22
51.265,6.76
51.281,15.85
51.296,23.37
51.312,29.76
51.328,35.48
51.343,40.92
51.359,46.23
51.375,51.31
51.390,55.86
51.406,59.58
51.421,62.36
51.437,64.41
51.453,66.11
51.468,67.87
51.484,69.84
51.500,71.79
51.515,73.17
51.531,73.29
51.546,71.58
51.562,67.95
51.578,63.04
51.593,58.25
51.609,55.47
51.625,56.61
51.640,63.0
51.656,74.94
51.671,91.66
51.687,111.54
51.703,132.65
51.718,153.39
51.734,172.75
51.750,190.52
51.765,207.16
51.781,223.57
51.796,240.52
51.812,257.98
51.828,274.53
51.843,287.21
51.859,292.05
51.875,285.32
51.890,264.83
51.906,230.71
51.921,185.28
51.937,132.21
51.953,75.56
51.968,19.17
51.984,-33.4
52.000,-78.8
52.015,-114.07
52.031,-137.26
52.046,-148.25
52.062,-149.0
52.078,-143.04
52.093,-134.19
52.109,-125.28
52.125,-117.49
52.140,-110.61
52.156,-103.86
52.171,-96.76
52.187,-89.46
52.203,-82.59
52.218,-76.7
52.234,-71.98
52.250,-68.14
52.265,-64.66
52.281,-61.08
52.296,-57.29
52.312,-53.49
52.328,-50.09
52.343,-47.55
52.359,-46.23
52.375,-46.4
52.390,-48.22
52.406,-51.59
52.421,-56.09
52.437,-60.85
52.453,-64.59
52.468,-65.89
52.484,-63.59
52.500,-57.17
52.515,-47.04
52.531,-34.34
52.546,-20.61
52.562,-7.25
52.578,4.89
52.593,15.62
52.609,25.16
52.625,33.8
52.640,41.62
52.656,48.38
52.671,53.74
52.687,57.55
52.703,60.09
52.718,61.96
52.734,63.94
52.750,66.55
52.765,69.8
52.781,73.23
52.796,76.14
52.812,78.0
52.828,78.77
52.843,78.92
52.859,79.17
52.875,80.16
52.890,82.14
52.906,84.98
52.921,88.34
52.937,91.59
52.953,93.76
52.968,93.29
52.984,88.11
53.000,76.21
53.015,56.54
53.031,29.86
53.046,-1.1
53.062,-32.35
53.078,-59.94
53.093,-81.3
53.109,-95.84
53.125,-104.62
53.140,-109.49
53.156,-112.17
53.171,-113.75
53.187,-114.84
53.203,-115.82
53.218,-116.96
53.234,-118.32
53.250,-119.4
53.265,-119.1
53.281,-116.05
53.296,-109.07
53.312,-97.87
53.328,-83.15
53.343,-66.55
53.359,-49.99
53.375,-35.14
53.390,-22.92
53.406,-13.54
53.421,-6.55
53.437,-1.31
53.453,2.77
53.468,6.04
53.484,8.67
53.500,10.74
53.515,12.33
53.531,13.62
53.546,14.81
53.562,16.06
53.578,17.5
53.593,19.11
53.609,20.8
53.625,22.51
53.640,24.15
53.656,25.62
53.671,26.76
53.687,27.28
53.703,26.9
53.718,25.35
53.734,22.58
53.750,18.78
53.765,14.35
53.781,9.67
53.796,5.02
53.812,0.4
53.828,-4.3
53.843,-9.22
53.859,-14.35
53.875,-19.52
53.890,-24.44
53.906,-28.86
53.921,-32.68
53.937,-36.02
53.953,-39.11
53.968,-42.26
53.984,-45.79
54.000,-49.94
54.015,-54.86
54.031,-60.45
54.046,-66.25
54.062,-71.44
54.078,-74.93
54.093,-75.62
54.109,-72.75
54.125,-66.16
54.140,-56.39
54.156,-44.45
54.171,-31.65
54.187,-19.19
54.203,-7.92
54.218,1.71
54.234,9.59
54.250,15.84
54.265,20.62
54.281,24.11
54.296,26.42
54.312,27.63
54.328,27.9
54.343,27.48
54.359,26.73
54.375,26.13
54.390,26.05
54.406,26.73
54.421,28.15
54.437,30.07
54.453,32.05
54.468,33.64
54.484,34.51
54.500,34.52
54.515,33.69
54.531,32.2
54.546,30.18
54.562,27.72
54.578,24.79
54.593,21.34
54.609,17.36
54.625,12.98
54.640,8.45
54.656,4.19
54.671,0.61
54.687,-1.96
54.703,-3.45
54.718,-4.08
54.734,-4.38
54.750,-5.04
54.765,-6.76
54.781,-10.03
54.796,-14.98
54.812,-21.33
54.828,-28.33
54.843,-34.97
54.859,-40.05
54.875,-42.52
54.890,-41.69
54.906,-37.42
54.921,-30.19
54.937,-21.0
54.953,-11.13
54.968,-1.72
54.984,6.36
55.000,12.75
55.015,17.47
55.031,20.84
55.046,23.24
55.062,24.99
55.078,26.31
55.093,27.36
55.109,28.33
55.125,29.58
55.140,31.65
55.156,35.09
55.171,40.31
55.187,47.36
55.203,55.79
55.218,64.77
55.234,73.35
55.250,80.83
55.265,86.93
55.281,91.89
55.296,96.22
55.312,100.32
55.328,104.21
55.343,107.35
55.359,108.99
55.375,108.52
55.390,105.92
55.406,101.77
55.421,97.01
55.437,92.49
55.453,88.53
55.468,84.98
55.484,81.49
55.500,77.83
55.515,73.99
55.531,69.86
55.546,64.82
55.562,57.6
55.578,46.77
55.593,31.58
55.609,12.84
55.625,-6.89
55.640,-23.99
55.656,-34.92
55.671,-37.61
55.687,-32.12
55.703,-20.56
55.718,-6.32
55.734,7.03
55.750,16.76
55.765,21.43
55.781,20.96
55.796,16.23
55.812,8.57
55.828,-0.73
55.843,-10.63
55.859,-20.38
55.875,-29.31
55.890,-36.79
55.906,-42.19
55.921,-45.06
55.937,-45.37
55.953,-43.56
55.968,-40.45
55.984,-36.98
56.000,-33.92
56.015,-31.86
56.031,-31.13
56.046,-31.94
56.062,-34.36
56.078,-38.33
56.093,-43.51
56.109,-49.3
56.125,-54.94
56.140,-59.71
56.156,-63.17
56.171,-65.23
56.187,-66.12
56.203,-66.25
56.218,-65.94
56.234,-65.45
56.250,-64.91
56.265,-64.52
56.281,-64.54
56.296,-65.34
56.312,-67.24
56.328,-70.3
56.343,-74.3
56.359,-78.57
56.375,-82.23
56.390,-84.29
56.406,-83.98
56.421,-80.86
56.437,-75.02
56.453,-66.95
56.468,-57.54
56.484,-47.67
56.500,-38.09
56.515,-29.21
56.531,-21.13
56.546,-13.86
56.562,-7.46
56.578,-2.15
56.593,1.83
56.609,4.28
56.625,5.31
56.640,5.32
56.656,4.87
56.671,4.46
56.687,4.33
56.703,4.43
56.718,4.53
56.734,4.44
56.750,4.18
56.765,3.93
56.781,3.95
56.796,4.33
56.812,4.92
56.828,5.36
56.843,5.18
56.859,4.02
56.875,1.75
56.890,-1.47
56.906,-5.26
56.921,-9.14
56.937,-12.72
56.953,-15.77
56.968,-18.27
56.984,-20.43
57.000,-22.59
57.015,-25.18
57.031,-28.62
57.046,-33.21
57.062,-38.99
57.078,-45.59
57.093,-52.14
57.109,-57.44
57.125,-60.17
57.140,-59.35
57.156,-54.71
57.171,-46.8
57.187,-36.87
57.203,-26.46
57.218,-16.95
57.234,-9.21
57.250,-3.57
57.265,0.03
57.281,1.82
57.296,1.91
57.312,0.26
57.328,-3.25
57.343,-8.7
57.359,-15.89
57.375,-24.37
57.390,-33.45
57.406,-42.34
57.421,-50.32
57.437,-56.76
57.453,-61.19
57.468,-63.18
57.484,-62.45
57.500,-58.91
57.515,-52.87
57.531,-45.1
57.546,-36.81
57.562,-29.37
57.578,-23.91
57.593,-20.96
57.609,-20.28
57.625,-21.04
57.640,-22.12
57.656,-22.64
57.671,-22.23
57.687,-21.09
57.703,-19.82
57.718,-19.08
57.734,-19.31
57.750,-20.63
57.765,-22.81
57.781,-25.37
57.796,-27.6
57.812,-28.67
57.828,-27.67
57.843,-23.91
57.859,-17.1
57.875,-7.53
57.890,3.93
57.906,16.18
57.921,28.16
57.937,39.12
57.953,48.68
57.968,56.68
57.984,63.01
58.000,67.51
58.015,70.02
58.031,70.59
58.046,69.49
58.062,67.27
58.078,64.59
58.093,62.0
58.109,59.86
58.125,58.23
58.140,56.99
58.156,55.9
58.171,54.72
58.187,53.28
58.203,51.47
58.218,49.22
58.234,46.48
58.250,43.2
58.265,39.34
58.281,34.89
58.296,30.03
58.312,24.96
58.328,19.98
58.343,15.31
58.359,10.98
58.375,6.79
58.390,2.31
58.406,-2.94
58.421,-9.39
58.437,-17.27
58.453,-26.44
58.468,-36.35
58.484,-46.06
58.500,-54.31
58.515,-59.78
58.531,-61.36
58.546,-58.5
58.562,-51.43
58.578,-41.12
58.593,-28.96
58.609,-16.35
58.625,-4.39
58.640,6.28
58.656,15.37
58.671,22.75
58.687,28.34
58.703,32.12
58.718,34.22
58.734,35.01
58.750,34.99
58.765,34.66
58.781,34.36
58.796,34.17
58.812,34.04
58.828,33.85
58.843,33.58
58.859,33.32
58.875,33.21
58.890,33.41
58.906,33.99
58.921,34.89
58.937,35.9
58.953,36.65
58.968,36.79
58.984,36.09
59.000,34.66
59.015,32.92
59.031,31.4
59.046,30.41
59.062,29.72
59.078,28.56
59.093,25.87
59.109,20.83
59.125,13.33
59.140,4.1
59.156,-5.36
59.171,-13.19
59.187,-17.7
59.203,-17.75
59.218,-12.97
59.234,-3.8
59.250,8.56
59.265,22.42
59.281,35.86
59.296,47.12
59.312,54.97
59.328,58.87
59.343,59.0
59.359,56.06
59.375,50.91
59.390,44.34
59.406,36.94
59.421,29.07
59.437,21.03
59.453,13.12
59.468,5.76
59.484,-0.5
59.500,-5.12
59.515,-7.68
59.531,-8.03
59.546,-6.43
59.562,-3.48
59.578,0.08
59.593,3.53
59.609,6.41
59.625,8.52
59.640,9.88
59.656,10.45
59.671,10.01
59.687,8.26
59.703,4.95
59.718,0.16
59.734,-5.59
59.750,-11.53
59.765,-16.96
59.781,-21.68
59.796,-26.07
59.812,-31.05
59.828,-37.61
59.843,-46.34
59.859,-57.1
59.875,-68.97
59.890,-80.49
59.906,-89.99
59.921,-96.1
59.937,-98.06
59.953,-95.78
59.968,-89.96
59.984,-81.89
