timestamp,value
00.000,56.02
00.015,54.6
00.031,53.27
00.046,52.33
00.062,51.93
00.078,52.08
00.093,52.68
00.109,53.48
00.125,54.2
00.140,54.53
00.156,54.21
00.171,52.98
00.187,50.69
00.203,47.26
00.218,42.7
00.234,37.18
00.250,30.91
00.265,24.15
00.281,17.16
00.296,10.18
00.312,3.41
00.328,-2.93
00.343,-8.72
00.359,-13.91
00.375,-18.67
00.390,-23.37
00.406,-28.52
00.421,-34.69
00.437,-42.28
00.453,-51.3
00.468,-61.26
00.484,-70.97
00.500,-78.72
00.515,-82.6
00.531,-81.02
00.546,-73.28
00.562,-59.93
00.578,-42.61
00.593,-23.64
00.609,-5.3
00.625,10.74
00.640,23.69
00.656,33.45
00.671,40.36
00.687,44.84
00.703,47.28
00.718,48.06
00.734,47.64
00.750,46.53
00.765,45.3
00.781,44.41
00.796,44.08
00.812,44.34
00.828,45.0
00.843,45.8
00.859,46.5
00.875,46.95
00.890,47.1
00.906,46.93
00.921,46.35
00.937,45.21
00.953,43.31
00.968,40.57
00.984,37.05
01.000,33.02
01.015,28.83
01.031,24.73
01.046,20.74
01.062,16.59
01.078,11.9
01.093,6.38
01.109,-0.03
01.125,-7.09
01.140,-14.33
01.156,-21.25
01.171,-27.5
01.187,-33.05
01.203,-38.2
01.218,-43.5
01.234,-49.57
01.250,-56.76
01.265,-64.93
01.281,-73.22
01.296,-80.19
01.312,-84.08
01.328,-83.39
01.343,-77.37
01.359,-66.33
01.375,-51.51
01.390,-34.73
01.406,-17.79
01.421,-2.05
01.437,11.78
01.453,23.51
01.468,33.21
01.484,40.94
01.500,46.63
01.515,50.16
01.531,51.55
01.546,51.09
01.562,49.31
01.578,46.86
01.593,44.32
01.609,42.0
01.625,39.97
01.640,38.22
01.656,36.78
01.671,35.84
01.687,35.65
01.703,36.32
01.718,37.52
01.734,38.59
01.750,38.63
01.765,36.97
01.781,33.43
01.796,28.43
01.812,22.71
01.828,17.0
01.843,11.67
01.859,6.66
01.875,1.69
01.890,-3.51
01.906,-8.96
01.921,-14.39
01.937,-19.43
01.953,-23.82
01.968,-27.56
01.984,-30.94
02.000,-34.44
02.015,-38.68
02.031,-44.16
02.046,-51.26
02.062,-60.09
02.078,-70.36
02.093,-81.18
02.109,-91.13
02.125,-98.44
02.140,-101.33
02.156,-98.55
02.171,-89.77
02.187,-75.74
02.203,-58.15
02.218,-39.18
02.234,-20.98
02.250,-5.13
02.265,7.56
02.281,17.06
02.296,23.79
02.312,28.38
02.328,31.31
02.343,32.96
02.359,33.63
02.375,33.74
02.390,33.84
02.406,34.46
02.421,35.92
02.437,38.11
02.453,40.54
02.468,42.53
02.484,43.58
02.500,43.58
02.515,42.83
02.531,41.76
02.546,40.73
02.562,39.77
02.578,38.62
02.593,36.94
02.609,34.48
02.625,31.28
02.640,27.63
02.656,23.91
02.671,20.4
02.687,17.18
02.703,14.03
02.718,10.55
02.734,6.36
02.750,1.27
02.765,-4.6
02.781,-10.84
02.796,-16.95
02.812,-22.47
02.828,-27.21
02.843,-31.29
02.859,-35.18
02.875,-39.52
02.890,-44.96
02.906,-51.85
02.921,-60.05
02.937,-68.75
02.953,-76.55
02.968,-81.7
02.984,-82.56
03.000,-78.11
03.015,-68.24
03.031,-53.87
03.046,-36.6
03.062,-18.34
03.078,-0.86
03.093,14.57
03.109,27.18
03.125,36.59
03.140,42.75
03.156,45.83
03.171,46.25
03.187,44.72
03.203,42.12
03.218,39.39
03.234,37.26
03.250,36.08
03.265,35.82
03.281,36.16
03.296,36.72
03.312,37.19
03.328,37.45
03.343,37.48
03.359,37.27
03.375,36.66
03.390,35.41
03.406,33.25
03.421,30.09
03.437,26.05
03.453,21.49
03.468,16.9
03.484,12.66
03.500,8.91
03.515,5.52
03.531,2.15
03.546,-1.52
03.562,-5.63
03.578,-10.12
03.593,-14.79
03.609,-19.44
03.625,-23.95
03.640,-28.38
03.656,-32.89
03.671,-37.71
03.687,-43.1
03.703,-49.31
03.718,-56.5
03.734,-64.56
03.750,-72.95
03.765,-80.54
03.781,-85.73
03.796,-86.82
03.812,-82.57
03.828,-72.68
03.843,-58.02
03.859,-40.38
03.875,-21.96
03.890,-4.71
03.906,10.06
03.921,21.83
03.937,30.71
03.953,37.09
03.968,41.44
03.984,44.1
04.000,45.37
04.015,45.53
04.031,44.88
04.046,43.76
04.062,42.51
04.078,41.43
04.093,40.66
04.109,40.32
04.125,40.42
04.140,40.92
04.156,41.67
04.171,42.49
04.187,43.12
04.203,43.26
04.218,42.65
04.234,41.1
04.250,38.59
04.265,35.2
04.281,31.11
04.296,26.52
04.312,21.59
04.328,16.37
04.343,10.86
04.359,5.02
04.375,-1.13
04.390,-7.44
04.406,-13.63
04.421,-19.34
04.437,-24.24
04.453,-28.21
04.468,-31.42
04.484,-34.4
04.500,-37.92
04.515,-42.75
04.531,-49.36
04.546,-57.54
04.562,-66.24
04.578,-73.66
04.593,-77.69
04.609,-76.58
04.625,-69.5
04.640,-56.84
04.656,-40.1
04.671,-21.33
04.687,-2.5
04.703,14.93
04.718,30.19
04.734,42.94
04.750,53.0
04.765,60.2
04.781,64.42
04.796,65.83
04.812,65.09
04.828,63.28
04.843,61.73
04.859,61.55
04.875,63.29
04.890,66.89
04.906,71.7
04.921,76.9
04.937,81.8
04.953,86.09
04.968,89.91
04.984,93.66
05.000,97.72
05.015,102.29
05.031,107.17
05.046,111.82
05.062,115.5
05.078,117.42
05.093,116.94
05.109,113.62
05.125,107.29
05.140,97.99
05.156,85.99
05.171,71.84
05.187,56.33
05.203,40.45
05.218,25.1
05.234,10.91
05.250,-2.09
05.265,-14.47
05.281,-27.04
05.296,-40.2
05.312,-53.51
05.328,-65.45
05.343,-73.73
05.359,-76.15
05.375,-71.24
05.390,-58.77
05.406,-39.45
05.421,-14.37
05.437,15.45
05.453,48.83
05.468,83.87
05.484,117.16
05.500,143.89
05.515,158.94
05.531,158.73
05.546,142.81
05.562,114.3
05.578,78.94
05.593,43.09
05.609,11.79
05.625,-12.31
05.640,-28.86
05.656,-38.94
05.671,-44.07
05.687,-45.54
05.703,-44.4
05.718,-41.61
05.734,-38.14
05.750,-34.82
05.765,-32.22
05.781,-30.54
05.796,-29.57
05.812,-28.88
05.828,-27.93
05.843,-26.19
05.859,-23.22
05.875,-18.88
05.890,-13.53
05.906,-8.19
05.921,-4.32
05.937,-3.26
05.953,-5.76
05.968,-11.56
05.984,-19.68
06.000,-29.1
06.015,-39.42
06.031,-50.95
06.046,-64.17
06.062,-78.67
06.078,-92.61
06.093,-102.98
06.109,-106.85
06.125,-102.93
06.140,-92.52
06.156,-79.19
06.171,-67.29
06.187,-60.11
06.203,-58.7
06.218,-61.92
06.234,-67.52
06.250,-73.56
06.265,-79.34
06.281,-85.42
06.296,-92.9
06.312,-102.44
06.328,-113.75
06.343,-125.49
06.359,-135.85
06.375,-143.07
06.390,-146.0
06.406,-144.21
06.421,-137.81
06.437,-127.16
06.453,-112.77
06.468,-95.26
06.484,-75.6
06.500,-55.19
06.515,-35.77
06.531,-19.15
06.546,-6.68
06.562,1.1
06.578,4.64
06.593,5.07
06.609,3.76
06.625,1.66
06.640,-1.03
06.656,-4.85
06.671,-10.71
06.687,-19.39
06.703,-31.22
06.718,-45.96
06.734,-62.86
06.750,-80.93
06.765,-98.93
06.781,-115.4
06.796,-128.61
06.812,-136.75
06.828,-138.28
06.843,-132.39
06.859,-119.48
06.875,-101.13
06.890,-79.78
06.906,-58.02
06.921,-38.0
06.937,-21.0
06.953,-7.47
06.968,2.72
06.984,9.83
07.000,14.14
07.015,15.87
07.031,15.46
07.046,13.61
07.062,11.33
07.078,9.57
07.093,8.96
07.109,9.46
07.125,10.4
07.140,10.8
07.156,9.77
07.171,6.95
07.187,2.55
07.203,-2.79
07.218,-8.32
07.234,-13.51
07.250,-18.24
07.265,-22.71
07.281,-27.26
07.296,-32.06
07.312,-36.99
07.328,-41.6
07.343,-45.28
07.359,-47.53
07.375,-48.2
07.390,-47.58
07.406,-46.35
07.421,-45.32
07.437,-45.25
07.453,-46.72
07.468,-50.1
07.484,-55.51
07.500,-62.68
07.515,-70.87
07.531,-78.64
07.546,-84.02
07.562,-84.84
07.578,-79.43
07.593,-67.14
07.609,-48.68
07.625,-25.96
07.640,-1.44
07.656,22.49
07.671,44.08
07.687,62.46
07.703,77.43
07.718,89.07
07.734,97.5
07.750,102.8
07.765,105.13
07.781,104.93
07.796,103.04
07.812,100.48
07.828,98.11
07.843,96.29
07.859,94.68
07.875,92.43
07.890,88.54
07.906,82.37
07.921,73.91
07.937,63.75
07.953,52.82
07.968,41.97
07.984,31.67
08.000,21.97
08.015,12.63
08.031,3.43
08.046,-5.68
08.062,-14.51
08.078,-22.69
08.093,-29.87
08.109,-35.87
08.125,-40.78
08.140,-44.9
08.156,-48.71
08.171,-52.66
08.187,-57.13
08.203,-62.41
08.218,-68.62
08.234,-75.76
08.250,-83.51
08.265,-91.0
08.281,-96.78
08.296,-98.92
08.312,-95.57
08.328,-85.61
08.343,-69.22
08.359,-48.0
08.375,-24.47
08.390,-1.29
08.406,19.52
08.421,37.01
08.437,51.16
08.453,62.38
08.468,71.07
08.484,77.36
08.500,81.28
08.515,83.06
08.531,83.27
08.546,82.87
08.562,82.83
08.578,83.87
08.593,86.14
08.609,89.27
08.625,92.51
08.640,95.08
08.656,96.44
08.671,96.48
08.687,95.41
08.703,93.65
08.718,91.56
08.734,89.37
08.750,87.07
08.765,84.57
08.781,81.87
08.796,79.07
08.812,76.39
08.828,74.04
08.843,72.13
08.859,70.61
08.875,69.28
08.890,67.95
08.906,66.5
08.921,64.96
08.937,63.39
08.953,61.89
08.968,60.44
08.984,58.96
09.000,57.33
09.015,55.47
09.031,53.42
09.046,51.25
09.062,49.14
09.078,47.29
09.093,45.84
09.109,44.93
09.125,44.65
09.140,45.01
09.156,45.92
09.171,47.18
09.187,48.47
09.203,49.45
09.218,49.78
09.234,49.36
09.250,48.27
09.265,46.75
09.281,45.17
09.296,43.95
09.312,43.41
09.328,43.78
09.343,45.11
09.359,47.16
09.375,49.35
09.390,50.77
09.406,50.41
09.421,47.43
09.437,41.48
09.453,32.93
09.468,22.68
09.484,11.94
09.500,1.86
09.515,-6.71
09.531,-13.28
09.546,-17.64
09.562,-19.76
09.578,-19.75
09.593,-17.95
09.609,-15.0
09.625,-11.85
09.640,-9.6
09.656,-9.11
09.671,-10.58
09.687,-13.15
09.703,-14.82
09.718,-12.88
09.734,-4.63
09.750,11.67
09.765,36.06
09.781,66.65
09.796,99.99
09.812,131.85
09.828,158.17
09.843,175.74
09.859,182.57
09.875,177.89
09.890,162.0
09.906,136.16
09.921,102.49
09.937,63.93
09.953,24.06
09.968,-13.31
09.984,-44.83
10.000,-68.24
10.015,-82.81
10.031,-89.33
10.046,-89.57
10.062,-85.5
10.078,-78.62
10.093,-69.72
10.109,-59.05
10.125,-46.94
10.140,-34.21
10.156,-22.31
10.171,-13.03
10.187,-7.88
10.203,-7.57
10.218,-11.69
10.234,-18.9
10.250,-27.37
10.265,-35.26
10.281,-41.28
10.296,-44.85
10.312,-46.13
10.328,-45.76
10.343,-44.57
10.359,-43.22
10.375,-41.97
10.390,-40.48
10.406,-37.71
10.421,-32.06
10.437,-21.59
10.453,-4.71
10.468,19.13
10.484,48.69
10.500,80.99
10.515,111.95
10.531,137.65
10.546,155.55
10.562,165.18
10.578,167.9
10.593,165.98
10.609,161.44
10.625,155.29
10.640,147.32
10.656,136.5
10.671,121.63
10.687,101.93
10.703,77.31
10.718,48.48
10.734,16.76
10.750,-16.15
10.765,-48.48
10.781,-78.62
10.796,-105.31
10.812,-127.51
10.828,-144.52
10.843,-156.04
10.859,-162.41
10.875,-164.91
10.890,-165.59
10.906,-166.74
10.921,-170.04
10.937,-175.85
10.953,-182.97
10.968,-189.33
10.984,-193.0
11.000,-193.2
11.015,-190.75
11.031,-187.54
11.046,-185.52
11.062,-185.52
11.078,-186.5
11.093,-185.72
11.109,-179.65
11.125,-165.43
11.140,-142.18
11.156,-111.72
11.171,-78.39
11.187,-47.86
11.203,-25.37
11.218,-14.23
11.234,-14.9
11.250,-25.12
11.265,-40.87
11.281,-57.7
11.296,-71.89
11.312,-80.99
11.328,-83.83
11.343,-80.17
11.359,-70.28
11.375,-54.84
11.390,-34.88
11.406,-11.84
11.421,12.33
11.437,35.13
11.453,53.74
11.468,65.45
11.484,68.42
11.500,62.45
11.515,49.2
11.531,31.93
11.546,14.3
11.562,-0.91
11.578,-12.7
11.593,-21.99
11.609,-30.83
11.625,-41.36
11.640,-54.89
11.656,-71.67
11.671,-91.06
11.687,-111.95
11.703,-132.84
11.718,-151.84
11.734,-166.62
11.750,-174.78
11.765,-174.47
11.781,-165.18
11.796,-147.98
11.812,-125.25
11.828,-100.07
11.843,-75.25
11.859,-52.76
11.875,-33.61
11.890,-17.94
11.906,-5.44
11.921,4.44
11.937,12.28
11.953,18.61
11.968,23.79
11.984,28.02
12.000,31.19
12.015,33.01
12.031,33.31
12.046,32.18
12.062,30.13
12.078,27.94
12.093,26.34
12.109,25.63
12.125,25.57
12.140,25.48
12.156,24.61
12.171,22.4
12.187,18.83
12.203,14.28
12.218,9.33
12.234,4.46
12.250,-0.21
12.265,-4.96
12.281,-10.36
12.296,-17.12
12.312,-25.75
12.328,-36.42
12.343,-48.59
12.359,-61.03
12.375,-71.8
12.390,-78.69
12.406,-79.78
12.421,-74.01
12.437,-61.63
12.453,-44.04
12.468,-23.51
12.484,-2.43
12.500,17.2
12.515,34.06
12.531,47.49
12.546,57.36
12.562,63.88
12.578,67.58
12.593,69.28
12.609,69.98
12.625,70.65
12.640,71.97
12.656,74.11
12.671,76.75
12.687,79.24
12.703,80.89
12.718,81.22
12.734,80.15
12.750,77.93
12.765,75.05
12.781,72.01
12.796,69.15
12.812,66.48
12.828,63.71
12.843,60.42
12.859,56.25
12.875,51.18
12.890,45.48
12.906,39.63
12.921,34.03
12.937,28.79
12.953,23.75
12.968,18.5
12.984,12.54
13.000,5.44
13.015,-3.13
13.031,-13.3
13.046,-24.84
13.062,-36.96
13.078,-48.19
13.093,-56.53
13.109,-59.89
13.125,-56.84
13.140,-47.15
13.156,-31.98
13.171,-13.58
13.187,5.46
13.203,23.04
13.218,37.94
13.234,49.86
13.250,59.06
13.265,65.9
13.281,70.56
13.296,73.11
13.312,73.71
13.328,72.81
13.343,71.11
13.359,69.38
13.375,68.12
13.390,67.41
13.406,66.89
13.421,66.0
13.437,64.22
13.453,61.28
13.468,57.31
13.484,52.68
13.500,47.93
13.515,43.5
13.531,39.65
13.546,36.35
13.562,33.36
13.578,30.38
13.593,27.14
13.609,23.52
13.625,19.52
13.640,15.14
13.656,10.37
13.671,5.11
13.687,-0.72
13.703,-7.13
13.718,-14.05
13.734,-21.42
13.750,-29.21
13.765,-37.48
13.781,-46.24
13.796,-55.22
13.812,-63.67
13.828,-70.36
13.843,-73.82
13.859,-72.77
13.875,-66.6
13.890,-55.62
13.906,-40.96
13.921,-24.27
13.937,-7.24
13.953,8.81
13.968,23.06
13.984,35.15
14.000,44.94
14.015,52.38
14.031,57.42
14.046,60.13
14.062,60.72
14.078,59.63
14.093,57.44
14.109,54.74
14.125,52.07
14.140,49.74
14.156,47.89
14.171,46.54
14.187,45.58
14.203,44.95
14.218,44.56
14.234,44.38
14.250,44.31
14.265,44.17
14.281,43.68
14.296,42.42
14.312,40.0
14.328,36.1
14.343,30.6
14.359,23.62
14.375,15.54
14.390,6.87
14.406,-1.83
14.421,-10.07
14.437,-17.48
14.453,-23.93
14.468,-29.55
14.484,-34.74
14.500,-40.13
14.515,-46.31
14.531,-53.57
14.546,-61.57
14.562,-69.23
14.578,-74.94
14.593,-77.0
14.609,-74.24
14.625,-66.4
14.640,-54.26
14.656,-39.36
14.671,-23.45
14.687,-8.04
14.703,5.92
14.718,17.97
14.734,27.98
14.750,35.86
14.765,41.51
14.781,44.78
14.796,45.66
14.812,44.49
14.828,42.0
14.843,39.14
14.859,36.86
14.875,35.78
14.890,35.94
14.906,36.96
14.921,38.12
14.937,38.82
14.953,38.68
14.968,37.73
14.984,36.18
15.000,34.24
15.015,31.96
15.031,29.19
15.046,25.7
15.062,21.41
15.078,16.51
15.093,11.43
15.109,6.69
15.125,2.63
15.140,-0.79
15.156,-3.98
15.171,-7.54
15.187,-11.98
15.203,-17.52
15.218,-24.09
15.234,-31.41
15.250,-39.12
15.265,-46.76
15.281,-53.66
15.296,-58.8
15.312,-60.9
15.328,-58.65
15.343,-51.3
15.359,-38.98
15.375,-22.87
15.390,-4.99
15.406,12.47
15.421,27.69
15.437,39.69
15.453,48.37
15.468,54.23
15.484,57.92
15.500,59.95
15.515,60.55
15.531,59.84
15.546,58.01
15.562,55.51
15.578,52.9
15.593,50.74
15.609,49.28
15.625,48.44
15.640,47.86
15.656,47.19
15.671,46.3
15.687,45.32
15.703,44.53
15.718,44.05
15.734,43.72
15.750,43.08
15.765,41.65
15.781,39.13
15.796,35.61
15.812,31.5
15.828,27.34
15.843,23.5
15.859,20.03
15.875,16.69
15.890,13.1
15.906,8.92
15.921,4.07
15.937,-1.32
15.953,-6.89
15.968,-12.26
15.984,-17.21
16.000,-21.7
16.015,-26.05
16.031,-30.75
16.046,-36.37
16.062,-43.19
16.078,-50.99
16.093,-58.9
16.109,-65.47
16.125,-69.0
16.140,-68.03
16.156,-61.79
16.171,-50.51
16.187,-35.24
16.203,-17.53
16.218,1.03
16.234,19.21
16.250,36.33
16.265,52.11
16.281,66.48
16.296,79.38
16.312,90.75
16.328,100.54
16.343,108.96
16.359,116.42
16.375,123.47
16.390,130.67
16.406,138.4
16.421,146.79
16.437,155.76
16.453,165.19
16.468,174.98
16.484,185.22
16.500,196.1
16.515,207.88
16.531,220.66
16.546,234.17
16.562,247.71
16.578,260.1
16.593,269.96
16.609,275.87
16.625,276.6
16.640,271.17
16.656,258.91
16.671,239.48
16.687,212.97
16.703,180.14
16.718,142.44
16.734,101.81
16.750,60.26
16.765,19.43
16.781,-19.74
16.796,-56.89
16.812,-91.88
16.828,-124.34
16.843,-153.38
16.859,-177.79
16.875,-196.43
16.890,-208.69
16.906,-214.8
16.921,-215.68
16.937,-212.63
16.953,-206.92
16.968,-199.56
16.984,-191.28
17.000,-182.65
17.015,-174.28
17.031,-166.74
17.046,-160.31
17.062,-154.75
17.078,-149.22
17.093,-142.62
17.109,-134.13
17.125,-123.84
17.140,-112.93
17.156,-103.22
17.171,-96.35
17.187,-92.98
17.203,-92.43
17.218,-92.94
17.234,-92.44
17.250,-89.41
17.265,-83.21
17.281,-74.07
17.296,-62.67
17.312,-49.7
17.328,-35.66
17.343,-21.08
17.359,-6.76
17.375,6.21
17.390,16.37
17.406,22.2
17.421,22.26
17.437,15.44
17.453,1.47
17.468,-18.65
17.484,-42.55
17.500,-66.79
17.515,-87.88
17.531,-103.47
17.546,-112.99
17.562,-117.62
17.578,-119.26
17.593,-119.24
17.609,-117.52
17.625,-112.83
17.640,-103.7
17.656,-89.62
17.671,-71.74
17.687,-52.52
17.703,-34.79
17.718,-20.68
17.734,-11.07
17.750,-5.68
17.765,-3.62
17.781,-3.93
17.796,-5.91
17.812,-9.16
17.828,-13.41
17.843,-18.46
17.859,-24.08
17.875,-30.1
17.890,-36.4
17.906,-42.8
17.921,-48.84
17.937,-53.67
17.953,-56.14
17.968,-55.07
17.984,-49.67
18.000,-39.84
18.015,-26.31
18.031,-10.52
18.046,5.77
18.062,20.83
18.078,33.36
18.093,42.73
18.109,48.96
18.125,52.66
18.140,54.77
18.156,56.35
18.171,58.5
18.187,62.18
18.203,68.12
18.218,76.64
18.234,87.5
18.250,99.76
18.265,111.91
18.281,122.14
18.296,128.66
18.312,130.1
18.328,125.63
18.343,115.06
18.359,98.91
18.375,78.47
18.390,55.73
18.406,33.15
18.421,13.05
18.437,-2.95
18.453,-14.52
18.468,-22.48
18.484,-28.56
18.500,-34.54
18.515,-41.77
18.531,-50.86
18.546,-61.81
18.562,-74.32
18.578,-87.95
18.593,-102.06
18.609,-115.68
18.625,-127.46
18.640,-135.82
18.656,-139.42
18.671,-137.61
18.687,-130.69
18.703,-119.94
18.718,-107.17
18.734,-94.24
18.750,-82.51
18.765,-72.63
18.781,-64.59
18.796,-57.98
18.812,-52.38
18.828,-47.5
18.843,-43.32
18.859,-39.86
18.875,-37.08
18.890,-34.81
18.906,-32.82
18.921,-30.95
18.937,-29.16
18.953,-27.53
18.968,-26.1
18.984,-24.78
19.000,-23.27
19.015,-21.24
19.031,-18.43
19.046,-14.83
19.062,-10.67
19.078,-6.44
19.093,-2.59
19.109,0.56
19.125,2.92
19.140,4.51
19.156,5.45
19.171,5.77
19.187,5.38
19.203,4.13
19.218,1.88
19.234,-1.35
19.250,-5.38
19.265,-9.77
19.281,-13.98
19.296,-17.48
19.312,-19.92
19.328,-21.18
19.343,-21.45
19.359,-21.24
19.375,-21.21
19.390,-21.97
19.406,-23.91
19.421,-26.91
19.437,-30.33
19.453,-33.0
19.468,-33.56
19.484,-30.83
19.500,-24.14
19.515,-13.61
19.531,-0.03
19.546,15.37
19.562,31.43
19.578,47.24
19.593,62.3
19.609,76.3
19.625,88.96
19.640,99.92
19.656,108.8
19.671,115.55
19.687,120.59
19.703,124.87
19.718,129.49
19.734,135.22
19.750,142.18
19.765,149.7
19.781,156.61
19.796,161.73
19.812,164.34
19.828,164.3
19.843,162.06
19.859,158.37
19.875,154.08
19.890,149.95
19.906,146.39
19.921,143.24
19.937,139.42
19.953,133.07
19.968,121.91
19.984,104.2
20.000,79.54
20.015,49.28
20.031,16.25
20.046,-16.26
20.062,-45.52
20.078,-70.09
20.093,-89.89
20.109,-105.79
20.125,-118.93
20.140,-130.4
20.156,-141.11
20.171,-151.72
20.187,-162.63
20.203,-173.66
20.218,-183.87
20.234,-191.48
20.250,-194.26
20.265,-190.01
20.281,-177.28
20.296,-155.77
20.312,-126.47
20.328,-91.54
20.343,-53.93
20.359,-16.89
20.375,16.64
20.390,44.4
20.406,65.12
20.421,78.6
20.437,85.58
20.453,87.53
20.468,86.3
20.484,83.81
20.500,81.54
20.515,80.27
20.531,79.74
20.546,78.74
20.562,75.35
20.578,67.64
20.593,54.27
20.609,35.03
20.625,11.06
20.640,-15.41
20.656,-41.57
20.671,-64.56
20.687,-82.06
20.703,-92.67
20.718,-96.13
20.734,-93.34
20.750,-86.14
20.765,-76.75
20.781,-67.27
20.796,-59.1
20.812,-52.71
20.828,-47.96
20.843,-44.81
20.859,-43.68
20.875,-45.59
20.890,-51.6
20.906,-62.19
20.921,-76.78
20.937,-93.71
20.953,-110.76
20.968,-125.69
20.984,-136.59
21.000,-141.95
21.015,-140.7
21.031,-132.28
21.046,-116.95
21.062,-96.09
21.078,-72.11
21.093,-47.95
21.109,-26.26
21.125,-8.71
21.140,4.27
21.156,13.22
21.171,19.13
21.187,22.98
21.203,25.53
21.218,27.27
21.234,28.53
21.250,29.6
21.265,30.76
21.281,32.26
21.296,34.19
21.312,36.51
21.328,38.99
21.343,41.36
21.359,43.39
21.375,45.01
21.390,46.33
21.406,47.53
21.421,48.74
21.437,49.88
21.453,50.71
21.468,50.88
21.484,50.17
21.500,48.58
21.515,46.39
21.531,43.99
21.546,41.73
21.562,39.78
21.578,38.14
21.593,36.74
21.609,35.51
21.625,34.48
21.640,33.68
21.656,33.08
21.671,32.48
21.687,31.57
21.703,30.17
21.718,28.25
21.734,26.08
21.750,24.04
21.765,22.49
21.781,21.62
21.796,21.38
21.812,21.58
21.828,21.95
21.843,22.29
21.859,22.43
21.875,22.27
21.890,21.6
21.906,20.2
21.921,17.91
21.937,14.71
21.953,10.89
21.968,6.94
21.984,3.51
22.000,1.09
22.015,-0.19
22.031,-0.63
22.046,-0.86
22.062,-1.59
22.078,-3.29
22.093,-6.0
22.109,-9.37
22.125,-12.96
22.140,-16.5
22.156,-20.06
22.171,-24.01
22.187,-28.83
22.203,-34.78
22.218,-41.68
22.234,-49.02
22.250,-56.1
22.265,-62.35
22.281,-67.53
22.296,-71.84
22.312,-75.81
22.328,-80.22
22.343,-85.91
22.359,-93.62
22.375,-103.68
22.390,-115.61
22.406,-127.97
22.421,-138.39
22.437,-144.09
22.453,-142.68
22.468,-132.98
22.484,-115.43
22.500,-92.06
22.515,-65.8
22.531,-39.74
22.546,-16.38
22.562,2.69
22.578,16.84
22.593,26.16
22.609,31.25
22.625,33.04
22.640,32.63
22.656,31.17
22.671,29.67
22.687,28.86
22.703,29.04
22.718,30.12
22.734,31.69
22.750,33.21
22.765,34.26
22.781,34.65
22.796,34.48
22.812,33.99
22.828,33.45
22.843,32.96
22.859,32.4
22.875,31.46
22.890,29.82
22.906,27.22
22.921,23.64
22.937,19.23
22.953,14.25
22.968,9.05
22.984,3.87
23.000,-1.22
23.015,-6.41
23.031,-12.17
23.046,-19.12
23.062,-27.8
23.078,-38.36
23.093,-50.28
23.109,-62.29
23.125,-72.48
23.140,-78.76
23.156,-79.41
23.171,-73.66
23.187,-61.91
23.203,-45.62
23.218,-26.91
23.234,-7.9
23.250,9.65
23.265,24.69
23.281,36.67
23.296,45.4
23.312,50.96
23.328,53.6
23.343,53.81
23.359,52.33
23.375,50.02
23.390,47.62
23.406,45.55
23.421,43.86
23.437,42.35
23.453,40.79
23.468,39.12
23.484,37.5
23.500,36.14
23.515,35.2
23.531,34.52
23.546,33.65
23.562,31.98
23.578,29.06
23.593,24.74
23.609,19.36
23.625,13.51
23.640,7.8
23.656,2.63
23.671,-2.07
23.687,-6.75
23.703,-12.11
23.718,-18.87
23.734,-27.55
23.750,-38.24
23.765,-50.38
23.781,-62.75
23.796,-73.5
23.812,-80.49
23.828,-81.81
23.843,-76.36
23.859,-64.25
23.875,-46.82
23.890,-26.29
23.906,-5.23
23.921,14.1
23.937,30.16
23.953,42.2
23.968,50.16
23.984,54.47
24.000,55.76
24.015,54.81
24.031,52.43
24.046,49.44
24.062,46.53
24.078,44.2
24.093,42.65
24.109,41.76
24.125,41.27
24.140,40.82
24.156,40.13
24.171,39.1
24.187,37.75
24.203,36.09
24.218,34.06
24.234,31.49
24.250,28.13
24.265,23.83
24.281,18.61
24.296,12.73
24.312,6.62
24.328,0.68
24.343,-4.91
24.359,-10.4
24.375,-16.43
24.390,-23.86
24.406,-33.37
24.421,-45.14
24.437,-58.44
24.453,-71.61
24.468,-82.32
24.484,-88.09
24.500,-87.06
24.515,-78.58
24.531,-63.49
24.546,-43.84
24.562,-22.36
24.578,-1.62
24.593,16.49
24.609,31.01
24.625,41.85
24.640,49.33
24.656,53.95
24.671,56.18
24.687,56.52
24.703,55.59
24.718,54.08
24.734,52.66
24.750,51.78
24.765,51.47
24.781,51.4
24.796,51.0
24.812,49.84
24.828,47.83
24.843,45.23
24.859,42.53
24.875,40.08
24.890,37.87
24.906,35.45
24.921,32.16
24.937,27.49
24.953,21.35
24.968,14.2
24.984,6.89
25.000,0.25
25.015,-5.22
25.031,-9.69
25.046,-13.91
25.062,-19.01
25.078,-26.11
25.093,-35.94
25.109,-48.39
25.125,-62.37
25.140,-75.86
25.156,-86.33
25.171,-91.33
25.187,-89.24
25.203,-79.81
25.218,-64.2
25.234,-44.66
25.250,-23.78
25.265,-3.79
25.281,13.91
25.296,28.77
25.312,40.76
25.328,50.09
25.343,56.91
25.359,61.4
25.375,63.81
25.390,64.62
25.406,64.5
25.421,64.06
25.437,63.73
25.453,63.6
25.468,63.56
25.484,63.37
25.500,62.87
25.515,62.05
25.531,60.99
25.546,59.8
25.562,58.46
25.578,56.88
25.593,54.88
25.609,52.23
25.625,48.71
25.640,44.17
25.656,38.53
25.671,31.89
25.687,24.54
25.703,16.9
25.718,9.42
25.734,2.38
25.750,-4.23
25.765,-10.74
25.781,-17.71
25.796,-25.8
25.812,-35.47
25.828,-46.8
25.843,-59.29
25.859,-71.81
25.875,-82.62
25.890,-89.78
25.906,-91.54
25.921,-86.91
25.937,-76.04
25.953,-60.23
25.968,-41.53
25.984,-22.18
26.000,-3.98
26.015,12.05
26.031,25.61
26.046,36.89
26.062,46.08
26.078,53.27
26.093,58.36
26.109,61.35
26.125,62.5
26.140,62.36
26.156,61.66
26.171,61.01
26.187,60.75
26.203,60.86
26.218,61.08
26.234,61.06
26.250,60.51
26.265,59.34
26.281,57.58
26.296,55.36
26.312,52.82
26.328,50.1
26.343,47.18
26.359,43.99
26.375,40.33
26.390,35.98
26.406,30.79
26.421,24.74
26.437,17.93
26.453,10.61
26.468,3.08
26.484,-4.39
26.500,-11.62
26.515,-18.6
26.531,-25.51
26.546,-32.7
26.562,-40.59
26.578,-49.5
26.593,-59.34
26.609,-69.45
26.625,-78.54
26.640,-84.91
26.656,-86.89
26.671,-83.36
26.687,-74.15
26.703,-60.16
26.718,-43.09
26.734,-24.89
26.750,-7.23
26.765,8.82
26.781,22.85
26.796,34.82
26.812,44.79
26.828,52.7
26.843,58.4
26.859,61.87
26.875,63.37
26.890,63.46
26.906,62.86
26.921,62.2
26.937,61.73
26.953,61.4
26.968,60.95
26.984,60.19
27.000,59.16
27.015,58.09
27.031,57.27
27.046,56.75
27.062,56.26
27.078,55.21
27.093,52.98
27.109,49.23
27.125,44.01
27.140,37.81
27.156,31.28
27.171,24.97
27.187,19.15
27.203,13.72
27.218,8.32
27.234,2.62
27.250,-3.54
27.265,-10.01
27.281,-16.4
27.296,-22.33
27.312,-27.58
27.328,-32.23
27.343,-36.71
27.359,-41.59
27.375,-47.48
27.390,-54.8
27.406,-63.67
27.421,-73.75
27.437,-84.14
27.453,-93.42
27.468,-99.76
27.484,-101.37
27.500,-97.04
27.515,-86.6
27.531,-71.08
27.546,-52.47
27.562,-33.04
27.578,-14.72
27.593,1.38
27.609,15.01
27.625,26.43
27.640,35.97
27.656,43.74
27.671,49.63
27.687,53.56
27.703,55.68
27.718,56.48
27.734,56.66
27.750,56.82
27.765,57.25
27.781,57.87
27.796,58.33
27.812,58.29
27.828,57.58
27.843,56.33
27.859,54.87
27.875,53.52
27.890,52.45
27.906,51.51
27.921,50.35
27.937,48.46
27.953,45.49
27.968,41.38
27.984,36.4
28.000,31.07
28.015,25.86
28.031,20.98
28.046,16.27
28.062,11.3
28.078,5.59
28.093,-1.08
28.109,-8.5
28.125,-16.11
28.140,-23.13
28.156,-28.97
28.171,-33.43
28.187,-36.84
28.203,-39.95
28.218,-43.67
28.234,-48.83
28.250,-55.91
28.265,-64.88
28.281,-75.15
28.296,-85.57
28.312,-94.51
28.328,-100.16
28.343,-100.9
28.359,-95.79
28.375,-84.89
28.390,-69.33
28.406,-51.06
28.421,-32.27
28.437,-14.85
28.453,0.05
28.468,12.09
28.484,21.5
28.500,28.76
28.515,34.25
28.531,38.19
28.546,40.71
28.562,41.99
28.578,42.38
28.593,42.35
28.609,42.34
28.625,42.61
28.640,43.19
28.656,43.87
28.671,44.38
28.687,44.55
28.703,44.34
28.718,43.81
28.734,43.03
28.750,41.95
28.765,40.43
28.781,38.25
28.796,35.26
28.812,31.42
28.828,26.92
28.843,22.12
28.859,17.43
28.875,13.21
28.890,9.58
28.906,6.38
28.921,3.14
28.937,-0.65
28.953,-5.36
28.968,-10.97
28.984,-17.06
29.000,-22.93
29.015,-27.94
29.031,-31.79
29.046,-34.68
29.062,-37.23
29.078,-40.32
29.093,-44.72
29.109,-50.83
29.125,-58.4
29.140,-66.52
29.156,-73.74
29.171,-78.38
29.187,-79.0
29.203,-74.77
29.218,-65.69
29.234,-52.59
29.250,-36.8
29.265,-19.82
29.281,-2.94
29.296,12.92
29.312,27.16
29.328,39.48
29.343,49.69
29.359,57.7
29.375,63.59
29.390,67.68
29.406,70.51
29.421,72.79
29.437,75.2
29.453,78.18
29.468,81.81
29.484,85.83
29.500,89.87
29.515,93.7
29.531,97.46
29.546,101.63
29.562,106.8
29.578,113.3
29.593,120.87
29.609,128.68
29.625,135.67
29.640,141.04
29.656,144.59
29.671,146.92
29.687,149.09
29.703,152.25
29.718,157.14
29.734,164.03
29.750,172.61
29.765,182.28
29.781,192.12
29.796,200.94
29.812,207.17
29.828,209.07
29.843,205.29
29.859,195.37
29.875,180.08
29.890,160.96
29.906,139.55
29.921,116.48
29.937,91.08
29.953,61.99
29.968,28.33
29.984,-9.19
30.000,-48.1
30.015,-85.01
30.031,-117.12
30.046,-143.4
30.062,-164.85
30.078,-183.34
30.093,-200.11
30.109,-214.58
30.125,-224.44
30.140,-226.98
30.156,-220.7
30.171,-206.52
30.187,-187.65
30.203,-168.37
30.218,-152.31
30.234,-141.2
30.250,-134.64
30.265,-130.82
30.281,-127.75
30.296,-124.09
30.312,-119.31
30.328,-113.5
30.343,-106.99
30.359,-100.4
30.375,-94.79
30.390,-91.65
30.406,-92.46
30.421,-97.86
30.437,-107.15
30.453,-118.33
30.468,-128.85
30.484,-136.67
30.500,-140.92
30.515,-141.92
30.531,-140.53
30.546,-137.52
30.562,-133.29
30.578,-128.1
30.593,-122.5
30.609,-117.36
30.625,-113.56
30.640,-111.41
30.656,-110.28
30.671,-108.9
30.687,-105.99
30.703,-101.0
30.718,-94.38
30.734,-87.43
30.750,-81.76
30.765,-78.62
30.781,-78.41
30.796,-80.48
30.812,-83.3
30.828,-84.77
30.843,-82.79
30.859,-75.87
30.875,-63.6
30.890,-46.74
30.906,-27.01
30.921,-6.53
30.937,12.8
30.953,29.79
30.968,43.99
30.984,55.5
31.000,64.65
31.015,71.62
31.031,76.42
31.046,78.91
31.062,79.1
31.078,77.31
31.093,74.15
31.109,70.46
31.125,67.07
31.140,64.57
31.156,63.14
31.171,62.6
31.187,62.45
31.203,62.2
31.218,61.4
31.234,59.88
31.250,57.61
31.265,54.68
31.281,51.22
31.296,47.32
31.312,43.06
31.328,38.46
31.343,33.64
31.359,28.65
31.375,23.62
31.390,18.6
31.406,13.58
31.421,8.46
31.437,3.14
31.453,-2.47
31.468,-8.36
31.484,-14.46
31.500,-20.66
31.515,-26.91
31.531,-33.35
31.546,-40.28
31.562,-48.06
31.578,-56.81
31.593,-66.13
31.609,-74.9
31.625,-81.47
31.640,-84.08
31.656,-81.46
31.671,-73.35
31.687,-60.61
31.703,-44.99
31.718,-28.52
31.734,-12.96
31.750,0.63
31.765,11.88
31.781,20.93
31.796,28.09
31.812,33.55
31.828,37.43
31.843,39.82
31.859,40.95
31.875,41.23
31.890,41.18
31.906,41.24
31.921,41.64
31.937,42.35
31.953,43.17
31.968,43.86
31.984,44.31
32.000,44.5
32.015,44.52
32.031,44.34
32.046,43.84
32.062,42.75
32.078,40.83
32.093,37.94
32.109,34.18
32.125,29.78
32.140,25.0
32.156,19.98
32.171,14.71
32.187,9.07
32.203,2.96
32.218,-3.54
32.234,-10.11
32.250,-16.28
32.265,-21.64
32.281,-26.07
32.296,-29.84
32.312,-33.58
32.328,-38.09
32.343,-44.07
32.359,-51.71
32.375,-60.53
32.390,-69.28
32.406,-76.18
32.421,-79.34
32.437,-77.37
32.453,-69.82
32.468,-57.38
32.484,-41.64
32.500,-24.64
32.515,-8.24
32.531,6.23
32.546,18.06
32.562,27.08
32.578,33.37
32.593,37.19
32.609,38.81
32.625,38.67
32.640,37.38
32.656,35.61
32.671,34.05
32.687,33.17
32.703,33.19
32.718,34.08
32.734,35.6
32.750,37.43
32.765,39.2
32.781,40.55
32.796,41.11
32.812,40.63
32.828,38.96
32.843,36.21
32.859,32.63
32.875,28.56
32.890,24.31
32.906,20.02
32.921,15.7
32.937,11.25
32.953,6.63
32.968,1.9
32.984,-2.83
33.000,-7.43
33.015,-11.91
33.031,-16.4
33.046,-21.18
33.062,-26.57
33.078,-32.95
33.093,-40.62
33.109,-49.75
33.125,-60.08
33.140,-70.8
33.156,-80.45
33.171,-87.21
33.187,-89.34
33.203,-85.71
33.218,-76.25
33.234,-61.97
33.250,-44.67
33.265,-26.44
33.281,-9.06
33.296,6.25
33.312,18.92
33.328,28.82
33.343,36.09
33.359,40.9
33.375,43.56
33.390,44.46
33.406,44.18
33.421,43.35
33.437,42.56
33.453,42.13
33.468,42.1
33.484,42.22
33.500,42.16
33.515,41.65
33.531,40.65
33.546,39.21
33.562,37.45
33.578,35.43
33.593,33.14
33.609,30.56
33.625,27.71
33.640,24.67
33.656,21.49
33.671,18.2
33.687,14.68
33.703,10.82
33.718,6.55
33.734,1.99
33.750,-2.66
33.765,-7.2
33.781,-11.57
33.796,-16.0
33.812,-20.92
33.828,-26.85
33.843,-34.09
33.859,-42.6
33.875,-51.77
33.890,-60.53
33.906,-67.51
33.921,-71.22
33.937,-70.45
33.953,-64.54
33.968,-53.54
33.984,-38.18
34.000,-19.77
34.015,0.2
34.031,20.28
34.046,39.23
34.062,56.1
34.078,70.18
34.093,81.0
34.109,88.42
34.125,92.78
34.140,95.01
34.156,96.48
34.171,98.64
34.187,102.46
34.203,108.19
34.218,115.11
34.234,122.02
34.250,127.79
34.265,131.99
34.281,135.13
34.296,138.41
34.312,143.18
34.328,150.26
34.343,159.61
34.359,170.21
34.375,180.25
34.390,187.51
34.406,189.76
34.421,185.41
34.437,174.1
34.453,157.17
34.468,137.56
34.484,118.94
34.500,104.17
34.515,93.92
34.531,85.94
34.546,75.66
34.562,58.0
34.578,29.54
34.593,-9.89
34.609,-57.01
34.625,-106.14
34.640,-151.14
34.656,-187.12
34.671,-211.46
34.687,-223.77
34.703,-225.3
34.718,-218.02
34.734,-204.07
34.750,-185.58
34.765,-164.64
34.781,-143.38
34.796,-123.88
34.812,-107.75
34.828,-95.86
34.843,-88.04
34.859,-83.17
34.875,-79.64
34.890,-75.94
34.906,-71.17
34.921,-65.28
34.937,-58.86
34.953,-52.7
34.968,-47.2
34.984,-42.12
35.000,-36.52
35.015,-29.21
35.031,-19.25
35.046,-6.47
35.062,8.28
35.078,23.4
35.093,37.07
35.109,47.84
35.125,55.03
35.140,58.82
35.156,59.96
35.171,59.4
35.187,57.84
35.203,55.63
35.218,52.74
35.234,49.02
35.250,44.32
35.265,38.62
35.281,32.04
35.296,24.73
35.312,16.79
35.328,8.43
35.343,0.11
35.359,-7.31
35.375,-12.49
35.390,-13.85
35.406,-10.07
35.421,-0.6
35.437,13.99
35.453,32.2
35.468,52.04
35.484,71.69
35.500,89.72
35.515,105.05
35.531,116.52
35.546,122.66
35.562,121.85
35.578,112.89
35.593,95.59
35.609,71.22
35.625,42.41
35.640,12.46
35.656,-15.57
35.671,-39.57
35.687,-58.76
35.703,-73.59
35.718,-85.28
35.734,-95.04
35.750,-103.66
35.765,-111.18
35.781,-117.02
35.796,-120.42
35.812,-120.92
35.828,-118.49
35.843,-113.28
35.859,-105.28
35.875,-94.36
35.890,-80.68
35.906,-65.25
35.921,-49.94
35.937,-36.83
35.953,-27.21
35.968,-20.82
35.984,-15.94
36.000,-10.46
36.015,-3.17
36.031,5.35
36.046,13.0
36.062,17.34
36.078,17.05
36.093,12.65
36.109,6.17
36.125,0.01
36.140,-4.26
36.156,-6.5
36.171,-7.7
36.187,-9.17
36.203,-11.77
36.218,-15.61
36.234,-20.03
36.250,-24.21
36.265,-27.66
36.281,-30.43
36.296,-33.01
36.312,-35.86
36.328,-39.1
36.343,-42.43
36.359,-45.28
36.375,-47.06
36.390,-47.52
36.406,-46.62
36.421,-44.46
36.437,-41.13
36.453,-36.62
36.468,-31.04
36.484,-24.73
36.500,-18.36
36.515,-12.84
36.531,-9.09
36.546,-7.77
36.562,-9.12
36.578,-12.91
36.593,-18.58
36.609,-25.41
36.625,-32.67
36.640,-39.83
36.656,-46.54
36.671,-52.86
36.687,-59.19
36.703,-66.28
36.718,-74.8
36.734,-84.81
36.750,-95.25
36.765,-103.86
36.781,-107.76
36.796,-104.48
36.812,-93.09
36.828,-74.62
36.843,-51.81
36.859,-28.06
36.875,-6.32
36.890,11.71
36.906,25.49
36.921,35.17
36.937,41.0
36.953,43.1
36.968,41.72
36.984,37.54
37.000,31.9
37.015,26.47
37.031,22.69
37.046,21.26
37.062,21.96
37.078,23.91
37.093,26.13
37.109,28.0
37.125,29.56
37.140,31.33
37.156,33.96
37.171,37.75
37.187,42.49
37.203,47.45
37.218,51.68
37.234,54.4
37.250,55.31
37.265,54.6
37.281,53.0
37.296,51.39
37.312,50.49
37.328,50.59
37.343,51.39
37.359,52.05
37.375,51.47
37.390,48.63
37.406,43.05
37.421,35.0
37.437,25.6
37.453,16.61
37.468,10.01
37.484,7.43
37.500,9.62
37.515,16.0
37.531,24.64
37.546,32.55
37.562,36.52
37.578,34.16
37.593,24.74
37.609,9.55
37.625,-8.67
37.640,-26.76
37.656,-42.42
37.671,-54.86
37.687,-64.88
37.703,-74.0
37.718,-83.49
37.734,-93.7
37.750,-103.89
37.765,-112.83
37.781,-119.43
37.796,-123.11
37.812,-123.82
37.828,-121.66
37.843,-116.57
37.859,-108.28
37.875,-96.68
37.890,-82.17
37.906,-65.97
37.921,-49.89
37.937,-35.88
37.953,-25.46
37.968,-19.25
37.984,-17.09
38.000,-18.37
38.015,-22.5
38.031,-29.19
38.046,-38.35
38.062,-49.63
38.078,-61.99
38.093,-73.44
38.109,-81.41
38.125,-83.5
38.140,-78.29
38.156,-65.95
38.171,-48.2
38.187,-27.71
38.203,-7.27
38.218,11.07
38.234,26.36
38.250,38.62
38.265,48.36
38.281,56.09
38.296,61.97
38.312,65.86
38.328,67.57
38.343,67.15
38.359,65.03
38.375,61.97
38.390,58.74
38.406,55.93
38.421,53.68
38.437,51.79
38.453,49.88
38.468,47.73
38.484,45.36
38.500,42.98
38.515,40.84
38.531,39.08
38.546,37.78
38.562,37.14
38.578,37.54
38.593,39.4
38.609,42.68
38.625,46.31
38.640,47.97
38.656,44.5
38.671,32.85
38.687,11.32
38.703,-19.52
38.718,-56.7
38.734,-95.44
38.750,-130.34
38.765,-156.61
38.781,-171.02
38.796,-172.31
38.812,-161.11
38.828,-139.55
38.843,-110.73
38.859,-78.14
38.875,-45.04
38.890,-14.03
38.906,13.29
38.921,36.49
38.937,56.06
38.953,73.0
38.968,88.02
38.984,100.77
39.000,109.65
39.015,112.4
39.031,107.28
39.046,94.39
39.062,76.11
39.078,56.6
39.093,40.32
39.109,30.42
39.125,27.83
39.140,31.31
39.156,38.4
39.171,46.57
39.187,53.87
39.203,59.08
39.218,61.3
39.234,59.79
39.250,54.03
39.265,44.19
39.281,31.36
39.296,17.44
39.312,4.46
39.328,-6.19
39.343,-14.24
39.359,-20.75
39.375,-27.56
39.390,-36.61
39.406,-49.3
39.421,-65.9
39.437,-85.46
39.453,-105.93
39.468,-124.6
39.484,-138.64
39.500,-145.92
39.515,-145.49
39.531,-137.95
39.546,-125.13
39.562,-109.49
39.578,-93.2
39.593,-77.52
39.609,-62.57
39.625,-47.82
39.640,-32.74
39.656,-17.39
39.671,-2.55
39.687,10.61
39.703,21.18
39.718,28.98
39.734,34.66
39.750,39.37
39.765,44.17
39.781,49.44
39.796,54.81
39.812,59.34
39.828,62.11
39.843,62.63
39.859,61.04
39.875,57.92
39.890,53.99
39.906,49.71
39.921,45.16
39.937,40.11
39.953,34.27
39.968,27.47
39.984,19.84
40.000,11.72
40.015,3.54
40.031,-4.43
40.046,-12.14
40.062,-19.87
40.078,-28.09
40.093,-37.32
40.109,-47.95
40.125,-60.18
40.140,-73.91
40.156,-88.64
40.171,-103.38
40.187,-116.61
40.203,-126.44
40.218,-130.92
40.234,-128.62
40.250,-119.05
40.265,-102.92
40.281,-81.98
40.296,-58.53
40.312,-34.8
40.328,-12.47
40.343,7.41
40.359,24.36
40.375,38.16
40.390,48.72
40.406,56.02
40.421,60.29
40.437,62.13
40.453,62.52
40.468,62.64
40.484,63.5
40.500,65.59
40.515,68.69
40.531,72.06
40.546,74.73
40.562,76.02
40.578,75.72
40.593,74.2
40.609,72.1
40.625,70.02
40.640,68.2
40.656,66.43
40.671,64.24
40.687,61.03
40.703,56.53
40.718,50.77
40.734,44.24
40.750,37.57
40.765,31.35
40.781,25.89
40.796,21.04
40.812,16.33
40.828,11.13
40.843,4.89
40.859,-2.7
40.875,-11.65
40.890,-21.66
40.906,-31.96
40.921,-41.36
40.937,-48.27
40.953,-50.98
40.968,-48.15
40.984,-39.33
41.000,-25.26
41.015,-7.72
41.031,11.07
41.046,29.03
41.062,44.85
41.078,58.07
41.093,68.85
41.109,77.54
41.125,84.41
41.140,89.48
41.156,92.7
41.171,94.1
41.187,93.96
41.203,92.77
41.218,91.08
41.234,89.27
41.250,87.38
41.265,85.15
41.281,82.12
41.296,77.95
41.312,72.68
41.328,66.75
41.343,60.87
41.359,55.69
41.375,51.54
41.390,48.23
41.406,45.18
41.421,41.7
41.437,37.23
41.453,31.63
41.468,25.15
41.484,18.3
41.500,11.63
41.515,5.46
41.531,-0.16
41.546,-5.51
41.562,-11.02
41.578,-17.18
41.593,-24.34
41.609,-32.69
41.625,-42.24
41.640,-52.68
41.656,-63.36
41.671,-73.17
41.687,-80.71
41.703,-84.52
41.718,-83.53
41.734,-77.46
41.750,-66.87
41.765,-53.09
41.781,-37.66
41.796,-22.0
41.812,-7.14
41.828,6.26
41.843,17.75
41.859,26.98
41.875,33.73
41.890,38.03
41.906,40.22
41.921,40.97
41.937,41.03
41.953,40.96
41.968,41.02
41.984,41.07
42.000,40.84
42.015,40.01
42.031,38.49
42.046,36.42
42.062,34.07
42.078,31.68
42.093,29.34
42.109,26.85
42.125,23.83
42.140,19.85
42.156,14.68
42.171,8.41
42.187,1.46
42.203,-5.55
42.218,-11.95
42.234,-17.25
42.250,-21.27
42.265,-24.2
42.281,-26.59
42.296,-29.27
42.312,-33.21
42.328,-39.15
42.343,-47.34
42.359,-57.13
42.375,-66.93
42.390,-74.55
42.406,-77.76
42.421,-75.05
42.437,-66.14
42.453,-52.09
42.468,-34.87
42.484,-16.71
42.500,0.54
42.515,15.82
42.531,28.74
42.546,39.33
42.562,47.67
42.578,53.69
42.593,57.24
42.609,58.34
42.625,57.36
42.640,55.04
42.656,52.3
42.671,49.89
42.687,48.22
42.703,47.21
42.718,46.46
42.734,45.59
42.750,44.39
42.765,42.97
42.781,41.61
42.796,40.59
42.812,39.93
42.828,39.38
42.843,38.49
42.859,36.85
42.875,34.24
42.890,30.75
42.906,26.69
42.921,22.44
42.937,18.33
42.953,14.41
42.968,10.6
42.984,6.64
43.000,2.24
43.015,-2.83
43.031,-8.78
43.046,-15.75
43.062,-23.84
43.078,-32.89
43.093,-42.33
43.109,-50.97
43.125,-57.18
43.140,-59.18
43.156,-55.63
43.171,-46.18
43.187,-31.69
43.203,-14.09
43.218,4.17
43.234,20.84
43.250,34.39
43.265,44.26
43.281,50.71
43.296,54.48
43.312,56.3
43.328,56.72
43.343,56.07
43.359,54.59
43.375,52.58
43.390,50.49
43.406,48.74
43.421,47.62
43.437,47.1
43.453,46.93
43.468,46.74
43.484,46.26
43.500,45.46
43.515,44.5
43.531,43.57
43.546,42.77
43.562,41.98
43.578,40.98
43.593,39.54
43.609,37.56
43.625,34.99
43.640,31.78
43.656,27.75
43.671,22.53
43.687,15.73
43.703,7.08
43.718,-3.34
43.734,-15.02
43.750,-27.18
43.765,-38.97
43.781,-49.77
43.796,-59.36
43.812,-68.01
43.828,-76.23
43.843,-84.57
43.859,-93.31
43.875,-102.19
43.890,-110.32
43.906,-116.34
43.921,-118.68
43.937,-116.07
43.953,-107.99
43.968,-94.85
43.984,-77.91
44.000,-58.9
44.015,-39.57
44.031,-21.26
44.046,-4.82
44.062,9.32
44.078,20.93
44.093,29.87
44.109,36.09
44.125,39.74
44.140,41.26
44.156,41.37
44.171,40.87
44.187,40.42
44.203,40.41
44.218,40.88
44.234,41.71
44.250,42.77
44.265,44.01
44.281,45.5
44.296,47.31
44.312,49.32
44.328,51.28
44.343,52.82
44.359,53.65
44.375,53.72
44.390,53.25
44.406,52.55
44.421,51.93
44.437,51.48
44.453,51.14
44.468,50.75
44.484,50.24
44.500,49.68
44.515,49.23
44.531,49.01
44.546,48.93
44.562,48.75
44.578,48.17
44.593,47.09
44.609,45.69
44.625,44.45
44.640,43.79
44.656,43.9
44.671,44.59
44.687,45.51
44.703,46.63
44.718,48.64
44.734,53.06
44.750,61.86
44.765,76.8
44.781,98.79
44.796,127.44
44.812,161.11
44.828,196.99
44.843,231.35
44.859,259.67
44.875,277.33
44.890,280.56
44.906,267.76
44.921,240.45
44.937,203.34
44.953,163.02
44.968,125.83
44.984,95.84
45.000,73.72
45.015,57.36
45.031,43.36
45.046,28.85
45.062,12.59
45.078,-5.14
45.093,-23.33
45.109,-41.18
45.125,-58.41
45.140,-75.08
45.156,-91.05
45.171,-105.58
45.187,-117.59
45.203,-126.08
45.218,-130.74
45.234,-132.0
45.250,-130.76
45.265,-127.77
45.281,-123.21
45.296,-116.72
45.312,-107.84
45.328,-96.65
45.343,-84.11
45.359,-71.97
45.375,-62.19
45.390,-56.25
45.406,-54.73
45.421,-57.21
45.437,-62.63
45.453,-69.6
45.468,-76.71
45.484,-82.59
45.500,-86.08
45.515,-86.53
45.531,-84.17
45.546,-80.43
45.562,-77.69
45.578,-78.48
45.593,-84.33
45.609,-94.92
45.625,-107.89
45.640,-119.79
45.656,-127.35
45.671,-128.83
45.687,-124.46
45.703,-115.96
45.718,-105.42
45.734,-94.2
45.750,-82.49
45.765,-69.62
45.781,-54.88
45.796,-38.22
45.812,-20.47
45.828,-3.05
45.843,12.77
45.859,26.37
45.875,37.84
45.890,47.72
45.906,56.45
45.921,63.99
45.937,69.69
45.953,72.66
45.968,72.11
45.984,67.82
46.000,60.4
46.015,50.95
46.031,40.67
46.046,30.32
46.062,19.87
46.078,8.66
46.093,-4.21
46.109,-19.33
46.125,-36.69
46.140,-55.86
46.156,-76.42
46.171,-98.3
46.187,-121.81
46.203,-147.23
46.218,-174.29
46.234,-201.89
46.250,-228.21
46.265,-251.38
46.281,-270.04
46.296,-283.61
46.312,-292.0
46.328,-294.92
46.343,-291.5
46.359,-280.24
46.375,-259.77
46.390,-229.71
46.406,-191.39
46.421,-147.74
46.437,-102.48
46.453,-58.86
46.468,-18.58
46.484,18.28
46.500,52.43
46.515,83.85
46.531,110.73
46.546,129.73
46.562,137.51
46.578,132.82
46.593,117.83
46.609,97.87
46.625,79.46
46.640,67.87
46.656,65.21
46.671,70.19
46.687,79.38
46.703,89.16
46.718,97.18
46.734,102.72
46.750,106.04
46.765,107.44
46.781,106.7
46.796,103.16
46.812,96.22
46.828,85.86
46.843,72.79
46.859,58.19
46.875,43.4
46.890,29.38
46.906,16.58
46.921,4.91
46.937,-6.03
46.953,-16.64
46.968,-27.19
46.984,-37.61
47.000,-47.69
47.015,-57.27
47.031,-66.37
47.046,-75.41
47.062,-85.05
47.078,-95.89
47.093,-108.0
47.109,-120.57
47.125,-131.85
47.140,-139.53
47.156,-141.45
47.171,-136.46
47.187,-124.85
47.203,-108.46
47.218,-89.95
47.234,-72.01
47.250,-56.55
47.265,-44.31
47.281,-35.05
47.296,-28.08
47.312,-22.79
47.328,-18.97
47.343,-16.61
47.359,-15.71
47.375,-15.92
47.390,-16.5
47.406,-16.67
47.421,-15.89
47.437,-14.16
47.453,-11.89
47.468,-9.69
47.484,-7.94
47.500,-6.73
47.515,-5.82
47.531,-4.98
47.546,-4.21
47.562,-3.84
47.578,-4.4
47.593,-6.29
47.609,-9.64
47.625,-14.09
47.640,-19.06
47.656,-23.95
47.671,-28.45
47.687,-32.68
47.703,-37.09
47.718,-42.29
47.734,-48.81
47.750,-56.94
47.765,-66.58
47.781,-77.17
47.796,-87.66
47.812,-96.55
47.828,-102.08
47.843,-102.55
47.859,-96.77
47.875,-84.4
47.890,-66.14
47.906,-43.6
47.921,-18.92
47.937,5.68
47.953,28.28
47.968,47.43
47.984,62.19
48.000,72.07
48.015,76.99
48.031,77.35
48.046,73.97
48.062,68.08
48.078,61.02
48.093,54.03
48.109,47.91
48.125,42.98
48.140,39.19
48.156,36.36
48.171,34.4
48.187,33.38
48.203,33.45
48.218,34.57
48.234,36.4
48.250,38.18
48.265,39.03
48.281,38.15
48.296,35.08
48.312,29.78
48.328,22.62
48.343,14.2
48.359,5.16
48.375,-4.02
48.390,-13.09
48.406,-22.12
48.421,-31.48
48.437,-41.67
48.453,-53.12
48.468,-65.86
48.484,-79.25
48.500,-91.88
48.515,-101.75
48.531,-106.73
48.546,-105.22
48.562,-96.63
48.578,-81.63
48.593,-61.95
48.609,-39.91
48.625,-17.76
48.640,2.74
48.656,20.54
48.671,35.13
48.687,46.34
48.703,54.09
48.718,58.45
48.734,59.73
48.750,58.6
48.765,56.06
48.781,53.22
48.796,51.01
48.812,49.89
48.828,49.79
48.843,50.24
48.859,50.72
48.875,50.88
48.890,50.7
48.906,50.44
48.921,50.35
48.937,50.44
48.953,50.34
48.968,49.38
48.984,46.81
49.000,42.23
49.015,35.71
49.031,27.87
49.046,19.6
49.062,11.72
49.078,4.59
49.093,-1.91
49.109,-8.39
49.125,-15.59
49.140,-24.11
49.156,-34.17
49.171,-45.44
49.187,-56.98
49.203,-67.33
49.218,-74.78
49.234,-77.64
49.250,-74.77
49.265,-65.8
49.281,-51.33
49.296,-32.74
49.312,-11.79
49.328,9.71
49.343,30.16
49.359,48.23
49.375,62.9
49.390,73.47
49.406,79.6
49.421,81.53
49.437,80.01
49.453,76.21
49.468,71.44
49.484,66.75
49.500,62.8
49.515,59.87
49.531,57.93
49.546,56.8
49.562,56.28
49.578,56.17
49.593,56.24
49.609,56.34
49.625,56.27
49.640,55.9
49.656,55.05
49.671,53.5
49.687,51.03
49.703,47.48
49.718,42.82
49.734,37.26
49.750,31.21
49.765,25.13
49.781,19.28
49.796,13.64
49.812,7.79
49.828,1.14
49.843,-6.9
49.859,-16.63
49.875,-27.77
49.890,-39.32
49.906,-49.67
49.921,-56.84
49.937,-59.0
49.953,-55.01
49.968,-44.82
49.984,-29.49
50.000,-10.97
50.015,8.54
50.031,27.1
50.046,43.4
50.062,56.77
50.078,66.98
50.093,74.01
50.109,77.83
50.125,78.62
50.140,76.79
50.156,73.14
50.171,68.68
50.187,64.43
50.203,61.12
50.218,59.02
50.234,57.9
50.250,57.25
50.265,56.57
50.281,55.55
50.296,54.17
50.312,52.58
50.328,50.93
50.343,49.22
50.359,47.18
50.375,44.44
50.390,40.64
50.406,35.65
50.421,29.56
50.437,22.76
50.453,15.75
50.468,9.0
50.484,2.85
50.500,-2.58
50.515,-7.43
50.531,-12.11
50.546,-17.19
50.562,-23.37
50.578,-31.11
50.593,-40.43
50.609,-50.63
50.625,-60.21
50.640,-67.2
50.656,-69.66
50.671,-66.28
50.687,-56.86
50.703,-42.35
50.718,-24.62
50.734,-5.87
50.750,11.89
50.765,27.24
50.781,39.47
50.796,48.35
50.812,54.06
50.828,56.87
50.843,57.19
50.859,55.56
50.875,52.72
50.890,49.54
50.906,46.85
50.921,45.24
50.937,44.87
50.953,45.42
50.968,46.29
50.984,46.85
51.000,46.7
51.015,45.85
51.031,44.6
51.046,43.3
51.062,42.09
51.078,40.8
51.093,38.96
51.109,36.04
51.125,31.67
51.140,25.89
51.156,19.18
51.171,12.25
51.187,5.9
51.203,0.63
51.218,-3.49
51.234,-6.91
51.250,-10.4
51.265,-14.84
51.281,-20.93
51.296,-28.96
51.312,-38.71
51.328,-49.35
51.343,-59.62
51.359,-67.9
51.375,-72.51
51.390,-72.11
51.406,-66.08
51.421,-54.77
51.437,-39.47
51.453,-22.16
51.468,-4.9
51.484,10.58
51.500,23.24
51.515,32.75
51.531,39.27
51.546,43.16
51.562,44.81
51.578,44.6
51.593,42.97
51.609,40.49
51.625,37.84
51.640,35.7
51.656,34.53
51.671,34.48
51.687,35.32
51.703,36.58
51.718,37.71
51.734,38.28
51.750,38.05
51.765,37.07
51.781,35.52
51.796,33.62
51.812,31.49
51.828,29.04
51.843,26.06
51.859,22.29
51.875,17.64
51.890,12.32
51.906,6.84
51.921,1.78
51.937,-2.44
51.953,-5.85
51.968,-8.89
51.984,-12.29
52.000,-16.77
52.015,-22.78
52.031,-30.38
52.046,-39.26
52.062,-48.76
52.078,-57.9
52.093,-65.45
52.109,-70.01
52.125,-70.31
52.140,-65.53
52.156,-55.69
52.171,-41.69
52.187,-25.17
52.203,-8.09
52.218,7.71
52.234,20.99
52.250,31.09
52.265,37.97
52.281,41.84
52.296,43.09
52.312,42.16
52.328,39.6
52.343,36.12
52.359,32.59
52.375,29.81
52.390,28.35
52.406,28.33
52.421,29.44
52.437,31.11
52.453,32.68
52.468,33.69
52.484,33.95
52.500,33.52
52.515,32.59
52.531,31.36
52.546,29.92
52.562,28.24
52.578,26.18
52.593,23.55
52.609,20.21
52.625,16.17
52.640,11.58
52.656,6.69
52.671,1.75
52.687,-3.18
52.703,-8.25
52.718,-13.71
52.734,-19.85
52.750,-26.84
52.765,-34.68
52.781,-43.14
52.796,-51.77
52.812,-59.87
52.828,-66.44
52.843,-70.41
52.859,-70.76
52.875,-66.91
52.890,-58.89
52.906,-47.5
52.921,-34.04
52.937,-20.0
52.953,-6.76
52.968,4.58
52.984,13.36
53.000,19.25
53.015,22.2
53.031,22.46
53.046,20.51
53.062,17.11
53.078,13.09
53.093,9.27
53.109,6.25
53.125,4.29
53.140,3.29
53.156,2.93
53.171,2.85
53.187,2.76
53.203,2.5
53.218,2.05
53.234,1.42
53.250,0.58
53.265,-0.59
53.281,-2.19
53.296,-4.22
53.312,-6.52
53.328,-8.8
53.343,-10.8
53.359,-12.41
53.375,-13.8
53.390,-15.34
53.406,-17.49
53.421,-20.65
53.437,-25.09
53.453,-30.92
53.468,-38.08
53.484,-46.25
53.500,-54.68
53.515,-62.19
53.531,-67.23
53.546,-68.31
53.562,-64.45
53.578,-55.56
53.593,-42.57
53.609,-27.2
53.625,-11.47
53.640,2.81
53.656,14.42
53.671,22.84
53.687,28.13
53.703,30.68
53.718,31.03
53.734,29.7
53.750,27.21
53.765,24.13
53.781,21.09
53.796,18.7
53.812,17.35
53.828,17.12
53.843,17.65
53.859,18.41
53.875,18.9
53.890,18.9
53.906,18.51
53.921,18.0
53.937,17.52
53.953,16.96
53.968,15.9
53.984,13.84
54.000,10.45
54.015,5.8
54.031,0.34
54.046,-5.27
54.062,-10.43
54.078,-14.85
54.093,-18.69
54.109,-22.52
54.125,-27.12
54.140,-33.15
54.156,-40.9
54.171,-50.06
54.187,-59.69
54.203,-68.37
54.218,-74.48
54.234,-76.59
54.250,-73.84
54.265,-66.12
54.281,-54.21
54.296,-39.48
54.312,-23.67
54.328,-8.39
54.343,5.1
54.359,16.06
54.375,24.22
54.390,29.72
54.406,32.85
54.421,34.04
54.437,33.78
54.453,32.64
54.468,31.28
54.484,30.28
54.500,30.04
54.515,30.64
54.531,31.81
54.546,33.09
54.562,34.03
54.578,34.34
54.593,34.01
54.609,33.21
54.625,32.16
54.640,30.92
54.656,29.43
54.671,27.42
54.687,24.66
54.703,21.02
54.718,16.54
54.734,11.45
54.750,6.04
54.765,0.6
54.781,-4.77
54.796,-10.05
54.812,-15.45
54.828,-21.25
54.843,-27.82
54.859,-35.52
54.875,-44.46
54.890,-54.34
54.906,-64.27
54.921,-72.74
54.937,-77.93
54.953,-78.18
54.968,-72.61
54.984,-61.47
55.000,-46.2
55.015,-28.88
55.031,-11.73
55.046,3.6
55.062,16.23
55.078,26.01
55.093,33.16
55.109,38.0
55.125,40.75
55.140,41.61
55.156,40.87
55.171,39.06
55.187,36.95
55.203,35.28
55.218,34.54
55.234,34.83
55.250,35.81
55.265,36.97
55.281,37.78
55.296,37.99
55.312,37.56
55.328,36.59
55.343,35.2
55.359,33.38
55.375,31.04
55.390,28.04
55.406,24.36
55.421,20.09
55.437,15.4
55.453,10.52
55.468,5.59
55.484,0.72
55.500,-4.07
55.515,-8.8
55.531,-13.56
55.546,-18.48
55.562,-23.71
55.578,-29.44
55.593,-35.86
55.609,-43.03
55.625,-50.78
55.640,-58.54
55.656,-65.25
55.671,-69.55
55.687,-70.12
55.703,-66.08
55.718,-57.39
55.734,-44.88
55.750,-30.09
55.765,-14.83
55.781,-0.71
55.796,11.18
55.812,20.3
55.828,26.56
55.843,30.11
55.859,31.17
55.875,30.11
55.890,27.45
55.906,23.93
55.921,20.41
55.937,17.64
55.953,16.07
55.968,15.67
55.984,15.98
56.000,16.39
56.015,16.35
56.031,15.67
56.046,14.51
56.062,13.22
56.078,12.14
56.093,11.36
56.109,10.65
56.125,9.67
56.140,8.09
56.156,5.83
56.171,3.0
56.187,-0.13
56.203,-3.26
56.218,-6.3
56.234,-9.32
56.250,-12.62
56.265,-16.59
56.281,-21.67
56.296,-28.14
56.312,-36.06
56.328,-45.04
56.343,-54.16
56.359,-62.04
56.375,-67.02
56.390,-67.64
56.406,-63.07
56.421,-53.44
56.437,-39.84
56.453,-24.05
56.468,-8.03
56.484,6.6
56.500,18.83
56.515,28.3
56.531,35.11
56.546,39.54
56.562,41.92
56.578,42.59
56.593,41.92
56.609,40.39
56.625,38.55
56.640,36.96
56.656,36.02
56.671,35.93
56.687,36.59
56.703,37.66
56.718,38.68
56.734,39.23
56.750,39.08
56.765,38.17
56.781,36.7
56.796,34.9
56.812,32.9
56.828,30.61
56.843,27.74
56.859,23.96
56.875,19.04
56.890,13.1
56.906,6.5
56.921,-0.22
56.937,-6.62
56.953,-12.52
56.968,-18.08
56.984,-23.77
57.000,-30.08
57.015,-37.4
57.031,-45.77
57.046,-54.81
57.062,-63.68
57.078,-71.13
57.093,-75.77
57.109,-76.36
57.125,-72.21
57.140,-63.4
57.156,-50.85
57.171,-36.0
57.187,-20.49
57.203,-5.68
57.218,7.51
57.234,18.62
57.250,27.52
57.265,34.2
57.281,38.7
57.296,41.15
57.312,41.81
57.328,41.13
57.343,39.69
57.359,38.13
57.375,36.93
57.390,36.41
57.406,36.61
57.421,37.35
57.437,38.29
57.453,39.06
57.468,39.35
57.484,38.99
57.500,38.0
57.515,36.49
57.531,34.64
57.546,32.56
57.562,30.22
57.578,27.49
57.593,24.13
57.609,19.9
57.625,14.77
57.640,8.94
57.656,2.84
57.671,-2.93
57.687,-7.85
57.703,-11.69
57.718,-14.54
57.734,-16.88
57.750,-19.33
57.765,-22.53
57.781,-26.81
57.796,-32.0
57.812,-37.35
57.828,-41.46
57.843,-42.62
57.859,-39.19
57.875,-30.17
57.890,-15.58
57.906,3.42
57.921,24.85
57.937,46.49
57.953,66.6
57.968,84.27
57.984,99.54
58.000,112.99
58.015,125.29
58.031,136.82
58.046,147.54
58.062,157.16
58.078,165.55
58.093,173.0
58.109,180.3
58.125,188.59
58.140,198.94
58.156,212.01
58.171,227.82
58.187,245.81
58.203,264.83
58.218,283.28
58.234,299.01
58.250,309.38
58.265,311.7
58.281,303.87
58.296,285.28
58.312,257.14
58.328,222.26
58.343,183.94
58.359,144.81
58.375,106.14
58.390,68.1
58.406,30.91
58.421,-4.11
58.437,-34.2
58.453,-56.07
58.468,-67.4
58.484,-68.19
58.500,-61.15
58.515,-50.65
58.531,-41.13
58.546,-35.59
58.562,-35.0
58.578,-38.74
58.593,-45.45
58.609,-53.79
58.625,-62.65
58.640,-70.74
58.656,-76.41
58.671,-77.74
58.687,-73.32
58.703,-63.22
58.718,-49.49
58.734,-35.86
58.750,-26.56
58.765,-24.86
58.781,-31.85
58.796,-46.17
58.812,-64.78
58.828,-84.21
58.843,-101.87
58.859,-116.71
58.875,-129.1
58.890,-140.22
58.906,-151.33
58.921,-163.23
58.937,-176.09
58.953,-189.47
58.968,-202.42
58.984,-213.65
59.000,-221.76
59.015,-225.58
59.031,-224.5
59.046,-218.98
59.062,-210.65
59.078,-202.1
59.093,-195.98
59.109,-193.96
59.125,-195.84
59.140,-199.58
59.156,-202.12
59.171,-200.91
59.187,-195.16
59.203,-186.27
59.218,-177.0
59.234,-170.02
59.250,-166.4
59.265,-164.88
59.281,-162.31
59.296,-154.83
59.312,-139.3
59.328,-114.33
59.343,-80.6
59.359,-40.63
59.375,1.83
59.390,42.51
59.406,77.3
59.421,102.86
59.437,117.09
59.453,119.26
59.468,110.0
59.484,91.2
59.500,65.59
59.515,36.45
59.531,6.99
59.546,-20.09
59.562,-43.11
59.578,-61.55
59.593,-75.92
59.609,-87.38
59.625,-97.12
59.640,-106.05
59.656,-114.42
59.671,-121.94
59.687,-127.97
59.703,-131.9
59.718,-133.61
59.734,-133.51
59.750,-132.51
59.765,-131.58
59.781,-131.34
59.796,-131.69
59.812,-131.84
59.828,-130.66
59.843,-127.15
59.859,-120.88
59.875,-112.16
59.890,-101.89
59.906,-91.35
59.921,-81.81
59.937,-74.3
59.953,-69.29
59.968,-66.56
59.984,-65.03
