timestamp,value
00.000,14.21
00.015,15.2
00.031,15.82
00.046,15.48
00.062,13.66
00.078,10.2
00.093,5.44
00.109,0.23
00.125,-4.24
00.140,-6.77
00.156,-6.5
00.171,-3.12
00.187,3.08
00.203,11.44
00.218,21.13
00.234,31.46
00.250,41.86
00.265,51.85
00.281,60.84
00.296,68.18
00.312,73.25
00.328,75.7
00.343,75.54
00.359,73.15
00.375,69.06
00.390,63.69
00.406,57.22
00.421,49.56
00.437,40.56
00.453,30.3
00.468,19.16
00.484,7.9
00.500,-2.56
00.515,-11.34
00.531,-17.83
00.546,-21.91
00.562,-23.89
00.578,-24.62
00.593,-25.19
00.609,-26.75
00.625,-30.07
00.640,-35.32
00.656,-41.63
00.671,-47.12
00.687,-49.4
00.703,-46.43
00.718,-37.56
00.734,-24.09
00.750,-9.06
00.765,3.81
00.781,11.44
00.796,12.51
00.812,7.68
00.828,-0.85
00.843,-10.37
00.859,-18.56
00.875,-23.99
00.890,-26.08
00.906,-24.88
00.921,-20.77
00.937,-14.34
00.953,-6.33
00.968,2.41
00.984,11.11
01.000,19.14
01.015,26.1
01.031,31.87
01.046,36.48
01.062,40.03
01.078,42.61
01.093,44.03
01.109,43.94
01.125,41.85
01.140,37.39
01.156,30.52
01.171,21.64
01.187,11.54
01.203,1.17
01.218,-8.64
01.234,-17.42
01.250,-25.15
01.265,-32.06
01.281,-38.39
01.296,-44.12
01.312,-48.92
01.328,-52.2
01.343,-53.45
01.359,-52.36
01.375,-48.99
01.390,-43.66
01.406,-36.8
01.421,-28.81
01.437,-20.01
01.453,-10.69
01.468,-1.22
01.484,7.89
01.500,16.07
01.515,22.75
01.531,27.49
01.546,30.01
01.562,30.11
01.578,27.67
01.593,22.78
01.609,15.81
01.625,7.53
01.640,-0.94
01.656,-8.3
01.671,-13.43
01.687,-15.67
01.703,-14.92
01.718,-11.66
01.734,-6.69
01.750,-0.95
01.765,4.79
01.781,9.97
01.796,14.35
01.812,17.96
01.828,20.95
01.843,23.53
01.859,25.84
01.875,27.9
01.890,29.67
01.906,31.03
01.921,31.97
01.937,32.57
01.953,32.97
01.968,33.31
01.984,33.66
02.000,34.0
02.015,34.22
02.031,34.29
02.046,34.33
02.062,34.67
02.078,35.66
02.093,37.52
02.109,40.12
02.125,42.91
02.140,45.14
02.156,46.06
02.171,45.27
02.187,42.79
02.203,38.97
02.218,34.21
02.234,28.73
02.250,22.47
02.265,15.2
02.281,6.67
02.296,-3.23
02.312,-14.32
02.328,-26.19
02.343,-38.23
02.359,-49.69
02.375,-59.77
02.390,-67.63
02.406,-72.57
02.421,-74.02
02.437,-71.77
02.453,-65.98
02.468,-57.28
02.484,-46.62
02.500,-35.01
02.515,-23.34
02.531,-12.18
02.546,-1.83
02.562,7.61
02.578,16.05
02.593,23.26
02.609,28.94
02.625,32.8
02.640,34.78
02.656,35.07
02.671,34.1
02.687,32.4
02.703,30.48
02.718,28.81
02.734,27.67
02.750,27.15
02.765,27.22
02.781,27.74
02.796,28.5
02.812,29.35
02.828,30.13
02.843,30.71
02.859,30.93
02.875,30.56
02.890,29.31
02.906,26.96
02.921,23.44
02.937,18.82
02.953,13.39
02.968,7.55
02.984,1.65
03.000,-4.04
03.015,-9.45
03.031,-14.61
03.046,-19.64
03.062,-24.71
03.078,-30.08
03.093,-35.92
03.109,-42.3
03.125,-48.96
03.140,-55.22
03.156,-60.01
03.171,-62.09
03.187,-60.49
03.203,-54.86
03.218,-45.7
03.234,-34.17
03.250,-21.74
03.265,-9.74
03.281,0.94
03.296,9.88
03.312,17.07
03.328,22.53
03.343,26.32
03.359,28.46
03.375,29.06
03.390,28.39
03.406,26.87
03.421,25.06
03.437,23.58
03.453,22.94
03.468,23.44
03.484,25.05
03.500,27.42
03.515,29.93
03.531,31.91
03.546,32.88
03.562,32.68
03.578,31.47
03.593,29.54
03.609,27.11
03.625,24.16
03.640,20.48
03.656,15.89
03.671,10.35
03.687,4.12
03.703,-2.26
03.718,-8.25
03.734,-13.53
03.750,-18.05
03.765,-22.03
03.781,-25.88
03.796,-30.0
03.812,-34.62
03.828,-39.83
03.843,-45.53
03.859,-51.47
03.875,-57.3
03.890,-62.4
03.906,-65.87
03.921,-66.78
03.937,-64.38
03.953,-58.37
03.968,-49.1
03.984,-37.45
04.000,-24.55
04.015,-11.54
04.031,0.6
04.046,11.04
04.062,19.05
04.078,24.03
04.093,25.63
04.109,23.99
04.125,19.82
04.140,14.38
04.156,9.16
04.171,5.44
04.187,4.07
04.203,5.09
04.218,7.83
04.234,11.14
04.250,13.64
04.265,14.3
04.281,12.69
04.296,9.11
04.312,4.41
04.328,-0.38
04.343,-4.51
04.359,-7.68
04.375,-9.97
04.390,-11.67
04.406,-12.9
04.421,-13.54
04.437,-13.43
04.453,-12.5
04.468,-10.94
04.484,-9.29
04.500,-8.22
04.515,-8.36
04.531,-10.15
04.546,-13.81
04.562,-19.34
04.578,-26.59
04.593,-35.12
04.609,-44.06
04.625,-52.14
04.640,-57.84
04.656,-59.62
04.671,-56.57
04.687,-48.55
04.703,-36.32
04.718,-21.28
04.734,-5.03
04.750,10.97
04.765,25.62
04.781,38.2
04.796,48.27
04.812,55.63
04.828,60.33
04.843,62.78
04.859,63.72
04.875,64.04
04.890,64.34
04.906,64.63
04.921,64.26
04.937,62.1
04.953,57.08
04.968,48.61
04.984,36.84
05.000,22.61
05.015,7.29
05.031,-7.59
05.046,-20.59
05.062,-30.85
05.078,-38.31
05.093,-43.82
05.109,-48.8
05.125,-54.54
05.140,-61.64
05.156,-69.54
05.171,-76.89
05.187,-82.33
05.203,-85.33
05.218,-86.62
05.234,-87.86
05.250,-91.03
05.265,-97.52
05.281,-107.77
05.296,-121.12
05.312,-136.07
05.328,-150.41
05.343,-161.45
05.359,-166.49
05.375,-163.22
05.390,-150.49
05.406,-128.67
05.421,-99.6
05.437,-66.19
05.453,-31.58
05.468,1.57
05.484,31.38
05.500,56.88
05.515,77.73
05.531,93.92
05.546,105.71
05.562,113.52
05.578,117.99
05.593,119.99
05.609,120.43
05.625,120.06
05.640,119.33
05.656,118.32
05.671,116.9
05.687,114.99
05.703,112.63
05.718,110.07
05.734,107.66
05.750,105.67
05.765,104.1
05.781,102.67
05.796,100.79
05.812,97.7
05.828,92.7
05.843,85.32
05.859,75.41
05.875,63.17
05.890,49.11
05.906,33.86
05.921,18.04
05.937,2.16
05.953,-13.45
05.968,-28.54
05.984,-42.99
06.000,-56.74
06.015,-69.68
06.031,-81.62
06.046,-92.08
06.062,-100.38
06.078,-105.59
06.093,-106.85
06.109,-103.59
06.125,-95.86
06.140,-84.36
06.156,-70.31
06.171,-55.15
06.187,-40.11
06.203,-26.13
06.218,-13.64
06.234,-2.76
06.250,6.59
06.265,14.47
06.281,20.91
06.296,25.91
06.312,29.49
06.328,31.83
06.343,33.21
06.359,33.98
06.375,34.46
06.390,34.94
06.406,35.63
06.421,36.78
06.437,38.53
06.453,40.95
06.468,44.05
06.484,47.78
06.500,52.03
06.515,56.72
06.531,61.68
06.546,66.67
06.562,71.34
06.578,75.3
06.593,78.21
06.609,79.87
06.625,80.08
06.640,78.61
06.656,74.93
06.671,68.39
06.687,58.35
06.703,44.65
06.718,27.7
06.734,8.52
06.750,-11.58
06.765,-31.37
06.781,-49.77
06.796,-65.71
06.812,-78.14
06.828,-85.99
06.843,-88.52
06.859,-85.74
06.875,-78.57
06.890,-68.76
06.906,-58.29
06.921,-48.82
06.937,-41.23
06.953,-35.68
06.968,-31.91
06.984,-29.59
07.000,-28.61
07.015,-29.05
07.031,-30.86
07.046,-33.71
07.062,-36.91
07.078,-39.42
07.093,-40.31
07.109,-39.03
07.125,-35.57
07.140,-30.51
07.156,-24.84
07.171,-19.58
07.187,-15.47
07.203,-12.88
07.218,-11.69
07.234,-11.64
07.250,-12.43
07.265,-13.84
07.281,-15.76
07.296,-18.15
07.312,-20.89
07.328,-23.79
07.343,-26.77
07.359,-29.87
07.375,-33.28
07.390,-37.13
07.406,-41.18
07.421,-44.63
07.437,-46.31
07.453,-44.96
07.468,-39.81
07.484,-30.94
07.500,-19.3
07.515,-6.43
07.531,6.05
07.546,16.91
07.562,25.55
07.578,31.95
07.593,36.49
07.609,39.68
07.625,41.99
07.640,43.83
07.656,45.47
07.671,47.09
07.687,48.78
07.703,50.46
07.718,51.92
07.734,52.92
07.750,53.16
07.765,52.42
07.781,50.77
07.796,48.49
07.812,45.99
07.828,43.69
07.843,41.83
07.859,40.3
07.875,38.71
07.890,36.53
07.906,33.31
07.921,28.91
07.937,23.56
07.953,17.69
07.968,11.85
07.984,6.32
08.000,1.05
08.015,-4.31
08.031,-10.29
08.046,-17.29
08.062,-25.41
08.078,-34.32
08.093,-43.26
08.109,-51.16
08.125,-56.81
08.140,-59.11
08.156,-57.25
08.171,-51.0
08.187,-40.69
08.203,-27.18
08.218,-11.64
08.234,4.7
08.250,20.79
08.265,35.85
08.281,49.41
08.296,61.17
08.312,70.92
08.328,78.44
08.343,83.54
08.359,86.11
08.375,86.17
08.390,84.01
08.406,80.11
08.421,75.05
08.437,69.5
08.453,63.92
08.468,58.58
08.484,53.55
08.500,48.85
08.515,44.51
08.531,40.7
08.546,37.52
08.562,34.87
08.578,32.37
08.593,29.35
08.609,25.06
08.625,19.07
08.640,11.37
08.656,2.47
08.671,-6.92
08.687,-16.18
08.703,-25.05
08.718,-33.68
08.734,-42.37
08.750,-51.34
08.765,-60.56
08.781,-69.64
08.796,-78.05
08.812,-85.13
08.828,-90.18
08.843,-92.5
08.859,-91.37
08.875,-86.32
08.890,-77.26
08.906,-64.72
08.921,-49.75
08.937,-33.72
08.953,-17.93
08.968,-3.31
08.984,9.57
09.000,20.49
09.015,29.28
09.031,35.73
09.046,39.58
09.062,40.66
09.078,39.04
09.093,35.16
09.109,29.75
09.125,23.62
09.140,17.53
09.156,11.96
09.171,7.09
09.187,2.95
09.203,-0.44
09.218,-2.97
09.234,-4.42
09.250,-4.68
09.265,-3.91
09.281,-2.68
09.296,-1.81
09.312,-2.15
09.328,-4.14
09.343,-7.71
09.359,-12.16
09.375,-16.52
09.390,-19.91
09.406,-21.93
09.421,-22.76
09.437,-23.05
09.453,-23.69
09.468,-25.36
09.484,-28.38
09.500,-32.53
09.515,-37.13
09.531,-41.22
09.546,-43.76
09.562,-43.77
09.578,-40.7
09.593,-34.44
09.609,-25.45
09.625,-14.7
09.640,-3.39
09.656,7.37
09.671,16.79
09.687,24.57
09.703,30.79
09.718,35.71
09.734,39.56
09.750,42.35
09.765,43.95
09.781,44.11
09.796,42.75
09.812,40.01
09.828,36.3
09.843,32.14
09.859,28.02
09.875,24.22
09.890,20.78
09.906,17.6
09.921,14.55
09.937,11.62
09.953,9.01
09.968,6.94
09.984,5.46
10.000,4.38
10.015,3.24
10.031,1.49
10.046,-1.28
10.062,-5.07
10.078,-9.54
10.093,-14.14
10.109,-18.42
10.125,-22.28
10.140,-25.92
10.156,-29.8
10.171,-34.31
10.187,-39.7
10.203,-45.99
10.218,-53.0
10.234,-60.38
10.250,-67.59
10.265,-73.76
10.281,-77.86
10.296,-78.81
10.312,-75.89
10.328,-69.01
10.343,-58.85
10.359,-46.65
10.375,-33.83
10.390,-21.57
10.406,-10.45
10.421,-0.61
10.437,8.08
10.453,15.73
10.468,22.18
10.484,27.12
10.500,30.25
10.515,31.55
10.531,31.26
10.546,29.81
10.562,27.64
10.578,25.05
10.593,22.24
10.609,19.42
10.625,16.95
10.640,15.2
10.656,14.43
10.671,14.6
10.687,15.38
10.703,16.24
10.718,16.64
10.734,16.35
10.750,15.26
10.765,13.45
10.781,10.98
10.796,7.85
10.812,4.11
10.828,-0.12
10.843,-4.49
10.859,-8.6
10.875,-12.01
10.890,-14.52
10.906,-16.24
10.921,-17.59
10.937,-19.22
10.953,-21.74
10.968,-25.55
10.984,-30.63
11.000,-36.49
11.015,-42.19
11.031,-46.6
11.046,-48.62
11.062,-47.48
11.078,-42.93
11.093,-35.27
11.109,-25.26
11.125,-13.93
11.140,-2.4
11.156,8.36
11.171,17.61
11.187,25.0
11.203,30.52
11.218,34.35
11.234,36.77
11.250,38.06
11.265,38.42
11.281,37.98
11.296,36.89
11.312,35.41
11.328,33.84
11.343,32.48
11.359,31.46
11.375,30.72
11.390,30.01
11.406,29.09
11.421,27.82
11.437,26.21
11.453,24.43
11.468,22.63
11.484,20.89
11.500,19.16
11.515,17.3
11.531,15.17
11.546,12.62
11.562,9.63
11.578,6.16
11.593,2.28
11.609,-1.95
11.625,-6.41
11.640,-10.97
11.656,-15.48
11.671,-19.92
11.687,-24.37
11.703,-29.0
11.718,-34.02
11.734,-39.57
11.750,-45.7
11.765,-52.12
11.781,-58.27
11.796,-63.17
11.812,-65.69
11.828,-64.84
11.843,-60.08
11.859,-51.62
11.875,-40.33
11.890,-27.51
11.906,-14.46
11.921,-2.13
11.937,8.99
11.953,18.75
11.968,27.14
11.984,34.05
12.000,39.32
12.015,42.82
12.031,44.64
12.046,45.15
12.062,44.93
12.078,44.57
12.093,44.46
12.109,44.7
12.125,45.13
12.140,45.41
12.156,45.19
12.171,44.31
12.187,42.79
12.203,40.79
12.218,38.56
12.234,36.25
12.250,33.88
12.265,31.32
12.281,28.32
12.296,24.65
12.312,20.18
12.328,14.95
12.343,9.17
12.359,3.15
12.375,-2.89
12.390,-8.89
12.406,-14.95
12.421,-21.27
12.437,-28.07
12.453,-35.4
12.468,-43.28
12.484,-51.68
12.500,-60.54
12.515,-69.73
12.531,-78.93
12.546,-87.4
12.562,-94.1
12.578,-97.77
12.593,-97.48
12.609,-92.99
12.625,-84.87
12.640,-74.41
12.656,-63.09
12.671,-52.25
12.687,-42.53
12.703,-33.99
12.718,-26.25
12.734,-18.91
12.750,-11.79
12.765,-5.11
12.781,0.74
12.796,5.36
12.812,8.65
12.828,10.84
12.843,12.43
12.859,13.9
12.875,15.53
12.890,17.33
12.906,19.09
12.921,20.58
12.937,21.78
12.953,22.84
12.968,24.0
12.984,25.34
13.000,26.75
13.015,27.87
13.031,28.32
13.046,27.87
13.062,26.52
13.078,24.5
13.093,22.06
13.109,19.43
13.125,16.71
13.140,13.88
13.156,10.97
13.171,7.96
13.187,4.84
13.203,1.5
13.218,-2.18
13.234,-6.41
13.250,-11.25
13.265,-16.61
13.281,-22.17
13.296,-27.27
13.312,-31.01
13.328,-32.32
13.343,-30.14
13.359,-23.67
13.375,-12.63
13.390,2.53
13.406,20.72
13.421,40.33
13.437,59.78
13.453,77.77
13.468,93.62
13.484,107.29
13.500,119.28
13.515,130.28
13.531,140.84
13.546,151.2
13.562,161.21
13.578,170.49
13.593,178.6
13.609,185.2
13.625,190.13
13.640,193.37
13.656,195.04
13.671,195.29
13.687,194.37
13.703,192.68
13.718,190.71
13.734,188.71
13.750,186.44
13.765,183.07
13.781,177.42
13.796,168.57
13.812,156.33
13.828,141.5
13.843,125.5
13.859,109.71
13.875,94.83
13.890,80.46
13.906,65.29
13.921,47.65
13.937,26.21
13.953,0.41
13.968,-29.41
13.984,-62.1
14.000,-95.86
14.015,-128.68
14.031,-158.97
14.046,-185.89
14.062,-209.16
14.078,-228.57
14.093,-243.31
14.109,-251.87
14.125,-252.61
14.140,-244.96
14.156,-230.31
14.171,-211.93
14.187,-193.88
14.203,-179.36
14.218,-169.55
14.234,-163.68
14.250,-160.14
14.265,-157.9
14.281,-157.19
14.296,-159.05
14.312,-164.14
14.328,-171.65
14.343,-179.22
14.359,-183.88
14.375,-183.29
14.390,-176.71
14.406,-165.14
14.421,-150.83
14.437,-136.11
14.453,-122.61
14.468,-110.81
14.484,-100.35
14.500,-90.63
14.515,-81.26
14.531,-72.27
14.546,-64.11
14.562,-57.3
14.578,-52.16
14.593,-48.61
14.609,-46.24
14.625,-44.5
14.640,-42.92
14.656,-41.29
14.671,-39.69
14.687,-38.52
14.703,-38.26
14.718,-39.38
14.734,-42.12
14.750,-46.42
14.765,-51.88
14.781,-57.71
14.796,-62.84
14.812,-66.03
14.828,-66.09
14.843,-62.06
14.859,-53.53
14.875,-40.72
14.890,-24.58
14.906,-6.63
14.921,11.47
14.937,28.26
14.953,42.83
14.968,54.78
14.984,64.13
15.000,71.02
15.015,75.59
15.031,77.95
15.046,78.32
15.062,77.14
15.078,75.02
15.093,72.64
15.109,70.46
15.125,68.69
15.140,67.22
15.156,65.84
15.171,64.38
15.187,62.8
15.203,61.3
15.218,60.04
15.234,59.09
15.250,58.21
15.265,56.9
15.281,54.5
15.296,50.49
15.312,44.69
15.328,37.4
15.343,29.33
15.359,21.28
15.375,13.84
15.390,7.15
15.406,0.9
15.421,-5.5
15.437,-12.58
15.453,-20.66
15.468,-29.64
15.484,-38.95
15.500,-47.63
15.515,-54.36
15.531,-57.69
15.546,-56.39
15.562,-49.82
15.578,-38.19
15.593,-22.61
15.609,-4.83
15.625,13.32
15.640,30.32
15.656,45.29
15.671,57.9
15.687,68.09
15.703,75.85
15.718,81.15
15.734,83.97
15.750,84.47
15.765,83.11
15.781,80.51
15.796,77.36
15.812,74.2
15.828,71.27
15.843,68.63
15.859,66.19
15.875,63.84
15.890,61.52
15.906,59.26
15.921,57.02
15.937,54.73
15.953,52.24
15.968,49.21
15.984,45.29
16.000,40.1
16.015,33.46
16.031,25.48
16.046,16.59
16.062,7.43
16.078,-1.33
16.093,-9.25
16.109,-16.22
16.125,-22.49
16.140,-28.52
16.156,-34.83
16.171,-41.86
16.187,-49.88
16.203,-58.82
16.218,-68.23
16.234,-77.07
16.250,-83.89
16.265,-86.99
16.281,-84.96
16.296,-77.1
16.312,-63.73
16.328,-46.2
16.343,-26.44
16.359,-6.49
16.375,12.1
16.390,28.39
16.406,42.05
16.421,53.04
16.437,61.4
16.453,67.11
16.468,70.18
16.484,70.78
16.500,69.44
16.515,66.9
16.531,64.0
16.546,61.39
16.562,59.38
16.578,57.92
16.593,56.76
16.609,55.64
16.625,54.34
16.640,52.78
16.656,50.98
16.671,48.86
16.687,46.36
16.703,43.39
16.718,39.91
16.734,35.9
16.750,31.37
16.765,26.25
16.781,20.48
16.796,14.03
16.812,7.0
16.828,-0.34
16.843,-7.65
16.859,-14.6
16.875,-21.06
16.890,-27.13
16.906,-33.22
16.921,-39.84
16.937,-47.46
16.953,-56.32
16.968,-66.17
16.984,-76.19
17.000,-84.97
17.015,-90.73
17.031,-91.72
17.046,-86.78
17.062,-75.77
17.078,-59.66
17.093,-40.39
17.109,-20.25
17.125,-1.35
17.140,14.87
17.156,27.86
17.171,37.74
17.187,45.03
17.203,50.22
17.218,53.68
17.234,55.6
17.250,56.2
17.265,55.74
17.281,54.62
17.296,53.28
17.312,51.98
17.328,50.83
17.343,49.65
17.359,48.31
17.375,46.63
17.390,44.65
17.406,42.45
17.421,40.16
17.437,37.83
17.453,35.4
17.468,32.81
17.484,29.95
17.500,26.79
17.515,23.29
17.531,19.38
17.546,14.98
17.562,10.02
17.578,4.54
17.593,-1.37
17.609,-7.55
17.625,-13.87
17.640,-20.23
17.656,-26.59
17.671,-32.93
17.687,-39.23
17.703,-45.53
17.718,-51.89
17.734,-58.48
17.750,-65.34
17.765,-72.21
17.781,-78.33
17.796,-82.37
17.812,-82.81
17.828,-78.36
17.843,-68.62
17.859,-54.18
17.875,-36.6
17.890,-17.87
17.906,0.13
17.921,16.11
17.937,29.47
17.953,40.17
17.968,48.38
17.984,54.26
18.000,57.91
18.015,59.46
18.031,59.15
18.046,57.41
18.062,54.82
18.078,51.96
18.093,49.34
18.109,47.27
18.125,45.83
18.140,44.9
18.156,44.19
18.171,43.35
18.187,42.09
18.203,40.31
18.218,38.01
18.234,35.34
18.250,32.38
18.265,29.11
18.281,25.36
18.296,20.97
18.312,15.88
18.328,10.23
18.343,4.32
18.359,-1.59
18.375,-7.3
18.390,-12.77
18.406,-18.05
18.421,-23.21
18.437,-28.35
18.453,-33.55
18.468,-39.0
18.484,-44.98
18.500,-51.8
18.515,-59.55
18.531,-67.94
18.546,-76.04
18.562,-82.37
18.578,-85.23
18.593,-83.13
18.609,-75.38
18.625,-62.36
18.640,-45.49
18.656,-26.77
18.671,-8.3
18.687,8.35
18.703,22.24
18.718,33.06
18.734,40.91
18.750,46.06
18.765,48.81
18.781,49.61
18.796,49.02
18.812,47.71
18.828,46.29
18.843,45.19
18.859,44.52
18.875,44.18
18.890,43.89
18.906,43.39
18.921,42.55
18.937,41.33
18.953,39.73
18.968,37.76
18.984,35.34
19.000,32.39
19.015,28.88
19.031,24.9
19.046,20.61
19.062,16.29
19.078,12.07
19.093,8.0
19.109,3.99
19.125,-0.16
19.140,-4.64
19.156,-9.61
19.171,-15.19
19.187,-21.33
19.203,-27.87
19.218,-34.55
19.234,-40.99
19.250,-46.88
19.265,-52.1
19.281,-56.82
19.296,-61.49
19.312,-66.67
19.328,-72.66
19.343,-79.2
19.359,-85.3
19.375,-89.41
19.390,-89.89
19.406,-85.56
19.421,-76.2
19.437,-62.62
19.453,-46.42
19.468,-29.34
19.484,-12.89
19.500,2.02
19.515,15.04
19.531,26.03
19.546,34.93
19.562,41.67
19.578,46.15
19.593,48.46
19.609,48.98
19.625,48.17
19.640,46.54
19.656,44.57
19.671,42.5
19.687,40.59
19.703,39.01
19.718,37.94
19.734,37.49
19.750,37.63
19.765,38.13
19.781,38.61
19.796,38.63
19.812,37.78
19.828,35.83
19.843,32.75
19.859,28.64
19.875,23.75
19.890,18.39
19.906,12.87
19.921,7.44
19.937,2.31
19.953,-2.48
19.968,-7.0
19.984,-11.42
20.000,-15.88
20.015,-20.44
20.031,-25.08
20.046,-29.8
20.062,-34.61
20.078,-39.64
20.093,-45.17
20.109,-51.41
20.125,-58.42
20.140,-65.86
20.156,-72.95
20.171,-78.49
20.187,-81.13
20.203,-79.64
20.218,-73.4
20.234,-62.57
20.250,-48.16
20.265,-31.79
20.281,-15.33
20.296,-0.35
20.312,12.17
20.328,21.95
20.343,29.27
20.359,34.65
20.375,38.61
20.390,41.47
20.406,43.37
20.421,44.34
20.437,44.44
20.453,43.85
20.468,42.78
20.484,41.52
20.500,40.26
20.515,39.08
20.531,38.0
20.546,36.97
20.562,35.93
20.578,34.77
20.593,33.45
20.609,31.86
20.625,29.89
20.640,27.51
20.656,24.72
20.671,21.58
20.687,18.14
20.703,14.46
20.718,10.53
20.734,6.28
20.750,1.61
20.765,-3.58
20.781,-9.29
20.796,-15.36
20.812,-21.53
20.828,-27.44
20.843,-32.72
20.859,-37.24
20.875,-41.08
20.890,-44.66
20.906,-48.54
20.921,-53.24
20.937,-58.91
20.953,-65.15
20.968,-70.91
20.984,-74.69
21.000,-74.98
21.015,-70.71
21.031,-61.71
21.046,-48.74
21.062,-33.3
21.078,-17.18
21.093,-2.0
21.109,11.2
21.125,21.94
21.140,30.17
21.156,36.05
21.171,39.73
21.187,41.39
21.203,41.28
21.218,39.79
21.234,37.45
21.250,34.87
21.265,32.54
21.281,30.71
21.296,29.51
21.312,28.83
21.328,28.55
21.343,28.55
21.359,28.75
21.375,29.04
21.390,29.2
21.406,28.93
21.421,27.89
21.437,25.9
21.453,22.93
21.468,19.14
21.484,14.81
21.500,10.21
21.515,5.54
21.531,0.85
21.546,-3.84
21.562,-8.54
21.578,-13.15
21.593,-17.56
21.609,-21.67
21.625,-25.5
21.640,-29.2
21.656,-33.09
21.671,-37.51
21.687,-42.75
21.703,-48.91
21.718,-55.77
21.734,-62.67
21.750,-68.56
21.765,-72.12
21.781,-72.03
21.796,-67.41
21.812,-58.09
21.828,-44.78
21.843,-28.94
21.859,-12.42
21.875,3.06
21.890,16.26
21.906,26.66
21.921,34.31
21.937,39.62
21.953,43.05
21.968,44.99
21.984,45.69
22.000,45.4
22.015,44.45
22.031,43.18
22.046,41.9
22.062,40.71
22.078,39.59
22.093,38.39
22.109,36.98
22.125,35.36
22.140,33.65
22.156,31.99
22.171,30.43
22.187,28.93
22.203,27.32
22.218,25.39
22.234,23.06
22.250,20.34
22.265,17.3
22.281,14.01
22.296,10.49
22.312,6.63
22.328,2.29
22.343,-2.68
22.359,-8.27
22.375,-14.35
22.390,-20.56
22.406,-26.45
22.421,-31.7
22.437,-36.14
22.453,-39.9
22.468,-43.31
22.484,-46.91
22.500,-51.12
22.515,-56.14
22.531,-61.81
22.546,-67.48
22.562,-72.1
22.578,-74.37
22.593,-73.08
22.609,-67.47
22.625,-57.54
22.640,-44.1
22.656,-28.6
22.671,-12.74
22.687,2.03
22.703,14.81
22.718,25.3
22.734,33.62
22.750,40.0
22.765,44.58
22.781,47.41
22.796,48.53
22.812,48.21
22.828,46.93
22.843,45.33
22.859,43.95
22.875,43.09
22.890,42.69
22.906,42.51
22.921,42.25
22.937,41.78
22.953,41.09
22.968,40.3
22.984,39.39
23.000,38.22
23.015,36.49
23.031,33.95
23.046,30.51
23.062,26.4
23.078,22.07
23.093,18.04
23.109,14.69
23.125,12.0
23.140,9.67
23.156,7.14
23.171,3.9
23.187,-0.37
23.203,-5.65
23.218,-11.63
23.234,-17.87
23.250,-23.89
23.265,-29.42
23.281,-34.35
23.296,-38.82
23.312,-43.13
23.328,-47.65
23.343,-52.69
23.359,-58.37
23.375,-64.39
23.390,-69.96
23.406,-73.84
23.421,-74.64
23.437,-71.23
23.453,-63.19
23.468,-50.98
23.484,-35.89
23.500,-19.69
23.515,-4.04
23.531,9.84
23.546,21.34
23.562,30.43
23.578,37.35
23.593,42.4
23.609,45.78
23.625,47.7
23.640,48.37
23.656,48.1
23.671,47.26
23.687,46.18
23.703,45.11
23.718,44.13
23.734,43.26
23.750,42.47
23.765,41.76
23.781,41.1
23.796,40.47
23.812,39.73
23.828,38.66
23.843,37.08
23.859,34.86
23.875,32.01
23.890,28.65
23.906,24.94
23.921,21.0
23.937,16.93
23.953,12.75
23.968,8.43
23.984,3.95
24.000,-0.74
24.015,-5.55
24.031,-10.36
24.046,-15.01
24.062,-19.36
24.078,-23.44
24.093,-27.42
24.109,-31.66
24.125,-36.55
24.140,-42.36
24.156,-49.08
24.171,-56.25
24.187,-63.02
24.203,-68.15
24.218,-70.41
24.234,-68.76
24.250,-62.75
24.265,-52.67
24.281,-39.55
24.296,-24.85
24.312,-10.15
24.328,3.24
24.343,14.52
24.359,23.43
24.375,30.08
24.390,34.83
24.406,38.0
24.421,39.86
24.437,40.65
24.453,40.58
24.468,39.91
24.484,38.92
24.500,37.86
24.515,36.89
24.531,36.1
24.546,35.43
24.562,34.81
24.578,34.07
24.593,33.05
24.609,31.55
24.625,29.45
24.640,26.73
24.656,23.49
24.671,19.94
24.687,16.28
24.703,12.63
24.718,8.97
24.734,5.18
24.750,1.14
24.765,-3.14
24.781,-7.55
24.796,-11.93
24.812,-16.16
24.828,-20.29
24.843,-24.44
24.859,-28.74
24.875,-33.38
24.890,-38.45
24.906,-43.98
24.921,-50.01
24.937,-56.41
24.953,-62.78
24.968,-68.31
24.984,-71.89
25.000,-72.32
25.015,-68.74
25.031,-61.0
25.046,-49.78
25.062,-36.43
25.078,-22.53
25.093,-9.36
25.109,2.36
25.125,12.5
25.140,21.23
25.156,28.76
25.171,35.15
25.187,40.25
25.203,43.86
25.218,45.85
25.234,46.33
25.250,45.6
25.265,44.08
25.281,42.2
25.296,40.28
25.312,38.56
25.328,37.18
25.343,36.18
25.359,35.57
25.375,35.25
25.390,34.96
25.406,34.41
25.421,33.24
25.437,31.28
25.453,28.49
25.468,25.08
25.484,21.28
25.500,17.23
25.515,12.96
25.531,8.29
25.546,3.08
25.562,-2.61
25.578,-8.56
25.593,-14.46
25.609,-19.99
25.625,-25.01
25.640,-29.64
25.656,-34.17
25.671,-38.99
25.687,-44.51
25.703,-51.02
25.718,-58.54
25.734,-66.71
25.750,-74.68
25.765,-81.15
25.781,-84.54
25.796,-83.53
25.812,-77.49
25.828,-66.7
25.843,-52.43
25.859,-36.49
25.875,-20.62
25.890,-6.17
25.906,6.21
25.921,16.42
25.937,24.62
25.953,30.98
25.968,35.65
25.984,38.77
26.000,40.65
26.015,41.75
26.031,42.59
26.046,43.53
26.062,44.67
26.078,45.85
26.093,46.78
26.109,47.24
26.125,47.16
26.140,46.58
26.156,45.62
26.171,44.36
26.187,42.86
26.203,41.17
26.218,39.32
26.234,37.43
26.250,35.58
26.265,33.76
26.281,31.92
26.296,29.93
26.312,27.74
26.328,25.42
26.343,23.17
26.359,21.23
26.375,19.84
26.390,19.01
26.406,18.54
26.421,18.12
26.437,17.43
26.453,16.31
26.468,14.81
26.484,13.18
26.500,11.83
26.515,11.33
26.531,12.43
26.546,16.06
26.562,23.18
26.578,34.4
26.593,49.71
26.609,68.18
26.625,88.21
26.640,107.95
26.656,125.8
26.671,140.81
26.687,152.67
26.703,161.37
26.718,166.76
26.734,168.38
26.750,165.48
26.765,157.45
26.781,144.17
26.796,126.32
26.812,105.14
26.828,82.15
26.843,58.71
26.859,35.72
26.875,13.64
26.890,-7.32
26.906,-26.97
26.921,-44.85
26.937,-60.21
26.953,-72.13
26.968,-79.82
26.984,-82.86
27.000,-81.49
27.015,-76.48
27.031,-69.0
27.046,-60.38
27.062,-51.8
27.078,-44.04
27.093,-37.44
27.109,-31.91
27.125,-26.98
27.140,-21.98
27.156,-16.2
27.171,-9.1
27.187,-0.47
27.203,9.42
27.218,19.92
27.234,30.17
27.250,39.35
27.265,46.95
27.281,52.9
27.296,57.54
27.312,61.42
27.328,65.04
27.343,68.5
27.359,71.19
27.375,71.87
27.390,68.98
27.406,61.25
27.421,48.31
27.437,30.99
27.453,11.19
27.468,-8.79
27.484,-26.92
27.500,-42.06
27.515,-54.05
27.531,-63.47
27.546,-71.24
27.562,-78.41
27.578,-85.97
27.593,-94.95
27.609,-106.26
27.625,-120.45
27.640,-137.5
27.656,-156.67
27.671,-176.7
27.687,-196.08
27.703,-213.42
27.718,-227.59
27.734,-237.61
27.750,-242.73
27.765,-242.37
27.781,-236.44
27.796,-225.49
27.812,-210.79
27.828,-193.99
27.843,-176.7
27.859,-160.01
27.875,-144.37
27.890,-129.78
27.906,-116.2
27.921,-103.86
27.937,-93.31
27.953,-85.23
27.968,-79.99
27.984,-77.21
28.000,-75.74
28.015,-73.65
28.031,-68.82
28.046,-59.35
28.062,-44.17
28.078,-23.21
28.093,2.5
28.109,31.0
28.125,59.81
28.140,86.31
28.156,108.26
28.171,124.03
28.187,132.88
28.203,134.72
28.218,130.01
28.234,119.47
28.250,103.95
28.265,84.48
28.281,62.35
28.296,39.15
28.312,16.6
28.328,-3.8
28.343,-21.11
28.359,-35.15
28.375,-46.3
28.390,-55.23
28.406,-62.47
28.421,-68.18
28.437,-72.31
28.453,-74.72
28.468,-75.51
28.484,-75.1
28.500,-74.08
28.515,-73.05
28.531,-72.31
28.546,-71.86
28.562,-71.37
28.578,-70.45
28.593,-68.84
28.609,-66.65
28.625,-64.36
28.640,-62.69
28.656,-62.41
28.671,-64.04
28.687,-67.62
28.703,-72.59
28.718,-77.8
28.734,-81.7
28.750,-82.65
28.765,-79.38
28.781,-71.35
28.796,-58.94
28.812,-43.31
28.828,-26.11
28.843,-8.99
28.859,6.74
28.875,20.3
28.890,31.38
28.906,39.99
28.921,46.2
28.937,50.1
28.953,51.91
28.968,51.97
28.984,50.89
29.000,49.48
29.015,48.43
29.031,48.16
29.046,48.59
29.062,49.26
29.078,49.5
29.093,48.88
29.109,47.31
29.125,45.04
29.140,42.47
29.156,39.75
29.171,36.65
29.187,32.63
29.203,27.23
29.218,20.38
29.234,12.57
29.250,4.67
29.265,-2.45
29.281,-8.29
29.296,-12.96
29.312,-17.03
29.328,-21.33
29.343,-26.65
29.359,-33.51
29.375,-42.11
29.390,-52.22
29.406,-63.07
29.421,-73.24
29.437,-80.92
29.453,-84.2
29.468,-81.68
29.484,-73.03
29.500,-59.2
29.515,-42.11
29.531,-24.05
29.546,-6.96
29.562,8.04
29.578,20.62
29.593,31.07
29.609,39.72
29.625,46.72
29.640,52.06
29.656,55.73
29.671,58.01
29.687,59.44
29.703,60.69
29.718,62.22
29.734,64.11
29.750,66.02
29.765,67.42
29.781,67.91
29.796,67.44
29.812,66.31
29.828,64.95
29.843,63.57
29.859,61.95
29.875,59.56
29.890,55.75
29.906,50.21
29.921,43.24
29.937,35.64
29.953,28.45
29.968,22.43
29.984,17.8
30.000,14.13
30.015,10.53
30.031,6.07
30.046,0.01
30.062,-7.89
30.078,-17.41
30.093,-27.74
30.109,-37.56
30.125,-45.16
30.140,-48.72
30.156,-46.87
30.171,-39.13
30.187,-26.16
30.203,-9.63
30.218,8.33
30.234,25.74
30.250,41.26
30.265,54.32
30.281,64.89
30.296,73.15
30.312,79.22
30.328,83.11
30.343,84.92
30.359,84.95
30.375,83.85
30.390,82.38
30.406,81.25
30.421,80.82
30.437,81.04
30.453,81.51
30.468,81.65
30.484,81.05
30.500,79.57
30.515,77.43
30.531,75.07
30.546,72.88
30.562,71.0
30.578,69.17
30.593,66.94
30.609,63.86
30.625,59.75
30.640,54.89
30.656,49.98
30.671,45.87
30.687,43.16
30.703,42.02
30.718,42.01
30.734,42.33
30.750,42.1
30.765,40.63
30.781,37.66
30.796,33.44
30.812,28.57
30.828,24.02
30.843,20.88
30.859,20.26
30.875,23.1
30.890,29.9
30.906,40.54
30.921,54.32
30.937,70.06
30.953,86.45
30.968,102.39
30.984,117.21
31.000,130.71
31.015,142.75
31.031,152.77
31.046,159.38
31.062,160.38
31.078,153.54
31.093,137.66
31.109,113.61
31.125,84.5
31.140,54.94
31.156,29.6
31.171,11.6
31.187,1.89
31.203,-0.6
31.218,2.01
31.234,7.49
31.250,13.92
31.265,19.55
31.281,22.35
31.296,20.06
31.312,10.67
31.328,-6.58
31.343,-30.57
31.359,-58.36
31.375,-86.17
31.390,-110.59
31.406,-129.74
31.421,-143.49
31.437,-153.07
31.453,-160.07
31.468,-165.54
31.484,-169.7
31.500,-172.05
31.515,-172.05
31.531,-169.57
31.546,-165.16
31.562,-159.78
31.578,-154.38
31.593,-149.52
31.609,-145.16
31.625,-140.79
31.640,-135.62
31.656,-128.98
31.671,-120.43
31.687,-109.97
31.703,-98.05
31.718,-85.44
31.734,-73.12
31.750,-62.03
31.765,-52.79
31.781,-45.59
31.796,-40.15
31.812,-35.9
31.828,-32.21
31.843,-28.66
31.859,-25.01
31.875,-21.26
31.890,-17.52
31.906,-13.94
31.921,-10.67
31.937,-7.9
31.953,-5.77
31.968,-4.29
31.984,-3.4
32.000,-2.82
32.015,-2.2
32.031,-1.27
32.046,0.1
32.062,1.85
32.078,3.8
32.093,5.76
32.109,7.62
32.125,9.35
32.140,11.02
32.156,12.68
32.171,14.39
32.187,16.08
32.203,17.69
32.218,19.05
32.234,20.02
32.250,20.55
32.265,20.64
32.281,20.49
32.296,20.27
32.312,20.11
32.328,19.97
32.343,19.58
32.359,18.53
32.375,16.38
32.390,12.84
32.406,7.83
32.421,1.65
32.437,-5.14
32.453,-11.67
32.468,-16.96
32.484,-20.02
32.500,-20.17
32.515,-17.17
32.531,-11.34
32.546,-3.47
32.562,5.43
32.578,14.39
32.593,22.67
32.609,29.87
32.625,35.74
32.640,40.14
32.656,42.97
32.671,44.25
32.687,44.17
32.703,43.22
32.718,42.01
32.734,41.17
32.750,41.08
32.765,41.73
32.781,42.77
32.796,43.7
32.812,44.12
32.828,43.83
32.843,42.95
32.859,41.71
32.875,40.29
32.890,38.69
32.906,36.68
32.921,33.95
32.937,30.24
32.953,25.6
32.968,20.41
32.984,15.35
33.000,11.19
33.015,8.52
33.031,7.58
33.046,8.23
33.062,10.03
33.078,12.39
33.093,14.82
33.109,16.97
33.125,18.68
33.140,19.81
33.156,20.16
33.171,19.42
33.187,17.14
33.203,12.91
33.218,6.56
33.234,-1.73
33.250,-11.29
33.265,-20.97
33.281,-29.24
33.296,-34.43
33.312,-35.04
33.328,-30.09
33.343,-19.39
33.359,-3.64
33.375,15.73
33.390,36.97
33.406,58.43
33.421,78.87
33.437,97.46
33.453,113.62
33.468,126.67
33.484,135.85
33.500,140.44
33.515,140.19
33.531,135.65
33.546,128.27
33.562,120.12
33.578,113.32
33.593,109.51
33.609,109.43
33.625,112.81
33.640,118.47
33.656,124.59
33.671,129.03
33.687,129.8
33.703,125.45
33.718,115.5
33.734,100.49
33.750,81.96
33.765,61.89
33.781,42.23
33.796,24.41
33.812,9.17
33.828,-3.31
33.843,-13.19
33.859,-20.66
33.875,-25.91
33.890,-29.14
33.906,-30.58
33.921,-30.55
33.937,-29.29
33.953,-26.93
33.968,-23.48
33.984,-18.98
34.000,-13.73
34.015,-8.34
34.031,-3.78
34.046,-1.13
34.062,-1.41
34.078,-5.35
34.093,-13.35
34.109,-25.45
34.125,-41.36
34.140,-60.49
34.156,-81.83
34.171,-103.92
34.187,-125.0
34.203,-143.33
34.218,-157.6
34.234,-167.41
34.250,-173.33
34.265,-176.6
34.281,-178.61
34.296,-180.25
34.312,-181.6
34.328,-181.91
34.343,-179.96
34.359,-174.54
34.375,-164.81
34.390,-150.41
34.406,-131.52
34.421,-108.65
34.437,-82.68
34.453,-54.72
34.468,-26.08
34.484,1.82
34.500,27.63
34.515,50.1
34.531,68.21
34.546,81.31
34.562,89.14
34.578,91.81
34.593,89.81
34.609,83.78
34.625,74.51
34.640,62.9
34.656,49.9
34.671,36.49
34.687,23.46
34.703,11.2
34.718,-0.36
34.734,-11.61
34.750,-22.92
34.765,-34.27
34.781,-44.96
34.796,-53.82
34.812,-59.56
34.828,-61.18
34.843,-58.24
34.859,-50.87
34.875,-39.65
34.890,-25.43
34.906,-9.38
34.921,7.12
34.937,22.46
34.953,35.08
34.968,43.66
34.984,47.54
35.000,46.7
35.015,41.73
35.031,33.57
35.046,23.22
35.062,11.57
35.078,-0.65
35.093,-12.91
35.109,-24.9
35.125,-36.56
35.140,-48.06
35.156,-59.79
35.171,-72.11
35.187,-85.06
35.203,-98.17
35.218,-110.28
35.234,-119.63
35.250,-124.28
35.265,-122.57
35.281,-113.64
35.296,-97.66
35.312,-75.86
35.328,-50.14
35.343,-22.6
35.359,4.88
35.375,30.83
35.390,54.34
35.406,74.85
35.421,92.13
35.437,106.15
35.453,117.19
35.468,125.73
35.484,132.42
35.500,137.82
35.515,142.24
35.531,145.48
35.546,146.64
35.562,144.32
35.578,136.8
35.593,122.72
35.609,101.49
35.625,73.67
35.640,40.83
35.656,5.07
35.671,-31.42
35.687,-66.85
35.703,-99.73
35.718,-128.6
35.734,-151.84
35.750,-167.68
35.765,-174.59
35.781,-171.91
35.796,-160.23
35.812,-141.44
35.828,-118.41
35.843,-94.33
35.859,-72.15
35.875,-54.13
35.890,-41.56
35.906,-34.68
35.921,-32.65
35.937,-33.78
35.953,-35.81
35.968,-36.58
35.984,-34.71
36.000,-30.01
36.015,-23.51
36.031,-16.99
36.046,-12.31
36.062,-10.8
36.078,-13.01
36.093,-18.76
36.109,-27.41
36.125,-38.13
36.140,-49.9
36.156,-61.36
36.171,-70.85
36.187,-76.49
36.203,-76.62
36.218,-70.34
36.234,-57.66
36.250,-39.61
36.265,-17.93
36.281,5.39
36.296,28.44
36.312,49.64
36.328,67.93
36.343,82.72
36.359,93.92
36.375,101.82
36.390,106.84
36.406,109.25
36.421,109.0
36.437,105.67
36.453,98.72
36.468,87.82
36.484,73.05
36.500,55.0
36.515,34.64
36.531,13.02
36.546,-8.78
36.562,-29.59
36.578,-48.13
36.593,-62.93
36.609,-72.58
36.625,-76.11
36.640,-73.42
36.656,-65.31
36.671,-53.32
36.687,-39.18
36.703,-24.43
36.718,-10.31
36.734,2.13
36.750,11.93
36.765,18.13
36.781,19.99
36.796,17.23
36.812,10.25
36.828,-0.01
36.843,-12.3
36.859,-25.53
36.875,-38.83
36.890,-51.58
36.906,-63.44
36.921,-74.18
36.937,-83.99
36.953,-93.48
36.968,-103.58
36.984,-115.14
37.000,-128.4
37.015,-142.61
37.031,-156.02
37.046,-166.45
37.062,-171.87
37.078,-171.11
37.093,-164.0
37.109,-151.3
37.125,-134.27
37.140,-114.23
37.156,-92.37
37.171,-69.81
37.187,-47.59
37.203,-26.74
37.218,-8.11
37.234,7.7
37.250,20.61
37.265,30.99
37.281,39.56
37.296,47.07
37.312,54.01
37.328,60.42
37.343,65.97
37.359,70.2
37.375,72.76
37.390,73.68
37.406,73.3
37.421,72.23
37.437,71.06
37.453,70.07
37.468,69.24
37.484,68.25
37.500,66.62
37.515,63.92
37.531,59.8
37.546,54.0
37.562,46.39
37.578,37.02
37.593,26.18
37.609,14.46
37.625,2.63
37.640,-8.65
37.656,-18.92
37.671,-28.09
37.687,-36.37
37.703,-43.99
37.718,-50.89
37.734,-56.57
37.750,-60.02
37.765,-59.92
37.781,-55.02
37.796,-44.55
37.812,-28.43
37.828,-7.41
37.843,17.12
37.859,43.46
37.875,69.87
37.890,94.94
37.906,117.61
37.921,137.27
37.937,153.63
37.953,166.66
37.968,176.41
37.984,183.02
38.000,186.53
38.015,186.86
38.031,184.02
38.046,178.13
38.062,169.68
38.078,159.52
38.093,148.75
38.109,138.46
38.125,129.72
38.140,123.36
38.156,120.03
38.171,120.0
38.187,122.92
38.203,127.57
38.218,131.75
38.234,132.68
38.250,127.75
38.265,115.47
38.281,96.07
38.296,71.49
38.312,44.67
38.328,18.45
38.343,-5.18
38.359,-25.46
38.375,-42.53
38.390,-56.86
38.406,-68.74
38.421,-78.19
38.437,-85.15
38.453,-89.94
38.468,-93.4
38.484,-96.81
38.500,-101.45
38.515,-108.28
38.531,-117.57
38.546,-128.87
38.562,-141.11
38.578,-152.83
38.593,-162.54
38.609,-168.96
38.625,-171.31
38.640,-169.42
38.656,-163.7
38.671,-154.92
38.687,-143.75
38.703,-130.53
38.718,-115.15
38.734,-97.24
38.750,-76.55
38.765,-53.33
38.781,-28.49
38.796,-3.51
38.812,20.01
38.828,40.72
38.843,57.82
38.859,71.19
38.875,81.22
38.890,88.51
38.906,93.66
38.921,97.16
38.937,99.32
38.953,100.39
38.968,100.61
38.984,100.22
39.000,99.4
39.015,98.17
39.031,96.39
39.046,93.8
39.062,90.15
39.078,85.44
39.093,80.02
39.109,74.46
39.125,69.45
39.140,65.44
39.156,62.32
39.171,59.35
39.187,55.34
39.203,49.04
39.218,39.6
39.234,26.97
39.250,11.86
39.265,-4.56
39.281,-21.0
39.296,-36.54
39.312,-50.74
39.328,-63.6
39.343,-75.39
39.359,-86.51
39.375,-97.25
39.390,-107.71
39.406,-117.64
39.421,-126.26
39.437,-132.42
39.453,-134.81
39.468,-132.41
39.484,-124.97
39.500,-113.11
39.515,-98.25
39.531,-82.12
39.546,-66.31
39.562,-51.83
39.578,-39.06
39.593,-27.89
39.609,-17.88
39.625,-8.64
39.640,0.13
39.656,8.61
39.671,16.91
39.687,25.04
39.703,32.92
39.718,40.25
39.734,46.52
39.750,51.24
39.765,53.98
39.781,54.62
39.796,53.4
39.812,50.76
39.828,47.21
39.843,43.14
39.859,38.76
39.875,34.18
39.890,29.54
39.906,25.04
39.921,21.05
39.937,18.01
39.953,16.25
39.968,15.94
39.984,17.03
40.000,19.25
40.015,22.07
40.031,24.92
40.046,27.31
40.062,28.99
40.078,30.11
40.093,31.08
40.109,32.32
40.125,34.13
40.140,36.36
40.156,38.45
40.171,39.54
40.187,38.76
40.203,35.51
40.218,29.76
40.234,22.13
40.250,13.85
40.265,6.5
40.281,1.67
40.296,0.45
40.312,3.21
40.328,9.42
40.343,17.84
40.359,26.97
40.375,35.32
40.390,41.86
40.406,46.12
40.421,48.15
40.437,48.38
40.453,47.4
40.468,45.74
40.484,43.73
40.500,41.54
40.515,39.2
40.531,36.66
40.546,33.95
40.562,31.16
40.578,28.39
40.593,25.75
40.609,23.27
40.625,20.79
40.640,18.13
40.656,14.95
40.671,10.96
40.687,5.95
40.703,-0.03
40.718,-6.74
40.734,-13.82
40.750,-20.92
40.765,-27.86
40.781,-34.68
40.796,-41.54
40.812,-48.53
40.828,-55.6
40.843,-62.5
40.859,-68.8
40.875,-74.09
40.890,-77.99
40.906,-80.36
40.921,-81.28
40.937,-81.03
40.953,-80.15
40.968,-79.29
40.984,-79.17
41.000,-80.32
41.015,-82.96
41.031,-86.64
41.046,-90.36
41.062,-92.57
41.078,-91.55
41.093,-85.94
41.109,-75.26
41.125,-60.11
41.140,-42.1
41.156,-23.39
41.171,-5.91
41.187,9.0
41.203,20.89
41.218,29.98
41.234,36.74
41.250,41.55
41.265,44.57
41.281,45.86
41.296,45.61
41.312,44.31
41.328,42.63
41.343,41.2
41.359,40.38
41.375,40.06
41.390,39.87
41.406,39.3
41.421,37.99
41.437,35.88
41.453,33.11
41.468,29.83
41.484,26.05
41.500,21.61
41.515,16.3
41.531,10.12
41.546,3.35
41.562,-3.45
41.578,-9.63
41.593,-14.76
41.609,-18.89
41.625,-22.53
41.640,-26.45
41.656,-31.32
41.671,-37.38
41.687,-44.34
41.703,-51.5
41.718,-58.1
41.734,-63.65
41.750,-68.11
41.765,-71.88
41.781,-75.55
41.796,-79.69
41.812,-84.52
41.828,-89.74
41.843,-94.47
41.859,-97.33
41.875,-96.72
41.890,-91.25
41.906,-80.15
41.921,-63.65
41.937,-42.97
41.953,-20.03
41.968,3.05
41.984,24.48
42.000,43.16
42.015,58.7
42.031,71.2
42.046,80.98
42.062,88.29
42.078,93.24
42.093,95.9
42.109,96.44
42.125,95.11
42.140,92.32
42.156,88.48
42.171,83.97
42.187,79.12
42.203,74.2
42.218,69.45
42.234,65.09
42.250,61.3
42.265,58.11
42.281,55.4
42.296,52.89
42.312,50.14
42.328,46.71
42.343,42.18
42.359,36.31
42.375,29.13
42.390,20.91
42.406,12.13
42.421,3.33
42.437,-5.07
42.453,-12.92
42.468,-20.32
42.484,-27.56
42.500,-34.9
42.515,-42.38
42.531,-49.8
42.546,-56.85
42.562,-63.26
42.578,-68.99
42.593,-74.26
42.609,-79.47
42.625,-85.11
42.640,-91.57
42.656,-99.0
42.671,-107.14
42.687,-115.15
42.703,-121.74
42.718,-125.22
42.734,-124.01
42.750,-117.04
42.765,-104.24
42.781,-86.63
42.796,-66.18
42.812,-45.16
42.828,-25.59
42.843,-8.78
42.859,4.8
42.875,15.34
42.890,23.39
42.906,29.47
42.921,34.05
42.937,37.44
42.953,39.95
42.968,41.98
42.984,43.9
43.000,45.94
43.015,48.08
43.031,50.03
43.046,51.42
43.062,52.01
43.078,51.88
43.093,51.38
43.109,51.01
43.125,51.08
43.140,51.58
43.156,52.17
43.171,52.24
43.187,51.28
43.203,48.97
43.218,45.35
43.234,40.73
43.250,35.55
43.265,30.21
43.281,24.88
43.296,19.47
43.312,13.66
43.328,7.17
43.343,-0.12
43.359,-8.03
43.375,-16.09
43.390,-23.73
43.406,-30.46
43.421,-36.05
43.437,-40.61
43.453,-44.48
43.468,-48.15
43.484,-52.13
43.500,-56.85
43.515,-62.49
43.531,-68.73
43.546,-74.7
43.562,-78.98
43.578,-79.97
43.593,-76.36
43.609,-67.65
43.625,-54.33
43.640,-37.84
43.656,-20.03
43.671,-2.68
43.687,12.98
43.703,26.34
43.718,37.26
43.734,45.86
43.750,52.32
43.765,56.8
43.781,59.53
43.796,60.81
43.812,61.06
43.828,60.69
43.843,60.03
43.859,59.33
43.875,58.73
43.890,58.28
43.906,58.04
43.921,58.04
43.937,58.29
43.953,58.78
43.968,59.37
43.984,59.83
44.000,59.73
44.015,58.62
44.031,56.09
44.046,52.02
44.062,46.62
44.078,40.34
44.093,33.87
44.109,27.76
44.125,22.32
44.140,17.5
44.156,12.97
44.171,8.3
44.187,3.17
44.203,-2.48
44.218,-8.53
44.234,-14.73
44.250,-20.83
44.265,-26.77
44.281,-32.65
44.296,-38.74
44.312,-45.44
44.328,-52.97
44.343,-61.29
44.359,-69.88
44.375,-77.66
44.390,-83.16
44.406,-84.84
44.421,-81.64
44.437,-73.31
44.453,-60.64
44.468,-45.18
44.484,-28.82
44.500,-13.25
44.515,0.52
44.531,12.21
44.546,22.06
44.562,30.44
44.578,37.64
44.593,43.67
44.609,48.41
44.625,51.77
44.640,53.86
44.656,55.0
44.671,55.63
44.687,56.13
44.703,56.7
44.718,57.29
44.734,57.71
44.750,57.84
44.765,57.7
44.781,57.42
44.796,57.18
44.812,57.0
44.828,56.68
44.843,55.83
44.859,54.05
44.875,51.07
44.890,46.87
44.906,41.75
44.921,36.08
44.937,30.23
44.953,24.46
44.968,18.78
44.984,13.09
45.000,7.25
45.015,1.13
45.031,-5.23
45.046,-11.67
45.062,-17.91
45.078,-23.68
45.093,-28.82
45.109,-33.33
45.125,-37.49
45.140,-41.71
45.156,-46.58
45.171,-52.62
45.187,-60.15
45.203,-69.04
45.218,-78.62
45.234,-87.63
45.250,-94.34
45.265,-97.02
45.281,-94.37
45.296,-86.06
45.312,-72.85
45.328,-56.37
45.343,-38.65
45.359,-21.55
45.375,-6.33
45.390,6.51
45.406,16.98
45.421,25.4
45.437,32.06
45.453,37.18
45.468,40.99
45.484,43.71
45.500,45.73
45.515,47.43
45.531,49.13
45.546,50.98
45.562,52.89
45.578,54.62
45.593,55.88
45.609,56.56
45.625,56.74
45.640,56.62
45.656,56.46
45.671,56.38
45.687,56.31
45.703,56.04
45.718,55.36
45.734,54.06
45.750,52.13
45.765,49.6
45.781,46.56
45.796,43.06
45.812,39.14
45.828,34.8
45.843,30.02
45.859,24.76
45.875,18.97
45.890,12.56
45.906,5.53
45.921,-1.94
45.937,-9.48
45.953,-16.61
45.968,-22.86
45.984,-27.98
46.000,-32.02
46.015,-35.37
46.031,-38.62
46.046,-42.45
46.062,-47.36
46.078,-53.48
46.093,-60.46
46.109,-67.37
46.125,-72.84
46.140,-75.37
46.156,-73.77
46.171,-67.51
46.187,-56.97
46.203,-43.36
46.218,-28.31
46.234,-13.55
46.250,-0.43
46.265,10.25
46.281,18.17
46.296,23.41
46.312,26.31
46.328,27.34
46.343,27.08
46.359,26.17
46.375,25.21
46.390,24.79
46.406,25.32
46.421,27.07
46.437,29.99
46.453,33.84
46.468,38.14
46.484,42.33
46.500,45.93
46.515,48.58
46.531,50.17
46.546,50.67
46.562,50.08
46.578,48.36
46.593,45.45
46.609,41.39
46.625,36.38
46.640,30.87
46.656,25.33
46.671,20.17
46.687,15.51
46.703,11.21
46.718,6.9
46.734,2.19
46.750,-3.17
46.765,-9.19
46.781,-15.6
46.796,-22.0
46.812,-28.06
46.828,-33.59
46.843,-38.64
46.859,-43.5
46.875,-48.57
46.890,-54.21
46.906,-60.48
46.921,-67.05
46.937,-73.05
46.953,-77.29
46.968,-78.45
46.984,-75.6
47.000,-68.41
47.015,-57.34
47.031,-43.58
47.046,-28.59
47.062,-13.8
47.078,-0.27
47.093,11.45
47.109,21.22
47.125,29.13
47.140,35.3
47.156,39.88
47.171,42.95
47.187,44.66
47.203,45.21
47.218,44.88
47.234,43.97
47.250,42.71
47.265,41.32
47.281,39.86
47.296,38.41
47.312,37.04
47.328,35.84
47.343,34.9
47.359,34.2
47.375,33.55
47.390,32.59
47.406,30.94
47.421,28.35
47.437,24.84
47.453,20.7
47.468,16.32
47.484,11.98
47.500,7.67
47.515,3.14
47.531,-1.98
47.546,-7.89
47.562,-14.52
47.578,-21.49
47.593,-28.28
47.609,-34.43
47.625,-39.64
47.640,-43.89
47.656,-47.38
47.671,-50.58
47.687,-54.01
47.703,-58.3
47.718,-63.77
47.734,-70.32
47.750,-77.19
47.765,-83.05
47.781,-86.29
47.796,-85.43
47.812,-79.66
47.828,-69.06
47.843,-54.66
47.859,-38.03
47.875,-20.85
47.890,-4.58
47.906,9.84
47.921,21.92
47.937,31.54
47.953,38.76
47.968,43.73
47.984,46.66
48.000,47.8
48.015,47.61
48.031,46.61
48.046,45.4
48.062,44.49
48.078,44.12
48.093,44.25
48.109,44.62
48.125,44.92
48.140,44.91
48.156,44.53
48.171,43.75
48.187,42.53
48.203,40.65
48.218,37.82
48.234,33.79
48.250,28.64
48.265,22.76
48.281,16.8
48.296,11.39
48.312,6.88
48.328,3.22
48.343,0.04
48.359,-3.21
48.375,-6.99
48.390,-11.5
48.406,-16.63
48.421,-22.11
48.437,-27.62
48.453,-32.98
48.468,-38.19
48.484,-43.48
48.500,-49.18
48.515,-55.59
48.531,-62.77
48.546,-70.29
48.562,-77.27
48.578,-82.43
48.593,-84.44
48.609,-82.28
48.625,-75.57
48.640,-64.72
48.656,-50.89
48.671,-35.64
48.687,-20.52
48.703,-6.69
48.718,5.23
48.734,15.2
48.750,23.45
48.765,30.34
48.781,36.09
48.796,40.81
48.812,44.48
48.828,47.12
48.843,48.88
48.859,49.93
48.875,50.47
48.890,50.58
48.906,50.27
48.921,49.42
48.937,47.96
48.953,45.95
48.968,43.58
48.984,41.14
49.000,38.89
49.015,36.99
49.031,35.29
49.046,33.46
49.062,31.02
49.078,27.68
49.093,23.38
49.109,18.42
49.125,13.19
49.140,8.01
49.156,2.87
49.171,-2.57
49.187,-8.72
49.203,-15.82
49.218,-23.68
49.234,-31.71
49.250,-39.14
49.265,-45.37
49.281,-50.23
49.296,-54.02
49.312,-57.37
49.328,-60.99
49.343,-65.45
49.359,-70.98
49.375,-77.49
49.390,-84.4
49.406,-90.65
49.421,-94.83
49.437,-95.36
49.453,-91.04
49.468,-81.49
49.484,-67.32
49.500,-50.1
49.515,-31.84
49.531,-14.4
49.546,1.05
49.562,14.1
49.578,24.96
49.593,34.08
49.609,41.88
49.625,48.6
49.640,54.32
49.656,59.19
49.671,63.39
49.687,67.26
49.703,71.04
49.718,74.8
49.734,78.38
49.750,81.47
49.765,83.78
49.781,85.21
49.796,85.87
49.812,86.0
49.828,85.86
49.843,85.55
49.859,84.96
49.875,83.91
49.890,82.25
49.906,80.03
49.921,77.45
49.937,74.77
49.953,72.08
49.968,69.21
49.984,65.74
50.000,61.17
50.015,55.2
50.031,47.9
50.046,39.74
50.062,31.31
50.078,23.18
50.093,15.57
50.109,8.32
50.125,1.12
50.140,-6.42
50.156,-14.49
50.171,-22.97
50.187,-31.43
50.203,-39.11
50.218,-45.07
50.234,-48.22
50.250,-47.61
50.265,-42.7
50.281,-33.57
50.296,-20.95
50.312,-6.13
50.328,9.47
50.343,24.65
50.359,38.72
50.375,51.57
50.390,63.38
50.406,74.47
50.421,84.97
50.437,94.89
50.453,104.11
50.468,112.53
50.484,120.2
50.500,127.15
50.515,133.43
50.531,138.8
50.546,142.76
50.562,144.43
50.578,142.69
50.593,136.48
50.609,124.93
50.625,107.78
50.640,85.31
50.656,58.4
50.671,28.24
50.687,-3.9
50.703,-36.89
50.718,-69.82
50.734,-101.91
50.750,-132.49
50.765,-160.91
50.781,-186.58
50.796,-209.12
50.812,-228.35
50.828,-244.33
50.843,-257.14
50.859,-266.86
50.875,-273.43
50.890,-276.66
50.906,-276.4
50.921,-272.64
50.937,-265.73
50.953,-256.35
50.968,-245.22
50.984,-232.84
51.000,-219.15
51.015,-203.59
51.031,-185.3
51.046,-163.72
51.062,-139.01
51.078,-112.2
51.093,-84.89
51.109,-58.72
51.125,-34.83
51.140,-13.64
51.156,4.97
51.171,21.32
51.187,35.56
51.203,47.54
51.218,56.96
51.234,63.73
51.250,68.11
51.265,70.75
51.281,72.47
51.296,73.96
51.312,75.61
51.328,77.37
51.343,79.04
51.359,80.35
51.375,81.15
51.390,81.49
51.406,81.37
51.421,80.74
51.437,79.38
51.453,77.01
51.468,73.43
51.484,68.68
51.500,63.05
51.515,57.05
51.531,51.15
51.546,45.64
51.562,40.51
51.578,35.44
51.593,29.98
51.609,23.72
51.625,16.44
51.640,8.19
51.656,-0.78
51.671,-10.1
51.687,-19.47
51.703,-28.72
51.718,-37.93
51.734,-47.31
51.750,-57.04
51.765,-67.06
51.781,-76.81
51.796,-85.24
51.812,-90.92
51.828,-92.53
51.843,-89.23
51.859,-81.07
51.875,-69.1
51.890,-54.91
51.906,-40.23
51.921,-26.43
51.937,-14.24
51.953,-3.73
51.968,5.38
51.984,13.45
52.000,20.71
52.015,27.15
52.031,32.6
52.046,36.82
52.062,39.69
52.078,41.21
52.093,41.56
52.109,40.99
52.125,39.83
52.140,38.35
52.156,36.83
52.171,35.48
52.187,34.56
52.203,34.26
52.218,34.63
52.234,35.45
52.250,36.26
52.265,36.45
52.281,35.47
52.296,33.17
52.312,29.76
52.328,25.73
52.343,21.64
52.359,17.79
52.375,14.11
52.390,10.24
52.406,5.78
52.421,0.52
52.437,-5.4
52.453,-11.53
52.468,-17.42
52.484,-22.68
52.500,-27.18
52.515,-31.03
52.531,-34.58
52.546,-38.4
52.562,-43.04
52.578,-48.95
52.593,-56.13
52.609,-63.95
52.625,-71.11
52.640,-75.81
52.656,-76.36
52.671,-71.62
52.687,-61.54
52.703,-47.09
52.718,-30.05
52.734,-12.39
52.750,4.14
52.765,18.42
52.781,29.96
52.796,38.78
52.812,45.18
52.828,49.58
52.843,52.4
52.859,54.06
52.875,54.96
52.890,55.53
52.906,56.13
52.921,56.98
52.937,58.11
52.953,59.34
52.968,60.33
52.984,60.75
53.000,60.39
53.015,59.18
53.031,57.2
53.046,54.56
53.062,51.33
53.078,47.52
53.093,43.22
53.109,38.49
53.125,33.53
53.140,28.51
53.156,23.56
53.171,18.76
53.187,14.09
53.203,9.49
53.218,4.85
53.234,0.11
53.250,-4.76
53.265,-9.71
53.281,-14.63
53.296,-19.44
53.312,-24.13
53.328,-28.84
53.343,-33.84
53.359,-39.51
53.375,-45.97
53.390,-52.98
53.406,-59.71
53.421,-64.87
53.437,-67.08
53.453,-65.22
53.468,-58.94
53.484,-48.74
53.500,-35.86
53.515,-21.87
53.531,-8.22
53.546,4.08
53.562,14.52
53.578,22.98
53.593,29.59
53.609,34.49
53.625,37.87
53.640,39.96
53.656,41.07
53.671,41.58
53.687,41.86
53.703,42.12
53.718,42.4
53.734,42.55
53.750,42.34
53.765,41.57
53.781,40.16
53.796,38.21
53.812,35.97
53.828,33.71
53.843,31.65
53.859,29.79
53.875,27.99
53.890,25.97
53.906,23.53
53.921,20.57
53.937,17.14
53.953,13.4
53.968,9.41
53.984,5.19
54.000,0.57
54.015,-4.54
54.031,-10.15
54.046,-16.05
54.062,-21.91
54.078,-27.34
54.093,-32.1
54.109,-36.19
54.125,-39.9
54.140,-43.72
54.156,-48.16
54.171,-53.58
54.187,-59.9
54.203,-66.54
54.218,-72.4
54.234,-76.12
54.250,-76.42
54.265,-72.49
54.281,-64.29
54.296,-52.52
54.312,-38.47
54.328,-23.59
54.343,-9.15
54.359,3.97
54.375,15.32
54.390,24.8
54.406,32.48
54.421,38.48
54.437,42.92
54.453,45.91
54.468,47.62
54.484,48.26
54.500,48.06
54.515,47.27
54.531,46.15
54.546,44.91
54.562,43.75
54.578,42.81
54.593,42.19
54.609,41.91
54.625,41.91
54.640,42.0
54.656,41.85
54.671,41.08
54.687,39.34
54.703,36.4
54.718,32.34
54.734,27.45
54.750,22.23
54.765,17.19
54.781,12.61
54.796,8.5
54.812,4.61
54.828,0.55
54.843,-3.97
54.859,-9.0
54.875,-14.38
54.890,-19.81
54.906,-25.06
54.921,-30.07
54.937,-35.0
54.953,-40.21
54.968,-46.03
54.984,-52.68
55.000,-60.1
55.015,-67.84
55.031,-75.07
55.046,-80.59
55.062,-83.13
55.078,-81.62
55.093,-75.57
55.109,-65.31
55.125,-51.94
55.140,-37.07
55.156,-22.34
55.171,-8.95
55.187,2.53
55.203,12.07
55.218,19.94
55.234,26.37
55.250,31.43
55.265,35.07
55.281,37.27
55.296,38.22
55.312,38.3
55.328,38.0
55.343,37.69
55.359,37.49
55.375,37.23
55.390,36.66
55.406,35.59
55.421,34.06
55.437,32.43
55.453,31.16
55.468,30.55
55.484,30.62
55.500,30.97
55.515,30.97
55.531,30.02
55.546,27.85
55.562,24.55
55.578,20.58
55.593,16.46
55.609,12.48
55.625,8.56
55.640,4.4
55.656,-0.37
55.671,-5.85
55.687,-11.79
55.703,-17.7
55.718,-23.04
55.734,-27.48
55.750,-31.05
55.765,-34.1
55.781,-37.13
55.796,-40.67
55.812,-45.15
55.828,-50.8
55.843,-57.57
55.859,-64.96
55.875,-71.98
55.890,-77.24
55.906,-79.2
55.921,-76.69
55.937,-69.32
55.953,-57.66
55.968,-43.1
55.984,-27.44
56.000,-12.28
56.015,1.27
56.031,12.73
56.046,22.13
56.062,29.64
56.078,35.41
56.093,39.5
56.109,42.05
56.125,43.32
56.140,43.74
56.156,43.87
56.171,44.12
56.187,44.73
56.203,45.64
56.218,46.64
56.234,47.45
56.250,47.9
56.265,47.85
56.281,47.26
56.296,46.03
56.312,43.98
56.328,40.98
56.343,36.93
56.359,32.01
56.375,26.56
56.390,21.08
56.406,15.98
56.421,11.42
56.437,7.31
56.453,3.28
56.468,-0.99
56.484,-5.72
56.500,-10.83
56.515,-16.01
56.531,-20.96
56.546,-25.53
56.562,-29.82
56.578,-34.19
56.593,-39.14
56.609,-45.02
56.625,-51.92
56.640,-59.39
56.656,-66.47
56.671,-71.79
56.687,-73.95
56.703,-71.9
56.718,-65.3
56.734,-54.67
56.750,-41.22
56.765,-26.51
56.781,-12.0
56.796,1.28
56.812,12.82
56.828,22.51
56.843,30.47
56.859,36.87
56.875,41.87
56.890,45.65
56.906,48.39
56.921,50.27
56.937,51.47
56.953,52.13
56.968,52.33
56.984,52.07
57.000,51.34
57.015,50.12
57.031,48.46
57.046,46.58
57.062,44.68
57.078,43.01
57.093,41.65
57.109,40.47
57.125,39.13
57.140,37.23
57.156,34.52
57.171,30.96
57.187,26.82
57.203,22.4
57.218,17.9
57.234,13.32
57.250,8.45
57.265,3.11
57.281,-2.7
57.296,-8.77
57.312,-14.65
57.328,-19.89
57.343,-24.24
57.359,-27.68
57.375,-30.43
57.390,-32.95
57.406,-35.73
57.421,-39.23
57.437,-43.79
57.453,-49.35
57.468,-55.34
57.484,-60.6
57.500,-63.56
57.515,-62.67
57.531,-56.92
57.546,-46.15
57.562,-31.22
57.578,-13.58
57.593,5.13
57.609,23.54
57.625,40.76
57.640,56.37
57.656,70.14
57.671,81.93
57.687,91.69
57.703,99.51
57.718,105.72
57.734,110.83
57.750,115.26
57.765,119.17
57.781,122.33
57.796,124.22
57.812,124.3
57.828,122.35
57.843,118.62
57.859,113.88
57.875,109.19
57.890,105.63
57.906,103.97
57.921,104.5
57.937,106.97
57.953,110.66
57.968,114.65
57.984,118.28
58.000,121.23
58.015,123.81
58.031,126.78
58.046,130.98
58.062,136.86
58.078,143.95
58.093,150.54
58.109,153.85
58.125,150.73
58.140,138.67
58.156,116.86
58.171,86.72
58.187,51.64
58.203,15.86
58.218,-16.81
58.234,-44.05
58.250,-65.38
58.265,-81.64
58.281,-94.2
58.296,-104.07
58.312,-111.65
58.328,-116.86
58.343,-119.55
58.359,-119.77
58.375,-117.88
58.390,-114.37
58.406,-109.67
58.421,-104.07
58.437,-97.71
58.453,-90.67
58.468,-83.06
58.484,-74.98
58.500,-66.68
58.515,-58.46
58.531,-50.79
58.546,-44.2
58.562,-39.23
58.578,-36.29
58.593,-35.58
58.609,-37.18
58.625,-40.94
58.640,-46.57
58.656,-53.52
58.671,-60.91
58.687,-67.62
58.703,-72.48
58.718,-74.67
58.734,-74.0
58.750,-71.11
58.765,-67.2
58.781,-63.69
58.796,-61.77
58.812,-62.01
58.828,-64.29
58.843,-67.85
58.859,-71.47
58.875,-73.71
58.890,-73.24
58.906,-68.92
58.921,-60.12
58.937,-46.83
58.953,-29.71
58.968,-10.08
58.984,10.35
59.000,29.64
59.015,46.09
59.031,58.32
59.046,65.61
59.062,67.92
59.078,65.85
59.093,60.73
59.109,54.38
59.125,48.97
59.140,46.36
59.156,47.73
59.171,52.87
59.187,60.33
59.203,67.73
59.218,72.58
59.234,72.96
59.250,67.95
59.265,57.64
59.281,43.02
59.296,25.86
59.312,8.67
59.328,-5.59
59.343,-14.45
59.359,-16.96
59.375,-14.76
59.390,-11.93
59.406,-13.78
59.421,-24.94
59.437,-47.86
59.453,-82.34
59.468,-126.23
59.484,-176.27
59.500,-228.47
59.515,-277.77
59.531,-317.87
59.546,-341.96
59.562,-344.76
59.578,-324.91
59.593,-286.21
59.609,-236.92
59.625,-186.86
59.640,-144.29
59.656,-113.49
59.671,-94.68
59.687,-85.51
59.703,-82.99
59.718,-84.88
59.734,-89.88
59.750,-96.99
59.765,-104.93
59.781,-112.08
59.796,-117.03
59.812,-119.21
59.828,-119.16
59.843,-118.42
59.859,-118.71
59.875,-121.14
59.890,-125.64
59.906,-130.87
59.921,-134.56
59.937,-134.36
59.953,-128.56
59.968,-116.72
59.984,-99.74
