timestamp,value
00.000,-42.18
00.015,-25.94
00.031,-11.16
00.046,2.15
00.062,13.18
00.078,20.85
00.093,24.44
00.109,23.95
00.125,20.09
00.140,14.01
00.156,6.85
00.171,-0.61
00.187,-7.94
00.203,-15.07
00.218,-21.97
00.234,-28.56
00.250,-34.74
00.265,-40.53
00.281,-46.21
00.296,-52.35
00.312,-59.56
00.328,-68.16
00.343,-78.1
00.359,-88.89
00.375,-99.89
00.390,-110.69
00.406,-121.18
00.421,-131.52
00.437,-141.89
00.453,-152.18
00.468,-161.91
00.484,-170.37
00.500,-176.97
00.515,-181.6
00.531,-184.88
00.546,-187.99
00.562,-192.45
00.578,-199.64
00.593,-210.28
00.609,-224.1
00.625,-239.72
00.640,-254.69
00.656,-265.98
00.671,-270.69
00.687,-266.74
00.703,-253.59
00.718,-232.43
00.734,-205.88
00.750,-177.25
00.765,-149.57
00.781,-124.7
00.796,-102.98
00.812,-83.38
00.828,-64.04
00.843,-43.22
00.859,-20.01
00.875,5.46
00.890,32.11
00.906,58.43
00.921,82.95
00.937,104.62
00.953,122.78
00.968,137.0
00.984,146.93
01.000,152.23
01.015,152.82
01.031,149.05
01.046,141.96
01.062,133.06
01.078,123.98
01.093,115.87
01.109,109.1
01.125,103.14
01.140,97.02
01.156,89.9
01.171,81.5
01.187,72.33
01.203,63.53
01.218,56.29
01.234,51.43
01.250,49.09
01.265,48.7
01.281,49.31
01.296,49.91
01.312,49.74
01.328,48.45
01.343,46.01
01.359,42.54
01.375,38.02
01.390,32.23
01.406,24.73
01.421,15.13
01.437,3.46
01.453,-9.59
01.468,-22.6
01.484,-33.68
01.500,-40.95
01.515,-43.11
01.531,-39.69
01.546,-31.16
01.562,-18.7
01.578,-3.77
01.593,12.17
01.609,28.0
01.625,42.98
01.640,56.7
01.656,68.93
01.671,79.5
01.687,88.23
01.703,94.92
01.718,99.55
01.734,102.26
01.750,103.39
01.765,103.36
01.781,102.48
01.796,100.84
01.812,98.41
01.828,95.13
01.843,91.07
01.859,86.61
01.875,82.3
01.890,78.71
01.906,76.19
01.921,74.75
01.937,74.03
01.953,73.42
01.968,72.31
01.984,70.26
02.000,67.15
02.015,63.18
02.031,58.8
02.046,54.47
02.062,50.52
02.078,46.95
02.093,43.53
02.109,39.82
02.125,35.36
02.140,29.79
02.156,22.98
02.171,14.99
02.187,6.12
02.203,-3.19
02.218,-12.51
02.234,-21.51
02.250,-30.15
02.265,-38.64
02.281,-47.31
02.296,-56.41
02.312,-65.73
02.328,-74.48
02.343,-81.38
02.359,-84.98
02.375,-84.13
02.390,-78.38
02.406,-68.19
02.421,-54.67
02.437,-39.26
02.453,-23.32
02.468,-7.78
02.484,6.89
02.500,20.62
02.515,33.49
02.531,45.46
02.546,56.32
02.562,65.66
02.578,73.06
02.593,78.26
02.609,81.36
02.625,82.83
02.640,83.31
02.656,83.43
02.671,83.55
02.687,83.72
02.703,83.7
02.718,83.23
02.734,82.18
02.750,80.58
02.765,78.57
02.781,76.22
02.796,73.51
02.812,70.32
02.828,66.55
02.843,62.24
02.859,57.65
02.875,53.16
02.890,49.16
02.906,45.76
02.921,42.8
02.937,39.83
02.953,36.23
02.968,31.51
02.984,25.5
03.000,18.44
03.015,10.9
03.031,3.6
03.046,-2.92
03.062,-8.44
03.078,-13.1
03.093,-17.32
03.109,-21.57
03.125,-26.27
03.140,-31.72
03.156,-38.03
03.171,-45.17
03.187,-52.85
03.203,-60.4
03.218,-66.84
03.234,-71.03
03.250,-71.96
03.265,-69.06
03.281,-62.34
03.296,-52.41
03.312,-40.29
03.328,-27.16
03.343,-14.14
03.359,-2.12
03.375,8.28
03.390,16.77
03.406,23.27
03.421,27.89
03.437,30.8
03.453,32.22
03.468,32.34
03.484,31.38
03.500,29.6
03.515,27.3
03.531,24.77
03.546,22.25
03.562,19.85
03.578,17.68
03.593,15.82
03.609,14.33
03.625,13.33
03.640,12.85
03.656,12.79
03.671,12.94
03.687,13.01
03.703,12.67
03.718,11.76
03.734,10.22
03.750,8.09
03.765,5.51
03.781,2.61
03.796,-0.51
03.812,-3.83
03.828,-7.3
03.843,-10.96
03.859,-14.82
03.875,-18.79
03.890,-22.68
03.906,-26.28
03.921,-29.37
03.937,-31.97
03.953,-34.36
03.968,-37.02
03.984,-40.55
04.000,-45.38
04.015,-51.59
04.031,-58.77
04.046,-66.07
04.062,-72.35
04.078,-76.35
04.093,-76.97
04.109,-73.44
04.125,-65.57
04.140,-53.85
04.156,-39.31
04.171,-23.44
04.187,-7.72
04.203,6.68
04.218,19.1
04.234,29.41
04.250,37.78
04.265,44.4
04.281,49.29
04.296,52.36
04.312,53.49
04.328,52.84
04.343,50.91
04.359,48.37
04.375,45.82
04.390,43.6
04.406,41.63
04.421,39.59
04.437,37.19
04.453,34.22
04.468,30.75
04.484,27.02
04.500,23.23
04.515,19.49
04.531,15.79
04.546,12.02
04.562,8.09
04.578,4.01
04.593,-0.18
04.609,-4.39
04.625,-8.54
04.640,-12.67
04.656,-16.81
04.671,-20.98
04.687,-25.11
04.703,-29.03
04.718,-32.47
04.734,-35.3
04.750,-37.5
04.765,-39.35
04.781,-41.39
04.796,-44.21
04.812,-48.27
04.828,-53.76
04.843,-60.45
04.859,-67.69
04.875,-74.55
04.890,-79.81
04.906,-82.14
04.921,-80.42
04.937,-73.92
04.953,-62.62
04.968,-47.28
04.984,-29.3
05.000,-10.34
05.015,7.97
05.031,24.51
05.046,38.79
05.062,50.85
05.078,61.11
05.093,70.06
05.109,78.02
05.125,85.07
05.140,91.14
05.156,96.09
05.171,99.96
05.187,103.02
05.203,105.7
05.218,108.5
05.234,111.69
05.250,115.31
05.265,119.18
05.281,123.02
05.296,126.54
05.312,129.57
05.328,132.01
05.343,133.73
05.359,134.55
05.375,134.2
05.390,132.39
05.406,128.97
05.421,123.97
05.437,117.63
05.453,110.2
05.468,101.72
05.484,91.79
05.500,79.84
05.515,65.34
05.531,48.39
05.546,29.85
05.562,11.13
05.578,-6.45
05.593,-22.3
05.609,-36.82
05.625,-51.23
05.640,-66.83
05.656,-84.4
05.671,-103.84
05.687,-124.27
05.703,-144.4
05.718,-162.91
05.734,-178.6
05.750,-190.48
05.765,-197.82
05.781,-200.16
05.796,-197.52
05.812,-190.45
05.828,-179.92
05.843,-167.11
05.859,-153.11
05.875,-138.74
05.890,-124.44
05.906,-110.38
05.921,-96.48
05.937,-82.67
05.953,-68.99
05.968,-55.7
05.984,-43.19
06.000,-31.94
06.015,-22.22
06.031,-14.01
06.046,-6.9
06.062,-0.29
06.078,6.41
06.093,13.5
06.109,20.99
06.125,28.62
06.140,36.01
06.156,42.73
06.171,48.42
06.187,52.73
06.203,55.32
06.218,55.96
06.234,54.59
06.250,51.36
06.265,46.62
06.281,40.82
06.296,34.39
06.312,27.63
06.328,20.7
06.343,13.66
06.359,6.52
06.375,-0.79
06.390,-8.45
06.406,-16.82
06.421,-26.4
06.437,-37.73
06.453,-51.21
06.468,-66.86
06.484,-84.3
06.500,-102.7
06.515,-120.94
06.531,-137.77
06.546,-151.84
06.562,-161.88
06.578,-166.68
06.593,-165.38
06.609,-157.7
06.625,-144.09
06.640,-125.72
06.656,-104.25
06.671,-81.45
06.687,-58.74
06.703,-37.0
06.718,-16.62
06.734,2.44
06.750,20.3
06.765,37.05
06.781,52.64
06.796,67.01
06.812,80.06
06.828,91.84
06.843,102.5
06.859,112.15
06.875,120.65
06.890,127.54
06.906,132.07
06.921,133.54
06.937,131.72
06.953,127.15
06.968,121.14
06.984,115.39
07.000,111.35
07.015,109.7
07.031,110.15
07.046,111.79
07.062,113.59
07.078,115.05
07.093,116.38
07.109,118.39
07.125,121.94
07.140,127.46
07.156,134.61
07.171,142.37
07.187,149.43
07.203,154.78
07.218,157.93
07.234,159.12
07.250,158.98
07.265,158.47
07.281,158.72
07.296,160.89
07.312,165.85
07.328,173.5
07.343,182.37
07.359,189.51
07.375,191.32
07.390,184.79
07.406,168.68
07.421,143.9
07.437,112.81
07.453,78.03
07.468,41.5
07.484,4.34
07.500,-32.54
07.515,-67.75
07.531,-99.22
07.546,-124.59
07.562,-141.85
07.578,-149.87
07.593,-148.61
07.609,-139.14
07.625,-123.8
07.640,-106.3
07.656,-91.4
07.671,-83.89
07.687,-87.06
07.703,-101.36
07.718,-124.1
07.734,-150.45
07.750,-175.29
07.765,-194.87
07.781,-207.51
07.796,-213.07
07.812,-211.83
07.828,-203.83
07.843,-188.79
07.859,-166.84
07.875,-139.2
07.890,-108.29
07.906,-77.21
07.921,-48.73
07.937,-24.47
07.953,-4.67
07.968,11.5
07.984,25.29
08.000,37.77
08.015,49.69
08.031,61.47
08.046,73.39
08.062,85.53
08.078,97.45
08.093,107.82
08.109,114.38
08.125,114.38
08.140,105.31
08.156,85.76
08.171,55.86
08.187,17.45
08.203,-26.34
08.218,-71.61
08.234,-114.32
08.250,-150.8
08.265,-178.29
08.281,-195.31
08.296,-201.87
08.312,-199.42
08.328,-190.43
08.343,-177.67
08.359,-163.59
08.375,-149.83
08.390,-137.19
08.406,-125.84
08.421,-115.65
08.437,-106.39
08.453,-97.9
08.468,-90.09
08.484,-82.89
08.500,-76.28
08.515,-70.23
08.531,-64.75
08.546,-59.94
08.562,-55.94
08.578,-52.94
08.593,-51.11
08.609,-50.53
08.625,-51.13
08.640,-52.68
08.656,-54.84
08.671,-57.26
08.687,-59.79
08.703,-62.43
08.718,-65.45
08.734,-69.16
08.750,-73.82
08.765,-79.47
08.781,-85.83
08.796,-92.41
08.812,-98.61
08.828,-103.97
08.843,-108.38
08.859,-112.15
08.875,-116.08
08.890,-121.2
08.906,-128.47
08.921,-138.24
08.937,-149.66
08.953,-160.57
08.968,-167.76
08.984,-167.87
09.000,-158.51
09.015,-139.32
09.031,-112.1
09.046,-80.26
09.062,-47.58
09.078,-17.04
09.093,9.98
09.109,33.59
09.125,54.99
09.140,75.77
09.156,97.19
09.171,119.77
09.187,142.73
09.203,164.0
09.218,180.26
09.234,187.98
09.250,184.55
09.265,169.42
09.281,144.61
09.296,113.91
09.312,81.68
09.328,51.41
09.343,25.02
09.359,2.99
09.375,-14.91
09.390,-28.92
09.406,-39.06
09.421,-45.49
09.437,-48.92
09.453,-50.68
09.468,-52.44
09.484,-55.46
09.500,-60.03
09.515,-65.41
09.531,-70.27
09.546,-73.48
09.562,-74.71
09.578,-74.57
09.593,-74.33
09.609,-75.25
09.625,-78.07
09.640,-82.83
09.656,-89.02
09.671,-96.03
09.687,-103.32
09.703,-110.45
09.718,-116.81
09.734,-121.38
09.750,-122.66
09.765,-119.0
09.781,-109.1
09.796,-92.56
09.812,-70.13
09.828,-43.56
09.843,-15.15
09.859,12.89
09.875,38.89
09.890,61.94
09.906,81.71
09.921,98.22
09.937,111.65
09.953,122.42
09.968,131.4
09.984,140.05
10.000,150.01
10.015,162.18
10.031,175.74
10.046,187.78
10.062,193.88
10.078,189.82
10.093,173.43
10.109,145.72
10.125,110.69
10.140,73.96
10.156,40.85
10.171,14.85
10.187,-2.74
10.203,-12.33
10.218,-15.08
10.234,-12.27
10.250,-5.16
10.265,4.83
10.281,15.9
10.296,26.0
10.312,33.22
10.328,36.29
10.343,34.94
10.359,29.79
10.375,22.04
10.390,12.89
10.406,3.17
10.421,-6.83
10.437,-17.0
10.453,-26.99
10.468,-35.83
10.484,-41.76
10.500,-42.65
10.515,-36.6
10.531,-22.67
10.546,-1.37
10.562,25.32
10.578,54.36
10.593,82.32
10.609,106.11
10.625,123.65
10.640,134.11
10.656,138.03
10.671,137.24
10.687,134.6
10.703,133.55
10.718,137.28
10.734,147.49
10.750,163.25
10.765,180.55
10.781,193.01
10.796,193.63
10.812,176.99
10.828,141.08
10.843,88.03
10.859,23.64
10.875,-44.15
10.890,-107.08
10.906,-158.26
10.921,-193.37
10.937,-211.15
10.953,-213.31
10.968,-203.85
10.984,-187.93
11.000,-170.56
11.015,-155.51
11.031,-144.76
11.046,-138.7
11.062,-136.6
11.078,-137.28
11.093,-139.49
11.109,-142.17
11.125,-144.7
11.140,-146.97
11.156,-149.33
11.171,-152.32
11.187,-156.15
11.203,-160.33
11.218,-163.46
11.234,-163.5
11.250,-158.45
11.265,-147.17
11.281,-129.79
11.296,-107.79
11.312,-83.41
11.328,-58.94
11.343,-35.98
11.359,-15.23
11.375,3.45
11.390,20.59
11.406,36.66
11.421,51.84
11.437,65.87
11.453,78.31
11.468,88.75
11.484,96.99
11.500,103.19
11.515,107.75
11.531,111.2
11.546,113.95
11.562,116.23
11.578,118.07
11.593,119.34
11.609,119.97
11.625,119.91
11.640,119.2
11.656,117.87
11.671,115.86
11.687,112.99
11.703,108.98
11.718,103.48
11.734,96.27
11.750,87.28
11.765,76.62
11.781,64.66
11.796,51.92
11.812,38.98
11.828,26.4
11.843,14.6
11.859,3.69
11.875,-6.44
11.890,-16.19
11.906,-25.96
11.921,-35.92
11.937,-45.65
11.953,-54.03
11.968,-59.31
11.984,-59.6
12.000,-53.49
12.015,-40.6
12.031,-21.81
12.046,0.87
12.062,24.84
12.078,47.47
12.093,66.54
12.109,80.59
12.125,88.98
12.140,91.91
12.156,90.35
12.171,85.71
12.187,79.55
12.203,73.18
12.218,67.32
12.234,62.13
12.250,57.33
12.265,52.6
12.281,47.78
12.296,43.04
12.312,38.66
12.328,34.92
12.343,31.96
12.359,29.67
12.375,27.83
12.390,26.12
12.406,24.27
12.421,22.03
12.437,19.27
12.453,15.85
12.468,11.73
12.484,6.9
12.500,1.37
12.515,-4.79
12.531,-11.5
12.546,-18.66
12.562,-26.19
12.578,-34.05
12.593,-42.29
12.609,-51.01
12.625,-60.46
12.640,-70.99
12.656,-82.99
12.671,-96.78
12.687,-112.36
12.703,-129.16
12.718,-145.86
12.734,-160.51
12.750,-170.95
12.765,-175.36
12.781,-172.81
12.796,-163.57
12.812,-148.99
12.828,-131.02
12.843,-111.59
12.859,-92.18
12.875,-73.52
12.890,-55.71
12.906,-38.44
12.921,-21.38
12.937,-4.35
12.953,12.5
12.968,28.73
12.984,43.75
13.000,56.91
13.015,67.77
13.031,76.12
13.046,82.02
13.062,85.76
13.078,87.71
13.093,88.27
13.109,87.78
13.125,86.6
13.140,85.0
13.156,83.29
13.171,81.67
13.187,80.19
13.203,78.69
13.218,76.81
13.234,74.17
13.250,70.44
13.265,65.49
13.281,59.49
13.296,52.9
13.312,46.27
13.328,40.13
13.343,34.75
13.359,30.06
13.375,25.7
13.390,21.14
13.406,15.81
13.421,9.27
13.437,1.33
13.453,-7.91
13.468,-17.9
13.484,-27.64
13.500,-35.66
13.515,-40.35
13.531,-40.36
13.546,-35.07
13.562,-24.83
13.578,-10.88
13.593,4.98
13.609,21.02
13.625,35.93
13.640,49.03
13.656,60.24
13.671,69.72
13.687,77.72
13.703,84.34
13.718,89.54
13.734,93.16
13.750,95.11
13.765,95.44
13.781,94.41
13.796,92.46
13.812,90.07
13.828,87.58
13.843,85.09
13.859,82.44
13.875,79.39
13.890,75.77
13.906,71.61
13.921,67.09
13.937,62.46
13.953,57.83
13.968,53.06
13.984,47.89
14.000,42.0
14.015,35.21
14.031,27.56
14.046,19.3
14.062,10.78
14.078,2.36
14.093,-5.65
14.109,-13.1
14.125,-19.88
14.140,-26.09
14.156,-31.92
14.171,-37.77
14.187,-44.16
14.203,-51.52
14.218,-59.93
14.234,-68.96
14.250,-77.51
14.265,-83.99
14.281,-86.72
14.296,-84.37
14.312,-76.43
14.328,-63.37
14.343,-46.58
14.359,-27.94
14.375,-9.35
14.390,7.7
14.406,22.42
14.421,34.67
14.437,44.71
14.453,52.96
14.468,59.64
14.484,64.7
14.500,68.01
14.515,69.45
14.531,69.18
14.546,67.65
14.562,65.49
14.578,63.18
14.593,60.99
14.609,58.9
14.625,56.75
14.640,54.42
14.656,51.86
14.671,49.09
14.687,46.11
14.703,42.82
14.718,39.13
14.734,35.01
14.750,30.53
14.765,25.84
14.781,20.98
14.796,15.87
14.812,10.24
14.828,3.84
14.843,-3.5
14.859,-11.74
14.875,-20.54
14.890,-29.47
14.906,-38.09
14.921,-46.09
14.937,-53.42
14.953,-60.3
14.968,-67.1
14.984,-74.19
15.000,-81.78
15.015,-89.58
15.031,-96.77
15.046,-102.04
15.062,-103.88
15.078,-100.98
15.093,-92.71
15.109,-79.31
15.125,-61.91
15.140,-42.19
15.156,-21.95
15.171,-2.66
15.187,14.78
15.203,30.03
15.218,43.05
15.234,53.95
15.250,62.74
15.265,69.37
15.281,73.87
15.296,76.41
15.312,77.45
15.328,77.62
15.343,77.59
15.359,77.8
15.375,78.43
15.390,79.3
15.406,80.04
15.421,80.27
15.437,79.7
15.453,78.31
15.468,76.23
15.484,73.64
15.500,70.68
15.515,67.43
15.531,63.94
15.546,60.3
15.562,56.68
15.578,53.25
15.593,50.17
15.609,47.4
15.625,44.71
15.640,41.77
15.656,38.29
15.671,34.15
15.687,29.44
15.703,24.54
15.718,19.82
15.734,15.66
15.750,12.25
15.765,9.67
15.781,7.84
15.796,6.61
15.812,5.8
15.828,5.19
15.843,4.57
15.859,3.73
15.875,2.58
15.890,1.16
15.906,-0.41
15.921,-1.94
15.937,-3.27
15.953,-4.32
15.968,-5.11
15.984,-5.74
16.000,-6.38
16.015,-7.21
16.031,-8.33
16.046,-9.75
16.062,-11.35
16.078,-12.92
16.093,-14.27
16.109,-15.31
16.125,-16.09
16.140,-16.79
16.156,-17.61
16.171,-18.65
16.187,-19.94
16.203,-21.43
16.218,-23.08
16.234,-24.93
16.250,-27.06
16.265,-29.56
16.281,-32.47
16.296,-35.76
16.312,-39.3
16.328,-42.95
16.343,-46.55
16.359,-50.02
16.375,-53.38
16.390,-56.77
16.406,-60.38
16.421,-64.34
16.437,-68.69
16.453,-73.33
16.468,-78.04
16.484,-82.59
16.500,-86.81
16.515,-90.68
16.531,-94.35
16.546,-98.11
16.562,-102.4
16.578,-107.7
16.593,-114.33
16.609,-122.15
16.625,-130.31
16.640,-137.28
16.656,-141.11
16.671,-140.11
16.687,-133.4
16.703,-121.22
16.718,-104.9
16.734,-86.27
16.750,-67.13
16.765,-48.8
16.781,-31.99
16.796,-16.93
16.812,-3.7
16.828,7.67
16.843,17.1
16.859,24.53
16.875,29.99
16.890,33.66
16.906,35.8
16.921,36.8
16.937,37.12
16.953,37.27
16.968,37.74
16.984,38.92
17.000,40.9
17.015,43.56
17.031,46.57
17.046,49.52
17.062,52.08
17.078,54.03
17.093,55.28
17.109,55.85
17.125,55.78
17.140,55.19
17.156,54.27
17.171,53.24
17.187,52.31
17.203,51.61
17.218,51.09
17.234,50.57
17.250,49.84
17.265,48.75
17.281,47.3
17.296,45.67
17.312,44.02
17.328,42.31
17.343,40.4
17.359,38.12
17.375,35.61
17.390,33.62
17.406,33.38
17.421,36.3
17.437,43.4
17.453,54.83
17.468,69.71
17.484,86.53
17.500,103.64
17.515,119.79
17.531,134.44
17.546,147.62
17.562,159.71
17.578,171.17
17.593,182.43
17.609,193.65
17.625,204.54
17.640,214.03
17.656,220.12
17.671,220.24
17.687,211.99
17.703,194.13
17.718,167.38
17.734,134.57
17.750,99.91
17.765,67.92
17.781,42.19
17.796,24.7
17.812,15.91
17.828,15.15
17.843,21.35
17.859,33.43
17.875,50.28
17.890,70.54
17.906,92.43
17.921,113.85
17.937,132.74
17.953,147.58
17.968,157.82
17.984,163.99
18.000,167.52
18.015,170.15
18.031,173.39
18.046,177.97
18.062,183.56
18.078,188.82
18.093,191.79
18.109,190.48
18.125,183.52
18.140,170.67
18.156,152.77
18.171,131.4
18.187,108.4
18.203,85.18
18.218,62.56
18.234,40.79
18.250,19.85
18.265,-0.25
18.281,-19.36
18.296,-37.32
18.312,-54.26
18.328,-70.71
18.343,-87.31
18.359,-104.19
18.375,-120.39
18.390,-133.89
18.406,-142.37
18.421,-144.54
18.437,-141.2
18.453,-135.46
18.468,-131.58
18.484,-133.25
18.500,-142.22
18.515,-157.85
18.531,-178.08
18.546,-200.65
18.562,-224.02
18.578,-247.37
18.593,-270.18
18.609,-291.78
18.625,-311.36
18.640,-328.54
18.656,-343.65
18.671,-357.58
18.687,-371.04
18.703,-383.83
18.718,-394.52
18.734,-400.76
18.750,-400.1
18.765,-391.0
18.781,-373.71
18.796,-350.55
18.812,-325.79
18.828,-304.54
18.843,-291.07
18.859,-286.87
18.875,-289.61
18.890,-293.89
18.906,-293.28
18.921,-283.08
18.937,-261.9
18.953,-231.62
18.968,-195.71
18.984,-157.32
19.000,-118.3
19.015,-79.6
19.031,-42.43
19.046,-8.82
19.062,18.8
19.078,38.94
19.093,52.0
19.109,60.25
19.125,66.59
19.140,73.27
19.156,81.35
19.171,91.09
19.187,102.87
19.203,117.28
19.218,134.33
19.234,152.17
19.250,166.54
19.265,171.83
19.281,163.38
19.296,140.01
19.312,105.08
19.328,65.58
19.343,29.21
19.359,1.37
19.375,-16.83
19.390,-28.56
19.406,-39.37
19.421,-54.88
19.437,-78.88
19.453,-112.77
19.468,-155.98
19.484,-206.73
19.500,-262.49
19.515,-319.79
19.531,-373.86
19.546,-418.78
19.562,-448.55
19.578,-458.72
19.593,-448.12
19.609,-419.44
19.625,-378.5
19.640,-332.17
19.656,-286.22
19.671,-243.8
19.687,-205.3
19.703,-169.38
19.718,-134.3
19.734,-99.19
19.750,-64.36
19.765,-31.01
19.781,-0.65
19.796,25.52
19.812,46.89
19.828,63.44
19.843,75.56
19.859,83.98
19.875,89.47
19.890,92.91
19.906,95.21
19.921,97.22
19.937,99.58
19.953,102.67
19.968,106.49
19.984,110.63
20.000,114.5
20.015,117.42
20.031,118.77
20.046,118.26
20.062,115.86
20.078,111.92
20.093,107.05
20.109,101.95
20.125,97.12
20.140,92.64
20.156,88.05
20.171,82.46
20.187,74.94
20.203,64.88
20.218,52.44
20.234,38.73
20.250,25.7
20.265,15.77
20.281,11.29
20.296,13.94
20.312,24.32
20.328,42.01
20.343,65.65
20.359,93.41
20.375,123.23
20.390,152.94
20.406,180.4
20.421,203.58
20.437,220.85
20.453,231.33
20.468,235.2
20.484,233.66
20.500,228.61
20.515,222.11
20.531,215.95
20.546,211.56
20.562,210.24
20.578,213.35
20.593,222.1
20.609,236.73
20.625,255.52
20.640,274.34
20.656,287.16
20.671,287.73
20.687,271.56
20.703,237.37
20.718,187.22
20.734,125.56
20.750,57.72
20.765,-11.23
20.781,-76.87
20.796,-135.33
20.812,-183.18
20.828,-217.84
20.843,-238.38
20.859,-246.22
20.875,-245.01
20.890,-239.64
20.906,-234.56
20.921,-232.25
20.937,-232.52
20.953,-232.79
20.968,-229.29
20.984,-218.6
21.000,-198.94
21.015,-170.74
21.031,-136.29
21.046,-98.8
21.062,-61.12
21.078,-24.98
21.093,9.22
21.109,41.94
21.125,73.76
21.140,104.69
21.156,133.91
21.171,160.02
21.187,181.58
21.203,197.77
21.218,208.74
21.234,215.72
21.250,220.58
21.265,225.32
21.281,231.4
21.296,239.32
21.312,248.67
21.328,258.24
21.343,266.59
21.359,272.39
21.375,274.76
21.390,273.53
21.406,269.53
21.421,264.4
21.437,260.09
21.453,257.78
21.468,256.93
21.484,254.89
21.500,247.6
21.515,231.1
21.531,203.29
21.546,164.83
21.562,118.81
21.578,69.29
21.593,19.55
21.609,-29.08
21.625,-77.35
21.640,-126.98
21.656,-179.17
21.671,-233.25
21.687,-286.27
21.703,-333.6
21.718,-370.24
21.734,-392.37
21.750,-398.47
21.765,-389.58
21.781,-368.74
21.796,-339.78
21.812,-306.28
21.828,-270.92
21.843,-235.43
21.859,-200.79
21.875,-167.26
21.890,-134.28
21.906,-100.29
21.921,-63.18
21.937,-21.26
21.953,25.29
21.968,73.6
21.984,118.45
22.000,153.76
22.015,174.78
22.031,179.91
22.046,171.31
22.062,154.04
22.078,134.28
22.093,117.32
22.109,106.39
22.125,102.34
22.140,104.3
22.156,110.4
22.171,118.61
22.187,127.04
22.203,134.27
22.218,139.6
22.234,143.11
22.250,145.64
22.265,148.23
22.281,151.25
22.296,153.75
22.312,153.26
22.328,146.45
22.343,130.42
22.359,104.07
22.375,68.85
22.390,28.5
22.406,-12.09
22.421,-48.51
22.437,-77.94
22.453,-99.45
22.468,-113.58
22.484,-121.32
22.500,-123.46
22.515,-120.37
22.531,-112.21
22.546,-99.39
22.562,-82.54
22.578,-62.21
22.593,-38.29
22.609,-10.03
22.625,23.25
22.640,60.89
22.656,99.94
22.671,135.37
22.687,161.51
22.703,174.31
22.718,173.16
22.734,161.35
22.750,144.85
22.765,130.1
22.781,121.86
22.796,121.9
22.812,128.95
22.828,139.51
22.843,149.01
22.859,153.05
22.875,148.35
22.890,133.46
22.906,109.04
22.921,77.81
22.937,43.66
22.953,10.58
22.968,-18.43
22.984,-42.08
23.000,-60.85
23.015,-76.52
23.031,-91.31
23.046,-107.2
23.062,-125.27
23.078,-145.56
23.093,-167.11
23.109,-188.24
23.125,-207.07
23.140,-221.98
23.156,-232.16
23.171,-237.93
23.187,-240.94
23.203,-243.82
23.218,-249.62
23.234,-260.86
23.250,-278.54
23.265,-301.64
23.281,-327.04
23.296,-350.31
23.312,-366.95
23.328,-373.74
23.343,-369.54
23.359,-355.46
23.375,-334.1
23.390,-308.51
23.406,-281.25
23.421,-253.81
23.437,-226.73
23.453,-200.03
23.468,-173.72
23.484,-148.06
23.500,-123.63
23.515,-101.11
23.531,-80.99
23.546,-63.58
23.562,-48.9
23.578,-36.8
23.593,-26.92
23.609,-18.63
23.625,-11.2
23.640,-3.96
23.656,3.47
23.671,11.03
23.687,18.11
23.703,23.92
23.718,27.89
23.734,30.07
23.750,31.16
23.765,32.18
23.781,33.98
23.796,36.78
23.812,40.24
23.828,43.81
23.843,47.46
23.859,51.85
23.875,58.06
23.890,66.71
23.906,77.14
23.921,87.27
23.937,94.32
23.953,96.11
23.968,92.19
23.984,84.12
24.000,74.72
24.015,66.62
24.031,61.12
24.046,57.78
24.062,55.2
24.078,52.21
24.093,48.81
24.109,46.4
24.125,47.16
24.140,53.18
24.156,65.51
24.171,83.68
24.187,105.6
24.203,128.07
24.218,147.77
24.234,162.42
24.250,171.56
24.265,176.58
24.281,179.78
24.296,183.0
24.312,186.49
24.328,188.8
24.343,187.76
24.359,181.83
24.375,171.18
24.390,157.43
24.406,142.62
24.421,127.91
24.437,113.1
24.453,97.14
24.468,79.3
24.484,60.08
24.500,41.29
24.515,25.42
24.531,14.43
24.546,8.98
24.562,8.13
24.578,9.82
24.593,11.66
24.609,11.84
24.625,9.67
24.640,5.66
24.656,1.25
24.671,-1.88
24.687,-2.48
24.703,-0.26
24.718,4.03
24.734,8.89
24.750,12.56
24.765,13.62
24.781,11.32
24.796,5.72
24.812,-2.43
24.828,-12.06
24.843,-22.07
24.859,-31.71
24.875,-40.65
24.890,-48.94
24.906,-56.8
24.921,-64.31
24.937,-71.18
24.953,-76.7
24.968,-79.94
24.984,-80.05
25.000,-76.63
25.015,-69.82
25.031,-60.24
25.046,-48.75
25.062,-36.14
25.078,-22.97
25.093,-9.57
25.109,3.81
25.125,16.87
25.140,29.15
25.156,40.04
25.171,48.88
25.187,55.07
25.203,58.46
25.218,59.56
25.234,59.71
25.250,60.8
25.265,64.89
25.281,73.58
25.296,87.72
25.312,107.3
25.328,131.92
25.343,161.01
25.359,193.99
25.375,229.77
25.390,266.19
25.406,299.69
25.421,325.99
25.437,341.61
25.453,345.4
25.468,339.15
25.484,326.92
25.500,313.27
25.515,301.54
25.531,292.97
25.546,286.89
25.562,281.61
25.578,275.4
25.593,266.87
25.609,254.81
25.625,238.16
25.640,216.14
25.656,188.67
25.671,156.75
25.687,122.23
25.703,87.08
25.718,52.58
25.734,19.02
25.750,-13.83
25.765,-45.83
25.781,-75.93
25.796,-102.29
25.812,-123.06
25.828,-137.39
25.843,-145.88
25.859,-150.44
25.875,-153.46
25.890,-156.78
25.906,-160.97
25.921,-165.29
25.937,-168.36
25.953,-169.01
25.968,-166.93
25.984,-162.78
26.000,-157.74
26.015,-152.85
26.031,-148.57
26.046,-144.74
26.062,-140.86
26.078,-136.53
26.093,-131.61
26.109,-126.26
26.125,-120.66
26.140,-114.75
26.156,-108.26
26.171,-100.99
26.187,-93.22
26.203,-85.94
26.218,-80.6
26.234,-78.41
26.250,-79.62
26.265,-83.01
26.281,-86.33
26.296,-87.51
26.312,-85.91
26.328,-83.08
26.343,-82.36
26.359,-87.53
26.375,-101.38
26.390,-124.69
26.406,-155.75
26.421,-190.43
26.437,-222.56
26.453,-244.83
26.468,-250.43
26.484,-235.29
26.500,-199.88
26.515,-149.84
26.531,-94.54
26.546,-44.05
26.562,-5.74
26.578,17.71
26.593,28.19
26.609,29.98
26.625,27.25
26.640,22.46
26.656,16.41
26.671,9.29
26.687,1.68
26.703,-5.19
26.718,-10.09
26.734,-12.54
26.750,-13.33
26.765,-14.26
26.781,-17.38
26.796,-24.07
26.812,-34.43
26.828,-47.35
26.843,-61.15
26.859,-74.34
26.875,-86.32
26.890,-97.56
26.906,-109.14
26.921,-122.04
26.937,-136.46
26.953,-151.66
26.968,-166.21
26.984,-178.68
27.000,-188.12
27.015,-194.38
27.031,-197.94
27.046,-199.59
27.062,-200.09
27.078,-200.04
27.093,-199.85
27.109,-199.74
27.125,-199.86
27.140,-199.97
27.156,-199.48
27.171,-197.29
27.187,-192.06
27.203,-182.42
27.218,-167.33
27.234,-146.27
27.250,-119.46
27.265,-87.95
27.281,-53.46
27.296,-18.35
27.312,14.84
27.328,43.79
27.343,66.85
27.359,83.28
27.375,93.38
27.390,98.27
27.406,99.62
27.421,99.24
27.437,98.73
27.453,99.26
27.468,101.26
27.484,104.31
27.500,107.19
27.515,108.15
27.531,105.56
27.546,98.36
27.562,86.64
27.578,71.44
27.593,54.43
27.609,37.13
27.625,20.41
27.640,4.43
27.656,-11.03
27.671,-25.99
27.687,-39.9
27.703,-51.77
27.718,-60.66
27.734,-66.25
27.750,-69.18
27.765,-70.91
27.781,-73.22
27.796,-77.55
27.812,-84.46
27.828,-93.47
27.843,-103.19
27.859,-111.67
27.875,-116.89
27.890,-117.2
27.906,-111.57
27.921,-99.75
27.937,-82.19
27.953,-59.78
27.968,-33.7
27.984,-5.33
28.000,23.79
28.015,51.99
28.031,77.71
28.046,99.81
28.062,117.9
28.078,132.37
28.093,144.18
28.109,154.39
28.125,163.6
28.140,171.77
28.156,178.25
28.171,182.14
28.187,182.84
28.203,180.37
28.218,175.56
28.234,169.94
28.250,165.45
28.265,163.85
28.281,166.25
28.296,172.54
28.312,181.36
28.328,190.48
28.343,197.63
28.359,201.44
28.375,202.09
28.390,201.29
28.406,201.57
28.421,205.15
28.437,212.8
28.453,223.29
28.468,233.51
28.484,239.29
28.500,236.64
28.515,223.1
28.531,198.7
28.546,166.36
28.562,131.55
28.578,100.95
28.593,80.54
28.609,73.69
28.625,80.02
28.640,95.85
28.656,115.88
28.671,135.69
28.687,153.56
28.703,170.7
28.718,189.59
28.734,211.51
28.750,234.63
28.765,253.95
28.781,263.22
28.796,257.68
28.812,236.26
28.828,201.96
28.843,160.55
28.859,118.24
28.875,79.54
28.890,46.3
28.906,17.96
28.921,-7.26
28.937,-31.05
28.953,-54.14
28.968,-76.29
28.984,-96.73
29.000,-115.0
29.015,-131.41
29.031,-146.9
29.046,-162.5
29.062,-178.46
29.078,-193.89
29.093,-207.02
29.109,-216.2
29.125,-220.87
29.140,-222.21
29.156,-222.74
29.171,-225.25
29.187,-231.84
29.203,-243.22
29.218,-258.85
29.234,-277.11
29.250,-295.4
29.265,-310.02
29.281,-316.37
29.296,-309.97
29.312,-288.23
29.328,-252.24
29.343,-207.22
29.359,-160.95
29.375,-120.78
29.390,-90.74
29.406,-70.34
29.421,-55.74
29.437,-42.41
29.453,-27.69
29.468,-11.73
29.484,3.51
29.500,16.03
29.515,25.3
29.531,32.18
29.546,37.98
29.562,43.32
29.578,47.78
29.593,50.43
29.609,50.5
29.625,47.96
29.640,43.42
29.656,37.75
29.671,31.89
29.687,26.6
29.703,22.47
29.718,19.57
29.734,17.16
29.750,13.52
29.765,6.34
29.781,-6.35
29.796,-25.26
29.812,-49.17
29.828,-75.37
29.843,-100.65
29.859,-122.62
29.875,-140.49
29.890,-155.04
29.906,-167.96
29.921,-180.75
29.937,-193.97
29.953,-206.9
29.968,-217.82
29.984,-224.55
30.000,-225.25
30.015,-219.01
30.031,-206.09
30.046,-187.75
30.062,-165.83
30.078,-142.09
30.093,-117.84
30.109,-93.72
30.125,-69.84
30.140,-46.02
30.156,-22.06
30.171,2.22
30.187,26.84
30.203,51.58
30.218,76.02
30.234,99.45
30.250,121.07
30.265,140.05
30.281,155.69
30.296,167.4
30.312,174.79
30.328,177.61
30.343,176.0
30.359,170.5
30.375,162.19
30.390,152.38
30.406,142.27
30.421,132.64
30.437,123.68
30.453,115.17
30.468,106.82
30.484,98.55
30.500,90.75
30.515,84.21
30.531,79.97
30.546,78.98
30.562,81.67
30.578,87.73
30.593,95.9
30.609,104.22
30.625,110.51
30.640,113.06
30.656,111.23
30.671,105.7
30.687,98.47
30.703,92.35
30.718,90.44
30.734,95.6
30.750,109.79
30.765,133.6
30.781,165.57
30.796,201.98
30.812,237.19
30.828,264.85
30.843,279.62
30.859,278.91
30.875,263.7
30.890,238.07
30.906,207.62
30.921,177.55
30.937,151.37
30.953,130.66
30.968,115.66
30.984,105.88
31.000,100.41
31.015,97.59
31.031,94.86
31.046,89.12
31.062,77.65
31.078,59.3
31.093,35.05
31.109,7.78
31.125,-18.91
31.140,-42.07
31.156,-60.4
31.171,-74.12
31.187,-84.23
31.203,-91.54
31.218,-95.97
31.234,-96.62
31.250,-92.32
31.265,-82.51
31.281,-67.82
31.296,-50.32
31.312,-33.21
31.328,-19.95
31.343,-13.54
31.359,-15.85
31.375,-27.49
31.390,-47.84
31.406,-75.24
31.421,-107.01
31.437,-139.53
31.453,-168.75
31.468,-191.17
31.484,-205.02
31.500,-210.98
31.515,-212.18
31.531,-212.84
31.546,-216.56
31.562,-224.66
31.578,-235.83
31.593,-247.03
31.609,-255.13
31.625,-258.44
31.640,-257.05
31.656,-252.17
31.671,-244.75
31.687,-234.51
31.703,-219.91
31.718,-199.12
31.734,-170.98
31.750,-135.72
31.765,-94.93
31.781,-50.9
31.796,-5.98
31.812,37.77
31.828,78.69
31.843,115.42
31.859,146.93
31.875,172.66
31.890,192.9
31.906,208.73
31.921,221.59
31.937,232.43
31.953,240.95
31.968,245.33
31.984,242.81
32.000,230.86
32.015,208.24
32.031,175.58
32.046,134.91
32.062,88.47
32.078,37.4
32.093,-18.63
32.109,-80.19
32.125,-145.8
32.140,-210.13
32.156,-263.95
32.171,-296.91
32.187,-301.81
32.203,-278.2
32.218,-233.53
32.234,-180.45
32.250,-131.97
32.265,-96.62
32.281,-75.9
32.296,-65.24
32.312,-57.18
32.328,-45.09
32.343,-25.36
32.359,2.31
32.375,35.87
32.390,72.18
32.406,107.49
32.421,137.71
32.437,158.61
32.453,166.94
32.468,161.7
32.484,145.24
32.500,123.34
32.515,103.77
32.531,93.8
32.546,97.47
32.562,113.86
32.578,137.23
32.593,158.87
32.609,170.2
32.625,165.78
32.640,144.78
32.656,110.78
32.671,69.98
32.687,29.0
32.703,-6.86
32.718,-34.18
32.734,-51.51
32.750,-59.14
32.765,-59.0
32.781,-54.62
32.796,-50.6
32.812,-51.57
32.828,-60.86
32.843,-79.59
32.859,-106.63
32.875,-139.28
32.890,-174.19
32.906,-207.78
32.921,-236.37
32.937,-256.24
32.953,-264.19
32.968,-258.58
32.984,-240.36
33.000,-213.14
33.015,-182.12
33.031,-152.19
33.046,-126.16
33.062,-104.14
33.078,-84.26
33.093,-64.32
33.109,-43.28
33.125,-21.91
33.140,-2.27
33.156,13.45
33.171,23.98
33.187,29.56
33.203,31.53
33.218,31.65
33.234,31.22
33.250,30.73
33.265,29.98
33.281,28.65
33.296,26.87
33.312,25.35
33.328,24.98
33.343,26.22
33.359,28.53
33.375,30.56
33.390,30.83
33.406,28.65
33.421,24.69
33.437,20.87
33.453,19.32
33.468,21.27
33.484,26.21
33.500,32.03
33.515,35.95
33.531,35.73
33.546,30.63
33.562,21.52
33.578,10.36
33.593,-0.62
33.609,-9.7
33.625,-16.04
33.640,-19.53
33.656,-20.35
33.671,-18.61
33.687,-14.0
33.703,-5.8
33.718,6.86
33.734,24.72
33.750,48.12
33.765,76.95
33.781,110.8
33.796,149.08
33.812,190.77
33.828,234.14
33.843,276.32
33.859,313.33
33.875,340.8
33.890,355.23
33.906,355.23
33.921,342.0
33.937,319.04
33.953,290.85
33.968,261.6
33.984,234.17
34.000,209.79
34.015,188.36
34.031,168.99
34.046,150.57
34.062,132.19
34.078,113.57
34.093,95.34
34.109,78.93
34.125,66.11
34.140,57.84
34.156,53.53
34.171,50.8
34.187,46.21
34.203,36.68
34.218,20.81
34.234,-0.71
34.250,-25.66
34.265,-51.4
34.281,-75.89
34.296,-97.91
34.312,-116.98
34.328,-133.16
34.343,-146.95
34.359,-159.47
34.375,-172.52
34.390,-188.12
34.406,-207.57
34.421,-230.71
34.437,-255.6
34.453,-279.11
34.468,-298.23
34.484,-311.05
34.500,-317.37
34.515,-318.48
34.531,-316.47
34.546,-313.43
34.562,-310.98
34.578,-310.0
34.593,-310.71
34.609,-312.8
34.625,-315.64
34.640,-318.45
34.656,-320.26
34.671,-319.71
34.687,-315.08
34.703,-304.44
34.718,-286.16
34.734,-259.58
34.750,-225.42
34.765,-185.82
34.781,-143.77
34.796,-102.43
34.812,-64.18
34.828,-30.41
34.843,-1.55
34.859,22.52
34.875,42.11
34.890,57.62
34.906,69.66
34.921,79.32
34.937,88.04
34.953,97.43
34.968,108.59
34.984,121.73
35.000,136.04
35.015,149.96
35.031,161.81
35.046,170.52
35.062,176.04
35.078,179.35
35.093,181.98
35.109,185.18
35.125,189.24
35.140,193.11
35.156,194.7
35.171,191.65
35.187,182.32
35.203,166.5
35.218,145.57
35.234,122.09
35.250,99.14
35.265,79.61
35.281,65.87
35.296,59.53
35.312,61.28
35.328,70.7
35.343,86.08
35.359,104.65
35.375,123.06
35.390,138.4
35.406,148.94
35.421,154.63
35.437,156.73
35.453,157.02
35.468,156.86
35.484,156.55
35.500,155.41
35.515,152.11
35.531,145.42
35.546,134.71
35.562,120.47
35.578,104.31
35.593,88.54
35.609,75.44
35.625,66.08
35.640,59.66
35.656,53.31
35.671,42.89
35.687,24.5
35.703,-3.84
35.718,-41.16
35.734,-83.54
35.750,-125.4
35.765,-161.38
35.781,-188.1
35.796,-205.19
35.812,-215.0
35.828,-221.56
35.843,-228.94
35.859,-240.03
35.875,-255.9
35.890,-276.02
35.906,-298.87
35.921,-322.37
35.937,-344.02
35.953,-360.73
35.968,-368.76
35.984,-364.36
36.000,-344.83
36.015,-309.7
36.031,-261.11
36.046,-203.2
36.062,-140.65
36.078,-77.21
36.093,-15.22
36.109,43.91
36.125,98.52
36.140,145.99
36.156,183.08
36.171,207.34
36.187,218.75
36.203,220.5
36.218,218.3
36.234,218.62
36.250,226.36
36.265,243.27
36.281,267.55
36.296,294.63
36.312,318.77
36.328,334.55
36.343,338.07
36.359,327.47
36.375,302.99
36.390,266.53
36.406,221.21
36.421,170.79
36.437,119.2
36.453,70.1
36.468,26.51
36.484,-9.45
36.500,-36.78
36.515,-55.67
36.531,-67.56
36.546,-74.91
36.562,-80.95
36.578,-89.22
36.593,-102.76
36.609,-123.38
36.625,-150.95
36.640,-183.11
36.656,-215.72
36.671,-243.53
36.687,-261.01
36.703,-263.16
36.718,-246.58
36.734,-210.87
36.750,-159.94
36.765,-102.39
36.781,-50.01
36.796,-14.45
36.812,-3.27
36.828,-17.15
36.843,-49.59
36.859,-89.37
36.875,-124.64
36.890,-146.72
36.906,-152.29
36.921,-143.35
36.937,-125.67
36.953,-106.51
36.968,-92.55
36.984,-88.24
37.000,-94.82
37.015,-110.17
37.031,-129.68
37.046,-147.76
37.062,-159.63
37.078,-162.58
37.093,-156.03
37.109,-141.05
37.125,-119.58
37.140,-93.98
37.156,-66.91
37.171,-41.29
37.187,-19.95
37.203,-4.99
37.218,2.83
37.234,4.43
37.250,1.95
37.265,-2.1
37.281,-5.87
37.296,-8.91
37.312,-12.18
37.328,-17.39
37.343,-26.2
37.359,-39.44
37.375,-56.65
37.390,-76.29
37.406,-96.01
37.421,-112.99
37.437,-124.45
37.453,-128.13
37.468,-122.86
37.484,-108.93
37.500,-88.15
37.515,-63.26
37.531,-37.07
37.546,-11.55
37.562,12.52
37.578,35.29
37.593,57.08
37.609,77.76
37.625,96.48
37.640,112.06
37.656,123.63
37.671,131.1
37.687,135.12
37.703,136.79
37.718,137.05
37.734,136.34
37.750,134.55
37.765,131.27
37.781,126.13
37.796,119.04
37.812,110.29
37.828,100.43
37.843,90.11
37.859,79.76
37.875,69.5
37.890,59.09
37.906,48.08
37.921,36.04
37.937,22.82
37.953,8.62
37.968,-6.11
37.984,-20.88
38.000,-35.36
38.015,-49.44
38.031,-63.19
38.046,-76.72
38.062,-90.18
38.078,-103.86
38.093,-118.32
38.109,-134.31
38.125,-152.33
38.140,-171.95
38.156,-191.35
38.171,-207.37
38.187,-216.34
38.203,-215.26
38.218,-202.86
38.234,-180.05
38.250,-149.63
38.265,-115.29
38.281,-80.68
38.296,-48.62
38.312,-20.72
38.328,2.59
38.343,22.06
38.359,39.29
38.375,56.4
38.390,75.3
38.406,97.13
38.421,121.67
38.437,147.41
38.453,172.03
38.468,193.2
38.484,209.4
38.500,220.26
38.515,226.42
38.531,229.07
38.546,229.4
38.562,228.23
38.578,225.94
38.593,222.63
38.609,218.3
38.625,213.09
38.640,207.18
38.656,200.77
38.671,193.72
38.687,185.7
38.703,176.28
38.718,165.27
38.734,152.92
38.750,139.9
38.765,127.12
38.781,115.25
38.796,104.5
38.812,94.44
38.828,84.25
38.843,73.07
38.859,60.39
38.875,46.27
38.890,31.37
38.906,16.79
38.921,3.69
38.937,-6.78
38.953,-13.77
38.968,-16.8
38.984,-15.8
39.000,-11.13
39.015,-3.63
39.031,5.45
39.046,14.59
39.062,22.21
39.078,27.07
39.093,28.48
39.109,26.5
39.125,21.77
39.140,15.3
39.156,8.18
39.171,1.42
39.187,-4.13
39.203,-7.79
39.218,-9.13
39.234,-8.25
39.250,-5.93
39.265,-3.69
39.281,-3.48
39.296,-7.14
39.312,-15.78
39.328,-29.37
39.343,-46.49
39.359,-64.5
39.375,-80.13
39.390,-90.21
39.406,-92.5
39.421,-86.34
39.437,-72.79
39.453,-54.43
39.468,-34.59
39.484,-16.58
39.500,-2.84
39.515,5.5
39.531,8.88
39.546,9.16
39.562,9.1
39.578,11.63
39.593,19.05
39.609,32.2
39.625,50.19
39.640,70.78
39.656,91.17
39.671,109.07
39.687,123.39
39.703,134.23
39.718,142.42
39.734,148.84
39.750,153.9
39.765,157.48
39.781,159.27
39.796,159.12
39.812,157.28
39.828,154.32
39.843,150.68
39.859,146.49
39.875,141.36
39.890,134.66
39.906,126.01
39.921,115.55
39.937,104.07
39.953,92.64
39.968,82.16
39.984,72.84
40.000,64.05
40.015,54.56
40.031,42.95
40.046,28.16
40.062,9.71
40.078,-12.26
40.093,-37.1
40.109,-63.78
40.125,-91.02
40.140,-117.53
40.156,-142.25
40.171,-164.66
40.187,-184.73
40.203,-202.72
40.218,-218.61
40.234,-231.79
40.250,-240.93
40.265,-244.45
40.281,-240.98
40.296,-229.93
40.312,-211.57
40.328,-186.79
40.343,-156.85
40.359,-123.1
40.375,-87.12
40.390,-50.68
40.406,-15.74
40.421,15.78
40.437,42.29
40.453,62.75
40.468,76.86
40.484,84.96
40.500,87.97
40.515,87.22
40.531,84.23
40.546,80.46
40.562,77.1
40.578,74.83
40.593,73.82
40.609,73.91
40.625,74.79
40.640,76.14
40.656,77.63
40.671,78.92
40.687,79.63
40.703,79.49
40.718,78.38
40.734,76.42
40.750,73.98
40.765,71.43
40.781,69.11
40.796,67.2
40.812,65.77
40.828,64.76
40.843,64.09
40.859,63.53
40.875,62.82
40.890,61.67
40.906,59.95
40.921,57.86
40.937,56.06
40.953,55.48
40.968,57.06
40.984,61.43
41.000,68.82
41.015,79.08
41.031,91.75
41.046,106.1
41.062,121.31
41.078,136.53
41.093,150.99
41.109,164.13
41.125,175.6
41.140,185.24
41.156,193.1
41.171,199.35
41.187,204.23
41.203,208.04
41.218,210.94
41.234,212.81
41.250,213.0
41.265,210.51
41.281,204.31
41.296,193.93
41.312,179.73
41.328,162.8
41.343,144.59
41.359,126.38
41.375,109.11
41.390,93.31
41.406,79.41
41.421,67.73
41.437,58.49
41.453,51.64
41.468,46.94
41.484,44.08
41.500,42.83
41.515,43.11
41.531,44.48
41.546,45.79
41.562,44.99
41.578,39.72
41.593,28.28
41.609,10.6
41.625,-11.47
41.640,-34.78
41.656,-56.11
41.671,-73.3
41.687,-85.85
41.703,-94.74
41.718,-101.85
41.734,-109.33
41.750,-119.14
41.765,-132.5
41.781,-149.42
41.796,-168.09
41.812,-184.96
41.828,-195.54
41.843,-196.06
41.859,-185.18
41.875,-164.84
41.890,-139.7
41.906,-115.41
41.921,-96.42
41.937,-84.54
41.953,-78.8
41.968,-76.36
41.984,-73.87
42.000,-68.64
42.015,-59.24
42.031,-45.48
42.046,-28.16
42.062,-8.85
42.078,10.39
42.093,27.31
42.109,39.75
42.125,46.08
42.140,45.47
42.156,38.13
42.171,25.36
42.187,9.25
42.203,-7.8
42.218,-23.72
42.234,-37.28
42.250,-48.33
42.265,-57.51
42.281,-65.87
42.296,-74.22
42.312,-82.93
42.328,-91.99
42.343,-101.34
42.359,-111.22
42.375,-122.12
42.390,-134.47
42.406,-148.19
42.421,-162.33
42.437,-175.18
42.453,-184.73
42.468,-189.32
42.484,-188.21
42.500,-181.74
42.515,-171.21
42.531,-158.43
42.546,-145.23
42.562,-133.16
42.578,-123.24
42.593,-115.82
42.609,-110.65
42.625,-106.99
42.640,-103.79
42.656,-100.11
42.671,-95.32
42.687,-89.27
42.703,-82.23
42.718,-74.62
42.734,-66.71
42.750,-58.54
42.765,-49.94
42.781,-40.77
42.796,-31.18
42.812,-21.82
42.828,-13.75
42.843,-8.2
42.859,-6.26
42.875,-8.44
42.890,-14.49
42.906,-23.35
42.921,-33.35
42.937,-42.72
42.953,-50.08
42.968,-54.89
42.984,-57.5
43.000,-59.03
43.015,-61.0
43.031,-64.73
43.046,-71.06
43.062,-80.12
43.078,-91.25
43.093,-103.22
43.109,-114.49
43.125,-123.54
43.140,-129.31
43.156,-131.45
43.171,-130.38
43.187,-126.91
43.203,-121.72
43.218,-114.84
43.234,-105.46
43.250,-92.31
43.265,-74.33
43.281,-51.35
43.296,-24.47
43.312,4.21
43.328,32.28
43.343,57.68
43.359,79.19
43.375,96.42
43.390,109.37
43.406,118.07
43.421,122.45
43.437,122.56
43.453,118.81
43.468,112.14
43.484,103.78
43.500,94.9
43.515,86.22
43.531,77.9
43.546,69.71
43.562,61.18
43.578,51.92
43.593,41.66
43.609,30.45
43.625,18.75
43.640,7.58
43.656,-1.52
43.671,-6.87
43.687,-7.36
43.703,-3.02
43.718,4.71
43.734,13.37
43.750,20.38
43.765,23.8
43.781,22.86
43.796,18.0
43.812,10.39
43.828,1.56
43.843,-6.94
43.859,-13.65
43.875,-17.35
43.890,-17.19
43.906,-12.93
43.921,-5.08
43.937,5.25
43.953,16.52
43.968,27.29
43.984,36.47
44.000,43.57
44.015,48.46
44.031,51.32
44.046,52.39
44.062,51.92
44.078,50.13
44.093,47.27
44.109,43.77
44.125,40.08
44.140,36.75
44.156,34.22
44.171,32.75
44.187,32.25
44.203,32.24
44.218,31.9
44.234,30.31
44.250,26.78
44.265,21.24
44.281,14.43
44.296,7.77
44.312,2.87
44.328,0.99
44.343,2.44
44.359,6.55
44.375,11.82
44.390,16.5
44.406,19.18
44.421,19.14
44.437,16.39
44.453,11.52
44.468,5.4
44.484,-0.99
44.500,-6.67
44.515,-10.79
44.531,-12.68
44.546,-11.99
44.562,-8.8
44.578,-3.56
44.593,2.92
44.609,9.84
44.625,16.38
44.640,21.9
44.656,25.88
44.671,27.94
44.687,27.93
44.703,25.9
44.718,22.25
44.734,17.54
44.750,12.39
44.765,7.37
44.781,2.84
44.796,-1.0
44.812,-4.08
44.828,-6.41
44.843,-8.11
44.859,-9.35
44.875,-10.32
44.890,-11.14
44.906,-11.83
44.921,-12.31
44.937,-12.55
44.953,-12.7
44.968,-13.1
44.984,-14.2
45.000,-16.33
45.015,-19.53
45.031,-23.61
45.046,-28.21
45.062,-33.04
45.078,-37.9
45.093,-42.78
45.109,-47.65
45.125,-52.42
45.140,-57.02
45.156,-61.37
45.171,-65.45
45.187,-69.12
45.203,-72.02
45.218,-73.36
45.234,-72.11
45.250,-67.29
45.265,-58.39
45.281,-45.61
45.296,-29.94
45.312,-12.84
45.328,4.15
45.343,19.77
45.359,33.26
45.375,44.31
45.390,52.93
45.406,59.28
45.421,63.59
45.437,66.18
45.453,67.45
45.468,67.91
45.484,68.03
45.500,68.08
45.515,67.97
45.531,67.24
45.546,65.21
45.562,61.44
45.578,55.97
45.593,49.48
45.609,43.19
45.625,38.39
45.640,36.0
45.656,36.25
45.671,38.72
45.687,42.56
45.703,46.97
45.718,51.38
45.734,55.53
45.750,59.28
45.765,62.32
45.781,64.12
45.796,64.05
45.812,61.79
45.828,57.7
45.843,52.97
45.859,49.37
45.875,48.69
45.890,52.06
45.906,59.45
45.921,69.39
45.937,79.31
45.953,86.22
45.968,87.54
45.984,81.97
46.000,69.79
46.015,52.87
46.031,33.93
46.046,15.72
46.062,0.18
46.078,-12.04
46.093,-21.43
46.109,-29.18
46.125,-36.49
46.140,-44.21
46.156,-52.59
46.171,-61.53
46.187,-70.75
46.203,-79.92
46.218,-88.75
46.234,-96.99
46.250,-104.38
46.265,-110.74
46.281,-116.11
46.296,-120.83
46.312,-125.52
46.328,-130.97
46.343,-137.78
46.359,-146.19
46.375,-155.84
46.390,-165.94
46.406,-175.47
46.421,-183.58
46.437,-189.86
46.453,-194.48
46.468,-198.02
46.484,-201.16
46.500,-204.24
46.515,-206.93
46.531,-208.15
46.546,-206.32
46.562,-199.78
46.578,-187.34
46.593,-168.74
46.609,-144.78
46.625,-117.09
46.640,-87.8
46.656,-59.0
46.671,-32.4
46.687,-9.1
46.703,10.33
46.718,25.79
46.734,37.47
46.750,45.79
46.765,51.25
46.781,54.4
46.796,55.72
46.812,55.6
46.828,54.32
46.843,52.08
46.859,49.11
46.875,45.7
46.890,42.3
46.906,39.6
46.921,38.47
46.937,39.85
46.953,44.4
46.968,52.07
46.984,61.73
47.000,71.37
47.015,78.53
47.031,81.16
47.046,78.37
47.062,70.69
47.078,59.83
47.093,48.02
47.109,37.17
47.125,28.38
47.140,21.87
47.156,17.15
47.171,13.36
47.187,9.67
47.203,5.4
47.218,0.26
47.234,-5.48
47.250,-10.96
47.265,-14.89
47.281,-15.92
47.296,-13.16
47.312,-6.51
47.328,3.31
47.343,14.99
47.359,27.1
47.375,38.53
47.390,48.68
47.406,57.41
47.421,64.82
47.437,70.98
47.453,75.82
47.468,79.02
47.484,80.17
47.500,78.94
47.515,75.12
47.531,68.78
47.546,60.15
47.562,49.63
47.578,37.69
47.593,24.88
47.609,11.93
47.625,-0.23
47.640,-10.54
47.656,-17.99
47.671,-21.95
47.687,-22.44
47.703,-20.21
47.718,-16.49
47.734,-12.63
47.750,-9.66
47.765,-8.12
47.781,-8.09
47.796,-9.42
47.812,-11.99
47.828,-15.83
47.843,-21.07
47.859,-27.84
47.875,-36.08
47.890,-45.53
47.906,-55.62
47.921,-65.44
47.937,-73.81
47.953,-79.31
47.968,-80.65
47.984,-77.0
48.000,-68.28
48.015,-55.2
48.031,-39.04
48.046,-21.19
48.062,-2.85
48.078,15.14
48.093,32.22
48.109,47.94
48.125,61.88
48.140,73.64
48.156,83.04
48.171,90.21
48.187,95.57
48.203,99.74
48.218,103.3
48.234,106.61
48.250,109.73
48.265,112.5
48.281,114.69
48.296,116.17
48.312,117.15
48.328,118.02
48.343,119.32
48.359,121.4
48.375,124.24
48.390,127.33
48.406,129.77
48.421,130.59
48.437,128.99
48.453,124.57
48.468,117.23
48.484,107.08
48.500,94.19
48.515,78.45
48.531,59.67
48.546,37.69
48.562,12.73
48.578,-14.46
48.593,-42.39
48.609,-69.07
48.625,-92.21
48.640,-109.64
48.656,-119.77
48.671,-121.98
48.687,-116.9
48.703,-106.31
48.718,-92.76
48.734,-78.95
48.750,-66.94
48.765,-57.65
48.781,-50.79
48.796,-45.26
48.812,-39.9
48.828,-34.27
48.843,-28.81
48.859,-24.61
48.875,-22.74
48.890,-23.58
48.906,-26.55
48.921,-30.48
48.937,-34.12
48.953,-36.73
48.968,-38.35
48.984,-39.47
49.000,-40.63
49.015,-41.97
49.031,-43.11
49.046,-43.38
49.062,-42.26
49.078,-39.61
49.093,-35.68
49.109,-30.87
49.125,-25.5
49.140,-19.69
49.156,-13.49
49.171,-6.96
49.187,-0.37
49.203,5.87
49.218,11.21
49.234,15.05
49.250,16.72
49.265,15.51
49.281,10.88
49.296,2.67
49.312,-8.44
49.328,-20.89
49.343,-32.4
49.359,-40.65
49.375,-43.89
49.390,-41.53
49.406,-34.16
49.421,-23.15
49.437,-10.15
49.453,3.5
49.468,16.88
49.484,29.53
49.500,41.15
49.515,51.45
49.531,60.06
49.546,66.63
49.562,71.07
49.578,73.57
49.593,74.65
49.609,74.95
49.625,75.07
49.640,75.34
49.656,75.83
49.671,76.37
49.687,76.73
49.703,76.78
49.718,76.62
49.734,76.46
49.750,76.55
49.765,76.93
49.781,77.32
49.796,77.2
49.812,75.96
49.828,73.18
49.843,68.85
49.859,63.41
49.875,57.6
49.890,52.19
49.906,47.62
49.921,43.85
49.937,40.32
49.953,36.12
49.968,30.25
49.984,21.89
50.000,10.66
50.015,-3.19
50.031,-18.7
50.046,-34.36
50.062,-48.41
50.078,-59.15
50.093,-65.39
50.109,-66.6
50.125,-63.06
50.140,-55.7
50.156,-45.9
50.171,-35.14
50.187,-24.76
50.203,-15.76
50.218,-8.6
50.234,-3.33
50.250,0.34
50.265,2.62
50.281,3.55
50.296,2.94
50.312,0.59
50.328,-3.46
50.343,-8.7
50.359,-14.26
50.375,-19.18
50.390,-22.72
50.406,-24.52
50.421,-24.62
50.437,-23.12
50.453,-20.12
50.468,-15.62
50.484,-9.74
50.500,-2.79
50.515,4.65
50.531,11.91
50.546,18.51
50.562,24.16
50.578,28.79
50.593,32.39
50.609,34.81
50.625,35.71
50.640,34.72
50.656,31.54
50.671,26.19
50.687,18.94
50.703,10.34
50.718,1.09
50.734,-7.91
50.750,-15.62
50.765,-20.93
50.781,-22.89
50.796,-20.94
50.812,-15.09
50.828,-5.87
50.843,5.88
50.859,19.32
50.875,33.78
50.890,48.81
50.906,64.16
50.921,79.53
50.937,94.63
50.953,109.13
50.968,122.72
50.984,135.0
51.000,145.4
51.015,153.05
51.031,156.92
51.046,156.1
51.062,150.13
51.078,139.3
51.093,124.65
51.109,107.72
51.125,90.15
51.140,73.36
51.156,58.31
51.171,45.47
51.187,34.74
51.203,25.61
51.218,17.2
51.234,8.46
51.250,-1.66
51.265,-13.95
51.281,-28.78
51.296,-46.11
51.312,-65.58
51.328,-86.69
51.343,-108.84
51.359,-131.29
51.375,-153.04
51.390,-172.78
51.406,-189.03
51.421,-200.42
51.437,-205.98
51.453,-205.29
51.468,-198.52
51.484,-186.26
51.500,-169.4
51.515,-149.05
51.531,-126.47
51.546,-102.99
51.562,-79.91
51.578,-58.38
51.593,-39.28
51.609,-23.14
51.625,-10.14
51.640,-0.19
51.656,6.98
51.671,11.77
51.687,14.6
51.703,15.94
51.718,16.22
51.734,15.99
51.750,15.82
51.765,16.36
51.781,18.11
51.796,21.28
51.812,25.63
51.828,30.59
51.843,35.31
51.859,39.03
51.875,41.18
51.890,41.49
51.906,39.99
51.921,36.9
51.937,32.55
51.953,27.33
51.968,21.55
51.984,15.29
52.000,8.4
52.015,0.44
52.031,-9.13
52.046,-20.72
52.062,-34.4
52.078,-49.73
52.093,-65.81
52.109,-81.45
52.125,-95.3
52.140,-106.03
52.156,-112.54
52.171,-114.14
52.187,-110.7
52.203,-102.78
52.218,-91.56
52.234,-78.61
52.250,-65.58
52.265,-53.77
52.281,-43.92
52.296,-36.21
52.312,-30.35
52.328,-25.88
52.343,-22.4
52.359,-19.75
52.375,-18.09
52.390,-17.67
52.406,-18.68
52.421,-21.02
52.437,-24.2
52.453,-27.5
52.468,-30.15
52.484,-31.64
52.500,-31.81
52.515,-30.76
52.531,-28.68
52.546,-25.6
52.562,-21.34
52.578,-15.63
52.593,-8.29
52.609,0.52
52.625,10.18
52.640,19.71
52.656,28.04
52.671,34.26
52.687,37.91
52.703,39.07
52.718,38.22
52.734,36.1
52.750,33.42
52.765,30.72
52.781,28.22
52.796,25.89
52.812,23.46
52.828,20.62
52.843,17.14
52.859,13.09
52.875,8.92
52.890,5.54
52.906,4.17
52.921,6.01
52.937,11.85
52.953,21.7
52.968,34.83
52.984,49.95
53.000,65.66
53.015,80.78
53.031,94.61
53.046,106.8
53.062,117.3
53.078,126.14
53.093,133.34
53.109,138.9
53.125,142.8
53.140,144.98
53.156,145.26
53.171,143.43
53.187,139.28
53.203,132.78
53.218,124.14
53.234,113.8
53.250,102.28
53.265,90.03
53.281,77.29
53.296,64.15
53.312,50.61
53.328,36.71
53.343,22.62
53.359,8.63
53.375,-4.99
53.390,-18.06
53.406,-30.55
53.421,-42.57
53.437,-54.26
53.453,-65.68
53.468,-76.79
53.484,-87.44
53.500,-97.46
53.515,-106.65
53.531,-114.7
53.546,-121.25
53.562,-125.91
53.578,-128.41
53.593,-128.65
53.609,-126.74
53.625,-122.88
53.640,-117.22
53.656,-109.81
53.671,-100.68
53.687,-90.0
53.703,-78.19
53.718,-65.91
53.734,-53.83
53.750,-42.44
53.765,-31.88
53.781,-22.05
53.796,-12.79
53.812,-4.12
53.828,3.67
53.843,10.03
53.859,14.39
53.875,16.36
53.890,15.95
53.906,13.57
53.921,9.97
53.937,6.03
53.953,2.54
53.984,-1.4
54.000,-1.69
54.015,-1.03
54.031,0.46
54.046,2.62
54.062,5.21
54.078,7.81
54.093,9.91
54.109,11.04
54.125,10.96
54.140,9.76
54.156,7.85
54.171,5.7
54.187,3.73
54.203,2.13
54.218,0.87
54.234,-0.23
54.250,-1.45
54.265,-3.08
54.281,-5.33
54.296,-8.25
54.312,-11.62
54.328,-14.82
54.343,-16.88
54.359,-16.71
54.375,-13.36
54.390,-6.36
54.406,4.02
54.421,16.83
54.437,30.53
54.453,43.44
54.468,54.06
54.484,61.42
54.500,65.12
54.515,65.31
54.531,62.44
54.546,57.16
54.562,50.24
54.578,42.51
54.593,34.94
54.609,28.45
54.625,23.68
54.640,20.79
54.656,19.38
54.671,18.67
54.687,17.83
54.703,16.48
54.718,14.75
54.734,13.35
54.750,13.1
54.765,14.53
54.781,17.46
54.796,20.96
54.812,23.5
54.828,23.43
54.843,19.61
54.859,11.74
54.875,0.55
54.890,-12.52
54.906,-25.74
54.921,-37.76
54.937,-47.85
54.953,-56.01
54.968,-62.75
54.984,-68.72
55.000,-74.5
55.015,-80.51
55.031,-86.97
55.046,-93.91
55.062,-101.04
55.078,-107.71
55.093,-112.88
55.109,-115.31
55.125,-113.98
55.140,-108.35
55.156,-98.6
55.171,-85.57
55.187,-70.51
55.203,-54.78
55.218,-39.58
55.234,-25.87
55.250,-14.39
55.265,-5.63
55.281,0.11
55.296,2.85
55.312,2.91
55.328,0.9
55.343,-2.34
55.359,-6.03
55.375,-9.57
55.390,-12.75
55.406,-15.8
55.421,-19.18
55.437,-23.42
55.453,-28.75
55.468,-34.82
55.484,-40.67
55.500,-44.9
55.515,-46.15
55.531,-43.57
55.546,-37.21
55.562,-27.93
55.578,-17.09
55.593,-6.01
55.609,4.44
55.625,13.88
55.640,22.27
55.656,29.64
55.671,35.99
55.687,41.24
55.703,45.37
55.718,48.57
55.734,51.07
55.750,53.08
55.765,54.6
55.781,55.54
55.796,55.95
55.812,56.35
55.828,57.75
55.843,61.53
55.859,68.96
55.875,80.82
55.890,97.19
55.906,117.31
55.921,139.9
55.937,163.38
55.953,186.19
55.968,207.03
55.984,225.07
56.000,240.07
56.015,252.29
56.031,262.54
56.046,271.76
56.062,280.67
56.078,289.35
56.093,296.97
56.109,301.72
56.125,301.14
56.140,292.72
56.156,274.66
56.171,246.67
56.187,210.28
56.203,168.72
56.218,126.13
56.234,86.53
56.250,52.83
56.265,26.35
56.281,6.82
56.296,-7.05
56.312,-16.93
56.328,-24.45
56.343,-30.92
56.359,-37.38
56.375,-44.71
56.390,-53.59
56.406,-64.52
56.421,-77.52
56.437,-92.22
56.453,-107.93
56.468,-123.81
56.484,-139.02
56.500,-152.69
56.515,-163.94
56.531,-171.71
56.546,-174.98
56.562,-172.99
56.578,-165.73
56.593,-154.31
56.609,-140.91
56.625,-128.31
56.640,-119.12
56.656,-114.94
56.671,-115.88
56.687,-120.62
56.703,-126.9
56.718,-132.33
56.734,-135.03
56.750,-133.94
56.765,-128.84
56.781,-120.19
56.796,-108.88
56.812,-96.22
56.828,-83.88
56.843,-73.87
56.859,-68.14
56.875,-68.25
56.890,-74.89
56.906,-87.65
56.921,-105.08
56.937,-125.06
56.953,-145.36
56.968,-163.92
56.984,-179.11
57.000,-189.69
57.015,-194.76
57.031,-193.75
57.046,-186.47
57.062,-173.25
57.078,-154.97
57.093,-133.18
57.109,-109.97
57.125,-87.79
57.140,-69.0
57.156,-55.42
57.171,-47.83
57.187,-45.77
57.203,-47.56
57.218,-50.83
57.234,-53.26
57.250,-53.14
57.265,-49.78
57.281,-43.46
57.296,-34.99
57.312,-25.34
57.328,-15.17
57.343,-4.64
57.359,6.48
57.375,18.57
57.390,31.84
57.406,46.12
57.421,60.91
57.437,75.56
57.453,89.4
57.468,101.97
57.484,112.93
57.500,122.05
57.515,129.02
57.531,133.53
57.546,135.37
57.562,134.58
57.578,131.55
57.593,127.03
57.609,121.96
57.625,117.28
57.640,113.81
57.656,112.05
57.671,112.22
57.687,114.11
57.703,117.19
57.718,120.7
57.734,123.77
57.750,125.69
57.765,125.88
57.781,123.96
57.796,119.56
57.812,112.3
57.828,101.84
57.843,88.17
57.859,71.92
57.875,54.49
57.890,37.9
57.906,24.37
57.921,15.64
57.937,12.62
57.953,15.08
57.968,21.87
57.984,31.13
58.000,40.79
58.015,48.8
58.031,53.45
58.046,53.51
58.062,48.38
58.078,38.29
58.093,24.23
58.109,7.9
58.125,-8.65
58.140,-23.44
58.156,-35.14
58.171,-43.43
58.187,-49.11
58.203,-53.95
58.218,-60.03
58.234,-69.07
58.250,-81.73
58.265,-97.42
58.281,-114.55
58.296,-131.25
58.312,-146.19
58.328,-159.13
58.343,-170.9
58.359,-182.92
58.375,-196.52
58.390,-212.44
58.406,-230.6
58.421,-250.1
58.437,-269.36
58.453,-286.27
58.468,-298.46
58.484,-303.82
58.500,-301.17
58.515,-290.81
58.531,-274.6
58.546,-255.36
58.562,-235.71
58.578,-217.09
58.593,-199.37
58.609,-181.26
58.625,-161.26
58.640,-138.5
58.656,-113.14
58.671,-86.16
58.687,-58.84
58.703,-32.26
58.718,-7.28
58.734,15.38
58.750,34.96
58.765,50.76
58.781,62.45
58.796,70.37
58.812,75.55
58.828,79.37
58.843,83.08
58.859,87.34
58.875,92.07
58.890,96.67
58.906,100.46
58.921,103.05
58.937,104.51
58.953,105.26
58.968,105.77
58.984,106.27
59.000,106.69
59.015,106.77
59.031,106.19
59.046,104.73
59.062,102.25
59.078,98.67
59.093,93.93
59.109,88.08
59.125,81.24
59.140,73.6
59.156,65.29
59.171,56.15
59.187,45.87
59.203,34.14
59.218,21.14
59.234,7.78
59.250,-4.21
59.265,-12.85
59.281,-16.57
59.296,-14.89
59.312,-8.61
59.328,0.6
59.343,10.86
59.359,20.72
59.375,29.5
59.390,37.24
59.406,44.31
59.421,51.08
59.437,57.75
59.453,64.23
59.468,70.23
59.484,75.3
59.500,78.81
59.515,80.12
59.531,78.68
59.546,74.23
59.562,67.03
59.578,57.96
59.593,48.32
59.609,39.56
59.625,32.75
59.640,28.3
59.656,25.84
59.671,24.43
59.687,23.07
59.703,21.13
59.718,18.6
59.734,15.89
59.750,13.6
59.765,12.14
59.781,11.64
59.796,12.0
59.812,13.0
59.828,14.4
59.843,15.98
59.859,17.41
59.875,18.28
59.890,18.31
59.906,17.52
59.921,16.46
59.937,16.09
59.953,17.52
59.968,21.56
59.984,28.42
