timestamp,value
00.000,-88.34
00.015,-85.45
00.031,-81.37
00.046,-75.98
00.062,-68.92
00.078,-59.8
00.093,-48.68
00.109,-36.31
00.125,-24.19
00.140,-13.9
00.156,-6.51
00.171,-2.06
00.187,0.41
00.203,2.16
00.218,4.07
00.234,6.08
00.250,7.51
00.265,7.49
00.281,5.67
00.296,2.38
00.312,-1.53
00.328,-4.99
00.343,-7.03
00.359,-6.97
00.375,-4.53
00.390,-0.11
00.406,4.95
00.421,8.37
00.437,7.53
00.453,0.37
00.468,-13.59
00.484,-32.99
00.500,-55.1
00.515,-76.88
00.531,-95.81
00.546,-110.4
00.562,-120.04
00.578,-124.59
00.593,-124.26
00.609,-119.41
00.625,-110.63
00.640,-98.71
00.656,-84.37
00.671,-68.29
00.687,-51.23
00.703,-34.2
00.718,-18.52
00.734,-5.5
00.750,4.11
00.765,10.56
00.781,14.99
00.796,18.8
00.812,22.79
00.828,26.72
00.843,29.5
00.859,29.84
00.875,27.01
00.890,21.28
00.906,13.68
00.921,5.61
00.937,-1.8
00.953,-7.89
00.968,-12.35
00.984,-15.01
01.000,-15.61
01.015,-13.79
01.031,-9.27
01.046,-2.18
01.062,6.73
01.078,16.09
01.093,24.22
01.109,29.64
01.125,31.52
01.140,29.95
01.156,25.81
01.171,20.26
01.187,14.34
01.203,8.63
01.218,3.22
01.234,-2.0
01.250,-7.14
01.265,-12.09
01.281,-16.57
01.296,-20.32
01.312,-23.22
01.328,-25.36
01.343,-26.96
01.359,-28.3
01.375,-29.54
01.390,-30.73
01.406,-31.77
01.421,-32.46
01.437,-32.59
01.453,-32.04
01.468,-30.83
01.484,-29.12
01.500,-27.16
01.515,-25.17
01.531,-23.35
01.546,-21.86
01.562,-20.85
01.578,-20.53
01.593,-21.06
01.609,-22.42
01.625,-24.39
01.640,-26.49
01.656,-28.16
01.671,-28.92
01.687,-28.52
01.703,-26.87
01.718,-24.03
01.734,-20.1
01.750,-15.29
01.765,-9.86
01.781,-4.17
01.796,1.42
01.812,6.61
01.828,11.26
01.843,15.38
01.859,19.02
01.875,22.19
01.890,24.76
01.906,26.62
01.921,27.7
01.937,28.08
01.953,27.91
01.968,27.4
01.984,26.65
02.000,25.68
02.015,24.47
02.031,23.05
02.046,21.45
02.062,19.77
02.078,18.04
02.093,16.2
02.109,14.18
02.125,11.81
02.140,8.97
02.156,5.53
02.171,1.49
02.187,-3.09
02.203,-8.05
02.218,-13.18
02.234,-18.28
02.250,-23.24
02.265,-28.1
02.281,-33.04
02.296,-38.19
02.312,-43.5
02.328,-48.63
02.343,-52.95
02.359,-55.78
02.375,-56.59
02.390,-55.17
02.406,-51.7
02.421,-46.6
02.437,-40.39
02.453,-33.52
02.468,-26.28
02.484,-18.89
02.500,-11.52
02.515,-4.44
02.531,2.01
02.546,7.5
02.562,11.9
02.578,15.21
02.593,17.68
02.609,19.63
02.625,21.32
02.640,22.88
02.656,24.26
02.671,25.34
02.687,25.97
02.703,26.16
02.718,26.0
02.734,25.66
02.750,25.22
02.765,24.7
02.781,24.01
02.796,22.97
02.812,21.45
02.828,19.38
02.843,16.86
02.859,14.09
02.875,11.37
02.890,8.94
02.906,6.94
02.921,5.35
02.937,3.94
02.953,2.29
02.968,-0.04
02.984,-3.33
03.000,-7.51
03.015,-12.09
03.031,-16.25
03.046,-19.0
03.062,-19.56
03.078,-17.63
03.093,-13.39
03.109,-7.47
03.125,-0.65
03.140,6.32
03.156,12.9
03.171,18.78
03.187,23.79
03.203,27.89
03.218,31.05
03.234,33.26
03.250,34.53
03.265,34.9
03.281,34.42
03.296,33.21
03.312,31.4
03.328,29.13
03.343,26.59
03.359,23.97
03.375,21.48
03.390,19.33
03.406,17.68
03.421,16.62
03.437,16.13
03.453,16.04
03.468,16.04
03.484,15.82
03.500,15.1
03.515,13.79
03.531,11.94
03.546,9.77
03.562,7.57
03.578,5.57
03.593,3.89
03.609,2.41
03.625,0.94
03.640,-0.78
03.656,-2.91
03.671,-5.46
03.687,-8.34
03.703,-11.33
03.718,-14.11
03.734,-16.21
03.750,-17.04
03.765,-15.97
03.781,-12.51
03.796,-6.55
03.812,1.49
03.828,10.71
03.843,19.99
03.859,28.39
03.875,35.39
03.890,40.96
03.906,45.48
03.921,49.4
03.937,53.13
03.953,56.81
03.968,60.33
03.984,63.44
04.000,65.81
04.015,67.16
04.031,67.28
04.046,66.03
04.062,63.43
04.078,59.59
04.093,54.78
04.109,49.35
04.125,43.7
04.140,38.21
04.156,33.12
04.171,28.54
04.187,24.41
04.203,20.54
04.218,16.71
04.234,12.75
04.250,8.64
04.265,4.51
04.281,0.62
04.296,-2.77
04.312,-5.47
04.328,-7.39
04.343,-8.64
04.359,-9.37
04.375,-9.82
04.390,-10.11
04.406,-10.22
04.421,-10.06
04.437,-9.45
04.453,-8.28
04.468,-6.54
04.484,-4.4
04.500,-2.1
04.515,0.11
04.531,2.06
04.546,3.7
04.562,5.02
04.578,6.06
04.593,6.8
04.609,7.26
04.625,7.4
04.640,7.31
04.656,7.08
04.671,6.79
04.687,6.41
04.703,5.79
04.718,4.76
04.734,3.16
04.750,1.08
04.765,-1.17
04.781,-3.14
04.796,-4.42
04.812,-4.83
04.828,-4.5
04.843,-3.86
04.859,-3.36
04.875,-3.38
04.890,-3.97
04.906,-4.94
04.921,-5.95
04.937,-6.71
04.953,-7.14
04.968,-7.32
04.984,-7.45
05.000,-7.68
05.015,-8.1
05.031,-8.7
05.046,-9.4
05.062,-10.03
05.078,-10.24
05.093,-9.49
05.109,-7.02
05.125,-2.12
05.140,5.68
05.156,16.35
05.171,29.29
05.187,43.4
05.203,57.33
05.218,69.73
05.234,79.45
05.250,85.72
05.265,88.23
05.281,87.07
05.296,82.73
05.312,75.96
05.328,67.55
05.343,58.32
05.359,48.92
05.375,39.91
05.390,31.75
05.406,24.85
05.421,19.4
05.437,15.32
05.453,12.21
05.468,9.48
05.484,6.51
05.500,2.86
05.515,-1.58
05.531,-6.67
05.546,-12.13
05.562,-17.7
05.578,-23.2
05.593,-28.5
05.609,-33.52
05.625,-38.14
05.640,-42.32
05.656,-46.07
05.671,-49.59
05.687,-53.12
05.703,-56.88
05.718,-60.8
05.734,-64.52
05.750,-67.4
05.765,-68.7
05.781,-67.89
05.796,-64.79
05.812,-59.74
05.828,-53.37
05.843,-46.37
05.859,-39.21
05.875,-32.07
05.890,-24.96
05.906,-17.9
05.921,-11.12
05.937,-4.99
05.953,0.06
05.968,3.81
05.984,6.29
06.000,7.73
06.015,8.49
06.031,8.87
06.046,9.13
06.062,9.33
06.078,9.48
06.093,9.49
06.109,9.22
06.125,8.57
06.140,7.42
06.156,5.76
06.171,3.58
06.187,0.94
06.203,-2.07
06.218,-5.26
06.234,-8.42
06.250,-11.32
06.265,-13.86
06.281,-16.16
06.296,-18.5
06.312,-21.24
06.328,-24.58
06.343,-28.45
06.359,-32.5
06.375,-36.19
06.390,-39.0
06.406,-40.46
06.421,-40.29
06.437,-38.44
06.453,-35.01
06.468,-30.31
06.484,-24.78
06.500,-18.9
06.515,-13.1
06.531,-7.74
06.546,-2.95
06.562,1.17
06.578,4.69
06.593,7.67
06.609,10.18
06.625,12.26
06.640,13.9
06.656,15.02
06.671,15.56
06.687,15.51
06.703,15.03
06.718,14.4
06.734,13.91
06.750,13.71
06.765,13.75
06.781,13.77
06.796,13.48
06.812,12.64
06.828,11.21
06.843,9.31
06.859,7.14
06.875,4.85
06.890,2.43
06.906,-0.23
06.921,-3.26
06.937,-6.73
06.953,-10.64
06.968,-14.84
06.984,-19.14
07.000,-23.24
07.015,-26.76
07.031,-29.29
07.046,-30.45
07.062,-29.97
07.078,-27.79
07.093,-24.11
07.109,-19.28
07.125,-13.76
07.140,-7.98
07.156,-2.28
07.171,3.09
07.187,7.93
07.203,12.09
07.218,15.47
07.234,18.08
07.250,20.0
07.265,21.36
07.281,22.21
07.296,22.57
07.312,22.44
07.328,21.91
07.343,21.19
07.359,20.6
07.375,20.37
07.390,20.53
07.406,20.8
07.421,20.7
07.437,19.73
07.453,17.64
07.468,14.44
07.484,10.34
07.500,5.59
07.515,0.37
07.531,-5.19
07.546,-10.99
07.562,-16.84
07.578,-22.52
07.593,-27.9
07.609,-32.99
07.625,-37.92
07.640,-42.75
07.656,-47.26
07.671,-50.94
07.687,-53.02
07.703,-52.81
07.718,-49.96
07.734,-44.74
07.750,-37.82
07.765,-30.1
07.781,-22.46
07.796,-15.39
07.812,-9.09
07.828,-3.53
07.843,1.39
07.859,5.71
07.875,9.38
07.890,12.31
07.906,14.55
07.921,16.19
07.937,17.44
07.953,18.46
07.968,19.3
07.984,19.87
08.000,20.04
08.015,19.76
08.031,19.08
08.046,18.13
08.062,16.97
08.078,15.53
08.093,13.65
08.109,11.17
08.125,8.15
08.140,4.84
08.156,1.66
08.171,-1.09
08.187,-3.37
08.203,-5.47
08.218,-7.87
08.234,-10.98
08.250,-14.96
08.265,-19.68
08.281,-24.82
08.296,-29.98
08.312,-34.75
08.328,-38.66
08.343,-41.2
08.359,-41.86
08.375,-40.28
08.390,-36.42
08.406,-30.6
08.421,-23.45
08.437,-15.7
08.453,-7.94
08.468,-0.57
08.484,6.24
08.500,12.43
08.515,17.87
08.531,22.39
08.546,25.82
08.562,28.08
08.578,29.26
08.593,29.65
08.609,29.58
08.625,29.32
08.640,28.97
08.656,28.48
08.671,27.74
08.687,26.68
08.703,25.36
08.718,23.94
08.734,22.54
08.750,21.2
08.765,19.81
08.781,18.23
08.796,16.3
08.812,13.97
08.828,11.15
08.843,7.81
08.859,3.9
08.875,-0.55
08.890,-5.38
08.906,-10.3
08.921,-14.99
08.937,-19.23
08.953,-22.99
08.968,-26.45
08.984,-29.95
09.000,-33.85
09.015,-38.42
09.031,-43.67
09.046,-49.33
09.062,-54.77
09.078,-59.06
09.093,-61.24
09.109,-60.6
09.125,-56.96
09.140,-50.8
09.156,-43.04
09.171,-34.69
09.187,-26.54
09.203,-18.99
09.218,-12.09
09.234,-5.82
09.250,-0.24
09.265,4.43
09.281,7.99
09.296,10.41
09.312,11.93
09.328,13.02
09.343,14.18
09.359,15.73
09.375,17.59
09.390,19.45
09.406,20.91
09.421,21.74
09.437,21.94
09.453,21.7
09.468,21.29
09.484,20.86
09.500,20.47
09.515,20.13
09.531,19.83
09.546,19.48
09.562,18.9
09.578,17.89
09.593,16.24
09.609,13.88
09.625,10.98
09.640,7.85
09.656,4.77
09.671,1.89
09.687,-0.94
09.703,-3.97
09.718,-7.42
09.734,-11.37
09.750,-15.61
09.765,-19.87
09.781,-23.75
09.796,-26.85
09.812,-28.74
09.828,-29.07
09.843,-27.61
09.859,-24.31
09.875,-19.46
09.890,-13.47
09.906,-6.86
09.921,-0.02
09.937,6.81
09.953,13.54
09.968,20.11
09.984,26.39
10.000,32.14
10.015,37.02
10.031,40.72
10.046,43.07
10.062,44.1
10.078,44.04
10.093,43.2
10.109,41.9
10.125,40.37
10.140,38.78
10.156,37.23
10.171,35.84
10.187,34.72
10.203,33.9
10.218,33.32
10.234,32.77
10.250,31.95
10.265,30.57
10.281,28.46
10.296,25.59
10.312,22.16
10.328,18.41
10.343,14.61
10.359,10.96
10.375,7.55
10.390,4.39
10.406,1.41
10.421,-1.5
10.437,-4.47
10.453,-7.61
10.468,-11.0
10.484,-14.7
10.500,-18.71
10.515,-22.91
10.531,-27.03
10.546,-30.65
10.562,-33.21
10.578,-34.19
10.593,-33.17
10.609,-30.02
10.625,-24.85
10.640,-18.09
10.656,-10.3
10.671,-2.1
10.687,5.97
10.703,13.52
10.718,20.28
10.734,26.13
10.750,30.99
10.765,34.85
10.781,37.68
10.796,39.5
10.812,40.37
10.828,40.42
10.843,39.82
10.859,38.78
10.875,37.52
10.890,36.2
10.906,34.93
10.921,33.7
10.937,32.42
10.953,30.98
10.968,29.27
10.984,27.26
11.000,24.99
11.015,22.5
11.031,19.83
11.046,16.94
11.062,13.81
11.078,10.43
11.093,6.89
11.109,3.3
11.125,-0.24
11.140,-3.67
11.156,-7.03
11.171,-10.35
11.187,-13.67
11.203,-16.96
11.218,-20.2
11.234,-23.45
11.250,-26.78
11.265,-30.3
11.281,-34.08
11.296,-38.05
11.312,-41.94
11.328,-45.35
11.343,-47.72
11.359,-48.53
11.375,-47.42
11.390,-44.27
11.406,-39.21
11.421,-32.63
11.437,-25.1
11.453,-17.15
11.468,-9.31
11.484,-1.95
11.500,4.7
11.515,10.55
11.531,15.58
11.546,19.85
11.562,23.42
11.578,26.28
11.593,28.38
11.609,29.66
11.625,30.15
11.640,29.97
11.656,29.37
11.671,28.63
11.687,27.99
11.703,27.56
11.718,27.34
11.734,27.19
11.750,26.95
11.765,26.43
11.781,25.47
11.796,23.98
11.812,21.9
11.828,19.27
11.843,16.22
11.859,12.92
11.875,9.59
11.890,6.36
11.906,3.29
11.921,0.35
11.937,-2.58
11.953,-5.61
11.968,-8.75
11.984,-11.9
12.000,-14.95
12.015,-17.81
12.031,-20.53
12.046,-23.3
12.062,-26.29
12.078,-29.67
12.093,-33.47
12.109,-37.48
12.125,-41.36
12.140,-44.53
12.156,-46.45
12.171,-46.58
12.187,-44.72
12.203,-40.95
12.218,-35.69
12.234,-29.48
12.250,-22.78
12.265,-15.87
12.281,-8.84
12.296,-1.74
12.312,5.27
12.328,11.87
12.343,17.69
12.359,22.42
12.375,25.93
12.390,28.3
12.406,29.67
12.421,30.21
12.437,30.07
12.453,29.4
12.468,28.42
12.484,27.33
12.500,26.28
12.515,25.33
12.531,24.45
12.546,23.54
12.562,22.52
12.578,21.31
12.593,19.84
12.609,18.13
12.625,16.19
12.640,14.13
12.656,12.05
12.671,10.08
12.687,8.24
12.703,6.46
12.718,4.48
12.734,2.02
12.750,-1.1
12.765,-4.88
12.781,-9.09
12.796,-13.38
12.812,-17.41
12.828,-20.97
12.843,-24.02
12.859,-26.66
12.875,-29.06
12.890,-31.37
12.906,-33.73
12.921,-36.23
12.937,-38.89
12.953,-41.59
12.968,-43.98
12.984,-45.47
13.000,-45.35
13.015,-43.05
13.031,-38.41
13.046,-31.87
13.062,-24.19
13.078,-16.3
13.093,-8.92
13.109,-2.42
13.125,3.15
13.140,7.91
13.156,11.87
13.171,14.97
13.187,17.14
13.203,18.41
13.218,19.04
13.234,19.39
13.250,19.8
13.265,20.43
13.281,21.19
13.296,21.8
13.312,22.0
13.328,21.68
13.343,20.96
13.359,20.13
13.375,19.4
13.390,18.86
13.406,18.4
13.421,17.78
13.437,16.76
13.453,15.23
13.468,13.31
13.484,11.19
13.500,9.08
13.515,7.02
13.531,4.92
13.546,2.56
13.562,-0.23
13.578,-3.46
13.593,-6.9
13.609,-10.28
13.625,-13.35
13.640,-16.08
13.656,-18.71
13.671,-21.55
13.687,-24.86
13.703,-28.6
13.718,-32.37
13.734,-35.54
13.750,-37.47
13.765,-37.71
13.781,-36.07
13.796,-32.67
13.812,-27.76
13.828,-21.64
13.843,-14.67
13.859,-7.22
13.875,0.25
13.890,7.31
13.906,13.58
13.921,18.84
13.937,23.0
13.953,26.08
13.968,28.15
13.984,29.36
14.000,29.9
14.015,29.96
14.031,29.78
14.046,29.53
14.062,29.28
14.078,28.99
14.093,28.55
14.109,27.86
14.125,26.89
14.140,25.62
14.156,24.13
14.171,22.48
14.187,20.67
14.203,18.69
14.218,16.51
14.234,14.12
14.250,11.5
14.265,8.69
14.281,5.69
14.296,2.59
14.312,-0.54
14.328,-3.6
14.343,-6.5
14.359,-9.2
14.375,-11.8
14.390,-14.47
14.406,-17.45
14.421,-20.93
14.437,-24.92
14.453,-29.24
14.468,-33.59
14.484,-37.55
14.500,-40.71
14.515,-42.74
14.531,-43.38
14.546,-42.5
14.562,-40.07
14.578,-36.25
14.593,-31.23
14.609,-25.29
14.625,-18.71
14.640,-11.74
14.656,-4.72
14.671,2.04
14.687,8.2
14.703,13.49
14.718,17.77
14.734,21.05
14.750,23.37
14.765,24.84
14.781,25.52
14.796,25.49
14.812,24.91
14.828,23.99
14.843,23.01
14.859,22.14
14.875,21.46
14.890,20.92
14.906,20.44
14.921,19.89
14.937,19.21
14.953,18.35
14.968,17.25
14.984,15.87
15.000,14.15
15.015,12.15
15.031,9.97
15.046,7.73
15.062,5.54
15.078,3.37
15.093,1.11
15.109,-1.38
15.125,-4.16
15.140,-7.18
15.156,-10.3
15.171,-13.43
15.187,-16.52
15.203,-19.64
15.218,-22.92
15.234,-26.48
15.250,-30.34
15.265,-34.44
15.281,-38.61
15.296,-42.5
15.312,-45.66
15.328,-47.57
15.343,-47.71
15.359,-45.82
15.375,-41.94
15.390,-36.49
15.406,-30.05
15.421,-23.22
15.437,-16.42
15.453,-9.78
15.468,-3.35
15.484,2.84
15.500,8.62
15.515,13.74
15.531,17.94
15.546,21.12
15.562,23.37
15.578,24.91
15.593,26.03
15.609,26.92
15.625,27.66
15.640,28.19
15.656,28.39
15.671,28.2
15.687,27.62
15.703,26.77
15.718,25.85
15.734,25.05
15.750,24.44
15.765,23.93
15.781,23.25
15.796,22.15
15.812,20.42
15.828,18.06
15.843,15.25
15.859,12.26
15.875,9.33
15.890,6.54
15.906,3.87
15.921,1.21
15.937,-1.53
15.953,-4.36
15.968,-7.25
15.984,-10.17
16.000,-13.15
16.015,-16.25
16.031,-19.57
16.046,-23.19
16.062,-27.13
16.078,-31.33
16.093,-35.64
16.109,-39.79
16.125,-43.49
16.140,-46.39
16.156,-48.17
16.171,-48.49
16.187,-47.14
16.203,-44.05
16.218,-39.34
16.234,-33.33
16.250,-26.44
16.265,-19.11
16.281,-11.7
16.296,-4.49
16.312,2.34
16.328,8.55
16.343,13.85
16.359,17.92
16.375,20.6
16.390,21.91
16.406,22.23
16.421,22.04
16.437,21.81
16.453,21.77
16.468,21.93
16.484,22.12
16.500,22.21
16.515,22.12
16.531,21.8
16.546,21.28
16.562,20.5
16.578,19.39
16.593,17.92
16.609,16.2
16.625,14.42
16.640,12.8
16.656,11.35
16.671,9.93
16.687,8.15
16.703,5.62
16.718,2.14
16.734,-2.2
16.750,-7.0
16.765,-11.62
16.781,-15.44
16.796,-18.11
16.812,-19.67
16.828,-20.57
16.843,-21.54
16.859,-23.23
16.875,-25.9
16.890,-29.31
16.906,-32.73
16.921,-35.3
16.937,-36.29
16.953,-35.35
16.968,-32.57
16.984,-28.36
17.000,-23.23
17.015,-17.69
17.031,-12.19
17.046,-7.18
17.062,-3.07
17.078,-0.18
17.093,1.33
17.109,1.55
17.125,0.71
17.140,-0.91
17.156,-3.06
17.171,-5.55
17.187,-8.15
17.203,-10.44
17.218,-11.78
17.234,-11.56
17.250,-9.49
17.265,-5.91
17.281,-1.7
17.296,1.99
17.312,4.39
17.328,5.48
17.343,6.03
17.359,7.13
17.375,9.55
17.390,13.28
17.406,17.54
17.421,21.26
17.437,23.74
17.453,24.93
17.468,25.47
17.484,26.23
17.500,27.86
17.515,30.51
17.531,33.89
17.546,37.46
17.562,40.67
17.578,43.06
17.593,44.36
17.609,44.5
17.625,43.65
17.640,42.19
17.656,40.71
17.671,39.86
17.687,40.15
17.703,41.82
17.718,44.8
17.734,48.66
17.750,52.71
17.765,56.11
17.781,58.05
17.796,57.99
17.812,55.75
17.828,51.55
17.843,45.97
17.859,39.81
17.875,33.91
17.890,29.08
17.906,25.96
17.921,24.96
17.937,26.22
17.953,29.56
17.968,34.51
17.984,40.47
18.000,46.91
18.015,53.58
18.031,60.49
18.046,67.86
18.062,75.83
18.078,84.23
18.093,92.5
18.109,99.68
18.125,104.44
18.140,105.22
18.156,100.39
18.171,88.55
18.187,68.99
18.203,42.16
18.218,9.91
18.234,-24.73
18.250,-58.2
18.265,-87.3
18.281,-109.97
18.296,-125.5
18.312,-134.23
18.328,-136.93
18.343,-134.25
18.359,-126.56
18.375,-114.19
18.390,-97.79
18.406,-78.53
18.421,-58.06
18.437,-38.17
18.453,-20.4
18.468,-5.76
18.484,5.35
18.500,13.12
18.515,18.18
18.531,21.45
18.546,23.83
18.562,26.06
18.578,28.46
18.593,31.02
18.609,33.57
18.625,35.84
18.640,37.65
18.656,38.75
18.671,38.8
18.687,37.25
18.703,33.57
18.718,27.54
18.734,19.44
18.750,10.05
18.765,0.31
18.781,-9.08
18.796,-17.96
18.812,-26.68
18.828,-35.77
18.843,-45.41
18.859,-55.12
18.875,-63.77
18.890,-70.1
18.906,-73.44
18.921,-74.21
18.937,-74.03
18.953,-75.18
18.968,-79.64
18.984,-88.18
19.000,-99.94
19.015,-112.69
19.031,-123.64
19.046,-130.44
19.062,-131.88
19.078,-128.0
19.093,-119.72
19.109,-108.31
19.125,-94.97
19.140,-80.74
19.156,-66.59
19.171,-53.36
19.187,-41.75
19.203,-32.19
19.218,-24.69
19.234,-18.99
19.250,-14.65
19.265,-11.28
19.281,-8.68
19.296,-6.81
19.312,-5.63
19.328,-5.05
19.343,-4.84
19.359,-4.76
19.375,-4.64
19.390,-4.37
19.406,-3.91
19.421,-3.21
19.437,-2.22
19.453,-0.95
19.468,0.3
19.484,1.06
19.500,0.8
19.515,-0.76
19.531,-3.52
19.546,-6.97
19.562,-10.47
19.578,-13.58
19.593,-16.28
19.609,-19.04
19.625,-22.46
19.640,-27.05
19.656,-32.97
19.671,-40.0
19.687,-47.72
19.703,-55.5
19.718,-62.66
19.734,-68.39
19.750,-71.88
19.765,-72.5
19.781,-69.98
19.796,-64.51
19.812,-56.74
19.828,-47.54
19.843,-37.69
19.859,-27.79
19.875,-18.17
19.890,-8.97
19.906,-0.26
19.921,7.9
19.937,15.41
19.953,22.21
19.968,28.26
19.984,33.59
20.000,38.27
20.015,42.45
20.031,46.32
20.046,50.06
20.062,53.69
20.078,57.09
20.093,60.04
20.109,62.34
20.125,63.95
20.140,65.05
20.156,65.98
20.171,67.06
20.187,68.39
20.203,69.76
20.218,70.73
20.234,70.85
20.250,69.84
20.265,67.79
20.281,65.04
20.296,62.06
20.312,59.22
20.328,56.7
20.343,54.47
20.359,52.41
20.375,50.37
20.390,48.23
20.406,45.97
20.421,43.59
20.437,41.18
20.453,38.84
20.468,36.65
20.484,34.64
20.500,32.75
20.515,30.82
20.531,28.73
20.546,26.47
20.562,24.18
20.578,22.1
20.593,20.39
20.609,19.06
20.625,17.9
20.640,16.58
20.656,14.82
20.671,12.52
20.687,9.82
20.703,6.99
20.718,4.4
20.734,2.27
20.750,0.6
20.765,-0.87
20.781,-2.49
20.796,-4.55
20.812,-7.07
20.828,-9.8
20.843,-12.31
20.859,-14.24
20.875,-15.5
20.890,-16.33
20.906,-17.17
20.921,-18.4
20.937,-20.3
20.953,-22.98
20.968,-26.51
20.984,-30.91
21.000,-36.09
21.015,-41.75
21.031,-47.37
21.046,-52.41
21.062,-56.55
21.078,-59.97
21.093,-63.23
21.109,-66.96
21.125,-71.34
21.140,-75.82
21.156,-79.27
21.171,-80.36
21.187,-78.2
21.203,-72.63
21.218,-64.33
21.234,-54.49
21.250,-44.33
21.265,-34.71
21.281,-26.0
21.296,-18.14
21.312,-10.92
21.328,-4.33
21.343,1.44
21.359,5.97
21.375,8.87
21.390,10.05
21.406,9.8
21.421,8.74
21.437,7.51
21.453,6.6
21.468,6.11
21.484,5.91
21.500,5.81
21.515,5.71
21.531,5.73
21.546,5.99
21.562,6.54
21.578,7.21
21.593,7.74
21.609,7.88
21.625,7.69
21.640,7.49
21.656,7.84
21.671,9.21
21.687,11.79
21.703,15.19
21.718,18.52
21.734,20.44
21.750,19.57
21.765,15.01
21.781,6.71
21.796,-4.26
21.812,-16.03
21.828,-26.44
21.843,-33.71
21.859,-36.78
21.875,-35.48
21.890,-30.3
21.906,-22.06
21.921,-11.77
21.937,-0.55
21.953,10.37
21.968,19.82
21.984,26.99
22.000,31.71
22.015,34.43
22.031,36.02
22.046,37.24
22.062,38.41
22.078,39.37
22.093,39.8
22.109,39.53
22.125,38.8
22.140,38.11
22.156,37.95
22.171,38.47
22.187,39.42
22.203,40.27
22.218,40.54
22.234,39.95
22.250,38.52
22.265,36.42
22.281,33.78
22.296,30.68
22.312,27.14
22.328,23.17
22.343,18.83
22.359,14.21
22.375,9.33
22.390,4.15
22.406,-1.34
22.421,-7.12
22.437,-12.99
22.453,-18.6
22.468,-23.47
22.484,-27.01
22.500,-28.66
22.515,-27.91
22.531,-24.47
22.546,-18.35
22.562,-9.92
22.578,0.12
22.593,10.89
22.609,21.52
22.625,31.39
22.640,40.22
22.656,48.13
22.671,55.49
22.687,62.72
22.703,70.15
22.718,77.8
22.734,85.46
22.750,92.78
22.765,99.5
22.781,105.56
22.796,111.11
22.812,116.43
22.828,121.75
22.843,127.16
22.859,132.72
22.875,138.49
22.890,144.55
22.906,150.88
22.921,157.01
22.937,161.88
22.953,163.87
22.968,161.27
22.984,152.93
23.000,138.66
23.015,119.44
23.031,97.02
23.046,73.44
23.062,50.43
23.078,29.16
23.093,10.29
23.109,-5.9
23.125,-19.2
23.140,-29.36
23.156,-36.12
23.171,-39.28
23.187,-38.87
23.203,-35.26
23.218,-29.16
23.234,-21.48
23.250,-13.16
23.265,-5.02
23.281,2.23
23.296,7.79
23.312,10.49
23.328,8.61
23.343,0.32
23.359,-15.49
23.375,-38.43
23.390,-66.31
23.406,-95.78
23.421,-123.51
23.437,-147.29
23.453,-166.47
23.468,-181.37
23.484,-192.3
23.500,-198.82
23.515,-199.97
23.531,-195.13
23.546,-185.04
23.562,-171.99
23.578,-159.12
23.593,-149.03
23.609,-142.69
23.625,-139.33
23.640,-137.2
23.656,-134.79
23.671,-131.6
23.687,-128.16
23.703,-125.45
23.718,-124.2
23.734,-124.39
23.750,-125.43
23.765,-126.5
23.781,-127.06
23.796,-126.89
23.812,-126.03
23.828,-124.42
23.843,-121.62
23.859,-116.83
23.875,-109.12
23.890,-97.87
23.906,-83.01
23.921,-65.23
23.937,-45.77
23.953,-26.09
23.968,-7.5
23.984,9.07
24.000,23.15
24.015,34.7
24.031,43.9
24.046,51.06
24.062,56.39
24.078,60.01
24.093,61.97
24.109,62.4
24.125,61.6
24.140,60.06
24.156,58.36
24.171,56.96
24.187,56.0
24.203,55.35
24.218,54.62
24.234,53.49
24.250,51.88
24.265,49.96
24.281,48.05
24.296,46.36
24.312,44.85
24.328,43.19
24.343,40.89
24.359,37.61
24.375,33.3
24.390,28.34
24.406,23.26
24.421,18.55
24.437,14.32
24.453,10.19
24.468,5.47
24.484,-0.46
24.500,-7.93
24.515,-16.65
24.531,-25.84
24.546,-34.5
24.562,-41.68
24.578,-46.75
24.593,-49.42
24.609,-49.71
24.625,-47.79
24.640,-43.99
24.656,-38.78
24.671,-32.7
24.687,-26.31
24.703,-20.09
24.718,-14.33
24.734,-9.17
24.750,-4.65
24.765,-0.76
24.781,2.42
24.796,4.84
24.812,6.54
24.828,7.7
24.843,8.61
24.859,9.57
24.875,10.74
24.890,12.09
24.906,13.55
24.921,15.03
24.937,16.61
24.953,18.42
24.968,20.58
24.984,23.06
25.000,25.61
25.015,27.88
25.031,29.55
25.046,30.44
25.062,30.6
25.078,30.18
25.093,29.36
25.109,28.24
25.125,26.84
25.140,25.1
25.156,22.91
25.171,20.13
25.187,16.53
25.203,11.89
25.218,6.07
25.234,-0.86
25.250,-8.48
25.265,-16.03
25.281,-22.54
25.296,-27.14
25.312,-29.19
25.328,-28.51
25.343,-25.41
25.359,-20.48
25.375,-14.45
25.390,-7.97
25.406,-1.55
25.421,4.54
25.437,10.13
25.453,15.17
25.468,19.66
25.484,23.57
25.500,26.86
25.515,29.39
25.531,31.05
25.546,31.76
25.562,31.57
25.578,30.69
25.593,29.5
25.609,28.36
25.625,27.54
25.640,27.09
25.656,26.9
25.671,26.71
25.687,26.32
25.703,25.61
25.718,24.56
25.734,23.2
25.750,21.56
25.765,19.66
25.781,17.52
25.796,15.19
25.812,12.75
25.828,10.36
25.843,8.18
25.859,6.33
25.875,4.8
25.890,3.45
25.906,1.95
25.921,-0.08
25.937,-2.96
25.953,-6.91
25.968,-11.85
25.984,-17.44
26.000,-23.07
26.015,-27.93
26.031,-31.22
26.046,-32.3
26.062,-30.89
26.078,-27.15
26.093,-21.58
26.109,-14.9
26.125,-7.69
26.140,-0.35
26.156,7.0
26.171,14.33
26.187,21.6
26.203,28.61
26.218,35.07
26.234,40.77
26.250,45.58
26.265,49.55
26.281,52.79
26.296,55.51
26.312,57.94
26.328,60.38
26.343,63.14
26.359,66.48
26.375,70.47
26.390,74.99
26.406,79.77
26.421,84.51
26.437,89.11
26.453,93.63
26.468,98.15
26.484,102.57
26.500,106.53
26.515,109.55
26.531,111.35
26.546,112.08
26.562,112.4
26.578,113.11
26.593,114.73
26.609,117.13
26.625,119.6
26.640,121.31
26.656,121.66
26.671,120.51
26.687,117.89
26.703,113.7
26.718,107.55
26.734,98.96
26.750,87.79
26.765,74.4
26.781,59.67
26.796,44.53
26.812,29.69
26.828,15.53
26.843,2.39
26.859,-9.23
26.875,-18.69
26.890,-25.46
26.906,-29.52
26.921,-31.43
26.937,-31.98
26.953,-31.67
26.968,-30.45
26.984,-27.79
27.000,-23.21
27.015,-16.71
27.031,-8.86
27.046,-0.59
27.062,7.24
27.078,14.06
27.093,19.56
27.109,23.6
27.125,26.15
27.140,27.29
27.156,27.31
27.171,26.55
27.187,25.14
27.203,22.93
27.218,19.49
27.234,14.55
27.250,8.33
27.265,1.66
27.281,-4.41
27.296,-9.15
27.312,-12.62
27.328,-15.65
27.343,-19.31
27.359,-24.26
27.375,-30.32
27.390,-36.61
27.406,-42.07
27.421,-46.08
27.437,-48.76
27.453,-50.75
27.468,-52.81
27.484,-55.37
27.500,-58.23
27.515,-60.88
27.531,-62.69
27.546,-63.29
27.562,-62.77
27.578,-61.6
27.593,-60.42
27.609,-59.74
27.625,-59.84
27.640,-60.75
27.656,-62.4
27.671,-64.77
27.687,-67.81
27.703,-71.27
27.718,-74.55
27.734,-76.72
27.750,-76.88
27.765,-74.56
27.781,-70.06
27.796,-64.34
27.812,-58.61
27.828,-53.69
27.843,-49.69
27.859,-46.01
27.875,-41.78
27.890,-36.41
27.906,-29.97
27.921,-23.15
27.937,-16.92
27.953,-12.07
27.968,-8.88
27.984,-7.15
28.000,-6.28
28.015,-5.7
28.031,-5.04
28.046,-4.22
28.062,-3.31
28.078,-2.43
28.093,-1.49
28.109,-0.23
28.125,1.68
28.140,4.39
28.156,7.78
28.171,11.47
28.187,14.99
28.203,18.0
28.218,20.38
28.234,22.21
28.250,23.56
28.265,24.36
28.281,24.37
28.296,23.3
28.312,20.94
28.328,17.32
28.343,12.79
28.359,7.89
28.375,3.24
28.390,-0.66
28.406,-3.57
28.421,-5.51
28.437,-6.69
28.453,-7.4
28.468,-7.9
28.484,-8.42
28.500,-9.11
28.515,-10.08
28.531,-11.39
28.546,-12.99
28.562,-14.71
28.578,-16.28
28.593,-17.43
28.609,-18.11
28.625,-18.41
28.640,-18.54
28.656,-18.56
28.671,-18.33
28.687,-17.5
28.703,-15.67
28.718,-12.69
28.734,-8.71
28.750,-4.16
28.765,0.4
28.781,4.43
28.796,7.61
28.812,9.84
28.828,11.13
28.843,11.67
28.859,11.71
28.875,11.63
28.890,11.74
28.906,12.29
28.921,13.26
28.937,14.4
28.953,15.26
28.968,15.46
28.984,14.78
29.000,13.17
29.015,10.6
29.031,6.96
29.046,2.09
29.062,-4.02
29.078,-10.97
29.093,-17.87
29.109,-23.64
29.125,-27.46
29.140,-29.3
29.156,-29.88
29.171,-30.36
29.187,-31.66
29.203,-34.0
29.218,-36.97
29.234,-39.91
29.250,-42.42
29.265,-44.55
29.281,-46.65
29.296,-48.9
29.312,-51.07
29.328,-52.58
29.343,-52.83
29.359,-51.5
29.375,-48.7
29.390,-44.73
29.406,-39.91
29.421,-34.35
29.437,-28.01
29.453,-20.9
29.468,-13.15
29.484,-5.03
29.500,3.19
29.515,11.39
29.531,19.62
29.546,28.0
29.562,36.59
29.578,45.28
29.593,53.8
29.609,61.83
29.625,69.08
29.640,75.35
29.656,80.57
29.671,84.64
29.687,87.39
29.703,88.54
29.718,87.79
29.734,85.09
29.750,80.69
29.765,75.11
29.781,68.99
29.796,62.8
29.812,56.97
29.828,51.84
29.843,47.7
29.859,44.64
29.875,42.41
29.890,40.27
29.906,37.24
29.921,32.58
29.937,26.18
29.953,18.72
29.968,11.34
29.984,5.03
30.000,0.22
30.015,-3.28
30.031,-5.98
30.046,-8.37
30.062,-10.76
30.078,-13.47
30.093,-17.05
30.109,-22.15
30.125,-29.18
30.140,-38.0
30.156,-47.72
30.171,-57.07
30.187,-64.91
30.203,-70.53
30.218,-73.77
30.234,-74.63
30.250,-73.01
30.265,-68.53
30.281,-60.75
30.296,-49.62
30.312,-35.75
30.328,-20.53
30.343,-5.82
30.359,6.51
30.375,15.06
30.390,19.32
30.406,19.68
30.421,17.21
30.437,13.16
30.453,8.59
30.468,4.1
30.484,-0.17
30.500,-4.27
30.515,-8.13
30.531,-11.39
30.546,-13.48
30.562,-13.82
30.578,-12.15
30.593,-8.73
30.609,-4.28
30.625,0.22
30.640,3.9
30.656,6.2
30.671,6.91
30.687,6.05
30.703,3.68
30.718,-0.24
30.734,-5.8
30.750,-13.01
30.765,-21.54
30.781,-30.75
30.796,-39.81
30.812,-47.91
30.828,-54.65
30.843,-60.07
30.859,-64.62
30.875,-68.92
30.890,-73.35
30.906,-77.93
30.921,-82.34
30.937,-86.07
30.953,-88.78
30.968,-90.59
30.984,-91.97
31.000,-93.51
31.015,-95.53
31.031,-97.82
31.046,-99.61
31.062,-99.91
31.078,-97.96
31.093,-93.53
31.109,-86.95
31.125,-78.91
31.140,-70.18
31.156,-61.43
31.171,-53.34
31.187,-46.54
31.203,-41.7
31.218,-39.34
31.234,-39.54
31.250,-41.85
31.265,-45.34
31.281,-48.9
31.296,-51.58
31.312,-52.89
31.328,-52.75
31.343,-51.38
31.359,-49.02
31.375,-45.82
31.390,-41.78
31.406,-36.88
31.421,-31.19
31.437,-24.87
31.453,-18.11
31.468,-11.08
31.484,-4.02
31.500,2.76
31.515,8.79
31.531,13.55
31.546,16.65
31.562,17.99
31.578,17.89
31.593,17.03
31.609,16.19
31.625,15.97
31.640,16.57
31.656,17.73
31.671,18.93
31.687,19.55
31.703,19.19
31.718,17.72
31.734,15.32
31.750,12.37
31.765,9.33
31.781,6.54
31.796,4.23
31.812,2.57
31.828,1.75
31.843,2.09
31.859,4.01
31.875,7.86
31.890,13.75
31.906,21.37
31.921,30.1
31.937,39.18
31.953,48.04
31.968,56.43
31.984,64.44
32.000,72.25
32.015,79.91
32.031,87.14
32.046,93.33
32.062,97.79
32.078,99.94
32.093,99.63
32.109,97.21
32.125,93.4
32.140,89.06
32.156,84.86
32.171,81.08
32.187,77.56
32.203,73.94
32.218,69.79
32.234,65.02
32.250,59.72
32.265,54.16
32.281,48.53
32.296,42.76
32.312,36.62
32.328,29.97
32.343,22.96
32.359,16.0
32.375,9.6
32.390,3.94
32.406,-1.34
32.421,-7.01
32.437,-13.97
32.453,-22.75
32.468,-33.25
32.484,-44.78
32.500,-56.39
32.515,-67.25
32.531,-76.99
32.546,-85.68
32.562,-93.6
32.578,-101.01
32.593,-107.92
32.609,-113.95
32.625,-118.49
32.640,-120.85
32.656,-120.41
32.671,-116.91
32.687,-110.41
32.703,-101.29
32.718,-90.17
32.734,-77.7
32.750,-64.6
32.765,-51.49
32.781,-39.0
32.796,-27.64
32.812,-17.76
32.828,-9.5
32.843,-2.75
32.859,2.71
32.875,7.29
32.890,11.31
32.906,15.12
32.921,18.94
32.937,22.9
32.953,26.94
32.968,30.9
32.984,34.48
33.000,37.43
33.015,39.73
33.031,41.49
33.046,42.94
33.062,44.27
33.078,45.42
33.093,46.14
33.109,46.17
33.125,45.44
33.140,44.11
33.156,42.58
33.171,41.2
33.187,40.11
33.203,39.12
33.218,37.95
33.234,36.37
33.250,34.36
33.265,32.11
33.281,29.88
33.296,27.81
33.312,25.9
33.328,24.07
33.343,22.26
33.359,20.45
33.375,18.69
33.390,16.99
33.406,15.33
33.421,13.79
33.437,12.69
33.453,12.65
33.468,14.48
33.484,18.95
33.500,26.44
33.515,36.79
33.531,49.32
33.546,62.97
33.562,76.74
33.578,89.8
33.593,101.74
33.609,112.41
33.625,121.79
33.640,129.72
33.656,135.9
33.671,139.91
33.687,141.44
33.703,140.41
33.718,137.01
33.734,131.62
33.750,124.61
33.765,116.25
33.781,106.63
33.796,95.77
33.812,83.78
33.828,70.99
33.843,58.02
33.859,45.68
33.875,34.86
33.890,26.16
33.906,19.7
33.921,14.92
33.937,10.84
33.953,6.44
33.968,1.05
33.984,-5.42
34.000,-12.69
34.015,-20.38
34.031,-28.41
34.046,-36.9
34.062,-45.94
34.078,-55.24
34.093,-64.1
34.109,-71.6
34.125,-77.25
34.140,-81.31
34.156,-84.82
34.171,-89.09
34.187,-94.97
34.203,-102.19
34.218,-109.31
34.234,-114.19
34.250,-114.87
34.265,-110.38
34.281,-101.12
34.296,-88.62
34.312,-74.95
34.328,-61.88
34.343,-50.41
34.359,-40.67
34.375,-32.23
34.390,-24.57
34.406,-17.42
34.421,-10.8
34.437,-5.02
34.453,-0.49
34.468,2.32
34.484,3.01
34.500,1.36
34.515,-2.57
34.531,-8.34
34.546,-15.13
34.562,-21.97
34.578,-28.0
34.593,-32.69
34.609,-35.83
34.625,-37.43
34.640,-37.6
34.656,-36.49
34.671,-34.33
34.687,-31.53
34.703,-28.75
34.718,-26.73
34.734,-26.15
34.750,-27.37
34.765,-30.34
34.781,-34.63
34.796,-39.59
34.812,-44.53
34.828,-48.9
34.843,-52.46
34.859,-55.25
34.875,-57.57
34.890,-59.87
34.906,-62.5
34.921,-65.52
34.937,-68.64
34.953,-71.14
34.968,-72.21
34.984,-71.08
35.000,-67.3
35.015,-60.78
35.031,-51.84
35.046,-41.14
35.062,-29.49
35.078,-17.78
35.093,-6.8
35.109,2.92
35.125,11.14
35.140,17.89
35.156,23.38
35.171,27.8
35.187,31.26
35.203,33.8
35.218,35.48
35.234,36.47
35.250,37.1
35.265,37.75
35.281,38.69
35.296,39.93
35.312,41.21
35.328,42.17
35.343,42.47
35.359,42.0
35.375,40.94
35.390,39.57
35.406,38.19
35.421,36.91
35.437,35.59
35.453,33.99
35.468,31.87
35.484,29.17
35.500,25.94
35.515,22.38
35.531,18.69
35.546,14.95
35.562,11.18
35.578,7.39
35.593,3.57
35.609,-0.24
35.625,-4.09
35.640,-8.08
35.656,-12.35
35.671,-16.9
35.687,-21.52
35.703,-25.64
35.718,-28.46
35.734,-29.25
35.750,-27.52
35.765,-23.25
35.781,-16.87
35.796,-9.18
35.812,-1.05
35.828,6.79
35.843,13.89
35.859,20.1
35.875,25.43
35.890,30.03
35.906,33.97
35.921,37.3
35.937,40.01
35.953,42.05
35.968,43.42
35.984,44.1
36.000,44.14
36.015,43.66
36.031,42.83
36.046,41.81
36.062,40.76
36.078,39.74
36.093,38.74
36.109,37.72
36.125,36.55
36.140,35.11
36.156,33.29
36.171,31.04
36.187,28.4
36.203,25.49
36.218,22.49
36.234,19.54
36.250,16.67
36.265,13.8
36.281,10.81
36.296,7.6
36.312,4.2
36.328,0.77
36.343,-2.53
36.359,-5.67
36.375,-8.78
36.390,-12.08
36.406,-15.81
36.421,-20.06
36.437,-24.7
36.453,-29.41
36.468,-33.69
36.484,-36.92
36.500,-38.54
36.515,-38.15
36.531,-35.56
36.546,-30.9
36.562,-24.54
36.578,-17.03
36.593,-9.01
36.609,-1.02
36.625,6.59
36.640,13.64
36.656,20.1
36.671,25.93
36.687,31.01
36.703,35.13
36.718,38.06
36.734,39.76
36.750,40.43
36.765,40.5
36.781,40.5
36.796,40.76
36.812,41.33
36.828,41.98
36.843,42.42
36.859,42.47
36.875,42.1
36.890,41.44
36.906,40.62
36.921,39.69
36.937,38.59
36.953,37.33
36.968,35.95
36.984,34.57
37.000,33.3
37.015,32.15
37.031,30.98
37.046,29.54
37.062,27.59
37.078,25.09
37.093,22.19
37.109,19.19
37.125,16.38
37.140,13.83
37.156,11.35
37.171,8.53
37.187,4.89
37.203,0.12
37.218,-5.82
37.234,-12.68
37.250,-20.04
37.265,-27.36
37.281,-34.02
37.296,-39.36
37.312,-42.8
37.328,-43.92
37.343,-42.64
37.359,-39.31
37.375,-34.62
37.390,-29.38
37.406,-24.28
37.421,-19.69
37.437,-15.71
37.453,-12.22
37.468,-9.06
37.484,-6.21
37.500,-3.76
37.515,-1.91
37.531,-0.82
37.546,-0.48
37.562,-0.74
37.578,-1.29
37.593,-1.78
37.609,-1.92
37.625,-1.6
37.640,-0.83
37.656,0.26
37.671,1.5
37.687,2.74
37.703,3.83
37.718,4.67
37.734,5.15
37.750,5.23
37.765,4.91
37.781,4.2
37.796,3.21
37.812,2.08
37.828,0.93
37.843,-0.13
37.859,-1.04
37.875,-1.81
37.890,-2.45
37.906,-3.05
37.921,-3.69
37.937,-4.49
37.953,-5.66
37.968,-7.36
37.984,-9.84
38.000,-13.22
38.015,-17.44
38.031,-22.23
38.046,-27.1
38.062,-31.4
38.078,-34.55
38.093,-36.19
38.109,-36.18
38.125,-34.61
38.140,-31.57
38.156,-27.13
38.171,-21.39
38.187,-14.61
38.203,-7.31
38.218,-0.25
38.234,5.85
38.250,10.64
38.265,14.25
38.281,17.12
38.296,19.69
38.312,22.07
38.328,23.98
38.343,24.98
38.359,24.85
38.375,23.8
38.390,22.42
38.406,21.28
38.421,20.71
38.437,20.63
38.453,20.66
38.468,20.42
38.484,19.75
38.500,18.67
38.515,17.35
38.531,15.95
38.546,14.46
38.562,12.82
38.578,10.91
38.593,8.62
38.609,5.9
38.625,2.82
38.640,-0.5
38.656,-3.87
38.671,-7.08
38.687,-10.01
38.703,-12.63
38.718,-15.01
38.734,-17.33
38.750,-19.75
38.765,-22.43
38.781,-25.42
38.796,-28.67
38.812,-31.97
38.828,-34.93
38.843,-37.06
38.859,-37.86
38.875,-36.94
38.890,-34.11
38.906,-29.45
38.921,-23.25
38.937,-15.98
38.953,-8.21
38.968,-0.53
38.984,6.49
39.000,12.45
39.015,17.15
39.031,20.7
39.046,23.34
39.062,25.33
39.078,26.82
39.093,27.77
39.109,28.06
39.125,27.71
39.140,26.91
39.156,26.02
39.171,25.36
39.187,25.09
39.203,25.12
39.218,25.18
39.234,24.94
39.250,24.2
39.265,22.92
39.281,21.18
39.296,19.1
39.312,16.76
39.328,14.2
39.343,11.42
39.359,8.42
39.375,5.23
39.390,1.88
39.406,-1.56
39.421,-4.94
39.437,-8.03
39.453,-10.57
39.468,-12.5
39.484,-14.07
39.500,-15.84
39.515,-18.57
39.531,-22.79
39.546,-28.46
39.562,-34.91
39.578,-40.92
39.593,-45.17
39.609,-46.74
39.625,-45.34
39.640,-41.3
39.656,-35.32
39.671,-28.22
39.687,-20.71
39.703,-13.31
39.718,-6.4
39.734,-0.18
39.750,5.21
39.765,9.77
39.781,13.51
39.796,16.52
39.812,18.82
39.828,20.49
39.843,21.63
39.859,22.34
39.875,22.76
39.890,22.95
39.906,22.88
39.921,22.5
39.937,21.83
39.953,20.99
39.968,20.2
39.984,19.64
40.000,19.36
40.015,19.17
40.031,18.74
40.046,17.77
40.062,16.1
40.078,13.75
40.093,10.96
40.109,7.91
40.125,4.78
40.140,1.61
40.156,-1.58
40.171,-4.79
40.187,-7.99
40.203,-11.09
40.218,-14.08
40.234,-16.96
40.250,-19.86
40.265,-22.86
40.281,-26.03
40.296,-29.28
40.312,-32.44
40.328,-35.26
40.343,-37.4
40.359,-38.57
40.375,-38.5
40.390,-36.96
40.406,-33.86
40.421,-29.22
40.437,-23.25
40.453,-16.35
40.468,-9.03
40.484,-1.78
40.500,4.98
40.515,10.99
40.531,16.07
40.546,20.12
40.562,23.04
40.578,24.73
40.593,25.23
40.609,24.72
40.625,23.64
40.640,22.52
40.656,21.87
40.671,21.98
40.687,22.73
40.703,23.76
40.718,24.49
40.734,24.47
40.750,23.53
40.765,21.84
40.781,19.73
40.796,17.56
40.812,15.46
40.828,13.32
40.843,10.93
40.859,8.16
40.875,5.04
40.890,1.84
40.906,-1.19
40.921,-3.88
40.937,-6.32
40.953,-8.72
40.968,-11.28
40.984,-14.08
41.000,-17.04
41.015,-20.03
41.031,-23.05
41.046,-26.27
41.062,-29.94
41.078,-34.22
41.093,-38.86
41.109,-43.19
41.125,-46.24
41.140,-47.03
41.156,-45.02
41.171,-40.25
41.187,-33.33
41.203,-25.21
41.218,-16.75
41.234,-8.49
41.250,-0.64
41.265,6.82
41.281,13.88
41.296,20.32
41.312,25.76
41.328,29.83
41.343,32.33
41.359,33.44
41.375,33.63
41.390,33.46
41.406,33.37
41.421,33.5
41.437,33.73
41.453,33.78
41.468,33.45
41.484,32.7
41.500,31.65
41.515,30.43
41.531,29.11
41.546,27.59
41.562,25.72
41.578,23.32
41.593,20.27
41.609,16.58
41.625,12.32
41.640,7.67
41.656,2.89
41.671,-1.78
41.687,-6.11
41.703,-9.98
41.718,-13.41
41.734,-16.49
41.750,-19.27
41.765,-21.76
41.781,-23.86
41.796,-25.56
41.812,-27.06
41.828,-28.76
41.843,-31.1
41.859,-34.32
41.875,-38.18
41.890,-42.0
41.906,-44.88
41.921,-45.96
41.937,-44.75
41.953,-41.21
41.968,-35.64
41.984,-28.46
42.000,-20.12
42.015,-11.06
42.031,-1.7
42.046,7.42
42.062,15.79
42.078,22.94
42.093,28.62
42.109,32.83
42.125,35.73
42.140,37.48
42.156,38.24
42.171,38.08
42.187,37.08
42.203,35.41
42.218,33.33
42.234,31.16
42.250,29.17
42.265,27.49
42.281,26.06
42.296,24.79
42.312,23.55
42.328,22.27
42.343,20.92
42.359,19.48
42.375,17.83
42.390,15.81
42.406,13.31
42.421,10.27
42.437,6.84
42.453,3.18
42.468,-0.5
42.484,-4.03
42.500,-7.31
42.515,-10.34
42.531,-13.16
42.546,-15.89
42.562,-18.7
42.578,-21.76
42.593,-25.23
42.609,-29.22
42.625,-33.69
42.640,-38.42
42.656,-43.05
42.671,-47.01
42.687,-49.69
42.703,-50.49
42.718,-48.97
42.734,-44.99
42.750,-38.75
42.765,-30.78
42.781,-21.84
42.796,-12.67
42.812,-3.87
42.828,4.21
42.843,11.42
42.859,17.71
42.875,22.99
42.890,27.06
42.906,29.76
42.921,31.02
42.937,31.08
42.953,30.39
42.968,29.46
42.984,28.65
43.000,28.03
43.015,27.4
43.031,26.49
43.046,25.12
43.062,23.31
43.078,21.29
43.093,19.28
43.109,17.46
43.125,15.82
43.140,14.28
43.156,12.74
43.171,11.16
43.187,9.53
43.203,7.78
43.218,5.82
43.234,3.47
43.250,0.51
43.265,-3.25
43.281,-7.81
43.296,-12.96
43.312,-18.27
43.328,-23.21
43.343,-27.35
43.359,-30.57
43.375,-33.15
43.390,-35.67
43.406,-38.62
43.421,-42.13
43.437,-45.71
43.453,-48.39
43.468,-49.12
43.484,-47.14
43.500,-42.34
43.515,-35.18
43.531,-26.47
43.546,-17.02
43.562,-7.47
43.578,1.74
43.593,10.26
43.609,17.8
43.625,24.08
43.640,28.95
43.656,32.42
43.671,34.61
43.687,35.74
43.703,36.0
43.718,35.61
43.734,34.69
43.750,33.4
43.765,31.83
43.781,30.02
43.796,27.98
43.812,25.7
43.828,23.23
43.843,20.66
43.859,18.08
43.875,15.52
43.890,12.95
43.906,10.32
43.921,7.65
43.937,5.01
43.953,2.5
43.968,0.11
43.984,-2.32
44.000,-5.0
44.015,-8.11
44.031,-11.64
44.046,-15.4
44.062,-19.1
44.078,-22.52
44.093,-25.63
44.109,-28.61
44.125,-31.78
44.140,-35.35
44.156,-39.36
44.171,-43.53
44.187,-47.33
44.203,-50.09
44.218,-51.17
44.234,-50.19
44.250,-47.04
44.265,-41.95
44.281,-35.33
44.296,-27.67
44.312,-19.37
44.328,-10.76
44.343,-2.13
44.359,6.22
44.375,13.92
44.390,20.59
44.406,25.93
44.421,29.78
44.437,32.2
44.453,33.46
44.468,33.92
44.484,33.94
44.500,33.75
44.515,33.35
44.531,32.62
44.546,31.36
44.562,29.48
44.578,27.12
44.593,24.63
44.609,22.39
44.625,20.63
44.640,19.3
44.656,18.04
44.671,16.38
44.687,13.94
44.703,10.54
44.718,6.28
44.734,1.43
44.750,-3.72
44.765,-8.86
44.781,-13.78
44.796,-18.29
44.812,-22.25
44.828,-25.53
44.843,-28.17
44.859,-30.28
44.875,-32.12
44.890,-34.0
44.906,-36.24
44.921,-38.96
44.937,-42.06
44.953,-45.16
44.968,-47.71
44.984,-49.01
45.000,-48.45
45.015,-45.63
45.031,-40.4
45.046,-32.91
45.062,-23.63
45.078,-13.31
45.093,-2.85
45.109,6.91
45.125,15.42
45.140,22.61
45.156,28.76
45.171,34.33
45.187,39.64
45.203,44.69
45.218,49.24
45.234,52.93
45.250,55.63
45.265,57.51
45.281,59.08
45.296,60.97
45.312,63.75
45.328,67.92
45.343,73.76
45.359,81.25
45.375,89.88
45.390,98.36
45.406,104.7
45.421,106.57
45.437,102.05
45.453,90.24
45.468,71.78
45.484,48.63
45.500,23.51
45.515,-0.99
45.531,-23.03
45.546,-41.8
45.562,-57.19
45.578,-69.49
45.593,-79.03
45.609,-86.07
45.625,-90.91
45.640,-93.92
45.656,-95.58
45.671,-96.21
45.687,-95.76
45.703,-93.68
45.718,-89.1
45.734,-81.1
45.750,-69.2
45.765,-53.65
45.781,-35.41
45.796,-15.86
45.812,3.61
45.828,22.07
45.843,39.17
45.859,54.99
45.875,69.83
45.890,83.86
45.906,97.06
45.921,109.23
45.937,120.21
45.953,129.79
45.968,137.67
45.984,143.27
46.000,145.72
46.015,144.06
46.031,137.67
46.046,126.52
46.062,111.29
46.078,93.01
46.093,72.72
46.109,51.19
46.125,29.02
46.140,6.96
46.156,-13.81
46.171,-31.79
46.187,-45.56
46.203,-54.44
46.218,-58.81
46.234,-60.07
46.250,-60.02
46.265,-60.23
46.281,-61.62
46.296,-64.3
46.312,-67.81
46.328,-71.23
46.343,-73.31
46.359,-72.56
46.375,-67.51
46.390,-57.22
46.406,-41.7
46.421,-22.24
46.437,-1.15
46.453,18.84
46.468,35.34
46.484,46.91
46.500,53.16
46.515,54.6
46.531,52.14
46.546,46.82
46.562,39.52
46.578,30.89
46.593,21.33
46.609,10.98
46.625,-0.16
46.640,-12.06
46.656,-24.34
46.671,-36.31
46.687,-46.98
46.703,-55.34
46.718,-60.77
46.734,-63.18
46.750,-63.06
46.765,-61.17
46.781,-58.34
46.796,-55.18
46.812,-52.08
46.828,-49.39
46.843,-47.46
46.859,-46.65
46.875,-47.19
46.890,-48.95
46.906,-51.42
46.921,-53.88
46.937,-55.62
46.953,-56.3
46.968,-56.09
46.984,-55.49
47.000,-55.13
47.015,-55.37
47.031,-56.2
47.046,-57.28
47.062,-58.09
47.078,-58.17
47.093,-57.15
47.109,-54.83
47.125,-51.13
47.140,-46.12
47.156,-40.0
47.171,-33.08
47.187,-25.7
47.203,-18.19
47.218,-10.8
47.234,-3.62
47.250,3.28
47.265,9.88
47.281,16.11
47.296,21.89
47.312,27.12
47.328,31.65
47.343,35.31
47.359,37.85
47.375,39.03
47.390,38.78
47.406,37.23
47.421,34.75
47.437,31.81
47.453,28.75
47.468,25.73
47.484,22.71
47.500,19.62
47.515,16.56
47.531,13.84
47.546,11.92
47.562,11.1
47.578,11.24
47.593,11.71
47.609,11.53
47.625,9.63
47.640,5.4
47.656,-1.22
47.671,-9.59
47.687,-18.54
47.703,-26.75
47.718,-32.99
47.734,-36.47
47.750,-36.83
47.765,-34.29
47.781,-29.43
47.796,-23.24
47.812,-16.96
47.828,-12.0
47.843,-9.66
47.859,-10.71
47.875,-14.94
47.890,-20.97
47.906,-26.48
47.921,-28.92
47.937,-26.47
47.953,-18.77
47.968,-7.06
47.984,6.33
48.000,18.98
48.015,29.16
48.031,36.33
48.046,40.92
48.062,43.8
48.078,45.75
48.093,47.24
48.109,48.44
48.125,49.33
48.140,49.87
48.156,49.97
48.171,49.46
48.187,48.18
48.203,46.04
48.218,43.13
48.234,39.7
48.250,36.05
48.265,32.39
48.281,28.67
48.296,24.6
48.312,19.77
48.328,13.93
48.343,7.19
48.359,0.05
48.375,-6.76
48.390,-12.53
48.406,-16.9
48.421,-20.04
48.437,-22.66
48.453,-25.71
48.468,-30.08
48.484,-36.19
48.500,-43.7
48.515,-51.61
48.531,-58.45
48.546,-62.8
48.562,-63.67
48.578,-60.81
48.593,-54.74
48.609,-46.48
48.625,-37.22
48.640,-27.95
48.656,-19.3
48.671,-11.55
48.687,-4.7
48.703,1.42
48.718,6.98
48.734,12.14
48.750,16.85
48.765,20.87
48.781,23.69
48.796,24.69
48.812,23.36
48.828,19.51
48.843,13.42
48.859,5.86
48.875,-2.08
48.890,-9.13
48.906,-14.17
48.921,-16.41
48.937,-15.56
48.953,-11.84
48.968,-5.95
48.984,1.1
49.000,8.24
49.015,14.61
49.031,19.69
49.046,23.26
49.062,25.49
49.078,26.76
49.093,27.57
49.109,28.36
49.125,29.47
49.140,30.98
49.156,32.81
49.171,34.87
49.187,37.28
49.203,40.61
49.218,45.75
49.234,53.57
49.250,64.44
49.265,77.75
49.281,91.85
49.296,104.49
49.312,113.28
49.328,116.18
49.343,111.76
49.359,99.22
49.375,78.58
49.390,51.06
49.406,19.49
49.421,-11.81
49.437,-37.78
49.453,-54.12
49.468,-58.75
49.484,-52.54
49.500,-38.8
49.515,-21.79
49.531,-5.1
49.546,9.18
49.562,20.27
49.578,27.88
49.593,31.4
49.609,29.84
49.625,22.49
49.640,9.66
49.656,-7.06
49.671,-25.35
49.687,-43.22
49.703,-59.7
49.718,-75.02
49.734,-90.0
49.750,-105.24
49.765,-120.55
49.781,-135.08
49.796,-147.81
49.812,-158.07
49.828,-165.68
49.843,-170.65
49.859,-172.85
49.875,-171.79
49.890,-166.8
49.906,-157.48
49.921,-144.14
49.937,-127.8
49.953,-109.95
49.968,-92.08
49.984,-75.34
50.000,-60.34
50.015,-47.23
50.031,-35.88
50.046,-26.12
50.062,-17.8
50.078,-10.89
50.093,-5.34
50.109,-1.02
50.125,2.41
50.140,5.4
50.156,8.5
50.171,12.02
50.187,16.02
50.203,20.22
50.218,24.12
50.234,27.3
50.250,29.5
50.265,30.75
50.281,31.2
50.296,31.0
50.312,30.24
50.328,28.92
50.343,27.07
50.359,24.8
50.375,22.34
50.390,20.01
50.406,18.1
50.421,16.76
50.437,15.91
50.453,15.23
50.468,14.17
50.484,12.15
50.500,8.75
50.515,3.98
50.531,-1.67
50.546,-7.31
50.562,-11.94
50.578,-14.7
50.593,-15.12
50.609,-13.12
50.625,-8.88
50.640,-2.82
50.656,4.66
50.671,13.05
50.687,21.78
50.703,30.27
50.718,37.89
50.734,44.1
50.750,48.53
50.765,51.11
50.781,51.96
50.796,51.45
50.812,49.97
50.828,47.86
50.843,45.36
50.859,42.48
50.875,39.16
50.890,35.35
50.906,31.16
50.921,26.8
50.937,22.57
50.953,18.7
50.968,15.32
50.984,12.39
51.000,9.78
51.015,7.28
51.031,4.68
51.046,1.81
51.062,-1.43
51.078,-4.97
51.093,-8.59
51.109,-11.94
51.125,-14.77
51.140,-17.04
51.156,-18.96
51.171,-20.86
51.187,-22.93
51.203,-24.96
51.218,-26.29
51.234,-26.02
51.250,-23.3
51.265,-17.73
51.281,-9.45
51.296,0.91
51.312,12.49
51.328,24.45
51.343,36.21
51.359,47.41
51.375,57.86
51.390,67.36
51.406,75.71
51.421,82.57
51.437,87.62
51.453,90.6
51.468,91.39
51.484,90.02
51.500,86.65
51.515,81.51
51.531,74.89
51.546,67.16
51.562,58.69
51.578,49.92
51.593,41.18
51.609,32.74
51.625,24.79
51.640,17.45
51.656,10.89
51.671,5.24
51.687,0.56
51.703,-3.29
51.718,-6.66
51.734,-10.05
51.750,-13.88
51.765,-18.26
51.781,-22.93
51.796,-27.39
51.812,-31.19
51.828,-34.1
51.843,-36.28
51.859,-38.04
51.875,-39.82
51.890,-41.9
51.906,-44.41
51.921,-47.32
51.937,-50.5
51.953,-53.64
51.968,-56.24
51.984,-57.58
52.000,-56.89
52.015,-53.61
52.031,-47.63
52.046,-39.35
52.062,-29.59
52.078,-19.29
52.093,-9.25
52.109,0.09
52.125,8.59
52.140,16.26
52.156,23.06
52.171,28.84
52.187,33.35
52.203,36.44
52.218,38.18
52.234,38.86
52.250,38.9
52.265,38.63
52.281,38.17
52.296,37.47
52.312,36.44
52.328,35.1
52.343,33.53
52.359,31.94
52.375,30.43
52.390,28.96
52.406,27.38
52.421,25.54
52.437,23.32
52.453,20.71
52.468,17.72
52.484,14.35
52.500,10.6
52.515,6.5
52.531,2.18
52.546,-2.11
52.562,-6.13
52.578,-9.78
52.593,-13.06
52.609,-16.17
52.625,-19.38
52.640,-22.94
52.656,-27.0
52.671,-31.43
52.687,-35.87
52.703,-39.63
52.718,-41.94
52.734,-42.14
52.750,-39.96
52.765,-35.61
52.781,-29.72
52.796,-23.03
52.812,-16.11
52.828,-9.21
52.843,-2.28
52.859,4.78
52.875,11.95
52.890,18.92
52.906,25.2
52.921,30.25
52.937,33.71
52.953,35.51
52.968,35.87
52.984,35.19
53.000,33.93
53.015,32.52
53.031,31.24
53.046,30.12
53.062,29.03
53.078,27.75
53.093,26.07
53.109,23.96
53.125,21.57
53.140,19.11
53.156,16.76
53.171,14.53
53.187,12.26
53.203,9.71
53.218,6.68
53.234,3.09
53.250,-0.89
53.265,-4.97
53.281,-8.81
53.296,-12.18
53.312,-15.03
53.328,-17.54
53.343,-19.95
53.359,-22.56
53.375,-25.62
53.390,-29.27
53.406,-33.43
53.421,-37.93
53.437,-42.34
53.453,-46.1
53.468,-48.61
53.484,-49.25
53.500,-47.6
53.515,-43.57
53.531,-37.4
53.546,-29.61
53.562,-20.9
53.578,-11.92
53.593,-3.13
53.609,5.14
53.625,12.77
53.640,19.62
53.656,25.46
53.671,30.01
53.687,33.01
53.703,34.42
53.718,34.53
53.734,33.97
53.750,33.44
53.765,33.43
53.781,34.03
53.796,34.88
53.812,35.51
53.828,35.63
53.843,35.4
53.859,35.26
53.875,35.69
53.890,36.75
53.906,38.02
53.921,38.7
53.937,38.03
53.953,35.62
53.968,31.62
53.984,26.59
54.000,21.21
54.015,16.03
54.031,11.37
54.046,7.36
54.062,4.07
54.078,1.5
54.093,-0.43
54.109,-2.08
54.125,-4.01
54.140,-6.81
54.156,-10.97
54.171,-16.65
54.187,-23.69
54.203,-31.64
54.218,-39.95
54.234,-48.06
54.250,-55.47
54.265,-61.75
54.281,-66.57
54.296,-69.64
54.312,-70.85
54.328,-70.23
54.343,-67.88
54.359,-63.98
54.375,-58.63
54.390,-51.91
54.406,-43.94
54.421,-34.92
54.437,-25.19
54.453,-15.2
54.468,-5.45
54.484,3.56
54.500,11.43
54.515,17.8
54.531,22.51
54.546,25.45
54.562,26.73
54.578,26.61
54.593,25.52
54.609,23.98
54.625,22.49
54.640,21.39
54.656,20.76
54.671,20.41
54.687,19.98
54.703,19.06
54.718,17.4
54.734,14.94
54.750,11.85
54.765,8.46
54.781,5.07
54.796,1.88
54.812,-1.08
54.828,-3.87
54.843,-6.6
54.859,-9.26
54.875,-11.84
54.890,-14.26
54.906,-16.53
54.921,-18.73
54.937,-20.96
54.953,-23.18
54.968,-25.16
54.984,-26.44
55.000,-26.47
55.015,-24.88
55.031,-21.59
55.046,-16.86
55.062,-11.18
55.078,-5.06
55.093,1.09
55.109,7.07
55.125,12.75
55.140,18.02
55.156,22.67
55.171,26.53
55.187,29.41
55.203,31.3
55.218,32.31
55.234,32.62
55.250,32.45
55.265,31.92
55.281,31.14
55.296,30.14
55.312,28.94
55.328,27.48
55.343,25.69
55.359,23.56
55.375,21.17
55.390,18.68
55.406,16.3
55.421,14.19
55.437,12.39
55.453,10.79
55.468,9.19
55.484,7.38
55.500,5.26
55.515,2.83
55.531,0.17
55.546,-2.61
55.562,-5.42
55.578,-8.19
55.593,-10.87
55.609,-13.44
55.625,-15.91
55.640,-18.41
55.656,-21.23
55.671,-24.69
55.687,-29.03
55.703,-34.2
55.718,-39.85
55.734,-45.26
55.750,-49.62
55.765,-52.2
55.781,-52.59
55.796,-50.79
55.812,-47.12
55.828,-42.08
55.843,-36.18
55.859,-29.84
55.875,-23.38
55.890,-17.05
55.906,-11.08
55.921,-5.71
55.937,-1.13
55.953,2.59
55.968,5.52
55.984,7.78
56.000,9.52
56.015,10.83
56.031,11.72
56.046,12.18
56.062,12.22
56.078,11.93
56.093,11.5
56.109,11.11
56.125,10.92
56.140,10.97
56.156,11.21
56.171,11.5
56.187,11.69
56.203,11.71
56.218,11.49
56.234,11.03
56.250,10.33
56.265,9.37
56.281,8.19
56.296,6.83
56.312,5.32
56.328,3.65
56.343,1.8
56.359,-0.3
56.375,-2.72
56.390,-5.45
56.406,-8.37
56.421,-11.24
56.437,-13.82
56.453,-15.97
56.468,-17.68
56.484,-18.97
56.500,-19.77
56.515,-19.83
56.531,-18.82
56.546,-16.46
56.562,-12.65
56.578,-7.57
56.593,-1.59
56.609,4.88
56.625,11.53
56.640,18.16
56.656,24.65
56.671,30.79
56.687,36.3
56.703,40.77
56.718,43.86
56.734,45.44
56.750,45.61
56.765,44.75
56.781,43.35
56.796,41.83
56.812,40.49
56.828,39.4
56.843,38.46
56.859,37.5
56.875,36.35
56.890,34.96
56.906,33.29
56.921,31.42
56.937,29.46
56.953,27.56
56.968,25.91
56.984,24.59
57.000,23.5
57.015,22.36
57.031,20.75
57.046,18.33
57.062,14.96
57.078,10.84
57.093,6.37
57.109,2.03
57.125,-1.77
57.140,-4.89
57.156,-7.4
57.171,-9.55
57.187,-11.59
57.203,-13.71
57.218,-15.77
57.234,-17.36
57.250,-17.8
57.265,-16.39
57.281,-12.66
57.296,-6.56
57.312,1.49
57.328,10.71
57.343,20.18
57.359,29.06
57.375,36.7
57.390,42.74
57.406,47.06
57.421,49.79
57.437,51.2
57.453,51.66
57.468,51.52
57.484,51.09
57.500,50.52
57.515,49.74
57.531,48.49
57.546,46.36
57.562,42.91
57.578,37.89
57.593,31.37
57.609,23.85
57.625,16.26
57.640,9.7
57.656,5.1
57.671,2.87
57.687,2.79
57.703,4.05
57.718,5.65
57.734,6.82
57.750,7.24
57.765,7.14
57.781,7.08
57.796,7.67
57.812,9.35
57.828,12.23
57.843,15.98
57.859,19.83
57.875,22.59
57.890,22.97
57.906,19.91
57.921,12.91
57.937,2.33
57.953,-10.79
57.968,-25.17
57.984,-39.76
58.000,-54.05
58.015,-67.96
58.031,-81.5
58.046,-94.32
58.062,-105.6
58.078,-114.27
58.093,-119.41
58.109,-120.66
58.125,-118.28
58.140,-112.99
58.156,-105.6
58.171,-96.74
58.187,-86.77
58.203,-75.92
58.218,-64.53
58.234,-53.11
58.250,-42.39
58.265,-33.02
58.281,-25.32
58.296,-19.15
58.312,-13.92
58.328,-8.86
58.343,-3.33
58.359,2.91
58.375,9.65
58.390,16.36
58.406,22.41
58.421,27.24
58.437,30.52
58.453,32.2
58.468,32.44
58.484,31.55
58.500,29.88
58.515,27.71
58.531,25.13
58.546,22.13
58.562,18.58
58.578,14.38
58.593,9.63
58.609,4.53
58.625,-0.66
58.640,-5.79
58.656,-10.93
58.671,-16.33
58.687,-22.12
58.703,-28.19
58.718,-34.02
58.734,-38.79
58.750,-41.7
58.765,-42.13
58.781,-39.86
58.796,-35.05
58.812,-28.23
58.828,-20.1
58.843,-11.48
58.859,-3.11
58.875,4.46
58.890,11.0
58.906,16.56
58.921,21.29
58.937,25.3
58.953,28.48
58.968,30.66
58.984,31.71
59.000,31.76
59.015,31.15
59.031,30.29
59.046,29.41
59.062,28.52
59.078,27.39
59.093,25.81
59.109,23.8
59.125,21.65
59.140,19.69
59.156,18.17
59.171,17.08
59.187,16.19
59.203,15.19
59.218,13.89
59.234,12.25
59.250,10.41
59.265,8.56
59.281,6.83
59.296,5.23
59.312,3.67
59.328,2.03
59.343,0.28
59.359,-1.48
59.375,-3.09
59.390,-4.4
59.406,-5.38
59.421,-6.13
59.437,-6.78
59.453,-7.44
59.468,-8.04
59.484,-8.44
59.500,-8.49
59.515,-8.15
59.531,-7.53
59.546,-6.79
59.562,-6.08
59.578,-5.44
59.593,-4.89
59.609,-4.43
59.625,-4.11
59.640,-4.04
59.656,-4.31
59.671,-5.01
59.687,-6.19
59.703,-7.87
59.718,-9.98
59.734,-12.35
59.750,-14.7
59.765,-16.76
59.781,-18.39
59.796,-19.64
59.812,-20.75
59.828,-22.03
59.843,-23.71
59.859,-25.79
59.875,-28.11
59.890,-30.5
59.906,-32.82
59.921,-35.13
59.937,-37.54
59.953,-40.23
59.968,-43.29
59.984,-46.8
