timestamp,value
00.000,40.45
00.015,47.47
00.031,52.07
00.046,54.57
00.062,55.15
00.078,54.0
00.093,51.56
00.109,48.46
00.125,45.33
00.140,42.58
00.156,40.18
00.171,37.67
00.187,34.39
00.203,29.74
00.218,23.49
00.234,15.91
00.250,7.62
00.265,-0.63
00.281,-8.26
00.296,-15.03
00.312,-21.09
00.328,-26.69
00.343,-32.07
00.359,-37.37
00.375,-42.55
00.390,-47.68
00.406,-52.96
00.421,-58.73
00.437,-65.39
00.453,-73.32
00.468,-82.73
00.484,-93.66
00.500,-105.81
00.515,-118.22
00.531,-129.26
00.546,-136.59
00.562,-137.8
00.578,-131.27
00.593,-117.02
00.609,-96.95
00.625,-74.43
00.640,-53.13
00.656,-35.7
00.671,-23.09
00.687,-14.63
00.703,-9.06
00.718,-5.61
00.734,-4.72
00.750,-7.74
00.765,-16.04
00.781,-29.67
00.796,-46.92
00.812,-64.69
00.828,-79.6
00.843,-89.32
00.859,-93.33
00.875,-93.04
00.890,-91.02
00.906,-90.27
00.921,-93.34
00.937,-101.82
00.953,-116.17
00.968,-135.0
00.984,-154.78
01.000,-169.85
01.015,-173.43
01.031,-160.09
01.046,-128.74
01.062,-84.59
01.078,-38.43
01.093,-3.05
01.109,12.14
01.125,5.13
01.140,-17.85
01.156,-45.54
01.171,-66.9
01.187,-75.61
01.203,-71.56
01.218,-59.0
01.234,-43.12
01.250,-27.09
01.265,-11.52
01.281,4.42
01.296,21.21
01.312,37.98
01.328,53.06
01.343,65.11
01.359,74.19
01.375,81.72
01.390,89.75
01.406,99.88
01.421,112.46
01.437,126.56
01.453,140.06
01.468,150.57
01.484,156.12
01.500,156.03
01.515,151.22
01.531,143.94
01.546,136.89
01.562,132.09
01.578,130.14
01.593,130.02
01.609,129.8
01.625,127.55
01.640,122.35
01.656,114.46
01.671,105.09
01.687,95.61
01.703,86.94
01.718,79.21
01.734,72.02
01.750,64.84
01.765,57.47
01.781,50.07
01.796,43.14
01.812,37.18
01.828,32.49
01.843,29.14
01.859,26.81
01.875,25.01
01.890,23.15
01.906,20.87
01.921,18.19
01.937,15.75
01.953,14.57
01.968,15.88
01.984,20.61
02.000,29.12
02.015,41.15
02.031,55.92
02.046,72.38
02.062,89.33
02.078,105.45
02.093,119.27
02.109,129.44
02.125,135.0
02.140,135.85
02.156,132.85
02.171,127.57
02.187,121.76
02.203,116.74
02.218,113.23
02.234,111.32
02.250,110.89
02.265,111.79
02.281,113.87
02.296,116.81
02.312,119.85
02.328,121.78
02.343,121.31
02.359,117.54
02.375,110.31
02.390,100.26
02.406,88.34
02.421,75.43
02.437,61.99
02.453,47.99
02.468,33.23
02.484,17.7
02.500,1.77
02.515,-13.87
02.531,-28.41
02.546,-41.21
02.562,-51.99
02.578,-60.5
02.593,-66.52
02.609,-69.59
02.625,-69.12
02.640,-64.68
02.656,-56.38
02.671,-45.13
02.687,-32.62
02.703,-21.11
02.718,-12.81
02.734,-9.54
02.750,-12.24
02.765,-20.94
02.781,-34.82
02.796,-52.35
02.812,-71.61
02.828,-90.38
02.843,-106.45
02.859,-117.78
02.875,-123.01
02.890,-121.78
02.906,-114.95
02.921,-104.34
02.937,-92.1
02.953,-80.27
02.968,-70.3
02.984,-63.11
03.000,-59.06
03.015,-57.98
03.031,-59.02
03.046,-60.51
03.062,-60.25
03.078,-56.07
03.093,-46.77
03.109,-32.79
03.125,-16.24
03.140,-0.21
03.156,12.31
03.171,19.4
03.187,20.81
03.203,17.78
03.218,12.58
03.234,7.67
03.250,5.06
03.265,5.69
03.281,9.28
03.296,14.53
03.312,19.86
03.328,23.91
03.343,26.07
03.359,26.39
03.375,25.2
03.390,22.82
03.406,19.54
03.421,15.94
03.437,13.06
03.453,11.88
03.468,12.65
03.484,14.36
03.500,15.16
03.515,13.43
03.531,8.91
03.546,3.0
03.562,-2.14
03.578,-4.9
03.593,-5.41
03.609,-5.32
03.625,-6.78
03.640,-10.94
03.656,-17.28
03.671,-24.12
03.687,-29.81
03.703,-33.73
03.718,-36.39
03.734,-38.84
03.750,-41.88
03.765,-45.74
03.781,-50.24
03.796,-55.13
03.812,-60.18
03.828,-65.05
03.843,-69.08
03.859,-71.13
03.875,-69.98
03.890,-64.75
03.906,-55.34
03.921,-42.7
03.937,-28.44
03.953,-14.42
03.968,-2.15
03.984,7.48
04.000,14.3
04.015,18.67
04.031,21.16
04.046,22.34
04.062,22.59
04.078,22.14
04.093,21.12
04.109,19.53
04.125,17.37
04.140,14.56
04.156,11.09
04.171,7.03
04.187,2.54
04.203,-2.11
04.218,-6.59
04.234,-10.56
04.250,-13.72
04.265,-15.82
04.281,-16.79
04.296,-16.73
04.312,-15.99
04.328,-15.17
04.343,-15.03
04.359,-16.18
04.375,-18.9
04.390,-22.95
04.406,-27.57
04.421,-31.67
04.437,-34.19
04.453,-34.29
04.468,-31.52
04.484,-25.92
04.500,-17.93
04.515,-8.23
04.531,2.33
04.546,12.93
04.562,22.95
04.578,31.96
04.593,39.78
04.609,46.36
04.625,51.72
04.640,55.82
04.656,58.57
04.671,59.74
04.687,59.12
04.703,56.61
04.718,52.24
04.734,46.37
04.750,39.54
04.765,32.48
04.781,25.86
04.796,20.16
04.812,15.56
04.828,11.98
04.843,9.06
04.859,6.39
04.875,3.64
04.890,0.62
04.906,-2.66
04.921,-6.04
04.937,-9.35
04.953,-12.57
04.968,-15.78
04.984,-19.21
05.000,-23.05
05.015,-27.42
05.031,-32.11
05.046,-36.68
05.062,-40.47
05.078,-42.73
05.093,-42.71
05.109,-39.78
05.125,-33.58
05.140,-24.16
05.156,-12.06
05.171,1.78
05.187,16.21
05.203,30.21
05.218,43.09
05.234,54.62
05.250,64.9
05.265,74.13
05.281,82.53
05.296,90.12
05.312,96.88
05.328,102.78
05.343,107.96
05.359,112.7
05.375,117.4
05.390,122.43
05.406,127.96
05.421,133.98
05.437,140.15
05.453,146.09
05.468,151.42
05.484,155.96
05.500,159.69
05.515,162.57
05.531,164.3
05.546,164.27
05.562,161.61
05.578,155.49
05.593,145.49
05.609,131.81
05.625,115.3
05.640,97.19
05.656,78.82
05.671,61.37
05.687,45.75
05.703,32.57
05.718,22.1
05.734,14.14
05.750,7.99
05.765,2.51
05.781,-3.5
05.796,-10.81
05.812,-19.36
05.828,-28.12
05.843,-35.58
05.859,-40.41
05.875,-42.11
05.890,-41.24
05.906,-39.23
05.921,-38.05
05.937,-39.81
05.953,-46.52
05.968,-59.73
05.984,-80.2
06.000,-107.46
06.015,-139.75
06.031,-174.31
06.046,-208.12
06.062,-238.65
06.078,-264.21
06.093,-283.8
06.109,-296.62
06.125,-301.77
06.140,-298.64
06.156,-287.64
06.171,-270.56
06.187,-250.25
06.203,-229.63
06.218,-210.54
06.234,-193.22
06.250,-176.84
06.265,-160.41
06.281,-143.89
06.296,-128.31
06.312,-115.04
06.328,-104.61
06.343,-96.03
06.359,-86.89
06.375,-74.45
06.390,-56.98
06.406,-34.49
06.421,-8.6
06.437,18.26
06.453,43.76
06.468,65.95
06.484,83.15
06.500,93.65
06.515,95.67
06.531,87.88
06.546,70.32
06.562,44.91
06.578,15.46
06.593,-13.4
06.609,-37.68
06.625,-55.07
06.640,-65.21
06.656,-69.28
06.671,-69.23
06.687,-66.83
06.703,-63.4
06.718,-59.69
06.734,-56.07
06.750,-52.81
06.765,-50.13
06.781,-48.25
06.796,-47.22
06.812,-46.83
06.828,-46.48
06.843,-45.37
06.859,-42.79
06.875,-38.43
06.890,-32.46
06.906,-25.35
06.921,-17.62
06.937,-9.73
06.953,-2.28
06.968,3.75
06.984,6.91
07.000,5.76
07.015,-0.34
07.031,-10.63
07.046,-22.8
07.062,-33.8
07.078,-40.93
07.093,-42.95
07.109,-40.26
07.125,-34.53
07.140,-27.56
07.156,-20.53
07.171,-13.7
07.187,-6.56
07.203,1.55
07.218,11.1
07.234,22.02
07.250,33.81
07.265,45.58
07.281,56.28
07.296,64.96
07.312,71.03
07.328,74.5
07.343,75.79
07.359,75.47
07.375,73.89
07.390,71.03
07.406,66.65
07.421,60.74
07.437,53.87
07.453,47.19
07.468,41.97
07.484,38.96
07.500,37.94
07.515,37.71
07.531,36.68
07.546,33.47
07.562,27.53
07.578,19.26
07.593,9.8
07.609,0.58
07.625,-6.98
07.640,-11.74
07.656,-12.94
07.671,-10.42
07.687,-4.71
07.703,2.91
07.718,10.59
07.734,16.48
07.750,19.32
07.765,18.92
07.781,16.26
07.796,13.15
07.812,11.39
07.828,12.16
07.843,15.75
07.859,21.67
07.875,29.03
07.890,37.02
07.906,44.92
07.921,52.11
07.937,57.78
07.953,61.07
07.968,61.27
07.984,58.22
08.000,52.53
08.015,45.47
08.031,38.5
08.046,32.7
08.062,28.62
08.078,26.19
08.093,25.21
08.109,25.42
08.125,26.75
08.140,29.07
08.156,31.97
08.171,34.75
08.187,36.54
08.203,36.61
08.218,34.67
08.234,31.1
08.250,26.9
08.265,23.49
08.281,22.4
08.296,24.94
08.312,31.9
08.328,43.33
08.343,58.47
08.359,76.0
08.375,94.36
08.390,112.18
08.406,128.47
08.421,142.66
08.437,154.52
08.453,163.95
08.468,170.88
08.484,175.33
08.500,177.36
08.515,177.09
08.531,174.74
08.546,170.5
08.562,164.44
08.578,156.45
08.593,146.31
08.609,133.77
08.625,118.84
08.640,101.93
08.656,83.76
08.671,65.26
08.687,47.21
08.703,30.09
08.718,13.94
08.734,-1.45
08.750,-16.38
08.765,-31.13
08.781,-45.92
08.796,-61.11
08.812,-77.19
08.828,-94.66
08.843,-113.75
08.859,-134.07
08.875,-154.38
08.890,-172.74
08.906,-186.89
08.921,-194.91
08.937,-195.85
08.953,-189.97
08.968,-178.73
08.984,-164.27
09.000,-148.8
09.015,-134.08
09.031,-121.23
09.046,-110.83
09.062,-103.12
09.078,-98.19
09.093,-95.92
09.109,-95.9
09.125,-97.38
09.140,-99.38
09.156,-101.09
09.171,-102.04
09.187,-102.28
09.203,-102.11
09.218,-101.93
09.234,-101.93
09.250,-102.06
09.265,-102.13
09.281,-101.96
09.296,-101.55
09.312,-100.96
09.328,-100.26
09.343,-99.47
09.359,-98.5
09.375,-97.27
09.390,-95.7
09.406,-93.79
09.421,-91.61
09.437,-89.35
09.453,-87.27
09.468,-85.8
09.484,-85.25
09.500,-85.62
09.515,-86.34
09.531,-86.27
09.546,-83.91
09.562,-77.92
09.578,-67.65
09.593,-53.4
09.609,-36.38
09.625,-18.3
09.640,-0.84
09.656,14.74
09.671,27.78
09.687,38.03
09.703,45.58
09.718,50.49
09.734,52.9
09.750,52.99
09.765,51.2
09.781,48.14
09.796,44.61
09.812,41.42
09.828,39.12
09.843,37.95
09.859,37.7
09.875,37.9
09.890,37.95
09.906,37.35
09.921,35.81
09.937,33.24
09.953,29.83
09.968,25.8
09.984,21.4
10.000,16.79
10.015,12.07
10.031,7.29
10.046,2.41
10.062,-2.64
10.078,-7.97
10.093,-13.72
10.109,-20.02
10.125,-26.81
10.140,-33.62
10.156,-39.55
10.171,-43.32
10.187,-43.62
10.203,-39.56
10.218,-31.02
10.234,-18.74
10.250,-4.16
10.265,11.1
10.281,25.59
10.296,38.26
10.312,48.52
10.328,56.07
10.343,60.76
10.359,62.62
10.375,61.86
10.390,59.03
10.406,54.89
10.421,50.29
10.437,45.93
10.453,42.25
10.468,39.38
10.484,37.26
10.500,35.75
10.515,34.69
10.531,33.99
10.546,33.48
10.562,32.9
10.578,31.91
10.593,30.16
10.609,27.45
10.625,23.67
10.640,18.95
10.656,13.51
10.671,7.68
10.687,1.83
10.703,-3.76
10.718,-8.99
10.734,-14.01
10.750,-19.19
10.765,-24.98
10.781,-31.59
10.796,-38.73
10.812,-45.42
10.828,-50.15
10.843,-51.29
10.859,-47.59
10.875,-38.71
10.890,-25.36
10.906,-9.07
10.921,8.25
10.937,24.8
10.953,39.23
10.968,50.81
10.984,59.3
11.000,64.78
11.015,67.55
11.031,68.12
11.046,67.15
11.062,65.35
11.078,63.35
11.093,61.43
11.109,59.63
11.125,57.78
11.140,55.68
11.156,53.35
11.171,51.02
11.187,49.09
11.203,47.87
11.218,47.44
11.234,47.54
11.250,47.7
11.265,47.44
11.281,46.31
11.296,44.04
11.312,40.59
11.328,36.03
11.343,30.67
11.359,24.88
11.375,18.99
11.390,13.21
11.406,7.4
11.421,1.14
11.437,-6.1
11.453,-14.69
11.468,-24.49
11.484,-34.67
11.500,-43.81
11.515,-50.31
11.531,-52.74
11.546,-50.4
11.562,-43.43
11.578,-32.77
11.593,-19.95
11.609,-6.68
11.625,5.56
11.640,15.74
11.656,23.35
11.671,28.31
11.687,30.76
11.703,30.9
11.718,28.99
11.734,25.4
11.750,20.65
11.765,15.43
11.781,10.41
11.796,6.09
11.812,2.69
11.828,0.15
11.843,-1.71
11.859,-2.98
11.875,-3.68
11.890,-3.69
11.906,-2.99
11.921,-1.71
11.937,-0.13
11.953,1.36
11.968,2.36
11.984,2.58
12.000,1.93
12.015,0.45
12.031,-1.66
12.046,-4.08
12.062,-6.58
12.078,-9.06
12.093,-11.64
12.109,-14.59
12.125,-18.04
12.140,-21.69
12.156,-24.74
12.171,-25.8
12.187,-23.45
12.203,-16.68
12.218,-5.39
12.234,9.58
12.250,26.51
12.265,43.46
12.281,58.59
12.296,70.41
12.312,77.93
12.328,80.56
12.343,78.15
12.359,71.11
12.375,60.33
12.390,46.99
12.406,32.37
12.421,17.52
12.437,3.12
12.453,-10.35
12.468,-22.43
12.484,-32.53
12.500,-39.94
12.515,-44.21
12.531,-45.41
12.546,-44.22
12.562,-41.82
12.578,-39.49
12.593,-38.16
12.609,-38.24
12.625,-39.6
12.640,-41.79
12.656,-44.3
12.671,-46.83
12.687,-49.29
12.703,-51.85
12.718,-54.82
12.734,-58.46
12.750,-62.87
12.765,-67.83
12.781,-72.71
12.796,-76.54
12.812,-78.18
12.828,-76.66
12.843,-71.46
12.859,-62.68
12.875,-51.06
12.890,-37.73
12.906,-24.13
12.921,-11.62
12.937,-1.3
12.953,6.13
12.968,10.4
12.984,11.68
13.000,10.42
13.015,7.33
13.031,3.16
13.046,-1.4
13.062,-5.74
13.078,-9.44
13.093,-12.23
13.109,-14.05
13.125,-14.98
13.140,-15.18
13.156,-14.85
13.171,-14.17
13.187,-13.38
13.203,-12.68
13.218,-12.31
13.234,-12.47
13.250,-13.26
13.265,-14.65
13.281,-16.52
13.296,-18.7
13.312,-21.06
13.328,-23.61
13.343,-26.41
13.359,-29.61
13.375,-33.33
13.390,-37.46
13.406,-41.58
13.421,-44.87
13.437,-46.23
13.453,-44.51
13.468,-38.88
13.484,-29.17
13.500,-15.99
13.515,-0.62
13.531,15.36
13.546,30.47
13.562,43.63
13.578,54.28
13.593,62.27
13.609,67.73
13.625,70.86
13.640,71.92
13.656,71.23
13.671,69.24
13.687,66.49
13.703,63.57
13.718,60.98
13.734,59.06
13.750,57.93
13.765,57.51
13.781,57.54
13.796,57.68
13.812,57.63
13.828,57.22
13.843,56.52
13.859,55.79
13.875,55.47
13.890,55.92
13.906,57.28
13.921,59.36
13.937,61.58
13.953,63.08
13.968,62.97
13.984,60.51
14.000,55.22
14.015,46.97
14.031,36.02
14.046,23.16
14.062,9.69
14.078,-2.66
14.093,-12.1
14.109,-17.3
14.125,-17.78
14.140,-14.06
14.156,-7.6
14.171,-0.24
14.187,6.16
14.203,10.14
14.218,10.78
14.234,7.72
14.250,1.11
14.265,-8.3
14.281,-19.19
14.296,-29.84
14.312,-38.52
14.328,-43.95
14.343,-45.66
14.359,-44.06
14.375,-40.14
14.390,-35.1
14.406,-29.93
14.421,-25.32
14.437,-21.66
14.453,-19.2
14.468,-18.11
14.484,-18.48
14.500,-20.15
14.515,-22.74
14.531,-25.74
14.546,-28.75
14.562,-31.65
14.578,-34.71
14.593,-38.36
14.609,-43.08
14.625,-49.15
14.640,-56.6
14.656,-65.29
14.671,-74.93
14.687,-85.01
14.703,-94.7
14.718,-102.7
14.734,-107.36
14.750,-107.07
14.765,-100.86
14.781,-88.85
14.796,-72.41
14.812,-53.81
14.828,-35.55
14.843,-19.59
14.859,-6.94
14.875,2.32
14.890,8.73
14.906,12.97
14.921,15.65
14.937,17.31
14.953,18.57
14.968,20.13
14.984,22.56
15.000,26.12
15.015,30.52
15.031,35.11
15.046,39.18
15.062,42.29
15.078,44.5
15.093,46.08
15.109,47.28
15.125,47.98
15.140,47.79
15.156,46.17
15.171,42.92
15.187,38.18
15.203,32.45
15.218,26.29
15.234,20.01
15.250,13.61
15.265,6.72
15.281,-1.16
15.296,-10.56
15.312,-21.82
15.328,-34.92
15.343,-49.3
15.359,-63.72
15.375,-76.36
15.390,-85.13
15.406,-88.17
15.421,-84.36
15.437,-73.72
15.453,-57.44
15.468,-37.54
15.484,-16.43
15.500,3.69
15.515,21.16
15.531,35.0
15.546,44.87
15.562,50.84
15.578,53.3
15.593,52.78
15.609,49.93
15.625,45.45
15.640,40.07
15.656,34.41
15.671,28.86
15.687,23.56
15.703,18.35
15.718,13.04
15.734,7.57
15.750,2.17
15.765,-2.83
15.781,-7.07
15.796,-10.54
15.812,-13.55
15.828,-16.73
15.843,-20.64
15.859,-25.55
15.875,-31.28
15.890,-37.26
15.906,-42.82
15.921,-47.56
15.937,-51.43
15.953,-54.77
15.968,-58.13
15.984,-62.08
16.000,-67.01
16.015,-72.95
16.031,-79.48
16.046,-85.6
16.062,-89.89
16.078,-90.68
16.093,-86.56
16.109,-76.79
16.125,-61.58
16.140,-42.26
16.156,-20.86
16.171,0.37
16.187,19.53
16.203,35.39
16.218,47.41
16.234,55.64
16.250,60.45
16.265,62.36
16.281,61.93
16.296,59.8
16.312,56.67
16.328,53.18
16.343,49.95
16.359,47.31
16.375,45.34
16.390,43.93
16.406,42.8
16.421,41.74
16.437,40.69
16.453,39.71
16.468,38.85
16.484,38.03
16.500,36.93
16.515,35.05
16.531,31.85
16.546,27.1
16.562,20.91
16.578,13.85
16.593,6.73
16.609,0.23
16.625,-5.22
16.640,-9.66
16.656,-13.55
16.671,-17.6
16.687,-22.52
16.703,-28.71
16.718,-36.05
16.734,-43.7
16.750,-50.22
16.765,-53.82
16.781,-52.87
16.796,-46.42
16.812,-34.53
16.828,-18.39
16.843,0.1
16.859,18.76
16.875,35.77
16.890,49.94
16.906,60.78
16.921,68.32
16.937,72.77
16.953,74.45
16.968,73.68
16.984,70.85
17.000,66.55
17.015,61.6
17.031,56.83
17.046,52.88
17.062,49.99
17.078,47.99
17.093,46.34
17.109,44.56
17.125,42.35
17.140,39.82
17.156,37.33
17.171,35.22
17.187,33.58
17.203,32.05
17.218,30.01
17.234,26.84
17.250,22.22
17.265,16.29
17.281,9.63
17.296,2.91
17.312,-3.28
17.328,-8.7
17.343,-13.45
17.359,-17.84
17.375,-22.37
17.390,-27.47
17.406,-33.51
17.421,-40.64
17.437,-48.65
17.453,-56.75
17.468,-63.55
17.484,-67.36
17.500,-66.56
17.515,-60.17
17.531,-48.28
17.546,-32.06
17.562,-13.47
17.578,5.33
17.593,22.54
17.609,37.05
17.625,48.46
17.640,56.8
17.656,62.27
17.671,65.09
17.687,65.5
17.703,63.86
17.718,60.8
17.734,57.19
17.750,53.89
17.765,51.5
17.781,50.18
17.796,49.58
17.812,49.09
17.828,48.11
17.843,46.29
17.859,43.58
17.875,40.23
17.890,36.63
17.906,33.07
17.921,29.68
17.937,26.36
17.953,22.92
17.968,19.1
17.984,14.74
18.000,9.8
18.015,4.34
18.031,-1.47
18.046,-7.4
18.062,-13.21
18.078,-18.68
18.093,-23.69
18.109,-28.32
18.125,-32.8
18.140,-37.52
18.156,-42.89
18.171,-49.13
18.187,-56.06
18.203,-62.93
18.218,-68.49
18.234,-71.23
18.250,-69.8
18.265,-63.4
18.281,-52.15
18.296,-37.13
18.312,-19.98
18.328,-2.6
18.343,13.45
18.359,27.18
18.375,38.19
18.390,46.46
18.406,52.16
18.421,55.47
18.437,56.55
18.453,55.72
18.468,53.4
18.484,50.23
18.500,46.84
18.515,43.77
18.531,41.31
18.546,39.49
18.562,38.17
18.578,37.13
18.593,36.19
18.609,35.25
18.625,34.29
18.640,33.28
18.656,32.11
18.671,30.64
18.687,28.68
18.703,26.03
18.718,22.53
18.734,18.09
18.750,12.69
18.765,6.53
18.781,-0.02
18.796,-6.54
18.812,-12.6
18.828,-17.95
18.843,-22.62
18.859,-26.87
18.875,-31.14
18.890,-35.87
18.906,-41.44
18.921,-47.95
18.937,-55.2
18.953,-62.53
18.968,-68.9
18.984,-72.87
19.000,-72.98
19.015,-68.2
19.031,-58.28
19.046,-44.03
19.062,-27.06
19.078,-9.4
19.093,7.02
19.109,20.83
19.125,31.37
19.140,38.64
19.156,42.94
19.171,44.74
19.187,44.45
19.203,42.53
19.218,39.46
19.234,35.83
19.250,32.25
19.265,29.3
19.281,27.31
19.296,26.35
19.312,26.22
19.328,26.45
19.343,26.54
19.359,26.0
19.375,24.48
19.390,21.81
19.406,18.03
19.421,13.28
19.437,7.75
19.453,1.6
19.468,-5.18
19.484,-12.74
19.500,-21.27
19.515,-30.81
19.531,-41.18
19.546,-51.81
19.562,-61.83
19.578,-70.25
19.593,-76.27
19.609,-79.62
19.625,-80.71
19.640,-80.69
19.656,-81.15
19.671,-83.62
19.687,-88.89
19.703,-96.57
19.718,-104.94
19.734,-111.33
19.750,-113.12
19.765,-108.52
19.781,-97.33
19.796,-80.94
19.812,-61.75
19.828,-42.25
19.843,-24.27
19.859,-8.56
19.875,5.1
19.890,17.3
19.906,28.58
19.921,39.19
19.937,49.08
19.953,58.12
19.968,66.23
19.984,73.37
20.000,79.35
20.015,83.88
20.031,86.67
20.046,87.79
20.062,87.84
20.078,87.75
20.093,88.42
20.109,90.22
20.125,92.77
20.140,95.14
20.156,96.37
20.171,95.84
20.187,93.34
20.203,88.71
20.218,81.5
20.234,70.92
20.250,56.3
20.265,37.74
20.281,16.58
20.296,-4.9
20.312,-24.29
20.328,-39.95
20.343,-51.58
20.359,-60.14
20.375,-67.23
20.390,-74.31
20.406,-82.22
20.421,-91.04
20.437,-100.21
20.453,-108.83
20.468,-115.79
20.484,-119.97
20.500,-120.36
20.515,-116.28
20.531,-107.63
20.546,-94.98
20.562,-79.36
20.578,-62.11
20.593,-44.6
20.609,-28.05
20.625,-13.51
20.640,-1.72
20.656,6.89
20.671,12.33
20.687,15.02
20.703,15.78
20.718,15.54
20.734,15.08
20.750,14.92
20.765,15.14
20.781,15.61
20.796,16.14
20.812,16.62
20.828,17.14
20.843,17.86
20.859,18.85
20.875,19.96
20.890,20.83
20.906,20.91
20.921,19.66
20.937,16.79
20.953,12.34
20.968,6.78
20.984,0.69
21.000,-5.3
21.015,-10.8
21.031,-15.66
21.046,-20.02
21.062,-24.13
21.078,-28.34
21.093,-32.94
21.109,-38.07
21.125,-43.64
21.140,-49.17
21.156,-53.76
21.171,-56.18
21.187,-55.23
21.203,-50.11
21.218,-40.78
21.234,-28.07
21.250,-13.53
21.265,1.05
21.281,14.08
21.296,24.48
21.312,31.85
21.328,36.38
21.343,38.51
21.359,38.8
21.375,37.74
21.390,35.76
21.406,33.33
21.421,30.95
21.437,29.01
21.453,27.75
21.468,27.18
21.484,27.07
21.500,27.1
21.515,27.04
21.531,26.8
21.546,26.49
21.562,26.25
21.578,26.11
21.593,25.95
21.609,25.44
21.625,24.26
21.640,22.17
21.656,19.22
21.671,15.67
21.687,12.01
21.703,8.68
21.718,5.88
21.734,3.46
21.750,0.96
21.765,-2.19
21.781,-6.48
21.796,-12.23
21.812,-19.48
21.828,-27.93
21.843,-36.87
21.859,-45.13
21.875,-51.24
21.890,-53.71
21.906,-51.57
21.921,-44.76
21.937,-34.3
21.953,-22.0
21.968,-9.81
21.984,0.65
22.000,8.49
22.015,13.46
22.031,15.6
22.046,15.06
22.062,11.99
22.078,6.79
22.093,0.22
22.109,-6.53
22.125,-12.18
22.140,-15.78
22.156,-17.17
22.171,-17.03
22.187,-16.61
22.203,-17.19
22.218,-19.43
22.234,-23.17
22.250,-27.53
22.265,-31.31
22.281,-33.44
22.296,-33.33
22.312,-30.98
22.328,-26.74
22.343,-21.21
22.359,-14.97
22.375,-8.49
22.390,-2.03
22.406,4.41
22.421,11.1
22.437,18.47
22.453,26.9
22.468,36.48
22.484,46.81
22.500,57.1
22.515,66.4
22.531,74.1
22.546,80.28
22.562,85.91
22.578,92.61
22.593,102.23
22.609,116.21
22.625,135.13
22.640,158.55
22.656,185.22
22.671,213.42
22.687,241.4
22.703,267.62
22.718,290.61
22.734,308.81
22.750,320.46
22.765,323.76
22.781,317.42
22.796,301.29
22.812,276.51
22.828,245.33
22.843,210.55
22.859,174.81
22.875,140.17
22.890,107.95
22.906,78.76
22.921,52.57
22.937,28.71
22.953,5.86
22.968,-17.89
22.984,-44.52
23.000,-75.44
23.015,-110.88
23.031,-149.57
23.046,-188.89
23.062,-225.42
23.078,-255.79
23.093,-277.37
23.109,-288.88
23.125,-290.7
23.140,-284.64
23.156,-273.53
23.171,-260.48
23.187,-248.08
23.203,-237.97
23.218,-230.6
23.234,-225.32
23.250,-220.72
23.265,-215.0
23.281,-206.44
23.296,-193.75
23.312,-176.45
23.328,-155.0
23.343,-130.76
23.359,-105.62
23.375,-81.46
23.390,-59.76
23.406,-41.29
23.421,-26.23
23.437,-14.32
23.453,-5.07
23.468,2.05
23.484,7.57
23.500,12.09
23.515,16.14
23.531,20.12
23.546,24.21
23.562,28.46
23.578,32.7
23.593,36.75
23.609,40.44
23.625,43.55
23.640,45.98
23.656,47.7
23.671,48.7
23.687,49.06
23.703,48.75
23.718,47.72
23.734,45.83
23.750,43.06
23.765,39.48
23.781,35.36
23.796,31.09
23.812,26.93
23.828,23.04
23.843,19.24
23.859,15.2
23.875,10.55
23.890,5.04
23.906,-1.41
23.921,-8.52
23.937,-15.63
23.953,-21.8
23.968,-25.87
23.984,-26.8
24.000,-24.0
24.015,-17.55
24.031,-8.2
24.046,2.83
24.062,14.17
24.078,24.68
24.093,33.59
24.109,40.59
24.125,45.63
24.140,48.78
24.156,50.17
24.171,49.94
24.187,48.39
24.203,45.91
24.218,43.05
24.234,40.35
24.250,38.3
24.265,37.1
24.281,36.66
24.296,36.73
24.312,36.97
24.328,37.19
24.343,37.36
24.359,37.62
24.375,38.02
24.390,38.5
24.406,38.8
24.421,38.5
24.437,37.29
24.453,35.1
24.468,32.14
24.484,28.84
24.500,25.72
24.515,23.1
24.531,21.09
24.546,19.58
24.562,18.33
24.578,17.1
24.593,15.71
24.609,14.13
24.625,12.44
24.640,10.83
24.656,9.45
24.671,8.34
24.687,7.5
24.703,6.85
24.718,6.31
24.734,5.82
24.750,5.39
24.765,5.1
24.781,4.99
24.796,5.03
24.812,5.09
24.828,5.07
24.843,4.88
24.859,4.49
24.875,3.91
24.890,3.1
24.906,2.03
24.921,0.64
24.937,-1.06
24.953,-2.99
24.968,-4.99
24.984,-6.89
25.000,-8.55
25.015,-9.93
25.031,-11.09
25.046,-12.17
25.062,-13.29
25.078,-14.55
25.093,-15.97
25.109,-17.54
25.125,-19.18
25.140,-20.83
25.156,-22.41
25.171,-23.95
25.187,-25.51
25.203,-27.22
25.218,-29.15
25.234,-31.34
25.250,-33.71
25.265,-36.13
25.281,-38.47
25.296,-40.66
25.312,-42.7
25.328,-44.73
25.343,-47.0
25.359,-49.81
25.375,-53.45
25.390,-57.97
25.406,-63.03
25.421,-67.73
25.437,-70.81
25.453,-70.89
25.468,-67.04
25.484,-59.12
25.500,-47.84
25.515,-34.58
25.531,-20.92
25.546,-8.19
25.562,2.74
25.578,11.51
25.593,18.05
25.609,22.44
25.625,24.81
25.640,25.42
25.656,24.67
25.671,23.11
25.687,21.37
25.703,19.86
25.718,18.85
25.734,18.3
25.750,18.04
25.765,17.89
25.781,17.73
25.796,17.5
25.812,17.26
25.828,17.08
25.843,16.91
25.859,16.67
25.875,16.15
25.890,15.05
25.906,13.16
25.921,10.47
25.937,7.11
25.953,3.47
25.968,-0.02
25.984,-3.04
26.000,-5.47
26.015,-7.5
26.031,-9.52
26.046,-11.99
26.062,-15.28
26.078,-19.55
26.093,-24.66
26.109,-30.11
26.125,-35.18
26.140,-38.9
26.156,-40.39
26.171,-39.04
26.187,-34.71
26.203,-27.83
26.218,-19.22
26.234,-9.91
26.250,-0.89
26.265,7.09
26.281,13.6
26.296,18.42
26.312,21.49
26.328,22.88
26.343,22.76
26.359,21.41
26.375,19.27
26.390,16.81
26.406,14.45
26.421,12.5
26.437,11.07
26.453,10.09
26.468,9.39
26.484,8.76
26.500,8.0
26.515,7.06
26.531,6.02
26.546,4.99
26.562,4.02
26.578,3.06
26.593,1.87
26.609,0.24
26.625,-1.96
26.640,-4.65
26.656,-7.55
26.671,-10.33
26.687,-12.78
26.703,-14.94
26.718,-17.07
26.734,-19.49
26.750,-22.53
26.765,-26.32
26.781,-30.78
26.796,-35.5
26.812,-39.85
26.828,-42.92
26.843,-43.72
26.859,-41.47
26.875,-35.83
26.890,-27.2
26.906,-16.59
26.921,-5.39
26.937,5.09
26.953,13.95
26.968,20.82
26.984,25.81
27.000,29.17
27.015,31.12
27.031,31.79
27.046,31.28
27.062,29.81
27.078,27.71
27.093,25.42
27.109,23.21
27.125,21.21
27.140,19.38
27.156,17.67
27.171,16.11
27.187,14.9
27.203,14.28
27.218,14.33
27.234,14.89
27.250,15.5
27.265,15.55
27.281,14.55
27.296,12.3
27.312,8.9
27.328,4.66
27.343,-0.02
27.359,-4.86
27.375,-9.6
27.390,-14.15
27.406,-18.41
27.421,-22.39
27.437,-26.18
27.453,-29.99
27.468,-34.11
27.484,-38.72
27.500,-43.73
27.515,-48.56
27.531,-52.3
27.546,-53.81
27.562,-52.1
27.578,-46.7
27.593,-37.88
27.609,-26.52
27.625,-13.97
27.640,-1.61
27.656,9.53
27.671,18.79
27.687,26.0
27.703,31.25
27.718,34.71
27.734,36.6
27.750,37.1
27.765,36.43
27.781,34.91
27.796,32.94
27.812,30.87
27.828,29.0
27.843,27.47
27.859,26.19
27.875,25.02
27.890,23.81
27.906,22.42
27.921,20.85
27.937,19.19
27.953,17.5
27.968,15.81
27.984,14.07
28.000,12.13
28.015,9.84
28.031,7.08
28.046,3.72
28.062,-0.27
28.078,-4.84
28.093,-9.81
28.109,-14.81
28.125,-19.39
28.140,-23.11
28.156,-25.67
28.171,-27.05
28.187,-27.62
28.203,-27.91
28.218,-28.62
28.234,-30.26
28.250,-32.91
28.265,-36.12
28.281,-38.92
28.296,-40.0
28.312,-38.17
28.328,-32.75
28.343,-23.79
28.359,-12.05
28.375,1.26
28.390,14.93
28.406,28.06
28.421,40.12
28.437,50.88
28.453,60.19
28.468,67.89
28.484,73.8
28.500,77.84
28.515,80.17
28.531,81.17
28.546,81.33
28.562,81.2
28.578,81.2
28.593,81.59
28.609,82.38
28.625,83.43
28.640,84.48
28.656,85.38
28.671,86.07
28.687,86.63
28.703,87.37
28.718,88.52
28.734,90.22
28.750,92.19
28.765,93.81
28.781,93.97
28.796,91.38
28.812,84.8
28.828,73.46
28.843,57.28
28.859,37.01
28.875,14.1
28.890,-9.66
28.906,-32.56
28.921,-53.3
28.937,-71.06
28.953,-85.59
28.968,-96.96
28.984,-105.47
29.000,-111.47
29.015,-115.35
29.031,-117.55
29.046,-118.52
29.062,-118.64
29.078,-118.02
29.093,-116.28
29.109,-112.59
29.125,-105.75
29.140,-94.77
29.156,-79.22
29.171,-59.54
29.187,-36.97
29.203,-13.18
29.218,10.21
29.234,31.97
29.250,51.18
29.265,67.07
29.281,78.61
29.296,84.58
29.312,83.77
29.328,75.61
29.343,60.56
29.359,40.26
29.375,17.17
29.390,-6.05
29.406,-27.15
29.421,-44.76
29.437,-58.29
29.453,-67.7
29.468,-73.09
29.484,-74.56
29.500,-72.31
29.515,-66.82
29.531,-58.95
29.546,-49.96
29.562,-41.16
29.578,-33.61
29.593,-27.86
29.609,-23.88
29.625,-21.2
29.640,-19.2
29.656,-17.33
29.671,-15.36
29.687,-13.29
29.703,-11.33
29.718,-9.8
29.734,-8.85
29.750,-8.54
29.765,-8.73
29.781,-9.16
29.796,-9.58
29.812,-9.82
29.828,-9.8
29.843,-9.61
29.859,-9.44
29.875,-9.56
29.890,-10.28
29.906,-11.73
29.921,-13.83
29.937,-16.07
29.953,-17.57
29.968,-17.21
29.984,-13.92
30.000,-7.05
30.015,3.36
30.031,16.57
30.046,31.37
30.062,46.47
30.078,60.77
30.093,73.67
30.109,84.95
30.125,94.65
30.140,102.79
30.156,109.25
30.171,113.69
30.187,115.87
30.203,115.79
30.218,113.84
30.234,110.8
30.250,107.63
30.265,105.24
30.281,104.22
30.296,104.78
30.312,106.53
30.328,108.64
30.343,109.88
30.359,108.83
30.375,104.24
30.390,95.22
30.406,81.57
30.421,63.8
30.437,42.93
30.453,20.2
30.468,-3.24
30.484,-26.51
30.500,-48.94
30.515,-70.03
30.531,-89.4
30.546,-106.76
30.562,-122.02
30.578,-135.34
30.593,-147.01
30.609,-157.21
30.625,-165.93
30.640,-172.8
30.656,-177.35
30.671,-179.23
30.687,-178.48
30.703,-175.62
30.718,-171.5
30.734,-166.95
30.750,-162.34
30.765,-157.45
30.781,-151.41
30.796,-143.04
30.812,-131.29
30.828,-115.58
30.843,-96.09
30.859,-73.7
30.875,-49.78
30.890,-25.8
30.906,-3.18
30.921,17.02
30.937,34.12
30.953,47.9
30.968,58.48
30.984,66.34
31.000,72.2
31.015,76.87
31.031,81.13
31.046,85.51
31.062,90.29
31.078,95.4
31.093,100.46
31.109,104.76
31.125,107.43
31.140,107.56
31.156,104.4
31.171,97.6
31.187,87.33
31.203,74.34
31.218,59.75
31.234,44.82
31.250,30.62
31.265,17.85
31.281,6.78
31.296,-2.76
31.312,-11.14
31.328,-18.77
31.343,-26.04
31.359,-33.23
31.375,-40.66
31.390,-48.56
31.406,-57.09
31.421,-66.13
31.437,-75.26
31.453,-83.71
31.468,-90.61
31.484,-95.29
31.500,-97.54
31.515,-97.67
31.531,-96.47
31.546,-94.77
31.562,-93.21
31.578,-92.08
31.593,-91.07
31.609,-89.51
31.625,-86.4
31.640,-80.79
31.656,-71.99
31.671,-59.92
31.687,-45.09
31.703,-28.6
31.718,-11.83
31.734,3.92
31.750,17.7
31.765,29.06
31.781,37.96
31.796,44.61
31.812,49.22
31.828,51.98
31.843,53.09
31.859,52.85
31.875,51.76
31.890,50.37
31.906,49.22
31.921,48.63
31.937,48.64
31.953,48.99
31.968,49.36
31.984,49.45
32.000,49.07
32.015,48.29
32.031,47.21
32.046,45.95
32.062,44.56
32.078,42.97
32.093,40.97
32.109,38.41
32.125,35.17
32.140,31.33
32.156,27.18
32.171,23.1
32.187,19.39
32.203,16.14
32.218,13.18
32.234,10.16
32.250,6.78
32.265,2.93
32.281,-1.23
32.296,-5.41
32.312,-9.29
32.328,-12.68
32.343,-15.54
32.359,-17.95
32.375,-20.13
32.390,-22.43
32.406,-25.26
32.421,-29.04
32.437,-33.94
32.453,-39.68
32.468,-45.41
32.484,-49.79
32.500,-51.39
32.515,-49.11
32.531,-42.64
32.546,-32.51
32.562,-20.02
32.578,-6.72
32.593,5.94
32.609,17.0
32.625,26.06
32.640,33.11
32.656,38.35
32.671,41.95
32.687,43.99
32.703,44.54
32.718,43.82
32.734,42.22
32.750,40.24
32.765,38.35
32.781,36.78
32.796,35.53
32.812,34.44
32.828,33.28
32.843,32.01
32.859,30.72
32.875,29.62
32.890,28.86
32.906,28.39
32.921,27.95
32.937,27.15
32.953,25.61
32.968,23.1
32.984,19.68
33.000,15.69
33.015,11.65
33.031,8.04
33.046,5.17
33.062,2.98
33.078,1.15
33.093,-0.75
33.109,-3.07
33.125,-5.95
33.140,-9.26
33.156,-12.75
33.171,-16.15
33.187,-19.29
33.203,-22.13
33.218,-24.75
33.234,-27.27
33.250,-29.83
33.265,-32.66
33.281,-35.95
33.296,-39.78
33.312,-43.81
33.328,-47.31
33.343,-49.13
33.359,-48.09
33.375,-43.47
33.390,-35.28
33.406,-24.37
33.421,-12.19
33.437,-0.25
33.453,10.27
33.468,18.74
33.484,25.05
33.500,29.37
33.515,31.98
33.531,33.13
33.546,33.03
33.562,31.95
33.578,30.19
33.593,28.13
33.609,26.16
33.625,24.54
33.640,23.47
33.656,22.93
33.671,22.83
33.687,23.01
33.703,23.3
33.718,23.53
33.734,23.49
33.750,22.94
33.765,21.75
33.781,19.9
33.796,17.55
33.812,14.98
33.828,12.46
33.843,10.09
33.859,7.79
33.875,5.39
33.890,2.71
33.906,-0.27
33.921,-3.43
33.937,-6.56
33.953,-9.48
33.968,-12.05
33.984,-14.29
34.000,-16.28
34.015,-18.18
34.031,-20.2
34.046,-22.56
34.062,-25.42
34.078,-28.87
34.093,-32.73
34.109,-36.53
34.125,-39.47
34.140,-40.57
34.156,-38.94
34.171,-34.09
34.187,-26.09
34.203,-15.72
34.218,-4.19
34.234,7.15
34.250,17.19
34.265,25.28
34.281,31.22
34.296,35.13
34.312,37.21
34.328,37.62
34.343,36.5
34.359,34.01
34.375,30.45
34.390,26.27
34.406,22.03
34.421,18.2
34.437,15.12
34.453,12.87
34.468,11.31
34.484,10.13
34.500,9.05
34.515,7.87
34.531,6.55
34.546,5.19
34.562,3.91
34.578,2.71
34.593,1.48
34.609,-0.04
34.625,-2.08
34.640,-4.75
34.656,-7.97
34.671,-11.51
34.687,-15.09
34.703,-18.54
34.718,-21.77
34.734,-24.72
34.750,-27.31
34.765,-29.29
34.781,-30.31
34.796,-30.14
34.812,-28.74
34.828,-26.22
34.843,-22.85
34.859,-18.72
34.875,-13.63
34.890,-7.19
34.906,1.02
34.921,11.16
34.937,22.84
34.953,35.31
34.968,47.59
34.984,58.74
35.000,68.18
35.015,75.67
35.031,81.2
35.046,84.86
35.062,86.73
35.078,86.77
35.093,85.03
35.109,81.66
35.125,76.96
35.140,71.45
35.156,65.68
35.171,60.12
35.187,55.12
35.203,50.88
35.218,47.44
35.234,44.92
35.250,43.46
35.265,43.26
35.281,44.5
35.296,47.21
35.312,51.13
35.328,55.82
35.343,60.68
35.359,65.07
35.375,68.42
35.390,70.31
35.406,70.36
35.421,68.26
35.437,63.59
35.453,55.86
35.468,44.61
35.484,29.61
35.500,10.99
35.515,-10.47
35.531,-33.33
35.546,-55.59
35.562,-74.99
35.578,-89.43
35.593,-97.32
35.609,-97.96
35.625,-91.66
35.640,-79.68
35.656,-63.91
35.671,-46.56
35.687,-29.56
35.703,-14.26
35.718,-1.28
35.734,9.47
35.750,18.49
35.765,26.29
35.781,33.02
35.796,38.27
35.812,41.11
35.828,40.37
35.843,35.23
35.859,25.49
35.875,11.73
35.890,-4.9
35.906,-23.11
35.921,-41.9
35.937,-60.6
35.953,-78.84
35.968,-96.31
35.984,-112.57
36.000,-127.22
36.015,-140.03
36.031,-151.12
36.046,-160.71
36.062,-168.89
36.078,-175.25
36.093,-178.99
36.109,-179.25
36.125,-175.54
36.140,-168.18
36.156,-158.28
36.171,-147.46
36.187,-137.24
36.203,-128.72
36.218,-122.29
36.234,-117.93
36.250,-115.36
36.265,-114.25
36.281,-114.19
36.296,-114.54
36.312,-114.33
36.328,-112.29
36.343,-107.15
36.359,-98.08
36.375,-85.03
36.390,-68.78
36.406,-50.67
36.421,-32.21
36.437,-14.62
36.453,1.39
36.468,15.58
36.484,27.98
36.500,38.63
36.515,47.48
36.531,54.38
36.546,59.21
36.562,62.04
36.578,63.16
36.593,63.12
36.609,62.55
36.625,61.99
36.640,61.8
36.656,62.04
36.671,62.54
36.687,62.98
36.703,63.06
36.718,62.62
36.734,61.62
36.750,60.15
36.765,58.3
36.781,56.13
36.796,53.61
36.812,50.63
36.828,47.07
36.843,42.84
36.859,38.0
36.875,32.72
36.890,27.3
36.906,22.07
36.921,17.25
36.937,12.93
36.953,9.08
36.968,5.57
36.984,2.2
37.000,-1.28
37.015,-5.2
37.031,-9.84
37.046,-15.35
37.062,-21.52
37.078,-27.57
37.093,-32.26
37.109,-34.15
37.125,-32.1
37.140,-25.77
37.156,-15.76
37.171,-3.49
37.187,9.33
37.203,21.13
37.218,30.92
37.234,38.33
37.250,43.42
37.265,46.49
37.281,47.87
37.296,47.86
37.312,46.75
37.328,44.96
37.343,42.88
37.359,40.88
37.375,39.22
37.390,37.94
37.406,36.93
37.421,35.98
37.437,34.93
37.453,33.62
37.468,32.06
37.484,30.33
37.500,28.47
37.515,26.52
37.531,24.47
37.546,22.27
37.562,19.87
37.578,17.26
37.593,14.47
37.609,11.53
37.625,8.48
37.640,5.38
37.656,2.26
37.671,-0.8
37.687,-3.77
37.703,-6.6
37.718,-9.25
37.734,-11.79
37.750,-14.36
37.765,-17.22
37.781,-20.66
37.796,-24.86
37.812,-29.74
37.828,-34.84
37.843,-39.32
37.859,-42.09
37.875,-42.16
37.890,-38.89
37.906,-32.23
37.921,-22.74
37.937,-11.43
37.953,0.49
37.968,11.83
37.984,21.69
38.000,29.52
38.015,35.08
38.031,38.4
38.046,39.69
38.062,39.25
38.078,37.48
38.093,34.85
38.109,31.83
38.125,28.9
38.140,26.45
38.156,24.68
38.171,23.6
38.187,22.98
38.203,22.53
38.218,21.98
38.234,21.18
38.250,20.18
38.265,19.06
38.281,17.88
38.296,16.54
38.312,14.83
38.328,12.44
38.343,9.22
38.359,5.24
38.375,0.8
38.390,-3.67
38.406,-7.73
38.421,-11.13
38.437,-13.88
38.453,-16.21
38.468,-18.47
38.484,-21.03
38.500,-24.13
38.515,-27.84
38.531,-31.93
38.546,-35.9
38.562,-38.91
38.578,-40.11
38.593,-38.77
38.609,-34.53
38.625,-27.58
38.640,-18.57
38.656,-8.52
38.671,1.57
38.687,10.85
38.703,18.81
38.718,25.16
38.734,29.77
38.750,32.56
38.765,33.54
38.781,32.85
38.796,30.82
38.812,28.01
38.828,25.03
38.843,22.42
38.859,20.46
38.875,19.12
38.890,18.19
38.906,17.34
38.921,16.41
38.937,15.38
38.953,14.42
38.968,13.68
38.984,13.14
39.000,12.6
39.015,11.68
39.031,10.08
39.046,7.63
39.062,4.47
39.078,0.91
39.093,-2.68
39.109,-6.06
39.125,-9.12
39.140,-11.93
39.156,-14.62
39.171,-17.37
39.187,-20.32
39.203,-23.5
39.218,-26.76
39.234,-29.64
39.250,-31.46
39.265,-31.4
39.281,-28.81
39.296,-23.46
39.312,-15.69
39.328,-6.24
39.343,3.88
39.359,13.76
39.375,22.68
39.390,30.19
39.406,35.99
39.421,39.9
39.437,41.89
39.453,42.07
39.468,40.85
39.484,38.81
39.500,36.64
39.515,34.91
39.531,33.94
39.546,33.75
39.562,34.09
39.578,34.61
39.593,34.95
39.609,34.95
39.625,34.61
39.640,34.06
39.656,33.5
39.671,33.05
39.687,32.7
39.703,32.29
39.718,31.58
39.734,30.38
39.750,28.66
39.765,26.53
39.781,24.14
39.796,21.66
39.812,19.09
39.828,16.27
39.843,12.93
39.859,8.8
39.875,3.68
39.890,-2.46
39.906,-9.45
39.921,-16.91
39.937,-24.12
39.953,-30.21
39.968,-34.17
39.984,-35.26
40.000,-33.19
40.015,-28.34
40.031,-21.57
40.046,-14.06
40.062,-6.89
40.078,-0.84
40.093,3.66
40.109,6.45
40.125,7.58
40.140,7.24
40.156,5.7
40.171,3.47
40.187,1.11
40.203,-0.74
40.218,-1.64
40.234,-1.41
40.250,-0.21
40.265,1.65
40.281,3.82
40.296,6.02
40.312,8.18
40.328,10.4
40.343,12.8
40.359,15.4
40.375,18.0
40.390,20.24
40.406,21.75
40.421,22.27
40.437,21.74
40.453,20.31
40.468,18.16
40.484,15.49
40.500,12.46
40.515,9.23
40.531,6.02
40.546,3.1
40.562,0.75
40.578,-0.9
40.593,-1.9
40.609,-2.4
40.625,-2.7
40.640,-3.03
40.656,-3.51
40.671,-4.12
40.687,-4.79
40.703,-5.39
40.718,-5.9
40.734,-6.37
40.750,-6.92
40.765,-7.68
40.781,-8.65
40.796,-9.71
40.812,-10.62
40.828,-11.2
40.843,-11.38
40.859,-11.31
40.875,-11.22
40.890,-11.32
40.906,-11.68
40.921,-12.24
40.937,-12.85
40.953,-13.31
40.968,-13.53
40.984,-13.46
41.000,-13.19
41.015,-12.83
41.031,-12.54
41.046,-12.5
41.062,-12.83
41.078,-13.55
41.093,-14.55
41.109,-15.65
41.125,-16.74
41.140,-17.85
41.156,-19.13
41.171,-20.82
41.187,-23.03
41.203,-25.72
41.218,-28.7
41.234,-31.74
41.250,-34.62
41.265,-37.26
41.281,-39.7
41.296,-42.08
41.312,-44.61
41.328,-47.58
41.343,-51.26
41.359,-55.95
41.375,-61.73
41.390,-68.33
41.406,-74.97
41.421,-80.42
41.437,-83.27
41.453,-82.36
41.468,-77.13
41.484,-67.83
41.500,-55.6
41.515,-42.02
41.531,-28.76
41.546,-17.17
41.562,-7.96
41.578,-1.3
41.593,3.05
41.609,5.44
41.625,6.23
41.640,5.66
41.656,4.05
41.671,1.78
41.687,-0.7
41.703,-2.93
41.718,-4.63
41.734,-5.79
41.750,-6.62
41.765,-7.4
41.781,-8.33
41.796,-9.37
41.812,-10.33
41.828,-10.99
41.843,-11.22
41.859,-11.21
41.875,-11.32
41.890,-12.04
41.906,-13.73
41.921,-16.55
41.937,-20.27
41.953,-24.39
41.968,-28.35
41.984,-31.68
42.000,-34.21
42.015,-36.05
42.031,-37.51
42.046,-38.94
42.062,-40.59
42.078,-42.56
42.093,-44.83
42.109,-47.35
42.125,-49.96
42.140,-52.33
42.156,-53.87
42.171,-53.72
42.187,-51.03
42.203,-45.25
42.218,-36.48
42.234,-25.48
42.250,-13.51
42.265,-1.9
42.281,8.31
42.296,16.61
42.312,23.0
42.328,27.74
42.343,31.05
42.359,33.05
42.375,33.81
42.390,33.55
42.406,32.67
42.421,31.78
42.437,31.44
42.453,31.95
42.468,33.19
42.484,34.7
42.500,35.91
42.515,36.46
42.531,36.35
42.546,35.89
42.562,35.46
42.578,35.21
42.593,35.01
42.609,34.38
42.625,32.8
42.640,29.87
42.656,25.57
42.671,20.22
42.687,14.36
42.703,8.56
42.718,3.28
42.734,-1.26
42.750,-5.07
42.765,-8.35
42.781,-11.44
42.796,-14.67
42.812,-18.3
42.828,-22.27
42.843,-26.17
42.859,-29.22
42.875,-30.46
42.890,-29.04
42.906,-24.5
42.921,-16.98
42.937,-7.18
42.953,3.82
42.968,14.87
42.984,24.94
43.000,33.35
43.015,39.74
43.031,43.97
43.046,46.11
43.062,46.31
43.078,44.84
43.093,42.17
43.109,38.87
43.125,35.54
43.140,32.68
43.156,30.47
43.171,28.82
43.187,27.42
43.203,25.92
43.218,24.16
43.234,22.26
43.250,20.49
43.265,19.08
43.281,18.05
43.296,17.12
43.312,15.84
43.328,13.81
43.343,10.89
43.359,7.22
43.375,3.15
43.390,-0.87
43.406,-4.55
43.421,-7.8
43.437,-10.75
43.453,-13.66
43.468,-16.86
43.484,-20.63
43.500,-25.11
43.515,-30.18
43.531,-35.31
43.546,-39.61
43.562,-41.93
43.578,-41.24
43.593,-36.93
43.609,-29.14
43.625,-18.69
43.640,-6.87
43.656,5.0
43.671,15.83
43.687,25.02
43.703,32.32
43.718,37.7
43.734,41.22
43.750,42.93
43.765,43.02
43.781,41.86
43.796,39.97
43.812,37.97
43.828,36.36
43.843,35.4
43.859,35.04
43.875,34.96
43.890,34.77
43.906,34.11
43.921,32.85
43.937,31.01
43.953,28.77
43.968,26.32
43.984,23.77
44.000,21.09
44.015,18.2
44.031,15.01
44.046,11.49
44.062,7.81
44.078,4.19
44.093,0.88
44.109,-2.04
44.125,-4.64
44.140,-7.13
44.156,-9.82
44.171,-13.01
44.187,-16.92
44.203,-21.59
44.218,-26.95
44.234,-32.57
44.250,-37.79
44.265,-41.67
44.281,-43.17
44.296,-41.49
44.312,-36.36
44.328,-28.16
44.343,-17.82
44.359,-6.5
44.375,4.67
44.390,14.87
44.406,23.6
44.421,30.62
44.437,35.85
44.453,39.31
44.468,41.19
44.484,41.75
44.500,41.37
44.515,40.37
44.531,39.0
44.546,37.42
44.562,35.73
44.578,34.0
44.593,32.3
44.609,30.66
44.625,29.0
44.640,27.17
44.656,25.03
44.671,22.53
44.687,19.77
44.703,16.92
44.718,14.19
44.734,11.65
44.750,9.23
44.765,6.72
44.781,3.94
44.796,0.83
44.812,-2.54
44.828,-5.99
44.843,-9.36
44.859,-12.58
44.875,-15.71
44.890,-18.83
44.906,-22.06
44.921,-25.42
44.937,-28.94
44.953,-32.67
44.968,-36.66
44.984,-40.89
45.000,-45.08
45.015,-48.65
45.031,-50.73
45.046,-50.44
45.062,-47.06
45.078,-40.44
45.093,-31.0
45.109,-19.73
45.125,-7.84
45.140,3.52
45.156,13.56
45.171,21.93
45.187,28.63
45.203,33.79
45.218,37.5
45.234,39.75
45.250,40.51
45.265,39.83
45.281,37.91
45.296,35.14
45.312,31.92
45.328,28.6
45.343,25.43
45.359,22.55
45.375,20.06
45.390,18.02
45.406,16.44
45.421,15.25
45.437,14.25
45.453,13.23
45.468,11.97
45.484,10.29
45.500,8.15
45.515,5.62
45.531,2.85
45.546,0.08
45.562,-2.51
45.578,-4.81
45.593,-6.82
45.609,-8.73
45.625,-10.73
45.640,-12.96
45.656,-15.48
45.671,-18.24
45.687,-21.2
45.703,-24.29
45.718,-27.48
45.734,-30.8
45.750,-34.27
45.765,-37.91
45.781,-41.74
45.796,-45.59
45.812,-48.99
45.828,-51.19
45.843,-51.27
45.859,-48.42
45.875,-42.28
45.890,-33.22
45.906,-22.2
45.921,-10.49
45.937,0.66
45.953,10.49
45.968,18.68
45.984,25.25
46.000,30.34
46.015,34.01
46.031,36.16
46.046,36.73
46.062,35.8
46.078,33.77
46.093,31.26
46.109,28.89
46.125,27.08
46.140,25.9
46.156,25.12
46.171,24.4
46.187,23.52
46.203,22.42
46.218,21.15
46.234,19.85
46.250,18.45
46.265,16.83
46.281,14.82
46.296,12.34
46.312,9.46
46.328,6.43
46.343,3.42
46.359,0.48
46.375,-2.45
46.390,-5.52
46.406,-8.86
46.421,-12.43
46.437,-16.04
46.453,-19.36
46.468,-22.1
46.484,-24.12
46.500,-25.52
46.515,-26.57
46.531,-27.65
46.546,-29.07
46.562,-30.9
46.578,-32.93
46.593,-34.6
46.609,-35.22
46.625,-34.13
46.640,-30.86
46.656,-25.3
46.671,-17.74
46.687,-8.74
46.703,0.94
46.718,10.45
46.734,19.08
46.750,26.31
46.765,31.89
46.781,35.83
46.796,38.3
46.812,39.52
46.828,39.69
46.843,38.99
46.859,37.56
46.875,35.65
46.890,33.57
46.906,31.67
46.921,30.19
46.937,29.2
46.953,28.58
46.968,28.1
46.984,27.51
47.000,26.65
47.015,25.42
47.031,23.82
47.046,21.85
47.062,19.51
47.078,16.77
47.093,13.63
47.109,10.15
47.125,6.46
47.140,2.72
47.156,-0.88
47.171,-4.21
47.187,-7.23
47.203,-9.95
47.218,-12.41
47.234,-14.67
47.250,-16.67
47.265,-18.43
47.281,-19.95
47.296,-21.42
47.312,-23.2
47.328,-25.74
47.343,-29.39
47.359,-34.09
47.375,-39.26
47.390,-43.76
47.406,-46.24
47.421,-45.58
47.437,-41.32
47.453,-33.78
47.468,-23.99
47.484,-13.28
47.500,-2.81
47.515,6.63
47.531,14.74
47.546,21.44
47.562,26.77
47.578,30.6
47.593,32.86
47.609,33.54
47.625,32.9
47.640,31.45
47.656,29.77
47.671,28.32
47.687,27.14
47.703,26.04
47.718,24.72
47.734,23.03
47.750,21.11
47.765,19.25
47.781,17.74
47.796,16.64
47.812,15.71
47.828,14.62
47.843,13.09
47.859,11.08
47.875,8.72
47.890,6.27
47.906,3.93
47.921,1.79
47.937,-0.16
47.953,-1.95
47.968,-3.65
47.984,-5.37
48.000,-7.28
48.015,-9.59
48.031,-12.43
48.046,-15.79
48.062,-19.42
48.078,-23.0
48.093,-26.17
48.109,-28.74
48.125,-30.79
48.140,-32.65
48.156,-34.76
48.171,-37.39
48.187,-40.62
48.203,-44.11
48.218,-47.26
48.234,-49.29
48.250,-49.42
48.265,-47.15
48.281,-42.35
48.296,-35.27
48.312,-26.54
48.328,-16.98
48.343,-7.38
48.359,1.62
48.375,9.63
48.390,16.49
48.406,22.12
48.421,26.45
48.437,29.44
48.453,31.08
48.468,31.47
48.484,30.89
48.500,29.67
48.515,28.17
48.531,26.63
48.546,25.17
48.562,23.73
48.578,22.3
48.593,20.9
48.609,19.59
48.625,18.51
48.640,17.72
48.656,17.23
48.671,16.94
48.687,16.63
48.703,16.01
48.718,14.84
48.734,12.95
48.750,10.34
48.765,7.21
48.781,3.88
48.796,0.68
48.812,-2.21
48.828,-4.73
48.843,-7.03
48.859,-9.28
48.875,-11.67
48.890,-14.24
48.906,-16.91
48.921,-19.53
48.937,-21.98
48.953,-24.2
48.968,-26.21
48.984,-28.06
49.000,-29.84
49.015,-31.74
49.031,-33.88
49.046,-36.37
49.062,-39.2
49.078,-42.12
49.093,-44.68
49.109,-46.18
49.125,-46.0
49.140,-43.62
49.156,-39.0
49.171,-32.45
49.187,-24.63
49.203,-16.27
49.218,-8.07
49.234,-0.49
49.250,6.21
49.265,11.87
49.281,16.47
49.296,20.04
49.312,22.59
49.328,24.19
49.343,24.94
49.359,24.93
49.375,24.28
49.390,23.1
49.406,21.48
49.421,19.53
49.437,17.38
49.453,15.17
49.468,13.1
49.484,11.34
49.500,10.06
49.515,9.36
49.531,9.21
49.546,9.35
49.562,9.46
49.578,9.12
49.593,8.1
49.609,6.4
49.625,4.22
49.640,1.88
49.656,-0.37
49.671,-2.42
49.687,-4.37
49.703,-6.39
49.718,-8.59
49.734,-10.99
49.750,-13.49
49.765,-15.99
49.781,-18.43
49.796,-20.74
49.812,-22.89
49.828,-24.84
49.843,-26.54
49.859,-28.02
49.875,-29.4
49.890,-30.91
49.906,-32.85
49.921,-35.38
49.937,-38.34
49.953,-41.2
49.968,-43.13
49.984,-43.22
50.000,-40.85
50.015,-35.89
50.031,-28.74
50.046,-20.22
50.062,-11.24
50.078,-2.55
50.093,5.32
50.109,12.05
50.125,17.47
50.140,21.48
50.156,24.06
50.171,25.34
50.187,25.6
50.203,25.21
50.218,24.54
50.234,23.92
50.250,23.46
50.265,23.19
50.281,23.06
50.296,23.02
50.312,23.09
50.328,23.31
50.343,23.72
50.359,24.3
50.375,24.9
50.390,25.23
50.406,24.93
50.421,23.72
50.437,21.45
50.453,18.27
50.468,14.42
50.484,10.24
50.500,6.06
50.515,2.1
50.531,-1.52
50.546,-4.78
50.562,-7.64
50.578,-10.16
50.593,-12.43
50.609,-14.53
50.625,-16.55
50.640,-18.57
50.656,-20.59
50.671,-22.63
50.687,-24.72
50.703,-26.97
50.718,-29.62
50.734,-32.78
50.750,-36.43
50.765,-40.21
50.781,-43.42
50.796,-45.17
50.812,-44.54
50.828,-40.97
50.843,-34.46
50.859,-25.59
50.875,-15.36
50.890,-4.93
50.906,4.75
50.921,13.13
50.937,19.98
50.953,25.32
50.968,29.19
50.984,31.65
51.000,32.75
51.015,32.7
51.031,31.87
51.046,30.65
51.062,29.39
51.078,28.19
51.093,26.94
51.109,25.45
51.125,23.63
51.140,21.61
51.156,19.75
51.171,18.37
51.187,17.64
51.203,17.46
51.218,17.45
51.234,17.19
51.250,16.34
51.265,14.79
51.281,12.65
51.296,10.16
51.312,7.57
51.328,5.04
51.343,2.67
51.359,0.4
51.375,-1.86
51.390,-4.23
51.406,-6.8
51.421,-9.58
51.437,-12.48
51.453,-15.33
51.468,-17.92
51.484,-20.12
51.500,-22.0
51.515,-23.83
51.531,-26.02
51.546,-29.0
51.562,-33.02
51.578,-37.96
51.593,-43.28
51.609,-48.03
51.625,-51.07
51.640,-51.38
51.656,-48.35
51.671,-42.0
51.687,-32.94
51.703,-22.2
51.718,-10.93
51.734,-0.11
51.750,9.59
51.765,17.9
51.781,24.73
51.796,30.1
51.812,34.02
51.828,36.54
51.843,37.83
51.859,38.21
51.875,38.0
51.890,37.49
51.906,36.77
51.921,35.79
51.937,34.41
51.953,32.6
51.968,30.48
51.984,28.27
52.000,26.23
52.015,24.43
52.031,22.78
52.046,21.07
52.062,19.1
52.078,16.8
52.093,14.21
52.109,11.46
52.125,8.69
52.140,6.01
52.156,3.52
52.171,1.25
52.187,-0.89
52.203,-3.0
52.218,-5.33
52.234,-8.09
52.250,-11.42
52.265,-15.26
52.281,-19.4
52.296,-23.45
52.312,-27.06
52.328,-30.04
52.343,-32.41
52.359,-34.45
52.375,-36.6
52.390,-39.19
52.406,-42.32
52.421,-45.61
52.437,-48.33
52.453,-49.49
52.468,-48.25
52.484,-44.13
52.500,-37.23
52.515,-28.18
52.531,-17.9
52.546,-7.39
52.562,2.55
52.578,11.39
52.593,18.9
52.609,25.0
52.625,29.71
52.640,33.05
52.656,35.1
52.671,36.04
52.687,36.04
52.703,35.33
52.718,34.11
52.734,32.5
52.750,30.55
52.765,28.34
52.781,26.0
52.796,23.77
52.812,21.92
52.828,20.61
52.843,19.84
52.859,19.42
52.875,19.06
52.890,18.44
52.906,17.31
52.921,15.6
52.937,13.33
52.953,10.58
52.968,7.43
52.984,3.98
53.000,0.4
53.015,-3.17
53.031,-6.57
53.046,-9.77
53.062,-12.82
53.078,-15.8
53.093,-18.85
53.109,-21.98
53.125,-25.08
53.140,-27.98
53.156,-30.54
53.171,-32.82
53.187,-35.05
53.203,-37.66
53.218,-41.02
53.234,-45.29
53.250,-50.2
53.265,-55.04
53.281,-58.78
53.296,-60.35
53.312,-58.97
53.328,-54.38
53.343,-46.96
53.359,-37.53
53.375,-27.13
53.390,-16.7
53.406,-7.02
53.421,1.38
53.437,8.13
53.453,12.97
53.468,15.79
53.484,16.67
53.500,15.94
53.515,14.19
53.531,12.04
53.546,10.07
53.562,8.56
53.578,7.53
53.593,6.83
53.609,6.22
53.625,5.61
53.640,5.08
53.656,4.78
53.671,4.84
53.687,5.25
53.703,5.74
53.718,5.94
53.734,5.52
53.750,4.28
53.765,2.25
53.781,-0.41
53.796,-3.5
53.812,-6.95
53.828,-10.8
53.843,-15.2
53.859,-20.23
53.875,-25.81
53.890,-31.73
53.906,-37.63
53.921,-43.15
53.937,-47.98
53.953,-51.94
53.968,-55.03
53.984,-57.4
54.000,-59.28
54.015,-60.89
54.031,-62.25
54.046,-63.04
54.062,-62.53
54.078,-59.73
54.093,-53.68
54.109,-43.89
54.125,-30.6
54.140,-14.86
54.156,1.85
54.171,17.99
54.187,32.4
54.203,44.5
54.218,54.2
54.234,61.72
54.250,67.41
54.265,71.59
54.281,74.53
54.296,76.57
54.312,78.06
54.328,79.36
54.343,80.72
54.359,82.21
54.375,83.81
54.390,85.4
54.406,86.75
54.421,87.69
54.437,88.12
54.453,88.13
54.468,87.87
54.484,87.57
54.500,87.39
54.515,87.41
54.531,87.74
54.546,88.48
54.562,89.69
54.578,91.16
54.593,92.28
54.609,92.06
54.625,89.46
54.640,83.87
54.656,75.39
54.671,64.94
54.687,53.82
54.703,43.25
54.718,33.9
54.734,25.8
54.750,18.53
54.765,11.48
54.781,4.11
54.796,-4.0
54.812,-13.14
54.828,-23.35
54.843,-34.37
54.859,-45.54
54.875,-55.86
54.890,-64.17
54.906,-69.48
54.921,-71.23
54.937,-69.51
54.953,-64.91
54.968,-58.37
54.984,-50.87
55.000,-43.19
55.015,-35.78
55.031,-28.79
55.046,-22.21
55.062,-16.03
55.078,-10.36
55.093,-5.43
55.109,-1.5
55.125,1.23
55.140,2.74
55.156,3.17
55.171,2.76
55.187,1.8
55.203,0.55
55.218,-0.76
55.234,-1.95
55.250,-2.9
55.265,-3.59
55.281,-4.1
55.296,-4.57
55.312,-5.2
55.328,-6.15
55.343,-7.53
55.359,-9.34
55.375,-11.52
55.390,-14.01
55.406,-16.81
55.421,-19.89
55.437,-23.27
55.453,-26.86
55.468,-30.54
55.484,-34.11
55.500,-37.43
55.515,-40.46
55.531,-43.26
55.546,-45.96
55.562,-48.7
55.578,-51.6
55.593,-54.72
55.609,-58.12
55.625,-61.72
55.640,-65.27
55.656,-68.27
55.671,-70.01
55.687,-69.63
55.703,-66.39
55.718,-59.95
55.734,-50.47
55.750,-38.73
55.765,-25.81
55.781,-12.82
55.796,-0.59
55.812,10.57
55.828,20.75
55.843,30.16
55.859,38.89
55.875,46.8
55.890,53.56
55.906,58.98
55.921,63.08
55.937,66.17
55.953,68.67
55.968,70.77
55.984,72.31
56.000,72.79
56.015,71.68
56.031,68.63
56.046,63.66
56.062,57.13
56.078,49.52
56.093,41.29
56.109,32.77
56.125,24.19
56.140,15.7
56.156,7.5
56.171,-0.24
56.187,-7.33
56.203,-13.65
56.218,-19.07
56.234,-23.51
56.250,-26.93
56.265,-29.39
56.281,-31.15
56.296,-32.55
56.312,-33.92
56.328,-35.39
56.343,-36.84
56.359,-37.97
56.375,-38.47
56.390,-38.29
56.406,-37.49
56.421,-36.22
56.437,-34.3
56.453,-31.16
56.468,-26.01
56.484,-18.08
56.500,-7.08
56.515,6.6
56.531,21.87
56.546,37.33
56.562,51.61
56.578,63.79
56.593,73.7
56.609,81.84
56.625,89.23
56.640,96.96
56.656,105.88
56.671,116.26
56.687,127.81
56.703,139.82
56.718,151.53
56.734,162.31
56.750,171.85
56.765,180.22
56.781,187.85
56.796,195.62
56.812,204.71
56.828,216.41
56.843,231.58
56.859,250.06
56.875,270.39
56.890,289.88
56.906,305.46
56.921,314.67
56.937,316.51
56.953,311.46
56.968,300.86
56.984,285.8
57.000,266.48
57.015,242.26
57.031,212.44
57.046,177.14
57.062,137.78
57.078,96.65
57.093,56.07
57.109,17.46
57.125,-19.02
57.140,-54.27
57.156,-89.55
57.171,-125.73
57.187,-162.78
57.203,-199.61
57.218,-234.25
57.234,-264.1
57.250,-286.62
57.265,-299.91
57.281,-303.28
57.296,-297.38
57.312,-283.84
57.328,-264.75
57.343,-242.13
57.359,-217.76
57.375,-193.15
57.390,-169.87
57.406,-149.58
57.421,-133.64
57.437,-122.7
57.453,-116.2
57.468,-112.53
57.484,-109.55
57.500,-105.47
57.515,-99.52
57.531,-92.32
57.546,-85.68
57.562,-81.77
57.578,-82.27
57.593,-87.45
57.609,-95.88
57.625,-104.62
57.640,-110.17
57.656,-109.66
57.671,-101.86
57.687,-87.55
57.703,-69.06
57.718,-49.4
57.734,-31.09
57.750,-15.41
57.765,-2.23
57.781,9.46
57.796,20.9
57.812,32.98
57.828,45.98
57.843,59.52
57.859,72.39
57.875,82.52
57.890,86.92
57.906,82.12
57.921,65.05
57.937,34.34
57.953,-8.66
57.968,-59.65
57.984,-112.22
58.000,-159.7
58.015,-196.93
58.031,-221.54
58.046,-233.9
58.062,-236.27
58.078,-231.4
58.093,-221.48
58.109,-207.76
58.125,-190.89
58.140,-171.44
58.156,-150.33
58.171,-128.82
58.187,-108.15
58.203,-89.16
58.218,-72.01
58.234,-56.26
58.250,-41.25
58.265,-26.49
58.281,-11.85
58.296,2.32
58.312,15.45
58.328,27.03
58.343,36.81
58.359,44.91
58.375,51.73
58.390,57.68
58.406,62.92
58.421,67.28
58.437,70.36
58.453,71.72
58.468,71.1
58.484,68.49
58.500,64.04
58.515,57.91
58.531,50.1
58.546,40.49
58.562,29.04
58.578,16.01
58.593,2.12
58.609,-11.5
58.625,-23.52
58.640,-32.75
58.656,-38.3
58.671,-39.8
58.687,-37.26
58.703,-31.08
58.718,-22.0
58.734,-11.02
58.750,0.7
58.765,12.07
58.781,22.27
58.796,30.88
58.812,37.96
58.828,43.9
58.843,49.19
58.859,54.24
58.875,59.11
58.890,63.55
58.906,67.07
58.921,69.1
58.937,69.44
58.953,68.42
58.968,66.89
58.984,65.91
59.000,66.22
59.015,67.83
59.031,70.04
59.046,71.79
59.062,72.26
59.078,71.33
59.093,69.57
59.109,67.92
59.125,67.21
59.140,67.75
59.156,69.33
59.171,71.48
59.187,73.74
59.203,75.74
59.218,77.21
59.234,77.86
59.250,77.46
59.265,76.04
59.281,73.99
59.296,71.95
59.312,70.48
59.328,69.62
59.343,68.74
59.359,66.65
59.375,62.02
59.390,53.89
59.406,41.91
59.421,26.37
59.437,7.99
59.453,-12.34
59.468,-33.63
59.484,-54.88
59.500,-75.04
59.515,-93.19
59.531,-108.58
59.546,-120.72
59.562,-129.29
59.578,-133.96
59.593,-134.25
59.609,-129.55
59.625,-119.35
59.640,-103.58
59.656,-82.84
59.671,-58.43
59.687,-32.12
59.703,-5.76
59.718,19.16
59.734,41.61
59.750,60.9
59.765,76.58
59.781,88.23
59.796,95.73
59.812,99.36
59.828,99.95
59.843,98.75
59.859,97.02
59.875,95.7
59.890,95.06
59.906,94.84
59.921,94.36
59.937,92.91
59.953,89.85
59.968,84.68
59.984,77.09
