timestamp,value
00.000,-37.62
00.015,-41.65
00.031,-48.13
00.046,-56.8
00.062,-67.19
00.078,-78.24
00.093,-88.21
00.109,-95.26
00.125,-98.24
00.140,-97.31
00.156,-93.95
00.171,-90.33
00.187,-88.34
00.203,-88.68
00.218,-90.43
00.234,-91.37
00.250,-88.8
00.265,-80.46
00.281,-65.32
00.296,-43.96
00.312,-18.53
00.328,7.86
00.343,32.04
00.359,51.7
00.375,65.99
00.390,75.51
00.406,81.73
00.421,86.1
00.437,89.41
00.453,91.63
00.468,92.3
00.484,91.08
00.500,88.09
00.515,83.94
00.531,79.34
00.546,74.66
00.562,69.91
00.578,64.85
00.593,59.32
00.609,53.48
00.625,47.74
00.640,42.48
00.656,37.88
00.671,33.8
00.687,29.85
00.703,25.57
00.718,20.54
00.734,14.53
00.750,7.48
00.765,-0.5
00.781,-9.26
00.796,-18.66
00.812,-28.68
00.828,-39.21
00.843,-49.9
00.859,-59.96
00.875,-68.16
00.890,-73.04
00.906,-73.39
00.921,-68.58
00.937,-58.88
00.953,-45.29
00.968,-29.27
00.984,-12.25
01.000,4.62
01.015,20.64
01.031,35.49
01.046,49.03
01.062,61.11
01.078,71.51
01.093,79.99
01.109,86.35
01.125,90.55
01.140,92.78
01.156,93.44
01.171,93.07
01.187,92.17
01.203,91.12
01.218,90.13
01.234,89.25
01.250,88.35
01.265,87.24
01.281,85.56
01.296,82.94
01.312,78.97
01.328,73.36
01.343,66.06
01.359,57.28
01.375,47.52
01.390,37.36
01.406,27.39
01.421,17.96
01.437,9.13
01.453,0.65
01.468,-8.0
01.484,-17.34
01.500,-27.65
01.515,-38.7
01.531,-49.57
01.546,-58.7
01.562,-64.33
01.578,-64.99
01.593,-60.05
01.609,-49.92
01.625,-35.89
01.640,-19.69
01.656,-2.94
01.671,13.25
01.687,28.35
01.703,42.15
01.718,54.51
01.734,65.06
01.750,73.31
01.765,78.83
01.781,81.55
01.796,81.88
01.812,80.66
01.828,78.85
01.843,77.21
01.859,76.03
01.875,75.21
01.890,74.35
01.906,73.16
01.921,71.55
01.937,69.66
01.953,67.7
01.968,65.68
01.984,63.33
02.000,60.09
02.015,55.44
02.031,49.04
02.046,40.99
02.062,31.83
02.078,22.37
02.093,13.39
02.109,5.4
02.125,-1.58
02.140,-8.03
02.156,-14.66
02.171,-22.21
02.187,-31.11
02.203,-41.27
02.218,-52.08
02.234,-62.5
02.250,-71.24
02.265,-77.02
02.281,-78.79
02.296,-75.87
02.312,-68.18
02.328,-56.22
02.343,-41.02
02.359,-23.9
02.375,-6.17
02.390,11.15
02.406,27.5
02.421,42.59
02.437,56.38
02.453,68.78
02.468,79.66
02.484,88.8
02.500,96.09
02.515,101.64
02.531,105.79
02.546,109.04
02.562,111.85
02.578,114.51
02.593,117.05
02.609,119.38
02.625,121.42
02.640,123.24
02.656,125.09
02.671,127.31
02.687,130.1
02.703,133.22
02.718,135.97
02.734,137.17
02.750,135.58
02.765,130.32
02.781,121.17
02.796,108.74
02.812,94.17
02.828,78.75
02.843,63.44
02.859,48.6
02.875,34.02
02.890,19.24
02.906,3.79
02.921,-12.55
02.937,-29.76
02.953,-47.62
02.968,-65.74
02.984,-83.47
03.000,-99.87
03.015,-113.63
03.031,-123.26
03.046,-127.5
03.062,-125.7
03.078,-118.11
03.093,-105.86
03.109,-90.56
03.125,-73.87
03.140,-57.08
03.156,-40.98
03.171,-25.99
03.187,-12.36
03.203,-0.42
03.218,9.52
03.234,17.17
03.250,22.57
03.265,26.11
03.281,28.44
03.296,30.18
03.312,31.72
03.328,33.17
03.343,34.31
03.359,34.9
03.375,34.79
03.390,34.07
03.406,32.93
03.421,31.64
03.437,30.28
03.453,28.83
03.468,27.15
03.484,25.17
03.500,22.95
03.515,20.66
03.531,18.53
03.546,16.63
03.562,14.83
03.578,12.77
03.593,10.03
03.609,6.28
03.625,1.43
03.640,-4.36
03.656,-10.72
03.671,-17.26
03.687,-23.7
03.703,-29.93
03.718,-36.03
03.734,-42.22
03.750,-48.8
03.765,-55.95
03.781,-63.64
03.796,-71.47
03.812,-78.64
03.828,-84.0
03.843,-86.37
03.859,-84.78
03.875,-78.85
03.890,-68.9
03.906,-55.82
03.921,-40.77
03.937,-24.84
03.953,-8.83
03.968,6.87
03.984,22.09
04.000,36.6
04.015,49.96
04.031,61.48
04.046,70.42
04.062,76.32
04.078,79.23
04.093,79.78
04.109,78.97
04.125,77.84
04.140,77.12
04.156,77.08
04.171,77.6
04.187,78.42
04.203,79.37
04.218,80.41
04.234,81.56
04.250,82.76
04.265,83.78
04.281,84.26
04.296,83.87
04.312,82.39
04.328,79.81
04.343,76.27
04.359,71.96
04.375,67.11
04.390,61.85
04.406,56.35
04.421,50.71
04.437,45.04
04.453,39.37
04.468,33.69
04.484,27.98
04.500,22.23
04.515,16.43
04.531,10.53
04.546,4.37
04.562,-2.3
04.578,-9.77
04.593,-18.34
04.609,-28.17
04.625,-39.2
04.640,-51.12
04.656,-63.26
04.671,-74.65
04.687,-84.1
04.703,-90.45
04.718,-92.85
04.734,-91.02
04.750,-85.41
04.765,-76.94
04.781,-66.87
04.796,-56.34
04.812,-46.21
04.828,-36.94
04.843,-28.76
04.859,-21.79
04.875,-16.07
04.890,-11.63
04.906,-8.42
04.921,-6.25
04.937,-4.91
04.953,-4.12
04.968,-3.6
04.984,-3.0
05.000,-1.93
05.015,0.1
05.031,3.49
05.046,8.47
05.062,14.89
05.078,22.26
05.093,29.78
05.109,36.59
05.125,42.06
05.140,45.96
05.156,48.5
05.171,50.22
05.187,51.73
05.203,53.52
05.218,55.7
05.234,58.0
05.250,59.89
05.265,60.66
05.281,59.66
05.296,56.39
05.312,50.71
05.328,42.72
05.343,32.73
05.359,20.96
05.375,7.36
05.390,-8.61
05.406,-27.77
05.421,-50.87
05.437,-78.02
05.453,-108.31
05.468,-139.64
05.484,-169.01
05.500,-193.26
05.515,-209.82
05.531,-217.34
05.546,-216.0
05.562,-207.23
05.578,-193.23
05.593,-176.26
05.609,-158.28
05.625,-140.64
05.640,-124.13
05.656,-109.17
05.671,-95.92
05.687,-84.37
05.703,-74.25
05.718,-65.07
05.734,-56.26
05.750,-47.32
05.765,-38.05
05.781,-28.61
05.796,-19.38
05.812,-10.77
05.828,-3.01
05.843,3.97
05.859,10.42
05.875,16.6
05.890,22.69
05.906,28.57
05.921,33.93
05.937,38.35
05.953,41.52
05.968,43.39
05.984,44.18
06.000,44.29
06.015,44.12
06.031,43.95
06.046,43.83
06.062,43.62
06.078,43.08
06.093,42.03
06.109,40.35
06.125,38.01
06.140,34.97
06.156,31.16
06.171,26.49
06.187,20.91
06.203,14.49
06.218,7.38
06.234,-0.17
06.250,-7.87
06.265,-15.33
06.281,-22.05
06.296,-27.34
06.312,-30.34
06.328,-30.23
06.343,-26.45
06.359,-19.07
06.375,-8.93
06.390,2.51
06.406,13.41
06.421,22.14
06.437,27.67
06.453,29.79
06.468,29.06
06.484,26.43
06.500,22.87
06.515,19.13
06.531,15.68
06.546,12.79
06.562,10.62
06.578,9.16
06.593,8.15
06.609,7.02
06.625,5.16
06.640,2.2
06.656,-1.54
06.671,-5.04
06.687,-6.85
06.703,-5.68
06.718,-0.97
06.734,6.78
06.750,16.26
06.765,25.84
06.781,34.02
06.796,39.78
06.812,42.63
06.828,42.46
06.843,39.44
06.859,34.02
06.875,26.81
06.890,18.54
06.906,9.93
06.921,1.51
06.937,-6.44
06.953,-13.87
06.968,-20.85
06.984,-27.5
07.000,-33.92
07.015,-40.29
07.031,-46.82
07.046,-53.83
07.062,-61.66
07.078,-70.54
07.093,-80.48
07.109,-91.13
07.125,-101.72
07.140,-111.08
07.156,-117.83
07.171,-120.69
07.187,-118.85
07.203,-112.25
07.218,-101.66
07.234,-88.5
07.250,-74.38
07.265,-60.69
07.281,-48.18
07.296,-36.97
07.312,-26.71
07.328,-16.92
07.343,-7.38
07.359,1.8
07.375,10.19
07.390,17.29
07.406,22.83
07.421,26.88
07.437,29.81
07.453,32.19
07.468,34.5
07.484,37.0
07.500,39.73
07.515,42.64
07.531,45.6
07.546,48.6
07.562,51.58
07.578,54.41
07.593,56.83
07.609,58.5
07.625,59.14
07.640,58.63
07.656,57.05
07.671,54.63
07.687,51.57
07.703,47.94
07.718,43.7
07.734,38.69
07.750,32.89
07.765,26.34
07.781,19.22
07.796,11.62
07.812,3.51
07.828,-5.27
07.843,-14.85
07.859,-25.29
07.875,-36.47
07.890,-48.1
07.906,-59.77
07.921,-70.96
07.937,-81.04
07.953,-89.23
07.968,-94.73
07.984,-96.83
08.000,-95.08
08.015,-89.46
08.031,-80.37
08.046,-68.55
08.062,-54.89
08.078,-40.3
08.093,-25.56
08.109,-11.36
08.125,1.85
08.140,13.9
08.156,24.97
08.171,35.58
08.187,46.39
08.203,57.84
08.218,69.69
08.234,80.87
08.250,89.58
08.265,93.84
08.281,92.26
08.296,84.52
08.312,71.68
08.328,56.0
08.343,40.34
08.359,27.59
08.375,19.97
08.390,18.6
08.406,23.28
08.421,32.61
08.437,44.35
08.453,56.2
08.468,66.51
08.484,74.96
08.500,82.51
08.515,90.6
08.531,99.83
08.546,108.82
08.562,114.04
08.578,110.77
08.593,94.95
08.609,65.11
08.625,23.18
08.640,-25.89
08.656,-75.68
08.671,-120.14
08.687,-154.85
08.703,-177.34
08.718,-186.71
08.734,-183.23
08.750,-168.17
08.765,-143.92
08.781,-113.98
08.796,-82.5
08.812,-53.38
08.828,-29.28
08.843,-11.12
08.859,1.9
08.875,11.57
08.890,19.84
08.906,28.1
08.921,36.78
08.937,45.5
08.953,53.34
08.968,59.31
08.984,62.78
09.000,63.68
09.015,62.58
09.031,60.38
09.046,58.03
09.062,56.15
09.078,54.94
09.093,54.23
09.109,53.66
09.125,52.88
09.140,51.53
09.156,49.36
09.171,46.13
09.187,41.74
09.203,36.25
09.218,29.97
09.234,23.35
09.250,16.78
09.265,10.43
09.281,4.22
09.296,-2.1
09.312,-8.7
09.328,-15.53
09.343,-22.35
09.359,-28.86
09.375,-34.93
09.390,-40.71
09.406,-46.61
09.421,-53.18
09.437,-60.86
09.453,-69.94
09.468,-80.37
09.484,-91.77
09.500,-103.26
09.515,-113.5
09.531,-120.85
09.546,-123.67
09.562,-120.82
09.578,-112.04
09.593,-98.1
09.609,-80.62
09.625,-61.57
09.640,-42.82
09.656,-25.68
09.671,-10.8
09.687,1.74
09.703,12.18
09.718,20.83
09.734,27.96
09.750,33.71
09.765,38.17
09.781,41.39
09.796,43.56
09.812,44.91
09.828,45.8
09.843,46.57
09.859,47.5
09.875,48.73
09.890,50.24
09.906,51.88
09.921,53.44
09.937,54.71
09.953,55.42
09.968,55.39
09.984,54.41
10.000,52.41
10.015,49.43
10.031,45.6
10.046,41.11
10.062,36.06
10.078,30.47
10.093,24.3
10.109,17.48
10.125,10.02
10.140,2.09
10.156,-6.05
10.171,-14.09
10.187,-21.79
10.203,-29.02
10.218,-35.86
10.234,-42.54
10.250,-49.52
10.265,-57.27
10.281,-66.0
10.296,-75.39
10.312,-84.39
10.328,-91.41
10.343,-94.7
10.359,-92.97
10.375,-85.86
10.390,-74.02
10.406,-58.89
10.421,-42.14
10.437,-25.22
10.453,-9.11
10.468,5.7
10.484,18.98
10.500,30.6
10.515,40.36
10.531,48.08
10.546,53.67
10.562,57.2
10.578,58.97
10.593,59.37
10.609,58.89
10.625,58.0
10.640,57.01
10.656,56.08
10.671,55.23
10.687,54.39
10.703,53.46
10.718,52.37
10.734,51.09
10.750,49.58
10.765,47.73
10.781,45.39
10.796,42.34
10.812,38.39
10.828,33.44
10.843,27.53
10.859,20.92
10.875,14.03
10.890,7.36
10.906,1.27
10.921,-4.12
10.937,-8.97
10.953,-13.58
10.968,-18.37
10.984,-23.67
11.000,-29.72
11.015,-36.68
11.031,-44.62
11.046,-53.48
11.062,-62.89
11.078,-71.99
11.093,-79.47
11.109,-83.8
11.125,-83.65
11.140,-78.31
11.156,-68.02
11.171,-53.85
11.187,-37.39
11.203,-20.27
11.218,-3.75
11.234,11.42
11.250,24.91
11.265,36.68
11.281,46.72
11.296,54.95
11.312,61.29
11.328,65.73
11.343,68.53
11.359,70.15
11.375,71.21
11.390,72.27
11.406,73.74
11.421,75.71
11.437,77.95
11.453,80.07
11.468,81.61
11.484,82.23
11.500,81.77
11.515,80.31
11.531,78.04
11.546,75.2
11.562,72.0
11.578,68.62
11.593,65.22
11.609,61.95
11.625,58.98
11.640,56.4
11.656,54.29
11.671,52.59
11.687,51.24
11.703,50.14
11.718,49.19
11.734,48.3
11.750,47.39
11.765,46.38
11.781,45.22
11.796,43.89
11.812,42.48
11.828,41.04
11.843,39.6
11.859,38.17
11.875,36.71
11.890,35.16
11.906,33.56
11.921,31.95
11.937,30.35
11.953,28.74
11.968,27.0
11.984,25.01
12.000,22.7
12.015,20.08
12.031,17.24
12.046,14.26
12.062,11.15
12.078,7.87
12.093,4.42
12.109,0.8
12.125,-2.89
12.140,-6.57
12.156,-10.26
12.171,-14.09
12.187,-18.31
12.203,-23.18
12.218,-28.89
12.234,-35.47
12.250,-42.78
12.265,-50.55
12.281,-58.45
12.296,-66.22
12.312,-73.73
12.328,-81.05
12.343,-88.41
12.359,-96.03
12.375,-103.97
12.390,-112.0
12.406,-119.68
12.421,-126.45
12.437,-132.02
12.453,-136.41
12.468,-140.04
12.484,-143.62
12.500,-147.91
12.515,-153.58
12.531,-161.03
12.546,-170.11
12.562,-179.89
12.578,-188.61
12.593,-193.94
12.609,-193.57
12.625,-186.01
12.640,-171.18
12.656,-150.47
12.671,-126.3
12.687,-101.23
12.703,-77.19
12.718,-55.21
12.734,-35.52
12.750,-18.07
12.765,-2.83
12.781,10.05
12.796,20.41
12.812,28.23
12.828,33.7
12.843,37.2
12.859,39.1
12.875,39.78
12.890,39.52
12.906,38.65
12.921,37.54
12.937,36.59
12.953,36.04
12.968,35.99
12.984,36.36
13.000,36.93
13.015,37.51
13.031,37.91
13.046,38.02
13.062,37.66
13.078,36.65
13.093,34.78
13.109,31.92
13.125,28.11
13.140,23.56
13.156,18.55
13.171,13.34
13.187,8.05
13.203,2.66
13.218,-3.0
13.234,-9.12
13.250,-15.89
13.265,-23.47
13.281,-31.94
13.296,-41.18
13.312,-50.73
13.328,-59.7
13.343,-66.78
13.359,-70.59
13.375,-70.08
13.390,-64.91
13.406,-55.59
13.421,-43.31
13.437,-29.57
13.453,-15.76
13.468,-2.95
13.484,8.13
13.500,17.1
13.515,23.75
13.531,28.0
13.546,29.96
13.562,29.95
13.578,28.44
13.593,26.05
13.609,23.36
13.625,20.87
13.640,18.91
13.656,17.61
13.671,16.86
13.687,16.44
13.703,16.14
13.718,15.86
13.734,15.57
13.750,15.3
13.765,14.87
13.781,13.9
13.796,11.88
13.812,8.36
13.828,3.18
13.843,-3.43
13.859,-10.87
13.875,-18.47
13.890,-25.64
13.906,-32.14
13.921,-38.06
13.937,-43.72
13.953,-49.61
13.968,-56.16
13.984,-63.64
14.000,-71.98
14.015,-80.61
14.031,-88.43
14.046,-93.91
14.062,-95.55
14.078,-92.22
14.093,-83.64
14.109,-70.45
14.125,-54.01
14.140,-35.94
14.156,-17.75
14.171,-0.46
14.187,15.32
14.203,29.18
14.218,40.78
14.234,49.77
14.250,55.98
14.265,59.56
14.281,61.1
14.296,61.5
14.312,61.69
14.328,62.34
14.343,63.69
14.359,65.66
14.375,67.95
14.390,70.32
14.406,72.66
14.421,75.0
14.437,77.29
14.453,79.32
14.468,80.67
14.484,80.82
14.500,79.39
14.515,76.35
14.531,72.12
14.546,67.45
14.562,63.19
14.578,59.94
14.593,57.89
14.609,56.71
14.625,55.79
14.640,54.42
14.656,52.09
14.671,48.71
14.687,44.59
14.703,40.51
14.718,37.53
14.734,36.8
14.750,39.31
14.765,45.57
14.781,55.47
14.796,68.18
14.812,82.23
14.828,95.82
14.843,107.07
14.859,114.44
14.875,116.98
14.890,114.54
14.906,107.79
14.921,98.06
14.937,87.13
14.953,76.88
14.968,69.0
14.984,64.74
15.000,64.62
15.015,68.23
15.031,74.1
15.046,79.91
15.062,83.0
15.078,81.28
15.093,74.18
15.109,63.04
15.125,50.86
15.140,41.03
15.156,35.91
15.171,35.55
15.187,37.48
15.203,37.71
15.218,32.33
15.234,19.18
15.250,-1.31
15.265,-26.38
15.281,-52.2
15.296,-75.27
15.312,-93.61
15.328,-106.89
15.343,-115.99
15.359,-122.14
15.375,-126.15
15.390,-128.18
15.406,-127.73
15.421,-124.11
15.437,-116.73
15.453,-105.35
15.468,-90.25
15.484,-72.08
15.500,-51.82
15.515,-30.5
15.531,-9.08
15.546,11.66
15.562,31.1
15.578,48.56
15.593,63.35
15.609,74.72
15.625,82.19
15.640,85.71
15.656,85.82
15.671,83.55
15.687,80.08
15.703,76.22
15.718,72.22
15.734,67.65
15.750,61.64
15.765,53.33
15.781,42.26
15.796,28.74
15.812,13.88
15.828,-0.49
15.843,-12.2
15.859,-19.37
15.875,-21.28
15.890,-19.22
15.906,-16.92
15.921,-19.94
15.937,-34.05
15.953,-62.91
15.968,-106.15
15.984,-158.73
16.000,-212.2
16.015,-257.4
16.031,-287.34
16.046,-299.15
16.062,-294.36
16.078,-277.65
16.093,-254.97
16.109,-231.77
16.125,-211.83
16.140,-196.93
16.156,-186.94
16.171,-180.22
16.187,-174.22
16.203,-166.25
16.218,-154.26
16.234,-137.36
16.250,-116.03
16.265,-91.83
16.281,-66.67
16.296,-42.12
16.312,-18.92
16.328,3.05
16.343,24.42
16.359,45.73
16.375,67.06
16.390,87.77
16.406,106.81
16.421,123.01
16.437,135.32
16.453,143.0
16.468,145.54
16.484,142.82
16.500,135.3
16.515,124.21
16.531,111.47
16.546,99.26
16.562,89.32
16.578,82.37
16.593,77.97
16.609,74.82
16.625,71.51
16.640,67.05
16.656,61.21
16.671,54.4
16.687,47.38
16.703,40.86
16.718,35.32
16.734,30.84
16.750,27.16
16.765,23.76
16.781,19.98
16.796,15.24
16.812,9.12
16.828,1.54
16.843,-7.15
16.859,-16.04
16.875,-23.66
16.890,-28.21
16.906,-27.92
16.921,-21.63
16.937,-9.22
16.953,8.32
16.968,29.05
16.984,50.81
17.000,71.78
17.015,90.95
17.031,108.04
17.046,123.22
17.062,136.67
17.078,148.27
17.093,157.59
17.109,164.11
17.125,167.52
17.140,167.86
17.156,165.51
17.171,160.91
17.187,154.44
17.203,146.26
17.218,136.44
17.234,125.06
17.250,112.29
17.265,98.41
17.281,83.65
17.296,68.19
17.312,52.14
17.328,35.74
17.343,19.38
17.359,3.67
17.375,-10.68
17.390,-23.06
17.406,-33.11
17.421,-40.8
17.437,-46.47
17.453,-50.62
17.468,-53.94
17.484,-57.2
17.500,-61.09
17.515,-66.23
17.531,-72.99
17.546,-81.4
17.562,-91.08
17.578,-101.31
17.593,-110.9
17.609,-118.38
17.625,-122.22
17.640,-121.08
17.656,-114.2
17.671,-101.66
17.687,-84.37
17.703,-63.8
17.718,-41.68
17.734,-19.52
17.750,1.59
17.765,20.98
17.781,38.32
17.796,53.36
17.812,65.9
17.828,75.69
17.843,82.58
17.859,86.52
17.875,87.75
17.890,86.78
17.906,84.43
17.921,81.66
17.937,79.33
17.953,77.94
17.968,77.43
17.984,77.3
18.000,76.87
18.015,75.58
18.031,73.23
18.046,69.93
18.062,65.95
18.078,61.42
18.093,56.3
18.109,50.42
18.125,43.61
18.140,35.82
18.156,27.09
18.171,17.41
18.187,6.69
18.203,-5.24
18.218,-18.44
18.234,-32.69
18.250,-47.45
18.265,-61.93
18.281,-75.37
18.296,-87.29
18.312,-97.58
18.328,-106.52
18.343,-114.37
18.359,-121.14
18.375,-126.32
18.390,-128.85
18.406,-127.44
18.421,-121.09
18.437,-109.57
18.453,-93.57
18.468,-74.6
18.484,-54.42
18.500,-34.48
18.515,-15.58
18.531,2.19
18.546,19.21
18.562,35.87
18.578,52.34
18.593,68.5
18.609,84.05
18.625,98.8
18.640,112.83
18.656,126.43
18.671,139.94
18.687,153.53
18.703,166.99
18.718,179.84
18.734,191.45
18.750,201.3
18.765,209.12
18.781,214.88
18.796,218.63
18.812,220.25
18.828,219.24
18.843,214.64
18.859,205.16
18.875,189.45
18.890,166.59
18.906,136.56
18.921,100.51
18.937,60.71
18.953,19.94
18.968,-19.17
18.984,-54.86
19.000,-86.53
19.015,-114.48
19.031,-139.38
19.046,-161.82
19.062,-182.04
19.078,-200.08
19.093,-216.02
19.109,-229.87
19.125,-241.33
19.140,-249.38
19.156,-252.21
19.171,-247.69
19.187,-234.29
19.203,-211.88
19.218,-182.14
19.234,-148.21
19.250,-113.84
19.265,-82.62
19.281,-57.49
19.296,-40.61
19.312,-33.29
19.328,-35.85
19.343,-47.33
19.359,-65.34
19.375,-86.42
19.390,-106.91
19.406,-124.11
19.421,-137.08
19.437,-146.58
19.453,-154.32
19.468,-161.63
19.484,-168.48
19.500,-173.28
19.515,-173.69
19.531,-167.85
19.546,-155.47
19.562,-138.02
19.578,-118.09
19.593,-98.22
19.609,-79.95
19.625,-63.58
19.640,-48.67
19.656,-34.85
19.671,-22.41
19.687,-12.32
19.703,-5.59
19.718,-2.55
19.734,-2.55
19.750,-4.13
19.765,-5.67
19.781,-6.22
19.796,-5.78
19.812,-5.25
19.828,-5.91
19.843,-8.89
19.859,-14.7
19.875,-23.18
19.890,-33.59
19.906,-44.86
19.921,-55.75
19.937,-64.94
19.953,-71.12
19.968,-73.09
19.984,-70.03
20.000,-61.81
20.015,-49.08
20.031,-33.21
20.046,-15.94
20.062,1.09
20.078,16.68
20.093,30.26
20.109,41.77
20.125,51.42
20.140,59.46
20.156,66.06
20.171,71.3
20.187,75.3
20.203,78.36
20.218,80.96
20.234,83.65
20.250,86.84
20.265,90.67
20.281,94.94
20.296,99.22
20.312,102.99
20.328,105.9
20.343,107.77
20.359,108.65
20.375,108.64
20.390,107.86
20.406,106.4
20.421,104.39
20.437,102.0
20.453,99.48
20.468,97.12
20.484,95.21
20.500,93.96
20.515,93.45
20.531,93.62
20.546,94.25
20.562,94.98
20.578,95.49
20.593,95.49
20.609,94.92
20.625,93.89
20.640,92.61
20.656,91.25
20.671,89.76
20.687,87.88
20.703,85.26
20.718,81.66
20.734,77.05
20.750,71.69
20.765,65.93
20.781,60.11
20.796,54.37
20.812,48.67
20.828,42.89
20.843,36.91
20.859,30.74
20.875,24.55
20.890,18.57
20.906,13.05
20.921,8.22
20.937,4.2
20.953,1.02
20.968,-1.42
20.984,-3.29
21.000,-4.76
21.015,-6.04
21.031,-7.3
21.046,-8.81
21.062,-10.97
21.078,-14.21
21.093,-18.95
21.109,-25.3
21.125,-33.01
21.140,-41.43
21.156,-49.75
21.171,-57.23
21.187,-63.48
21.203,-68.51
21.218,-72.66
21.234,-76.41
21.250,-80.16
21.265,-84.12
21.281,-88.31
21.296,-92.66
21.312,-97.1
21.328,-101.61
21.343,-106.32
21.359,-111.45
21.375,-117.35
21.390,-124.44
21.406,-133.11
21.421,-143.51
21.437,-155.27
21.453,-167.26
21.468,-177.57
21.484,-183.89
21.500,-184.06
21.515,-176.77
21.531,-162.02
21.546,-141.14
21.562,-116.46
21.578,-90.6
21.593,-65.86
21.609,-43.8
21.625,-25.15
21.640,-9.99
21.656,1.95
21.671,11.06
21.687,17.71
21.703,22.23
21.718,25.03
21.734,26.61
21.750,27.56
21.765,28.44
21.781,29.62
21.796,31.18
21.812,32.86
21.828,34.32
21.843,35.16
21.859,35.21
21.875,34.55
21.890,33.41
21.906,32.03
21.921,30.56
21.937,28.93
21.953,26.87
21.968,24.07
21.984,20.26
22.000,15.41
22.015,9.72
22.031,3.58
22.046,-2.58
22.062,-8.52
22.078,-14.22
22.093,-19.97
22.109,-26.18
22.125,-33.3
22.140,-41.57
22.156,-50.89
22.171,-60.75
22.187,-70.14
22.203,-77.74
22.218,-82.08
22.234,-81.89
22.250,-76.58
22.265,-66.42
22.281,-52.54
22.296,-36.65
22.312,-20.54
22.328,-5.57
22.343,7.57
22.359,18.8
22.375,28.38
22.390,36.57
22.406,43.38
22.421,48.62
22.437,52.08
22.453,53.7
22.468,53.75
22.484,52.73
22.500,51.22
22.515,49.69
22.531,48.38
22.546,47.28
22.562,46.2
22.578,44.98
22.593,43.54
22.609,41.93
22.625,40.28
22.640,38.7
22.656,37.08
22.671,35.06
22.687,32.12
22.703,27.66
22.718,21.43
22.734,13.61
22.750,4.86
22.765,-3.9
22.781,-11.84
22.796,-18.56
22.812,-24.21
22.828,-29.43
22.843,-35.08
22.859,-42.0
22.875,-50.65
22.890,-61.02
22.906,-72.43
22.921,-83.61
22.937,-92.84
22.953,-98.2
22.968,-98.06
22.984,-91.57
23.000,-78.89
23.015,-61.25
23.031,-40.67
23.046,-19.39
23.062,0.64
23.078,18.2
23.093,32.92
23.109,45.03
23.125,55.0
23.140,63.15
23.156,69.5
23.171,73.85
23.187,76.12
23.203,76.46
23.218,75.42
23.234,73.76
23.250,72.14
23.265,70.95
23.281,70.22
23.296,69.73
23.312,69.24
23.328,68.59
23.343,67.76
23.359,66.78
23.375,65.52
23.390,63.68
23.406,60.77
23.421,56.34
23.437,50.15
23.453,42.36
23.468,33.5
23.484,24.32
23.500,15.54
23.515,7.58
23.531,0.44
23.546,-6.23
23.562,-13.0
23.578,-20.49
23.593,-29.16
23.609,-39.29
23.625,-50.81
23.640,-63.2
23.656,-75.42
23.671,-85.86
23.687,-92.67
23.703,-94.19
23.718,-89.54
23.734,-78.9
23.750,-63.49
23.765,-45.22
23.781,-26.11
23.796,-7.78
23.812,8.87
23.828,23.53
23.843,36.29
23.859,47.26
23.875,56.45
23.890,63.71
23.906,68.89
23.921,72.02
23.937,73.38
23.953,73.48
23.968,72.91
23.984,72.15
24.000,71.47
24.015,70.84
24.031,70.08
24.046,68.95
24.062,67.3
24.078,65.12
24.093,62.48
24.109,59.46
24.125,56.01
24.140,51.98
24.156,47.16
24.171,41.41
24.187,34.77
24.203,27.47
24.218,19.88
24.234,12.34
24.250,5.1
24.265,-1.77
24.281,-8.34
24.296,-14.85
24.312,-21.64
24.328,-29.11
24.343,-37.67
24.359,-47.57
24.375,-58.74
24.390,-70.63
24.406,-82.05
24.421,-91.36
24.437,-96.77
24.453,-96.82
24.468,-90.84
24.484,-79.21
24.500,-63.24
24.515,-44.89
24.531,-26.18
24.546,-8.75
24.562,6.45
24.578,19.13
24.593,29.46
24.609,37.8
24.625,44.33
24.640,49.1
24.656,52.06
24.671,53.28
24.687,53.05
24.703,51.92
24.718,50.53
24.734,49.35
24.750,48.57
24.765,48.05
24.781,47.48
24.796,46.5
24.812,44.97
24.828,43.01
24.843,40.91
24.859,38.95
24.875,37.34
24.890,36.05
24.906,34.81
24.921,33.26
24.937,30.94
24.953,27.49
24.968,22.76
24.984,16.76
25.000,9.73
25.015,1.95
25.031,-6.32
25.046,-14.95
25.062,-23.88
25.078,-33.17
25.093,-42.84
25.109,-52.75
25.125,-62.58
25.140,-71.68
25.156,-79.09
25.171,-83.68
25.187,-84.38
25.203,-80.42
25.218,-71.69
25.234,-58.76
25.250,-42.88
25.265,-25.6
25.281,-8.4
25.296,7.69
25.312,22.17
25.328,34.96
25.343,46.18
25.359,55.85
25.375,63.85
25.390,69.92
25.406,73.93
25.421,75.99
25.437,76.49
25.453,76.03
25.468,75.12
25.484,74.16
25.500,73.25
25.515,72.33
25.531,71.21
25.546,69.72
25.562,67.77
25.578,65.35
25.593,62.57
25.609,59.48
25.625,56.16
25.640,52.51
25.656,48.32
25.671,43.3
25.687,37.2
25.703,29.93
25.718,21.66
25.734,12.79
25.750,3.84
25.765,-4.7
25.781,-12.61
25.796,-19.91
25.812,-26.89
25.828,-33.98
25.843,-41.61
25.859,-50.09
25.875,-59.49
25.890,-69.59
25.906,-79.79
25.921,-89.08
25.937,-96.12
25.953,-99.47
25.968,-97.95
25.984,-91.0
26.000,-78.93
26.015,-62.96
26.031,-44.83
26.046,-26.39
26.062,-9.12
26.078,6.16
26.093,19.29
26.109,30.48
26.125,40.08
26.140,48.25
26.156,54.96
26.171,60.07
26.187,63.51
26.203,65.48
26.218,66.42
26.234,66.87
26.250,67.24
26.265,67.71
26.281,68.23
26.296,68.56
26.312,68.5
26.328,67.92
26.343,66.7
26.359,64.72
26.375,61.82
26.390,57.82
26.406,52.71
26.421,46.65
26.437,40.04
26.453,33.38
26.468,27.05
26.484,21.21
26.500,15.79
26.515,10.55
26.531,5.22
26.546,-0.4
26.562,-6.42
26.578,-12.83
26.593,-19.59
26.609,-26.61
26.625,-33.84
26.640,-41.31
26.656,-49.12
26.671,-57.33
26.687,-65.84
26.703,-74.12
26.718,-81.13
26.734,-85.53
26.750,-85.97
26.765,-81.61
26.781,-72.5
26.796,-59.54
26.812,-44.28
26.828,-28.39
26.843,-13.16
26.859,0.66
26.875,12.85
26.890,23.5
26.906,32.71
26.921,40.44
26.937,46.59
26.953,51.07
26.968,53.94
26.984,55.49
27.000,56.09
27.015,56.06
27.031,55.55
27.046,54.55
27.062,52.97
27.078,50.82
27.093,48.26
27.109,45.57
27.125,43.05
27.140,40.76
27.156,38.53
27.171,36.02
27.187,32.87
27.203,28.92
27.218,24.29
27.234,19.3
27.250,14.33
27.265,9.6
27.281,5.09
27.296,0.55
27.312,-4.37
27.328,-9.96
27.343,-16.26
27.359,-23.06
27.375,-29.91
27.390,-36.34
27.406,-42.04
27.421,-47.03
27.437,-51.71
27.453,-56.71
27.468,-62.74
27.484,-70.19
27.500,-79.01
27.515,-88.5
27.531,-97.42
27.546,-104.2
27.562,-107.3
27.578,-105.6
27.593,-98.65
27.609,-86.91
27.625,-71.53
27.640,-54.13
27.656,-36.4
27.671,-19.68
27.687,-4.8
27.703,7.95
27.718,18.65
27.734,27.51
27.750,34.76
27.765,40.55
27.781,45.09
27.796,48.59
27.812,51.35
27.828,53.69
27.843,55.81
27.859,57.72
27.875,59.31
27.890,60.39
27.906,60.8
27.921,60.48
27.937,59.44
27.953,57.71
27.968,55.33
27.984,52.27
28.000,48.58
28.015,44.36
28.031,39.78
28.046,35.08
28.062,30.48
28.078,26.11
28.093,21.89
28.109,17.6
28.125,12.88
28.140,7.45
28.156,1.21
28.171,-5.7
28.187,-12.91
28.203,-19.99
28.218,-26.67
28.234,-32.87
28.250,-38.78
28.265,-44.68
28.281,-50.89
28.296,-57.59
28.312,-64.7
28.328,-71.87
28.343,-78.37
28.359,-83.26
28.375,-85.5
28.390,-84.18
28.406,-78.87
28.421,-69.77
28.437,-57.68
28.453,-43.75
28.468,-29.2
28.484,-15.0
28.500,-1.75
28.515,10.28
28.531,20.94
28.546,30.09
28.562,37.55
28.578,43.16
28.593,46.89
28.609,48.93
28.625,49.66
28.640,49.59
28.656,49.2
28.671,48.8
28.687,48.52
28.703,48.34
28.718,48.18
28.734,48.01
28.750,47.85
28.765,47.7
28.781,47.46
28.796,46.88
28.812,45.61
28.828,43.31
28.843,39.84
28.859,35.28
28.875,29.98
28.890,24.4
28.906,18.98
28.921,13.97
28.937,9.35
28.953,4.89
28.968,0.31
28.984,-4.63
29.000,-9.94
29.015,-15.42
29.031,-20.78
29.046,-25.77
29.062,-30.38
29.078,-34.85
29.093,-39.57
29.109,-44.92
29.125,-51.2
29.140,-58.41
29.156,-66.24
29.171,-74.04
29.187,-80.79
29.203,-85.29
29.218,-86.4
29.234,-83.36
29.250,-76.07
29.265,-65.2
29.281,-51.98
29.296,-37.82
29.312,-24.0
29.328,-11.31
29.343,-0.03
29.359,9.93
29.375,18.76
29.390,26.62
29.406,33.47
29.421,39.11
29.437,43.38
29.453,46.21
29.468,47.75
29.484,48.33
29.500,48.29
29.515,47.88
29.531,47.23
29.546,46.35
29.562,45.26
29.578,44.08
29.593,43.03
29.609,42.31
29.625,41.96
29.640,41.77
29.656,41.34
29.671,40.23
29.687,38.1
29.703,34.89
29.718,30.76
29.734,26.09
29.750,21.3
29.765,16.67
29.781,12.23
29.796,7.82
29.812,3.19
29.828,-1.83
29.843,-7.25
29.859,-12.87
29.875,-18.4
29.890,-23.57
29.906,-28.34
29.921,-32.82
29.937,-37.32
29.953,-42.16
29.968,-47.68
29.984,-54.06
30.000,-61.3
30.015,-69.18
30.031,-77.14
30.046,-84.27
30.062,-89.38
30.078,-91.24
30.093,-88.92
30.109,-82.1
30.125,-71.26
30.140,-57.59
30.156,-42.66
30.171,-28.05
30.187,-14.9
30.203,-3.77
30.218,5.3
30.234,12.58
30.250,18.37
30.265,22.89
30.281,26.26
30.296,28.57
30.312,30.02
30.328,30.92
30.343,31.61
30.359,32.35
30.375,33.19
30.390,34.02
30.406,34.64
30.421,34.96
30.437,34.97
30.453,34.76
30.468,34.37
30.484,33.68
30.500,32.44
30.515,30.39
30.531,27.45
30.546,23.78
30.562,19.74
30.578,15.75
30.593,12.05
30.609,8.67
30.625,5.38
30.640,1.86
30.656,-2.13
30.671,-6.73
30.687,-11.88
30.703,-17.39
30.718,-23.04
30.734,-28.65
30.750,-34.18
30.765,-39.68
30.781,-45.3
30.796,-51.16
30.812,-57.23
30.828,-63.19
30.843,-68.4
30.859,-71.94
30.875,-72.82
30.890,-70.32
30.906,-64.21
30.921,-54.92
30.937,-43.46
30.953,-31.12
30.968,-19.04
30.984,-7.98
31.000,1.84
31.015,10.46
31.031,18.05
31.046,24.52
31.062,29.64
31.078,33.08
31.093,34.72
31.109,34.74
31.125,33.59
31.140,31.85
31.156,30.06
31.171,28.57
31.187,27.51
31.203,26.88
31.218,26.6
31.234,26.48
31.250,26.35
31.265,26.01
31.281,25.33
31.296,24.2
31.312,22.55
31.328,20.24
31.343,17.1
31.359,12.99
31.375,7.86
31.390,1.86
31.406,-4.66
31.421,-11.25
31.437,-17.52
31.453,-23.26
31.468,-28.53
31.484,-33.51
31.500,-38.5
31.515,-43.78
31.531,-49.66
31.546,-56.38
31.562,-64.06
31.578,-72.53
31.593,-81.18
31.609,-88.93
31.625,-94.38
31.640,-96.16
31.656,-93.42
31.671,-86.1
31.687,-75.02
31.703,-61.56
31.718,-47.27
31.734,-33.38
31.750,-20.61
31.765,-9.22
31.781,0.8
31.796,9.47
31.812,16.8
31.828,22.74
31.843,27.35
31.859,30.76
31.875,33.21
31.890,34.97
31.906,36.28
31.921,37.33
31.937,38.23
31.953,39.08
31.968,39.87
31.984,40.55
32.000,40.96
32.015,40.86
32.031,40.06
32.046,38.42
32.062,35.95
32.078,32.79
32.093,29.16
32.109,25.25
32.125,21.27
32.140,17.3
32.156,13.39
32.171,9.51
32.187,5.61
32.203,1.62
32.218,-2.52
32.234,-6.83
32.250,-11.37
32.265,-16.2
32.281,-21.43
32.296,-27.21
32.312,-33.69
32.328,-41.03
32.343,-49.22
32.359,-58.03
32.375,-66.87
32.390,-74.77
32.406,-80.46
32.421,-82.62
32.437,-80.3
32.453,-73.19
32.468,-61.9
32.484,-47.73
32.500,-32.42
32.515,-17.59
32.531,-4.37
32.546,6.85
32.562,16.24
32.578,24.29
32.593,31.44
32.609,37.89
32.625,43.49
32.640,47.97
32.656,51.05
32.671,52.68
32.687,53.05
32.703,52.51
32.718,51.42
32.734,50.04
32.750,48.5
32.765,46.88
32.781,45.32
32.796,43.94
32.812,42.87
32.828,42.03
32.843,41.15
32.859,39.85
32.875,37.78
32.890,34.82
32.906,31.06
32.921,26.74
32.937,22.07
32.953,17.14
32.968,11.86
32.984,6.13
33.000,-0.1
33.015,-6.7
33.031,-13.4
33.046,-19.94
33.062,-26.12
33.078,-31.91
33.093,-37.47
33.109,-43.09
33.125,-49.12
33.140,-55.87
33.156,-63.35
33.171,-71.14
33.187,-78.32
33.203,-83.63
33.218,-85.74
33.234,-83.73
33.250,-77.39
33.265,-67.26
33.281,-54.5
33.296,-40.49
33.312,-26.49
33.328,-13.39
33.343,-1.69
33.359,8.5
33.375,17.12
33.390,24.16
33.406,29.52
33.421,33.11
33.437,34.95
33.453,35.3
33.468,34.6
33.484,33.44
33.500,32.38
33.515,31.79
33.531,31.77
33.546,32.21
33.562,32.91
33.578,33.6
33.593,34.1
33.609,34.25
33.625,33.96
33.640,33.15
33.656,31.79
33.671,29.87
33.687,27.41
33.703,24.41
33.718,20.88
33.734,16.86
33.750,12.45
33.765,7.85
33.781,3.28
33.796,-1.09
33.812,-5.19
33.828,-9.18
33.843,-13.35
33.859,-18.07
33.875,-23.72
33.890,-30.52
33.906,-38.49
33.921,-47.32
33.937,-56.28
33.953,-64.22
33.968,-69.74
33.984,-71.52
34.000,-68.66
34.015,-61.02
34.031,-49.3
34.046,-34.84
34.062,-19.25
34.078,-3.98
34.093,9.92
34.109,21.92
34.125,31.9
34.140,39.94
34.156,46.27
34.171,51.12
34.187,54.76
34.203,57.5
34.218,59.67
34.234,61.56
34.250,63.4
34.265,65.34
34.281,67.34
34.296,69.24
34.312,70.85
34.328,71.95
34.343,72.45
34.359,72.38
34.375,71.86
34.390,70.98
34.406,69.82
34.421,68.35
34.437,66.51
34.453,64.32
34.468,61.88
34.484,59.35
34.500,56.93
34.515,54.7
34.531,52.66
34.546,50.64
34.562,48.43
34.578,45.85
34.593,42.84
34.609,39.5
34.625,36.05
34.640,32.76
34.656,29.84
34.671,27.39
34.687,25.37
34.703,23.61
34.718,21.98
34.734,20.39
34.750,18.81
34.765,17.3
34.781,15.91
34.796,14.58
34.812,13.26
34.828,11.85
34.843,10.24
34.859,8.44
34.875,6.48
34.890,4.47
34.906,2.5
34.921,0.71
34.937,-0.8
34.953,-1.93
34.968,-2.67
34.984,-3.1
35.000,-3.36
35.015,-3.67
35.031,-4.21
35.046,-5.13
35.062,-6.56
35.078,-8.54
35.093,-11.06
35.109,-14.06
35.125,-17.4
35.140,-20.87
35.156,-24.31
35.171,-27.64
35.187,-30.82
35.203,-33.9
35.218,-36.94
35.234,-39.95
35.250,-42.98
35.265,-46.2
35.281,-49.84
35.296,-54.28
35.312,-59.77
35.328,-66.3
35.343,-73.5
35.359,-80.74
35.375,-87.36
35.390,-92.95
35.406,-97.5
35.421,-101.49
35.437,-105.7
35.453,-110.92
35.468,-117.7
35.484,-126.03
35.500,-135.15
35.515,-143.63
35.531,-149.5
35.546,-150.79
35.562,-146.08
35.578,-134.95
35.593,-118.17
35.609,-97.48
35.625,-75.12
35.640,-53.17
35.656,-33.11
35.671,-15.71
35.687,-1.08
35.703,10.98
35.718,20.77
35.734,28.52
35.750,34.42
35.765,38.67
35.781,41.57
35.796,43.52
35.812,44.92
35.828,46.13
35.843,47.4
35.859,48.76
35.875,50.15
35.890,51.39
35.906,52.3
35.921,52.8
35.937,52.88
35.953,52.57
35.968,51.83
35.984,50.52
36.000,48.39
36.015,45.16
36.031,40.7
36.046,35.12
36.062,28.83
36.078,22.39
36.093,16.4
36.109,11.22
36.125,6.9
36.140,3.18
36.156,-0.43
36.171,-4.53
36.187,-9.59
36.203,-15.97
36.218,-23.71
36.234,-32.56
36.250,-41.85
36.265,-50.56
36.281,-57.38
36.296,-60.97
36.312,-60.32
36.328,-55.09
36.343,-45.72
36.359,-33.38
36.375,-19.66
36.390,-6.16
36.406,5.94
36.421,15.98
36.437,23.85
36.453,29.77
36.468,34.11
36.484,37.16
36.500,39.16
36.515,40.26
36.531,40.69
36.546,40.7
36.562,40.55
36.578,40.42
36.593,40.32
36.609,40.16
36.625,39.71
36.640,38.76
36.656,37.24
36.671,35.17
36.687,32.71
36.703,30.04
36.718,27.24
36.734,24.28
36.750,21.0
36.765,17.16
36.781,12.67
36.796,7.57
36.812,2.15
36.828,-3.25
36.843,-8.32
36.859,-13.02
36.875,-17.63
36.890,-22.66
36.906,-28.64
36.921,-35.92
36.937,-44.47
36.953,-53.79
36.968,-62.93
36.984,-70.62
37.000,-75.55
37.015,-76.59
37.031,-73.2
37.046,-65.55
37.062,-54.54
37.078,-41.52
37.093,-27.92
37.109,-14.83
37.125,-2.9
37.140,7.66
37.156,16.83
37.171,24.61
37.187,30.93
37.203,35.68
37.218,38.92
37.234,40.9
37.250,42.08
37.265,42.98
37.281,43.95
37.296,45.1
37.312,46.25
37.328,47.04
37.343,47.15
37.359,46.44
37.375,44.99
37.390,43.05
37.406,40.83
37.421,38.41
37.437,35.6
37.453,32.14
37.468,27.79
37.484,22.49
37.500,16.45
37.515,10.06
37.531,3.74
37.546,-2.21
37.562,-7.79
37.578,-13.22
37.593,-18.94
37.609,-25.39
37.625,-32.9
37.640,-41.54
37.656,-51.08
37.671,-60.88
37.687,-69.97
37.703,-77.15
37.718,-81.19
37.734,-81.12
37.750,-76.54
37.765,-67.73
37.781,-55.7
37.796,-41.9
37.812,-27.82
37.828,-14.6
37.843,-2.81
37.859,7.55
37.875,16.84
37.890,25.41
37.906,33.36
37.921,40.5
37.937,46.43
37.953,50.83
37.968,53.66
37.984,55.14
38.000,55.68
38.015,55.65
38.031,55.17
38.046,54.18
38.062,52.49
38.078,50.08
38.093,47.07
38.109,43.82
38.125,40.67
38.140,37.82
38.156,35.23
38.171,32.58
38.187,29.47
38.203,25.5
38.218,20.46
38.234,14.45
38.250,7.77
38.265,0.86
38.281,-5.91
38.296,-12.41
38.312,-18.76
38.328,-25.3
38.343,-32.4
38.359,-40.29
38.375,-48.95
38.390,-58.09
38.406,-67.21
38.421,-75.6
38.437,-82.39
38.453,-86.63
38.468,-87.47
38.484,-84.37
38.500,-77.35
38.515,-67.06
38.531,-54.56
38.546,-41.08
38.562,-27.65
38.578,-14.82
38.593,-2.76
38.609,8.62
38.625,19.41
38.640,29.48
38.656,38.52
38.671,46.11
38.687,51.93
38.703,55.83
38.718,58.0
38.734,58.79
38.750,58.68
38.765,58.13
38.781,57.45
38.796,56.87
38.812,56.43
38.828,56.14
38.843,55.92
38.859,55.67
38.875,55.19
38.890,54.26
38.906,52.62
38.921,50.05
38.937,46.43
38.953,41.75
38.968,36.17
38.984,29.93
39.000,23.37
39.015,16.8
39.031,10.43
39.046,4.4
39.062,-1.29
39.078,-6.69
39.093,-11.93
39.109,-17.19
39.125,-22.73
39.140,-28.86
39.156,-35.87
39.171,-43.96
39.187,-52.88
39.203,-61.92
39.218,-69.82
39.234,-75.05
39.250,-76.24
39.265,-72.66
39.281,-64.44
39.296,-52.56
39.312,-38.52
39.328,-23.83
39.343,-9.64
39.359,3.45
39.375,15.23
39.390,25.7
39.406,34.78
39.421,42.29
39.437,48.08
39.453,52.12
39.468,54.67
39.484,56.19
39.500,57.2
39.515,58.16
39.531,59.24
39.546,60.36
39.562,61.25
39.578,61.62
39.593,61.2
39.609,59.87
39.625,57.66
39.640,54.63
39.656,50.85
39.671,46.37
39.687,41.26
39.703,35.72
39.718,30.02
39.734,24.45
39.750,19.22
39.765,14.34
39.781,9.61
39.796,4.77
39.812,-0.41
39.828,-5.92
39.843,-11.63
39.859,-17.34
39.875,-22.95
39.890,-28.56
39.906,-34.44
39.921,-40.92
39.937,-48.19
39.953,-56.1
39.968,-64.07
39.984,-71.1
40.000,-76.0
40.015,-77.57
40.031,-75.07
40.046,-68.4
40.062,-58.19
40.078,-45.65
40.093,-32.17
40.109,-18.95
40.125,-6.75
40.140,4.21
40.156,14.06
40.171,22.93
40.187,30.84
40.203,37.56
40.218,42.83
40.234,46.54
40.250,48.84
40.265,50.17
40.281,51.07
40.296,51.94
40.312,52.84
40.328,53.63
40.343,54.1
40.359,54.13
40.375,53.83
40.390,53.42
40.406,53.1
40.421,52.93
40.437,52.76
40.453,52.41
40.468,51.67
40.484,50.48
40.500,48.86
40.515,46.92
40.531,44.79
40.546,42.52
40.562,40.18
40.578,37.73
40.593,35.17
40.609,32.47
40.625,29.65
40.640,26.79
40.656,23.99
40.671,21.44
40.687,19.28
40.703,17.65
40.718,16.5
40.734,15.75
40.750,15.22
40.765,14.71
40.781,14.07
40.796,13.19
40.812,12.0
40.828,10.51
40.843,8.79
40.859,6.97
40.875,5.3
40.890,4.08
40.906,3.56
40.921,3.87
40.937,4.9
40.953,6.36
40.968,7.83
40.984,8.96
41.000,9.57
41.015,9.74
41.031,9.69
41.046,9.65
41.062,9.83
41.078,10.28
41.093,10.92
41.109,11.56
41.125,12.02
41.140,12.27
41.156,12.4
41.171,12.71
41.187,13.53
41.203,15.12
41.218,17.51
41.234,20.39
41.250,23.22
41.265,25.37
41.281,26.43
41.296,26.39
41.312,25.71
41.328,25.14
41.343,25.42
41.359,27.0
41.375,29.88
41.390,33.67
41.406,37.69
41.421,41.33
41.437,44.2
41.453,46.23
41.468,47.68
41.484,49.07
41.500,51.13
41.515,54.69
41.531,60.28
41.546,67.62
41.562,75.32
41.578,81.06
41.593,82.3
41.609,77.44
41.625,66.6
41.640,51.78
41.656,36.19
41.671,23.15
41.687,14.97
41.703,12.51
41.718,15.31
41.734,22.08
41.750,31.18
41.765,40.85
41.781,49.37
41.796,55.1
41.812,56.79
41.828,53.91
41.843,46.79
41.859,36.43
41.875,24.21
41.890,11.42
41.906,-1.01
41.921,-12.64
41.937,-23.49
41.953,-33.91
41.968,-44.32
41.984,-54.92
42.000,-65.59
42.015,-75.89
42.031,-85.25
42.046,-93.3
42.062,-100.06
42.078,-105.98
42.093,-111.7
42.109,-117.63
42.125,-123.7
42.140,-129.3
42.156,-133.54
42.171,-135.66
42.187,-135.33
42.203,-132.94
42.218,-129.45
42.234,-126.13
42.250,-124.16
42.265,-124.26
42.281,-126.35
42.296,-129.55
42.312,-132.31
42.328,-133.0
42.343,-130.37
42.359,-124.13
42.375,-114.93
42.390,-104.11
42.406,-93.14
42.421,-83.07
42.437,-74.25
42.453,-66.43
42.468,-59.18
42.484,-52.29
42.500,-45.92
42.515,-40.45
42.531,-36.21
42.546,-33.14
42.562,-30.83
42.578,-28.73
42.593,-26.44
42.609,-23.98
42.625,-21.69
42.640,-20.12
42.656,-19.82
42.671,-21.27
42.687,-24.83
42.703,-30.65
42.718,-38.45
42.734,-47.38
42.750,-55.88
42.765,-62.1
42.781,-64.54
42.796,-62.77
42.812,-57.83
42.828,-51.92
42.843,-47.64
42.859,-46.96
42.875,-50.59
42.890,-57.92
42.906,-67.43
42.921,-77.33
42.937,-86.05
42.953,-92.5
42.968,-96.03
42.984,-96.53
43.000,-94.4
43.015,-90.62
43.031,-86.61
43.046,-83.76
43.062,-82.9
43.078,-83.83
43.093,-85.27
43.109,-85.21
43.125,-81.6
43.140,-73.06
43.156,-59.26
43.171,-40.91
43.187,-19.48
43.203,3.38
43.218,26.23
43.234,48.11
43.250,68.5
43.265,87.21
43.281,104.16
43.296,119.21
43.312,132.16
43.328,142.72
43.343,150.55
43.359,155.37
43.375,156.93
43.390,155.15
43.406,150.2
43.421,142.55
43.437,132.92
43.453,122.18
43.468,111.09
43.484,100.13
43.500,89.43
43.515,78.86
43.531,68.18
43.546,57.2
43.562,45.88
43.578,34.29
43.593,22.52
43.609,10.63
43.625,-1.38
43.640,-13.52
43.656,-25.68
43.671,-37.65
43.687,-49.07
43.703,-59.59
43.718,-68.96
43.734,-77.17
43.750,-84.49
43.765,-91.43
43.781,-98.48
43.796,-105.83
43.812,-113.16
43.828,-119.55
43.843,-123.78
43.859,-124.73
43.875,-121.78
43.890,-115.04
43.906,-105.27
43.921,-93.57
43.937,-80.96
43.953,-68.16
43.968,-55.54
43.984,-43.29
44.000,-31.62
44.015,-20.88
44.031,-11.49
44.046,-3.84
44.062,1.91
44.078,5.94
44.093,8.72
44.109,10.85
44.125,12.84
44.140,14.93
44.156,17.03
44.171,18.82
44.187,19.99
44.203,20.37
44.218,20.1
44.234,19.49
44.250,18.86
44.265,18.39
44.281,17.96
44.296,17.26
44.312,15.84
44.328,13.38
44.343,9.79
44.359,5.25
44.375,0.19
44.390,-4.96
44.406,-9.87
44.421,-14.57
44.437,-19.39
44.453,-24.86
44.468,-31.48
44.484,-39.53
44.500,-49.02
44.515,-59.65
44.531,-70.85
44.546,-81.71
44.562,-91.05
44.578,-97.48
44.593,-99.71
44.609,-96.87
44.625,-88.87
44.640,-76.49
44.656,-61.22
44.671,-44.79
44.687,-28.65
44.703,-13.66
44.718,-0.02
44.734,12.48
44.750,24.11
44.765,34.9
44.781,44.61
44.796,52.77
44.812,58.99
44.828,63.12
44.843,65.36
44.859,66.11
44.875,65.91
44.890,65.16
44.906,64.13
44.921,62.92
44.937,61.57
44.953,60.09
44.968,58.56
44.984,57.06
45.000,55.62
45.015,54.25
45.031,52.77
45.046,50.91
45.062,48.27
45.078,44.44
45.093,39.15
45.109,32.37
45.125,24.38
45.140,15.73
45.156,7.05
45.171,-1.18
45.187,-8.75
45.203,-15.78
45.218,-22.56
45.234,-29.44
45.250,-36.72
45.265,-44.59
45.281,-53.09
45.296,-61.98
45.312,-70.69
45.328,-78.21
45.343,-83.21
45.359,-84.41
45.375,-80.91
45.390,-72.58
45.406,-60.08
45.421,-44.67
45.437,-27.77
45.453,-10.64
45.468,5.86
45.484,21.3
45.500,35.41
45.515,48.03
45.531,58.89
45.546,67.68
45.562,74.18
45.578,78.38
45.593,80.53
45.609,81.18
45.625,80.99
45.640,80.62
45.656,80.54
45.671,80.93
45.687,81.68
45.703,82.48
45.718,82.93
45.734,82.64
45.750,81.27
45.765,78.62
45.781,74.64
45.796,69.42
45.812,63.26
45.828,56.58
45.843,49.85
45.859,43.47
45.875,37.6
45.890,32.18
45.906,26.94
45.921,21.6
45.937,15.99
45.953,10.08
45.968,3.82
45.984,-2.84
46.000,-10.14
46.015,-18.33
46.031,-27.63
46.046,-38.01
46.062,-49.08
46.078,-60.05
46.093,-69.74
46.109,-76.8
46.125,-79.92
46.140,-78.23
46.156,-71.56
46.171,-60.6
46.187,-46.66
46.203,-31.36
46.218,-16.07
46.234,-1.64
46.250,11.61
46.265,23.74
46.281,34.8
46.296,44.69
46.312,53.15
46.328,59.9
46.343,64.78
46.359,67.86
46.375,69.37
46.390,69.62
46.406,68.94
46.421,67.58
46.437,65.81
46.453,63.89
46.468,62.1
46.484,60.72
46.500,59.85
46.515,59.46
46.531,59.24
46.546,58.76
46.562,57.55
46.578,55.35
46.593,52.1
46.609,47.99
46.625,43.3
46.640,38.2
46.656,32.74
46.671,26.86
46.687,20.51
46.703,13.8
46.718,6.98
46.734,0.4
46.750,-5.66
46.765,-11.08
46.781,-15.95
46.796,-20.53
46.812,-25.19
46.828,-30.4
46.843,-36.61
46.859,-44.17
46.875,-53.09
46.890,-62.76
46.906,-71.95
46.921,-78.96
46.937,-82.08
46.953,-80.14
46.968,-72.86
46.984,-60.98
47.000,-45.96
47.015,-29.55
47.031,-13.29
47.046,1.75
47.062,15.02
47.078,26.37
47.093,35.84
47.109,43.53
47.125,49.52
47.140,53.84
47.156,56.62
47.171,58.11
47.187,58.72
47.203,58.93
47.218,59.18
47.234,59.73
47.250,60.6
47.265,61.6
47.281,62.47
47.296,62.96
47.312,62.88
47.328,62.12
47.343,60.58
47.359,58.2
47.375,54.95
47.390,50.97
47.406,46.61
47.421,42.4
47.437,38.82
47.453,36.14
47.468,34.27
47.484,32.79
47.500,31.14
47.515,28.8
47.531,25.52
47.546,21.3
47.562,16.32
47.578,10.81
47.593,4.89
47.609,-1.42
47.625,-8.17
47.640,-15.45
47.656,-23.34
47.671,-31.82
47.687,-40.68
47.703,-49.31
47.718,-56.74
47.734,-61.73
47.750,-63.09
47.765,-60.16
47.781,-53.01
47.796,-42.55
47.812,-30.23
47.828,-17.5
47.843,-5.47
47.859,5.4
47.875,15.23
47.890,24.38
47.906,33.19
47.921,41.76
47.937,49.91
47.953,57.32
47.968,63.68
47.984,68.83
48.000,72.73
48.015,75.41
48.031,76.81
48.046,76.79
48.062,75.21
48.078,71.98
48.093,67.29
48.109,61.54
48.125,55.24
48.140,48.82
48.156,42.44
48.171,35.98
48.187,29.07
48.203,21.29
48.218,12.4
48.234,2.39
48.250,-8.4
48.265,-19.46
48.281,-30.15
48.296,-39.96
48.312,-48.57
48.328,-55.88
48.343,-62.03
48.359,-67.16
48.375,-71.38
48.390,-74.66
48.406,-76.95
48.421,-78.32
48.437,-79.07
48.453,-79.76
48.468,-81.03
48.484,-83.46
48.500,-87.35
48.515,-92.63
48.531,-98.79
48.546,-104.92
48.562,-109.87
48.578,-112.37
48.593,-111.27
48.609,-105.85
48.625,-96.08
48.640,-82.69
48.656,-67.03
48.671,-50.73
48.687,-35.27
48.703,-21.57
48.718,-9.9
48.750,8.67
48.765,16.54
48.781,23.82
48.796,30.37
48.812,35.9
48.828,40.1
48.843,42.85
48.859,44.19
48.875,44.33
48.890,43.58
48.906,42.26
48.921,40.66
48.937,39.05
48.953,37.7
48.968,36.83
48.984,36.54
49.000,36.76
49.015,37.25
49.031,37.61
49.046,37.44
49.062,36.39
49.078,34.3
49.093,31.17
49.109,27.14
49.125,22.4
49.140,17.13
49.156,11.47
49.171,5.53
49.187,-0.58
49.203,-6.72
49.218,-12.61
49.234,-18.01
49.250,-22.72
49.265,-26.75
49.281,-30.38
49.296,-34.1
49.312,-38.48
49.328,-43.94
49.343,-50.53
49.359,-57.69
49.375,-64.43
49.390,-69.35
49.406,-71.15
49.421,-68.96
49.437,-62.56
49.453,-52.5
49.468,-39.9
49.484,-26.13
49.500,-12.5
49.515,0.02
49.531,10.88
49.546,19.91
49.562,27.22
49.578,32.98
49.593,37.4
49.609,40.57
49.625,42.62
49.640,43.66
49.656,43.97
49.671,43.96
49.687,44.08
49.703,44.77
49.718,46.21
49.734,48.32
49.750,50.76
49.765,53.04
49.781,54.71
49.796,55.44
49.812,55.12
49.828,53.78
49.843,51.54
49.859,48.52
49.875,44.87
49.890,40.82
49.906,36.67
49.921,32.81
49.937,29.57
49.953,27.12
49.968,25.41
49.984,24.14
50.000,22.85
50.015,21.15
50.031,18.76
50.046,15.56
50.062,11.49
50.078,6.49
50.093,0.56
50.109,-6.11
50.125,-12.96
50.140,-19.02
50.156,-23.13
50.171,-24.42
50.187,-22.68
50.203,-18.54
50.218,-13.21
50.234,-8.0
50.250,-3.79
50.265,-0.79
50.281,1.41
50.296,3.47
50.312,5.87
50.328,8.71
50.343,11.72
50.359,14.5
50.375,16.78
50.390,18.56
50.406,20.0
50.421,21.32
50.437,22.56
50.453,23.63
50.468,24.29
50.484,24.36
50.500,23.76
50.515,22.53
50.531,20.75
50.546,18.43
50.562,15.48
50.578,11.79
50.593,7.32
50.609,2.21
50.625,-3.29
50.640,-8.94
50.656,-14.59
50.671,-20.19
50.687,-25.84
50.703,-31.6
50.718,-37.55
50.734,-43.7
50.750,-49.97
50.765,-56.21
50.781,-62.14
50.796,-67.42
50.812,-71.74
50.828,-75.01
50.843,-77.43
50.859,-79.53
50.875,-81.95
50.890,-85.05
50.906,-88.66
50.921,-92.03
50.937,-93.99
50.953,-93.39
50.968,-89.51
50.984,-82.28
51.000,-72.2
51.015,-60.13
51.031,-46.94
51.046,-33.41
51.062,-20.11
51.078,-7.5
51.093,4.07
51.109,14.33
51.125,23.15
51.140,30.56
51.156,36.67
51.171,41.64
51.187,45.55
51.203,48.43
51.218,50.31
51.234,51.3
51.250,51.57
51.265,51.39
51.281,51.03
51.296,50.74
51.312,50.64
51.328,50.77
51.343,51.05
51.359,51.3
51.375,51.21
51.390,50.48
51.406,48.8
51.421,46.03
51.437,42.2
51.453,37.52
51.468,32.32
51.484,26.96
51.500,21.78
51.515,16.99
51.531,12.69
51.546,8.83
51.562,5.29
51.578,1.94
51.593,-1.36
51.609,-4.7
51.625,-8.14
51.640,-11.81
51.656,-15.87
51.671,-20.61
51.687,-26.23
51.703,-32.65
51.718,-39.31
51.734,-45.15
51.750,-48.73
51.765,-48.66
51.781,-44.04
51.796,-34.76
51.812,-21.58
51.828,-6.0
51.843,10.2
51.859,25.37
51.875,38.23
51.890,48.09
51.906,54.67
51.921,58.05
51.937,58.43
51.953,56.17
51.968,51.76
51.984,45.8
52.000,39.04
52.015,32.27
52.031,26.1
52.046,20.85
52.062,16.47
52.078,12.62
52.093,8.84
52.109,4.78
52.125,0.33
52.140,-4.36
52.156,-9.03
52.171,-13.42
52.187,-17.43
52.203,-21.06
52.218,-24.43
52.234,-27.53
52.250,-30.22
52.265,-32.25
52.281,-33.32
52.296,-33.27
52.312,-32.21
52.328,-30.5
52.343,-28.64
52.359,-27.09
52.375,-26.1
52.390,-25.66
52.406,-25.54
52.421,-25.46
52.437,-25.24
52.453,-24.91
52.468,-24.73
52.484,-25.01
52.500,-26.0
52.515,-27.79
52.531,-30.28
52.546,-33.32
52.562,-36.66
52.578,-39.95
52.593,-42.61
52.609,-43.71
52.625,-41.99
52.640,-36.24
52.656,-25.78
52.671,-10.85
52.687,7.2
52.703,26.26
52.718,44.11
52.734,59.1
52.750,70.6
52.765,78.93
52.781,85.07
52.796,90.22
52.812,95.61
52.828,102.37
52.843,111.41
52.859,122.93
52.875,135.84
52.890,147.43
52.906,153.85
52.921,151.21
52.937,137.1
52.953,111.75
52.968,78.02
52.984,40.45
53.000,3.6
53.015,-29.27
53.031,-56.75
53.046,-78.84
53.062,-96.18
53.078,-109.21
53.093,-118.07
53.109,-122.75
53.125,-123.61
53.140,-121.46
53.156,-117.47
53.171,-112.79
53.187,-108.19
53.203,-103.95
53.218,-99.94
53.234,-95.92
53.250,-91.79
53.265,-87.77
53.281,-84.28
53.296,-81.7
53.312,-80.26
53.328,-79.89
53.343,-80.38
53.359,-81.49
53.375,-83.11
53.390,-85.28
53.406,-88.02
53.421,-91.03
53.437,-93.5
53.453,-94.1
53.468,-91.3
53.484,-83.99
53.500,-72.16
53.515,-57.33
53.531,-42.38
53.546,-30.73
53.562,-25.28
53.578,-27.43
53.593,-36.92
53.609,-52.02
53.625,-70.32
53.640,-89.31
53.656,-106.8
53.671,-120.76
53.687,-129.23
53.703,-130.37
53.718,-122.85
53.734,-106.43
53.750,-82.23
53.765,-52.67
53.781,-21.02
53.796,9.37
53.812,35.78
53.828,56.37
53.843,70.25
53.859,77.26
53.875,77.62
53.890,71.83
53.906,60.76
53.921,45.74
53.937,28.75
53.953,12.21
53.968,-1.37
53.984,-10.07
54.000,-12.81
54.015,-9.55
54.031,-0.99
54.046,11.76
54.062,27.58
54.078,45.43
54.093,64.34
54.109,83.17
54.125,100.68
54.140,115.56
54.156,126.72
54.171,133.55
54.187,136.13
54.203,135.23
54.218,132.26
54.234,129.0
54.250,127.26
54.265,128.6
54.281,133.9
54.296,143.07
54.312,154.91
54.328,167.27
54.343,177.38
54.359,182.43
54.375,180.09
54.390,169.02
54.406,149.27
54.421,122.47
54.437,91.78
54.453,61.35
54.468,35.52
54.484,17.6
54.500,8.96
54.515,8.61
54.531,13.68
54.546,20.57
54.562,26.1
54.578,28.43
54.593,27.1
54.609,22.42
54.625,14.77
54.640,4.09
54.656,-9.93
54.671,-27.39
54.687,-47.67
54.703,-69.28
54.718,-90.24
54.734,-108.66
54.750,-123.19
54.765,-133.29
54.781,-139.08
54.796,-141.13
54.812,-140.18
54.828,-136.95
54.843,-132.12
54.859,-126.47
54.875,-120.99
54.890,-116.89
54.906,-115.47
54.921,-117.77
54.937,-124.12
54.953,-133.79
54.968,-144.98
54.984,-155.16
55.000,-161.66
55.015,-162.43
55.031,-156.53
55.046,-144.26
55.062,-126.98
55.078,-106.65
55.093,-85.32
55.109,-64.77
55.125,-46.08
55.140,-29.6
55.156,-14.95
55.171,-1.45
55.187,11.45
55.203,23.77
55.218,34.96
55.234,44.05
55.250,50.23
55.265,53.19
55.281,53.39
55.296,51.85
55.312,49.8
55.328,48.24
55.343,47.85
55.359,48.89
55.375,51.43
55.390,55.43
55.406,60.7
55.421,66.82
55.437,72.98
55.453,78.15
55.468,81.31
55.484,81.88
55.500,79.86
55.515,75.86
55.531,70.86
55.546,65.75
55.562,61.19
55.578,57.26
55.593,53.69
55.609,49.94
55.625,45.51
55.640,40.13
55.656,33.91
55.671,27.26
55.687,20.83
55.703,15.32
55.718,11.24
55.734,8.9
55.750,8.21
55.765,8.85
55.781,10.3
55.796,12.05
55.812,13.68
55.828,14.98
55.843,15.96
55.859,16.82
55.875,17.88
55.890,19.38
55.906,21.35
55.921,23.55
55.937,25.53
55.953,26.83
55.968,27.17
55.984,26.57
56.000,25.27
56.015,23.6
56.031,21.73
56.046,19.6
56.062,17.03
56.078,13.85
56.093,10.08
56.109,5.99
56.125,1.93
56.140,-1.79
56.156,-5.08
56.171,-8.11
56.187,-11.18
56.203,-14.68
56.218,-18.91
56.234,-24.01
56.250,-29.89
56.265,-36.31
56.281,-42.9
56.296,-49.31
56.312,-55.32
56.328,-60.97
56.343,-66.56
56.359,-72.65
56.375,-79.84
56.390,-88.53
56.406,-98.56
56.421,-108.98
56.437,-118.0
56.453,-123.34
56.468,-122.91
56.484,-115.57
56.500,-101.56
56.515,-82.51
56.531,-60.99
56.546,-39.56
56.562,-20.09
56.578,-3.39
56.593,10.6
56.609,22.29
56.625,32.07
56.640,40.0
56.656,46.01
56.671,50.1
56.687,52.46
56.703,53.52
56.718,53.72
56.734,53.54
56.750,53.43
56.765,53.92
56.781,55.48
56.796,58.46
56.812,62.75
56.828,67.62
56.843,71.96
56.859,74.56
56.875,74.5
56.890,71.46
56.906,65.61
56.921,57.42
56.937,47.48
56.953,36.52
56.968,25.39
56.984,15.1
57.000,6.6
57.015,0.43
57.031,-3.55
57.046,-6.23
57.062,-9.0
57.078,-13.22
57.093,-19.79
57.109,-28.72
57.125,-39.05
57.140,-49.1
57.156,-56.91
57.171,-60.77
57.187,-59.81
57.203,-54.21
57.218,-45.13
57.234,-34.3
57.250,-23.47
57.265,-13.94
57.281,-6.47
57.296,-1.24
57.312,1.81
57.328,2.89
57.343,2.17
57.359,-0.12
57.375,-3.77
57.390,-8.49
57.406,-13.9
57.421,-19.57
57.437,-24.96
57.453,-29.4
57.468,-32.2
57.484,-32.86
57.500,-31.21
57.515,-27.52
57.531,-22.42
57.546,-16.66
57.562,-10.96
57.578,-5.76
57.593,-1.33
57.609,2.14
57.625,4.5
57.640,5.54
57.656,5.18
57.671,3.51
57.687,0.91
57.703,-2.18
57.718,-5.47
57.734,-9.04
57.750,-13.29
57.765,-18.66
57.781,-25.15
57.796,-31.99
57.812,-37.68
57.828,-40.41
57.843,-38.71
57.859,-32.05
57.875,-21.06
57.890,-7.18
57.906,7.85
57.921,22.61
57.937,36.34
57.953,48.97
57.968,60.76
57.984,72.01
58.000,82.77
58.015,92.76
58.031,101.48
58.046,108.39
58.062,113.11
58.078,115.51
58.093,115.83
58.109,114.63
58.125,112.66
58.140,110.62
58.156,109.02
58.171,107.9
58.187,106.82
58.203,104.9
58.218,101.01
58.234,93.95
58.250,82.77
58.265,66.88
58.281,46.35
58.296,22.0
58.312,-4.54
58.328,-31.04
58.343,-55.09
58.359,-74.75
58.375,-89.11
58.390,-98.6
58.406,-104.75
58.421,-109.51
58.437,-114.39
58.453,-119.78
58.468,-124.75
58.484,-127.43
58.500,-125.81
58.515,-118.53
58.531,-105.42
58.546,-87.45
58.562,-66.34
58.578,-43.96
58.593,-21.83
58.609,-0.93
58.625,18.26
58.640,35.49
58.656,50.5
58.671,62.93
58.687,72.42
58.703,78.71
58.718,81.95
58.734,82.65
58.750,81.57
58.765,79.41
58.781,76.59
58.796,73.21
58.812,69.19
58.828,64.6
58.843,59.74
58.859,55.04
58.875,50.75
58.890,46.61
58.906,41.89
58.921,35.71
58.937,27.58
58.953,17.77
58.968,7.31
58.984,-2.58
59.000,-11.07
59.015,-18.03
59.031,-23.97
59.046,-29.6
59.062,-35.39
59.078,-41.42
59.093,-47.54
59.109,-53.75
59.125,-60.27
59.140,-67.46
59.156,-75.27
59.171,-82.99
59.187,-89.2
59.203,-92.14
59.218,-90.46
59.234,-83.72
59.250,-72.56
59.265,-58.4
59.281,-42.88
59.296,-27.28
59.312,-12.28
59.328,2.04
59.343,15.83
59.359,29.12
59.375,41.56
59.390,52.5
59.406,61.15
59.421,66.96
59.437,69.86
59.453,70.28
59.468,69.05
59.484,67.09
59.500,65.13
59.515,63.47
59.531,62.12
59.546,60.85
59.562,59.53
59.578,58.09
59.593,56.58
59.609,55.06
59.625,53.45
59.640,51.61
59.656,49.35
59.671,46.57
59.687,43.28
59.703,39.6
59.718,35.64
59.734,31.4
59.750,26.86
59.765,22.04
59.781,17.11
59.796,12.5
59.812,8.81
59.828,6.58
59.843,6.12
59.859,7.35
59.875,9.74
59.890,12.5
59.906,14.77
59.921,15.99
59.937,16.15
59.953,15.88
59.968,16.22
59.984,18.18
