timestamp,value
00.000,1.05
00.015,2.5
00.031,4.38
00.046,7.96
00.062,13.96
00.078,22.21
00.093,31.57
00.109,40.47
00.125,47.54
00.140,52.17
00.156,54.56
00.171,55.54
00.187,56.07
00.203,56.77
00.218,57.75
00.234,58.59
00.250,58.64
00.265,57.24
00.281,54.08
00.296,49.25
00.312,43.25
00.328,36.76
00.343,30.39
00.359,24.44
00.375,18.84
00.390,13.19
00.406,6.94
00.421,-0.34
00.437,-8.93
00.453,-18.77
00.468,-29.54
00.484,-40.6
00.500,-50.99
00.515,-59.45
00.531,-64.65
00.546,-65.45
00.562,-61.29
00.578,-52.48
00.593,-40.22
00.609,-26.24
00.625,-12.39
00.640,0.01
00.656,10.34
00.671,18.66
00.687,25.35
00.703,30.78
00.718,34.92
00.734,37.47
00.750,38.08
00.765,36.69
00.781,33.69
00.796,29.85
00.812,26.05
00.828,22.9
00.843,20.59
00.859,18.94
00.875,17.68
00.890,16.67
00.906,16.04
00.921,16.12
00.937,17.13
00.953,19.0
00.968,21.3
00.984,23.36
01.000,24.53
01.015,24.41
01.031,22.92
01.046,20.24
01.062,16.67
01.078,12.54
01.093,8.06
01.109,3.36
01.125,-1.5
01.140,-6.49
01.156,-11.66
01.171,-17.06
01.187,-22.83
01.203,-29.08
01.218,-35.85
01.234,-43.05
01.250,-50.33
01.265,-57.11
01.281,-62.65
01.296,-66.28
01.312,-67.63
01.328,-66.85
01.343,-64.62
01.359,-62.03
01.375,-60.19
01.390,-59.92
01.406,-61.48
01.421,-64.61
01.437,-68.72
01.453,-73.18
01.468,-77.58
01.484,-81.73
01.500,-85.59
01.515,-89.02
01.531,-91.66
01.546,-92.89
01.562,-92.05
01.578,-88.73
01.593,-83.08
01.609,-75.79
01.625,-67.91
01.640,-60.47
01.656,-54.13
01.671,-49.04
01.687,-44.92
01.703,-41.36
01.718,-38.09
01.734,-35.05
01.750,-32.36
01.765,-30.1
01.781,-28.2
01.796,-26.46
01.812,-24.69
01.828,-22.84
01.843,-21.06
01.859,-19.61
01.875,-18.74
01.890,-18.5
01.906,-18.78
01.921,-19.35
01.937,-20.11
01.953,-21.2
01.968,-23.01
01.984,-25.88
02.000,-29.82
02.015,-34.17
02.031,-37.55
02.046,-38.2
02.062,-34.43
02.078,-25.23
02.093,-10.63
02.109,8.24
02.125,29.46
02.140,50.89
02.156,70.7
02.171,87.79
02.187,101.82
02.203,113.04
02.218,121.84
02.234,128.59
02.250,133.31
02.265,135.99
02.281,136.69
02.296,135.79
02.312,134.05
02.328,132.28
02.343,131.16
02.359,130.91
02.375,131.28
02.390,131.76
02.406,131.71
02.421,130.69
02.437,128.51
02.453,125.24
02.468,121.03
02.484,116.07
02.500,110.39
02.515,103.9
02.531,96.47
02.546,87.99
02.562,78.59
02.578,68.62
02.593,58.64
02.609,49.17
02.625,40.53
02.640,32.62
02.656,25.12
02.671,17.49
02.687,9.27
02.703,0.24
02.718,-9.59
02.734,-19.83
02.750,-29.76
02.765,-38.26
02.781,-43.95
02.796,-45.42
02.812,-41.66
02.828,-32.46
02.843,-18.52
02.859,-1.44
02.875,16.77
02.890,34.23
02.906,49.64
02.921,62.47
02.937,72.8
02.953,81.04
02.968,87.48
02.984,92.27
03.000,95.32
03.015,96.6
03.031,96.22
03.046,94.65
03.062,92.47
03.078,90.22
03.093,88.18
03.109,86.29
03.125,84.32
03.140,82.01
03.156,79.26
03.171,76.09
03.187,72.61
03.203,68.81
03.218,64.55
03.234,59.65
03.250,53.96
03.265,47.46
03.281,40.31
03.296,32.71
03.312,24.89
03.328,16.99
03.343,9.11
03.359,1.37
03.375,-6.08
03.390,-13.11
03.406,-19.63
03.421,-25.69
03.437,-31.49
03.453,-37.31
03.468,-43.46
03.484,-50.26
03.500,-57.85
03.515,-66.07
03.531,-74.33
03.546,-81.5
03.562,-86.11
03.578,-86.65
03.593,-82.08
03.609,-72.19
03.625,-57.76
03.640,-40.4
03.656,-21.96
03.671,-4.08
03.687,12.17
03.703,26.34
03.718,38.36
03.734,48.29
03.750,56.14
03.765,61.84
03.781,65.44
03.796,67.16
03.812,67.37
03.828,66.51
03.843,64.97
03.859,62.96
03.875,60.63
03.890,58.16
03.906,55.73
03.921,53.52
03.937,51.59
03.953,49.82
03.968,47.9
03.984,45.52
04.000,42.45
04.015,38.61
04.031,34.12
04.046,29.15
04.062,23.91
04.078,18.52
04.093,13.07
04.109,7.57
04.125,2.03
04.140,-3.57
04.156,-9.28
04.171,-15.05
04.187,-20.83
04.203,-26.55
04.218,-32.15
04.234,-37.69
04.250,-43.32
04.265,-49.31
04.281,-55.92
04.296,-63.32
04.312,-71.31
04.328,-79.27
04.343,-86.09
04.359,-90.32
04.375,-90.57
04.390,-85.86
04.406,-76.09
04.421,-62.08
04.437,-45.41
04.453,-27.95
04.468,-11.38
04.484,3.18
04.500,15.32
04.515,25.04
04.531,32.55
04.546,38.03
04.562,41.6
04.578,43.41
04.593,43.76
04.609,43.12
04.625,42.03
04.640,40.98
04.656,40.12
04.671,39.45
04.687,38.72
04.703,37.73
04.718,36.41
04.734,34.87
04.750,33.29
04.765,31.74
04.781,30.13
04.796,28.12
04.812,25.41
04.828,21.81
04.843,17.36
04.859,12.35
04.875,7.09
04.890,1.88
04.906,-3.21
04.921,-8.21
04.937,-13.25
04.953,-18.37
04.968,-23.51
04.984,-28.56
05.000,-33.35
05.015,-37.92
05.031,-42.38
05.046,-47.04
05.062,-52.26
05.078,-58.21
05.093,-64.75
05.109,-71.17
05.125,-76.31
05.140,-78.7
05.156,-77.08
05.171,-70.73
05.187,-59.86
05.203,-45.51
05.218,-29.29
05.234,-12.92
05.250,2.28
05.265,15.49
05.281,26.47
05.296,35.29
05.312,42.07
05.328,46.92
05.343,49.87
05.359,51.06
05.375,50.81
05.390,49.65
05.406,48.14
05.421,46.72
05.437,45.53
05.453,44.51
05.468,43.43
05.484,42.12
05.500,40.6
05.515,38.95
05.531,37.27
05.546,35.5
05.562,33.41
05.578,30.75
05.593,27.35
05.609,23.28
05.625,18.75
05.640,14.06
05.656,9.35
05.671,4.56
05.687,-0.48
05.703,-6.01
05.718,-12.05
05.734,-18.48
05.750,-24.95
05.765,-31.09
05.781,-36.63
05.796,-41.53
05.812,-45.98
05.828,-50.28
05.843,-54.87
05.859,-60.0
05.875,-65.74
05.890,-71.76
05.906,-77.31
05.921,-81.28
05.937,-82.46
05.953,-79.88
05.968,-73.07
05.984,-62.33
06.000,-48.53
06.015,-33.02
06.031,-17.23
06.046,-2.41
06.062,10.59
06.078,21.35
06.093,29.85
06.109,36.32
06.125,41.07
06.140,44.39
06.156,46.45
06.171,47.33
06.187,47.16
06.203,46.15
06.218,44.62
06.234,42.93
06.250,41.3
06.265,39.8
06.281,38.41
06.296,37.06
06.312,35.72
06.328,34.38
06.343,32.94
06.359,31.22
06.375,28.99
06.390,26.03
06.406,22.28
06.421,17.89
06.437,13.23
06.453,8.62
06.468,4.19
06.484,-0.14
06.500,-4.65
06.515,-9.6
06.531,-15.01
06.546,-20.69
06.562,-26.27
06.578,-31.37
06.593,-35.85
06.609,-39.82
06.625,-43.66
06.640,-47.8
06.656,-52.65
06.671,-58.34
06.687,-64.62
06.703,-70.78
06.718,-75.7
06.734,-78.12
06.750,-76.98
06.765,-71.75
06.781,-62.64
06.796,-50.54
06.812,-36.75
06.828,-22.59
06.843,-9.15
06.859,2.83
06.875,12.98
06.890,21.14
06.906,27.38
06.921,31.84
06.937,34.77
06.953,36.49
06.968,37.27
06.984,37.36
07.000,36.93
07.015,36.13
07.031,35.05
07.046,33.81
07.062,32.47
07.078,31.08
07.093,29.68
07.109,28.3
07.125,26.99
07.140,25.69
07.156,24.29
07.171,22.58
07.187,20.34
07.203,17.48
07.218,14.06
07.234,10.31
07.250,6.48
07.265,2.75
07.281,-0.9
07.296,-4.58
07.312,-8.5
07.328,-12.76
07.343,-17.33
07.359,-22.07
07.375,-26.72
07.390,-31.07
07.406,-34.99
07.421,-38.54
07.437,-41.89
07.453,-45.39
07.468,-49.39
07.484,-54.04
07.500,-59.02
07.515,-63.48
07.531,-66.12
07.546,-65.59
07.562,-60.95
07.578,-51.98
07.593,-39.32
07.609,-24.32
07.625,-8.57
07.640,6.47
07.656,19.83
07.671,31.09
07.687,40.32
07.703,47.82
07.718,53.96
07.734,59.01
07.750,63.11
07.765,66.37
07.781,68.92
07.796,70.96
07.812,72.86
07.828,75.04
07.843,77.92
07.859,81.77
07.875,86.65
07.890,92.31
07.906,98.29
07.921,104.0
07.937,108.92
07.953,112.84
07.968,115.86
07.984,118.41
08.000,121.06
08.015,124.25
08.031,128.1
08.046,132.31
08.062,136.18
08.078,138.87
08.093,139.52
08.109,137.5
08.125,132.54
08.140,124.76
08.156,114.71
08.171,103.22
08.187,91.08
08.203,78.5
08.218,64.9
08.234,48.78
08.250,28.26
08.265,2.01
08.281,-29.87
08.296,-65.41
08.312,-101.2
08.328,-133.37
08.343,-158.99
08.359,-176.91
08.375,-187.92
08.390,-194.04
08.406,-197.56
08.421,-200.21
08.437,-202.84
08.453,-205.55
08.468,-208.1
08.484,-210.22
08.500,-211.67
08.515,-212.14
08.531,-211.15
08.546,-208.07
08.562,-202.34
08.578,-193.72
08.593,-182.48
08.609,-169.41
08.625,-155.56
08.640,-141.98
08.656,-129.45
08.671,-118.27
08.687,-108.34
08.703,-99.28
08.718,-90.68
08.734,-82.34
08.750,-74.3
08.765,-66.82
08.781,-60.23
08.796,-54.76
08.812,-50.48
08.828,-47.2
08.843,-44.61
08.859,-42.34
08.875,-40.18
08.890,-38.03
08.906,-36.01
08.921,-34.26
08.937,-32.97
08.953,-32.33
08.968,-32.51
08.984,-33.64
09.000,-35.85
09.015,-39.1
09.031,-43.08
09.046,-47.07
09.062,-49.93
09.078,-50.34
09.093,-47.1
09.109,-39.56
09.125,-27.82
09.140,-12.77
09.156,4.16
09.171,21.41
09.187,37.66
09.203,52.09
09.218,64.37
09.234,74.52
09.250,82.71
09.265,89.03
09.281,93.62
09.296,96.57
09.312,98.14
09.328,98.68
09.343,98.59
09.359,98.26
09.375,97.95
09.390,97.8
09.406,97.77
09.421,97.77
09.437,97.64
09.453,97.29
09.468,96.64
09.484,95.66
09.500,94.32
09.515,92.59
09.531,90.39
09.546,87.61
09.562,84.19
09.578,80.13
09.593,75.68
09.609,71.18
09.625,66.99
09.640,63.36
09.656,60.29
09.671,57.53
09.687,54.75
09.703,51.69
09.718,48.29
09.734,44.73
09.750,41.32
09.765,38.27
09.781,35.69
09.796,33.46
09.812,31.41
09.828,29.38
09.843,27.3
09.859,25.17
09.875,23.06
09.890,21.01
09.906,19.09
09.921,17.46
09.937,16.24
09.953,15.48
09.968,15.1
09.984,14.83
10.000,14.32
10.015,13.27
10.031,11.56
10.046,9.25
10.062,6.59
10.078,3.77
10.093,0.97
10.109,-1.72
10.125,-4.23
10.140,-6.54
10.156,-8.69
10.171,-10.8
10.187,-13.06
10.203,-15.63
10.218,-18.53
10.234,-21.61
10.250,-24.64
10.265,-27.42
10.281,-29.98
10.296,-32.51
10.312,-35.31
10.328,-38.63
10.343,-42.55
10.359,-46.97
10.375,-51.68
10.390,-56.41
10.406,-60.95
10.421,-65.19
10.437,-69.13
10.453,-72.9
10.468,-76.77
10.484,-81.12
10.500,-86.24
10.515,-92.16
10.531,-98.28
10.546,-103.46
10.562,-106.06
10.578,-104.49
10.593,-97.62
10.609,-85.36
10.625,-68.69
10.640,-49.46
10.656,-29.89
10.671,-11.96
10.687,3.03
10.703,14.5
10.718,22.53
10.734,27.53
10.750,30.0
10.765,30.54
10.781,29.77
10.796,28.37
10.812,27.01
10.828,26.2
10.843,26.19
10.859,26.9
10.875,27.97
10.890,28.98
10.906,29.62
10.921,29.84
10.937,29.74
10.953,29.53
10.968,29.27
10.984,28.82
11.000,27.83
11.015,25.88
11.031,22.75
11.046,18.53
11.062,13.62
11.078,8.48
11.093,3.55
11.109,-1.0
11.125,-5.29
11.140,-9.57
11.156,-14.18
11.171,-19.36
11.187,-25.25
11.203,-31.84
11.218,-38.82
11.234,-45.52
11.250,-50.83
11.265,-53.46
11.281,-52.26
11.296,-46.59
11.312,-36.67
11.328,-23.56
11.343,-8.85
11.359,5.86
11.375,19.26
11.390,30.61
11.406,39.59
11.421,46.17
11.437,50.4
11.453,52.41
11.468,52.46
11.484,50.99
11.500,48.62
11.515,46.0
11.531,43.61
11.546,41.69
11.562,40.16
11.578,38.79
11.593,37.36
11.609,35.76
11.625,34.03
11.640,32.24
11.656,30.35
11.671,28.14
11.687,25.27
11.703,21.4
11.718,16.42
11.734,10.47
11.750,3.93
11.765,-2.74
11.781,-9.18
11.796,-15.18
11.812,-20.76
11.828,-26.09
11.843,-31.5
11.859,-37.31
11.875,-43.79
11.890,-50.94
11.906,-58.22
11.921,-64.59
11.937,-68.65
11.953,-69.03
11.968,-64.85
11.984,-56.04
12.000,-43.35
12.015,-28.23
12.031,-12.38
12.046,2.67
12.062,15.83
12.078,26.55
12.093,34.81
12.109,40.88
12.125,45.14
12.140,47.95
12.156,49.52
12.171,50.0
12.187,49.6
12.203,48.6
12.218,47.3
12.234,45.92
12.250,44.47
12.265,42.87
12.281,40.95
12.296,38.66
12.312,36.13
12.328,33.54
12.343,30.95
12.359,28.27
12.375,25.24
12.390,21.55
12.406,17.06
12.421,11.86
12.437,6.25
12.453,0.57
12.468,-4.9
12.484,-10.11
12.500,-15.14
12.515,-20.24
12.531,-25.67
12.546,-31.68
12.562,-38.42
12.578,-45.9
12.593,-53.75
12.609,-61.21
12.625,-67.15
12.640,-70.22
12.656,-69.33
12.671,-63.94
12.687,-54.31
12.703,-41.41
12.718,-26.62
12.734,-11.34
12.750,3.37
12.765,16.82
12.781,28.63
12.796,38.55
12.812,46.28
12.828,51.59
12.843,54.37
12.859,54.8
12.875,53.38
12.890,50.88
12.906,48.12
12.921,45.7
12.937,43.94
12.953,42.67
12.968,41.53
12.984,40.03
13.000,37.92
13.015,35.18
13.031,32.06
13.046,28.88
13.062,25.83
13.078,22.93
13.093,19.9
13.109,16.42
13.125,12.23
13.140,7.3
13.156,1.79
13.171,-3.98
13.187,-9.78
13.203,-15.38
13.218,-20.73
13.234,-25.86
13.250,-30.91
13.265,-36.05
13.281,-41.49
13.296,-47.47
13.312,-54.04
13.328,-60.94
13.343,-67.44
13.359,-72.35
13.375,-74.28
13.390,-72.1
13.406,-65.34
13.421,-54.38
13.437,-40.43
13.453,-25.05
13.468,-9.76
13.484,4.37
13.500,16.79
13.515,27.33
13.531,35.99
13.546,42.68
13.562,47.27
13.578,49.75
13.593,50.34
13.609,49.51
13.625,47.86
13.640,45.97
13.656,44.18
13.671,42.6
13.687,41.15
13.703,39.67
13.718,38.04
13.734,36.26
13.750,34.3
13.765,32.2
13.781,29.99
13.796,27.67
13.812,25.24
13.828,22.62
13.843,19.68
13.859,16.21
13.875,12.1
13.890,7.31
13.906,1.99
13.921,-3.59
13.937,-9.09
13.953,-14.24
13.968,-18.91
13.984,-23.17
14.000,-27.29
14.015,-31.6
14.031,-36.32
14.046,-41.45
14.062,-46.74
14.078,-51.61
14.093,-55.35
14.109,-57.13
14.125,-56.16
14.140,-51.88
14.156,-44.18
14.171,-33.46
14.187,-20.58
14.203,-6.79
14.218,6.68
14.234,18.89
14.250,29.29
14.265,37.77
14.281,44.42
14.296,49.33
14.312,52.59
14.328,54.21
14.343,54.35
14.359,53.33
14.375,51.64
14.390,49.8
14.406,48.18
14.421,46.89
14.437,45.84
14.453,44.79
14.468,43.48
14.484,41.75
14.500,39.57
14.515,37.01
14.531,34.16
14.546,31.1
14.562,27.81
14.578,24.25
14.593,20.36
14.609,16.12
14.625,11.53
14.640,6.63
14.656,1.42
14.671,-4.07
14.687,-9.73
14.703,-15.4
14.718,-20.87
14.734,-25.98
14.750,-30.64
14.765,-34.96
14.781,-39.13
14.796,-43.41
14.812,-48.02
14.828,-53.07
14.843,-58.46
14.859,-63.83
14.875,-68.51
14.890,-71.53
14.906,-71.8
14.921,-68.45
14.937,-61.16
14.953,-50.34
14.968,-37.08
14.984,-22.76
15.000,-8.68
15.015,4.34
15.031,15.92
15.046,26.04
15.062,34.75
15.078,41.99
15.093,47.55
15.109,51.3
15.125,53.31
15.140,53.93
15.156,53.67
15.171,53.0
15.187,52.16
15.203,51.17
15.218,49.89
15.234,48.17
15.250,46.04
15.265,43.64
15.281,41.14
15.296,38.66
15.312,36.16
15.328,33.39
15.343,30.13
15.359,26.25
15.375,21.8
15.390,17.02
15.406,12.19
15.421,7.49
15.437,2.95
15.453,-1.56
15.468,-6.22
15.484,-11.12
15.500,-16.25
15.515,-21.4
15.531,-26.36
15.546,-30.95
15.562,-35.14
15.578,-39.04
15.593,-42.83
15.609,-46.79
15.625,-51.15
15.640,-56.06
15.656,-61.46
15.671,-66.94
15.687,-71.73
15.703,-74.87
15.718,-75.37
15.734,-72.53
15.750,-66.16
15.765,-56.61
15.781,-44.7
15.796,-31.48
15.812,-18.01
15.828,-5.18
15.843,6.36
15.859,16.32
15.875,24.61
15.890,31.31
15.906,36.52
15.921,40.31
15.937,42.72
15.953,43.85
15.968,43.86
15.984,43.05
16.000,41.76
16.015,40.3
16.031,38.84
16.046,37.42
16.062,36.0
16.078,34.48
16.093,32.84
16.109,31.1
16.125,29.26
16.140,27.26
16.156,24.98
16.171,22.28
16.187,19.04
16.203,15.32
16.218,11.28
16.234,7.18
16.250,3.29
16.265,-0.26
16.281,-3.55
16.296,-6.82
16.312,-10.35
16.328,-14.3
16.343,-18.56
16.359,-22.91
16.375,-27.1
16.390,-31.0
16.406,-34.68
16.421,-38.41
16.437,-42.47
16.453,-47.09
16.468,-52.29
16.484,-57.76
16.500,-62.91
16.515,-66.9
16.531,-68.76
16.546,-67.67
16.562,-63.17
16.578,-55.33
16.593,-44.82
16.609,-32.72
16.625,-20.14
16.640,-8.05
16.656,2.94
16.671,12.48
16.687,20.39
16.703,26.58
16.718,31.02
16.734,33.76
16.750,34.98
16.765,35.12
16.781,34.66
16.796,34.1
16.812,33.78
16.828,33.78
16.843,34.01
16.859,34.25
16.875,34.26
16.890,33.87
16.906,33.01
16.921,31.67
16.937,29.91
16.953,27.83
16.968,25.48
16.984,22.89
17.000,20.09
17.015,17.06
17.031,13.84
17.046,10.44
17.062,6.87
17.078,3.12
17.093,-0.8
17.109,-4.86
17.125,-9.04
17.140,-13.25
17.156,-17.35
17.171,-21.23
17.187,-24.82
17.203,-28.2
17.218,-31.54
17.234,-35.11
17.250,-39.2
17.265,-43.91
17.281,-49.06
17.296,-54.06
17.312,-57.97
17.328,-59.75
17.343,-58.47
17.359,-53.71
17.375,-45.67
17.390,-35.17
17.406,-23.31
17.421,-11.24
17.437,0.17
17.453,10.34
17.468,19.0
17.484,26.04
17.500,31.45
17.515,35.27
17.531,37.63
17.546,38.79
17.562,39.14
17.578,39.05
17.593,38.85
17.609,38.68
17.625,38.56
17.640,38.39
17.656,38.07
17.671,37.46
17.687,36.57
17.703,35.43
17.718,34.11
17.734,32.65
17.750,31.03
17.765,29.14
17.781,26.83
17.796,24.07
17.812,20.91
17.828,17.49
17.843,14.05
17.859,10.76
17.875,7.69
17.890,4.78
17.906,1.88
17.921,-1.18
17.937,-4.47
17.953,-8.03
17.968,-11.77
17.984,-15.59
18.000,-19.39
18.015,-23.09
18.031,-26.64
18.046,-30.06
18.062,-33.46
18.078,-37.01
18.093,-40.81
18.109,-44.77
18.125,-48.4
18.140,-50.83
18.156,-50.93
18.171,-47.62
18.187,-40.23
18.203,-28.79
18.218,-14.01
18.234,2.91
18.250,20.71
18.265,38.37
18.281,55.29
18.296,71.19
18.312,86.04
18.328,99.82
18.343,112.48
18.359,123.97
18.375,134.27
18.390,143.49
18.406,151.84
18.421,159.54
18.437,166.78
18.453,173.65
18.468,180.23
18.484,186.56
18.500,192.82
18.515,199.25
18.531,206.03
18.546,213.01
18.562,219.46
18.578,224.0
18.593,224.8
18.609,220.08
18.625,208.58
18.640,189.94
18.656,164.81
18.671,134.56
18.687,101.03
18.703,66.18
18.718,31.93
18.734,0.05
18.750,-27.94
18.765,-50.91
18.781,-68.16
18.796,-79.58
18.812,-85.64
18.828,-87.32
18.843,-86.03
18.859,-83.45
18.875,-81.36
18.890,-81.3
18.906,-84.39
18.921,-91.02
18.937,-100.72
18.953,-112.34
18.968,-124.27
18.984,-135.08
19.000,-143.72
19.015,-149.68
19.031,-153.04
19.046,-154.39
19.062,-154.74
19.078,-155.3
19.093,-157.15
19.109,-160.71
19.125,-165.58
19.140,-170.54
19.156,-174.05
19.171,-174.98
19.187,-173.08
19.203,-169.17
19.218,-164.75
19.234,-161.24
19.250,-159.51
19.265,-159.47
19.281,-160.39
19.296,-161.28
19.312,-161.34
19.328,-160.04
19.343,-157.16
19.359,-152.66
19.375,-146.59
19.390,-139.18
19.406,-130.81
19.421,-122.1
19.437,-113.84
19.453,-106.74
19.468,-101.17
19.484,-97.05
19.500,-93.9
19.515,-91.06
19.531,-88.0
19.546,-84.52
19.562,-80.8
19.578,-77.24
19.593,-74.31
19.609,-72.33
19.625,-71.38
19.640,-71.25
19.656,-71.6
19.671,-72.05
19.687,-72.37
19.703,-72.6
19.718,-73.01
19.734,-74.01
19.750,-76.02
19.765,-79.1
19.781,-82.94
19.796,-86.68
19.812,-89.08
19.828,-88.75
19.843,-84.53
19.859,-75.9
19.875,-63.15
19.890,-47.33
19.906,-30.02
19.921,-12.83
19.937,3.01
19.953,16.84
19.968,28.49
19.984,38.1
20.000,45.84
20.015,51.84
20.031,56.17
20.046,58.95
20.062,60.48
20.078,61.18
20.093,61.53
20.109,61.96
20.125,62.7
20.140,63.77
20.156,65.04
20.171,66.31
20.187,67.37
20.203,68.08
20.218,68.34
20.234,68.04
20.250,67.16
20.265,65.67
20.281,63.6
20.296,61.03
20.312,58.05
20.328,54.67
20.343,50.9
20.359,46.73
20.375,42.17
20.390,37.29
20.406,32.25
20.421,27.2
20.437,22.26
20.453,17.45
20.468,12.69
20.484,7.8
20.500,2.61
20.515,-3.15
20.531,-9.64
20.546,-16.87
20.562,-24.49
20.578,-31.72
20.593,-37.34
20.609,-40.03
20.625,-38.69
20.640,-32.77
20.656,-22.57
20.671,-9.09
20.687,6.14
20.703,21.53
20.718,35.74
20.734,47.99
20.750,57.98
20.765,65.82
20.781,71.8
20.796,76.13
20.812,78.94
20.828,80.3
20.843,80.36
20.859,79.43
20.875,77.94
20.890,76.36
20.906,74.96
20.921,73.79
20.937,72.68
20.953,71.46
20.968,70.06
20.984,68.51
21.000,66.84
21.015,64.91
21.031,62.46
21.046,59.12
21.062,54.71
21.078,49.37
21.093,43.55
21.109,37.78
21.125,32.46
21.140,27.64
21.156,23.02
21.171,18.15
21.187,12.66
21.203,6.43
21.218,-0.33
21.234,-7.25
21.250,-13.96
21.265,-20.17
21.281,-25.82
21.296,-31.02
21.312,-36.02
21.328,-41.19
21.343,-46.93
21.359,-53.47
21.375,-60.77
21.390,-68.25
21.406,-74.79
21.421,-78.86
21.437,-78.95
21.453,-74.05
21.468,-64.05
21.484,-49.9
21.500,-33.28
21.515,-16.14
21.531,-0.08
21.546,14.01
21.562,25.98
21.578,36.09
21.593,44.68
21.609,51.85
21.625,57.45
21.640,61.3
21.656,63.39
21.671,64.02
21.687,63.75
21.703,63.08
21.718,62.29
21.734,61.33
21.750,59.91
21.765,57.75
21.781,54.85
21.796,51.46
21.812,47.98
21.828,44.74
21.843,41.75
21.859,38.73
21.875,35.21
21.890,30.87
21.906,25.63
21.921,19.82
21.937,13.93
21.953,8.45
21.968,3.6
21.984,-0.7
22.000,-4.77
22.015,-8.98
22.031,-13.55
22.046,-18.51
22.062,-23.65
22.078,-28.63
22.093,-33.17
22.109,-37.12
22.125,-40.58
22.140,-43.88
22.156,-47.5
22.171,-51.9
22.187,-57.33
22.203,-63.62
22.218,-69.99
22.234,-75.18
22.250,-77.61
22.265,-75.85
22.281,-69.1
22.296,-57.45
22.312,-41.91
22.328,-24.2
22.343,-6.21
22.359,10.43
22.375,24.67
22.390,36.11
22.406,44.85
22.421,51.21
22.437,55.55
22.453,58.18
22.468,59.33
22.484,59.29
22.500,58.4
22.515,57.04
22.531,55.57
22.546,54.19
22.562,52.99
22.578,51.94
22.593,50.99
22.609,50.13
22.625,49.38
22.640,48.66
22.656,47.84
22.671,46.65
22.687,44.77
22.703,41.98
22.718,38.27
22.734,33.82
22.750,28.92
22.765,23.9
22.781,18.94
22.796,14.08
22.812,9.22
22.828,4.31
22.843,-0.68
22.859,-5.62
22.875,-10.38
22.890,-14.89
22.906,-19.19
22.921,-23.45
22.937,-27.87
22.953,-32.68
22.968,-38.04
22.984,-43.99
23.000,-50.35
23.015,-56.54
23.031,-61.55
23.046,-64.07
23.062,-62.83
23.078,-57.06
23.093,-46.83
23.109,-33.14
23.125,-17.65
23.140,-2.16
23.156,11.85
23.171,23.56
23.187,32.79
23.203,39.78
23.218,44.93
23.234,48.52
23.250,50.71
23.265,51.58
23.281,51.27
23.296,50.07
23.312,48.4
23.328,46.76
23.343,45.51
23.359,44.79
23.375,44.49
23.390,44.35
23.406,44.02
23.421,43.27
23.437,41.97
23.453,40.08
23.468,37.6
23.484,34.52
23.500,30.84
23.515,26.58
23.531,21.9
23.546,16.99
23.562,12.09
23.578,7.34
23.593,2.75
23.609,-1.82
23.625,-6.51
23.640,-11.39
23.656,-16.44
23.671,-21.52
23.687,-26.46
23.703,-31.15
23.718,-35.63
23.734,-40.13
23.750,-44.94
23.765,-50.35
23.781,-56.4
23.796,-62.74
23.812,-68.52
23.828,-72.54
23.843,-73.53
23.859,-70.55
23.875,-63.3
23.890,-52.27
23.906,-38.58
23.921,-23.7
23.937,-9.0
23.953,4.47
23.968,16.14
23.984,25.77
24.000,33.42
24.015,39.24
24.031,43.38
24.046,46.01
24.062,47.27
24.078,47.39
24.093,46.64
24.109,45.39
24.125,43.98
24.140,42.71
24.156,41.74
24.171,41.11
24.187,40.71
24.203,40.42
24.218,40.13
24.234,39.74
24.250,39.17
24.265,38.28
24.281,36.87
24.296,34.78
24.312,31.95
24.328,28.5
24.343,24.65
24.359,20.73
24.375,16.92
24.390,13.27
24.406,9.64
24.421,5.8
24.437,1.62
24.453,-2.86
24.468,-7.38
24.484,-11.59
24.500,-15.18
24.515,-18.08
24.531,-20.47
24.546,-22.71
24.562,-25.26
24.578,-28.49
24.593,-32.41
24.609,-36.62
24.625,-40.19
24.640,-41.83
24.656,-40.19
24.671,-34.28
24.687,-23.74
24.703,-9.08
24.718,8.5
24.734,27.47
24.750,46.38
24.765,64.21
24.781,80.48
24.796,94.98
24.812,107.65
24.828,118.35
24.843,126.92
24.859,133.31
24.875,137.81
24.890,141.04
24.906,143.9
24.921,147.16
24.937,151.21
24.953,155.84
24.968,160.22
24.984,163.05
25.000,162.85
25.015,158.22
25.031,148.12
25.046,132.22
25.062,110.97
25.078,85.52
25.093,57.52
25.109,28.66
25.125,0.29
25.140,-26.83
25.156,-52.44
25.171,-76.73
25.187,-99.89
25.203,-121.99
25.218,-142.88
25.234,-162.18
25.250,-179.48
25.265,-194.38
25.281,-206.51
25.296,-215.58
25.312,-221.49
25.328,-224.32
25.343,-224.49
25.359,-222.64
25.375,-219.44
25.390,-215.3
25.406,-210.09
25.421,-203.22
25.437,-193.77
25.453,-181.01
25.468,-164.7
25.484,-145.38
25.500,-124.2
25.515,-102.61
25.531,-81.95
25.546,-63.13
25.562,-46.61
25.578,-32.48
25.593,-20.67
25.609,-11.05
25.625,-3.49
25.640,2.23
25.656,6.47
25.671,9.75
25.687,12.67
25.703,15.71
25.718,19.16
25.734,23.01
25.750,26.97
25.765,30.7
25.781,33.82
25.796,36.09
25.812,37.4
25.828,37.73
25.843,37.15
25.859,35.79
25.875,33.73
25.890,31.04
25.906,27.77
25.921,23.93
25.937,19.6
25.953,14.9
25.968,10.0
25.984,5.04
26.000,0.13
26.015,-4.67
26.031,-9.4
26.046,-14.07
26.062,-18.8
26.078,-23.71
26.093,-28.97
26.109,-34.78
26.125,-41.2
26.140,-48.03
26.156,-54.59
26.171,-59.83
26.187,-62.43
26.203,-61.36
26.218,-56.13
26.234,-47.09
26.250,-35.29
26.265,-22.16
26.281,-9.06
26.296,3.05
26.312,13.67
26.328,22.65
26.343,30.0
26.359,35.72
26.375,39.83
26.390,42.39
26.406,43.65
26.421,43.97
26.437,43.85
26.453,43.73
26.468,43.88
26.484,44.41
26.500,45.25
26.515,46.28
26.531,47.26
26.546,48.0
26.562,48.28
26.578,47.95
26.593,46.89
26.609,45.09
26.625,42.64
26.640,39.73
26.656,36.53
26.671,33.16
26.687,29.65
26.703,25.91
26.718,21.87
26.734,17.5
26.750,12.83
26.765,7.94
26.781,2.95
26.796,-2.09
26.812,-7.11
26.828,-12.14
26.843,-17.28
26.859,-22.66
26.875,-28.46
26.890,-34.83
26.906,-41.8
26.921,-49.15
26.937,-56.28
26.953,-62.18
26.968,-65.66
26.984,-65.67
27.000,-61.64
27.015,-53.7
27.031,-42.69
27.046,-29.88
27.062,-16.62
27.078,-4.0
27.093,7.35
27.109,17.18
27.125,25.51
27.140,32.42
27.156,37.9
27.171,41.96
27.187,44.58
27.203,45.87
27.218,46.01
27.234,45.36
27.250,44.26
27.265,43.02
27.281,41.84
27.296,40.8
27.312,39.96
27.328,39.39
27.343,39.06
27.359,38.83
27.375,38.43
27.390,37.53
27.406,35.82
27.421,33.21
27.437,29.88
27.453,26.2
27.468,22.55
27.484,19.14
27.500,15.87
27.515,12.41
27.531,8.38
27.546,3.55
27.562,-2.05
27.578,-8.12
27.593,-14.24
27.609,-20.05
27.625,-25.42
27.640,-30.42
27.656,-35.32
27.671,-40.38
27.687,-45.81
27.703,-51.59
27.718,-57.45
27.734,-62.79
27.750,-66.8
27.765,-68.48
27.781,-66.89
27.796,-61.45
27.812,-52.18
27.828,-39.79
27.843,-25.51
27.859,-10.78
27.875,3.15
27.890,15.45
27.906,25.79
27.921,34.1
27.937,40.54
27.953,45.23
27.968,48.33
27.984,50.04
28.000,50.69
28.015,50.63
28.031,50.23
28.046,49.78
28.062,49.43
28.078,49.27
28.093,49.28
28.109,49.47
28.125,49.76
28.140,50.09
28.156,50.29
28.171,50.19
28.187,49.68
28.203,48.68
28.218,47.29
28.234,45.68
28.250,44.1
28.265,42.7
28.281,41.52
28.296,40.4
28.312,39.1
28.328,37.46
28.343,35.51
28.359,33.51
28.375,31.83
28.390,30.89
28.406,30.91
28.421,31.89
28.437,33.61
28.453,35.65
28.468,37.56
28.484,39.01
28.500,40.0
28.515,41.0
28.531,43.04
28.546,47.47
28.562,55.61
28.578,68.24
28.593,85.35
28.609,105.95
28.625,128.3
28.640,150.36
28.656,170.17
28.671,186.32
28.687,198.06
28.703,205.45
28.718,209.06
28.734,209.79
28.750,208.36
28.765,205.14
28.781,199.99
28.796,192.37
28.812,181.56
28.828,167.05
28.843,148.64
28.859,126.71
28.875,102.17
28.890,76.45
28.906,51.25
28.921,28.25
28.937,8.62
28.953,-7.26
28.968,-19.93
28.984,-30.71
29.000,-41.16
29.015,-52.69
29.031,-66.17
29.046,-81.8
29.062,-99.14
29.078,-117.38
29.093,-135.31
29.109,-151.55
29.125,-164.71
29.140,-173.67
29.156,-178.01
29.171,-178.19
29.187,-175.54
29.203,-171.87
29.218,-169.04
29.234,-168.47
29.250,-170.89
29.265,-176.2
29.281,-183.51
29.296,-191.27
29.312,-197.5
29.328,-200.04
29.343,-196.92
29.359,-186.85
29.375,-169.49
29.390,-145.59
29.406,-116.68
29.421,-84.67
29.437,-51.45
29.453,-18.62
29.468,12.5
29.484,40.78
29.500,65.34
29.515,85.62
29.531,101.52
29.546,113.55
29.562,122.87
29.578,131.09
29.593,140.05
29.609,151.43
29.625,166.34
29.640,184.87
29.656,205.68
29.671,225.79
29.687,241.05
29.703,247.03
29.718,240.56
29.734,220.84
29.750,189.95
29.765,152.09
29.781,112.23
29.796,74.72
29.812,42.3
29.828,16.19
29.843,-3.58
29.859,-17.76
29.875,-27.74
29.890,-35.52
29.906,-43.51
29.921,-53.92
29.937,-68.03
29.953,-85.82
29.968,-105.98
29.984,-126.7
30.000,-146.47
30.015,-164.6
30.031,-181.29
30.046,-197.13
30.062,-212.36
30.078,-226.2
30.093,-236.59
30.109,-240.46
30.125,-234.6
30.140,-217.11
30.156,-188.41
30.171,-151.79
30.187,-112.62
30.203,-76.66
30.218,-48.24
30.234,-29.17
30.250,-18.8
30.265,-14.98
30.281,-15.3
30.296,-17.78
30.312,-20.99
30.328,-23.69
30.343,-24.68
30.359,-23.01
30.375,-18.35
30.390,-11.2
30.406,-2.65
30.421,6.28
30.437,14.96
30.453,23.27
30.468,31.13
30.484,38.08
30.500,43.13
30.515,44.96
30.531,42.5
30.546,35.29
30.562,23.69
30.578,8.72
30.593,-8.14
30.609,-25.26
30.625,-41.06
30.640,-54.31
30.656,-64.31
30.671,-71.05
30.687,-75.16
30.703,-77.62
30.718,-79.51
30.734,-81.73
30.750,-84.83
30.765,-89.03
30.781,-94.13
30.796,-99.47
30.812,-103.97
30.828,-106.16
30.843,-104.51
30.859,-97.82
30.875,-85.63
30.890,-68.48
30.906,-47.87
30.921,-26.0
30.937,-5.2
30.953,12.58
30.968,26.38
30.984,36.42
31.000,43.79
31.015,49.9
31.031,55.88
31.046,62.04
31.062,68.02
31.078,73.06
31.093,76.31
31.109,77.0
31.125,74.18
31.140,66.88
31.156,54.51
31.171,37.65
31.187,18.38
31.203,0.03
31.218,-14.35
31.234,-23.55
31.250,-29.41
31.265,-36.22
31.281,-48.94
31.296,-70.67
31.312,-101.1
31.328,-136.6
31.343,-171.88
31.359,-202.16
31.375,-224.35
31.390,-237.15
31.406,-240.11
31.421,-232.92
31.437,-215.55
31.453,-189.09
31.468,-156.65
31.484,-123.17
31.500,-94.27
31.515,-74.15
31.531,-63.98
31.546,-61.53
31.562,-62.21
31.578,-61.09
31.593,-54.85
31.609,-42.73
31.625,-26.36
31.640,-8.65
31.656,7.66
31.671,20.89
31.687,30.72
31.703,37.85
31.718,43.27
31.734,47.63
31.750,50.93
31.765,52.74
31.781,52.53
31.796,50.2
31.812,46.22
31.828,41.55
31.843,37.27
31.859,34.13
31.875,32.22
31.890,30.99
31.906,29.59
31.921,27.36
31.937,24.14
31.953,20.35
31.968,16.68
31.984,13.69
32.000,11.48
32.015,9.65
32.031,7.59
32.046,4.88
32.062,1.53
32.078,-1.98
32.093,-4.96
32.109,-6.94
32.125,-7.95
32.140,-8.61
32.156,-9.84
32.171,-12.44
32.187,-16.76
32.203,-22.63
32.218,-29.38
32.234,-36.14
32.250,-42.02
32.265,-46.13
32.281,-47.5
32.296,-45.1
32.312,-37.89
32.328,-25.15
32.343,-6.79
32.359,16.51
32.375,43.4
32.390,72.15
32.406,101.01
32.421,128.41
32.437,152.99
32.453,173.56
32.468,189.08
32.484,198.82
32.500,202.67
32.515,201.4
32.531,196.66
32.546,190.52
32.562,184.61
32.578,179.32
32.593,173.33
32.609,164.1
32.625,148.99
32.640,126.6
32.656,97.78
32.671,65.68
32.687,34.71
32.703,9.13
32.718,-8.33
32.734,-17.2
32.750,-18.85
32.765,-15.72
32.781,-10.2
32.796,-3.88
32.812,2.8
32.828,10.48
32.843,20.46
32.859,34.03
32.875,51.57
32.890,71.89
32.906,91.93
32.921,107.37
32.937,113.76
32.953,108.06
32.968,89.83
32.984,61.66
33.000,28.65
33.015,-3.14
33.031,-28.32
33.046,-43.71
33.062,-48.98
33.078,-46.35
33.093,-39.5
33.109,-32.35
33.125,-27.9
33.140,-27.73
33.156,-31.85
33.171,-39.02
33.187,-47.27
33.203,-54.62
33.218,-59.82
33.234,-63.25
33.250,-66.89
33.265,-73.91
33.281,-87.29
33.296,-108.4
33.312,-136.14
33.328,-167.14
33.343,-197.08
33.359,-222.28
33.375,-240.93
33.390,-252.92
33.406,-258.97
33.421,-259.57
33.437,-254.54
33.453,-243.4
33.468,-226.38
33.484,-205.09
33.500,-182.37
33.515,-161.36
33.531,-144.21
33.546,-131.33
33.562,-121.53
33.578,-112.97
33.593,-104.3
33.609,-95.57
33.625,-88.01
33.640,-83.25
33.656,-82.28
33.671,-84.73
33.687,-89.1
33.703,-93.41
33.718,-96.13
33.734,-96.91
33.750,-96.64
33.765,-97.0
33.781,-99.62
33.796,-105.32
33.812,-113.43
33.828,-121.81
33.843,-127.25
33.859,-126.44
33.875,-116.96
33.890,-98.01
33.906,-70.74
33.921,-37.67
33.937,-2.05
33.953,33.14
33.968,65.82
33.984,95.07
34.000,120.85
34.015,143.46
34.031,163.2
34.046,180.05
34.062,193.76
34.078,204.01
34.093,210.7
34.109,214.0
34.125,214.38
34.140,212.57
34.156,209.29
34.171,205.32
34.187,201.35
34.203,197.93
34.218,195.56
34.234,194.57
34.250,195.05
34.265,196.8
34.281,199.28
34.296,201.62
34.312,202.85
34.328,201.98
34.343,198.32
34.359,191.65
34.375,182.25
34.390,170.9
34.406,158.52
34.421,145.99
34.437,133.85
34.453,122.18
34.468,110.68
34.484,98.9
34.500,86.47
34.515,73.32
34.531,59.72
34.546,45.93
34.562,32.07
34.578,17.91
34.593,3.24
34.609,-11.78
34.625,-26.12
34.640,-37.98
34.656,-45.25
34.671,-46.31
34.687,-40.74
34.703,-29.52
34.718,-14.73
34.734,1.12
34.750,15.72
34.765,27.3
34.781,34.6
34.796,36.84
34.812,33.92
34.828,26.75
34.843,17.34
34.859,8.47
34.875,2.66
34.890,1.09
34.906,2.84
34.921,5.15
34.937,4.62
34.953,-1.31
34.968,-13.18
34.984,-29.34
35.000,-46.88
35.015,-62.88
35.031,-75.4
35.046,-83.91
35.062,-88.8
35.078,-90.78
35.093,-90.33
35.109,-87.69
35.125,-83.03
35.140,-76.8
35.156,-69.87
35.171,-63.38
35.187,-58.41
35.203,-55.7
35.218,-55.35
35.234,-56.84
35.250,-59.34
35.265,-61.86
35.281,-63.71
35.296,-64.63
35.312,-64.88
35.328,-65.01
35.343,-65.67
35.359,-67.33
35.375,-70.14
35.390,-73.99
35.406,-78.36
35.421,-82.39
35.437,-84.92
35.453,-84.59
35.468,-80.25
35.484,-71.16
35.500,-57.42
35.515,-39.9
35.531,-20.16
35.546,0.05
35.562,19.16
35.578,36.06
35.593,50.28
35.609,61.75
35.625,70.7
35.640,77.37
35.656,82.02
35.671,84.9
35.687,86.38
35.703,86.93
35.718,87.08
35.734,87.31
35.750,87.88
35.765,88.8
35.781,89.91
35.796,90.95
35.812,91.74
35.828,92.15
35.843,92.12
35.859,91.53
35.875,90.26
35.890,88.15
35.906,85.18
35.921,81.47
35.937,77.23
35.953,72.75
35.968,68.24
35.984,63.82
36.000,59.42
36.015,55.0
36.031,50.5
36.046,45.9
36.062,41.32
36.078,36.79
36.093,32.24
36.109,27.36
36.125,21.6
36.140,14.31
36.156,4.95
36.171,-6.67
36.187,-20.23
36.203,-34.75
36.218,-48.75
36.234,-60.43
36.250,-68.12
36.265,-70.6
36.281,-67.54
36.296,-59.47
36.312,-47.71
36.328,-34.02
36.343,-20.16
36.359,-7.61
36.375,2.69
36.390,10.27
36.406,15.05
36.421,17.14
36.437,16.79
36.453,14.37
36.468,10.43
36.484,5.61
36.500,0.64
36.515,-3.85
36.531,-7.35
36.546,-9.62
36.562,-10.53
36.578,-10.05
36.593,-8.18
36.609,-4.9
36.625,-0.3
36.640,5.39
36.656,11.81
36.671,18.55
36.687,25.25
36.703,31.67
36.718,37.63
36.734,42.92
36.750,47.18
36.765,49.95
36.781,50.72
36.796,49.06
36.812,44.83
36.828,38.19
36.843,29.61
36.859,19.75
36.875,9.29
36.890,-1.13
36.906,-10.93
36.921,-19.61
36.937,-26.79
36.953,-32.33
36.968,-36.44
36.984,-39.75
37.000,-43.14
37.015,-47.45
37.031,-53.1
37.046,-59.84
37.062,-66.71
37.078,-72.42
37.093,-75.79
37.109,-76.13
37.125,-73.47
37.140,-68.35
37.156,-61.56
37.171,-53.83
37.187,-45.68
37.203,-37.54
37.218,-29.75
37.234,-22.74
37.250,-16.95
37.265,-12.74
37.281,-10.23
37.296,-9.3
37.312,-9.65
37.328,-10.84
37.343,-12.45
37.359,-14.13
37.375,-15.63
37.390,-16.83
37.406,-17.79
37.421,-18.68
37.437,-19.7
37.453,-21.07
37.468,-22.81
37.484,-24.83
37.500,-26.86
37.515,-28.65
37.531,-29.92
37.546,-30.51
37.562,-30.28
37.578,-29.18
37.593,-27.25
37.609,-24.68
37.625,-21.81
37.640,-19.07
37.656,-16.96
37.671,-15.87
37.687,-15.94
37.703,-17.1
37.718,-19.02
37.734,-21.29
37.750,-23.69
37.765,-26.27
37.781,-29.36
37.796,-33.45
37.812,-38.95
37.828,-45.93
37.843,-53.96
37.859,-62.1
37.875,-69.02
37.890,-73.2
37.906,-73.32
37.921,-68.53
37.937,-58.72
37.953,-44.66
37.968,-27.81
37.984,-9.91
38.000,7.4
38.015,23.09
38.031,36.69
38.046,48.19
38.062,57.79
38.078,65.55
38.093,71.37
38.109,75.12
38.125,76.81
38.140,76.74
38.156,75.51
38.171,73.78
38.187,72.16
38.203,70.99
38.218,70.3
38.234,69.91
38.250,69.54
38.265,68.87
38.281,67.75
38.296,66.14
38.312,64.11
38.328,61.76
38.343,59.18
38.359,56.36
38.375,53.21
38.390,49.64
38.406,45.49
38.421,40.7
38.437,35.3
38.453,29.45
38.468,23.44
38.484,17.64
38.500,12.38
38.515,7.88
38.531,4.15
38.546,0.95
38.562,-2.16
38.578,-5.71
38.593,-10.14
38.609,-15.51
38.625,-21.39
38.640,-26.73
38.656,-30.11
38.671,-30.12
38.687,-25.8
38.703,-17.09
38.718,-4.81
38.734,9.47
38.750,24.0
38.765,37.25
38.781,48.19
38.796,56.29
38.812,61.37
38.828,63.41
38.843,62.45
38.859,58.57
38.875,52.05
38.890,43.43
38.906,33.58
38.921,23.55
38.937,14.35
38.953,6.71
38.968,0.85
38.984,-3.4
39.000,-6.49
39.015,-8.87
39.031,-10.8
39.046,-12.3
39.062,-13.23
39.078,-13.48
39.093,-13.14
39.109,-12.45
39.125,-11.7
39.140,-11.12
39.156,-10.7
39.171,-10.33
39.187,-9.9
39.203,-9.4
39.218,-9.05
39.234,-9.22
39.250,-10.34
39.265,-12.75
39.281,-16.64
39.296,-21.95
39.312,-28.5
39.328,-35.88
39.343,-43.49
39.359,-50.48
39.375,-55.76
39.390,-58.19
39.406,-56.83
39.421,-51.34
39.437,-42.07
39.453,-30.17
39.468,-17.2
39.484,-4.76
39.500,5.94
39.515,14.31
39.531,20.37
39.546,24.47
39.562,27.0
39.578,28.21
39.593,28.18
39.609,26.92
39.625,24.61
39.640,21.56
39.656,18.28
39.671,15.32
39.687,13.07
39.703,11.74
39.718,11.31
39.734,11.6
39.750,12.33
39.765,13.22
39.781,14.06
39.796,14.72
39.812,15.13
39.828,15.18
39.843,14.71
39.859,13.48
39.875,11.24
39.890,7.86
39.906,3.41
39.921,-1.78
39.937,-7.24
39.953,-12.48
39.968,-17.22
39.984,-21.41
40.000,-25.2
40.015,-28.92
40.031,-32.89
40.046,-37.45
40.062,-42.82
40.078,-49.02
40.093,-55.85
40.109,-62.66
40.125,-68.43
40.140,-71.84
40.156,-71.62
40.171,-66.93
40.187,-57.65
40.203,-44.52
40.218,-28.88
40.234,-12.35
40.250,3.67
40.265,18.22
40.281,30.84
40.296,41.45
40.312,50.11
40.328,56.89
40.343,61.85
40.359,65.1
40.375,66.84
40.390,67.32
40.406,66.85
40.421,65.72
40.437,64.14
40.453,62.27
40.468,60.24
40.484,58.2
40.500,56.27
40.515,54.52
40.531,52.92
40.546,51.31
40.562,49.44
40.578,47.05
40.593,43.97
40.609,40.13
40.625,35.6
40.640,30.53
40.656,25.02
40.671,19.11
40.687,12.79
40.703,6.04
40.718,-1.09
40.734,-8.4
40.750,-15.63
40.765,-22.54
40.781,-29.01
40.796,-35.15
40.812,-41.25
40.828,-47.7
40.843,-54.86
40.859,-62.79
40.875,-71.05
40.890,-78.74
40.906,-84.53
40.921,-87.02
40.937,-85.12
40.953,-78.44
40.968,-67.4
40.984,-53.11
41.000,-37.08
41.015,-20.83
41.031,-5.56
41.046,7.89
41.062,19.07
41.078,27.8
41.093,34.0
41.109,37.77
41.125,39.31
41.140,39.01
41.156,37.46
41.171,35.34
41.187,33.34
41.203,31.94
41.218,31.34
41.234,31.4
41.250,31.69
41.265,31.75
41.281,31.26
41.296,30.21
41.312,28.83
41.328,27.45
41.343,26.27
41.359,25.17
41.375,23.81
41.390,21.74
41.406,18.67
41.421,14.62
41.437,9.94
41.453,5.09
41.468,0.49
41.484,-3.67
41.500,-7.44
41.515,-11.12
41.531,-15.06
41.546,-19.64
41.562,-25.13
41.578,-31.59
41.593,-38.91
41.609,-46.57
41.625,-53.72
41.640,-59.13
41.656,-61.52
41.671,-59.84
41.687,-53.65
41.703,-43.32
41.718,-29.96
41.734,-15.07
41.750,-0.12
41.765,13.74
41.781,25.88
41.796,36.05
41.812,44.24
41.828,50.4
41.843,54.43
41.859,56.29
41.875,56.05
41.890,54.09
41.906,51.04
41.921,47.69
41.937,44.74
41.953,42.67
41.968,41.51
41.984,40.92
42.000,40.36
42.015,39.35
42.031,37.67
42.046,35.44
42.062,33.01
42.078,30.7
42.093,28.6
42.109,26.48
42.125,23.92
42.140,20.53
42.156,16.13
42.171,10.97
42.187,5.5
42.203,0.27
42.218,-4.36
42.234,-8.4
42.250,-12.16
42.265,-16.1
42.281,-20.67
42.296,-26.16
42.312,-32.59
42.328,-39.82
42.343,-47.39
42.359,-54.57
42.375,-60.26
42.390,-63.19
42.406,-62.13
42.421,-56.39
42.437,-46.15
42.453,-32.49
42.468,-17.14
42.484,-1.96
42.500,11.64
42.515,22.96
42.531,31.92
42.546,38.86
42.562,44.04
42.578,47.57
42.593,49.4
42.609,49.48
42.625,47.98
42.640,45.3
42.656,41.97
42.671,38.53
42.687,35.3
42.703,32.41
42.718,29.91
42.734,27.77
42.750,25.87
42.765,24.05
42.781,22.0
42.796,19.38
42.812,15.85
42.828,11.24
42.843,5.65
42.859,-0.63
42.875,-7.18
42.890,-13.61
42.906,-19.7
42.921,-25.36
42.937,-30.56
42.953,-35.36
42.968,-39.77
42.984,-43.86
43.000,-47.69
43.015,-51.41
43.031,-55.16
43.046,-59.08
43.062,-63.33
43.078,-68.06
43.093,-73.38
43.109,-79.24
43.125,-85.32
43.140,-90.91
43.156,-94.95
43.171,-96.18
43.187,-93.48
43.203,-86.25
43.218,-74.57
43.234,-59.3
43.250,-41.83
43.265,-23.77
43.281,-6.61
43.296,8.6
43.312,21.36
43.328,31.66
43.343,39.76
43.359,46.0
43.375,50.61
43.390,53.75
43.406,55.58
43.421,56.34
43.437,56.44
43.453,56.35
43.468,56.46
43.484,56.94
43.500,57.73
43.515,58.57
43.531,59.26
43.546,59.7
43.562,59.91
43.578,59.96
43.593,59.75
43.609,59.06
43.625,57.57
43.640,55.07
43.656,51.58
43.671,47.39
43.687,42.96
43.703,38.69
43.718,34.81
43.734,31.21
43.750,27.59
43.765,23.63
43.781,19.11
43.796,13.99
43.812,8.44
43.828,2.71
43.843,-2.96
43.859,-8.4
43.875,-13.66
43.890,-18.96
43.906,-24.71
43.921,-31.27
43.937,-38.67
43.953,-46.41
43.968,-53.31
43.984,-57.66
44.000,-57.61
44.015,-51.74
44.031,-39.48
44.046,-21.38
44.062,1.01
44.078,25.52
44.093,49.9
44.109,72.35
44.125,91.76
44.140,107.85
44.156,120.93
44.171,131.67
44.187,140.9
44.203,149.35
44.218,157.63
44.234,166.06
44.250,174.69
44.265,183.25
44.281,191.27
44.296,198.26
44.312,203.9
44.328,208.1
44.343,210.85
44.359,212.04
44.375,211.17
44.390,207.57
44.406,200.5
44.421,189.49
44.437,174.46
44.453,155.73
44.468,133.77
44.484,108.91
44.500,81.39
44.515,51.25
44.531,18.53
44.546,-16.59
44.562,-53.47
44.578,-90.72
44.593,-126.04
44.609,-156.6
44.625,-179.91
44.640,-194.63
44.656,-201.15
44.671,-201.25
44.687,-196.93
44.703,-189.32
44.718,-177.99
44.734,-161.4
44.750,-138.11
44.765,-108.03
44.781,-73.19
44.796,-37.36
44.812,-5.1
44.828,19.47
44.843,33.46
44.859,35.71
44.875,26.64
44.890,8.14
44.906,-16.59
44.921,-43.76
44.937,-69.74
44.953,-91.84
44.968,-108.83
44.984,-120.69
45.000,-128.0
45.015,-131.3
45.031,-130.75
45.046,-126.5
45.062,-119.27
45.078,-110.6
45.093,-102.51
45.109,-96.6
45.125,-93.15
45.140,-91.02
45.156,-88.3
45.171,-83.63
45.187,-77.06
45.203,-70.26
45.218,-65.48
45.234,-64.37
45.250,-66.95
45.265,-71.51
45.281,-75.45
45.296,-76.36
45.312,-72.92
45.328,-65.06
45.343,-53.8
45.359,-40.95
45.375,-28.86
45.390,-20.38
45.406,-18.29
45.421,-24.47
45.437,-38.78
45.453,-58.34
45.468,-77.9
45.484,-91.49
45.500,-94.47
45.515,-85.18
45.531,-65.28
45.546,-38.68
45.562,-9.75
45.578,18.2
45.593,43.47
45.609,65.32
45.625,83.11
45.640,95.68
45.656,101.73
45.671,100.55
45.687,92.85
45.703,80.84
45.718,67.63
45.734,56.26
45.750,48.65
45.765,45.4
45.781,46.04
45.796,49.46
45.812,54.38
45.828,59.29
45.843,62.38
45.859,61.48
45.875,54.66
45.890,40.82
45.906,20.45
45.921,-4.34
45.937,-30.73
45.953,-56.26
45.968,-79.79
45.984,-101.44
46.000,-121.84
46.015,-141.03
46.031,-158.06
46.046,-171.43
46.062,-180.15
46.078,-184.55
46.093,-186.05
46.109,-185.91
46.125,-184.0
46.140,-178.16
46.156,-164.92
46.171,-141.29
46.187,-106.35
46.203,-62.09
46.218,-12.93
46.234,35.85
46.250,79.56
46.265,115.08
46.281,141.1
46.296,157.85
46.312,166.62
46.328,169.57
46.343,169.25
46.359,168.16
46.375,168.11
46.390,169.7
46.406,172.32
46.421,174.46
46.437,174.38
46.453,170.84
46.468,163.68
46.484,153.81
46.500,142.69
46.515,131.36
46.531,119.58
46.546,105.57
46.562,86.53
46.578,59.71
46.593,23.48
46.609,-21.93
46.625,-74.46
46.640,-130.49
46.656,-185.61
46.671,-235.27
46.687,-275.5
46.703,-303.66
46.718,-319.1
46.734,-323.47
46.750,-320.22
46.765,-313.71
46.781,-307.65
46.796,-304.07
46.812,-303.03
46.828,-303.17
46.843,-302.58
46.859,-299.53
46.875,-292.63
46.890,-280.77
46.906,-263.0
46.921,-238.71
46.937,-208.09
46.953,-172.46
46.968,-134.14
46.984,-95.89
47.000,-60.15
47.015,-28.28
47.031,-0.46
47.046,24.03
47.062,46.14
47.078,66.47
47.093,85.0
47.109,101.14
47.125,114.21
47.140,123.75
47.156,129.7
47.171,132.48
47.187,132.79
47.203,131.49
47.218,129.36
47.234,127.04
47.250,124.85
47.265,122.9
47.281,121.14
47.296,119.45
47.312,117.76
47.328,115.99
47.343,114.05
47.359,111.6
47.375,108.09
47.390,102.8
47.406,95.13
47.421,84.71
47.437,71.75
47.453,56.96
47.468,41.37
47.484,26.09
47.500,11.84
47.515,-1.19
47.531,-13.38
47.546,-25.46
47.562,-38.2
47.578,-52.11
47.593,-67.27
47.609,-83.18
47.625,-98.75
47.640,-112.42
47.656,-122.34
47.671,-126.78
47.687,-124.49
47.703,-115.1
47.718,-99.12
47.734,-77.83
47.750,-52.93
47.765,-26.05
47.781,1.36
47.796,28.05
47.812,52.71
47.828,73.69
47.843,89.01
47.859,96.75
47.875,95.66
47.890,85.69
47.906,68.45
47.921,46.97
47.937,25.27
47.953,7.54
47.968,-2.75
47.984,-3.44
48.000,5.86
48.015,23.88
48.031,48.02
48.046,75.15
48.062,102.32
48.078,127.39
48.093,149.16
48.109,167.15
48.125,181.21
48.140,191.27
48.156,197.34
48.171,199.73
48.187,199.13
48.203,196.2
48.218,191.07
48.234,182.88
48.250,169.79
48.265,149.74
48.281,121.35
48.296,84.78
48.312,41.88
48.328,-4.37
48.343,-50.51
48.359,-93.28
48.375,-129.79
48.390,-157.6
48.406,-174.73
48.421,-180.09
48.437,-173.82
48.453,-157.61
48.468,-134.53
48.484,-108.32
48.500,-82.51
48.515,-59.77
48.531,-41.72
48.546,-29.05
48.562,-21.97
48.578,-20.51
48.593,-24.5
48.609,-33.38
48.625,-45.98
48.640,-60.43
48.656,-74.6
48.671,-86.7
48.687,-95.87
48.703,-102.5
48.718,-107.91
48.734,-113.53
48.750,-120.12
48.765,-127.3
48.781,-133.83
48.796,-138.49
48.812,-140.73
48.828,-141.05
48.843,-140.5
48.859,-139.83
48.875,-138.82
48.890,-136.24
48.906,-130.39
48.921,-120.09
48.937,-105.29
48.953,-87.17
48.968,-67.66
48.984,-48.81
49.000,-32.23
49.015,-18.67
49.031,-8.02
49.046,0.78
49.062,9.55
49.078,20.52
49.093,35.72
49.109,56.27
49.125,81.85
49.140,110.66
49.156,139.79
49.171,166.05
49.187,186.76
49.203,200.31
49.218,206.24
49.234,205.1
49.250,198.0
49.265,186.36
49.281,171.69
49.296,155.5
49.312,139.15
49.328,123.74
49.343,109.92
49.359,97.74
49.375,86.82
49.390,76.49
49.406,66.14
49.421,55.52
49.437,44.78
49.453,34.53
49.468,25.46
49.484,18.27
49.500,13.25
49.515,10.25
49.531,8.62
49.546,7.37
49.562,5.4
49.578,1.74
49.593,-4.04
49.609,-11.9
49.625,-21.36
49.640,-31.9
49.656,-43.27
49.671,-55.62
49.687,-69.37
49.703,-84.7
49.718,-101.19
49.734,-117.41
49.750,-131.15
49.765,-139.97
49.781,-141.87
49.796,-135.92
49.812,-122.43
49.828,-102.86
49.843,-79.3
49.859,-53.99
49.875,-28.93
49.890,-5.56
49.906,15.2
49.921,32.97
49.937,47.63
49.953,59.28
49.968,67.99
49.984,73.89
50.000,77.16
50.015,78.16
50.031,77.45
50.046,75.73
50.062,73.73
50.078,71.92
50.093,70.49
50.109,69.36
50.125,68.34
50.140,67.25
50.156,65.99
50.171,64.57
50.187,62.99
50.203,61.22
50.218,59.14
50.234,56.59
50.250,53.38
50.265,49.34
50.281,44.32
50.296,38.27
50.312,31.31
50.328,23.73
50.343,15.94
50.359,8.31
50.375,1.02
50.390,-6.05
50.406,-13.19
50.421,-20.8
50.437,-29.26
50.453,-38.77
50.468,-49.29
50.484,-60.49
50.500,-71.57
50.515,-81.19
50.531,-87.62
50.546,-89.01
50.562,-84.0
50.578,-72.21
50.593,-54.41
50.609,-32.43
50.625,-8.56
50.640,14.99
50.656,36.65
50.671,55.5
50.687,71.17
50.703,83.53
50.718,92.53
50.734,98.2
50.750,100.78
50.765,100.81
50.781,99.08
50.796,96.48
50.812,93.7
50.828,91.15
50.843,88.88
50.859,86.66
50.875,84.26
50.890,81.54
50.906,78.55
50.921,75.48
50.937,72.55
50.953,69.8
50.968,67.1
50.984,64.1
51.000,60.45
51.015,55.92
51.031,50.5
51.046,44.44
51.062,38.08
51.078,31.72
51.093,25.39
51.109,18.93
51.125,11.98
51.140,4.33
51.156,-3.98
51.171,-12.58
51.187,-20.92
51.203,-28.52
51.218,-35.18
51.234,-41.18
51.250,-47.06
51.265,-53.54
51.281,-61.13
51.296,-69.96
51.312,-79.6
51.328,-89.03
51.343,-96.78
51.359,-101.17
51.375,-100.7
51.390,-94.43
51.406,-82.33
51.421,-65.3
51.437,-45.04
51.453,-23.58
51.468,-2.82
51.484,15.74
51.500,31.29
51.515,43.51
51.531,52.52
51.546,58.63
51.562,62.26
51.578,63.93
51.593,64.13
51.609,63.44
51.625,62.28
51.640,61.05
51.656,59.96
51.671,59.09
51.687,58.39
51.703,57.78
51.718,57.13
51.734,56.37
51.750,55.45
51.765,54.28
51.781,52.73
51.796,50.63
51.812,47.73
51.828,43.87
51.843,38.99
51.859,33.25
51.875,26.98
51.890,20.7
51.906,14.82
51.921,9.59
51.937,4.93
51.953,0.48
51.968,-4.15
51.984,-9.3
52.000,-15.0
52.015,-21.09
52.031,-27.22
52.046,-33.17
52.062,-38.86
52.078,-44.43
52.093,-50.15
52.109,-56.28
52.125,-63.04
52.140,-70.51
52.156,-78.58
52.171,-86.7
52.187,-93.85
52.203,-98.54
52.218,-99.22
52.234,-94.73
52.250,-84.81
52.265,-70.25
52.281,-52.76
52.296,-34.32
52.312,-16.77
52.328,-1.27
52.343,11.62
52.359,21.84
52.375,29.46
52.390,34.61
52.406,37.42
52.421,38.14
52.437,37.22
52.453,35.25
52.468,32.9
52.484,30.67
52.500,28.9
52.515,27.61
52.531,26.69
52.546,25.95
52.562,25.18
52.578,24.28
52.593,23.12
52.609,21.64
52.625,19.7
52.640,17.21
52.656,14.04
52.671,10.13
52.687,5.54
52.703,0.38
52.718,-5.06
52.734,-10.56
52.750,-15.95
52.765,-21.23
52.781,-26.51
52.796,-31.91
52.812,-37.41
52.828,-42.74
52.843,-47.47
52.859,-51.22
52.875,-53.87
52.890,-55.68
52.906,-57.29
52.921,-59.46
52.937,-62.83
52.953,-67.65
52.968,-73.66
52.984,-80.0
53.000,-85.34
53.015,-88.09
53.031,-86.83
53.046,-80.62
53.062,-69.43
53.078,-54.09
53.093,-36.17
53.109,-17.51
53.125,0.31
53.140,16.23
53.156,29.81
53.171,40.98
53.187,49.84
53.203,56.44
53.218,60.78
53.234,62.94
53.250,63.16
53.265,61.94
53.281,59.91
53.296,57.72
53.312,55.8
53.328,54.39
53.343,53.45
53.359,52.82
53.375,52.32
53.390,51.74
53.406,50.91
53.421,49.63
53.437,47.71
53.453,45.08
53.468,41.72
53.484,37.81
53.500,33.57
53.515,29.23
53.531,24.86
53.546,20.42
53.562,15.7
53.578,10.48
53.593,4.64
53.609,-1.78
53.625,-8.54
53.640,-15.31
53.656,-21.7
53.671,-27.53
53.687,-32.83
53.703,-37.97
53.718,-43.49
53.734,-49.92
53.750,-57.5
53.765,-65.95
53.781,-74.38
53.796,-81.35
53.812,-85.23
53.828,-84.63
53.843,-78.84
53.859,-68.02
53.875,-53.23
53.890,-36.14
53.906,-18.55
53.921,-2.04
53.937,12.35
53.953,24.19
53.968,33.5
53.984,40.52
54.000,45.46
54.015,48.51
54.031,49.81
54.046,49.63
54.062,48.37
54.078,46.56
54.093,44.69
54.109,43.04
54.125,41.72
54.140,40.61
54.156,39.55
54.171,38.45
54.187,37.3
54.203,36.11
54.218,34.8
54.234,33.23
54.250,31.14
54.265,28.35
54.281,24.81
54.296,20.59
54.312,15.94
54.328,11.11
54.343,6.34
54.359,1.75
54.375,-2.66
54.390,-7.06
54.406,-11.63
54.421,-16.45
54.437,-21.51
54.453,-26.6
54.468,-31.53
54.484,-36.13
54.500,-40.49
54.515,-44.87
54.531,-49.67
54.546,-55.22
54.562,-61.57
54.578,-68.34
54.593,-74.62
54.609,-79.07
54.625,-80.23
54.640,-76.94
54.656,-68.69
54.671,-55.83
54.687,-39.52
54.703,-21.38
54.718,-3.08
54.734,14.09
54.750,29.29
54.765,42.12
54.781,52.43
54.796,60.17
54.812,65.4
54.828,68.35
54.843,69.47
54.859,69.43
54.875,69.01
54.890,68.78
54.906,68.92
54.921,69.25
54.937,69.35
54.953,68.78
54.968,67.3
54.984,64.91
55.000,61.71
55.015,57.8
55.031,53.15
55.046,47.7
55.062,41.5
55.078,34.79
55.093,27.94
55.109,21.29
55.125,14.96
55.140,8.83
55.156,2.68
55.171,-3.6
55.187,-9.87
55.203,-15.81
55.218,-21.05
55.234,-25.43
55.250,-29.06
55.265,-32.31
55.281,-35.63
55.296,-39.37
55.312,-43.71
55.328,-48.68
55.343,-54.11
55.359,-59.66
55.375,-64.72
55.390,-68.46
55.406,-70.03
55.421,-68.84
55.437,-64.69
55.453,-57.98
55.468,-49.49
55.484,-40.23
55.500,-31.1
55.515,-22.75
55.531,-15.5
55.546,-9.49
55.562,-4.72
55.578,-1.12
55.593,1.44
55.609,3.25
55.625,4.69
55.640,6.24
55.656,8.39
55.671,11.47
55.687,15.5
55.703,20.2
55.718,24.92
55.734,28.87
55.750,31.32
55.765,31.81
55.781,30.31
55.796,27.22
55.812,23.2
55.828,19.0
55.843,15.22
55.859,12.19
55.875,9.98
55.890,8.53
55.906,7.77
55.921,7.71
55.937,8.43
55.953,9.99
55.968,12.31
55.984,15.2
56.000,18.33
56.015,21.32
56.031,23.87
56.046,25.65
56.062,26.28
56.078,25.34
56.093,22.44
56.109,17.5
56.125,11.07
56.140,4.33
56.156,-0.98
56.171,-3.1
56.187,-0.74
56.203,6.38
56.218,17.53
56.234,31.25
56.250,45.8
56.265,59.55
56.281,71.09
56.296,79.12
56.312,82.34
56.328,79.59
56.343,70.12
56.359,54.09
56.375,32.66
56.390,7.82
56.406,-18.12
56.421,-43.02
56.437,-65.21
56.453,-83.56
56.468,-97.33
56.484,-106.13
56.500,-109.85
56.515,-108.89
56.531,-104.06
56.546,-96.5
56.562,-87.41
56.578,-77.87
56.593,-68.72
56.609,-60.51
56.625,-53.6
56.640,-48.05
56.656,-43.63
56.671,-39.92
56.687,-36.33
56.703,-32.39
56.718,-27.89
56.734,-23.0
56.750,-18.12
56.765,-13.69
56.781,-9.92
56.796,-6.77
56.812,-3.97
56.828,-1.14
56.843,2.03
56.859,5.68
56.875,9.79
56.890,14.18
56.906,18.6
56.921,22.84
56.937,26.72
56.953,30.22
56.968,33.47
56.984,36.76
57.000,40.4
57.015,44.6
57.031,49.3
57.046,54.11
57.062,58.45
57.078,61.71
57.093,63.49
57.109,63.77
57.125,62.89
57.140,61.39
57.156,59.8
57.171,58.46
57.187,57.36
57.203,56.27
57.218,54.86
57.234,52.94
57.250,50.51
57.265,47.86
57.281,45.36
57.296,43.27
57.312,41.59
57.328,39.96
57.343,37.81
57.359,34.58
57.375,30.01
57.390,24.3
57.406,18.1
57.421,12.26
57.437,7.51
57.453,4.05
57.468,1.41
57.484,-1.48
57.500,-5.9
57.515,-12.84
57.531,-22.44
57.546,-33.76
57.562,-44.74
57.578,-52.65
57.593,-54.76
57.609,-49.09
57.625,-34.97
57.640,-13.23
57.656,14.03
57.671,43.99
57.687,73.88
57.703,101.66
57.718,126.37
57.734,148.2
57.750,168.15
57.765,187.26
57.781,205.88
57.796,223.09
57.812,236.74
57.828,243.97
57.843,242.19
57.859,229.96
57.875,207.51
57.890,176.67
57.906,140.1
57.921,100.49
57.937,59.83
57.953,19.29
57.968,-20.52
57.984,-58.91
58.000,-94.72
58.015,-126.45
58.031,-152.66
58.046,-172.66
58.062,-186.82
58.078,-196.42
58.093,-203.08
58.109,-208.02
58.125,-211.68
58.140,-213.79
58.156,-213.96
58.171,-212.37
58.187,-209.98
58.203,-208.48
58.218,-209.56
58.234,-214.22
58.250,-222.12
58.265,-231.63
58.281,-240.15
58.296,-244.93
58.312,-243.93
58.328,-236.36
58.343,-222.91
58.359,-205.24
58.375,-185.26
58.390,-164.35
58.406,-143.03
58.421,-121.17
58.437,-98.46
58.453,-75.05
58.468,-51.73
58.484,-29.77
58.500,-10.35
58.515,5.82
58.531,18.76
58.546,28.94
58.562,36.98
58.578,43.27
58.593,47.9
58.609,50.78
58.625,51.77
58.640,50.95
58.656,48.7
58.671,45.6
58.687,42.29
58.703,39.21
58.718,36.49
58.734,33.94
58.750,31.27
58.765,28.22
58.781,24.75
58.796,21.03
58.812,17.22
58.828,13.31
58.843,9.12
58.859,4.42
58.875,-0.8
58.890,-6.03
58.906,-10.22
58.921,-12.1
58.937,-10.55
58.953,-5.13
58.968,3.74
58.984,14.96
59.000,27.09
59.015,38.88
59.031,49.64
59.046,59.32
59.062,68.29
59.078,76.98
59.093,85.56
59.109,93.88
59.125,101.61
59.140,108.4
59.156,114.1
59.171,118.76
59.187,122.34
59.203,124.64
59.218,125.18
59.234,123.38
59.250,118.86
59.265,111.68
59.281,102.35
59.296,91.68
59.312,80.38
59.328,68.86
59.343,57.08
59.359,44.85
59.375,32.03
59.390,18.76
59.406,5.53
59.421,-7.12
59.437,-18.73
59.453,-29.21
59.468,-38.87
59.484,-48.33
59.500,-58.24
59.515,-69.03
59.531,-80.63
59.546,-92.35
59.562,-102.99
59.578,-111.07
59.593,-115.32
59.609,-115.08
59.625,-110.45
59.640,-102.26
59.656,-91.67
59.671,-79.77
59.687,-67.24
59.703,-54.41
59.718,-41.37
59.734,-28.34
59.750,-15.79
59.765,-4.45
59.781,4.99
59.796,12.1
59.812,16.92
59.828,19.95
59.843,21.85
59.859,23.19
59.875,24.23
59.890,24.87
59.906,24.79
59.921,23.78
59.937,21.87
59.953,19.41
59.968,16.92
59.984,14.73
