timestamp,value
00.000,23.68
00.015,23.48
00.031,23.13
00.046,22.66
00.062,22.11
00.078,21.46
00.093,20.56
00.109,19.11
00.125,16.79
00.140,13.41
00.156,9.06
00.171,4.01
00.187,-1.29
00.203,-6.52
00.218,-11.57
00.234,-16.53
00.250,-21.65
00.265,-27.17
00.281,-33.13
00.296,-39.16
00.312,-44.51
00.328,-48.06
00.343,-48.62
00.359,-45.37
00.375,-38.17
00.390,-27.76
00.406,-15.59
00.421,-3.29
00.437,7.76
00.453,16.81
00.468,23.8
00.484,29.05
00.500,32.86
00.515,35.44
00.531,36.77
00.546,36.88
00.562,35.93
00.578,34.25
00.593,32.19
00.609,30.05
00.625,27.93
00.640,25.79
00.656,23.59
00.671,21.33
00.687,19.11
00.703,17.04
00.718,15.11
00.734,13.15
00.750,10.84
00.765,7.87
00.781,3.95
00.796,-0.9
00.812,-6.51
00.828,-12.5
00.843,-18.41
00.859,-23.88
00.875,-28.77
00.890,-33.23
00.906,-37.63
00.921,-42.55
00.937,-48.35
00.953,-54.99
00.968,-61.77
00.984,-67.36
01.000,-70.19
01.015,-68.92
01.031,-63.05
01.046,-53.06
01.062,-40.38
01.078,-26.75
01.093,-13.75
01.109,-2.32
01.125,7.26
01.140,15.05
01.156,21.28
01.171,26.0
01.187,29.2
01.203,30.9
01.218,31.35
01.234,31.02
01.250,30.45
01.265,30.08
01.281,29.98
01.296,30.0
01.312,29.76
01.328,29.01
01.343,27.66
01.359,25.96
01.375,24.26
01.390,22.79
01.406,21.57
01.421,20.18
01.437,18.13
01.453,14.93
01.468,10.51
01.484,5.23
01.500,-0.29
01.515,-5.37
01.531,-9.66
01.546,-13.19
01.562,-16.39
01.578,-19.78
01.593,-23.88
01.609,-28.99
01.625,-35.05
01.640,-41.65
01.656,-47.92
01.671,-52.66
01.687,-54.53
01.703,-52.51
01.718,-46.31
01.734,-36.53
01.750,-24.53
01.765,-11.94
01.781,-0.08
01.796,10.38
01.812,19.41
01.828,27.24
01.843,34.04
01.859,39.62
01.875,43.61
01.890,45.69
01.906,46.01
01.921,45.14
01.937,43.95
01.953,43.19
01.968,43.17
01.984,43.74
02.000,44.33
02.015,44.41
02.031,43.6
02.046,41.95
02.062,39.75
02.078,37.39
02.093,35.19
02.109,33.15
02.125,31.12
02.140,28.72
02.156,25.67
02.171,21.81
02.187,17.28
02.203,12.4
02.218,7.61
02.234,3.22
02.250,-0.66
02.265,-4.1
02.281,-7.43
02.296,-10.99
02.312,-15.12
02.328,-20.11
02.343,-26.05
02.359,-32.76
02.375,-39.65
02.390,-45.73
02.406,-49.69
02.421,-50.29
02.437,-46.8
02.453,-39.26
02.468,-28.57
02.484,-16.16
02.500,-3.49
02.515,8.34
02.531,18.85
02.546,28.03
02.562,36.06
02.578,42.96
02.593,48.6
02.609,52.65
02.625,54.93
02.640,55.48
02.656,54.7
02.671,53.17
02.687,51.5
02.703,50.14
02.718,49.25
02.734,48.73
02.750,48.23
02.765,47.37
02.781,45.87
02.796,43.6
02.812,40.65
02.828,37.24
02.843,33.64
02.859,30.0
02.875,26.44
02.890,22.89
02.906,19.2
02.921,15.28
02.937,11.05
02.953,6.58
02.968,2.02
02.984,-2.46
03.000,-6.74
03.015,-10.78
03.031,-14.66
03.046,-18.56
03.062,-22.72
03.078,-27.4
03.093,-32.77
03.109,-38.92
03.125,-45.69
03.140,-52.59
03.156,-58.72
03.171,-62.89
03.187,-63.94
03.203,-61.03
03.218,-54.04
03.234,-43.66
03.250,-31.16
03.265,-18.03
03.281,-5.53
03.296,5.64
03.312,15.29
03.328,23.54
03.343,30.58
03.359,36.38
03.375,40.78
03.390,43.61
03.406,44.9
03.421,44.99
03.437,44.35
03.453,43.47
03.468,42.57
03.484,41.65
03.500,40.55
03.515,39.14
03.531,37.5
03.546,35.84
03.562,34.39
03.578,33.22
03.593,32.12
03.609,30.73
03.625,28.75
03.640,26.01
03.656,22.55
03.671,18.6
03.687,14.42
03.703,10.2
03.718,6.09
03.734,2.08
03.750,-1.87
03.765,-5.85
03.781,-9.96
03.796,-14.25
03.812,-18.69
03.828,-23.17
03.843,-27.57
03.859,-31.85
03.875,-36.09
03.890,-40.49
03.906,-45.28
03.921,-50.6
03.937,-56.29
03.953,-61.86
03.968,-66.41
03.984,-68.84
04.000,-68.11
04.015,-63.62
04.031,-55.5
04.046,-44.63
04.062,-32.38
04.078,-20.16
04.093,-9.02
04.109,0.54
04.125,8.63
04.140,15.5
04.156,21.35
04.171,26.12
04.187,29.66
04.203,31.82
04.218,32.73
04.234,32.74
04.250,32.3
04.265,31.79
04.281,31.37
04.296,30.97
04.312,30.37
04.328,29.4
04.343,27.98
04.359,26.22
04.375,24.32
04.390,22.38
04.406,20.4
04.421,18.23
04.437,15.67
04.453,12.66
04.468,9.3
04.484,5.87
04.500,2.68
04.515,-0.14
04.531,-2.76
04.546,-5.56
04.562,-8.94
04.578,-13.06
04.593,-17.78
04.609,-22.72
04.625,-27.43
04.640,-31.6
04.656,-35.17
04.671,-38.29
04.687,-41.21
04.703,-44.21
04.718,-47.56
04.734,-51.51
04.750,-56.1
04.765,-61.06
04.781,-65.58
04.796,-68.45
04.812,-68.34
04.828,-64.33
04.843,-56.33
04.859,-45.13
04.875,-32.2
04.890,-19.15
04.906,-7.27
04.921,2.74
04.937,10.72
04.953,16.9
04.968,21.59
04.984,25.0
05.000,27.21
05.015,28.29
05.031,28.32
05.046,27.54
05.062,26.26
05.078,24.83
05.093,23.59
05.109,22.73
05.125,22.29
05.140,22.19
05.156,22.27
05.171,22.34
05.187,22.28
05.203,21.97
05.218,21.37
05.234,20.41
05.250,19.05
05.265,17.26
05.281,15.02
05.296,12.37
05.312,9.38
05.328,6.17
05.343,2.9
05.359,-0.31
05.375,-3.33
05.390,-6.1
05.406,-8.56
05.421,-10.74
05.437,-12.75
05.453,-14.75
05.468,-16.97
05.484,-19.62
05.500,-22.84
05.515,-26.61
05.531,-30.76
05.546,-34.89
05.562,-38.32
05.578,-40.29
05.593,-40.01
05.609,-36.97
05.625,-31.12
05.640,-22.99
05.656,-13.53
05.671,-3.89
05.687,4.96
05.703,12.51
05.718,18.73
05.734,23.86
05.750,28.23
05.765,31.99
05.781,35.05
05.796,37.22
05.812,38.41
05.828,38.72
05.843,38.52
05.859,38.25
05.875,38.25
05.890,38.6
05.906,39.16
05.921,39.68
05.937,39.96
05.953,39.89
05.968,39.46
05.984,38.64
06.000,37.32
06.015,35.4
06.031,32.83
06.046,29.67
06.062,26.15
06.078,22.58
06.093,19.18
06.109,16.01
06.125,12.97
06.140,9.81
06.156,6.31
06.171,2.37
06.187,-1.93
06.203,-6.37
06.218,-10.68
06.234,-14.71
06.250,-18.49
06.265,-22.27
06.281,-26.44
06.296,-31.35
06.312,-37.06
06.328,-43.14
06.343,-48.77
06.359,-52.77
06.375,-54.01
06.390,-51.72
06.406,-45.81
06.421,-36.93
06.437,-26.28
06.453,-15.2
06.468,-4.86
06.484,4.07
06.500,11.38
06.515,17.18
06.531,21.68
06.546,25.09
06.562,27.5
06.578,28.95
06.593,29.61
06.609,29.63
06.625,29.27
06.640,28.76
06.656,28.23
06.671,27.7
06.687,27.15
06.703,26.62
06.718,26.16
06.734,25.85
06.750,25.69
06.765,25.53
06.781,25.09
06.796,24.03
06.812,22.08
06.828,19.28
06.843,15.87
06.859,12.21
06.875,8.59
06.890,5.12
06.906,1.68
06.921,-1.95
06.937,-5.9
06.953,-10.16
06.968,-14.5
06.984,-18.58
07.000,-22.18
07.015,-25.23
07.031,-27.91
07.046,-30.58
07.062,-33.63
07.078,-37.4
07.093,-42.04
07.109,-47.4
07.125,-53.01
07.140,-58.07
07.156,-61.52
07.171,-62.36
07.187,-59.89
07.203,-54.07
07.218,-45.52
07.234,-35.42
07.250,-25.09
07.265,-15.59
07.281,-7.48
07.296,-0.72
07.312,5.02
07.328,10.09
07.343,14.59
07.359,18.33
07.375,20.97
07.390,22.27
07.406,22.28
07.421,21.35
07.437,20.02
07.453,18.78
07.468,17.89
07.484,17.3
07.500,16.73
07.515,15.9
07.531,14.64
07.546,12.9
07.562,10.73
07.578,8.2
07.593,5.29
07.609,2.01
07.625,-1.56
07.640,-5.27
07.656,-8.91
07.671,-12.37
07.687,-15.67
07.703,-18.98
07.718,-22.43
07.734,-26.09
07.750,-29.85
07.765,-33.46
07.781,-36.76
07.796,-39.63
07.812,-42.13
07.828,-44.37
07.843,-46.49
07.859,-48.64
07.875,-50.91
07.890,-53.26
07.906,-55.45
07.921,-56.96
07.937,-57.04
07.953,-54.92
07.968,-50.04
07.984,-42.31
08.000,-32.28
08.015,-20.9
08.031,-9.34
08.046,1.41
08.062,10.76
08.078,18.58
08.093,24.99
08.109,30.21
08.125,34.38
08.140,37.54
08.156,39.67
08.171,40.93
08.187,41.63
08.203,42.15
08.218,42.74
08.234,43.25
08.250,43.14
08.265,41.71
08.281,38.42
08.296,33.23
08.312,26.69
08.328,19.79
08.343,13.54
08.359,8.59
08.375,5.01
08.390,2.32
08.406,-0.16
08.421,-3.09
08.437,-6.71
08.453,-10.92
08.468,-15.29
08.484,-19.38
08.500,-22.85
08.515,-25.65
08.531,-28.01
08.546,-30.27
08.562,-32.82
08.578,-35.95
08.593,-39.82
08.609,-44.42
08.625,-49.53
08.640,-54.57
08.656,-58.78
08.671,-61.18
08.687,-60.86
08.703,-57.24
08.718,-50.24
08.734,-40.34
08.750,-28.48
08.765,-15.85
08.781,-3.6
08.796,7.38
08.812,16.49
08.828,23.47
08.843,28.43
08.859,31.7
08.875,33.81
08.890,35.29
08.906,36.55
08.921,37.8
08.937,39.05
08.953,40.28
08.968,41.4
08.984,42.3
09.000,42.84
09.015,42.84
09.031,42.11
09.046,40.62
09.062,38.46
09.078,35.78
09.093,32.73
09.109,29.25
09.125,25.12
09.140,20.18
09.156,14.49
09.171,8.54
09.187,3.04
09.203,-1.29
09.218,-4.15
09.234,-5.72
09.250,-6.6
09.265,-7.47
09.281,-8.97
09.296,-11.47
09.312,-15.12
09.328,-19.84
09.343,-25.26
09.359,-30.68
09.375,-35.14
09.390,-37.54
09.406,-36.99
09.421,-33.12
09.437,-26.27
09.453,-17.39
09.468,-7.67
09.484,1.75
09.500,10.1
09.515,17.04
09.531,22.5
09.546,26.55
09.562,29.3
09.578,30.8
09.593,31.17
09.609,30.69
09.625,29.83
09.640,29.1
09.656,28.88
09.671,29.23
09.687,29.83
09.703,30.22
09.718,29.99
09.734,28.97
09.750,27.31
09.765,25.31
09.781,23.27
09.796,21.34
09.812,19.47
09.828,17.5
09.843,15.22
09.859,12.53
09.875,9.44
09.890,6.08
09.906,2.63
09.921,-0.72
09.937,-3.87
09.953,-6.86
09.968,-9.89
09.984,-13.2
10.000,-16.92
10.015,-21.03
10.031,-25.34
10.046,-29.48
10.062,-32.96
10.078,-35.16
10.093,-35.44
10.109,-33.2
10.125,-28.1
10.140,-20.34
10.156,-10.63
10.171,-0.12
10.187,9.96
10.203,18.76
10.218,25.95
10.234,31.68
10.250,36.3
10.265,40.03
10.281,42.87
10.296,44.62
10.312,45.09
10.328,44.27
10.343,42.37
10.359,39.79
10.375,36.82
10.390,33.65
10.406,30.26
10.421,26.5
10.437,22.2
10.453,17.28
10.468,11.95
10.484,6.64
10.500,1.95
10.515,-1.77
10.531,-4.59
10.546,-7.04
10.562,-9.82
10.578,-13.32
10.593,-17.26
10.609,-20.92
10.625,-23.52
10.640,-24.8
10.656,-25.29
10.671,-25.97
10.687,-27.75
10.703,-30.94
10.718,-35.14
10.734,-39.63
10.750,-43.83
10.765,-47.52
10.781,-50.67
10.796,-53.03
10.812,-53.96
10.828,-52.53
10.843,-48.07
10.859,-40.47
10.875,-30.56
10.890,-19.77
10.906,-9.65
10.921,-1.4
10.937,4.51
10.953,8.25
10.968,10.31
10.984,11.19
11.000,11.14
11.015,10.11
11.031,8.02
11.046,5.07
11.062,1.81
11.078,-0.94
11.093,-2.54
11.109,-2.77
11.125,-2.01
11.140,-1.01
11.156,-0.45
11.171,-0.5
11.187,-0.82
11.203,-0.83
11.218,-0.11
11.234,1.2
11.250,2.53
11.265,3.09
11.281,2.38
11.296,0.41
11.312,-2.4
11.328,-5.48
11.343,-8.44
11.359,-11.24
11.375,-14.11
11.390,-17.39
11.406,-21.36
11.421,-26.13
11.437,-31.69
11.453,-37.84
11.468,-44.19
11.484,-50.1
11.500,-54.65
11.515,-56.76
11.531,-55.49
11.546,-50.39
11.562,-41.69
11.578,-30.21
11.593,-17.25
11.609,-4.13
11.625,8.16
11.640,19.06
11.656,28.41
11.671,36.25
11.687,42.56
11.703,47.19
11.718,50.09
11.734,51.33
11.750,51.34
11.765,50.91
11.781,50.89
11.796,51.91
11.812,54.12
11.828,57.11
11.843,60.17
11.859,62.59
11.875,63.83
11.890,63.75
11.906,62.43
11.921,60.1
11.937,56.97
11.953,53.27
11.968,49.24
11.984,45.05
12.000,40.8
12.015,36.41
12.031,31.66
12.046,26.35
12.062,20.38
12.078,13.98
12.093,7.53
12.109,1.38
12.125,-4.39
12.140,-10.06
12.156,-16.15
12.171,-23.06
12.187,-30.68
12.203,-38.33
12.218,-44.75
12.234,-48.62
12.250,-49.11
12.265,-46.2
12.281,-40.71
12.296,-34.03
12.312,-27.52
12.328,-22.19
12.343,-18.59
12.359,-16.91
12.375,-17.45
12.390,-20.32
12.406,-25.27
12.421,-31.16
12.437,-36.03
12.453,-37.72
12.468,-34.86
12.484,-27.68
12.500,-18.11
12.515,-8.86
12.531,-2.21
12.546,1.13
12.562,2.17
12.578,2.89
12.593,5.02
12.609,9.12
12.625,14.44
12.640,19.54
12.656,23.15
12.671,24.72
12.687,24.44
12.703,22.83
12.718,20.25
12.734,16.83
12.750,12.45
12.765,7.11
12.781,1.17
12.796,-4.78
12.812,-10.08
12.828,-14.47
12.843,-18.12
12.859,-21.45
12.875,-24.9
12.890,-28.42
12.906,-31.36
12.921,-32.59
12.937,-30.75
12.953,-24.82
12.968,-14.61
12.984,-0.95
13.000,14.44
13.015,29.33
13.031,41.59
13.046,49.64
13.062,52.69
13.078,50.79
13.093,44.71
13.109,35.77
13.125,25.65
13.140,16.12
13.156,8.7
13.171,4.31
13.187,3.2
13.203,5.11
13.218,9.56
13.234,16.17
13.250,24.68
13.265,34.79
13.281,45.81
13.296,56.63
13.312,65.82
13.328,72.17
13.343,75.14
13.359,74.86
13.375,72.05
13.390,67.51
13.406,62.0
13.421,56.18
13.437,50.75
13.453,46.37
13.468,43.37
13.484,41.28
13.500,38.65
13.515,33.32
13.531,23.13
13.546,6.81
13.562,-15.34
13.578,-41.16
13.593,-66.96
13.609,-88.37
13.625,-101.42
13.640,-103.67
13.656,-95.03
13.671,-77.96
13.687,-56.79
13.703,-36.43
13.718,-20.72
13.734,-11.4
13.750,-7.9
13.765,-8.26
13.781,-10.38
13.796,-13.06
13.812,-16.2
13.828,-20.22
13.843,-25.21
13.859,-30.27
13.875,-33.74
13.890,-33.9
13.906,-29.96
13.921,-22.49
13.937,-13.22
13.953,-4.31
13.968,2.56
13.984,6.74
14.000,8.48
14.015,8.39
14.031,6.95
14.046,4.17
14.062,-0.26
14.078,-6.5
14.093,-14.17
14.109,-22.32
14.125,-29.74
14.140,-35.48
14.156,-39.24
14.171,-41.38
14.187,-42.64
14.203,-43.84
14.218,-45.59
14.234,-48.36
14.250,-52.38
14.265,-57.71
14.281,-64.05
14.296,-70.66
14.312,-76.27
14.328,-79.42
14.343,-78.76
14.359,-73.47
14.375,-63.72
14.390,-50.47
14.406,-35.35
14.421,-20.08
14.437,-6.06
14.453,5.91
14.468,15.56
14.484,22.98
14.500,28.44
14.515,32.16
14.531,34.4
14.546,35.52
14.562,36.02
14.578,36.44
14.593,37.15
14.609,38.15
14.625,38.99
14.640,39.05
14.656,37.76
14.671,34.99
14.687,31.14
14.703,26.96
14.718,23.21
14.734,20.38
14.750,18.5
14.765,17.22
14.781,16.09
14.796,14.77
14.812,13.15
14.828,11.37
14.843,9.64
14.859,8.05
14.875,6.54
14.890,5.03
14.906,3.54
14.921,2.27
14.937,1.54
14.953,1.53
14.968,2.22
14.984,3.32
15.000,4.48
15.015,5.45
15.031,6.22
15.046,6.95
15.062,7.8
15.078,8.71
15.093,9.36
15.109,9.27
15.125,8.03
15.140,5.53
15.156,2.08
15.171,-1.72
15.187,-5.13
15.203,-7.45
15.218,-8.25
15.234,-7.42
15.250,-5.05
15.265,-1.41
15.281,3.2
15.296,8.46
15.312,13.94
15.328,19.07
15.343,23.24
15.359,25.91
15.375,26.76
15.390,25.82
15.406,23.49
15.421,20.31
15.437,16.84
15.453,13.47
15.468,10.39
15.484,7.63
15.500,5.13
15.515,2.79
15.531,0.48
15.546,-1.87
15.562,-4.35
15.578,-7.09
15.593,-10.31
15.609,-14.31
15.625,-19.39
15.640,-25.7
15.656,-32.96
15.671,-40.45
15.687,-47.0
15.703,-51.31
15.718,-52.25
15.734,-49.15
15.750,-41.99
15.765,-31.43
15.781,-18.57
15.796,-4.8
15.812,8.48
15.828,20.01
15.843,28.85
15.859,34.57
15.875,37.21
15.890,37.26
15.906,35.52
15.921,32.87
15.937,30.12
15.953,27.87
15.968,26.43
15.984,25.91
16.000,26.16
16.015,26.96
16.031,27.93
16.046,28.65
16.062,28.8
16.078,28.25
16.093,27.18
16.109,26.05
16.125,25.37
16.140,25.46
16.156,26.2
16.171,26.92
16.187,26.65
16.203,24.47
16.218,19.87
16.234,12.99
16.250,4.51
16.265,-4.71
16.281,-13.94
16.296,-22.9
16.312,-31.67
16.328,-40.5
16.343,-49.51
16.359,-58.55
16.375,-67.06
16.390,-74.22
16.406,-79.0
16.421,-80.37
16.437,-77.59
16.453,-70.4
16.468,-59.27
16.484,-45.43
16.500,-30.68
16.515,-16.87
16.531,-5.45
16.546,2.92
16.562,8.34
16.578,11.44
16.593,12.96
16.609,13.5
16.625,13.42
16.640,13.06
16.656,12.88
16.671,13.56
16.687,15.8
16.703,20.1
16.718,26.45
16.734,34.22
16.750,42.27
16.765,49.12
16.781,53.45
16.796,54.34
16.812,51.46
16.828,45.13
16.843,36.2
16.859,25.85
16.875,15.32
16.890,5.64
16.906,-2.56
16.921,-8.99
16.937,-13.72
16.953,-17.0
16.968,-19.17
16.984,-20.58
17.000,-21.65
17.015,-22.85
17.031,-24.74
17.046,-27.69
17.062,-31.83
17.078,-36.87
17.093,-42.21
17.109,-46.99
17.125,-50.37
17.140,-51.68
17.156,-50.54
17.171,-46.95
17.187,-41.28
17.203,-34.15
17.218,-26.31
17.234,-18.36
17.250,-10.63
17.265,-3.14
17.281,4.27
17.296,11.63
17.312,18.72
17.328,24.99
17.343,29.84
17.359,32.94
17.375,34.45
17.390,34.99
17.406,35.37
17.421,36.2
17.437,37.59
17.453,39.21
17.468,40.4
17.484,40.66
17.500,39.86
17.515,38.36
17.531,36.71
17.546,35.3
17.562,33.99
17.578,32.13
17.593,28.78
17.609,23.14
17.625,14.98
17.640,4.7
17.656,-6.75
17.671,-18.37
17.687,-29.5
17.703,-39.88
17.718,-49.57
17.734,-58.52
17.750,-66.34
17.765,-72.26
17.781,-75.57
17.796,-75.93
17.812,-73.66
17.828,-69.58
17.843,-64.56
17.859,-59.08
17.875,-53.03
17.890,-45.98
17.906,-37.58
17.921,-27.91
17.937,-17.57
17.953,-7.37
17.968,1.93
17.984,9.95
18.000,16.52
18.015,21.54
18.031,24.83
18.046,26.3
18.062,26.11
18.078,24.83
18.093,23.35
18.109,22.49
18.125,22.74
18.140,24.04
18.156,26.05
18.171,28.48
18.187,31.47
18.203,35.55
18.218,41.14
18.234,48.1
18.250,55.26
18.265,60.61
18.281,61.87
18.296,57.51
18.312,47.39
18.328,33.06
18.343,17.3
18.359,3.22
18.375,-6.74
18.390,-11.59
18.406,-11.83
18.421,-9.13
18.437,-5.68
18.453,-3.54
18.468,-4.15
18.484,-8.12
18.500,-15.22
18.515,-24.49
18.531,-34.46
18.546,-43.51
18.562,-50.06
18.578,-52.84
18.593,-51.22
18.609,-45.23
18.625,-35.73
18.640,-24.24
18.656,-12.51
18.671,-2.09
18.687,6.2
18.703,12.5
18.718,17.72
18.734,22.94
18.750,28.84
18.765,35.23
18.781,41.2
18.796,45.51
18.812,47.26
18.828,46.2
18.843,42.61
18.859,37.14
18.875,30.45
18.890,23.16
18.906,15.99
18.921,9.83
18.937,5.61
18.953,4.03
18.968,5.14
18.984,8.11
19.000,11.45
19.015,13.45
19.031,12.79
19.046,8.98
19.062,2.41
19.078,-5.86
19.093,-14.67
19.109,-23.18
19.125,-31.15
19.140,-38.83
19.156,-46.61
19.171,-54.7
19.187,-62.7
19.203,-69.58
19.218,-73.88
19.234,-74.14
19.250,-69.35
19.265,-59.38
19.281,-45.0
19.296,-27.77
19.312,-9.67
19.328,7.4
19.343,22.05
19.359,33.62
19.375,42.09
19.390,47.99
19.406,51.9
19.421,54.33
19.437,55.51
19.453,55.42
19.468,54.16
19.484,52.05
19.500,49.75
19.515,48.08
19.531,47.65
19.546,48.53
19.562,50.31
19.578,52.27
19.593,53.81
19.609,54.72
19.625,55.03
19.640,54.76
19.656,53.61
19.671,50.89
19.687,45.81
19.703,37.97
19.718,27.64
19.734,15.76
19.750,3.62
19.765,-7.7
19.781,-17.71
19.796,-26.47
19.812,-34.32
19.828,-41.68
19.843,-48.71
19.859,-55.46
19.875,-62.0
19.890,-68.32
19.906,-74.35
19.921,-79.7
19.937,-83.55
19.953,-84.9
19.968,-82.8
19.984,-76.86
20.000,-67.51
20.015,-55.95
20.031,-43.7
20.046,-32.19
20.062,-22.31
20.078,-14.34
20.093,-8.19
20.109,-3.59
20.125,-0.28
20.140,1.92
20.156,3.34
20.171,4.42
20.187,5.69
20.203,7.65
20.218,10.48
20.234,13.94
20.250,17.42
20.265,20.07
20.281,21.1
20.296,20.1
20.312,17.12
20.328,12.67
20.343,7.44
20.359,2.14
20.375,-2.82
20.390,-7.39
20.406,-11.73
20.421,-16.05
20.437,-20.24
20.453,-24.0
20.468,-26.85
20.484,-28.39
20.500,-28.53
20.515,-27.62
20.531,-26.36
20.546,-25.55
20.562,-25.92
20.578,-27.83
20.593,-31.27
20.609,-35.79
20.625,-40.6
20.640,-44.66
20.656,-46.93
20.671,-46.51
20.687,-42.9
20.703,-36.18
20.718,-26.93
20.734,-16.09
20.750,-4.64
20.765,6.54
20.781,16.82
20.796,25.82
20.812,33.34
20.828,39.34
20.843,43.86
20.859,47.02
20.875,49.16
20.890,50.64
20.906,51.86
20.921,53.06
20.937,54.3
20.953,55.45
20.968,56.28
20.984,56.48
21.000,55.9
21.015,54.59
21.031,52.84
21.046,51.2
21.062,50.29
21.078,50.54
21.093,52.03
21.109,54.3
21.125,56.43
21.140,57.28
21.156,55.88
21.171,51.76
21.187,45.04
21.203,36.21
21.218,25.77
21.234,13.91
21.250,0.52
21.265,-14.55
21.281,-31.07
21.296,-48.21
21.312,-64.42
21.328,-77.86
21.343,-86.78
21.359,-90.01
21.375,-87.2
21.390,-78.84
21.406,-66.13
21.421,-50.72
21.437,-34.4
21.453,-18.78
21.468,-5.02
21.484,6.23
21.500,14.8
21.515,20.88
21.531,24.75
21.546,26.71
21.562,27.04
21.578,26.09
21.593,24.36
21.609,22.38
21.625,20.71
21.640,19.64
21.656,19.18
21.671,19.04
21.687,18.81
21.703,18.2
21.718,17.11
21.734,15.6
21.750,13.74
21.765,11.47
21.781,8.59
21.796,4.89
21.812,0.32
21.828,-4.86
21.843,-10.22
21.859,-15.34
21.875,-20.03
21.890,-24.39
21.906,-28.7
21.921,-33.18
21.937,-37.81
21.953,-42.42
21.968,-46.79
21.984,-50.69
22.000,-53.95
22.015,-56.28
22.031,-57.16
22.046,-55.88
22.062,-51.86
22.078,-44.93
22.093,-35.55
22.109,-24.76
22.125,-13.7
22.140,-3.3
22.156,5.98
22.171,14.07
22.187,21.0
22.203,26.77
22.218,31.17
22.234,34.07
22.250,35.54
22.265,35.96
22.281,35.85
22.296,35.73
22.312,35.88
22.328,36.38
22.343,37.13
22.359,37.96
22.375,38.66
22.390,38.93
22.406,38.54
22.421,37.34
22.437,35.35
22.453,32.76
22.468,29.74
22.484,26.29
22.500,22.15
22.515,16.98
22.531,10.55
22.546,3.07
22.562,-4.93
22.578,-12.72
22.593,-19.72
22.609,-25.76
22.625,-31.12
22.640,-36.26
22.656,-41.57
22.671,-47.04
22.687,-52.15
22.703,-55.97
22.718,-57.41
22.734,-55.51
22.750,-49.8
22.765,-40.51
22.781,-28.52
22.796,-15.17
22.812,-1.88
22.828,10.21
22.843,20.46
22.859,28.74
22.875,35.2
22.890,40.07
22.906,43.47
22.921,45.39
22.937,45.88
22.953,45.12
22.968,43.43
22.984,41.24
23.000,38.86
23.015,36.45
23.031,34.01
23.046,31.45
23.062,28.78
23.078,26.09
23.093,23.56
23.109,21.4
23.125,19.7
23.140,18.37
23.156,17.18
23.171,15.84
23.187,14.01
23.203,11.47
23.218,8.07
23.234,3.84
23.250,-1.03
23.265,-6.23
23.281,-11.43
23.296,-16.39
23.312,-21.02
23.328,-25.44
23.343,-29.9
23.359,-34.7
23.375,-40.08
23.390,-46.08
23.406,-52.43
23.421,-58.48
23.437,-63.25
23.453,-65.51
23.468,-64.23
23.484,-58.97
23.500,-50.05
23.515,-38.64
23.531,-26.26
23.546,-14.37
23.562,-3.87
23.578,4.92
23.593,12.17
23.609,18.11
23.625,22.74
23.640,25.92
23.656,27.43
23.671,27.34
23.687,26.15
23.703,24.63
23.718,23.52
23.734,23.28
23.750,23.89
23.765,24.91
23.781,25.78
23.796,26.01
23.812,25.43
23.828,24.17
23.843,22.53
23.859,20.84
23.875,19.26
23.890,17.69
23.906,15.87
23.921,13.49
23.937,10.39
23.953,6.67
23.968,2.69
23.984,-1.08
24.000,-4.3
24.015,-6.88
24.031,-9.1
24.046,-11.4
24.062,-14.22
24.078,-17.79
24.093,-22.09
24.109,-26.88
24.125,-31.76
24.140,-36.19
24.156,-39.42
24.171,-40.62
24.187,-38.93
24.203,-33.81
24.218,-25.28
24.234,-14.01
24.250,-1.23
24.265,11.64
24.281,23.25
24.296,32.76
24.312,39.79
24.328,44.33
24.343,46.61
24.359,46.81
24.375,45.18
24.390,41.97
24.406,37.64
24.421,32.74
24.437,27.92
24.453,23.67
24.468,20.23
24.484,17.59
24.500,15.48
24.515,13.69
24.531,12.13
24.546,10.91
24.562,10.17
24.578,9.96
24.593,10.09
24.609,10.09
24.625,9.45
24.640,7.69
24.656,4.72
24.671,0.77
24.687,-3.65
24.703,-8.0
24.718,-11.93
24.734,-15.35
24.750,-18.47
24.765,-21.61
24.781,-25.09
24.796,-29.15
24.812,-33.82
24.828,-38.91
24.843,-43.87
24.859,-47.85
24.875,-49.78
24.890,-48.75
24.906,-44.25
24.921,-36.45
24.937,-26.19
24.953,-14.71
24.968,-3.31
24.984,7.07
25.000,15.88
25.015,22.98
25.031,28.39
25.046,32.12
25.062,34.24
25.078,34.89
25.093,34.44
25.109,33.43
25.125,32.42
25.140,31.84
25.156,31.8
25.171,32.13
25.187,32.41
25.203,32.24
25.218,31.38
25.234,29.87
25.250,27.94
25.265,25.9
25.281,23.91
25.296,21.9
25.312,19.6
25.328,16.67
25.343,13.0
25.359,8.65
25.375,3.98
25.390,-0.64
25.406,-4.94
25.421,-8.96
25.437,-12.94
25.453,-17.21
25.468,-22.03
25.484,-27.49
25.500,-33.56
25.515,-40.07
25.531,-46.66
25.546,-52.7
25.562,-57.21
25.578,-59.03
25.593,-57.15
25.609,-51.18
25.625,-41.57
25.640,-29.6
25.656,-16.94
25.671,-5.05
25.687,5.18
25.703,13.58
25.718,20.4
25.734,26.03
25.750,30.53
25.765,33.81
25.781,35.64
25.796,36.04
25.812,35.37
25.828,34.22
25.843,33.22
25.859,32.67
25.875,32.5
25.890,32.29
25.906,31.59
25.921,30.1
25.937,27.9
25.953,25.33
25.968,22.78
25.984,20.42
26.000,18.16
26.015,15.68
26.031,12.65
26.046,8.92
26.062,4.59
26.078,-0.08
26.093,-4.74
26.109,-9.15
26.125,-13.21
26.140,-16.88
26.156,-20.19
26.171,-23.22
26.187,-26.1
26.203,-28.99
26.218,-32.19
26.234,-35.95
26.250,-40.47
26.265,-45.67
26.281,-51.08
26.296,-55.84
26.312,-58.82
26.328,-58.96
26.343,-55.54
26.359,-48.62
26.375,-39.0
26.390,-28.01
26.406,-17.09
26.421,-7.32
26.437,0.85
26.453,7.55
26.468,13.12
26.484,17.85
26.500,21.72
26.515,24.49
26.531,25.93
26.546,26.05
26.562,25.23
26.578,24.02
26.593,22.95
26.609,22.28
26.625,21.89
26.640,21.43
26.656,20.58
26.671,19.23
26.687,17.51
26.703,15.73
26.718,14.13
26.734,12.75
26.750,11.43
26.765,9.87
26.781,7.72
26.796,4.74
26.812,0.88
26.828,-3.75
26.843,-8.87
26.859,-14.09
26.875,-19.02
26.890,-23.36
26.906,-27.05
26.921,-30.26
26.937,-33.41
26.953,-36.87
26.968,-40.95
26.984,-45.74
27.000,-51.0
27.015,-56.19
27.031,-60.4
27.046,-62.58
27.062,-61.76
27.078,-57.36
27.093,-49.52
27.109,-39.04
27.125,-27.29
27.140,-15.68
27.156,-5.25
27.171,3.5
27.187,10.56
27.203,16.15
27.218,20.45
27.234,23.45
27.250,25.07
27.265,25.29
27.281,24.37
27.296,22.82
27.312,21.29
27.328,20.33
27.343,20.17
27.359,20.68
27.375,21.44
27.390,21.99
27.406,22.04
27.421,21.6
27.437,20.91
27.453,20.31
27.468,19.91
27.484,19.52
27.500,18.7
27.515,16.95
27.531,14.03
27.546,10.11
27.562,5.65
27.578,1.27
27.593,-2.54
27.609,-5.64
27.625,-8.12
27.640,-10.36
27.656,-12.75
27.671,-15.64
27.687,-19.24
27.703,-23.6
27.718,-28.48
27.734,-33.28
27.750,-37.07
27.765,-38.68
27.781,-37.16
27.796,-32.06
27.812,-23.69
27.828,-13.05
27.843,-1.51
27.859,9.68
27.875,19.66
27.890,28.01
27.906,34.69
27.921,39.76
27.937,43.16
27.953,44.92
27.968,45.1
27.984,44.02
28.000,42.3
28.015,40.55
28.031,39.26
28.046,38.54
28.062,38.17
28.078,37.68
28.093,36.66
28.109,34.91
28.125,32.6
28.140,30.15
28.156,27.94
28.171,26.13
28.187,24.56
28.203,22.82
28.218,20.47
28.234,17.25
28.250,13.22
28.265,8.74
28.281,4.28
28.296,0.22
28.312,-3.32
28.328,-6.52
28.343,-9.77
28.359,-13.51
28.375,-18.09
28.390,-23.7
28.406,-30.18
28.421,-37.04
28.437,-43.41
28.453,-48.18
28.468,-50.19
28.484,-48.61
28.500,-43.24
28.515,-34.59
28.531,-23.83
28.546,-12.41
28.562,-1.61
28.578,7.78
28.593,15.45
28.609,21.5
28.625,26.15
28.640,29.48
28.656,31.49
28.671,32.13
28.687,31.51
28.703,30.0
28.718,28.13
28.734,26.48
28.750,25.38
28.765,24.88
28.781,24.65
28.796,24.21
28.812,23.19
28.828,21.5
28.843,19.35
28.859,17.14
28.875,15.19
28.890,13.57
28.906,12.07
28.921,10.27
28.937,7.8
28.953,4.48
28.968,0.4
28.984,-4.18
29.000,-8.91
29.015,-13.46
29.031,-17.63
29.046,-21.4
29.062,-24.85
29.078,-28.27
29.093,-32.01
29.109,-36.46
29.125,-41.87
29.140,-48.16
29.156,-54.76
29.171,-60.66
29.187,-64.52
29.203,-65.09
29.218,-61.55
29.234,-53.82
29.250,-42.62
29.265,-29.27
29.281,-15.35
29.296,-2.26
29.312,9.13
29.328,18.43
29.343,25.69
29.359,31.12
29.375,34.89
29.390,37.03
29.406,37.55
29.421,36.52
29.437,34.27
29.453,31.36
29.468,28.48
29.484,26.17
29.500,24.69
29.515,23.94
29.531,23.57
29.546,23.18
29.562,22.53
29.578,21.57
29.593,20.48
29.609,19.33
29.625,18.07
29.640,16.38
29.656,13.83
29.671,10.06
29.687,5.02
29.703,-1.0
29.718,-7.42
29.734,-13.59
29.750,-19.1
29.765,-23.86
29.781,-28.05
29.796,-32.03
29.812,-36.1
29.828,-40.41
29.843,-45.04
29.859,-49.96
29.875,-55.19
29.890,-60.64
29.906,-65.93
29.921,-70.2
29.937,-72.32
29.953,-71.05
29.968,-65.65
29.984,-56.21
30.000,-43.73
30.015,-29.88
30.031,-16.37
30.046,-4.53
30.062,5.1
30.078,12.48
30.093,17.94
30.109,21.78
30.125,24.08
30.140,24.84
30.156,24.23
30.171,22.7
30.187,20.97
30.203,19.79
30.218,19.57
30.234,20.19
30.250,21.12
30.265,21.66
30.281,21.32
30.296,20.12
30.312,18.43
30.328,16.73
30.343,15.24
30.359,13.81
30.375,12.02
30.390,9.46
30.406,5.84
30.421,1.24
30.437,-4.13
30.453,-9.84
30.468,-15.35
30.484,-20.0
30.500,-23.11
30.515,-24.32
30.531,-23.83
30.546,-22.5
30.562,-21.53
30.578,-21.98
30.593,-24.08
30.609,-26.98
30.625,-28.98
30.640,-28.16
30.656,-23.2
30.671,-13.88
30.687,-1.07
30.703,13.67
30.718,28.79
30.734,43.35
30.750,57.27
30.765,71.19
30.781,85.96
30.796,102.04
30.812,119.23
30.828,136.56
30.843,152.67
30.859,166.31
30.875,176.68
30.890,183.6
30.906,187.43
30.921,188.91
30.937,189.18
30.953,189.77
30.968,192.5
30.984,198.84
31.000,209.1
31.015,221.68
31.031,233.02
31.046,238.26
31.062,232.93
31.078,214.2
31.093,181.85
31.109,138.33
31.125,88.09
31.140,36.35
31.156,-11.74
31.171,-51.49
31.187,-79.03
31.203,-91.6
31.218,-88.6
31.234,-72.68
31.250,-50.19
31.265,-30.14
31.281,-21.65
31.296,-30.67
31.312,-57.62
31.328,-97.04
31.343,-139.64
31.359,-175.91
31.375,-199.55
31.390,-208.95
31.406,-206.61
31.421,-196.89
31.437,-183.69
31.453,-169.26
31.468,-154.4
31.484,-139.38
31.500,-124.56
31.515,-110.62
31.531,-97.92
31.546,-86.32
31.562,-74.91
31.578,-62.73
31.593,-49.62
31.609,-36.84
31.625,-26.9
31.640,-22.87
31.656,-27.29
31.671,-41.16
31.687,-63.69
31.703,-92.49
31.718,-124.43
31.734,-156.38
31.750,-185.9
31.765,-211.22
31.781,-231.13
31.796,-244.77
31.812,-251.43
31.828,-250.74
31.843,-242.87
31.859,-228.68
31.875,-209.81
31.890,-188.41
31.906,-166.79
31.921,-146.94
31.937,-130.21
31.953,-116.97
31.968,-106.69
31.984,-98.02
32.000,-89.22
32.015,-78.67
32.031,-65.27
32.046,-48.77
32.062,-29.8
32.078,-9.61
32.093,10.35
32.109,28.69
32.125,44.46
32.140,57.14
32.156,66.64
32.171,73.2
32.187,77.27
32.203,79.41
32.218,80.18
32.234,80.13
32.250,79.72
32.265,79.26
32.281,78.98
32.296,78.99
32.312,79.3
32.328,79.88
32.343,80.62
32.359,81.34
32.375,81.84
32.390,81.85
32.406,81.14
32.421,79.54
32.437,77.08
32.453,73.91
32.468,70.36
32.484,66.74
32.500,63.31
32.515,60.16
32.531,57.25
32.546,54.45
32.562,51.68
32.578,48.89
32.593,46.05
32.609,43.15
32.625,40.17
32.640,37.08
32.656,33.92
32.671,30.86
32.687,28.16
32.703,26.09
32.718,24.8
32.734,24.22
32.750,24.11
32.765,24.1
32.781,23.79
32.796,22.95
32.812,21.52
32.828,19.67
32.843,17.7
32.859,15.91
32.875,14.44
32.890,13.28
32.906,12.22
32.921,10.91
32.937,9.06
32.953,6.56
32.968,3.54
32.984,0.35
33.000,-2.6
33.015,-5.08
33.031,-7.11
33.046,-8.94
33.062,-11.02
33.078,-13.69
33.093,-17.09
33.109,-21.07
33.125,-25.28
33.140,-29.31
33.156,-32.95
33.171,-36.21
33.187,-39.3
33.203,-42.67
33.218,-46.85
33.234,-52.41
33.250,-59.69
33.265,-68.64
33.281,-78.5
33.296,-87.79
33.312,-94.54
33.328,-96.71
33.343,-92.95
33.359,-82.96
33.375,-67.76
33.390,-49.23
33.406,-29.62
33.421,-10.92
33.437,5.45
33.453,18.77
33.468,28.84
33.484,35.71
33.500,39.67
33.515,41.19
33.531,40.86
33.546,39.52
33.562,38.03
33.578,37.09
33.593,37.0
33.609,37.66
33.625,38.61
33.640,39.32
33.656,39.45
33.671,38.94
33.687,37.98
33.703,36.87
33.718,35.73
33.734,34.42
33.750,32.66
33.765,30.12
33.781,26.72
33.796,22.6
33.812,18.2
33.828,14.01
33.843,10.46
33.859,7.76
33.875,5.79
33.890,4.14
33.906,2.24
33.921,-0.48
33.937,-4.38
33.953,-9.38
33.968,-14.85
33.984,-19.72
34.000,-22.65
34.015,-22.46
34.031,-18.46
34.046,-10.68
34.062,0.18
34.078,12.96
34.093,26.37
34.109,39.26
34.125,50.75
34.140,60.27
34.156,67.47
34.171,72.26
34.187,74.79
34.203,75.58
34.218,75.47
34.234,75.47
34.250,76.43
34.265,78.82
34.281,82.64
34.296,87.42
34.312,92.64
34.328,97.91
34.343,103.2
34.359,108.79
34.375,115.05
34.390,122.16
34.406,129.9
34.421,137.71
34.437,144.93
34.453,151.04
34.468,156.04
34.484,160.41
34.500,165.03
34.515,170.85
34.531,178.57
34.546,188.32
34.562,199.56
34.578,210.89
34.593,220.18
34.609,224.81
34.625,222.21
34.640,210.51
34.656,189.04
34.671,158.7
34.687,121.57
34.703,80.46
34.718,38.11
34.734,-3.26
34.750,-42.18
34.765,-77.73
34.781,-109.1
34.796,-135.34
34.812,-155.39
34.828,-168.41
34.843,-174.16
34.859,-173.34
34.875,-167.44
34.890,-158.34
34.906,-147.85
34.921,-137.26
34.937,-127.24
34.953,-117.96
34.968,-109.36
34.984,-101.37
35.000,-93.85
35.015,-86.31
35.031,-77.93
35.046,-67.67
35.062,-54.65
35.078,-38.66
35.093,-20.45
35.109,-1.61
35.125,15.84
35.140,30.1
35.156,40.01
35.171,45.28
35.187,46.31
35.203,43.89
35.218,38.84
35.234,31.71
35.250,22.66
35.265,11.48
35.281,-2.33
35.296,-19.1
35.312,-38.48
35.328,-59.02
35.343,-78.12
35.359,-92.64
35.375,-100.0
35.390,-99.07
35.406,-90.73
35.421,-77.5
35.437,-62.77
35.453,-49.7
35.468,-40.53
35.484,-36.24
35.500,-36.61
35.515,-40.45
35.531,-45.83
35.546,-50.68
35.562,-53.29
35.578,-52.87
35.593,-49.88
35.609,-45.82
35.625,-42.47
35.640,-41.15
35.656,-42.23
35.671,-45.18
35.687,-49.15
35.703,-53.4
35.718,-57.63
35.734,-61.75
35.750,-65.71
35.765,-69.18
35.781,-71.69
35.796,-72.97
35.812,-72.97
35.828,-72.03
35.843,-70.56
35.859,-68.76
35.875,-66.5
35.890,-63.37
35.906,-58.96
35.921,-53.11
35.937,-46.13
35.953,-38.62
35.968,-31.34
35.984,-24.86
36.000,-19.33
36.015,-14.55
36.031,-10.01
36.046,-5.2
36.062,0.23
36.078,6.29
36.093,12.71
36.109,19.01
36.125,24.66
36.140,29.26
36.156,32.58
36.171,34.72
36.187,36.04
36.203,37.02
36.218,38.13
36.234,39.75
36.250,42.03
36.265,44.94
36.281,48.32
36.296,51.97
36.312,55.66
36.328,59.19
36.343,62.35
36.359,64.89
36.375,66.64
36.390,67.53
36.406,67.72
36.421,67.4
36.437,66.65
36.453,65.23
36.468,62.43
36.484,57.18
36.500,48.41
36.515,35.53
36.531,18.73
36.546,-0.76
36.562,-20.96
36.578,-39.52
36.593,-54.19
36.609,-63.16
36.625,-65.33
36.640,-60.52
36.656,-49.67
36.671,-34.92
36.687,-19.3
36.703,-6.12
36.718,1.86
36.734,3.21
36.750,-1.89
36.765,-11.97
36.781,-24.91
36.796,-38.72
36.812,-52.1
36.828,-64.39
36.843,-75.37
36.859,-84.91
36.875,-92.67
36.890,-98.21
36.906,-101.06
36.921,-100.89
36.937,-97.73
36.953,-92.02
36.968,-84.54
36.984,-76.31
37.000,-68.26
37.015,-61.04
37.031,-54.97
37.046,-50.02
37.062,-46.05
37.078,-42.95
37.093,-40.63
37.109,-38.99
37.125,-37.89
37.140,-37.16
37.156,-36.62
37.171,-36.18
37.187,-35.71
37.203,-34.93
37.218,-33.41
37.234,-30.5
37.250,-25.57
37.265,-18.19
37.281,-8.21
37.296,4.19
37.312,18.56
37.328,34.2
37.343,50.2
37.359,65.34
37.375,78.34
37.390,88.08
37.406,93.92
37.421,95.95
37.437,94.89
37.453,91.8
37.468,87.6
37.484,82.8
37.500,77.41
37.515,71.24
37.531,64.15
37.546,56.4
37.562,48.6
37.578,41.44
37.593,35.45
37.609,30.68
37.625,26.74
37.640,22.95
37.656,18.65
37.671,13.46
37.687,7.32
37.703,0.52
37.718,-6.39
37.734,-12.65
37.750,-17.24
37.765,-18.99
37.781,-16.88
37.796,-10.58
37.812,-0.87
37.828,10.11
37.843,19.44
37.859,24.32
37.875,23.16
37.890,16.04
37.906,4.62
37.921,-8.73
37.937,-21.86
37.953,-33.48
37.968,-43.33
37.984,-51.69
38.000,-59.09
38.015,-65.85
38.031,-72.17
38.046,-78.03
38.062,-83.34
38.078,-87.73
38.093,-90.55
38.109,-91.07
38.125,-88.59
38.140,-82.84
38.156,-74.16
38.171,-63.42
38.187,-51.75
38.203,-40.3
38.218,-29.85
38.234,-20.65
38.250,-12.44
38.265,-4.64
38.281,3.33
38.296,11.51
38.312,19.08
38.328,24.55
38.343,26.17
38.359,22.85
38.375,14.67
38.390,3.14
38.406,-9.31
38.421,-20.05
38.437,-27.05
38.453,-29.23
38.468,-26.44
38.484,-19.22
38.500,-8.51
38.515,4.5
38.531,18.46
38.546,31.96
38.562,43.81
38.578,53.25
38.593,60.22
38.609,65.29
38.625,69.35
38.640,73.29
38.656,77.71
38.671,82.74
38.687,88.17
38.703,93.54
38.718,98.27
38.734,101.79
38.750,103.62
38.765,103.36
38.781,100.8
38.796,95.94
38.812,88.86
38.828,79.64
38.843,68.25
38.859,54.51
38.875,38.39
38.890,20.33
38.906,1.49
38.921,-16.32
38.937,-31.16
38.953,-41.73
38.968,-48.07
38.984,-51.56
39.000,-54.23
39.015,-57.68
39.031,-62.15
39.046,-66.3
39.062,-67.69
39.078,-63.88
39.093,-53.26
39.109,-35.65
39.125,-12.16
39.140,15.22
39.156,44.15
39.171,72.02
39.187,96.12
39.203,113.67
39.218,122.19
39.234,119.92
39.250,106.25
39.265,81.89
39.281,48.71
39.296,9.47
39.312,-32.51
39.328,-73.71
39.343,-110.71
39.359,-140.61
39.375,-161.4
39.390,-172.22
39.406,-173.18
39.421,-165.09
39.437,-149.1
39.453,-126.47
39.468,-98.81
39.484,-68.3
39.500,-37.83
39.515,-10.58
39.531,10.59
39.546,23.94
39.562,29.18
39.578,27.37
39.593,20.58
39.609,11.35
39.625,2.31
39.640,-4.08
39.656,-5.82
39.671,-2.0
39.687,6.7
39.703,17.75
39.718,27.36
39.734,31.82
39.750,28.92
39.765,18.98
39.781,4.63
39.796,-10.15
39.812,-21.43
39.828,-26.44
39.843,-23.9
39.859,-13.92
39.875,2.18
39.890,22.16
39.906,43.01
39.921,61.34
39.937,74.06
39.953,79.36
39.968,77.25
39.984,69.63
40.000,59.55
40.015,50.22
40.031,44.09
40.046,42.45
40.062,45.61
40.078,53.2
40.093,64.76
40.109,79.71
40.125,97.32
40.140,116.38
40.156,135.07
40.171,150.95
40.187,161.53
40.203,164.97
40.218,160.69
40.234,149.68
40.250,134.14
40.265,116.95
40.281,100.71
40.296,87.06
40.312,76.19
40.328,66.72
40.343,56.12
40.359,41.56
40.375,20.95
40.390,-6.13
40.406,-38.1
40.421,-71.82
40.437,-103.65
40.453,-130.74
40.468,-151.98
40.484,-168.06
40.500,-181.02
40.515,-193.21
40.531,-206.24
40.546,-220.04
40.562,-232.69
40.578,-240.71
40.593,-240.15
40.609,-228.19
40.625,-204.29
40.640,-170.39
40.656,-129.91
40.671,-85.91
40.687,-39.86
40.703,8.35
40.718,59.08
40.734,110.95
40.750,160.0
40.765,200.45
40.781,226.91
40.796,236.58
40.812,230.25
40.828,211.57
40.843,185.16
40.859,155.08
40.875,124.06
40.890,93.8
40.906,65.63
40.921,40.5
40.937,18.76
40.953,-0.14
40.968,-17.58
40.984,-35.16
41.000,-53.74
41.015,-73.01
41.031,-91.69
41.046,-107.83
41.062,-119.48
41.078,-125.04
41.093,-123.52
41.109,-115.15
41.125,-101.65
41.140,-86.34
41.156,-73.48
41.171,-66.98
41.187,-68.95
41.203,-78.95
41.218,-94.09
41.234,-110.13
41.250,-123.01
41.265,-129.96
41.281,-130.01
41.296,-123.76
41.312,-112.89
41.328,-99.47
41.343,-85.5
41.359,-72.51
41.375,-61.25
41.390,-51.71
41.406,-43.18
41.421,-34.71
41.437,-25.63
41.453,-15.96
41.468,-6.33
41.484,2.21
41.500,8.86
41.515,13.5
41.531,16.74
41.546,19.71
41.562,23.44
41.578,28.51
41.593,34.78
41.609,41.52
41.625,47.76
41.640,52.64
41.656,55.57
41.671,56.38
41.687,55.24
41.703,52.59
41.718,48.84
41.734,44.34
41.750,39.28
41.765,33.87
41.781,28.44
41.796,23.52
41.812,19.74
41.828,17.6
41.843,17.21
41.859,18.12
41.875,19.45
41.890,20.11
41.906,19.28
41.921,16.7
41.937,12.71
41.953,8.11
41.968,3.77
41.984,0.19
42.000,-2.74
42.015,-5.7
42.031,-9.54
42.046,-14.79
42.062,-21.26
42.078,-28.0
42.093,-33.59
42.109,-36.86
42.125,-37.29
42.140,-35.32
42.156,-32.14
42.171,-29.11
42.187,-27.3
42.203,-26.95
42.218,-27.45
42.234,-27.46
42.250,-25.36
42.265,-19.72
42.281,-9.77
42.296,4.35
42.312,21.6
42.328,40.3
42.343,58.57
42.359,74.66
42.375,87.15
42.390,94.98
42.406,97.5
42.421,94.69
42.437,87.45
42.453,77.63
42.468,67.52
42.484,59.02
42.500,52.7
42.515,47.34
42.531,40.42
42.546,29.42
42.562,13.17
42.578,-7.36
42.593,-29.21
42.609,-48.71
42.625,-62.86
42.640,-70.35
42.656,-71.63
42.671,-68.32
42.687,-62.31
42.703,-55.22
42.718,-48.18
42.734,-42.02
42.750,-37.49
42.765,-35.19
42.781,-35.61
42.796,-38.87
42.812,-44.72
42.828,-52.63
42.843,-61.98
42.859,-72.2
42.875,-82.87
42.890,-93.75
42.906,-104.59
42.921,-115.16
42.937,-125.1
42.953,-133.96
42.968,-141.39
42.984,-147.24
43.000,-151.67
43.015,-155.04
43.031,-157.71
43.046,-159.56
43.062,-159.84
43.078,-157.16
43.093,-149.95
43.109,-137.01
43.125,-118.05
43.140,-93.88
43.156,-66.32
43.171,-37.67
43.187,-10.1
43.203,14.7
43.218,35.77
43.234,52.79
43.250,65.82
43.265,75.2
43.281,81.37
43.296,84.91
43.312,86.51
43.328,86.95
43.343,87.0
43.359,87.2
43.375,87.79
43.390,88.64
43.406,89.38
43.421,89.64
43.437,89.3
43.453,88.46
43.468,87.42
43.484,86.4
43.500,85.35
43.515,84.06
43.531,82.17
43.546,79.42
43.562,75.82
43.578,71.59
43.593,67.08
43.609,62.5
43.625,57.84
43.640,52.9
43.656,47.51
43.671,41.58
43.687,35.31
43.703,28.98
43.718,22.93
43.734,17.29
43.750,11.91
43.765,6.44
43.781,0.43
43.796,-6.46
43.812,-14.32
43.828,-22.9
43.843,-31.48
43.859,-38.96
43.875,-43.98
43.890,-45.12
43.906,-41.3
43.921,-32.22
43.937,-18.47
43.953,-1.43
43.968,17.03
43.984,35.07
44.000,51.26
44.015,64.75
44.031,75.2
44.046,82.72
44.062,87.57
44.078,90.15
44.093,90.93
44.109,90.37
44.125,88.9
44.140,86.86
44.156,84.51
44.171,81.94
44.187,79.28
44.203,76.56
44.218,73.83
44.234,71.18
44.250,68.67
44.265,66.38
44.281,64.32
44.296,62.37
44.312,60.32
44.328,57.83
44.343,54.63
44.359,50.58
44.375,45.79
44.390,40.55
44.406,35.21
44.421,30.02
44.437,24.99
44.453,19.99
44.468,14.79
44.484,9.33
44.500,3.71
44.515,-1.77
44.531,-6.82
44.546,-11.28
44.562,-15.27
44.578,-19.12
44.593,-23.28
44.609,-28.12
44.625,-33.72
44.640,-39.73
44.656,-45.32
44.671,-49.32
44.687,-50.44
44.703,-47.65
44.718,-40.48
44.734,-29.21
44.750,-14.86
44.765,1.05
44.781,16.91
44.796,31.31
44.812,43.36
44.828,52.74
44.843,59.56
44.859,64.14
44.875,66.81
44.890,67.83
44.906,67.35
44.921,65.62
44.937,62.97
44.953,59.81
44.968,56.56
44.984,53.52
45.000,50.76
45.015,48.17
45.031,45.53
45.046,42.56
45.062,39.01
45.078,34.78
45.093,29.89
45.109,24.51
45.125,18.88
45.140,13.23
45.156,7.67
45.171,2.2
45.187,-3.29
45.203,-8.89
45.218,-14.54
45.234,-20.04
45.250,-25.11
45.265,-29.56
45.281,-33.36
45.296,-36.6
45.312,-39.48
45.328,-42.18
45.343,-44.93
45.359,-47.97
45.375,-51.59
45.390,-56.02
45.406,-61.22
45.421,-66.64
45.437,-71.18
45.453,-73.38
45.468,-71.83
45.484,-65.68
45.500,-54.99
45.515,-40.79
45.531,-24.77
45.546,-8.74
45.562,5.73
45.578,17.73
45.593,26.94
45.609,33.52
45.625,37.81
45.640,40.2
45.656,41.06
45.671,40.76
45.687,39.73
45.703,38.47
45.718,37.43
45.734,36.9
45.750,36.95
45.765,37.4
45.781,37.96
45.796,38.35
45.812,38.48
45.828,38.46
45.843,38.55
45.859,38.95
45.875,39.69
45.890,40.49
45.906,40.97
45.921,40.77
45.937,39.74
45.953,38.07
45.968,36.15
45.984,34.39
46.000,33.07
46.015,32.15
46.031,31.42
46.046,30.65
46.062,29.83
46.078,29.15
46.093,28.96
46.109,29.51
46.125,30.81
46.140,32.52
46.156,34.23
46.171,35.83
46.187,37.65
46.203,40.57
46.218,45.67
46.234,53.89
46.250,65.63
46.265,80.78
46.281,98.73
46.296,118.6
46.312,139.09
46.328,158.27
46.343,173.39
46.359,181.2
46.375,178.86
46.390,164.8
46.406,139.63
46.421,105.87
46.437,67.34
46.453,28.01
46.468,-8.82
46.484,-40.77
46.500,-66.29
46.515,-84.43
46.531,-94.82
46.546,-97.9
46.562,-95.1
46.578,-88.76
46.593,-81.57
46.609,-75.87
46.625,-72.92
46.640,-72.83
46.656,-74.67
46.671,-77.09
46.687,-78.85
46.703,-79.17
46.718,-77.95
46.734,-75.54
46.750,-72.53
46.765,-69.46
46.781,-66.72
46.796,-64.51
46.812,-62.93
46.828,-62.0
46.843,-61.7
46.859,-62.05
46.875,-63.06
46.890,-64.7
46.906,-66.78
46.921,-68.91
46.937,-70.31
46.953,-70.02
46.968,-67.07
46.984,-60.85
47.000,-51.42
47.015,-39.5
47.031,-26.28
47.046,-13.09
47.062,-1.05
47.078,9.19
47.093,17.36
47.109,23.5
47.125,27.71
47.140,30.02
47.156,30.39
47.171,28.76
47.187,25.21
47.203,19.98
47.218,13.59
47.234,6.63
47.250,-0.3
47.265,-6.73
47.281,-12.4
47.296,-17.21
47.312,-21.18
47.328,-24.4
47.343,-27.03
47.359,-29.26
47.375,-31.42
47.390,-33.91
47.406,-37.06
47.421,-41.13
47.437,-46.09
47.453,-51.62
47.468,-57.14
47.484,-62.01
47.500,-65.71
47.515,-68.07
47.531,-69.27
47.546,-69.76
47.562,-70.06
47.578,-70.64
47.593,-71.8
47.609,-73.67
47.625,-76.25
47.640,-79.42
47.656,-82.81
47.671,-85.73
47.687,-87.1
47.703,-85.79
47.718,-80.84
47.734,-71.93
47.750,-59.57
47.765,-44.95
47.781,-29.64
47.796,-15.12
47.812,-2.41
47.828,8.1
47.843,16.46
47.859,23.0
47.875,28.02
47.890,31.74
47.906,34.29
47.921,35.77
47.937,36.35
47.953,36.28
47.968,35.76
47.984,34.99
48.000,34.0
48.015,32.75
48.031,31.16
48.046,29.19
48.062,26.96
48.078,24.7
48.093,22.69
48.109,21.14
48.125,20.06
48.140,19.19
48.156,18.14
48.171,16.42
48.187,13.68
48.203,9.75
48.218,4.69
48.234,-1.13
48.250,-7.22
48.265,-13.04
48.281,-18.16
48.296,-22.27
48.312,-25.4
48.328,-27.83
48.343,-30.08
48.359,-32.66
48.375,-35.82
48.390,-39.38
48.406,-42.61
48.421,-44.47
48.437,-43.86
48.453,-39.94
48.468,-32.45
48.484,-21.75
48.500,-8.68
48.515,5.58
48.531,19.78
48.546,32.84
48.562,43.97
48.578,52.73
48.593,59.06
48.609,63.2
48.625,65.65
48.640,67.01
48.656,67.87
48.671,68.7
48.687,69.85
48.703,71.54
48.718,73.84
48.734,76.79
48.750,80.31
48.765,84.25
48.781,88.4
48.796,92.49
48.812,96.29
48.828,99.64
48.843,102.51
48.859,105.01
48.875,107.39
48.890,109.91
48.906,112.85
48.921,116.35
48.937,120.46
48.953,125.05
48.968,129.9
48.984,134.74
49.000,139.35
49.015,143.67
49.031,147.74
49.046,151.72
49.062,155.78
49.078,160.07
49.093,164.75
49.109,169.99
49.125,176.02
49.140,183.02
49.156,190.95
49.171,199.37
49.187,207.43
49.203,213.99
49.218,217.79
49.234,217.71
49.250,212.75
49.265,201.97
49.281,184.59
49.296,160.16
49.312,128.99
49.328,92.57
49.343,53.49
49.359,14.97
49.375,-19.91
49.390,-49.12
49.406,-72.05
49.421,-89.49
49.437,-103.07
49.453,-114.54
49.468,-125.18
49.484,-135.51
49.500,-145.4
49.515,-154.37
49.531,-162.01
49.546,-168.37
49.562,-174.03
49.578,-179.89
49.593,-186.77
49.609,-194.87
49.625,-203.47
49.640,-211.01
49.656,-215.45
49.671,-214.97
49.687,-208.52
49.703,-196.04
49.718,-178.54
49.734,-157.92
49.750,-136.57
49.765,-117.03
49.781,-101.46
49.796,-90.99
49.812,-85.27
49.828,-82.31
49.843,-78.93
49.859,-71.99
49.875,-59.82
49.890,-43.11
49.906,-24.97
49.921,-9.67
49.937,-0.85
49.953,-0.07
49.968,-6.22
49.984,-16.2
50.000,-26.22
50.015,-33.27
50.031,-35.79
50.046,-33.92
50.062,-28.95
50.078,-22.86
50.093,-17.81
50.109,-15.77
50.125,-17.97
50.140,-24.64
50.156,-34.81
50.171,-46.44
50.187,-57.0
50.203,-64.18
50.218,-66.65
50.234,-64.58
50.250,-59.59
50.265,-54.37
50.281,-51.75
50.296,-53.72
50.312,-60.72
50.328,-71.59
50.343,-84.06
50.359,-95.67
50.375,-104.65
50.390,-110.43
50.406,-113.59
50.421,-115.43
50.437,-117.49
50.453,-120.95
50.468,-126.29
50.484,-132.92
50.500,-139.17
50.515,-142.48
50.531,-140.23
50.546,-130.56
50.562,-113.27
50.578,-89.87
50.593,-63.19
50.609,-36.51
50.625,-12.64
50.640,6.71
50.656,20.95
50.671,30.34
50.687,35.69
50.703,37.93
50.718,38.09
50.734,37.02
50.750,35.44
50.765,33.74
50.781,32.05
50.796,30.27
50.812,28.09
50.828,25.26
50.843,21.64
50.859,17.29
50.875,12.52
50.890,7.75
50.906,3.35
50.921,-0.48
50.937,-3.78
50.953,-6.86
50.968,-10.13
50.984,-13.99
51.000,-18.7
51.015,-24.25
51.031,-30.46
51.046,-37.03
51.062,-43.71
51.078,-50.36
51.093,-57.06
51.109,-64.04
51.125,-71.49
51.140,-79.26
51.156,-86.6
51.171,-92.23
51.187,-94.58
51.203,-92.35
51.218,-84.9
51.234,-72.56
51.250,-56.47
51.265,-38.31
51.281,-19.77
51.296,-2.19
51.312,13.56
51.328,27.08
51.343,38.31
51.359,47.34
51.375,54.36
51.390,59.64
51.406,63.5
51.421,66.31
51.437,68.47
51.453,70.21
51.468,71.64
51.484,72.79
51.500,73.62
51.515,74.21
51.531,74.87
51.546,75.95
51.562,77.7
51.578,80.07
51.593,82.55
51.609,84.24
51.625,84.29
51.640,82.01
51.656,77.28
51.671,70.59
51.687,62.91
51.703,55.41
51.718,49.29
51.734,45.46
51.750,44.29
51.765,45.52
51.781,48.16
51.796,50.9
51.812,52.66
51.828,53.18
51.843,53.43
51.859,55.46
51.875,61.62
51.890,73.52
51.906,91.2
51.921,112.76
51.937,134.94
51.953,154.14
51.968,167.38
51.984,173.03
52.000,170.84
52.015,161.72
52.031,147.59
52.046,131.16
52.062,115.46
52.078,103.14
52.093,95.47
52.109,91.53
52.125,88.37
52.140,82.07
52.156,69.42
52.171,49.57
52.187,24.59
52.203,-1.34
52.218,-23.56
52.234,-38.78
52.250,-46.07
52.265,-46.78
52.281,-43.66
52.296,-39.84
52.312,-37.9
52.328,-39.37
52.343,-44.48
52.359,-52.01
52.375,-59.46
52.390,-63.59
52.406,-61.42
52.421,-51.58
52.437,-35.34
52.453,-16.65
52.468,-1.15
52.484,5.74
52.500,0.68
52.515,-16.57
52.531,-43.19
52.546,-74.22
52.562,-103.84
52.578,-126.48
52.593,-137.81
52.609,-135.59
52.625,-120.41
52.640,-96.02
52.656,-68.53
52.671,-44.73
52.687,-29.73
52.703,-25.23
52.718,-29.07
52.734,-36.49
52.750,-42.36
52.765,-43.37
52.781,-38.97
52.796,-30.97
52.812,-22.2
52.828,-15.08
52.843,-10.74
52.859,-8.92
52.875,-8.58
52.890,-8.57
52.906,-8.17
52.921,-7.07
52.937,-5.13
52.953,-2.15
52.968,2.15
52.984,7.93
53.000,14.76
53.015,21.37
53.031,25.99
53.046,26.9
53.062,23.34
53.078,16.03
53.093,7.06
53.109,-0.77
53.125,-4.8
53.140,-3.47
53.156,3.23
53.171,13.94
53.187,26.3
53.203,37.86
53.218,46.99
53.234,53.55
53.250,59.16
53.265,66.72
53.281,79.23
53.296,98.29
53.312,122.87
53.328,148.97
53.343,170.62
53.359,181.65
53.375,177.84
53.390,158.27
53.406,125.57
53.421,84.89
53.437,42.4
53.453,3.69
53.468,-27.36
53.484,-49.1
53.500,-62.17
53.515,-68.98
53.531,-72.93
53.546,-77.43
53.562,-84.92
53.578,-96.29
53.593,-110.9
53.609,-127.1
53.625,-142.96
53.640,-156.84
53.656,-167.71
53.671,-175.0
53.687,-178.65
53.703,-178.87
53.718,-175.95
53.734,-169.81
53.750,-159.51
53.765,-143.23
53.781,-118.9
53.796,-85.42
53.812,-43.94
53.828,1.61
53.843,45.42
53.859,81.45
53.875,105.58
53.890,116.82
53.906,117.11
53.921,110.01
53.937,99.17
53.953,87.41
53.968,76.76
53.984,69.11
54.000,66.43
54.015,70.22
54.031,80.37
54.046,94.24
54.062,106.96
54.078,113.0
54.093,108.48
54.109,92.69
54.125,68.3
54.140,39.92
54.156,12.08
54.171,-12.3
54.187,-32.36
54.203,-48.59
54.218,-61.89
54.234,-72.93
54.250,-82.28
54.265,-90.72
54.281,-99.63
54.296,-110.67
54.312,-125.07
54.328,-142.95
54.343,-162.9
54.359,-182.38
54.375,-198.59
54.390,-209.42
54.406,-214.01
54.421,-212.85
54.437,-207.31
54.453,-198.91
54.468,-188.78
54.484,-177.39
54.500,-164.85
54.515,-151.33
54.531,-137.43
54.546,-124.1
54.562,-112.47
54.578,-103.5
54.593,-97.77
54.609,-95.43
54.625,-96.04
54.640,-98.35
54.656,-100.15
54.671,-98.5
54.687,-90.52
54.703,-74.4
54.718,-50.42
54.734,-21.05
54.750,9.65
54.765,37.43
54.781,59.14
54.796,73.45
54.812,80.69
54.828,82.02
54.843,78.64
54.859,71.5
54.875,61.45
54.890,49.6
54.906,37.56
54.921,27.1
54.937,19.65
54.953,15.8
54.968,15.19
54.984,16.73
55.000,19.11
55.015,21.29
55.031,22.66
55.046,23.09
55.062,22.6
55.078,21.09
55.093,18.25
55.109,13.67
55.125,7.02
55.140,-1.58
55.156,-11.49
55.171,-21.72
55.187,-31.14
55.203,-38.94
55.218,-44.87
55.234,-49.28
55.250,-52.95
55.265,-56.76
55.281,-61.28
55.296,-66.4
55.312,-71.2
55.328,-74.07
55.343,-73.11
55.359,-66.72
55.375,-54.24
55.390,-36.18
55.406,-14.21
55.421,9.46
55.437,32.72
55.453,53.98
55.468,72.4
55.484,87.64
55.500,99.5
55.515,107.78
55.531,112.3
55.546,113.09
55.562,110.52
55.578,105.38
55.593,98.56
55.609,90.96
55.625,83.22
55.640,75.77
55.656,68.97
55.671,63.11
55.687,58.54
55.703,55.51
55.718,54.16
55.734,54.53
55.750,56.58
55.765,60.28
55.781,65.58
55.796,72.27
55.812,79.78
55.828,86.99
55.843,92.22
55.859,93.54
55.875,89.32
55.890,78.84
55.906,62.59
55.921,42.28
55.937,20.41
55.953,-0.18
55.968,-16.9
55.984,-27.6
56.000,-30.74
56.015,-25.55
56.031,-12.11
56.046,8.43
56.062,33.84
56.078,61.01
56.093,86.64
56.109,107.94
56.125,123.23
56.140,132.15
56.156,135.49
56.171,134.69
56.187,131.37
56.203,126.95
56.218,122.53
56.234,118.88
56.250,116.52
56.265,115.78
56.281,116.82
56.296,119.57
56.312,123.73
56.328,128.8
56.343,133.9
56.359,137.74
56.375,138.49
56.390,133.81
56.406,121.19
56.421,98.74
56.437,65.82
56.453,23.77
56.468,-24.11
56.484,-73.38
56.500,-119.57
56.515,-159.41
56.531,-191.51
56.546,-216.34
56.562,-235.56
56.578,-251.29
56.593,-265.42
56.609,-278.98
56.625,-291.71
56.640,-301.63
56.656,-305.14
56.671,-297.81
56.687,-275.82
56.703,-237.56
56.718,-184.81
56.734,-122.56
56.750,-57.78
56.765,2.64
56.781,53.64
56.796,92.84
56.812,120.21
56.828,137.23
56.843,145.93
56.859,148.45
56.875,147.1
56.890,144.33
56.906,142.52
56.921,143.37
56.937,147.2
56.953,152.81
56.968,157.84
56.984,159.74
57.000,156.83
57.015,148.96
57.031,137.4
57.046,124.17
57.062,111.13
57.078,99.38
57.093,89.24
57.109,80.54
57.125,73.01
57.140,66.43
57.156,60.54
57.171,54.86
57.187,48.84
57.203,42.14
57.218,34.98
57.234,28.29
57.250,23.52
57.265,22.21
57.281,25.46
57.296,33.39
57.312,44.96
57.328,57.87
57.343,68.98
57.359,74.97
57.375,73.33
57.390,63.21
57.406,45.91
57.421,24.54
57.437,3.2
57.453,-14.45
57.468,-26.28
57.484,-32.25
57.500,-34.19
57.515,-34.87
57.531,-36.96
57.546,-42.16
57.562,-50.77
57.578,-61.86
57.593,-73.66
57.609,-84.38
57.625,-92.79
57.640,-98.53
57.656,-102.15
57.671,-104.72
57.687,-107.34
57.703,-110.74
57.718,-115.07
57.734,-119.94
57.750,-124.56
57.765,-128.09
57.781,-129.81
57.796,-129.31
57.812,-126.47
57.828,-121.25
57.843,-113.67
57.859,-103.78
57.875,-91.82
57.890,-78.44
57.906,-64.72
57.921,-52.05
57.937,-41.71
57.953,-34.64
57.968,-31.13
57.984,-30.71
58.000,-32.17
58.015,-33.48
58.031,-32.12
58.046,-25.46
58.062,-11.51
58.078,10.4
58.093,39.3
58.109,72.82
58.125,107.85
58.140,141.43
58.156,171.25
58.171,195.92
58.187,214.65
58.203,227.15
58.218,233.37
58.234,233.66
58.250,228.99
58.265,221.01
58.281,212.05
58.296,204.59
58.312,200.48
58.328,200.04
58.343,201.55
58.359,201.39
58.375,195.05
58.390,178.88
58.406,151.57
58.421,114.78
58.437,72.7
58.453,30.52
58.468,-7.27
58.484,-38.01
58.500,-61.18
58.515,-77.88
58.531,-90.15
58.546,-100.23
58.562,-110.35
58.578,-122.42
58.593,-137.86
58.609,-157.26
58.625,-180.02
58.640,-204.2
58.656,-226.86
58.671,-244.71
58.687,-255.11
58.703,-257.01
58.718,-251.31
58.734,-240.35
58.750,-226.96
58.765,-213.14
58.781,-199.16
58.796,-183.32
58.812,-162.54
58.828,-133.63
58.843,-94.84
58.859,-47.13
58.875,5.1
58.890,54.67
58.906,93.33
58.921,114.17
58.937,113.78
58.953,93.28
58.968,57.63
58.984,13.71
59.000,-31.79
59.015,-73.94
59.031,-110.06
59.046,-139.22
59.062,-161.67
59.078,-178.43
59.093,-191.14
59.109,-201.93
59.125,-213.02
59.140,-225.85
59.156,-240.6
59.171,-256.16
59.187,-270.57
59.203,-282.01
59.218,-289.46
59.234,-292.94
59.250,-293.35
59.265,-292.05
59.281,-290.28
59.296,-288.8
59.312,-287.62
59.328,-285.77
59.343,-281.53
59.359,-272.8
59.375,-257.68
59.390,-235.12
59.406,-205.35
59.421,-169.77
59.437,-130.62
59.453,-90.35
59.468,-51.08
59.484,-14.43
59.500,18.56
59.515,47.39
59.531,71.89
59.546,92.33
59.562,109.31
59.578,123.65
59.593,136.12
59.609,147.21
59.625,157.02
59.640,165.27
59.656,171.45
59.671,175.16
59.687,176.27
59.703,175.04
59.718,172.1
59.734,168.32
59.750,164.55
59.765,161.36
59.781,158.83
59.796,156.49
59.812,153.55
59.828,149.26
59.843,143.29
59.859,135.91
59.875,127.88
59.890,120.06
59.906,112.89
59.921,106.12
59.937,98.95
59.953,90.32
59.968,79.49
59.984,66.47
