timestamp,value
00.000,26.57
00.015,34.27
00.031,39.92
00.046,43.38
00.062,44.82
00.078,44.62
00.093,43.37
00.109,41.56
00.125,39.54
00.140,37.5
00.156,35.54
00.171,33.74
00.187,32.29
00.203,31.37
00.218,31.14
00.234,31.57
00.250,32.38
00.265,33.11
00.281,33.22
00.296,32.32
00.312,30.29
00.328,27.38
00.343,24.07
00.359,20.79
00.375,17.69
00.390,14.51
00.406,10.72
00.421,5.82
00.437,-0.31
00.453,-7.34
00.468,-14.52
00.484,-21.07
00.500,-26.51
00.515,-30.9
00.531,-34.76
00.546,-38.95
00.562,-44.17
00.578,-50.79
00.593,-58.61
00.609,-66.79
00.625,-73.91
00.640,-78.2
00.656,-77.96
00.671,-72.0
00.687,-60.16
00.703,-43.41
00.718,-23.61
00.734,-3.02
00.750,16.35
00.765,33.2
00.781,46.99
00.796,57.79
00.812,65.89
00.828,71.62
00.843,75.22
00.859,76.98
00.875,77.29
00.890,76.58
00.906,75.26
00.921,73.57
00.937,71.66
00.953,69.59
00.968,67.47
00.984,65.51
01.000,63.92
01.015,62.76
01.031,61.84
01.046,60.76
01.062,59.03
01.078,56.29
01.093,52.43
01.109,47.58
01.125,42.0
01.140,35.98
01.156,29.73
01.171,23.39
01.187,17.06
01.203,10.73
01.218,4.41
01.234,-1.93
01.250,-8.29
01.265,-14.64
01.281,-20.82
01.296,-26.66
01.312,-31.98
01.328,-36.72
01.343,-41.15
01.359,-45.75
01.375,-51.07
01.390,-57.46
01.406,-64.66
01.421,-71.58
01.437,-76.47
01.453,-77.31
01.468,-72.56
01.484,-61.73
01.500,-45.67
01.515,-26.25
01.531,-5.82
01.546,13.56
01.562,30.61
01.578,44.8
01.593,56.25
01.609,65.25
01.625,72.09
01.640,77.01
01.656,80.18
01.671,81.83
01.687,82.34
01.703,82.16
01.718,81.66
01.734,81.19
01.750,80.9
01.765,80.83
01.781,80.9
01.796,81.03
01.812,81.05
01.828,80.75
01.843,79.91
01.859,78.16
01.875,75.25
01.890,71.0
01.906,65.43
01.921,58.7
01.937,51.13
01.953,42.96
01.968,34.46
01.984,25.83
02.000,17.26
02.015,8.93
02.031,0.94
02.046,-6.68
02.062,-13.96
02.078,-20.86
02.093,-27.2
02.109,-32.67
02.125,-36.96
02.140,-39.95
02.156,-41.75
02.171,-42.55
02.187,-42.15
02.203,-39.83
02.218,-34.48
02.234,-25.09
02.250,-11.42
02.265,5.5
02.281,23.4
02.296,39.48
02.312,51.07
02.328,56.42
02.343,55.06
02.359,47.63
02.375,35.56
02.390,20.72
02.406,5.04
02.421,-9.67
02.437,-21.85
02.453,-30.42
02.468,-34.82
02.484,-35.03
02.500,-31.46
02.515,-24.89
02.531,-16.41
02.546,-7.25
02.562,1.44
02.578,8.8
02.593,14.43
02.609,18.45
02.625,21.34
02.640,23.61
02.656,25.46
02.671,26.62
02.687,26.44
02.703,24.29
02.718,19.78
02.734,13.05
02.750,4.66
02.765,-4.62
02.781,-14.11
02.796,-23.4
02.812,-32.4
02.828,-41.4
02.843,-50.79
02.859,-61.0
02.875,-72.35
02.890,-84.75
02.906,-97.66
02.921,-109.96
02.937,-119.98
02.953,-125.77
02.968,-125.76
02.984,-119.19
03.000,-106.6
03.015,-89.81
03.031,-71.35
03.046,-53.62
03.062,-38.27
03.078,-25.74
03.093,-15.53
03.109,-6.8
03.125,1.1
03.140,8.32
03.156,14.51
03.171,19.23
03.187,22.26
03.203,23.72
03.218,24.08
03.234,23.84
03.250,23.38
03.265,22.89
03.281,22.41
03.296,21.85
03.312,21.21
03.328,20.56
03.343,19.99
03.359,19.61
03.375,19.4
03.390,19.24
03.406,18.91
03.421,18.13
03.437,16.55
03.453,13.98
03.468,10.37
03.484,5.9
03.500,0.93
03.515,-4.1
03.531,-8.87
03.546,-13.26
03.562,-17.43
03.578,-21.69
03.593,-26.38
03.609,-31.79
03.625,-38.12
03.640,-45.39
03.656,-53.57
03.671,-62.31
03.687,-70.76
03.703,-77.59
03.718,-81.1
03.734,-79.73
03.750,-72.72
03.765,-60.49
03.781,-44.57
03.796,-27.21
03.812,-10.51
03.828,4.2
03.843,16.57
03.859,26.94
03.875,35.73
03.890,42.92
03.906,48.05
03.921,50.41
03.937,49.57
03.953,45.75
03.968,39.77
03.984,32.76
04.000,25.81
04.015,19.65
04.031,14.55
04.046,10.56
04.062,7.73
04.078,6.14
04.093,5.94
04.109,7.1
04.125,9.33
04.140,12.04
04.156,14.46
04.171,15.79
04.187,15.44
04.203,13.19
04.218,9.22
04.234,4.02
04.250,-1.78
04.265,-7.65
04.281,-13.28
04.296,-18.62
04.312,-23.93
04.328,-29.54
04.343,-35.78
04.359,-42.94
04.375,-51.15
04.390,-60.36
04.406,-70.16
04.421,-79.63
04.437,-87.4
04.453,-91.81
04.468,-91.33
04.484,-85.06
04.500,-73.21
04.515,-57.01
04.531,-38.43
04.546,-19.65
04.562,-2.46
04.578,12.07
04.593,23.6
04.609,32.27
04.625,38.4
04.640,42.24
04.656,43.97
04.671,43.82
04.687,42.2
04.703,39.78
04.718,37.39
04.734,35.77
04.750,35.28
04.765,35.76
04.781,36.71
04.796,37.52
04.812,37.85
04.828,37.79
04.843,37.74
04.859,38.23
04.875,39.44
04.890,41.09
04.906,42.44
04.921,42.61
04.937,40.88
04.953,36.98
04.968,31.06
04.984,23.68
05.000,15.48
05.015,6.95
05.031,-1.6
05.046,-10.07
05.062,-18.57
05.078,-27.43
05.093,-37.06
05.109,-47.83
05.125,-59.74
05.140,-72.09
05.156,-83.45
05.171,-91.77
05.187,-94.91
05.203,-91.42
05.218,-81.13
05.234,-65.26
05.250,-46.07
05.265,-26.27
05.281,-8.13
05.296,6.91
05.312,18.31
05.328,26.26
05.343,31.23
05.359,33.68
05.375,34.0
05.390,32.55
05.406,29.81
05.421,26.53
05.437,23.5
05.453,21.44
05.468,20.79
05.484,21.53
05.500,23.43
05.515,26.07
05.531,29.08
05.546,32.17
05.562,35.18
05.578,37.92
05.593,40.08
05.609,41.27
05.625,41.01
05.640,38.97
05.656,34.96
05.671,29.06
05.687,21.56
05.703,13.01
05.718,4.08
05.734,-4.63
05.750,-12.62
05.765,-19.66
05.781,-25.78
05.796,-31.26
05.812,-36.53
05.828,-42.1
05.843,-48.39
05.859,-55.63
05.875,-63.57
05.890,-71.32
05.906,-77.39
05.921,-79.98
05.937,-77.54
05.953,-69.31
05.968,-55.65
05.984,-38.02
06.000,-18.47
06.015,0.91
06.031,18.54
06.046,33.55
06.062,45.63
06.078,54.84
06.093,61.36
06.109,65.38
06.125,67.18
06.140,67.12
06.156,65.7
06.171,63.48
06.187,60.88
06.203,58.15
06.218,55.37
06.234,52.47
06.250,49.41
06.265,46.19
06.281,42.87
06.296,39.57
06.312,36.36
06.328,33.28
06.343,30.27
06.359,27.29
06.375,24.3
06.390,21.33
06.406,18.41
06.421,15.51
06.437,12.42
06.453,8.85
06.468,4.54
06.484,-0.63
06.500,-6.44
06.515,-12.57
06.531,-18.61
06.546,-24.36
06.562,-29.89
06.578,-35.45
06.593,-41.4
06.609,-47.96
06.625,-55.22
06.640,-63.09
06.656,-71.29
06.671,-79.2
06.687,-85.76
06.703,-89.52
06.718,-88.89
06.734,-82.66
06.750,-70.56
06.765,-53.49
06.781,-33.32
06.796,-12.34
06.812,7.43
06.828,24.73
06.843,39.01
06.859,50.33
06.875,58.89
06.890,64.87
06.906,68.42
06.921,69.76
06.937,69.44
06.953,68.08
06.968,66.4
06.984,64.76
07.000,63.23
07.015,61.63
07.031,59.74
07.046,57.47
07.062,55.03
07.078,52.73
07.093,50.76
07.109,49.11
07.125,47.44
07.140,45.31
07.156,42.32
07.171,38.36
07.187,33.58
07.203,28.31
07.218,22.78
07.234,17.14
07.250,11.41
07.265,5.42
07.281,-1.01
07.296,-8.11
07.312,-15.94
07.328,-24.33
07.343,-32.88
07.359,-41.02
07.375,-48.18
07.390,-53.94
07.406,-58.24
07.421,-61.38
07.437,-63.86
07.453,-66.18
07.468,-68.54
07.484,-70.7
07.500,-71.96
07.515,-71.42
07.531,-68.14
07.546,-61.67
07.562,-52.21
07.578,-40.64
07.593,-28.34
07.609,-16.71
07.625,-6.78
07.640,1.02
07.656,6.8
07.671,10.96
07.687,13.85
07.703,15.64
07.718,16.36
07.734,16.11
07.750,15.28
07.765,14.53
07.781,14.61
07.796,16.0
07.812,18.75
07.828,22.34
07.843,25.92
07.859,28.56
07.875,29.53
07.890,28.5
07.906,25.55
07.921,21.04
07.937,15.55
07.953,9.71
07.968,4.05
07.984,-0.94
08.000,-5.05
08.015,-8.34
08.031,-11.12
08.046,-13.81
08.062,-16.74
08.078,-20.0
08.093,-23.55
08.109,-27.3
08.125,-31.17
08.140,-35.21
08.156,-39.57
08.171,-44.39
08.187,-49.74
08.203,-55.64
08.218,-62.07
08.234,-69.03
08.250,-76.29
08.265,-83.09
08.281,-88.1
08.296,-89.65
08.312,-86.19
08.328,-76.95
08.343,-62.41
08.359,-44.24
08.375,-24.79
08.390,-6.36
08.406,9.49
08.421,22.09
08.437,31.58
08.453,38.45
08.468,43.1
08.484,45.74
08.500,46.34
08.515,44.98
08.531,42.0
08.546,38.06
08.562,33.94
08.578,30.36
08.593,27.67
08.609,25.75
08.625,24.13
08.640,22.3
08.656,19.92
08.671,16.99
08.687,13.76
08.703,10.46
08.718,7.07
08.734,3.26
08.750,-1.59
08.765,-8.12
08.781,-16.62
08.796,-27.06
08.812,-39.04
08.828,-52.02
08.843,-65.59
08.859,-79.56
08.875,-94.02
08.890,-109.22
08.906,-125.43
08.921,-142.82
08.937,-161.46
08.953,-181.28
08.968,-202.03
08.984,-223.13
09.000,-243.64
09.015,-262.36
09.031,-277.81
09.046,-288.54
09.062,-293.33
09.078,-291.39
09.093,-282.45
09.109,-266.76
09.125,-244.8
09.140,-217.13
09.156,-184.19
09.171,-146.49
09.187,-104.93
09.203,-61.06
09.218,-17.19
09.234,23.88
09.250,59.56
09.265,88.0
09.281,108.65
09.296,122.1
09.312,129.76
09.328,133.26
09.343,134.18
09.359,133.87
09.375,133.38
09.390,133.43
09.406,134.41
09.421,136.3
09.437,138.74
09.453,141.36
09.468,144.03
09.484,147.26
09.500,152.44
09.515,161.43
09.531,175.99
09.546,196.93
09.562,223.2
09.578,251.87
09.593,278.63
09.609,299.04
09.625,310.1
09.640,311.22
09.656,304.17
09.671,292.11
09.687,278.17
09.703,264.06
09.718,249.75
09.734,233.76
09.750,214.19
09.765,189.97
09.781,161.59
09.796,131.31
09.812,102.71
09.828,79.97
09.843,67.0
09.859,66.6
09.875,79.61
09.890,104.28
09.906,136.18
09.921,169.04
09.937,196.22
09.953,212.54
09.968,215.59
09.984,205.94
10.000,186.37
10.015,160.48
10.031,131.47
10.046,101.57
10.062,72.21
10.078,44.44
10.093,19.24
10.109,-2.67
10.125,-21.23
10.140,-36.9
10.156,-50.37
10.171,-62.0
10.187,-71.51
10.203,-78.34
10.218,-82.25
10.234,-83.95
10.250,-85.08
10.265,-87.86
10.281,-94.11
10.296,-104.51
10.312,-118.34
10.328,-133.8
10.343,-148.75
10.359,-161.48
10.375,-171.28
10.390,-178.36
10.406,-183.74
10.421,-188.74
10.437,-194.51
10.453,-201.62
10.468,-209.74
10.484,-217.65
10.500,-223.31
10.515,-224.57
10.531,-219.64
10.546,-207.88
10.562,-189.98
10.578,-167.82
10.593,-143.84
10.609,-120.26
10.625,-98.68
10.640,-79.8
10.656,-63.74
10.671,-50.32
10.687,-39.41
10.703,-30.88
10.718,-24.65
10.734,-20.48
10.750,-17.97
10.765,-16.65
10.781,-16.09
10.796,-16.08
10.812,-16.6
10.828,-17.78
10.843,-19.75
10.859,-22.4
10.875,-25.46
10.890,-28.44
10.906,-30.87
10.921,-32.46
10.937,-33.3
10.953,-33.9
10.968,-34.97
10.984,-37.14
11.000,-40.66
11.015,-45.28
11.031,-50.37
11.046,-55.22
11.062,-59.28
11.078,-62.44
11.093,-64.9
11.109,-67.11
11.125,-69.62
11.140,-73.02
11.156,-77.8
11.171,-84.17
11.187,-91.79
11.203,-99.48
11.218,-105.34
11.234,-107.06
11.250,-102.79
11.265,-91.88
11.281,-75.23
11.296,-54.98
11.312,-33.72
11.328,-13.62
11.343,4.06
11.359,19.12
11.375,31.91
11.390,42.83
11.406,51.98
11.421,59.16
11.437,64.13
11.453,66.9
11.468,67.89
11.484,67.78
11.500,67.29
11.515,66.9
11.531,66.67
11.546,66.42
11.562,65.88
11.578,64.97
11.593,63.9
11.609,63.05
11.625,62.75
11.640,63.07
11.656,63.76
11.671,64.39
11.687,64.59
11.703,64.24
11.718,63.57
11.734,62.98
11.750,62.88
11.765,63.49
11.781,64.7
11.796,66.19
11.812,67.49
11.828,68.24
11.843,68.19
11.859,67.28
11.875,65.63
11.890,63.39
11.906,60.76
11.921,57.81
11.937,54.59
11.953,51.14
11.968,47.58
11.984,44.08
12.000,40.84
12.015,38.04
12.031,35.66
12.046,33.67
12.062,31.83
12.078,29.92
12.093,27.74
12.109,25.21
12.125,22.35
12.140,19.23
12.156,16.04
12.171,12.91
12.187,9.97
12.203,7.23
12.218,4.57
12.234,1.79
12.250,-1.33
12.265,-4.94
12.281,-9.05
12.296,-13.45
12.312,-17.93
12.328,-22.26
12.343,-26.45
12.359,-30.71
12.375,-35.43
12.390,-40.93
12.406,-47.31
12.421,-54.31
12.437,-61.43
12.453,-68.14
12.468,-74.06
12.484,-79.21
12.500,-83.93
12.515,-88.77
12.531,-94.31
12.546,-100.93
12.562,-108.68
12.578,-117.08
12.593,-125.05
12.609,-130.89
12.625,-132.65
12.640,-128.55
12.656,-117.61
12.671,-100.12
12.687,-77.62
12.703,-52.44
12.718,-27.1
12.734,-3.68
12.750,16.6
12.765,33.28
12.781,46.34
12.796,56.04
12.812,62.56
12.828,66.19
12.843,67.35
12.859,66.76
12.875,65.18
12.890,63.35
12.906,61.72
12.921,60.26
12.937,58.78
12.953,56.95
12.968,54.73
12.984,52.37
13.000,50.32
13.015,48.96
13.031,48.36
13.046,48.25
13.062,48.07
13.078,47.32
13.093,45.63
13.109,43.09
13.125,40.04
13.140,36.95
13.156,34.22
13.171,32.04
13.187,30.36
13.203,28.88
13.218,27.13
13.234,24.67
13.250,21.28
13.265,17.27
13.281,13.54
13.296,11.51
13.312,12.76
13.328,18.54
13.343,29.26
13.359,44.28
13.375,62.02
13.390,80.39
13.406,97.41
13.421,111.76
13.437,123.05
13.453,131.69
13.468,138.47
13.484,143.89
13.500,147.8
13.515,149.3
13.531,147.08
13.546,139.92
13.562,127.13
13.578,108.82
13.593,85.79
13.609,59.63
13.625,32.47
13.640,6.89
13.656,-14.52
13.671,-29.72
13.687,-37.76
13.703,-38.96
13.718,-34.7
13.734,-26.95
13.750,-17.5
13.765,-7.7
13.781,1.68
13.796,10.0
13.812,16.63
13.828,20.75
13.843,21.63
13.859,18.93
13.875,12.71
13.890,3.48
13.906,-8.12
13.921,-21.43
13.937,-35.83
13.953,-50.67
13.968,-65.28
13.984,-78.92
14.000,-90.75
14.015,-99.91
14.031,-105.56
14.046,-106.9
14.062,-103.35
14.078,-94.83
14.093,-82.13
14.109,-67.05
14.125,-52.13
14.140,-39.87
14.156,-31.83
14.171,-27.89
14.187,-26.32
14.203,-24.58
14.218,-20.38
14.234,-12.81
14.250,-2.55
14.265,8.43
14.281,17.94
14.296,24.19
14.312,26.42
14.328,24.63
14.343,19.21
14.359,10.75
14.375,-0.16
14.390,-12.9
14.406,-26.72
14.421,-40.92
14.437,-54.9
14.453,-68.14
14.468,-80.2
14.484,-90.7
14.500,-99.18
14.515,-105.37
14.531,-109.4
14.546,-111.94
14.562,-114.1
14.578,-117.11
14.593,-121.71
14.609,-127.54
14.625,-133.19
14.640,-136.39
14.656,-134.89
14.671,-127.27
14.687,-113.45
14.703,-94.62
14.718,-72.88
14.734,-50.48
14.750,-29.19
14.765,-10.24
14.781,5.81
14.796,18.7
14.812,28.24
14.828,34.36
14.843,37.19
14.859,37.22
14.875,35.28
14.890,32.39
14.906,29.44
14.921,27.05
14.937,25.43
14.953,24.31
14.968,23.24
14.984,21.68
15.000,19.2
15.015,15.67
15.031,11.23
15.046,6.2
15.062,0.92
15.078,-4.36
15.093,-9.67
15.109,-15.11
15.125,-20.8
15.140,-26.77
15.156,-32.8
15.171,-38.61
15.187,-44.06
15.203,-49.24
15.218,-54.44
15.234,-59.92
15.250,-65.51
15.265,-70.45
15.281,-73.42
15.296,-72.87
15.312,-67.62
15.328,-57.26
15.343,-42.33
15.359,-24.17
15.375,-4.58
15.390,14.7
15.406,32.24
15.421,47.08
15.437,58.76
15.453,67.15
15.468,72.36
15.484,74.72
15.500,74.65
15.515,72.76
15.531,69.7
15.546,66.16
15.562,62.7
15.578,59.69
15.593,57.19
15.609,54.92
15.625,52.45
15.640,49.32
15.656,45.3
15.671,40.48
15.687,35.2
15.703,29.88
15.718,24.83
15.734,20.11
15.750,15.57
15.765,10.95
15.781,6.06
15.796,0.78
15.812,-4.96
15.828,-11.27
15.843,-18.3
15.859,-25.99
15.875,-33.87
15.890,-40.94
15.906,-45.88
15.921,-47.36
15.937,-44.51
15.953,-37.2
15.968,-26.16
15.984,-12.71
16.000,1.6
16.015,15.46
16.031,27.95
16.046,38.58
16.062,47.15
16.078,53.7
16.093,58.3
16.109,61.09
16.125,62.25
16.140,61.98
16.156,60.6
16.171,58.46
16.187,55.93
16.203,53.27
16.218,50.68
16.234,48.2
16.250,45.77
16.265,43.22
16.281,40.45
16.296,37.43
16.312,34.19
16.328,30.83
16.343,27.38
16.359,23.88
16.375,20.35
16.390,16.85
16.406,13.44
16.421,10.17
16.437,6.99
16.453,3.69
16.468,0.03
16.484,-4.12
16.500,-8.51
16.515,-12.46
16.531,-14.89
16.546,-14.71
16.562,-11.19
16.578,-4.3
16.593,5.23
16.609,16.18
16.625,27.24
16.640,37.35
16.656,45.88
16.671,52.57
16.687,57.34
16.703,60.06
16.718,60.61
16.734,58.91
16.750,55.07
16.765,49.44
16.781,42.57
16.796,35.1
16.812,27.73
16.828,21.11
16.843,15.87
16.859,12.46
16.875,11.15
16.890,11.86
16.906,14.05
16.921,16.9
16.937,19.47
16.953,20.98
16.968,21.03
16.984,19.57
17.000,16.67
17.015,12.45
17.031,6.88
17.046,-0.22
17.062,-8.94
17.078,-19.12
17.093,-30.21
17.109,-41.32
17.125,-51.43
17.140,-59.74
17.156,-65.81
17.171,-69.73
17.187,-71.85
17.203,-72.5
17.218,-71.55
17.234,-68.41
17.250,-62.19
17.265,-52.21
17.281,-38.43
17.296,-21.66
17.312,-3.33
17.328,14.88
17.343,31.66
17.359,46.29
17.375,58.56
17.390,68.53
17.406,76.25
17.421,81.65
17.437,84.62
17.453,85.13
17.468,83.42
17.484,80.07
17.500,75.75
17.515,71.11
17.531,66.69
17.546,62.73
17.562,59.28
17.578,56.25
17.593,53.47
17.609,50.83
17.625,48.3
17.640,45.82
17.656,43.33
17.671,40.61
17.687,37.31
17.703,33.05
17.718,27.66
17.734,21.33
17.750,14.63
17.765,8.38
17.781,3.25
17.796,-0.38
17.812,-2.69
17.828,-4.26
17.843,-5.77
17.859,-7.77
17.875,-10.56
17.890,-14.15
17.906,-18.34
17.921,-22.76
17.937,-26.78
17.953,-29.61
17.968,-30.37
17.984,-28.25
18.000,-22.81
18.015,-14.25
18.031,-3.26
18.046,9.02
18.062,21.28
18.078,32.42
18.093,41.65
18.109,48.49
18.125,52.8
18.140,54.64
18.156,54.2
18.171,51.85
18.187,48.06
18.203,43.4
18.218,38.42
18.234,33.56
18.250,29.11
18.265,25.11
18.281,21.5
18.296,18.21
18.312,15.28
18.328,12.76
18.343,10.75
18.359,9.24
18.375,8.11
18.390,7.19
18.406,6.21
18.421,4.99
18.437,3.39
18.453,1.41
18.468,-0.96
18.484,-3.56
18.500,-6.21
18.515,-8.68
18.531,-10.84
18.546,-12.73
18.562,-14.48
18.578,-16.36
18.593,-18.52
18.609,-20.95
18.625,-23.41
18.640,-25.4
18.656,-26.39
18.671,-25.83
18.687,-23.3
18.703,-18.65
18.718,-12.05
18.734,-3.99
18.750,4.77
18.765,13.34
18.781,20.88
18.796,26.77
18.812,30.69
18.828,32.61
18.843,32.78
18.859,31.49
18.875,29.12
18.890,26.08
18.906,22.74
18.921,19.46
18.937,16.45
18.953,13.87
18.968,11.65
18.984,9.71
19.000,7.87
19.015,6.03
19.031,4.19
19.046,2.41
19.062,0.81
19.078,-0.56
19.093,-1.75
19.109,-2.95
19.125,-4.38
19.140,-6.24
19.156,-8.54
19.171,-11.18
19.187,-13.96
19.203,-16.64
19.218,-19.08
19.234,-21.17
19.250,-22.93
19.265,-24.37
19.281,-25.63
19.296,-26.83
19.312,-28.17
19.328,-29.77
19.343,-31.58
19.359,-33.22
19.375,-34.06
19.390,-33.35
19.406,-30.5
19.421,-25.38
19.437,-18.23
19.453,-9.71
19.468,-0.62
19.484,8.23
19.500,16.13
19.515,22.51
19.531,27.04
19.546,29.53
19.562,30.08
19.578,28.92
19.593,26.49
19.609,23.22
19.625,19.55
19.640,15.8
19.656,12.31
19.671,9.38
19.687,7.23
19.703,6.05
19.718,5.85
19.734,6.52
19.750,7.76
19.765,9.23
19.781,10.58
19.796,11.52
19.812,11.82
19.828,11.32
19.843,9.93
19.859,7.61
19.875,4.42
19.890,0.46
19.906,-4.09
19.921,-8.95
19.937,-13.83
19.953,-18.39
19.968,-22.38
19.984,-25.59
20.000,-28.0
20.015,-29.74
20.031,-31.02
20.046,-32.16
20.062,-33.38
20.078,-34.8
20.093,-36.36
20.109,-37.85
20.125,-38.9
20.140,-39.05
20.156,-37.85
20.171,-34.89
20.187,-29.97
20.203,-23.21
20.218,-15.04
20.234,-6.21
20.250,2.38
20.265,9.91
20.281,15.83
20.296,19.91
20.312,22.24
20.328,23.04
20.343,22.54
20.359,20.97
20.375,18.54
20.390,15.5
20.406,12.2
20.421,9.04
20.437,6.34
20.453,4.32
20.468,2.98
20.484,2.16
20.500,1.58
20.515,0.96
20.531,0.1
20.546,-1.04
20.562,-2.31
20.578,-3.48
20.593,-4.39
20.609,-5.03
20.625,-5.65
20.640,-6.53
20.656,-7.95
20.671,-9.99
20.687,-12.47
20.703,-15.07
20.718,-17.43
20.734,-19.32
20.750,-20.71
20.765,-21.75
20.781,-22.58
20.796,-23.39
20.812,-24.31
20.828,-25.42
20.843,-26.85
20.859,-28.53
20.875,-30.29
20.890,-31.71
20.906,-32.23
20.921,-31.21
20.937,-28.14
20.953,-22.84
20.968,-15.58
20.984,-7.08
21.000,1.73
21.015,9.89
21.031,16.7
21.046,21.71
21.062,24.83
21.078,26.23
21.093,26.12
21.109,24.78
21.125,22.43
21.140,19.31
21.156,15.73
21.171,12.04
21.187,8.59
21.203,5.68
21.218,3.56
21.234,2.25
21.250,1.65
21.265,1.51
21.281,1.58
21.296,1.58
21.312,1.36
21.328,0.82
21.343,-0.06
21.359,-1.21
21.375,-2.63
21.390,-4.22
21.406,-5.86
21.421,-7.42
21.437,-8.78
21.453,-9.88
21.468,-10.75
21.484,-11.57
21.500,-12.52
21.515,-13.8
21.531,-15.45
21.546,-17.38
21.562,-19.4
21.578,-21.32
21.593,-23.02
21.609,-24.6
21.625,-26.25
21.640,-28.12
21.656,-30.15
21.671,-31.94
21.687,-32.75
21.703,-31.83
21.718,-28.64
21.734,-23.07
21.750,-15.62
21.765,-7.21
21.781,1.16
21.796,8.57
21.812,14.43
21.828,18.51
21.843,20.79
21.859,21.54
21.875,21.04
21.890,19.55
21.906,17.36
21.921,14.71
21.937,11.81
21.953,8.89
21.968,6.26
21.984,4.13
22.000,2.75
22.015,2.21
22.031,2.4
22.046,3.05
22.062,3.87
22.078,4.5
22.093,4.76
22.109,4.62
22.125,4.08
22.140,3.18
22.156,1.93
22.171,0.24
22.187,-1.96
22.203,-4.61
22.218,-7.66
22.234,-10.88
22.250,-14.04
22.265,-16.89
22.281,-19.19
22.296,-20.86
22.312,-21.94
22.328,-22.53
22.343,-22.86
22.359,-23.24
22.375,-23.84
22.390,-24.69
22.406,-25.6
22.421,-26.11
22.437,-25.63
22.453,-23.61
22.468,-19.72
22.484,-13.99
22.500,-6.87
22.515,0.98
22.531,8.71
22.546,15.55
22.562,20.98
22.578,24.76
22.593,26.94
22.609,27.67
22.625,27.1
22.640,25.45
22.656,22.96
22.671,19.98
22.687,16.85
22.703,13.99
22.718,11.62
22.734,9.83
22.750,8.51
22.765,7.44
22.781,6.44
22.796,5.43
22.812,4.44
22.828,3.51
22.843,2.68
22.859,1.86
22.875,0.94
22.890,-0.25
22.906,-1.84
22.921,-3.88
22.937,-6.32
22.953,-8.98
22.968,-11.6
22.984,-13.91
23.000,-15.77
23.015,-17.18
23.031,-18.32
23.046,-19.48
23.062,-20.92
23.078,-22.81
23.093,-25.09
23.109,-27.48
23.125,-29.51
23.140,-30.6
23.156,-30.11
23.171,-27.6
23.187,-22.82
23.203,-15.93
23.218,-7.47
23.234,1.7
23.250,10.58
23.265,18.28
23.281,24.2
23.296,28.15
23.312,30.2
23.328,30.63
23.343,29.69
23.359,27.64
23.375,24.73
23.390,21.31
23.406,17.81
23.421,14.71
23.437,12.31
23.453,10.63
23.468,9.46
23.484,8.41
23.500,7.16
23.515,5.6
23.531,3.86
23.546,2.24
23.562,1.02
23.578,0.28
23.593,-0.11
23.609,-0.48
23.625,-1.18
23.640,-2.51
23.656,-4.55
23.671,-7.14
23.687,-9.97
23.703,-12.74
23.718,-15.22
23.734,-17.43
23.750,-19.48
23.765,-21.53
23.781,-23.77
23.796,-26.24
23.812,-28.87
23.828,-31.43
23.843,-33.49
23.859,-34.46
23.875,-33.68
23.890,-30.57
23.906,-24.89
23.921,-16.85
23.937,-7.12
23.953,3.32
23.968,13.43
23.984,22.35
24.000,29.51
24.015,34.58
24.031,37.42
24.046,38.01
24.062,36.41
24.078,32.89
24.093,27.88
24.109,21.99
24.125,15.94
24.140,10.38
24.156,5.81
24.171,2.42
24.187,0.22
24.203,-1.05
24.218,-1.61
24.234,-1.69
24.250,-1.41
24.265,-0.86
24.281,-0.09
24.296,0.72
24.312,1.29
24.328,1.28
24.343,0.44
24.359,-1.3
24.375,-3.78
24.390,-6.7
24.406,-9.69
24.421,-12.45
24.437,-14.79
24.453,-16.67
24.468,-18.21
24.484,-19.6
24.500,-21.05
24.515,-22.77
24.531,-24.86
24.546,-27.23
24.562,-29.61
24.578,-31.52
24.593,-32.32
24.609,-31.41
24.625,-28.32
24.640,-22.91
24.656,-15.41
24.671,-6.45
24.687,3.11
24.703,12.31
24.718,20.34
24.734,26.67
24.750,31.0
24.765,33.22
24.781,33.36
24.796,31.56
24.812,28.15
24.828,23.64
24.843,18.74
24.859,14.18
24.875,10.55
24.890,8.12
24.906,6.78
24.921,6.19
24.937,5.97
24.953,5.87
24.968,5.77
24.984,5.72
25.000,5.74
25.015,5.75
25.031,5.51
25.046,4.76
25.062,3.29
25.078,1.05
25.093,-1.84
25.109,-5.13
25.125,-8.49
25.140,-11.62
25.156,-14.26
25.171,-16.26
25.187,-17.66
25.203,-18.56
25.218,-19.28
25.234,-20.13
25.250,-21.41
25.265,-23.19
25.281,-25.23
25.296,-26.98
25.312,-27.66
25.328,-26.6
25.343,-23.28
25.359,-17.63
25.375,-9.91
25.390,-0.71
25.406,9.22
25.421,19.17
25.437,28.46
25.453,36.55
25.468,42.96
25.484,47.4
25.500,49.77
25.515,50.27
25.531,49.4
25.546,47.81
25.562,46.19
25.578,45.09
25.593,44.83
25.609,45.47
25.625,46.92
25.640,49.13
25.656,52.2
25.671,56.44
25.687,62.19
25.703,69.66
25.718,78.77
25.734,89.11
25.750,100.02
25.765,110.77
25.781,120.77
25.796,129.83
25.812,138.16
25.828,146.19
25.843,154.44
25.859,163.14
25.875,172.13
25.890,180.69
25.906,187.68
25.921,191.83
25.937,192.13
25.953,188.27
25.968,180.77
25.984,170.94
26.000,160.5
26.015,151.06
26.031,143.58
26.046,137.96
26.062,133.07
26.078,127.18
26.093,118.45
26.109,105.64
26.125,88.46
26.140,67.58
26.156,44.38
26.171,20.36
26.187,-3.35
26.203,-26.41
26.218,-49.33
26.234,-72.99
26.250,-97.98
26.265,-123.63
26.281,-147.74
26.296,-166.98
26.312,-177.92
26.328,-178.51
26.343,-169.0
26.359,-152.0
26.375,-131.33
26.390,-110.56
26.406,-91.7
26.421,-74.98
26.437,-59.39
26.453,-43.86
26.468,-28.06
26.484,-12.64
26.500,1.32
26.515,13.07
26.531,22.68
26.546,30.92
26.562,38.55
26.578,45.81
26.593,52.15
26.609,56.48
26.625,57.92
26.640,56.32
26.656,52.43
26.671,47.68
26.687,43.43
26.703,40.45
26.718,38.59
26.734,37.09
26.750,35.08
26.765,32.16
26.781,28.58
26.796,24.98
26.812,21.98
26.828,19.74
26.843,18.01
26.859,16.2
26.875,13.78
26.890,10.39
26.906,5.99
26.921,0.58
26.937,-5.91
26.953,-13.68
26.968,-22.97
26.984,-33.8
27.000,-45.76
27.015,-58.19
27.031,-70.37
27.046,-81.9
27.062,-93.01
27.078,-104.49
27.093,-117.25
27.109,-131.88
27.125,-148.26
27.140,-165.43
27.156,-181.96
27.171,-196.46
27.187,-208.04
27.203,-216.55
27.218,-222.28
27.234,-225.59
27.250,-226.61
27.265,-225.26
27.281,-221.56
27.296,-216.02
27.312,-209.66
27.328,-203.74
27.343,-199.07
27.359,-195.49
27.375,-191.73
27.390,-185.98
27.406,-176.54
27.421,-162.67
27.437,-144.97
27.453,-125.08
27.468,-105.05
27.484,-86.55
27.500,-70.43
27.515,-56.81
27.531,-45.37
27.546,-35.76
27.562,-27.84
27.578,-21.72
27.593,-17.54
27.609,-15.29
27.625,-14.69
27.640,-15.26
27.656,-16.55
27.671,-18.18
27.687,-19.9
27.703,-21.67
27.718,-23.49
27.734,-25.39
27.750,-27.27
27.765,-28.89
27.781,-29.93
27.796,-30.18
27.812,-29.57
27.828,-28.26
27.843,-26.65
27.859,-25.29
27.875,-24.64
27.890,-24.97
27.906,-26.24
27.921,-28.12
27.937,-30.27
27.953,-32.44
27.968,-34.64
27.984,-37.09
28.000,-39.93
28.015,-43.09
28.031,-46.01
28.046,-47.7
28.062,-47.02
28.078,-43.0
28.093,-35.23
28.109,-24.04
28.125,-10.35
28.140,4.53
28.156,19.24
28.171,32.69
28.187,44.16
28.203,53.31
28.218,60.12
28.234,64.74
28.250,67.54
28.265,69.06
28.281,69.94
28.296,70.74
28.312,71.67
28.328,72.35
28.343,71.87
28.359,69.04
28.375,62.88
28.390,53.05
28.406,40.06
28.421,24.99
28.437,9.16
28.453,-6.32
28.468,-20.72
28.484,-33.73
28.500,-45.18
28.515,-54.94
28.531,-62.9
28.546,-69.02
28.562,-73.45
28.578,-76.6
28.593,-79.03
28.609,-81.34
28.625,-83.93
28.640,-86.82
28.656,-89.55
28.671,-91.25
28.687,-90.78
28.703,-87.11
28.718,-79.71
28.734,-68.69
28.750,-54.92
28.765,-39.73
28.781,-24.54
28.796,-10.48
28.812,1.8
28.828,12.17
28.843,20.74
28.859,27.65
28.875,32.97
28.890,36.67
28.906,38.7
28.921,39.23
28.937,38.58
28.953,37.27
28.968,35.85
28.984,34.78
29.000,34.29
29.015,34.35
29.031,34.71
29.046,34.92
29.062,34.54
29.078,33.06
29.093,30.16
29.109,25.54
29.125,19.16
29.140,11.19
29.156,2.09
29.171,-7.54
29.187,-17.02
29.203,-25.76
29.218,-33.48
29.234,-40.16
29.250,-46.04
29.265,-51.43
29.281,-56.52
29.296,-61.07
29.312,-64.5
29.328,-65.85
29.343,-64.13
29.359,-58.62
29.375,-49.16
29.390,-36.18
29.406,-20.63
29.421,-3.68
29.437,13.49
29.453,29.87
29.468,44.74
29.484,57.59
29.500,68.14
29.515,76.27
29.531,82.08
29.546,85.85
29.562,88.05
29.578,89.17
29.593,89.68
29.609,89.93
29.625,90.14
29.640,90.41
29.656,90.79
29.671,91.3
29.687,92.09
29.703,93.39
29.718,95.47
29.734,98.47
29.750,102.28
29.765,106.52
29.781,110.61
29.796,113.97
29.812,116.23
29.828,117.39
29.843,117.75
29.859,117.89
29.875,118.42
29.890,119.8
29.906,122.1
29.921,124.79
29.937,126.69
29.953,126.1
29.968,121.45
29.984,111.8
30.000,97.43
30.015,79.78
30.031,61.1
30.046,43.68
30.062,29.19
30.078,18.36
30.093,10.92
30.109,5.94
30.125,1.94
30.140,-2.68
30.156,-9.47
30.171,-19.58
30.187,-33.39
30.203,-50.43
30.218,-69.56
30.234,-89.42
30.250,-108.84
30.265,-127.1
30.281,-143.65
30.296,-157.87
30.312,-169.07
30.328,-176.51
30.343,-179.86
30.359,-179.32
30.375,-175.71
30.390,-169.93
30.406,-162.73
30.421,-154.5
30.437,-145.32
30.453,-135.38
30.468,-125.01
30.484,-114.81
30.500,-105.3
30.515,-96.77
30.531,-89.07
30.546,-81.9
30.562,-74.98
30.578,-68.21
30.593,-61.97
30.609,-56.76
30.625,-53.2
30.640,-51.57
30.656,-51.72
30.671,-52.9
30.687,-53.88
30.703,-53.2
30.718,-49.38
30.734,-41.51
30.750,-29.34
30.765,-13.61
30.781,4.33
30.796,22.76
30.812,40.05
30.828,55.06
30.843,67.25
30.859,76.62
30.875,83.41
30.890,87.99
30.906,90.61
30.921,91.51
30.937,90.91
30.953,89.08
30.968,86.42
30.984,83.3
31.000,80.06
31.015,76.84
31.031,73.71
31.046,70.56
31.062,67.32
31.078,64.01
31.093,60.69
31.109,57.56
31.125,54.79
31.140,52.5
31.156,50.6
31.171,48.86
31.187,46.84
31.203,44.05
31.218,40.15
31.234,34.95
31.250,28.66
31.265,21.68
31.281,14.63
31.296,8.08
31.312,2.41
31.328,-2.43
31.343,-6.74
31.359,-11.01
31.375,-15.68
31.390,-20.79
31.406,-25.97
31.421,-30.47
31.437,-33.27
31.453,-33.4
31.468,-30.1
31.484,-22.98
31.500,-12.13
31.515,1.75
31.531,17.58
31.546,33.83
31.562,48.98
31.578,61.75
31.593,71.41
31.609,77.74
31.625,80.96
31.640,81.43
31.656,79.47
31.671,75.41
31.687,69.63
31.703,62.64
31.718,55.07
31.734,47.61
31.750,40.72
31.765,34.65
31.781,29.37
31.796,24.68
31.812,20.44
31.828,16.43
31.843,12.52
31.859,8.48
31.875,4.04
31.890,-1.1
31.906,-7.08
31.921,-13.83
31.937,-20.96
31.953,-27.88
31.968,-33.99
31.984,-38.79
32.000,-42.11
32.015,-44.01
32.031,-44.75
32.046,-44.64
32.062,-44.01
32.078,-43.21
32.093,-42.53
32.109,-42.25
32.125,-42.5
32.140,-43.12
32.156,-43.51
32.171,-42.7
32.187,-39.58
32.203,-33.27
32.218,-23.5
32.234,-10.77
32.250,3.72
32.265,18.43
32.281,31.94
32.296,43.36
32.312,52.46
32.328,59.63
32.343,65.53
32.359,70.66
32.375,75.2
32.390,78.91
32.406,81.33
32.421,82.03
32.437,80.94
32.453,78.37
32.468,75.03
32.484,71.63
32.500,68.66
32.515,66.18
32.531,63.82
32.546,61.1
32.562,57.66
32.578,53.43
32.593,48.64
32.609,43.65
32.625,38.64
32.640,33.49
32.656,27.85
32.671,21.27
32.687,13.5
32.703,4.52
32.718,-5.41
32.734,-15.85
32.750,-26.28
32.765,-36.24
32.781,-45.38
32.796,-53.46
32.812,-60.52
32.828,-66.72
32.843,-72.22
32.859,-77.17
32.875,-81.46
32.890,-84.75
32.906,-86.45
32.921,-85.85
32.937,-82.3
32.953,-75.5
32.968,-65.65
32.984,-53.48
33.000,-40.1
33.015,-26.65
33.031,-13.97
33.046,-2.29
33.062,8.62
33.078,19.09
33.093,29.25
33.109,38.73
33.125,46.89
33.140,53.17
33.156,57.46
33.171,60.2
33.187,62.06
33.203,63.54
33.218,64.65
33.234,64.91
33.250,63.72
33.265,60.76
33.281,56.29
33.296,51.03
33.312,45.97
33.328,41.92
33.343,39.21
33.359,37.7
33.375,36.91
33.390,36.3
33.406,35.49
33.421,34.3
33.437,32.72
33.453,30.82
33.468,28.58
33.484,25.87
33.500,22.32
33.515,17.5
33.531,10.99
33.546,2.68
33.562,-7.09
33.578,-17.54
33.593,-27.62
33.609,-36.45
33.625,-43.64
33.640,-49.44
33.656,-54.56
33.671,-59.72
33.687,-65.13
33.703,-70.32
33.718,-74.25
33.734,-75.68
33.750,-73.73
33.765,-68.22
33.781,-59.73
33.796,-49.49
33.812,-39.02
33.828,-29.67
33.843,-22.38
33.859,-17.46
33.875,-14.73
33.890,-13.77
33.906,-14.17
33.921,-15.58
33.937,-17.76
33.953,-20.36
33.968,-22.75
33.984,-24.05
34.000,-23.37
34.015,-20.17
34.031,-14.41
34.046,-6.64
34.062,2.2
34.078,10.83
34.093,17.95
34.109,22.47
34.125,23.87
34.140,22.43
34.156,19.3
34.171,16.19
34.187,14.75
34.203,15.92
34.218,19.5
34.234,24.27
34.250,28.68
34.265,31.44
34.281,32.04
34.296,30.64
34.312,27.63
34.328,23.19
34.343,17.27
34.359,9.79
34.375,1.05
34.390,-8.07
34.406,-16.45
34.421,-23.07
34.437,-27.47
34.453,-29.82
34.468,-30.77
34.484,-30.89
34.500,-30.35
34.515,-28.86
34.531,-25.81
34.546,-20.72
34.562,-13.49
34.578,-4.47
34.593,5.66
34.609,16.04
34.625,25.78
34.640,34.14
34.656,40.37
34.671,43.94
34.687,44.48
34.703,42.02
34.718,37.06
34.734,30.5
34.750,23.44
34.765,16.94
34.781,11.73
34.796,8.02
34.812,5.65
34.828,4.22
34.843,3.39
34.859,3.02
34.875,3.19
34.890,4.06
34.906,5.76
34.921,8.27
34.937,11.38
34.953,14.84
34.968,18.27
34.984,21.31
35.000,23.57
35.015,24.62
35.031,24.04
35.046,21.46
35.062,16.58
35.078,9.24
35.093,-0.55
35.109,-12.52
35.125,-26.2
35.140,-40.88
35.156,-55.73
35.171,-69.93
35.187,-82.69
35.203,-93.29
35.218,-101.1
35.234,-105.42
35.250,-105.65
35.265,-101.33
35.281,-92.41
35.296,-79.37
35.312,-63.26
35.328,-45.53
35.343,-27.65
35.359,-10.9
35.375,3.89
35.390,16.24
35.406,26.03
35.421,33.47
35.437,39.0
35.453,43.24
35.468,46.9
35.484,50.58
35.500,54.55
35.515,58.77
35.531,62.92
35.546,66.52
35.562,69.21
35.578,70.79
35.593,71.27
35.609,70.81
35.625,69.64
35.640,67.97
35.656,65.99
35.671,63.84
35.687,61.58
35.703,59.26
35.718,56.83
35.734,54.3
35.750,51.71
35.765,49.21
35.781,46.95
35.796,45.19
35.812,44.19
35.828,44.15
35.843,45.08
35.859,46.72
35.875,48.48
35.890,49.55
35.906,49.23
35.921,47.23
35.937,43.99
35.953,40.65
35.968,38.59
35.984,38.88
36.000,41.9
36.015,47.25
36.031,54.1
36.046,61.59
36.062,69.15
36.078,76.51
36.093,83.4
36.109,89.3
36.125,93.44
36.140,95.02
36.156,93.65
36.171,89.62
36.187,83.86
36.203,77.66
36.218,72.2
36.234,68.21
36.250,65.85
36.265,64.79
36.281,64.49
36.296,64.36
36.312,64.0
36.328,63.11
36.343,61.44
36.359,58.79
36.375,54.95
36.390,49.72
36.406,43.06
36.421,34.98
36.437,25.6
36.453,15.15
36.468,3.85
36.484,-8.04
36.500,-20.22
36.515,-32.42
36.531,-44.39
36.546,-55.99
36.562,-67.23
36.578,-78.23
36.593,-89.0
36.609,-99.26
36.625,-108.26
36.640,-114.76
36.656,-117.25
36.671,-114.41
36.687,-105.66
36.703,-91.52
36.718,-73.66
36.734,-54.41
36.750,-36.22
36.765,-21.08
36.781,-10.22
36.796,-4.18
36.812,-2.92
36.828,-6.1
36.843,-13.09
36.859,-23.03
36.875,-34.71
36.890,-46.85
36.906,-58.25
36.921,-68.13
36.937,-76.19
36.953,-82.48
36.968,-87.25
36.984,-90.76
37.000,-93.23
37.015,-94.83
37.031,-95.84
37.046,-96.68
37.062,-97.92
37.078,-100.18
37.093,-103.84
37.109,-108.85
37.125,-114.63
37.140,-120.31
37.156,-124.97
37.171,-128.05
37.187,-129.54
37.203,-129.85
37.218,-129.62
37.234,-129.38
37.250,-129.37
37.265,-129.39
37.281,-128.98
37.296,-127.33
37.312,-123.46
37.328,-116.42
37.343,-105.54
37.359,-90.86
37.375,-73.24
37.390,-54.27
37.406,-35.78
37.421,-19.29
37.437,-5.62
37.453,5.13
37.468,13.37
37.484,19.67
37.500,24.45
37.515,27.9
37.531,30.04
37.546,30.87
37.562,30.48
37.578,29.07
37.593,26.86
37.609,24.03
37.625,20.8
37.640,17.32
37.656,13.82
37.671,10.55
37.687,7.71
37.703,5.38
37.718,3.45
37.734,1.65
37.750,-0.37
37.765,-2.88
37.781,-6.01
37.796,-9.64
37.812,-13.55
37.828,-17.47
37.843,-21.26
37.859,-24.91
37.875,-28.55
37.890,-32.4
37.906,-36.68
37.921,-41.4
37.937,-46.24
37.953,-50.56
37.968,-53.29
37.984,-53.35
38.000,-49.92
38.015,-42.7
38.031,-32.16
38.046,-19.42
38.062,-5.89
38.078,7.07
38.093,18.34
38.109,27.35
38.125,33.81
38.140,37.76
38.156,39.42
38.171,39.1
38.187,37.24
38.203,34.3
38.218,30.79
38.234,27.14
38.250,23.72
38.265,20.8
38.281,18.53
38.296,16.95
38.312,15.94
38.328,15.28
38.343,14.64
38.359,13.71
38.375,12.19
38.390,9.91
38.406,6.86
38.421,3.15
38.437,-0.96
38.453,-5.25
38.468,-9.54
38.484,-13.74
38.500,-17.87
38.515,-22.05
38.531,-26.39
38.546,-30.98
38.562,-35.8
38.578,-40.56
38.593,-44.69
38.609,-47.22
38.625,-47.07
38.640,-43.25
38.656,-35.35
38.671,-23.77
38.687,-9.66
38.703,5.32
38.718,19.59
38.734,31.99
38.750,41.99
38.765,49.53
38.781,54.79
38.796,57.98
38.812,59.22
38.828,58.73
38.843,56.82
38.859,54.03
38.875,50.93
38.890,47.95
38.906,45.32
38.921,43.03
38.937,40.96
38.953,39.01
38.968,37.24
38.984,35.63
39.000,34.17
39.015,32.65
39.031,30.72
39.046,28.03
39.062,24.29
39.078,19.53
39.093,14.01
39.109,8.17
39.125,2.46
39.140,-2.83
39.156,-7.73
39.171,-12.43
39.187,-17.23
39.203,-22.29
39.218,-27.44
39.234,-32.11
39.250,-35.43
39.265,-36.44
39.281,-34.36
39.296,-28.91
39.312,-20.34
39.328,-9.38
39.343,2.88
39.359,15.36
39.375,27.01
39.390,37.13
39.406,45.25
39.421,51.2
39.437,54.99
39.453,56.77
39.468,56.84
39.484,55.49
39.500,53.2
39.515,50.34
39.531,47.27
39.546,44.28
39.562,41.51
39.578,38.98
39.593,36.63
39.609,34.39
39.625,32.18
39.640,30.03
39.656,27.91
39.671,25.71
39.687,23.26
39.703,20.31
39.718,16.67
39.734,12.31
39.750,7.35
39.765,2.05
39.781,-3.23
39.796,-8.17
39.812,-12.65
39.828,-16.65
39.843,-20.49
39.859,-24.55
39.875,-29.23
39.890,-34.63
39.906,-40.34
39.921,-45.37
39.937,-48.44
39.953,-48.33
39.968,-44.29
39.984,-36.36
40.000,-25.33
40.015,-12.38
40.031,1.18
40.046,14.28
40.062,26.12
40.078,36.23
40.093,44.32
40.109,50.32
40.125,54.28
40.140,56.35
40.156,56.86
40.171,56.07
40.187,54.26
40.203,51.63
40.218,48.36
40.234,44.64
40.250,40.61
40.265,36.39
40.281,32.03
40.296,27.64
40.312,23.29
40.328,19.08
40.343,15.15
40.359,11.54
40.375,8.19
40.390,4.87
40.406,1.35
40.421,-2.57
40.437,-6.9
40.453,-11.49
40.468,-16.04
40.484,-20.23
40.500,-23.89
40.515,-27.1
40.531,-30.22
40.546,-33.72
40.562,-38.1
40.578,-43.58
40.593,-50.04
40.609,-56.83
40.625,-62.88
40.640,-66.95
40.656,-67.9
40.671,-65.01
40.687,-58.18
40.703,-47.91
40.718,-35.22
40.734,-21.38
40.750,-7.61
40.765,5.06
40.781,15.92
40.796,24.62
40.812,31.05
40.828,35.33
40.843,37.63
40.859,38.26
40.875,37.5
40.890,35.73
40.906,33.32
40.921,30.62
40.937,27.98
40.953,25.59
40.968,23.49
40.984,21.55
41.000,19.58
41.015,17.41
41.031,15.08
41.046,12.71
41.062,10.52
41.078,8.64
41.093,6.96
41.109,5.2
41.125,2.95
41.140,-0.1
41.156,-3.96
41.171,-8.37
41.187,-12.9
41.203,-17.18
41.218,-21.0
41.234,-24.39
41.250,-27.48
41.265,-30.47
41.281,-33.57
41.296,-36.88
41.312,-40.41
41.328,-43.97
41.343,-47.18
41.359,-49.41
41.375,-49.89
41.390,-47.85
41.406,-42.76
41.421,-34.6
41.437,-23.79
41.453,-11.28
41.468,1.72
41.484,13.98
41.500,24.55
41.515,32.85
41.531,38.75
41.546,42.39
41.562,44.06
41.578,44.16
41.593,42.96
41.609,40.9
41.625,38.37
41.640,35.84
41.656,33.65
41.671,31.91
41.687,30.51
41.703,29.17
41.718,27.63
41.734,25.72
41.750,23.59
41.765,21.46
41.781,19.58
41.796,18.01
41.812,16.51
41.828,14.71
41.843,12.26
41.859,8.94
41.875,4.79
41.890,0.11
41.906,-4.73
41.921,-9.42
41.937,-13.72
41.953,-17.59
41.968,-21.01
41.984,-24.04
42.000,-26.86
42.015,-29.66
42.031,-32.63
42.046,-35.81
42.062,-38.96
42.078,-41.46
42.093,-42.47
42.109,-41.04
42.125,-36.53
42.140,-28.85
42.156,-18.52
42.171,-6.58
42.187,5.7
42.203,17.16
42.218,27.02
42.234,34.87
42.250,40.73
42.265,44.74
42.281,47.05
42.296,47.79
42.312,47.07
42.328,45.11
42.343,42.33
42.359,39.24
42.375,36.34
42.390,33.9
42.406,31.89
42.421,30.06
42.437,28.11
42.453,25.85
42.468,23.33
42.484,20.82
42.500,18.6
42.515,16.76
42.531,15.22
42.546,13.62
42.562,11.59
42.578,8.84
42.593,5.38
42.609,1.45
42.625,-2.47
42.640,-5.83
42.656,-8.28
42.671,-9.65
42.687,-10.17
42.703,-10.26
42.718,-10.51
42.734,-11.4
42.750,-13.23
42.765,-15.84
42.781,-18.53
42.796,-20.18
42.812,-19.48
42.828,-15.45
42.843,-7.68
42.859,3.36
42.875,16.56
42.890,30.56
42.906,44.23
42.921,57.04
42.937,69.01
42.953,80.41
42.968,91.41
42.984,101.77
43.000,110.75
43.015,117.49
43.031,121.34
43.046,122.16
43.062,120.63
43.078,118.11
43.093,116.45
43.109,117.5
43.125,122.52
43.140,131.41
43.156,142.34
43.171,151.88
43.187,155.81
43.203,150.66
43.218,135.05
43.234,110.5
43.250,81.06
43.265,51.99
43.281,27.89
43.296,11.24
43.312,1.92
43.328,-2.25
43.343,-4.26
43.359,-6.69
43.375,-11.05
43.390,-17.62
43.406,-25.82
43.421,-34.67
43.437,-43.12
43.453,-50.25
43.468,-55.34
43.484,-57.84
43.500,-57.49
43.515,-54.11
43.531,-47.32
43.546,-36.53
43.562,-20.92
43.578,0.35
43.593,27.62
43.609,60.4
43.625,97.25
43.640,135.81
43.656,173.15
43.671,206.16
43.687,232.0
43.703,248.44
43.718,254.39
43.734,250.0
43.750,236.67
43.765,216.78
43.781,193.06
43.796,168.18
43.812,144.15
43.828,122.15
43.843,102.43
43.859,84.43
43.875,66.91
43.890,48.29
43.906,27.44
43.921,4.31
43.937,-19.69
43.953,-42.1
43.968,-60.56
43.984,-74.04
44.000,-83.57
44.015,-91.9
44.031,-102.37
44.046,-117.35
44.062,-137.38
44.078,-161.27
44.093,-186.77
44.109,-211.5
44.125,-233.58
44.140,-251.63
44.156,-264.67
44.171,-271.98
44.187,-273.2
44.203,-268.41
44.218,-258.22
44.234,-243.44
44.250,-224.87
44.265,-203.2
44.281,-179.12
44.296,-153.7
44.312,-128.29
44.328,-104.44
44.343,-83.33
44.359,-65.27
44.375,-49.34
44.390,-33.67
44.406,-16.29
44.421,3.8
44.437,25.64
44.453,46.21
44.468,61.22
44.484,66.51
44.500,59.7
44.515,40.88
44.531,12.27
44.546,-22.82
44.562,-61.08
44.578,-99.75
44.593,-136.47
44.609,-168.84
44.625,-194.37
44.640,-210.9
44.656,-217.42
44.671,-214.51
44.687,-204.25
44.703,-189.48
44.718,-172.99
44.734,-156.85
44.750,-142.36
44.765,-130.26
44.781,-120.94
44.796,-114.79
44.812,-111.94
44.828,-112.41
44.843,-115.97
44.859,-122.21
44.875,-130.41
44.890,-139.51
44.906,-147.95
44.921,-153.79
44.937,-155.18
44.953,-150.81
44.968,-140.32
44.984,-124.49
45.000,-104.94
45.015,-83.6
45.031,-62.33
45.046,-42.43
45.062,-24.62
45.078,-9.24
45.093,3.66
45.109,14.14
45.125,22.36
45.140,28.77
45.156,33.93
45.171,38.46
45.187,42.69
45.203,46.4
45.218,48.8
45.234,48.96
45.250,46.22
45.265,40.7
45.281,33.31
45.296,25.25
45.312,17.47
45.328,10.24
45.343,3.08
45.359,-4.72
45.375,-13.49
45.390,-22.95
45.406,-32.28
45.421,-40.59
45.437,-47.45
45.453,-52.99
45.468,-57.7
45.484,-62.07
45.500,-66.33
45.515,-70.28
45.531,-73.55
45.546,-75.6
45.562,-75.72
45.578,-73.13
45.593,-67.04
45.609,-56.87
45.625,-42.49
45.640,-24.36
45.656,-3.53
45.671,18.62
45.687,40.68
45.703,61.56
45.718,80.46
45.734,96.9
45.750,110.52
45.765,121.1
45.781,128.61
45.796,133.26
45.812,135.68
45.828,136.67
45.843,137.03
45.859,137.24
45.875,137.41
45.890,137.18
45.906,136.04
45.921,133.57
45.937,129.64
45.953,124.45
45.968,118.43
45.984,112.12
46.000,105.86
46.015,99.8
46.031,93.92
46.046,88.02
46.062,81.93
46.078,75.77
46.093,70.05
46.109,65.91
46.125,64.67
46.140,67.19
46.156,73.13
46.171,80.62
46.187,86.66
46.203,88.29
46.218,83.97
46.234,74.3
46.250,61.87
46.265,50.02
46.281,41.43
46.296,37.07
46.312,36.12
46.328,36.6
46.343,36.2
46.359,32.72
46.375,24.28
46.390,9.58
46.406,-11.22
46.421,-35.34
46.437,-56.91
46.453,-67.88
46.468,-60.63
46.484,-30.74
46.500,20.84
46.515,88.2
46.531,162.79
46.546,236.61
46.562,304.52
46.578,364.43
46.593,415.72
46.609,457.3
46.625,486.92
46.640,501.57
46.656,499.2
46.671,479.6
46.687,444.59
46.703,397.08
46.718,339.89
46.734,275.11
46.750,204.2
46.765,128.64
46.781,50.61
46.796,-26.88
46.812,-100.23
46.828,-166.07
46.843,-222.12
46.859,-267.76
46.875,-304.37
46.890,-334.71
46.906,-362.05
46.921,-388.86
46.937,-415.81
46.953,-441.45
46.968,-463.18
46.984,-478.24
47.000,-485.23
47.015,-484.64
47.031,-478.69
47.046,-470.62
47.062,-463.8
47.078,-461.09
47.093,-464.34
47.109,-473.62
47.125,-486.39
47.140,-497.37
47.156,-499.37
47.171,-485.62
47.187,-452.5
47.203,-401.51
47.218,-338.99
47.234,-273.94
47.250,-214.76
47.265,-166.55
47.281,-130.29
47.296,-104.17
47.312,-85.53
47.328,-72.38
47.343,-63.69
47.359,-58.37
47.375,-54.38
47.390,-48.39
47.406,-36.56
47.421,-15.68
47.437,15.45
47.453,55.18
47.468,98.93
47.484,140.16
47.500,172.39
47.515,191.25
47.531,196.17
47.546,190.47
47.562,180.29
47.578,172.3
47.593,171.66
47.609,180.89
47.625,199.84
47.640,226.25
47.656,256.41
47.671,285.69
47.687,309.04
47.703,322.04
47.718,322.01
47.734,308.89
47.750,285.32
47.765,255.5
47.781,223.85
47.796,193.93
47.812,168.03
47.828,147.47
47.843,132.93
47.859,124.3
47.875,120.28
47.890,118.19
47.906,114.4
47.921,105.52
47.937,89.86
47.953,67.89
47.968,42.02
47.984,15.48
48.000,-8.95
48.015,-29.7
48.031,-46.47
48.046,-59.78
48.062,-70.41
48.078,-78.7
48.093,-84.53
48.109,-87.25
48.125,-86.09
48.140,-80.71
48.156,-71.62
48.171,-60.2
48.187,-48.43
48.203,-38.02
48.218,-29.73
48.234,-23.12
48.250,-16.78
48.265,-9.32
48.281,-0.24
48.296,9.59
48.312,18.45
48.328,24.62
48.343,27.26
48.359,26.88
48.375,24.96
48.390,23.31
48.406,23.33
48.421,25.58
48.437,29.81
48.453,35.31
48.468,41.35
48.484,47.56
48.500,54.08
48.515,61.4
48.531,69.91
48.546,79.6
48.562,89.74
48.578,99.01
48.593,105.98
48.609,109.56
48.625,109.41
48.640,105.99
48.656,100.36
48.671,94.09
48.687,89.32
48.703,88.48
48.718,93.79
48.734,106.03
48.750,123.44
48.765,141.51
48.781,153.94
48.796,154.83
48.812,141.0
48.828,113.42
48.843,76.91
48.859,38.3
48.875,3.93
48.890,-22.38
48.906,-39.95
48.921,-50.39
48.937,-56.17
48.953,-59.13
48.968,-60.04
48.984,-58.73
49.000,-54.93
49.015,-48.85
49.031,-41.18
49.046,-32.45
49.062,-22.16
49.078,-8.79
49.093,9.39
49.109,32.68
49.125,58.83
49.140,83.12
49.156,100.13
49.171,105.99
49.187,100.29
49.203,85.98
49.218,67.84
49.234,50.13
49.250,34.91
49.265,21.8
49.281,9.14
49.296,-4.63
49.312,-19.92
49.328,-36.0
49.343,-51.71
49.359,-66.23
49.375,-79.6
49.390,-92.53
49.406,-106.01
49.421,-120.76
49.437,-136.97
49.453,-154.12
49.468,-171.01
49.484,-186.08
49.500,-197.58
49.515,-203.86
49.531,-203.77
49.546,-196.82
49.562,-183.33
49.578,-164.43
49.593,-141.85
49.609,-117.58
49.625,-93.63
49.640,-71.66
49.656,-52.81
49.671,-37.7
49.687,-26.39
49.703,-18.51
49.718,-13.45
49.734,-10.45
49.750,-8.72
49.765,-7.73
49.781,-7.08
49.796,-6.65
49.812,-6.48
49.828,-6.65
49.843,-7.21
49.859,-8.01
49.875,-8.81
49.890,-9.37
49.906,-9.63
49.921,-9.74
49.937,-10.05
49.953,-10.97
49.968,-12.73
49.984,-15.4
50.000,-18.89
50.015,-23.15
50.031,-28.2
50.046,-34.17
50.062,-41.16
50.078,-49.16
50.093,-58.02
50.109,-67.39
50.125,-76.86
50.140,-85.81
50.156,-93.44
50.171,-98.61
50.187,-99.99
50.203,-96.32
50.218,-86.89
50.234,-71.81
50.250,-52.19
50.265,-29.94
50.281,-7.29
50.296,13.6
50.312,31.25
50.328,44.94
50.343,54.61
50.359,60.71
50.375,63.85
50.390,64.66
50.406,63.67
50.421,61.48
50.437,58.68
50.453,55.98
50.468,53.85
50.484,52.52
50.500,51.83
50.515,51.44
50.531,50.99
50.546,50.31
50.562,49.47
50.578,48.55
50.593,47.57
50.609,46.31
50.625,44.29
50.640,41.06
50.656,36.22
50.671,29.7
50.687,21.7
50.703,12.72
50.718,3.34
50.734,-5.79
50.750,-14.21
50.765,-21.77
50.781,-28.65
50.796,-35.3
50.812,-42.2
50.828,-49.53
50.843,-56.95
50.859,-63.56
50.875,-67.93
50.890,-68.5
50.906,-64.08
50.921,-54.13
50.937,-39.09
50.953,-20.3
50.968,0.37
50.984,20.95
51.000,39.74
51.015,55.64
51.031,68.04
51.046,76.73
51.062,81.74
51.078,83.14
51.093,81.24
51.109,76.61
51.125,70.18
51.140,63.07
51.156,56.38
51.171,50.77
51.187,46.42
51.203,42.96
51.218,39.81
51.234,36.44
51.250,32.7
51.265,28.9
51.281,25.56
51.296,23.14
51.312,21.82
51.328,21.35
51.343,21.14
51.359,20.56
51.375,19.07
51.390,16.54
51.406,13.22
51.421,9.51
51.437,5.88
51.453,2.56
51.468,-0.43
51.484,-3.36
51.500,-6.58
51.515,-10.49
51.531,-15.37
51.546,-21.31
51.562,-28.14
51.578,-35.22
51.593,-41.42
51.609,-45.32
51.625,-45.57
51.640,-41.32
51.656,-32.63
51.671,-20.56
51.687,-6.79
51.703,6.8
51.718,18.81
51.734,28.49
51.750,35.7
51.765,40.62
51.781,43.48
51.796,44.38
51.812,43.39
51.828,40.76
51.843,37.03
51.859,33.06
51.875,29.74
51.890,27.72
51.906,27.21
51.921,27.92
51.937,29.15
51.953,30.2
51.968,30.63
51.984,30.38
52.000,29.72
52.015,29.03
52.031,28.47
52.046,27.89
52.062,26.87
52.078,24.86
52.093,21.51
52.109,16.82
52.125,11.17
52.140,5.12
52.156,-0.73
52.171,-5.99
52.187,-10.51
52.203,-14.43
52.218,-18.05
52.234,-21.81
52.250,-26.17
52.265,-31.48
52.281,-37.88
52.296,-45.03
52.312,-52.1
52.328,-57.72
52.343,-60.39
52.359,-58.78
52.375,-52.26
52.390,-41.11
52.406,-26.44
52.421,-9.91
52.437,6.75
52.453,22.09
52.468,35.16
52.484,45.52
52.500,53.11
52.515,58.04
52.531,60.54
52.546,60.94
52.562,59.62
52.578,57.14
52.593,54.07
52.609,50.98
52.625,48.27
52.640,46.12
52.656,44.42
52.671,42.93
52.687,41.38
52.703,39.51
52.718,37.27
52.734,34.63
52.750,31.6
52.765,28.08
52.781,23.95
52.796,19.02
52.812,13.19
52.828,6.52
52.843,-0.75
52.859,-8.25
52.875,-15.65
52.890,-22.65
52.906,-29.16
52.921,-35.17
52.937,-40.78
52.953,-46.13
52.968,-51.46
52.984,-56.99
53.000,-62.97
53.015,-69.57
53.031,-76.72
53.046,-83.91
53.062,-90.17
53.078,-94.14
53.093,-94.29
53.109,-89.41
53.125,-78.99
53.140,-63.42
53.156,-43.94
53.171,-22.32
53.187,-0.4
53.203,20.23
53.218,38.44
53.234,53.6
53.250,65.42
53.265,73.87
53.281,79.15
53.296,81.73
53.312,82.33
53.328,81.77
53.343,80.72
53.359,79.54
53.375,78.17
53.390,76.31
53.406,73.6
53.421,70.0
53.437,65.76
53.453,61.39
53.468,57.42
53.484,54.22
53.500,51.89
53.515,50.31
53.531,49.26
53.546,48.58
53.562,48.11
53.578,47.7
53.593,47.28
53.609,46.97
53.625,47.06
53.640,48.13
53.656,50.76
53.671,55.53
53.687,62.68
53.703,71.97
53.718,82.64
53.734,93.68
53.750,104.0
53.765,112.54
53.781,118.54
53.796,121.36
53.812,120.58
53.828,115.92
53.843,107.37
53.859,95.21
53.875,79.98
53.890,62.35
53.906,42.9
53.921,22.09
53.937,0.37
53.953,-21.62
53.968,-42.82
53.984,-61.89
54.000,-77.49
54.015,-88.92
54.031,-96.37
54.046,-100.82
54.062,-103.57
54.078,-105.61
54.093,-107.35
54.109,-108.56
54.125,-108.82
54.140,-107.79
54.156,-105.51
54.171,-102.23
54.187,-98.19
54.203,-93.42
54.218,-87.85
54.234,-81.58
54.250,-75.05
54.265,-69.12
54.281,-64.8
54.296,-62.98
54.312,-64.0
54.328,-67.54
54.343,-72.8
54.359,-78.86
54.375,-85.04
54.390,-91.11
54.406,-97.26
54.421,-103.9
54.437,-111.44
54.453,-120.04
54.468,-129.56
54.484,-139.51
54.500,-149.02
54.515,-156.85
54.531,-161.46
54.546,-161.21
54.562,-154.8
54.578,-141.69
54.593,-122.38
54.609,-98.42
54.625,-72.03
54.640,-45.61
54.656,-21.19
54.671,-0.11
54.687,17.08
54.703,30.48
54.718,40.51
54.734,47.8
54.750,52.94
54.765,56.57
54.781,59.34
54.796,61.86
54.812,64.55
54.828,67.52
54.843,70.49
54.859,72.8
54.875,73.73
54.890,72.71
54.906,69.62
54.921,64.69
54.937,58.47
54.953,51.49
54.968,44.09
54.984,36.5
55.000,28.75
55.015,20.92
55.031,13.04
55.046,5.16
55.062,-2.72
55.078,-10.64
55.093,-18.52
55.109,-26.16
55.125,-33.26
55.140,-39.53
55.156,-44.85
55.171,-49.31
55.187,-53.29
55.203,-57.28
55.218,-61.76
55.234,-67.11
55.250,-73.4
55.265,-80.24
55.281,-86.65
55.296,-91.13
55.312,-91.92
55.328,-87.56
55.343,-77.43
55.359,-62.12
55.375,-43.29
55.390,-23.24
55.406,-4.18
55.421,12.33
55.437,25.59
55.453,35.58
55.468,42.63
55.484,47.05
55.500,49.11
55.515,49.11
55.531,47.57
55.546,45.24
55.562,42.99
55.578,41.49
55.593,41.03
55.609,41.51
55.625,42.48
55.640,43.5
55.656,44.23
55.671,44.55
55.687,44.44
55.703,43.98
55.718,43.07
55.734,41.58
55.750,39.32
55.765,36.11
55.781,31.92
55.796,26.82
55.812,21.05
55.828,14.9
55.843,8.79
55.859,3.05
55.875,-2.12
55.890,-6.75
55.906,-11.15
55.921,-15.71
55.937,-20.91
55.953,-27.04
55.968,-34.05
55.984,-41.38
56.000,-48.06
56.015,-52.72
56.031,-53.98
56.046,-50.82
56.062,-42.83
56.078,-30.42
56.093,-14.78
56.109,2.46
56.125,19.53
56.140,34.92
56.156,47.63
56.171,57.18
56.187,63.58
56.203,67.19
56.218,68.47
56.234,67.94
56.250,66.11
56.265,63.53
56.281,60.7
56.296,58.2
56.312,56.45
56.328,55.65
56.343,55.76
56.359,56.44
56.375,57.31
56.390,58.03
56.406,58.47
56.421,58.61
56.437,58.54
56.453,58.35
56.468,57.97
56.484,57.27
56.500,56.02
56.515,54.14
56.531,51.65
56.546,48.76
56.562,45.72
56.578,42.77
56.593,40.07
56.609,37.63
56.625,35.44
56.640,33.4
56.656,31.47
56.671,29.62
56.687,27.86
56.703,26.21
56.718,24.71
56.734,23.33
56.750,22.02
56.765,20.7
56.781,19.32
56.796,17.84
56.812,16.3
56.828,14.83
56.843,13.59
56.859,12.72
56.875,12.23
56.890,11.97
56.906,11.72
56.921,11.19
56.937,10.21
56.953,8.8
56.968,7.14
56.984,5.51
57.000,4.17
57.015,3.31
57.031,2.92
57.046,2.86
57.062,2.84
57.078,2.58
57.093,1.89
57.109,0.68
57.125,-0.92
57.140,-2.73
57.156,-4.5
57.171,-6.09
57.187,-7.53
57.203,-9.0
57.218,-10.75
57.234,-13.03
57.250,-16.02
57.265,-19.76
57.281,-24.19
57.296,-29.17
57.312,-34.49
57.328,-39.97
57.343,-45.54
57.359,-51.3
57.375,-57.45
57.390,-64.18
57.406,-71.29
57.421,-78.07
57.437,-83.27
57.453,-85.39
57.468,-83.12
57.484,-75.88
57.500,-64.05
57.515,-48.87
57.531,-32.09
57.546,-15.5
57.562,-0.52
57.578,11.95
57.593,21.51
57.609,28.06
57.625,31.74
57.640,32.83
57.656,31.83
57.671,29.36
57.687,26.22
57.703,23.13
57.718,20.59
57.734,18.81
57.750,17.65
57.765,16.75
57.781,15.82
57.796,14.76
57.812,13.69
57.828,12.96
57.843,12.94
57.859,13.73
57.875,15.06
57.890,16.38
57.906,16.84
57.921,15.63
57.937,12.11
57.953,6.0
57.968,-2.6
57.984,-13.2
58.000,-25.14
58.015,-37.73
58.031,-50.34
58.046,-62.64
58.062,-74.49
58.078,-85.87
58.093,-96.61
58.109,-106.11
58.125,-113.36
58.140,-117.04
58.156,-115.96
58.171,-109.49
58.187,-97.83
58.203,-82.06
58.218,-63.9
58.234,-45.24
58.250,-27.7
58.265,-12.39
58.281,0.15
58.296,9.85
58.312,16.91
58.328,21.73
58.343,24.74
58.359,26.47
58.375,27.41
58.390,28.0
58.406,28.64
58.421,29.54
58.437,30.75
58.453,32.15
58.468,33.49
58.484,34.5
58.500,35.06
58.515,35.02
58.531,34.35
58.546,32.93
58.562,30.54
58.578,26.87
58.593,21.69
58.609,14.97
58.625,6.91
58.640,-1.98
58.656,-11.08
58.671,-19.8
58.687,-27.73
58.703,-34.79
58.718,-41.23
58.734,-47.59
58.750,-54.33
58.765,-61.67
58.781,-69.22
58.796,-75.96
58.812,-80.44
58.828,-81.09
58.843,-76.77
58.859,-67.14
58.875,-52.84
58.890,-35.31
58.906,-16.51
58.921,1.61
58.937,17.49
58.953,30.09
58.968,39.07
58.984,44.62
59.000,47.21
59.015,47.47
59.031,45.98
59.046,43.36
59.062,40.22
59.078,37.13
59.093,34.49
59.109,32.49
59.125,30.99
59.140,29.71
59.156,28.34
59.171,26.72
59.187,24.88
59.203,22.99
59.218,21.17
59.234,19.32
59.250,17.25
59.265,14.66
59.281,11.37
59.296,7.39
59.312,2.9
59.328,-1.89
59.343,-6.76
59.359,-11.57
59.375,-16.34
59.390,-21.2
59.406,-26.39
59.421,-32.25
59.437,-38.98
59.453,-46.43
59.468,-53.96
59.484,-60.28
59.500,-63.75
59.515,-62.84
59.531,-56.64
59.546,-45.26
59.562,-29.92
59.578,-12.51
59.593,4.91
59.609,20.65
59.625,33.69
59.640,43.71
59.656,50.8
59.671,55.25
59.687,57.44
59.703,57.72
59.718,56.54
59.734,54.47
59.750,52.08
59.765,49.86
59.781,48.06
59.796,46.61
59.812,45.22
59.828,43.61
59.843,41.63
59.859,39.41
59.875,37.23
59.890,35.37
59.906,33.85
59.921,32.43
59.937,30.65
59.953,28.02
59.968,24.3
59.984,19.56
