timestamp,value
00.000,2.89
00.015,-0.1
00.031,-4.81
00.046,-10.57
00.062,-16.53
00.078,-22.0
00.093,-26.66
00.109,-30.46
00.125,-33.46
00.140,-35.58
00.156,-36.69
00.171,-36.71
00.187,-35.89
00.203,-34.71
00.218,-33.72
00.234,-33.23
00.250,-33.06
00.265,-32.68
00.281,-31.46
00.296,-29.0
00.312,-25.35
00.328,-20.83
00.343,-15.83
00.359,-10.52
00.375,-4.81
00.390,1.57
00.406,8.76
00.421,16.54
00.437,24.33
00.453,31.35
00.468,37.0
00.484,41.15
00.500,44.23
00.515,47.08
00.531,50.61
00.546,55.48
00.562,61.89
00.578,69.7
00.593,78.53
00.609,87.86
00.625,96.91
00.640,104.57
00.656,109.34
00.671,109.6
00.687,104.1
00.703,92.38
00.718,74.95
00.734,53.09
00.750,28.41
00.765,2.46
00.781,-23.46
00.796,-48.16
00.812,-70.26
00.828,-88.12
00.843,-100.1
00.859,-105.0
00.875,-102.64
00.890,-94.01
00.906,-81.08
00.921,-66.25
00.937,-51.63
00.953,-38.59
00.968,-27.56
00.984,-18.33
01.000,-10.36
01.015,-3.27
01.031,3.08
01.046,8.67
01.062,13.47
01.078,17.64
01.093,21.41
01.109,24.93
01.125,27.98
01.140,29.95
01.156,30.06
01.171,27.68
01.187,22.79
01.203,15.94
01.218,8.14
01.234,0.36
01.250,-6.87
01.265,-13.54
01.281,-19.99
01.296,-26.58
01.312,-33.37
01.328,-40.02
01.343,-46.02
01.359,-50.82
01.375,-54.04
01.390,-55.44
01.406,-54.9
01.421,-52.33
01.437,-47.82
01.453,-41.63
01.468,-34.25
01.484,-26.23
01.500,-18.05
01.515,-9.91
01.531,-1.73
01.546,6.67
01.562,15.33
01.578,24.01
01.593,32.21
01.609,39.41
01.625,45.38
01.640,50.44
01.656,55.5
01.671,61.76
01.687,70.43
01.703,82.31
01.718,97.55
01.734,115.49
01.750,134.58
01.765,152.48
01.781,166.23
01.796,172.79
01.812,169.78
01.828,156.22
01.843,132.99
01.859,102.61
01.875,68.58
01.890,34.29
01.906,2.16
01.921,-26.6
01.937,-51.76
01.953,-73.42
01.968,-91.5
01.984,-105.63
02.000,-115.39
02.015,-120.62
02.031,-121.62
02.046,-119.01
02.062,-113.54
02.078,-105.84
02.093,-96.33
02.109,-85.31
02.125,-73.17
02.140,-60.45
02.156,-47.84
02.171,-36.02
02.187,-25.54
02.203,-16.64
02.218,-9.1
02.234,-2.35
02.250,4.37
02.265,11.6
02.281,19.23
02.296,26.31
02.312,31.29
02.328,32.53
02.343,29.01
02.359,20.76
02.375,8.81
02.390,-5.18
02.406,-19.48
02.421,-32.64
02.437,-43.65
02.453,-51.84
02.468,-56.92
02.484,-59.03
02.500,-58.83
02.515,-57.47
02.531,-56.1
02.546,-55.51
02.562,-55.74
02.578,-56.15
02.593,-55.86
02.609,-54.2
02.625,-51.15
02.640,-47.18
02.656,-42.89
02.671,-38.48
02.687,-33.55
02.703,-27.24
02.718,-18.73
02.734,-7.77
02.750,5.01
02.765,18.35
02.781,30.82
02.796,41.42
02.812,50.06
02.828,57.39
02.843,64.54
02.859,72.55
02.875,82.04
02.890,93.08
02.906,105.25
02.921,117.6
02.937,128.6
02.953,136.14
02.968,137.78
02.984,131.42
03.000,116.11
03.015,92.56
03.031,63.16
03.046,31.37
03.062,0.68
03.078,-26.32
03.093,-48.34
03.109,-65.18
03.125,-77.22
03.140,-84.81
03.156,-88.11
03.171,-87.17
03.187,-82.23
03.203,-73.87
03.218,-62.91
03.234,-50.24
03.250,-36.55
03.265,-22.31
03.281,-7.79
03.296,6.57
03.312,20.08
03.328,31.71
03.343,40.28
03.359,44.84
03.375,45.1
03.390,41.6
03.406,35.65
03.421,28.83
03.437,22.39
03.453,16.77
03.468,11.45
03.484,5.32
03.500,-2.73
03.515,-13.11
03.531,-25.3
03.546,-37.94
03.562,-49.36
03.578,-58.2
03.593,-63.8
03.609,-66.37
03.625,-66.73
03.640,-65.95
03.656,-64.85
03.671,-63.77
03.687,-62.47
03.703,-60.33
03.718,-56.77
03.734,-51.5
03.750,-44.78
03.765,-37.22
03.781,-29.5
03.796,-22.01
03.812,-14.72
03.828,-7.37
03.843,0.23
03.859,7.9
03.875,15.11
03.890,21.24
03.906,25.92
03.921,29.33
03.937,32.1
03.953,35.12
03.968,39.13
03.984,44.56
04.000,51.48
04.015,59.83
04.031,69.45
04.046,80.07
04.062,90.91
04.078,100.48
04.093,106.62
04.109,106.92
04.125,99.45
04.140,83.55
04.156,60.1
04.171,31.46
04.187,0.85
04.203,-28.34
04.218,-53.18
04.234,-71.63
04.250,-82.63
04.265,-86.12
04.281,-82.9
04.296,-74.42
04.312,-62.55
04.328,-49.22
04.343,-36.08
04.359,-24.28
04.375,-14.31
04.390,-6.07
04.406,0.92
04.421,7.21
04.437,13.04
04.453,18.21
04.468,22.11
04.484,24.08
04.500,23.92
04.515,22.07
04.531,19.53
04.546,17.29
04.562,15.77
04.578,14.45
04.593,12.11
04.609,7.42
04.625,-0.34
04.640,-10.87
04.656,-22.86
04.671,-34.44
04.687,-43.75
04.703,-49.5
04.718,-51.18
04.734,-49.1
04.750,-44.25
04.765,-37.97
04.781,-31.6
04.796,-26.18
04.812,-22.21
04.828,-19.61
04.843,-17.91
04.859,-16.47
04.875,-14.76
04.890,-12.48
04.906,-9.47
04.921,-5.63
04.937,-0.89
04.953,4.78
04.968,11.28
04.984,18.31
05.000,25.35
05.015,31.83
05.031,37.31
05.046,41.73
05.062,45.51
05.078,49.42
05.093,54.32
05.109,60.81
05.125,69.08
05.140,78.87
05.156,89.62
05.171,100.67
05.187,111.31
05.203,120.7
05.218,127.82
05.234,131.43
05.250,130.33
05.265,123.62
05.281,111.06
05.296,93.16
05.312,71.14
05.328,46.67
05.343,21.53
05.359,-2.61
05.375,-24.38
05.390,-42.7
05.406,-56.87
05.421,-66.47
05.437,-71.38
05.453,-71.75
05.468,-68.03
05.484,-60.93
05.500,-51.3
05.515,-40.05
05.531,-27.95
05.546,-15.6
05.562,-3.58
05.578,7.41
05.593,16.28
05.609,21.56
05.625,21.83
05.640,16.3
05.656,5.41
05.671,-8.92
05.687,-23.81
05.703,-36.35
05.718,-44.68
05.734,-48.61
05.750,-49.56
05.765,-49.66
05.781,-50.7
05.796,-53.33
05.812,-56.9
05.828,-60.07
05.843,-61.65
05.859,-61.33
05.875,-59.75
05.890,-58.12
05.906,-57.6
05.921,-58.71
05.937,-61.22
05.953,-64.36
05.968,-67.26
05.984,-69.29
06.000,-70.25
06.015,-70.21
06.031,-69.35
06.046,-67.72
06.062,-65.19
06.078,-61.47
06.093,-56.27
06.109,-49.44
06.125,-41.16
06.140,-31.99
06.156,-22.74
06.171,-14.33
06.187,-7.38
06.203,-2.01
06.218,2.35
06.234,6.8
06.250,12.65
06.265,21.03
06.281,32.59
06.296,47.37
06.312,64.75
06.328,83.44
06.343,101.49
06.359,116.28
06.375,124.92
06.390,124.87
06.406,114.83
06.421,95.35
06.437,68.95
06.453,39.48
06.468,11.03
06.484,-13.17
06.500,-31.45
06.515,-43.62
06.531,-50.44
06.546,-52.88
06.562,-51.76
06.578,-47.66
06.593,-41.22
06.609,-33.22
06.625,-24.61
06.640,-16.23
06.656,-8.59
06.671,-1.83
06.687,4.16
06.703,9.57
06.718,14.49
06.734,18.94
06.750,23.03
06.765,26.98
06.781,31.12
06.796,35.61
06.812,40.18
06.828,43.95
06.843,45.55
06.859,43.52
06.875,36.79
06.890,25.12
06.906,9.33
06.921,-8.84
06.937,-27.04
06.953,-42.98
06.968,-54.92
06.984,-62.03
07.000,-64.5
07.015,-63.26
07.031,-59.62
07.046,-54.82
07.062,-49.77
07.078,-44.94
07.093,-40.47
07.109,-36.34
07.125,-32.55
07.140,-29.12
07.156,-26.08
07.171,-23.28
07.187,-20.31
07.203,-16.58
07.218,-11.44
07.234,-4.58
07.250,3.8
07.265,12.96
07.281,21.88
07.296,29.65
07.312,36.03
07.328,41.5
07.343,47.15
07.359,54.21
07.375,63.49
07.390,75.02
07.406,88.0
07.421,100.91
07.437,111.82
07.453,118.82
07.468,120.3
07.484,115.37
07.500,104.08
07.515,87.5
07.531,67.52
07.546,46.34
07.562,25.95
07.578,7.63
07.593,-8.14
07.609,-21.57
07.625,-33.11
07.640,-43.13
07.656,-51.72
07.671,-58.62
07.687,-63.32
07.703,-65.14
07.718,-63.34
07.734,-57.29
07.750,-46.62
07.765,-31.46
07.781,-12.55
07.796,8.75
07.812,30.58
07.828,50.73
07.843,66.92
07.859,77.09
07.875,79.79
07.890,74.55
07.906,62.06
07.921,44.18
07.937,23.5
07.953,2.7
07.968,-16.15
07.984,-31.94
08.000,-44.6
08.015,-54.72
08.031,-62.99
08.046,-69.85
08.062,-75.27
08.078,-78.97
08.093,-80.69
08.109,-80.54
08.125,-79.09
08.140,-77.22
08.156,-75.84
08.171,-75.53
08.187,-76.31
08.203,-77.69
08.218,-78.88
08.234,-79.04
08.250,-77.64
08.265,-74.49
08.281,-69.63
08.296,-63.26
08.312,-55.55
08.328,-46.6
08.343,-36.55
08.359,-25.66
08.375,-14.36
08.390,-3.22
08.406,7.1
08.421,16.11
08.437,23.53
08.453,29.45
08.468,34.27
08.484,38.57
08.500,42.94
08.515,47.85
08.531,53.62
08.546,60.4
08.562,68.32
08.578,77.4
08.593,87.5
08.609,97.97
08.625,107.51
08.640,114.19
08.656,115.94
08.671,111.17
08.687,99.44
08.703,81.79
08.718,60.46
08.734,38.37
08.750,18.44
08.765,3.0
08.781,-6.39
08.796,-9.07
08.812,-5.26
08.828,3.93
08.843,16.68
08.859,30.76
08.875,44.15
08.890,55.59
08.906,64.87
08.921,72.65
08.937,79.8
08.953,86.83
08.968,93.45
08.984,98.81
09.000,102.03
09.015,102.84
09.031,101.95
09.046,100.76
09.062,100.73
09.078,102.36
09.093,104.62
09.109,104.84
09.125,99.52
09.140,85.43
09.156,60.89
09.171,26.41
09.187,-15.37
09.203,-60.26
09.218,-103.33
09.234,-139.72
09.250,-165.42
09.265,-178.03
09.281,-177.42
09.296,-166.01
09.312,-148.29
09.328,-129.65
09.343,-114.55
09.359,-105.1
09.375,-100.64
09.390,-98.42
09.406,-95.24
09.421,-88.86
09.437,-78.71
09.453,-65.63
09.468,-50.98
09.484,-35.91
09.500,-21.0
09.515,-6.6
09.531,6.91
09.546,18.97
09.562,29.05
09.578,37.08
09.593,43.57
09.609,49.56
09.625,56.05
09.640,63.46
09.656,71.35
09.671,78.49
09.687,83.46
09.703,85.14
09.718,83.24
09.734,78.43
09.750,72.07
09.765,65.72
09.781,60.46
09.796,56.5
09.812,52.96
09.828,48.14
09.843,40.07
09.859,27.21
09.875,9.04
09.890,-13.62
09.906,-38.75
09.921,-63.62
09.937,-85.39
09.953,-101.79
09.968,-111.48
09.984,-114.25
10.000,-110.78
10.015,-102.37
10.031,-90.54
10.046,-76.71
10.062,-62.1
10.078,-47.69
10.093,-34.3
10.109,-22.66
10.125,-13.48
10.140,-7.23
10.156,-4.04
10.171,-3.36
10.187,-4.01
10.203,-4.24
10.218,-2.18
10.234,3.81
10.250,14.62
10.265,29.98
10.281,48.2
10.296,66.01
10.312,78.94
10.328,82.24
10.343,72.27
10.359,47.98
10.375,11.7
10.390,-31.37
10.406,-74.76
10.421,-112.78
10.437,-141.96
10.453,-161.41
10.468,-172.08
10.484,-175.58
10.500,-173.4
10.515,-166.7
10.531,-156.6
10.546,-144.42
10.562,-131.51
10.578,-118.87
10.593,-106.78
10.609,-94.95
10.625,-82.96
10.640,-70.8
10.656,-59.02
10.671,-48.57
10.687,-40.26
10.703,-34.38
10.718,-30.56
10.734,-27.77
10.750,-24.62
10.765,-19.69
10.781,-11.83
10.796,-0.49
10.812,14.12
10.828,31.09
10.843,48.99
10.859,66.4
10.875,82.19
10.890,95.91
10.906,107.61
10.921,117.52
10.937,125.5
10.953,130.78
10.968,131.94
10.984,127.43
11.000,116.17
11.015,98.05
11.031,74.02
11.046,45.87
11.062,15.69
11.078,-14.52
11.093,-43.08
11.109,-68.62
11.125,-90.03
11.140,-106.5
11.156,-117.66
11.171,-123.73
11.187,-125.44
11.203,-123.75
11.218,-119.51
11.234,-113.19
11.250,-104.86
11.265,-94.44
11.281,-81.88
11.296,-67.49
11.312,-51.92
11.328,-36.14
11.343,-21.23
11.359,-8.2
11.375,2.22
11.390,9.71
11.406,14.43
11.421,16.89
11.437,17.81
11.453,17.91
11.468,17.73
11.484,17.52
11.500,17.33
11.515,17.03
11.531,16.4
11.546,15.14
11.562,12.97
11.578,9.69
11.593,5.36
11.609,0.3
11.625,-4.9
11.640,-9.6
11.656,-13.31
11.671,-15.92
11.687,-17.7
11.703,-19.17
11.718,-20.86
11.734,-22.94
11.750,-25.16
11.765,-26.79
11.781,-26.87
11.796,-24.47
11.812,-19.03
11.828,-10.53
11.843,0.41
11.859,12.69
11.875,25.06
11.890,36.37
11.906,45.87
11.921,53.31
11.937,58.86
11.953,63.0
11.968,66.37
11.984,69.55
12.000,73.05
12.015,77.19
12.031,82.12
12.046,87.68
12.062,93.46
12.078,98.64
12.093,102.17
12.109,102.9
12.125,100.01
12.140,93.31
12.156,83.33
12.171,71.18
12.187,58.04
12.203,44.83
12.218,31.92
12.234,19.41
12.250,7.51
12.265,-2.98
12.281,-10.66
12.296,-13.93
12.312,-11.77
12.328,-4.4
12.343,6.54
12.359,18.39
12.375,28.33
12.390,34.39
12.406,35.89
12.421,33.55
12.437,28.94
12.453,23.89
12.468,19.83
12.484,17.55
12.500,17.13
12.515,18.02
12.531,19.22
12.546,19.51
12.562,17.86
12.578,13.79
12.593,7.72
12.609,0.86
12.625,-5.14
12.640,-8.92
12.656,-10.01
12.671,-9.03
12.687,-7.48
12.703,-7.0
12.718,-8.76
12.734,-12.99
12.750,-18.94
12.765,-25.27
12.781,-30.52
12.796,-33.69
12.812,-34.44
12.828,-33.18
12.843,-30.83
12.859,-28.42
12.875,-26.69
12.890,-25.92
12.906,-25.89
12.921,-26.08
12.937,-25.95
12.953,-25.13
12.968,-23.47
12.984,-20.94
13.000,-17.57
13.015,-13.36
13.031,-8.34
13.046,-2.62
13.062,3.5
13.078,9.66
13.093,15.56
13.109,21.12
13.125,26.53
13.140,32.16
13.156,38.25
13.171,44.72
13.187,50.96
13.203,56.1
13.218,59.44
13.234,60.99
13.250,61.79
13.265,63.74
13.281,69.07
13.296,79.4
13.312,95.08
13.328,114.76
13.343,135.55
13.359,153.73
13.375,165.56
13.390,168.23
13.406,160.45
13.421,142.77
13.437,117.33
13.453,87.23
13.468,55.72
13.484,25.47
13.500,-1.9
13.515,-25.82
13.531,-46.45
13.546,-64.22
13.562,-79.48
13.578,-92.38
13.593,-102.9
13.609,-110.98
13.625,-116.6
13.640,-119.83
13.656,-120.92
13.671,-120.33
13.687,-118.7
13.703,-116.71
13.718,-114.74
13.734,-112.66
13.750,-109.64
13.765,-104.52
13.781,-96.29
13.796,-84.68
13.812,-70.35
13.828,-54.73
13.843,-39.36
13.859,-25.41
13.875,-13.31
13.890,-3.01
13.906,5.61
13.921,12.31
13.937,16.48
13.953,17.44
13.968,14.95
13.984,9.51
14.000,2.3
14.015,-5.18
14.031,-11.72
14.046,-16.65
14.062,-19.96
14.078,-22.04
14.093,-23.35
14.109,-24.22
14.125,-24.73
14.140,-24.86
14.156,-24.6
14.171,-24.03
14.187,-23.24
14.203,-22.29
14.218,-21.1
14.234,-19.48
14.250,-17.17
14.265,-13.93
14.281,-9.48
14.296,-3.4
14.312,4.79
14.328,15.67
14.343,29.55
14.359,46.28
14.375,65.08
14.390,84.51
14.406,102.71
14.421,117.59
14.437,127.24
14.453,130.37
14.468,126.88
14.484,118.2
14.500,107.26
14.515,97.86
14.531,93.51
14.546,96.22
14.562,105.69
14.578,119.35
14.593,133.27
14.609,143.41
14.625,146.81
14.640,142.1
14.656,129.46
14.671,110.02
14.687,85.34
14.703,56.97
14.718,26.34
14.734,-5.21
14.750,-36.37
14.765,-65.8
14.781,-92.18
14.796,-114.16
14.812,-130.46
14.828,-139.96
14.843,-141.96
14.859,-136.47
14.875,-124.51
14.890,-108.12
14.906,-90.02
14.921,-72.96
14.937,-59.0
14.953,-49.09
14.968,-43.1
14.984,-40.08
15.000,-38.79
15.015,-37.98
15.031,-36.56
15.046,-33.72
15.062,-29.06
15.078,-22.77
15.093,-15.77
15.109,-9.41
15.125,-5.02
15.140,-3.37
15.156,-4.43
15.171,-7.5
15.187,-11.75
15.203,-16.62
15.218,-22.04
15.234,-28.16
15.250,-34.94
15.265,-41.94
15.281,-48.37
15.296,-53.4
15.312,-56.55
15.328,-57.9
15.343,-57.86
15.359,-56.92
15.375,-55.26
15.390,-52.67
15.406,-48.73
15.421,-43.1
15.437,-35.92
15.453,-27.78
15.468,-19.64
15.484,-12.33
15.500,-6.23
15.515,-1.13
15.531,3.57
15.546,8.46
15.562,13.76
15.578,19.22
15.593,24.28
15.609,28.48
15.625,31.84
15.640,34.92
15.656,38.63
15.671,43.94
15.687,51.44
15.703,61.22
15.718,72.76
15.734,84.94
15.750,96.08
15.765,104.09
15.781,106.73
15.796,102.18
15.812,89.74
15.828,70.38
15.843,46.76
15.859,22.6
15.875,1.61
15.890,-13.75
15.906,-22.75
15.921,-26.24
15.937,-25.81
15.953,-22.73
15.968,-17.57
15.984,-10.28
16.000,-0.75
16.015,10.64
16.031,23.01
16.046,35.34
16.062,47.01
16.078,58.12
16.093,69.19
16.109,80.46
16.125,91.26
16.140,99.75
16.156,103.4
16.171,99.93
16.187,88.28
16.203,69.18
16.218,45.02
16.234,19.03
16.250,-5.76
16.265,-27.39
16.281,-45.35
16.296,-60.3
16.312,-73.31
16.328,-85.05
16.343,-95.25
16.359,-102.88
16.375,-106.71
16.390,-106.11
16.406,-101.6
16.421,-94.71
16.437,-87.51
16.453,-81.66
16.468,-77.82
16.484,-75.44
16.500,-73.28
16.515,-70.09
16.531,-65.25
16.546,-58.93
16.562,-51.86
16.578,-44.82
16.593,-38.16
16.609,-31.76
16.625,-25.16
16.640,-17.92
16.656,-9.94
16.671,-1.53
16.687,6.7
16.703,14.15
16.718,20.52
16.734,25.94
16.750,30.88
16.765,35.92
16.781,41.62
16.796,48.4
16.812,56.68
16.828,66.89
16.843,79.43
16.859,94.34
16.875,110.96
16.890,127.55
16.906,141.47
16.921,149.72
16.937,149.88
16.953,140.95
16.968,123.77
16.984,100.84
17.000,75.51
17.015,51.17
17.031,30.41
17.046,14.73
17.062,4.68
17.078,0.16
17.093,0.76
17.109,5.93
17.125,15.01
17.140,27.15
17.156,41.35
17.171,56.61
17.187,71.97
17.203,86.67
17.218,100.12
17.234,111.74
17.250,120.92
17.265,126.94
17.281,129.15
17.296,127.2
17.312,121.45
17.328,113.16
17.343,104.53
17.359,98.29
17.375,96.84
17.390,101.29
17.406,110.79
17.421,122.4
17.437,131.97
17.453,135.57
17.468,130.85
17.484,117.84
17.500,98.61
17.515,76.23
17.531,53.32
17.546,31.26
17.562,10.09
17.578,-10.81
17.593,-31.9
17.609,-52.95
17.625,-73.05
17.640,-91.05
17.656,-105.9
17.671,-116.88
17.687,-123.58
17.703,-125.67
17.718,-122.74
17.734,-114.35
17.750,-100.08
17.765,-79.9
17.781,-54.19
17.796,-24.06
17.812,8.71
17.828,41.68
17.843,71.98
17.859,96.84
17.875,114.41
17.890,124.42
17.906,128.53
17.921,130.01
17.937,132.76
17.953,140.15
17.968,153.94
17.984,173.64
18.000,196.6
18.015,218.68
18.031,235.31
18.046,242.62
18.062,238.43
18.078,223.12
18.093,199.81
18.109,173.75
18.125,150.81
18.140,135.41
18.156,128.97
18.171,129.5
18.187,132.76
18.203,134.4
18.218,131.82
18.234,124.97
18.250,115.76
18.265,106.54
18.281,98.89
18.296,93.09
18.312,88.7
18.328,85.32
18.343,83.14
18.359,82.75
18.375,84.34
18.390,87.28
18.406,89.97
18.421,90.51
18.437,87.45
18.453,80.4
18.468,70.11
18.484,58.01
18.500,45.59
18.515,33.69
18.531,22.36
18.546,11.02
18.562,-1.09
18.578,-14.4
18.593,-28.68
18.609,-43.16
18.625,-56.86
18.640,-69.03
18.656,-79.45
18.671,-88.42
18.687,-96.55
18.703,-104.33
18.718,-111.9
18.734,-119.0
18.750,-125.16
18.765,-130.04
18.781,-133.75
18.796,-136.87
18.812,-140.27
18.828,-144.74
18.843,-150.67
18.859,-157.94
18.875,-166.1
18.890,-174.6
18.906,-183.2
18.921,-192.04
18.937,-201.65
18.953,-212.74
18.968,-226.05
18.984,-242.18
19.000,-261.22
19.015,-282.47
19.031,-304.07
19.046,-323.15
19.062,-336.44
19.078,-341.29
19.093,-336.77
19.109,-324.09
19.125,-306.14
19.140,-286.37
19.156,-267.49
19.171,-250.67
19.187,-235.57
19.203,-221.12
19.218,-206.46
19.234,-191.49
19.250,-176.91
19.265,-163.74
19.281,-152.65
19.296,-143.68
19.312,-136.18
19.328,-129.16
19.343,-121.65
19.359,-113.1
19.375,-103.47
19.390,-93.1
19.406,-82.47
19.421,-71.98
19.437,-61.8
19.453,-52.01
19.468,-42.82
19.484,-34.71
19.500,-28.34
19.515,-24.23
19.531,-22.45
19.546,-22.5
19.562,-23.42
19.578,-24.21
19.593,-24.23
19.609,-23.4
19.625,-22.03
19.640,-20.55
19.656,-19.16
19.671,-17.65
19.687,-15.51
19.703,-12.16
19.718,-7.19
19.734,-0.59
19.750,7.18
19.765,15.31
19.781,22.9
19.796,29.31
19.812,34.44
19.828,38.84
19.843,43.51
19.859,49.45
19.875,57.22
19.890,66.71
19.906,77.15
19.921,87.32
19.937,95.86
19.953,101.55
19.968,103.39
19.984,100.86
20.000,94.02
20.015,83.65
20.031,71.14
20.046,58.19
20.062,46.31
20.078,36.4
20.093,28.58
20.109,22.29
20.125,16.67
20.140,10.8
20.156,4.07
20.171,-3.83
20.187,-12.82
20.203,-22.56
20.218,-32.46
20.234,-41.94
20.250,-50.65
20.265,-58.6
20.281,-66.1
20.296,-73.39
20.312,-80.3
20.328,-85.98
20.343,-89.09
20.359,-88.31
20.375,-82.94
20.390,-73.32
20.406,-60.77
20.421,-47.22
20.437,-34.57
20.453,-24.24
20.468,-16.9
20.484,-12.53
20.500,-10.65
20.515,-10.56
20.531,-11.58
20.546,-13.35
20.562,-16.14
20.578,-20.96
20.593,-29.34
20.609,-42.75
20.625,-61.89
20.640,-86.16
20.656,-113.56
20.671,-141.23
20.687,-166.33
20.703,-186.84
20.718,-202.1
20.734,-212.57
20.750,-219.43
20.765,-223.83
20.781,-226.48
20.796,-227.4
20.812,-226.07
20.828,-221.67
20.843,-213.29
20.859,-200.15
20.875,-181.77
20.890,-158.21
20.906,-130.32
20.921,-99.88
20.937,-69.35
20.953,-41.28
20.968,-17.43
20.984,1.95
21.000,18.17
21.015,33.37
21.031,49.4
21.046,66.71
21.062,84.06
21.078,99.13
21.093,109.66
21.109,114.57
21.125,114.34
21.140,110.67
21.156,105.63
21.171,100.97
21.187,97.72
21.203,96.19
21.218,95.96
21.234,95.85
21.250,94.01
21.265,88.07
21.281,75.62
21.296,54.94
21.312,25.57
21.328,-11.3
21.343,-52.87
21.359,-95.22
21.375,-133.88
21.390,-164.77
21.406,-184.97
21.421,-193.4
21.437,-191.11
21.453,-181.05
21.468,-167.34
21.484,-154.21
21.500,-145.1
21.515,-141.99
21.531,-145.41
21.546,-154.77
21.562,-168.81
21.578,-185.98
21.593,-204.57
21.609,-222.77
21.625,-238.82
21.640,-251.18
21.656,-258.88
21.671,-261.7
21.687,-260.19
21.703,-255.41
21.718,-248.65
21.734,-241.09
21.750,-233.71
21.765,-227.19
21.781,-221.83
21.796,-217.43
21.812,-213.09
21.828,-207.32
21.843,-198.43
21.859,-185.11
21.875,-166.98
21.890,-144.68
21.906,-119.58
21.921,-93.16
21.937,-66.47
21.953,-39.82
21.968,-12.91
21.984,14.74
22.000,43.29
22.015,72.11
22.031,99.68
22.046,123.81
22.062,142.18
22.078,153.09
22.093,155.99
22.109,151.7
22.125,142.05
22.140,129.2
22.156,114.88
22.171,100.07
22.187,84.99
22.203,69.6
22.218,53.9
22.234,38.11
22.250,22.5
22.265,7.12
22.281,-8.17
22.296,-23.39
22.312,-38.03
22.328,-50.82
22.343,-59.93
22.359,-63.57
22.375,-60.75
22.390,-51.69
22.406,-37.7
22.421,-20.68
22.437,-2.39
22.453,15.92
22.468,33.51
22.484,49.9
22.500,64.58
22.515,76.99
22.531,86.82
22.546,94.37
22.562,100.59
22.578,106.8
22.593,114.12
22.609,122.9
22.625,132.57
22.640,141.79
22.656,149.04
22.671,153.16
22.687,153.71
22.703,150.96
22.718,145.59
22.734,138.27
22.750,129.4
22.765,119.02
22.781,107.14
22.796,94.07
22.812,80.85
22.828,69.24
22.843,61.41
22.859,59.33
22.875,64.06
22.890,75.34
22.906,91.74
22.921,111.09
22.937,131.24
22.953,150.51
22.968,167.85
22.984,182.63
23.000,194.3
23.015,202.28
23.031,206.18
23.046,206.15
23.062,203.07
23.078,198.34
23.093,193.26
23.109,188.39
23.125,183.13
23.140,175.98
23.156,165.18
23.171,149.6
23.187,129.2
23.203,105.03
23.218,78.76
23.234,52.07
23.250,26.18
23.265,1.74
23.281,-20.96
23.296,-41.61
23.312,-59.66
23.328,-74.21
23.343,-84.23
23.359,-88.78
23.375,-87.38
23.390,-80.25
23.406,-68.32
23.421,-53.1
23.437,-36.31
23.453,-19.64
23.468,-4.48
23.484,8.16
23.500,17.67
23.515,23.86
23.531,26.82
23.546,26.94
23.562,24.79
23.578,21.09
23.593,16.69
23.609,12.51
23.625,9.51
23.640,8.62
23.656,10.5
23.671,15.4
23.687,23.04
23.703,32.55
23.718,42.7
23.734,52.14
23.750,59.64
23.765,64.38
23.781,66.07
23.796,65.01
23.812,62.09
23.828,58.67
23.843,56.33
23.859,56.49
23.875,60.03
23.890,66.93
23.906,76.21
23.921,86.23
23.937,95.24
23.953,102.03
23.968,106.35
23.984,108.73
24.000,110.08
24.015,111.08
24.031,111.89
24.046,112.14
24.062,111.38
24.078,109.5
24.093,106.86
24.109,104.11
24.125,101.84
24.140,100.25
24.156,99.14
24.171,98.13
24.187,96.92
24.203,95.35
24.218,93.35
24.234,90.58
24.250,86.37
24.265,79.76
24.281,69.84
24.296,56.26
24.312,39.62
24.328,21.59
24.343,4.65
24.359,-8.65
24.375,-16.38
24.390,-17.93
24.406,-14.18
24.421,-7.25
24.437,0.2
24.453,5.83
24.468,8.21
24.484,7.14
24.500,3.45
24.515,-1.42
24.531,-5.98
24.546,-9.13
24.562,-10.37
24.578,-9.73
24.593,-7.61
24.609,-4.5
24.625,-0.75
24.640,3.5
24.656,8.21
24.671,13.31
24.687,18.63
24.703,23.88
24.718,28.8
24.734,33.26
24.750,37.27
24.765,40.88
24.781,44.14
24.796,47.07
24.812,49.84
24.828,52.96
24.843,57.43
24.859,64.47
24.875,75.02
24.890,88.97
24.906,104.68
24.921,119.04
24.937,128.28
24.953,129.22
24.968,120.44
24.984,102.71
25.000,78.66
25.015,51.8
25.031,25.35
25.046,1.58
25.062,-18.16
25.078,-33.11
25.093,-42.67
25.109,-46.31
25.125,-43.91
25.140,-36.13
25.156,-24.42
25.171,-10.71
25.187,3.23
25.203,16.3
25.218,28.06
25.234,38.36
25.250,46.71
25.265,52.0
25.281,52.81
25.296,48.26
25.312,38.83
25.328,26.8
25.343,15.6
25.359,8.55
25.375,7.38
25.390,11.49
25.406,18.21
25.421,23.97
25.437,25.81
25.453,22.26
25.468,13.46
25.484,0.51
25.500,-15.21
25.515,-32.41
25.531,-49.75
25.546,-65.67
25.562,-78.3
25.578,-85.96
25.593,-87.75
25.609,-83.99
25.625,-76.11
25.640,-66.14
25.656,-55.88
25.671,-46.46
25.687,-38.2
25.703,-30.87
25.718,-24.08
25.734,-17.54
25.750,-11.18
25.765,-5.09
25.781,0.63
25.796,5.99
25.812,11.14
25.828,16.47
25.843,22.58
25.859,30.19
25.875,39.99
25.890,52.4
25.906,67.52
25.921,84.93
25.937,103.84
25.953,123.07
25.968,141.0
25.984,155.62
26.000,164.6
26.015,165.64
26.031,157.06
26.046,138.38
26.062,110.7
26.078,76.56
26.093,39.43
26.109,2.86
26.125,-30.28
26.140,-58.15
26.156,-79.92
26.171,-95.46
26.187,-104.95
26.203,-108.7
26.218,-107.26
26.234,-101.51
26.250,-92.76
26.265,-82.51
26.281,-72.04
26.296,-62.02
26.312,-52.36
26.328,-42.42
26.343,-31.49
26.359,-19.3
26.375,-6.22
26.390,6.89
26.406,19.1
26.421,29.84
26.437,38.96
26.453,46.6
26.468,52.82
26.484,57.32
26.500,59.39
26.515,58.13
26.531,52.6
26.546,42.28
26.562,27.19
26.578,8.09
26.593,-13.47
26.609,-35.38
26.625,-55.33
26.640,-71.36
26.656,-82.24
26.671,-87.72
26.687,-88.35
26.703,-85.21
26.718,-79.49
26.734,-72.24
26.750,-64.32
26.765,-56.36
26.781,-48.81
26.796,-41.87
26.812,-35.34
26.828,-28.63
26.843,-20.86
26.859,-11.22
26.875,0.66
26.890,14.48
26.906,29.21
26.921,43.48
26.937,56.05
26.953,66.26
26.968,74.3
26.984,81.01
27.000,87.55
27.015,94.94
27.031,103.74
27.046,113.96
27.062,124.91
27.078,135.27
27.093,143.08
27.109,146.04
27.125,141.93
27.140,129.23
27.156,107.78
27.171,78.94
27.187,45.32
27.203,10.05
27.218,-24.08
27.234,-55.22
27.250,-82.43
27.265,-105.35
27.281,-123.49
27.296,-135.97
27.312,-141.63
27.328,-139.68
27.343,-130.35
27.359,-115.1
27.375,-96.37
27.390,-76.72
27.406,-58.02
27.421,-41.01
27.437,-25.52
27.453,-11.08
27.468,2.4
27.484,14.41
27.500,24.11
27.515,30.97
27.531,35.08
27.546,37.23
27.562,38.39
27.578,39.22
27.593,39.63
27.609,38.95
27.625,36.27
27.640,30.92
27.656,22.75
27.671,12.12
27.687,-0.28
27.703,-13.69
27.718,-27.46
27.734,-41.1
27.750,-54.16
27.765,-66.08
27.781,-76.03
27.796,-83.01
27.812,-85.99
27.828,-84.27
27.843,-77.87
27.859,-67.56
27.875,-54.82
27.890,-41.43
27.906,-28.94
27.921,-18.36
27.937,-9.91
27.953,-3.23
27.968,2.4
27.984,7.73
28.000,13.32
28.015,19.39
28.031,25.94
28.046,32.8
28.062,39.79
28.078,46.84
28.093,53.99
28.109,61.41
28.125,69.36
28.140,78.17
28.156,88.11
28.171,99.13
28.187,110.62
28.203,121.05
28.218,128.08
28.234,128.96
28.250,121.42
28.265,104.54
28.281,79.25
28.296,48.24
28.312,15.2
28.328,-16.2
28.343,-43.3
28.359,-64.74
28.375,-80.33
28.390,-90.43
28.406,-95.51
28.421,-95.95
28.437,-92.24
28.453,-85.19
28.468,-76.09
28.484,-66.4
28.500,-57.28
28.515,-49.23
28.531,-42.03
28.546,-35.07
28.562,-27.9
28.578,-20.53
28.593,-13.38
28.609,-6.98
28.625,-1.52
28.640,3.27
28.656,7.81
28.671,12.21
28.687,15.88
28.703,17.62
28.718,16.15
28.734,10.8
28.750,1.93
28.765,-9.01
28.781,-19.97
28.796,-28.99
28.812,-34.75
28.828,-36.95
28.843,-36.22
28.859,-33.76
28.875,-30.9
28.890,-28.65
28.906,-27.54
28.921,-27.44
28.937,-27.83
28.953,-28.02
28.968,-27.43
28.984,-25.77
29.000,-23.12
29.015,-19.72
29.031,-15.83
29.046,-11.56
29.062,-6.79
29.078,-1.37
29.093,4.78
29.109,11.53
29.125,18.48
29.140,25.19
29.156,31.3
29.171,36.75
29.187,41.75
29.203,46.77
29.218,52.31
29.234,58.87
29.250,66.9
29.265,76.8
29.281,88.8
29.296,102.56
29.312,116.86
29.328,129.34
29.343,136.92
29.359,136.57
29.375,126.35
29.390,106.16
29.406,77.83
29.421,44.52
29.437,9.73
29.453,-23.55
29.468,-53.27
29.484,-78.23
29.500,-97.71
29.515,-111.2
29.531,-118.36
29.546,-119.24
29.562,-114.54
29.578,-105.65
29.593,-94.37
29.609,-82.45
29.625,-71.16
29.640,-61.03
29.656,-51.99
29.671,-43.69
29.687,-35.94
29.703,-28.85
29.718,-22.79
29.734,-18.08
29.750,-14.65
29.765,-12.02
29.781,-9.5
29.796,-6.59
29.812,-3.43
29.828,-0.7
29.843,0.69
29.859,-0.02
29.875,-3.0
29.890,-7.88
29.906,-13.96
29.921,-20.61
29.937,-27.37
29.953,-34.02
29.968,-40.34
29.984,-45.9
30.000,-50.18
30.015,-52.66
30.031,-53.08
30.046,-51.57
30.062,-48.57
30.078,-44.63
30.093,-40.22
30.109,-35.63
30.125,-31.02
30.140,-26.5
30.156,-22.23
30.171,-18.36
30.187,-14.98
30.203,-12.01
30.218,-9.19
30.234,-6.07
30.250,-2.23
30.265,2.62
30.281,8.56
30.296,15.41
30.312,22.83
30.328,30.43
30.343,37.94
30.359,45.24
30.375,52.46
30.390,59.75
30.406,67.25
30.421,74.73
30.437,81.55
30.453,86.59
30.468,88.52
30.484,86.12
30.500,78.62
30.515,65.99
30.531,48.94
30.546,28.81
30.562,7.31
30.578,-13.78
30.593,-32.81
30.609,-48.41
30.625,-59.59
30.640,-65.83
30.656,-67.13
30.671,-64.08
30.687,-57.75
30.703,-49.5
30.718,-40.67
30.734,-32.28
30.750,-24.87
30.765,-18.44
30.781,-12.67
30.796,-7.15
30.812,-1.56
30.828,4.24
30.843,10.27
30.859,16.42
30.875,22.44
30.890,27.83
30.906,31.75
30.921,33.1
30.937,30.85
30.953,24.46
30.968,14.23
30.984,1.43
31.000,-12.05
31.015,-24.2
31.031,-33.54
31.046,-39.45
31.062,-42.23
31.078,-42.74
31.093,-42.04
31.109,-41.02
31.125,-40.25
31.140,-40.01
31.156,-40.4
31.171,-41.38
31.187,-42.79
31.203,-44.32
31.218,-45.5
31.234,-45.74
31.250,-44.45
31.265,-41.18
31.281,-35.75
31.296,-28.28
31.312,-19.16
31.328,-9.0
31.343,1.51
31.359,11.77
31.375,21.28
31.390,29.77
31.406,37.22
31.421,43.78
31.437,49.79
31.453,55.73
31.468,62.21
31.484,69.84
31.500,78.96
31.515,89.23
31.531,99.29
31.546,106.87
31.562,109.3
31.578,104.49
31.593,91.84
31.609,72.63
31.625,49.77
31.640,26.85
31.656,7.09
31.671,-7.35
31.687,-15.52
31.703,-17.4
31.718,-13.44
31.734,-4.39
31.750,8.72
31.765,24.58
31.781,41.75
31.796,58.94
31.812,75.36
31.828,90.84
31.843,105.53
31.859,119.33
31.875,131.54
31.890,140.71
31.906,145.07
31.921,143.19
31.937,134.58
31.953,119.87
31.968,100.57
31.984,78.53
32.000,55.57
32.015,33.21
32.031,12.3
32.046,-6.97
32.062,-25.13
32.078,-43.1
32.093,-61.72
32.109,-81.27
32.125,-101.43
32.140,-121.46
32.156,-140.61
32.171,-158.39
32.187,-174.25
32.203,-187.17
32.218,-195.42
32.234,-197.03
32.250,-190.83
32.265,-177.36
32.281,-159.07
32.296,-139.37
32.312,-121.2
32.328,-105.8
32.343,-92.47
32.359,-79.56
32.375,-65.67
32.390,-50.45
32.406,-34.82
32.421,-20.26
32.437,-8.06
32.453,1.24
32.468,7.9
32.484,12.74
32.500,16.69
32.515,20.57
32.531,24.8
32.546,29.4
32.562,33.91
32.578,37.47
32.593,38.94
32.609,37.13
32.625,31.14
32.640,20.5
32.656,5.4
32.671,-13.22
32.687,-33.71
32.703,-53.87
32.718,-71.24
32.734,-83.48
32.750,-88.94
32.765,-87.08
32.781,-78.71
32.796,-65.79
32.812,-50.81
32.828,-36.03
32.843,-22.68
32.859,-10.85
32.875,0.17
32.890,11.11
32.906,22.08
32.921,32.33
32.937,40.65
32.953,46.03
32.968,48.36
32.984,48.61
33.000,48.51
33.015,49.95
33.031,54.2
33.046,61.59
33.062,71.32
33.078,81.78
33.093,90.85
33.109,96.4
33.125,96.85
33.140,91.69
33.156,81.66
33.171,68.63
33.187,54.81
33.203,41.99
33.218,30.84
33.234,20.88
33.250,10.88
33.265,-0.18
33.281,-12.4
33.296,-24.69
33.312,-35.13
33.328,-41.73
33.343,-43.27
33.359,-39.82
33.375,-32.74
33.390,-24.22
33.406,-16.52
33.421,-11.26
33.437,-8.79
33.453,-8.05
33.468,-6.96
33.484,-3.11
33.500,5.21
33.515,18.26
33.531,34.6
33.546,51.42
33.562,65.47
33.578,74.18
33.593,76.56
33.609,73.57
33.625,67.83
33.640,62.7
33.656,61.09
33.671,64.26
33.687,71.18
33.703,78.65
33.718,82.35
33.734,78.37
33.750,64.7
33.765,42.07
33.781,13.73
33.796,-15.78
33.812,-42.16
33.828,-62.47
33.843,-75.62
33.859,-81.98
33.875,-82.8
33.890,-79.75
33.906,-74.86
33.921,-70.56
33.937,-69.46
33.953,-73.55
33.968,-83.26
33.984,-96.83
34.000,-110.61
34.015,-120.26
34.031,-122.39
34.046,-115.88
34.062,-102.12
34.078,-84.28
34.093,-66.02
34.109,-50.23
34.125,-38.49
34.140,-31.08
34.156,-27.32
34.171,-26.04
34.187,-25.75
34.203,-25.0
34.218,-22.64
34.234,-18.22
34.250,-12.15
34.265,-5.48
34.281,0.61
34.296,5.42
34.312,9.03
34.328,12.14
34.343,15.5
34.359,19.31
34.375,22.81
34.390,24.46
34.406,22.26
34.421,14.43
34.437,0.09
34.453,-20.17
34.468,-44.12
34.484,-68.21
34.500,-88.57
34.515,-102.24
34.531,-108.13
34.546,-107.32
34.562,-102.43
34.578,-96.3
34.593,-90.82
34.609,-86.42
34.625,-82.39
34.640,-77.84
34.656,-72.57
34.671,-67.26
34.687,-63.06
34.703,-60.67
34.718,-59.76
34.734,-59.08
34.750,-57.04
34.765,-52.55
34.781,-45.53
34.796,-36.91
34.812,-28.15
34.828,-20.51
34.843,-14.62
34.859,-10.39
34.875,-7.35
34.890,-5.07
34.906,-3.51
34.921,-3.0
34.937,-3.98
34.953,-6.61
34.968,-10.54
34.984,-14.91
35.000,-18.64
35.015,-20.78
35.031,-20.89
35.046,-19.06
35.062,-15.88
35.078,-12.1
35.093,-8.28
35.109,-4.64
35.125,-1.04
35.140,2.82
35.156,7.2
35.171,12.12
35.187,17.37
35.203,22.64
35.218,27.62
35.234,32.18
35.250,36.42
35.265,40.56
35.281,44.89
35.296,49.63
35.312,54.8
35.328,60.17
35.343,65.22
35.359,69.18
35.375,71.18
35.390,70.49
35.406,66.76
35.421,60.14
35.437,51.28
35.453,41.12
35.468,30.59
35.484,20.38
35.500,10.82
35.515,1.96
35.531,-6.26
35.546,-13.83
35.562,-20.56
35.578,-26.12
35.593,-30.15
35.609,-32.4
35.625,-32.91
35.640,-32.02
35.656,-30.24
35.671,-28.15
35.687,-26.14
35.703,-24.22
35.718,-22.08
35.734,-19.25
35.750,-15.29
35.765,-10.09
35.781,-3.87
35.796,2.95
35.812,9.96
35.828,16.96
35.843,24.02
35.859,31.39
35.875,39.27
35.890,47.7
35.906,56.55
35.921,65.54
35.937,74.19
35.953,81.67
35.968,86.65
35.984,87.38
36.000,82.16
36.015,70.06
36.031,51.54
36.046,28.67
36.062,4.59
36.078,-17.35
36.093,-34.57
36.109,-45.76
36.125,-50.9
36.140,-50.79
36.156,-46.56
36.171,-39.41
36.187,-30.47
36.203,-20.75
36.218,-10.96
36.234,-1.3
36.250,8.63
36.265,19.56
36.281,32.03
36.296,46.02
36.312,60.75
36.328,75.0
36.343,87.68
36.359,98.2
36.375,106.5
36.390,112.74
36.406,116.81
36.421,118.18
36.437,116.02
36.453,109.62
36.468,98.79
36.484,83.92
36.500,65.79
36.515,45.13
36.531,22.47
36.546,-1.72
36.562,-26.73
36.578,-51.27
36.593,-73.52
36.609,-91.51
36.625,-103.75
36.640,-109.73
36.656,-110.1
36.671,-106.46
36.687,-100.75
36.703,-94.62
36.718,-88.9
36.734,-83.43
36.750,-77.32
36.765,-69.36
36.781,-58.6
36.796,-44.77
36.812,-28.47
36.828,-10.95
36.843,6.21
36.859,21.67
36.875,34.53
36.890,44.57
36.906,52.09
36.921,57.77
36.937,62.48
36.953,67.11
36.968,72.46
36.984,78.99
37.000,86.69
37.015,95.02
37.031,102.81
37.046,108.51
37.062,110.4
37.078,106.9
37.093,96.97
37.109,80.28
37.125,57.39
37.140,29.65
37.156,-0.88
37.171,-31.8
37.187,-60.58
37.203,-84.97
37.218,-103.21
37.234,-114.05
37.250,-116.87
37.265,-111.67
37.281,-99.14
37.296,-80.7
37.312,-58.41
37.328,-34.74
37.343,-12.07
37.359,7.77
37.375,23.8
37.390,35.94
37.406,44.6
37.421,50.26
37.437,53.05
37.453,52.79
37.468,49.29
37.484,42.91
37.500,34.78
37.515,26.64
37.531,20.18
37.546,16.3
37.562,14.66
37.578,13.78
37.593,11.74
37.609,6.97
37.625,-1.12
37.640,-12.17
37.656,-25.22
37.671,-39.34
37.687,-53.9
37.703,-68.46
37.718,-82.41
37.734,-94.51
37.750,-103.0
37.765,-106.0
37.781,-102.28
37.796,-91.91
37.812,-76.36
37.828,-58.19
37.843,-40.25
37.859,-24.78
37.875,-12.84
37.890,-4.22
37.906,2.25
37.921,7.98
37.937,14.01
37.953,20.72
37.968,27.81
37.984,34.76
38.000,41.18
38.015,47.12
38.031,53.05
38.046,59.57
38.062,67.23
38.078,76.31
38.093,86.91
38.109,98.92
38.125,111.98
38.140,125.24
38.156,137.11
38.171,145.31
38.187,147.3
38.203,140.97
38.218,125.4
38.234,101.37
38.250,71.26
38.265,38.54
38.281,6.9
38.296,-20.57
38.312,-41.88
38.328,-56.4
38.343,-64.69
38.359,-68.09
38.375,-68.2
38.390,-66.5
38.406,-64.08
38.421,-61.58
38.437,-59.22
38.453,-56.91
38.468,-54.27
38.484,-50.59
38.500,-45.04
38.515,-36.97
38.531,-26.27
38.546,-13.66
38.562,-0.57
38.578,11.25
38.593,20.39
38.609,26.19
38.625,28.68
38.640,28.27
38.656,25.17
38.671,19.13
38.687,9.5
38.703,-4.27
38.718,-22.08
38.734,-42.81
38.750,-64.32
38.765,-83.86
38.781,-98.66
38.796,-106.75
38.812,-107.4
38.828,-101.32
38.843,-90.4
38.859,-77.11
38.875,-63.67
38.890,-51.55
38.906,-41.15
38.921,-32.12
38.937,-23.79
38.953,-15.75
38.968,-8.04
38.984,-1.04
39.000,4.85
39.015,9.59
39.031,13.52
39.046,17.31
39.062,21.61
39.078,26.69
39.093,32.42
39.109,38.39
39.125,44.22
39.140,49.83
39.156,55.5
39.171,61.72
39.187,68.96
39.203,77.45
39.218,87.13
39.234,97.67
39.250,108.57
39.265,119.09
39.281,128.17
39.296,134.39
39.312,136.13
39.328,131.93
39.343,120.94
39.359,103.22
39.375,79.78
39.390,52.35
39.406,22.99
39.421,-6.22
39.437,-33.37
39.453,-56.86
39.468,-75.39
39.484,-88.06
39.500,-94.51
39.515,-95.03
39.531,-90.58
39.546,-82.54
39.562,-72.32
39.578,-61.04
39.593,-49.32
39.609,-37.35
39.625,-25.22
39.640,-13.24
39.656,-2.12
39.671,7.2
39.687,13.85
39.703,17.41
39.718,17.95
39.734,15.89
39.750,11.73
39.765,5.86
39.781,-1.46
39.796,-9.84
39.812,-18.69
39.828,-27.23
39.843,-34.79
39.859,-41.08
39.875,-46.32
39.890,-51.08
39.906,-55.97
39.921,-61.22
39.937,-66.48
39.953,-70.95
39.968,-73.63
39.984,-73.76
40.000,-71.02
40.015,-65.66
40.031,-58.4
40.046,-50.18
40.062,-41.88
40.078,-34.1
40.093,-27.04
40.109,-20.59
40.125,-14.42
40.140,-8.18
40.156,-1.61
40.171,5.29
40.187,12.31
40.203,19.07
40.218,25.17
40.234,30.39
40.250,34.82
40.265,39.0
40.281,43.84
40.296,50.46
40.312,59.96
40.328,73.04
40.343,89.61
40.359,108.5
40.375,127.34
40.390,142.95
40.406,151.97
40.421,151.76
40.437,141.13
40.453,120.76
40.468,92.93
40.484,60.9
40.500,28.04
40.515,-2.85
40.531,-29.82
40.546,-51.79
40.562,-68.24
40.578,-78.95
40.593,-83.93
40.609,-83.41
40.625,-78.04
40.640,-68.89
40.656,-57.28
40.671,-44.53
40.687,-31.61
40.703,-19.06
40.718,-7.18
40.734,3.56
40.750,12.37
40.765,18.2
40.781,20.37
40.796,19.1
40.812,15.64
40.828,11.84
40.843,9.19
40.859,8.06
40.875,7.5
40.890,5.73
40.906,1.04
40.921,-7.44
40.937,-19.54
40.953,-34.22
40.968,-49.98
40.984,-65.26
41.000,-78.53
41.015,-88.47
41.031,-94.16
41.046,-95.39
41.062,-92.83
41.078,-87.82
41.093,-81.86
41.109,-76.04
41.125,-70.7
41.140,-65.6
41.156,-60.29
41.171,-54.52
41.187,-48.46
41.203,-42.49
41.218,-36.96
41.234,-31.97
41.250,-27.34
41.265,-22.81
41.281,-18.18
41.296,-13.39
41.312,-8.47
41.328,-3.3
41.343,2.47
41.359,9.44
41.375,18.23
41.390,29.27
41.406,42.6
41.421,57.85
41.437,74.29
41.453,90.86
41.468,106.16
41.484,118.34
41.500,125.3
41.515,125.07
41.531,116.45
41.546,99.59
41.562,76.16
41.578,49.04
41.593,21.54
41.609,-3.41
41.625,-23.86
41.640,-38.96
41.656,-48.64
41.671,-53.27
41.687,-53.39
41.703,-49.67
41.718,-43.03
41.734,-34.69
41.750,-25.94
41.765,-17.8
41.781,-10.69
41.796,-4.28
41.812,2.31
41.828,9.92
41.843,18.84
41.859,28.52
41.875,37.73
41.890,45.24
41.906,50.47
41.921,53.76
41.937,56.18
41.953,58.73
41.968,61.61
41.984,63.94
42.000,63.99
42.015,59.92
42.031,50.58
42.046,35.87
42.062,16.76
42.078,-5.19
42.093,-28.17
42.109,-50.5
42.125,-70.6
42.140,-87.06
42.156,-98.69
42.171,-104.74
42.187,-105.15
42.203,-100.66
42.218,-92.73
42.234,-83.15
42.250,-73.66
42.265,-65.53
42.281,-59.28
42.296,-54.66
42.312,-50.75
42.328,-46.35
42.343,-40.28
42.359,-31.85
42.375,-21.01
42.390,-8.41
42.406,4.84
42.421,17.57
42.437,29.0
42.453,38.92
42.468,47.7
42.484,56.08
42.500,64.81
42.515,74.43
42.531,85.06
42.546,96.23
42.562,106.76
42.578,114.85
42.593,118.31
42.609,115.17
42.625,104.27
42.640,85.85
42.656,61.53
42.671,33.99
42.687,6.18
42.703,-19.45
42.718,-41.35
42.734,-58.99
42.750,-72.49
42.765,-82.2
42.781,-88.29
42.796,-90.68
42.812,-89.21
42.828,-83.92
42.843,-75.24
42.859,-64.03
42.875,-51.3
42.890,-37.98
42.906,-24.69
42.921,-11.8
42.937,0.4
42.953,11.61
42.968,21.5
42.984,29.97
43.000,37.27
43.015,43.89
43.031,50.16
43.046,55.81
43.062,59.73
43.078,60.23
43.093,55.77
43.109,45.6
43.125,30.23
43.140,11.31
43.156,-8.9
43.171,-28.15
43.187,-44.69
43.203,-57.47
43.218,-66.11
43.234,-70.73
43.250,-71.91
43.265,-70.54
43.281,-67.63
43.296,-64.12
43.312,-60.57
43.328,-57.14
43.343,-53.61
43.359,-49.61
43.375,-44.81
43.390,-38.99
43.406,-32.03
43.421,-23.79
43.437,-14.16
43.453,-3.1
43.468,9.1
43.484,21.82
43.500,34.18
43.515,45.4
43.531,55.16
43.546,63.68
43.562,71.75
43.578,80.3
43.593,90.23
43.609,102.11
43.625,115.92
43.640,130.92
43.656,145.32
43.671,156.33
43.687,160.6
43.703,155.07
43.718,138.21
43.734,110.76
43.750,75.73
43.765,37.53
43.781,0.53
43.796,-32.16
43.812,-59.12
43.828,-80.15
43.843,-95.31
43.859,-104.2
43.875,-105.89
43.890,-99.66
43.906,-85.85
43.921,-66.28
43.937,-44.08
43.953,-22.63
43.968,-4.67
43.984,8.38
44.000,16.32
44.015,19.64
44.031,19.07
44.046,15.34
44.062,9.53
44.078,3.21
44.093,-1.68
44.109,-3.51
44.125,-1.79
44.140,2.35
44.156,6.46
44.171,7.64
44.187,3.64
44.203,-6.38
44.218,-21.78
44.234,-40.89
44.250,-61.58
44.265,-81.75
44.281,-99.49
44.296,-113.16
44.312,-121.51
44.328,-123.97
44.343,-120.84
44.359,-113.23
44.375,-102.72
44.390,-90.78
44.406,-78.4
44.421,-65.9
44.437,-53.3
44.453,-40.59
44.468,-28.08
44.484,-16.41
44.500,-6.3
44.515,1.71
44.531,7.45
44.546,11.17
44.562,13.31
44.578,14.35
44.593,14.75
44.609,14.97
44.625,15.5
44.640,16.87
44.656,19.55
44.671,23.81
44.687,29.66
44.703,36.94
44.718,45.38
44.734,54.67
44.750,64.27
44.765,73.23
44.781,80.08
44.796,83.04
44.812,80.47
44.828,71.53
44.843,56.61
44.859,37.43
44.875,16.63
44.890,-2.94
44.906,-18.88
44.921,-29.74
44.937,-35.1
44.953,-35.25
44.968,-30.9
44.984,-22.87
45.000,-12.02
45.015,0.69
45.031,14.14
45.046,27.12
45.062,38.51
45.078,47.52
45.093,53.73
45.109,57.18
45.125,58.18
45.140,57.25
45.156,55.08
45.171,52.42
45.187,50.11
45.203,48.75
45.218,48.48
45.234,48.68
45.250,48.05
45.265,44.96
45.281,38.02
45.296,26.52
45.312,10.66
45.328,-8.51
45.343,-29.32
45.359,-49.79
45.375,-67.86
45.390,-81.73
45.406,-90.14
45.421,-92.72
45.437,-90.05
45.453,-83.55
45.468,-75.0
45.484,-66.0
45.500,-57.52
45.515,-49.9
45.531,-42.96
45.546,-36.48
45.562,-30.32
45.578,-24.45
45.593,-18.83
45.609,-13.21
45.625,-7.25
45.640,-0.66
45.656,6.51
45.671,13.88
45.687,20.8
45.703,26.81
45.718,31.81
45.734,36.23
45.750,40.8
45.765,46.29
45.781,53.28
45.796,62.05
45.812,72.54
45.828,84.25
45.843,96.1
45.859,106.33
45.875,112.71
45.890,113.2
45.906,106.71
45.921,93.64
45.937,75.85
45.953,55.92
45.968,36.16
45.984,17.92
46.000,1.43
46.015,-13.66
46.031,-27.68
46.046,-40.4
46.062,-51.09
46.078,-58.87
46.093,-63.07
46.109,-63.57
46.125,-60.67
46.140,-54.87
46.156,-46.71
46.171,-36.65
46.187,-25.17
46.203,-12.88
46.218,-0.76
46.234,9.94
46.250,17.85
46.265,21.92
46.281,21.86
46.296,18.29
46.312,12.45
46.328,5.59
46.343,-1.61
46.359,-9.3
46.375,-18.08
46.390,-28.3
46.406,-39.44
46.421,-50.06
46.437,-58.25
46.453,-62.57
46.468,-62.68
46.484,-59.51
46.500,-54.76
46.515,-50.17
46.531,-46.89
46.546,-45.28
46.562,-45.08
46.578,-45.77
46.593,-46.9
46.609,-48.18
46.625,-49.45
46.640,-50.5
46.656,-51.04
46.671,-50.67
46.687,-49.04
46.703,-45.93
46.718,-41.42
46.734,-35.84
46.750,-29.71
46.765,-23.53
46.781,-17.66
46.796,-12.19
46.812,-7.02
46.828,-1.93
46.843,3.23
46.859,8.49
46.875,13.76
46.890,19.0
46.906,24.36
46.921,30.35
46.937,37.65
46.953,46.83
46.968,57.94
46.984,70.04
47.000,81.17
47.015,88.7
47.031,90.06
47.046,83.53
47.062,68.91
47.078,47.65
47.093,22.57
47.109,-2.77
47.125,-24.87
47.140,-40.88
47.156,-49.17
47.171,-49.54
47.187,-43.17
47.203,-32.26
47.218,-19.39
47.234,-6.93
47.250,3.46
47.265,10.86
47.281,15.01
47.296,16.12
47.312,14.64
47.328,11.44
47.343,7.69
47.359,4.79
47.375,4.02
47.390,6.06
47.406,10.72
47.421,17.04
47.437,23.64
47.453,29.25
47.468,33.04
47.484,34.61
47.500,33.75
47.515,30.16
47.531,23.37
47.546,13.05
47.562,-0.61
47.578,-16.46
47.593,-32.47
47.609,-46.15
47.625,-55.33
47.640,-58.87
47.656,-56.95
47.671,-50.79
47.687,-42.07
47.703,-32.32
47.718,-22.59
47.734,-13.47
47.750,-5.33
47.765,1.56
47.781,7.04
47.796,11.2
47.812,14.45
47.828,17.45
47.843,20.92
47.859,25.34
47.875,30.93
47.890,37.63
47.906,45.27
47.921,53.7
47.937,62.84
47.953,72.72
47.968,83.44
47.984,95.24
48.000,108.42
48.015,123.06
48.031,138.68
48.046,153.78
48.062,165.86
48.078,171.75
48.093,168.44
48.109,154.02
48.125,128.34
48.140,93.22
48.156,52.07
48.171,9.15
48.187,-31.15
48.203,-65.0
48.218,-89.5
48.234,-102.98
48.250,-105.23
48.265,-97.54
48.281,-82.55
48.296,-63.73
48.312,-44.6
48.328,-27.95
48.343,-15.46
48.359,-7.58
48.375,-3.89
48.390,-3.38
48.406,-4.77
48.421,-6.73
48.437,-8.12
48.453,-8.47
48.468,-8.31
48.484,-9.25
48.500,-13.45
48.515,-22.62
48.531,-36.99
48.546,-54.91
48.562,-73.3
48.578,-88.79
48.593,-99.02
48.609,-103.35
48.625,-102.82
48.640,-99.31
48.656,-94.74
48.671,-90.39
48.687,-86.83
48.703,-84.23
48.718,-82.54
48.734,-81.68
48.750,-81.37
48.765,-81.08
48.781,-80.03
48.796,-77.42
48.812,-72.85
48.828,-66.42
48.843,-58.75
48.859,-50.69
48.875,-43.03
48.890,-36.24
48.906,-30.33
48.921,-25.0
48.937,-19.73
48.953,-13.95
48.968,-7.21
48.984,0.84
49.000,10.35
49.015,21.29
49.031,33.45
49.046,46.51
49.062,60.04
49.078,73.62
49.093,86.68
49.109,98.34
49.125,107.35
49.140,112.03
49.156,110.79
49.171,102.6
49.187,87.51
49.203,66.79
49.218,42.68
49.234,17.77
49.250,-5.71
49.265,-26.16
49.281,-42.76
49.296,-55.03
49.312,-62.64
49.328,-65.28
49.343,-62.87
49.359,-55.94
49.375,-45.69
49.390,-33.9
49.406,-22.36
49.421,-12.36
49.437,-4.27
49.453,2.38
49.468,8.54
49.484,15.08
49.500,22.37
49.515,30.23
49.531,38.18
49.546,45.79
49.562,52.87
49.578,59.29
49.593,64.65
49.609,68.01
49.625,68.01
49.640,63.32
49.656,53.31
49.671,38.53
49.687,20.76
49.703,2.51
49.718,-13.75
49.734,-26.28
49.750,-34.54
49.765,-39.07
49.781,-41.16
49.796,-42.11
49.812,-42.82
49.828,-43.54
49.843,-44.0
49.859,-43.77
49.875,-42.64
49.890,-40.84
49.906,-39.01
49.921,-37.81
49.937,-37.57
49.953,-38.07
49.968,-38.53
49.984,-37.95
50.000,-35.51
50.015,-30.87
50.031,-24.22
50.046,-16.14
50.062,-7.2
50.078,2.25
50.093,12.2
50.109,22.86
50.125,34.53
50.140,47.42
50.156,61.56
50.171,76.64
50.187,91.9
50.203,105.85
50.218,116.3
50.234,120.66
50.250,116.61
50.265,103.0
50.281,80.46
50.296,51.45
50.312,19.69
50.328,-10.73
50.343,-36.4
50.359,-55.1
50.375,-65.97
50.390,-69.26
50.406,-66.01
50.421,-57.72
50.437,-46.15
50.453,-33.12
50.468,-20.24
50.484,-8.59
50.500,1.4
50.515,9.98
50.531,17.83
50.546,25.62
50.562,33.76
50.578,42.23
50.593,50.64
50.609,58.38
50.625,64.67
50.640,68.53
50.656,68.75
50.671,64.08
50.687,53.62
50.703,37.25
50.718,15.95
50.734,-8.17
50.750,-32.39
50.765,-53.9
50.781,-70.52
50.796,-81.14
50.812,-85.88
50.828,-85.95
50.843,-83.18
50.859,-79.52
50.875,-76.44
50.890,-74.57
50.906,-73.69
50.921,-73.05
50.937,-71.83
50.953,-69.52
50.968,-66.02
50.984,-61.41
51.000,-55.67
51.015,-48.54
51.031,-39.64
51.046,-28.8
51.062,-16.37
51.078,-3.14
51.093,9.88
51.109,21.9
51.125,32.59
51.140,42.22
51.156,51.34
51.171,60.54
51.187,70.23
51.203,80.52
51.218,91.4
51.234,102.82
51.250,114.55
51.265,125.9
51.281,135.43
51.296,140.94
51.312,139.92
51.328,130.41
51.343,111.87
51.359,85.51
51.375,53.98
51.390,20.59
51.406,-11.73
51.421,-40.99
51.437,-66.2
51.453,-86.88
51.468,-102.52
51.484,-112.31
51.500,-115.36
51.515,-111.27
51.531,-100.63
51.546,-85.11
51.562,-66.99
51.578,-48.54
51.593,-31.46
51.609,-16.57
51.625,-4.05
51.640,6.3
51.656,14.75
51.671,21.56
51.687,27.04
51.703,31.49
51.718,35.05
51.734,37.49
51.750,38.1
51.765,35.96
51.781,30.34
51.796,21.13
51.812,9.0
51.828,-4.81
51.843,-18.83
51.859,-31.72
51.875,-42.43
51.890,-50.22
51.906,-54.69
51.921,-55.9
51.937,-54.48
51.953,-51.62
51.968,-48.76
51.984,-47.06
52.000,-46.95
52.015,-47.88
52.031,-48.65
52.046,-47.92
52.062,-44.89
52.078,-39.55
52.093,-32.55
52.109,-24.76
52.125,-16.83
52.140,-9.02
52.156,-1.3
52.171,6.39
52.187,14.02
52.203,21.35
52.218,28.09
52.234,34.12
52.250,39.55
52.265,44.75
52.281,50.22
52.296,56.52
52.312,64.09
52.328,73.26
52.343,83.86
52.359,95.12
52.375,105.49
52.390,112.75
52.406,114.51
52.421,108.98
52.437,95.71
52.453,75.82
52.468,51.83
52.484,26.86
52.500,3.79
52.515,-15.37
52.531,-29.51
52.546,-38.24
52.562,-41.47
52.578,-39.29
52.593,-32.16
52.609,-21.19
52.625,-8.22
52.640,4.52
52.656,15.08
52.671,22.44
52.687,26.72
52.703,28.92
52.718,30.28
52.734,31.6
52.750,33.09
52.765,34.54
52.781,35.8
52.796,37.03
52.812,38.56
52.828,40.41
52.843,41.83
52.859,41.3
52.875,36.97
52.890,27.52
52.906,12.73
52.921,-6.32
52.937,-27.58
52.953,-48.72
52.968,-67.67
52.984,-82.96
53.000,-93.69
53.015,-99.39
53.031,-99.93
53.046,-95.66
53.062,-87.52
53.078,-77.09
53.093,-66.3
53.109,-56.93
53.125,-50.11
53.140,-46.1
53.156,-44.44
53.171,-44.43
53.187,-45.49
53.203,-47.26
53.218,-49.44
53.234,-51.44
53.250,-52.36
53.265,-51.16
53.281,-47.22
53.296,-40.62
53.312,-32.21
53.328,-23.17
53.343,-14.41
53.359,-6.25
53.375,1.63
53.390,9.76
53.406,18.58
53.421,28.22
53.437,38.61
53.453,49.56
53.468,60.8
53.484,71.7
53.500,81.03
53.515,87.02
53.531,87.82
53.546,82.35
53.562,70.93
53.578,55.45
53.593,38.76
53.609,23.5
53.625,11.19
53.640,1.84
53.656,-5.59
53.671,-12.31
53.687,-18.83
53.703,-24.76
53.718,-29.12
53.734,-30.97
53.750,-29.96
53.765,-26.33
53.781,-20.68
53.796,-13.62
53.812,-5.63
53.828,2.83
53.843,11.14
53.859,18.5
53.875,24.21
53.890,28.04
53.906,30.4
53.921,31.99
53.937,33.27
53.953,33.82
53.968,32.23
53.984,26.62
54.000,15.41
54.015,-1.75
54.031,-23.73
54.046,-48.09
54.062,-71.78
54.078,-91.79
54.093,-105.73
54.109,-112.18
54.125,-110.94
54.140,-103.03
54.156,-90.57
54.171,-76.33
54.187,-62.95
54.203,-52.22
54.218,-44.69
54.234,-39.76
54.250,-36.23
54.265,-32.97
54.281,-29.34
54.296,-25.3
54.312,-21.17
54.328,-17.3
54.343,-13.8
54.359,-10.55
54.375,-7.29
54.390,-3.8
54.406,-0.05
54.421,3.87
54.437,7.86
54.453,11.99
54.468,16.53
54.484,21.9
54.500,28.42
54.515,36.25
54.531,45.31
54.546,55.44
54.562,66.48
54.578,78.2
54.593,90.03
54.609,100.71
54.625,108.26
54.640,110.41
54.656,105.29
54.671,92.22
54.687,72.1
54.703,47.12
54.718,20.15
54.734,-5.99
54.750,-29.01
54.765,-47.23
54.781,-59.38
54.796,-64.74
54.812,-63.18
54.828,-55.52
54.843,-43.54
54.859,-29.58
54.875,-15.88
54.890,-3.99
54.906,5.63
54.921,13.38
54.937,20.01
54.953,26.13
54.968,31.94
54.984,37.34
55.000,42.18
55.015,46.3
55.031,49.43
55.046,50.92
55.062,49.71
55.078,44.63
55.093,35.06
55.109,21.35
55.125,4.98
55.140,-11.93
55.156,-27.36
55.171,-40.13
55.187,-50.01
55.203,-57.41
55.218,-62.79
55.234,-66.28
55.250,-67.64
55.265,-66.77
55.281,-64.03
55.296,-60.27
55.312,-56.48
55.328,-53.32
55.343,-50.72
55.359,-48.11
55.375,-44.74
55.390,-40.16
55.406,-34.41
55.421,-27.81
55.437,-20.72
55.453,-13.24
55.468,-5.3
55.484,3.11
55.500,11.67
55.515,19.74
55.531,26.59
55.546,31.86
55.562,35.94
55.578,39.95
55.593,45.47
55.609,53.96
55.625,66.27
55.640,82.34
55.656,101.09
55.671,120.52
55.687,137.9
55.703,150.1
55.718,154.22
55.734,148.2
55.750,131.52
55.765,105.43
55.781,72.73
55.796,37.0
55.812,1.75
55.828,-30.35
55.843,-57.69
55.859,-79.5
55.875,-95.43
55.890,-105.15
55.906,-108.45
55.921,-105.54
55.937,-97.39
55.953,-85.81
55.968,-73.02
55.984,-60.98
56.000,-50.8
56.015,-42.52
56.031,-35.44
56.046,-28.69
56.062,-21.75
56.078,-14.6
56.093,-7.48
56.109,-0.41
56.125,6.9
56.140,14.97
56.156,24.0
56.171,33.37
56.187,41.57
56.203,46.6
56.218,46.71
56.234,41.16
56.250,30.51
56.265,16.51
56.281,1.51
56.296,-12.31
56.312,-23.43
56.328,-31.35
56.343,-36.38
56.359,-39.41
56.375,-41.5
56.390,-43.51
56.406,-45.91
56.421,-48.7
56.437,-51.46
56.453,-53.54
56.468,-54.34
56.484,-53.46
56.500,-50.95
56.515,-47.16
56.531,-42.59
56.546,-37.65
56.562,-32.51
56.578,-27.11
56.593,-21.29
56.609,-14.88
56.625,-7.77
56.640,0.14
56.656,9.02
56.671,19.16
56.687,30.81
56.703,44.05
56.718,58.65
56.734,74.1
56.750,89.74
56.765,104.88
56.781,118.9
56.796,131.04
56.812,140.2
56.828,144.77
56.843,142.99
56.859,133.41
56.875,115.61
56.890,90.54
56.906,60.48
56.921,28.34
56.937,-3.07
56.953,-31.69
56.968,-56.34
56.984,-76.44
57.000,-91.56
57.015,-101.2
57.031,-104.96
57.046,-102.82
57.062,-95.56
57.078,-84.67
57.093,-71.88
57.109,-58.6
57.125,-45.53
57.140,-32.68
57.156,-19.79
57.171,-6.75
57.187,6.14
57.203,18.3
57.218,29.13
57.234,38.32
57.250,45.8
57.265,51.47
57.281,54.92
57.296,55.35
57.312,51.85
57.328,43.81
57.343,31.37
57.359,15.57
57.375,-1.87
57.390,-18.98
57.406,-33.99
57.421,-45.78
57.437,-54.0
57.453,-59.03
57.468,-61.7
57.484,-63.05
57.500,-63.89
57.515,-64.65
57.531,-65.32
57.546,-65.55
57.562,-64.89
57.578,-62.98
57.593,-59.66
57.609,-54.97
57.625,-49.01
57.640,-41.78
57.656,-33.23
57.671,-23.33
57.687,-12.31
57.703,-0.74
57.718,10.57
57.734,20.8
57.750,29.48
57.765,36.67
57.781,42.96
57.796,49.19
57.812,56.14
57.828,64.29
57.843,73.76
57.859,84.31
57.875,95.32
57.890,105.62
57.906,113.43
57.921,116.49
57.937,112.56
57.953,100.21
57.968,79.52
57.984,52.25
58.000,21.4
58.015,-9.69
58.031,-38.31
58.046,-62.8
58.062,-82.36
58.078,-96.44
58.093,-104.35
58.109,-105.21
58.125,-98.62
58.140,-85.23
58.156,-67.01
58.171,-46.84
58.187,-27.57
58.203,-11.1
58.218,2.04
58.234,12.47
58.250,21.31
58.265,29.49
58.281,37.46
58.296,45.16
58.312,52.27
58.328,58.29
58.343,62.6
58.359,64.41
58.375,62.99
58.390,57.87
58.406,49.09
58.421,37.22
58.437,23.12
58.453,7.62
58.468,-8.68
58.484,-25.27
58.500,-41.69
58.515,-57.22
58.531,-71.03
58.546,-82.24
58.562,-90.14
58.578,-94.25
58.593,-94.32
58.609,-90.32
58.625,-82.46
58.640,-71.31
58.656,-57.78
58.671,-43.04
58.687,-28.22
58.703,-14.15
58.718,-1.21
58.734,10.57
58.750,21.36
58.765,31.28
58.781,40.34
58.796,48.55
58.812,55.91
58.828,62.63
58.843,69.06
58.859,75.59
58.875,82.63
58.890,90.52
58.906,99.41
58.921,109.12
58.937,118.88
58.953,127.12
58.968,131.47
58.984,129.19
59.000,117.97
59.015,96.77
59.031,66.32
59.046,29.15
59.062,-11.07
59.078,-50.3
59.093,-84.87
59.109,-111.85
59.125,-129.23
59.140,-135.99
59.156,-132.28
59.171,-119.64
59.187,-100.85
59.203,-79.47
59.218,-58.95
59.234,-41.66
59.250,-28.44
59.265,-18.6
59.281,-10.67
59.296,-3.17
59.312,4.68
59.328,12.91
59.343,21.0
59.359,28.48
59.375,35.21
59.390,41.41
59.406,47.31
59.421,52.73
59.437,56.82
59.453,58.09
59.468,54.98
59.484,46.39
59.500,32.14
59.515,13.12
59.531,-9.01
59.546,-32.33
59.562,-55.02
59.578,-75.5
59.593,-92.42
59.609,-104.51
59.625,-110.77
59.640,-110.75
59.656,-104.83
59.671,-94.25
59.687,-80.85
59.703,-66.49
59.718,-52.66
59.734,-40.21
59.750,-29.41
59.765,-20.22
59.781,-12.42
59.796,-5.68
59.812,0.54
59.828,6.86
59.843,13.85
59.859,21.69
59.875,30.05
59.890,38.27
59.906,45.69
59.921,52.05
59.937,57.66
59.953,63.3
59.968,69.82
59.984,77.85
