timestamp,value
00.000,-302.87
00.015,-280.01
00.031,-253.65
00.046,-227.22
00.062,-203.48
00.078,-184.37
00.093,-171.16
00.109,-164.56
00.125,-164.53
00.140,-169.91
00.156,-178.43
00.171,-186.96
00.187,-192.34
00.203,-192.31
00.218,-186.23
00.234,-175.04
00.250,-161.0
00.265,-146.66
00.281,-134.03
00.296,-124.01
00.312,-116.46
00.328,-110.47
00.343,-105.13
00.359,-99.9
00.375,-94.75
00.390,-90.01
00.406,-86.02
00.421,-82.84
00.437,-80.21
00.453,-77.79
00.468,-75.31
00.484,-72.83
00.500,-70.56
00.515,-68.82
00.531,-67.87
00.546,-67.85
00.562,-68.78
00.578,-70.54
00.593,-72.79
00.609,-74.85
00.625,-75.78
00.640,-74.42
00.656,-69.86
00.671,-61.74
00.687,-50.54
00.703,-37.39
00.718,-23.73
00.734,-10.82
00.750,0.53
00.765,10.04
00.781,17.77
00.796,23.93
00.812,28.63
00.828,32.01
00.843,34.21
00.859,35.49
00.875,36.26
00.890,36.9
00.906,37.68
00.921,38.62
00.937,39.59
00.953,40.34
00.968,40.63
00.984,40.38
01.000,39.74
01.015,38.99
01.031,38.46
01.046,38.3
01.062,38.42
01.078,38.53
01.093,38.24
01.109,37.32
01.125,35.75
01.140,33.73
01.156,31.57
01.171,29.54
01.187,27.69
01.203,25.91
01.218,23.98
01.234,21.69
01.250,18.88
01.265,15.47
01.281,11.46
01.296,6.94
01.312,2.06
01.328,-2.84
01.343,-7.47
01.359,-11.57
01.375,-15.07
01.390,-18.19
01.406,-21.31
01.421,-24.85
01.437,-29.07
01.453,-33.84
01.468,-38.56
01.484,-42.34
01.500,-44.16
01.515,-43.28
01.531,-39.39
01.546,-32.77
01.562,-24.2
01.578,-14.74
01.593,-5.41
01.609,3.06
01.625,10.26
01.640,16.16
01.656,20.91
01.671,24.67
01.687,27.51
01.703,29.45
01.718,30.51
01.734,30.81
01.750,30.61
01.765,30.23
01.781,29.98
01.796,30.02
01.812,30.28
01.828,30.59
01.843,30.7
01.859,30.49
01.875,29.93
01.890,29.07
01.906,27.98
01.921,26.68
01.937,25.16
01.953,23.35
01.968,21.2
01.984,18.71
02.000,15.92
02.015,12.87
02.031,9.66
02.046,6.37
02.062,3.1
02.078,-0.06
02.093,-3.15
02.109,-6.26
02.125,-9.58
02.140,-13.34
02.156,-17.71
02.171,-22.67
02.187,-28.04
02.203,-33.34
02.218,-37.91
02.234,-40.96
02.250,-41.84
02.265,-40.05
02.281,-35.51
02.296,-28.56
02.312,-19.8
02.328,-10.12
02.343,-0.39
02.359,8.59
02.375,16.35
02.390,22.67
02.406,27.6
02.421,31.37
02.437,34.21
02.453,36.35
02.468,37.84
02.484,38.73
02.500,39.05
02.515,38.94
02.531,38.61
02.546,38.26
02.562,38.11
02.578,38.2
02.593,38.54
02.609,39.1
02.625,39.81
02.640,40.68
02.656,41.66
02.671,42.67
02.687,43.51
02.703,44.03
02.718,44.04
02.734,43.49
02.750,42.43
02.765,41.02
02.781,39.52
02.796,38.14
02.812,36.99
02.828,36.06
02.843,35.2
02.859,34.2
02.875,32.93
02.890,31.37
02.906,29.7
02.921,28.19
02.937,27.03
02.953,26.26
02.968,25.74
02.984,25.27
03.000,24.68
03.015,23.97
03.031,23.3
03.046,22.82
03.062,22.65
03.078,22.71
03.093,22.84
03.109,22.77
03.125,22.34
03.140,21.48
03.156,20.24
03.171,18.79
03.187,17.28
03.203,15.85
03.218,14.55
03.234,13.38
03.250,12.26
03.265,11.09
03.281,9.7
03.296,7.85
03.312,5.29
03.328,1.75
03.343,-2.94
03.359,-8.81
03.375,-15.63
03.390,-23.02
03.406,-30.46
03.421,-37.49
03.437,-43.69
03.453,-48.75
03.468,-52.46
03.484,-54.76
03.500,-55.77
03.515,-55.76
03.531,-55.23
03.546,-54.65
03.562,-54.51
03.578,-55.03
03.593,-56.22
03.609,-57.93
03.625,-59.92
03.640,-61.99
03.656,-63.99
03.671,-65.99
03.687,-68.09
03.703,-70.55
03.718,-73.62
03.734,-77.41
03.750,-81.68
03.765,-85.76
03.781,-88.57
03.796,-88.87
03.812,-85.66
03.828,-78.49
03.843,-67.7
03.859,-54.32
03.875,-39.83
03.890,-25.66
03.906,-12.87
03.921,-2.0
03.937,6.91
03.953,14.08
03.968,19.81
03.984,24.26
04.000,27.5
04.015,29.6
04.031,30.72
04.046,31.19
04.062,31.43
04.078,31.87
04.093,32.68
04.109,33.83
04.125,35.05
04.140,35.97
04.156,36.32
04.171,36.04
04.187,35.24
04.203,34.13
04.218,32.88
04.234,31.54
04.250,30.02
04.265,28.14
04.281,25.73
04.296,22.73
04.312,19.11
04.328,15.02
04.343,10.57
04.359,5.94
04.375,1.26
04.390,-3.41
04.406,-8.03
04.421,-12.65
04.437,-17.31
04.453,-22.06
04.468,-26.92
04.484,-31.86
04.500,-36.7
04.515,-41.07
04.531,-44.37
04.546,-45.86
04.562,-44.91
04.578,-41.12
04.593,-34.61
04.609,-25.93
04.625,-16.02
04.640,-5.88
04.656,3.64
04.671,12.01
04.687,19.06
04.703,24.82
04.718,29.4
04.734,32.87
04.750,35.31
04.765,36.76
04.781,37.34
04.796,37.24
04.812,36.73
04.828,36.14
04.843,35.63
04.859,35.27
04.875,34.95
04.890,34.56
04.906,34.06
04.921,33.47
04.937,32.89
04.953,32.35
04.968,31.82
04.984,31.12
05.000,30.01
05.015,28.23
05.031,25.64
05.046,22.24
05.062,18.09
05.078,13.36
05.093,8.24
05.109,2.99
05.125,-2.1
05.140,-6.81
05.156,-10.99
05.171,-14.74
05.187,-18.23
05.203,-21.75
05.218,-25.6
05.234,-29.99
05.250,-34.92
05.265,-40.04
05.281,-44.67
05.296,-47.81
05.312,-48.54
05.328,-46.17
05.343,-40.59
05.359,-32.28
05.375,-22.19
05.390,-11.49
05.406,-1.14
05.421,8.25
05.437,16.4
05.453,23.29
05.468,28.95
05.484,33.44
05.500,36.8
05.515,39.14
05.531,40.63
05.546,41.5
05.562,41.96
05.578,42.14
05.593,42.04
05.609,41.58
05.625,40.7
05.640,39.39
05.656,37.82
05.671,36.2
05.687,34.79
05.703,33.67
05.718,32.79
05.734,31.91
05.750,30.73
05.765,29.0
05.781,26.58
05.796,23.62
05.812,20.36
05.828,17.08
05.843,13.96
05.859,11.02
05.875,8.09
05.890,4.98
05.906,1.56
05.921,-2.19
05.937,-6.1
05.953,-9.94
05.968,-13.56
05.984,-16.94
06.000,-20.13
06.015,-23.32
06.031,-26.74
06.046,-30.61
06.062,-35.09
06.078,-40.17
06.093,-45.48
06.109,-50.28
06.125,-53.53
06.140,-54.2
06.156,-51.56
06.171,-45.53
06.187,-36.66
06.203,-26.06
06.218,-14.9
06.234,-4.19
06.250,5.46
06.265,13.8
06.281,20.88
06.296,26.8
06.312,31.65
06.328,35.42
06.343,38.08
06.359,39.6
06.375,40.09
06.390,39.83
06.406,39.18
06.421,38.51
06.437,38.04
06.453,37.83
06.468,37.82
06.484,37.89
06.500,38.0
06.515,38.13
06.531,38.31
06.546,38.51
06.562,38.59
06.578,38.26
06.593,37.3
06.609,35.56
06.625,33.09
06.640,30.09
06.656,26.83
06.671,23.58
06.687,20.47
06.703,17.51
06.718,14.54
06.734,11.4
06.750,7.97
06.765,4.18
06.781,0.07
06.796,-4.27
06.812,-8.72
06.828,-13.13
06.843,-17.26
06.859,-20.95
06.875,-24.1
06.890,-26.85
06.906,-29.6
06.921,-32.83
06.937,-36.93
06.953,-41.99
06.968,-47.55
06.984,-52.71
07.000,-56.32
07.015,-57.34
07.031,-55.25
07.046,-50.1
07.062,-42.42
07.078,-33.13
07.093,-23.14
07.109,-13.22
07.125,-3.92
07.140,4.54
07.156,12.08
07.171,18.79
07.187,24.66
07.203,29.72
07.218,33.92
07.234,37.15
07.250,39.37
07.265,40.59
07.281,40.94
07.296,40.66
07.312,40.04
07.328,39.27
07.343,38.43
07.359,37.53
07.375,36.56
07.390,35.53
07.406,34.48
07.421,33.42
07.437,32.37
07.453,31.31
07.468,30.12
07.484,28.69
07.500,26.85
07.515,24.56
07.531,21.79
07.546,18.69
07.562,15.46
07.578,12.36
07.593,9.57
07.609,7.13
07.625,4.93
07.640,2.71
07.656,0.21
07.671,-2.76
07.687,-6.21
07.703,-10.02
07.718,-13.9
07.734,-17.63
07.750,-21.01
07.765,-24.02
07.781,-26.86
07.796,-29.8
07.812,-33.07
07.828,-36.82
07.843,-40.98
07.859,-45.27
07.875,-49.22
07.890,-52.22
07.906,-53.57
07.921,-52.72
07.937,-49.39
07.953,-43.66
07.968,-36.03
07.984,-27.23
08.000,-18.07
08.015,-9.25
08.031,-1.18
08.046,5.91
08.062,12.01
08.078,17.13
08.093,21.31
08.109,24.55
08.125,26.85
08.140,28.23
08.156,28.8
08.171,28.78
08.187,28.48
08.203,28.22
08.218,28.24
08.234,28.56
08.250,29.06
08.265,29.52
08.281,29.75
08.296,29.64
08.312,29.21
08.328,28.51
08.343,27.62
08.359,26.55
08.375,25.27
08.390,23.71
08.406,21.92
08.421,19.89
08.437,17.7
08.453,15.44
08.468,13.16
08.484,10.87
08.500,8.57
08.515,6.16
08.531,3.53
08.546,0.65
08.562,-2.48
08.578,-5.79
08.593,-9.16
08.609,-12.46
08.625,-15.65
08.640,-18.7
08.656,-21.6
08.671,-24.39
08.687,-27.03
08.703,-29.57
08.718,-32.09
08.734,-34.73
08.750,-37.6
08.765,-40.67
08.781,-43.69
08.796,-46.15
08.812,-47.36
08.828,-46.7
08.843,-43.79
08.859,-38.67
08.875,-31.76
08.890,-23.72
08.906,-15.25
08.921,-6.94
08.937,0.84
08.953,7.87
08.968,14.02
08.984,19.21
09.000,23.39
09.015,26.57
09.031,28.84
09.046,30.34
09.062,31.19
09.078,31.5
09.093,31.37
09.109,30.96
09.125,30.46
09.140,30.03
09.156,29.73
09.171,29.53
09.187,29.33
09.203,29.0
09.218,28.51
09.234,27.86
09.250,27.03
09.265,26.0
09.281,24.71
09.296,23.07
09.312,21.14
09.328,19.04
09.343,16.98
09.359,15.09
09.375,13.38
09.390,11.67
09.406,9.75
09.421,7.51
09.437,4.98
09.453,2.34
09.468,-0.19
09.484,-2.5
09.500,-4.67
09.515,-6.89
09.531,-9.38
09.546,-12.19
09.562,-15.15
09.578,-17.99
09.593,-20.47
09.609,-22.55
09.625,-24.43
09.640,-26.44
09.656,-28.88
09.671,-31.97
09.687,-35.64
09.703,-39.72
09.718,-43.88
09.734,-47.65
09.750,-50.49
09.765,-51.77
09.781,-51.01
09.796,-47.97
09.812,-42.84
09.828,-36.12
09.843,-28.56
09.859,-20.89
09.875,-13.59
09.890,-6.84
09.906,-0.67
09.921,5.02
09.937,10.22
09.953,14.9
09.968,19.0
09.984,22.49
10.000,25.37
10.015,27.66
10.031,29.35
10.046,30.41
10.062,30.81
10.078,30.58
10.093,29.85
10.109,28.83
10.125,27.75
10.140,26.75
10.156,25.91
10.171,25.22
10.187,24.61
10.203,23.96
10.218,23.19
10.234,22.24
10.250,21.12
10.265,19.89
10.281,18.62
10.296,17.34
10.312,16.01
10.328,14.52
10.343,12.75
10.359,10.61
10.375,8.1
10.390,5.32
10.406,2.42
10.421,-0.41
10.437,-2.99
10.453,-5.2
10.468,-7.02
10.484,-8.58
10.500,-10.09
10.515,-11.84
10.531,-14.03
10.546,-16.7
10.562,-19.69
10.578,-22.7
10.593,-25.46
10.609,-27.91
10.625,-30.18
10.640,-32.56
10.656,-35.32
10.671,-38.56
10.687,-42.13
10.703,-45.63
10.718,-48.5
10.734,-50.12
10.750,-49.96
10.765,-47.69
10.781,-43.27
10.796,-37.05
10.812,-29.65
10.828,-21.86
10.843,-14.37
10.859,-7.65
10.875,-1.88
10.890,3.05
10.906,7.36
10.921,11.26
10.937,14.79
10.953,17.84
10.968,20.23
10.984,21.85
11.000,22.73
11.015,23.04
11.031,23.0
11.046,22.78
11.062,22.38
11.078,21.68
11.093,20.59
11.109,19.16
11.125,17.68
11.140,16.49
11.156,15.8
11.171,15.7
11.187,15.98
11.203,16.38
11.218,16.62
11.234,16.57
11.250,16.13
11.265,15.33
11.281,14.2
11.296,12.77
11.312,11.1
11.328,9.18
11.343,7.05
11.359,4.7
11.375,2.22
11.390,-0.37
11.406,-2.99
11.421,-5.62
11.437,-8.3
11.453,-11.06
11.468,-13.98
11.484,-17.01
11.500,-20.0
11.515,-22.74
11.531,-25.13
11.546,-27.16
11.562,-29.02
11.578,-30.99
11.593,-33.29
11.609,-36.0
11.625,-38.94
11.640,-41.75
11.656,-43.94
11.671,-45.04
11.687,-44.65
11.703,-42.51
11.718,-38.6
11.734,-33.14
11.750,-26.6
11.765,-19.56
11.781,-12.59
11.796,-6.13
11.812,-0.4
11.828,4.56
11.843,8.82
11.859,12.4
11.875,15.29
11.890,17.41
11.906,18.76
11.921,19.51
11.937,19.86
11.953,20.07
11.968,20.28
11.984,20.53
12.000,20.73
12.015,20.86
12.031,20.9
12.046,20.92
12.062,21.03
12.078,21.28
12.093,21.59
12.109,21.78
12.125,21.67
12.140,21.02
12.156,19.78
12.171,17.94
12.187,15.62
12.203,13.03
12.218,10.45
12.234,8.09
12.250,6.03
12.265,4.25
12.281,2.55
12.296,0.76
12.312,-1.33
12.328,-3.75
12.343,-6.44
12.359,-9.17
12.375,-11.78
12.390,-14.17
12.406,-16.27
12.421,-18.25
12.437,-20.21
12.453,-22.33
12.468,-24.7
12.484,-27.36
12.500,-30.35
12.515,-33.61
12.531,-36.93
12.546,-39.94
12.562,-42.08
12.578,-42.77
12.593,-41.62
12.609,-38.53
12.625,-33.76
12.640,-27.89
12.656,-21.58
12.671,-15.34
12.687,-9.48
12.703,-4.15
12.718,0.68
12.734,5.01
12.750,8.87
12.765,12.24
12.781,15.07
12.796,17.34
12.812,19.0
12.828,20.0
12.843,20.3
12.859,20.01
12.875,19.33
12.890,18.54
12.906,17.93
12.921,17.64
12.937,17.75
12.953,18.2
12.968,18.91
12.984,19.82
13.000,20.89
13.015,22.07
13.031,23.26
13.046,24.27
13.062,24.91
13.078,25.08
13.093,24.79
13.109,24.17
13.125,23.33
13.140,22.36
13.156,21.24
13.171,19.92
13.187,18.37
13.203,16.57
13.218,14.52
13.234,12.23
13.250,9.65
13.265,6.69
13.281,3.22
13.296,-0.79
13.312,-5.23
13.328,-9.83
13.343,-14.26
13.359,-18.25
13.375,-21.72
13.390,-24.83
13.406,-27.87
13.421,-31.18
13.437,-34.97
13.453,-39.13
13.468,-43.24
13.484,-46.65
13.500,-48.66
13.515,-48.8
13.531,-46.88
13.546,-43.08
13.562,-37.88
13.578,-31.87
13.593,-25.62
13.609,-19.61
13.625,-14.12
13.640,-9.28
13.656,-5.03
13.671,-1.19
13.687,2.5
13.703,6.3
13.718,10.33
13.734,14.64
13.750,19.02
13.765,23.24
13.781,26.98
13.796,30.14
13.812,32.7
13.828,34.86
13.843,36.79
13.859,38.59
13.875,40.29
13.890,41.74
13.906,42.77
13.921,43.21
13.937,42.93
13.953,41.89
13.968,40.09
13.984,37.6
14.000,34.45
14.015,30.75
14.031,26.63
14.046,22.24
14.062,17.83
14.078,13.57
14.093,9.63
14.109,6.06
14.125,2.87
14.140,-0.01
14.156,-2.65
14.171,-5.14
14.187,-7.55
14.203,-9.94
14.218,-12.4
14.234,-14.92
14.250,-17.49
14.265,-20.01
14.281,-22.36
14.296,-24.49
14.312,-26.52
14.328,-28.64
14.343,-31.14
14.359,-34.23
14.375,-37.86
14.390,-41.76
14.406,-45.4
14.421,-48.14
14.437,-49.37
14.453,-48.68
14.468,-45.88
14.484,-41.11
14.500,-34.87
14.515,-27.81
14.531,-20.7
14.546,-14.17
14.562,-8.6
14.578,-4.03
14.593,-0.29
14.609,2.91
14.625,5.78
14.640,8.39
14.656,10.7
14.671,12.64
14.687,14.2
14.703,15.44
14.718,16.45
14.734,17.29
14.750,17.97
14.765,18.46
14.781,18.77
14.796,18.96
14.812,19.07
14.828,19.17
14.843,19.28
14.859,19.31
14.875,19.19
14.890,18.78
14.906,17.96
14.921,16.67
14.937,14.91
14.953,12.72
14.968,10.3
14.984,7.91
15.000,5.83
15.015,4.24
15.031,3.14
15.046,2.28
15.062,1.34
15.093,-1.96
15.109,-4.5
15.125,-7.37
15.140,-10.28
15.156,-12.95
15.171,-15.37
15.187,-17.69
15.203,-20.16
15.218,-23.0
15.234,-26.2
15.250,-29.7
15.265,-33.29
15.281,-36.81
15.296,-40.02
15.312,-42.67
15.328,-44.36
15.343,-44.61
15.359,-42.99
15.375,-39.3
15.390,-33.73
15.406,-26.82
15.421,-19.34
15.437,-12.01
15.453,-5.31
15.468,0.53
15.484,5.55
15.500,9.88
15.515,13.57
15.531,16.54
15.546,18.7
15.562,19.97
15.578,20.43
15.593,20.35
15.609,20.08
15.625,20.0
15.640,20.29
15.656,20.93
15.671,21.68
15.687,22.31
15.703,22.61
15.718,22.55
15.734,22.27
15.750,21.93
15.765,21.66
15.781,21.42
15.796,21.11
15.812,20.55
15.828,19.62
15.843,18.29
15.859,16.62
15.875,14.74
15.890,12.77
15.906,10.78
15.921,8.78
15.937,6.68
15.953,4.37
15.968,1.75
15.984,-1.21
16.000,-4.4
16.015,-7.6
16.031,-10.63
16.046,-13.36
16.062,-15.8
16.078,-18.02
16.093,-20.22
16.109,-22.56
16.125,-25.18
16.140,-28.16
16.156,-31.42
16.171,-34.76
16.187,-37.8
16.203,-40.05
16.218,-40.89
16.234,-39.9
16.250,-36.84
16.265,-31.83
16.281,-25.37
16.296,-18.09
16.312,-10.67
16.328,-3.62
16.343,2.74
16.359,8.38
16.375,13.4
16.390,17.88
16.406,21.88
16.421,25.31
16.437,28.15
16.453,30.34
16.468,32.06
16.484,33.54
16.500,35.11
16.515,36.98
16.531,39.26
16.546,41.83
16.562,44.44
16.578,46.95
16.593,49.2
16.609,51.28
16.625,53.34
16.640,55.56
16.656,58.06
16.671,60.86
16.687,63.87
16.703,66.9
16.718,69.85
16.734,72.63
16.750,75.36
16.765,78.25
16.781,81.58
16.796,85.6
16.812,90.46
16.828,96.07
16.843,102.2
16.859,108.57
16.875,115.0
16.890,121.45
16.906,128.09
16.921,135.26
16.937,143.35
16.953,152.66
16.968,163.22
16.984,174.69
17.000,186.23
17.015,196.55
17.031,204.18
17.046,207.79
17.062,206.73
17.078,201.41
17.093,193.37
17.109,184.86
17.125,178.15
17.140,174.67
17.156,174.32
17.171,175.58
17.187,175.99
17.203,173.1
17.218,165.43
17.234,152.89
17.250,136.71
17.265,118.9
17.281,101.35
17.296,85.34
17.312,71.32
17.328,59.09
17.343,48.14
17.359,37.85
17.375,27.62
17.390,16.7
17.406,4.17
17.421,-10.88
17.437,-28.92
17.453,-49.41
17.468,-70.73
17.484,-90.6
17.500,-106.94
17.515,-118.78
17.531,-126.63
17.546,-132.08
17.562,-136.76
17.578,-141.29
17.593,-144.84
17.609,-145.4
17.625,-140.75
17.640,-129.29
17.656,-110.55
17.671,-85.09
17.687,-54.19
17.703,-19.63
17.718,16.05
17.734,49.36
17.750,76.11
17.765,92.24
17.781,95.24
17.796,85.21
17.812,64.9
17.828,38.89
17.843,11.84
17.859,-13.05
17.875,-34.68
17.890,-53.73
17.906,-71.63
17.921,-89.65
17.937,-108.44
17.953,-128.14
17.968,-148.56
17.984,-169.17
18.000,-188.77
18.015,-205.27
18.031,-215.85
18.046,-217.96
18.062,-210.39
18.078,-194.2
18.093,-172.74
18.109,-150.51
18.125,-131.8
18.140,-119.4
18.156,-114.42
18.171,-116.58
18.187,-124.95
18.203,-138.01
18.218,-153.51
18.234,-168.19
18.250,-178.16
18.265,-180.13
18.281,-172.71
18.296,-157.32
18.312,-137.56
18.328,-117.57
18.343,-99.96
18.359,-84.7
18.375,-69.38
18.390,-50.81
18.406,-27.05
18.421,1.13
18.437,30.09
18.453,54.37
18.468,68.34
18.484,68.0
18.500,52.08
18.515,22.29
18.531,-17.37
18.546,-61.76
18.562,-105.82
18.578,-145.49
18.593,-178.02
18.609,-201.92
18.625,-216.74
18.640,-222.92
18.656,-221.68
18.671,-215.06
18.687,-205.83
18.703,-197.13
18.718,-191.75
18.734,-191.31
18.750,-195.6
18.765,-202.5
18.781,-208.6
18.796,-210.39
18.812,-205.6
18.828,-193.92
18.843,-176.96
18.859,-157.44
18.875,-137.9
18.890,-119.86
18.906,-103.52
18.921,-88.2
18.937,-73.29
18.953,-58.76
18.968,-45.34
18.984,-34.06
19.000,-25.73
19.015,-20.53
19.031,-17.85
19.046,-16.66
19.062,-15.8
19.078,-14.5
19.093,-12.48
19.109,-9.88
19.125,-7.05
19.140,-4.34
19.156,-1.89
19.171,0.28
19.187,2.23
19.203,3.93
19.218,5.26
19.234,6.0
19.250,6.04
19.265,5.51
19.281,4.75
19.296,4.21
19.312,4.18
19.328,4.56
19.343,4.91
19.359,4.6
19.375,3.14
19.390,0.43
19.406,-3.24
19.421,-7.3
19.437,-11.2
19.453,-14.66
19.468,-17.75
19.484,-20.92
19.500,-24.75
19.515,-29.76
19.531,-36.17
19.546,-43.74
19.562,-51.72
19.578,-58.92
19.593,-63.97
19.609,-65.78
19.625,-63.81
19.640,-58.35
19.656,-50.33
19.671,-41.11
19.687,-31.9
19.703,-23.54
19.718,-16.26
19.734,-9.76
19.750,-3.53
19.765,2.91
19.781,9.8
19.796,17.01
19.812,24.1
19.828,30.53
19.843,35.87
19.859,39.93
19.875,42.8
19.890,44.73
19.906,46.04
19.921,46.93
19.937,47.56
19.953,47.97
19.968,48.25
19.984,48.52
20.000,48.89
20.015,49.36
20.031,49.79
20.046,50.0
20.062,49.71
20.078,48.79
20.093,47.29
20.109,45.37
20.125,43.2
20.140,40.85
20.156,38.23
20.171,35.17
20.187,31.58
20.203,27.49
20.218,23.04
20.234,18.5
20.250,14.11
20.265,9.9
20.281,5.61
20.296,0.71
20.312,-5.5
20.328,-13.6
20.343,-23.67
20.359,-35.02
20.375,-46.09
20.390,-54.77
20.406,-58.99
20.421,-57.45
20.437,-49.99
20.453,-37.69
20.468,-22.29
20.484,-5.59
20.500,11.15
20.515,27.33
20.531,42.82
20.546,57.58
20.562,71.33
20.578,83.53
20.593,93.58
20.609,101.24
20.625,106.69
20.640,110.6
20.656,113.69
20.671,116.52
20.687,119.21
20.703,121.54
20.718,123.11
20.734,123.61
20.750,123.05
20.765,121.72
20.781,120.04
20.796,118.31
20.812,116.52
20.828,114.24
20.843,110.82
20.859,105.54
20.875,97.86
20.890,87.68
20.906,75.32
20.921,61.45
20.937,46.9
20.953,32.48
20.968,18.79
20.984,6.19
21.000,-5.3
21.015,-15.98
21.031,-26.38
21.046,-37.03
21.062,-48.29
21.078,-60.01
21.093,-71.43
21.109,-81.19
21.125,-87.66
21.140,-89.38
21.156,-85.61
21.171,-76.51
21.187,-63.15
21.203,-47.17
21.218,-30.27
21.234,-13.77
21.250,1.59
21.265,15.58
21.281,28.32
21.296,39.85
21.312,50.1
21.328,58.94
21.343,66.2
21.359,72.01
21.375,76.75
21.390,81.03
21.406,85.43
21.421,90.34
21.437,95.81
21.453,101.54
21.468,107.03
21.484,111.78
21.500,115.47
21.515,118.12
21.531,120.04
21.546,121.69
21.562,123.51
21.578,125.74
21.593,128.33
21.609,130.86
21.625,132.67
21.640,133.16
21.656,132.07
21.671,129.68
21.687,126.88
21.703,124.9
21.718,124.81
21.734,127.06
21.750,131.14
21.765,135.71
21.781,139.15
21.796,140.24
21.812,138.72
21.828,135.56
21.843,132.86
21.859,133.39
21.875,139.76
21.890,153.48
21.906,173.95
21.921,197.97
21.937,220.0
21.953,233.41
21.968,232.56
21.984,214.84
22.000,182.01
22.015,140.06
22.031,97.59
22.046,63.3
22.062,43.48
22.078,40.16
22.093,50.9
22.109,69.6
22.125,88.47
22.140,100.28
22.156,100.27
22.171,87.18
22.187,63.39
22.203,34.03
22.218,5.34
22.234,-16.88
22.250,-28.99
22.265,-30.43
22.281,-23.98
22.296,-14.81
22.312,-8.82
22.328,-10.49
22.343,-21.29
22.359,-39.16
22.375,-59.35
22.390,-76.19
22.406,-85.25
22.421,-84.93
22.437,-77.01
22.453,-65.98
22.468,-57.42
22.484,-56.21
22.500,-65.24
22.515,-84.7
22.531,-112.32
22.546,-144.11
22.562,-175.21
22.578,-200.73
22.593,-216.65
22.609,-220.52
22.625,-212.23
22.640,-194.37
22.656,-171.65
22.671,-149.53
22.687,-132.19
22.703,-120.87
22.718,-113.58
22.734,-106.19
22.750,-94.3
22.765,-75.09
22.781,-48.21
22.796,-15.78
22.812,18.3
22.828,49.38
22.843,73.04
22.859,86.19
22.875,87.8
22.890,79.45
22.906,65.04
22.921,49.82
22.937,38.61
22.953,34.1
22.968,35.96
22.984,40.96
23.000,44.25
23.015,41.14
23.031,28.54
23.046,5.46
23.062,-27.15
23.078,-67.05
23.093,-111.41
23.109,-157.09
23.125,-200.46
23.140,-237.45
23.156,-263.81
23.171,-275.9
23.187,-271.85
23.203,-252.39
23.218,-221.0
23.234,-183.28
23.250,-145.64
23.265,-113.74
23.281,-91.13
23.296,-78.67
23.312,-74.58
23.328,-75.45
23.343,-77.66
23.359,-78.46
23.375,-76.52
23.390,-71.66
23.406,-63.89
23.421,-52.78
23.437,-37.23
23.453,-16.09
23.468,10.91
23.484,42.56
23.500,76.09
23.515,107.79
23.531,134.09
23.546,152.63
23.562,162.89
23.578,166.52
23.593,166.8
23.609,167.69
23.625,172.48
23.640,182.48
23.656,196.21
23.671,209.67
23.687,217.67
23.703,215.53
23.718,200.93
23.734,174.79
23.750,141.02
23.765,105.2
23.781,72.68
23.796,46.86
23.812,28.23
23.828,14.7
23.843,3.0
23.859,-9.57
23.875,-23.69
23.890,-37.53
23.906,-47.6
23.921,-50.13
23.937,-42.94
23.953,-26.73
23.968,-5.34
23.984,15.23
24.000,28.73
24.015,30.63
24.031,19.71
24.046,-1.69
24.062,-28.31
24.078,-53.64
24.093,-71.82
24.109,-79.43
24.125,-76.54
24.140,-66.63
24.156,-55.46
24.171,-48.97
24.187,-51.19
24.203,-62.82
24.218,-81.07
24.234,-100.8
24.250,-116.51
24.265,-124.17
24.281,-122.31
24.296,-111.99
24.312,-96.03
24.328,-78.07
24.343,-61.8
24.359,-50.45
24.375,-46.15
24.390,-49.5
24.406,-59.1
24.421,-71.66
24.437,-82.8
24.453,-88.16
24.468,-84.7
24.484,-71.47
24.500,-50.04
24.515,-23.94
24.531,2.27
24.546,24.71
24.562,41.59
24.578,53.89
24.593,64.81
24.609,78.03
24.625,95.37
24.640,115.18
24.656,132.25
24.671,139.71
24.687,131.87
24.703,106.87
24.718,67.91
24.734,22.65
24.750,-19.08
24.765,-48.32
24.781,-59.58
24.796,-52.35
24.812,-30.99
24.828,-3.11
24.843,22.79
24.859,39.8
24.875,44.47
24.890,37.57
24.906,23.61
24.921,9.05
24.937,-0.02
24.953,-0.19
24.968,8.04
24.984,20.38
25.000,30.37
25.015,31.36
25.031,18.37
25.046,-10.85
25.062,-55.15
25.078,-109.82
25.093,-166.94
25.109,-216.03
25.125,-246.11
25.140,-248.57
25.156,-220.52
25.171,-166.86
25.187,-99.64
25.203,-34.72
25.218,13.29
25.234,35.49
25.250,30.8
25.265,4.96
25.281,-32.37
25.296,-70.97
25.312,-102.53
25.328,-121.69
25.343,-126.1
25.359,-115.99
25.375,-93.8
25.390,-63.65
25.406,-30.62
25.421,0.27
25.437,25.19
25.453,42.4
25.468,52.38
25.484,57.11
25.500,59.14
25.515,60.41
25.531,61.64
25.546,62.43
25.562,61.92
25.578,59.52
25.593,55.27
25.609,49.75
25.625,43.31
25.640,35.73
25.656,26.03
25.671,12.93
25.687,-4.89
25.703,-28.33
25.718,-57.6
25.734,-91.73
25.750,-127.85
25.765,-160.77
25.781,-183.38
25.796,-188.18
25.812,-169.81
25.828,-127.61
25.843,-67.01
25.859,1.4
25.875,64.65
25.890,111.33
25.906,134.81
25.921,134.71
25.937,116.22
25.953,87.76
25.968,58.09
25.984,33.84
26.000,18.29
26.015,11.36
26.031,10.59
26.046,12.33
26.062,12.86
26.078,9.41
26.093,0.61
26.109,-13.05
26.125,-29.32
26.140,-44.9
26.156,-56.78
26.171,-63.4
26.187,-65.36
26.203,-64.97
26.218,-64.96
26.234,-67.13
26.250,-71.47
26.265,-76.37
26.281,-79.55
26.296,-79.42
26.312,-75.68
26.328,-69.39
26.343,-62.37
26.359,-56.4
26.375,-52.58
26.390,-51.09
26.406,-51.25
26.421,-51.85
26.437,-51.65
26.453,-49.88
26.468,-46.46
26.484,-42.02
26.500,-37.59
26.515,-34.07
26.531,-31.87
26.546,-30.89
26.562,-30.53
26.578,-30.0
26.593,-28.48
26.609,-25.29
26.625,-19.92
26.640,-12.11
26.656,-1.88
26.671,10.41
26.687,24.24
26.703,39.2
26.718,55.28
26.734,72.87
26.750,92.25
26.765,112.81
26.781,132.45
26.796,147.78
26.812,155.26
26.828,152.9
26.843,141.57
26.859,125.19
26.875,109.38
26.890,99.21
26.906,97.0
26.921,101.54
26.937,108.96
26.953,114.83
26.968,116.48
26.984,114.42
27.000,112.08
27.015,114.12
27.031,124.06
27.046,142.03
27.062,163.94
27.078,182.43
27.093,189.25
27.109,178.25
27.125,147.84
27.140,101.7
27.156,47.92
27.171,-3.44
27.187,-43.28
27.203,-65.87
27.218,-70.15
27.234,-59.64
27.250,-41.14
27.265,-22.9
27.281,-12.56
27.296,-15.44
27.312,-33.47
27.328,-64.91
27.343,-104.75
27.359,-145.93
27.375,-180.96
27.390,-203.76
27.406,-211.22
27.421,-203.97
27.437,-185.99
27.453,-163.33
27.468,-142.23
27.484,-127.18
27.500,-119.83
27.515,-118.84
27.531,-120.61
27.546,-120.73
27.562,-115.5
27.578,-103.38
27.593,-85.71
27.609,-66.56
27.625,-51.31
27.640,-44.67
27.656,-48.72
27.671,-61.97
27.687,-79.89
27.703,-96.69
27.718,-107.5
27.734,-109.91
27.750,-104.33
27.765,-93.15
27.781,-79.49
27.796,-66.01
27.812,-54.41
27.828,-45.53
27.843,-39.73
27.859,-37.26
27.875,-38.24
27.890,-42.49
27.906,-49.36
27.921,-57.72
27.937,-66.21
27.953,-73.46
27.968,-78.76
27.984,-82.06
28.000,-84.15
28.015,-86.15
28.031,-89.19
28.046,-94.0
28.062,-100.72
28.078,-108.88
28.093,-117.41
28.109,-124.87
28.125,-129.6
28.140,-130.07
28.156,-125.15
28.171,-114.47
28.187,-98.55
28.203,-78.78
28.218,-57.05
28.234,-35.25
28.250,-14.88
28.265,3.24
28.281,18.89
28.296,32.3
28.312,43.75
28.328,53.47
28.343,61.57
28.359,68.13
28.375,73.34
28.390,77.58
28.406,81.32
28.421,85.02
28.437,88.97
28.453,93.33
28.468,98.01
28.484,102.79
28.500,107.39
28.515,111.47
28.531,114.64
28.546,116.62
28.562,117.21
28.578,116.45
28.593,114.56
28.609,111.86
28.625,108.71
28.640,105.3
28.656,101.57
28.671,97.24
28.687,91.9
28.703,85.15
28.718,76.87
28.734,67.35
28.750,57.18
28.765,47.25
28.781,38.27
28.796,30.54
28.812,23.84
28.828,17.45
28.843,10.32
28.859,1.46
28.875,-9.79
28.890,-23.41
28.906,-38.49
28.921,-53.29
28.937,-65.48
28.953,-72.66
28.968,-73.01
28.984,-65.93
29.000,-52.08
29.015,-33.23
29.031,-11.68
29.046,10.44
29.062,31.65
29.078,51.18
29.093,68.9
29.109,84.86
29.125,98.98
29.140,111.01
29.156,120.65
29.171,127.83
29.187,132.98
29.203,136.91
29.218,140.6
29.234,144.91
29.250,150.21
29.265,156.22
29.281,162.21
29.296,167.08
29.312,169.7
29.328,169.29
29.343,165.7
29.359,159.9
29.375,154.03
29.390,150.86
29.406,152.71
29.421,160.12
29.437,170.94
29.453,180.56
29.468,183.4
29.484,174.98
29.500,153.98
29.515,122.98
29.531,87.73
29.546,55.16
29.562,31.06
29.578,18.34
29.593,16.49
29.609,22.28
29.625,31.09
29.640,38.33
29.656,40.39
29.671,35.11
29.687,22.02
29.703,2.48
29.718,-20.41
29.734,-42.37
29.750,-59.0
29.765,-67.4
29.781,-67.47
29.796,-62.05
29.812,-55.75
29.828,-52.59
29.843,-53.99
29.859,-57.94
29.875,-59.98
29.890,-55.35
29.906,-41.14
29.921,-17.34
29.937,13.66
29.953,48.43
29.968,84.13
29.984,119.12
30.000,152.89
30.015,185.21
30.031,215.41
30.046,241.75
30.062,261.63
30.078,272.11
30.093,270.8
30.109,256.76
30.125,230.88
30.140,195.77
30.156,154.88
30.171,111.53
30.187,67.85
30.203,24.69
30.218,-17.88
30.234,-59.75
30.250,-100.14
30.265,-137.59
30.281,-170.45
30.296,-197.54
30.312,-218.36
30.328,-232.89
30.343,-241.25
30.359,-243.44
30.375,-239.63
30.390,-230.64
30.406,-218.45
30.421,-205.93
30.437,-196.3
30.453,-192.13
30.468,-194.47
30.484,-202.65
30.500,-214.6
30.515,-227.61
30.531,-238.99
30.546,-246.59
30.562,-248.85
30.578,-244.8
30.593,-234.05
30.609,-216.75
30.625,-193.77
30.640,-166.68
30.656,-137.56
30.671,-108.49
30.687,-81.18
30.703,-56.64
30.718,-35.12
30.734,-16.37
30.750,0.06
30.765,14.59
30.781,27.49
30.796,38.84
30.812,48.7
30.828,57.05
30.843,64.0
30.859,69.69
30.875,74.33
30.890,78.14
30.906,81.29
30.921,83.83
30.937,85.72
30.953,86.97
30.968,87.58
30.984,87.72
31.000,87.47
31.015,86.83
31.031,85.61
31.046,83.46
31.062,80.1
31.078,75.47
31.093,69.81
31.109,63.62
31.125,57.39
31.140,51.46
31.156,45.94
31.171,40.73
31.187,35.64
31.203,30.47
31.218,25.15
31.234,19.67
31.250,14.08
31.265,8.55
31.281,3.24
31.296,-1.69
31.312,-6.12
31.328,-10.11
31.343,-13.86
31.359,-17.68
31.375,-21.89
31.390,-26.63
31.406,-31.79
31.421,-36.98
31.437,-41.67
31.453,-45.22
31.468,-47.13
31.484,-47.02
31.500,-44.79
31.515,-40.66
31.531,-35.04
31.546,-28.55
31.562,-21.87
31.578,-15.64
31.593,-10.34
31.609,-6.17
31.625,-3.09
31.640,-0.89
31.656,0.66
31.671,1.7
31.687,2.21
31.703,2.05
31.718,1.12
31.734,-0.61
31.750,-3.02
31.765,-5.86
31.781,-8.86
31.796,-11.81
31.812,-14.56
31.828,-17.06
31.843,-19.28
31.859,-21.21
31.875,-22.82
31.890,-24.13
31.906,-25.18
31.921,-26.11
31.937,-27.09
31.953,-28.38
31.968,-30.21
31.984,-32.66
32.000,-35.68
32.015,-39.01
32.031,-42.32
32.046,-45.29
32.062,-47.87
32.078,-50.23
32.093,-52.89
32.109,-56.47
32.125,-61.51
32.140,-68.19
32.156,-75.95
32.171,-83.54
32.187,-89.14
32.203,-90.79
32.218,-86.97
32.234,-77.19
32.250,-62.09
32.265,-43.35
32.281,-23.23
32.296,-3.9
32.312,12.98
32.328,26.43
32.343,36.22
32.359,42.51
32.375,45.75
32.390,46.54
32.406,45.6
32.421,43.73
32.437,41.78
32.453,40.52
32.468,40.44
32.484,41.72
32.500,44.12
32.515,47.15
32.531,50.26
32.546,52.99
32.562,55.14
32.578,56.78
32.593,58.12
32.609,59.29
32.625,60.33
32.640,61.02
32.656,61.06
32.671,60.13
32.687,58.06
32.703,54.95
32.718,51.14
32.734,47.12
32.750,43.31
32.765,39.98
32.781,37.1
32.796,34.39
32.812,31.5
32.828,28.12
32.843,24.14
32.859,19.65
32.875,14.93
32.890,10.31
32.906,6.1
32.921,2.44
32.937,-0.75
32.953,-3.71
32.968,-6.87
32.984,-10.64
33.000,-15.3
33.015,-20.8
33.031,-26.65
33.046,-31.91
33.062,-35.38
33.078,-35.83
33.093,-32.32
33.109,-24.58
33.125,-13.05
33.140,1.21
33.156,16.79
33.171,32.32
33.187,46.74
33.203,59.49
33.218,70.37
33.234,79.43
33.250,86.77
33.265,92.51
33.281,96.82
33.296,99.96
33.312,102.4
33.328,104.61
33.343,107.04
33.359,109.91
33.375,113.14
33.390,116.38
33.406,119.14
33.421,120.99
33.437,121.71
33.453,121.41
33.468,120.45
33.484,119.4
33.500,118.76
33.515,118.64
33.531,118.45
33.546,116.85
33.562,111.95
33.578,101.83
33.593,85.34
33.609,62.47
33.625,34.71
33.640,4.51
33.656,-25.32
33.671,-52.39
33.687,-75.24
33.703,-93.38
33.718,-107.05
33.734,-116.76
33.750,-123.08
33.765,-126.3
33.781,-126.55
33.796,-123.95
33.812,-118.61
33.828,-110.92
33.843,-101.46
33.859,-90.99
33.875,-80.23
33.890,-69.79
33.906,-59.95
33.921,-50.81
33.937,-42.42
33.953,-34.81
33.968,-28.15
33.984,-22.66
34.000,-18.5
34.015,-15.49
34.031,-13.33
34.046,-11.54
34.062,-9.73
34.078,-7.72
34.093,-5.56
34.109,-3.44
34.125,-1.51
34.140,0.15
34.156,1.73
34.171,3.44
34.187,5.44
34.203,7.59
34.218,9.57
34.234,10.84
34.250,10.95
34.265,9.65
34.281,7.03
34.296,3.48
34.312,-0.48
34.328,-4.32
34.343,-7.73
34.359,-10.61
34.375,-13.06
34.390,-15.36
34.406,-17.81
34.421,-20.72
34.437,-24.27
34.453,-28.48
34.468,-33.17
34.484,-37.95
34.500,-42.2
34.515,-45.12
34.531,-45.86
34.546,-43.72
34.562,-38.34
34.578,-29.84
34.593,-18.86
34.609,-6.38
34.625,6.57
34.640,19.09
34.656,30.63
34.671,40.92
34.687,49.93
34.703,57.63
34.718,64.02
34.734,69.05
34.750,72.7
34.765,75.08
34.781,76.43
34.796,77.08
34.812,77.42
34.828,77.81
34.843,78.41
34.859,79.24
34.875,80.16
34.890,81.1
34.906,82.07
34.921,83.29
34.937,85.09
34.953,87.71
34.968,91.2
34.984,95.2
35.000,99.08
35.015,102.04
35.031,103.61
35.046,103.85
35.062,103.46
35.078,103.61
35.093,105.36
35.109,109.24
35.125,114.86
35.140,121.09
35.156,126.64
35.171,130.63
35.187,133.04
35.203,134.67
35.218,136.69
35.234,140.01
35.250,144.9
35.265,150.88
35.281,157.05
35.296,162.33
35.312,165.63
35.328,165.93
35.343,162.15
35.359,153.4
35.375,139.17
35.390,119.7
35.406,95.96
35.421,69.3
35.437,40.78
35.453,10.8
35.468,-20.67
35.484,-53.16
35.500,-84.5
35.515,-110.46
35.531,-125.63
35.546,-125.39
35.562,-108.33
35.578,-77.5
35.593,-39.76
35.609,-3.37
35.625,25.06
35.640,42.72
35.656,51.03
35.671,54.2
35.687,57.0
35.703,62.63
35.718,71.76
35.734,82.6
35.750,92.07
35.765,96.94
35.781,94.91
35.796,85.09
35.812,67.98
35.828,44.86
35.843,17.17
35.859,-13.92
35.875,-47.56
35.890,-82.7
35.906,-117.79
35.921,-150.59
35.937,-178.73
35.953,-200.35
35.968,-214.64
35.984,-221.89
36.000,-222.98
36.015,-218.91
36.031,-210.4
36.046,-198.09
36.062,-182.65
36.078,-165.22
36.093,-147.34
36.109,-130.8
36.125,-117.26
36.140,-108.03
36.156,-103.8
36.171,-104.57
36.187,-109.56
36.203,-117.19
36.218,-125.26
36.234,-131.5
36.250,-134.05
36.265,-131.9
36.281,-125.02
36.296,-114.08
36.312,-99.95
36.328,-83.3
36.343,-64.47
36.359,-43.78
36.375,-21.96
36.390,-0.64
36.406,17.74
36.421,30.41
36.437,35.16
36.453,31.31
36.468,20.25
36.484,5.2
36.500,-9.71
36.515,-21.01
36.531,-27.16
36.546,-29.12
36.562,-29.72
36.578,-32.19
36.593,-38.59
36.609,-48.86
36.625,-61.14
36.640,-72.79
36.656,-81.75
36.671,-87.23
36.687,-89.6
36.703,-89.64
36.718,-87.8
36.734,-84.0
36.750,-77.98
36.765,-69.83
36.781,-60.32
36.796,-50.72
36.812,-42.32
36.828,-35.87
36.843,-31.4
36.859,-28.32
36.875,-25.78
36.890,-23.07
36.906,-19.85
36.921,-16.1
36.937,-12.04
36.953,-7.85
36.968,-3.54
36.984,1.05
37.000,6.15
37.015,11.79
37.031,17.79
37.046,23.69
37.062,29.14
37.078,34.14
37.093,39.31
37.109,45.88
37.125,55.29
37.140,68.74
37.156,86.69
37.171,108.66
37.187,133.52
37.203,159.69
37.218,185.64
37.234,210.09
37.250,232.2
37.265,251.68
37.281,268.68
37.296,283.44
37.312,295.8
37.328,304.72
37.343,308.01
37.359,302.88
37.375,286.93
37.390,259.62
37.406,223.28
37.421,183.16
37.437,146.25
37.453,119.03
37.468,105.36
37.484,104.94
37.500,113.48
37.515,124.15
37.531,129.83
37.546,125.22
37.562,108.04
37.578,79.21
37.593,42.31
37.609,2.78
37.625,-33.18
37.640,-59.83
37.656,-73.43
37.671,-73.7
37.687,-64.4
37.703,-52.46
37.718,-45.69
37.734,-49.88
37.750,-66.61
37.765,-92.89
37.781,-122.61
37.796,-149.22
37.812,-168.38
37.828,-179.0
37.843,-183.03
37.859,-183.79
37.875,-184.36
37.890,-186.47
37.906,-190.45
37.921,-195.64
37.937,-201.23
37.953,-206.82
37.968,-212.67
37.984,-219.44
38.000,-227.66
38.015,-237.16
38.031,-246.83
38.046,-254.84
38.062,-259.01
38.078,-257.36
38.093,-248.75
38.109,-233.17
38.125,-211.92
38.140,-187.51
38.156,-163.15
38.171,-142.07
38.187,-126.8
38.203,-118.47
38.218,-116.6
38.234,-119.37
38.250,-124.19
38.265,-128.47
38.281,-130.28
38.296,-128.55
38.312,-123.04
38.328,-114.04
38.343,-102.22
38.359,-88.53
38.375,-74.22
38.390,-60.66
38.406,-48.98
38.421,-39.84
38.437,-33.08
38.453,-27.88
38.468,-23.13
38.484,-17.92
38.500,-11.95
38.515,-5.61
38.531,0.23
38.546,4.73
38.562,7.47
38.578,8.62
38.593,8.8
38.609,8.79
38.625,9.05
38.640,9.62
38.656,10.1
38.671,10.03
38.687,9.1
38.703,7.31
38.718,5.02
38.734,2.67
38.750,0.55
38.765,-1.31
38.781,-3.14
38.796,-5.25
38.812,-7.88
38.828,-11.05
38.843,-14.64
38.859,-18.4
38.875,-22.17
38.890,-25.9
38.906,-29.66
38.921,-33.65
38.937,-38.15
38.953,-43.32
38.968,-49.04
38.984,-54.78
39.000,-59.61
39.015,-62.33
39.031,-61.81
39.046,-57.3
39.062,-48.78
39.078,-36.9
39.093,-22.87
39.109,-7.97
39.125,6.71
39.140,20.53
39.156,33.23
39.171,44.86
39.187,55.56
39.203,65.38
39.218,74.29
39.234,82.09
39.250,88.6
39.265,93.67
39.281,97.32
39.296,99.78
39.312,101.44
39.328,102.72
39.343,103.99
39.359,105.5
39.375,107.3
39.390,109.26
39.406,111.19
39.421,112.76
39.437,113.56
39.453,113.12
39.468,111.07
39.484,107.26
39.500,101.94
39.515,95.69
39.531,89.2
39.546,83.0
39.562,77.14
39.578,71.21
39.593,64.52
39.609,56.46
39.625,46.97
39.640,36.58
39.656,26.28
39.671,17.1
39.687,9.69
39.703,4.06
39.718,-0.33
39.734,-4.29
39.750,-8.62
39.765,-13.64
39.781,-19.24
39.796,-25.07
39.812,-30.76
39.828,-36.2
39.843,-41.6
39.859,-47.38
39.875,-53.96
39.890,-61.65
39.906,-70.41
39.921,-79.94
39.937,-89.62
39.953,-98.6
39.968,-105.76
39.984,-109.87
40.000,-109.89
40.015,-105.29
40.031,-96.51
40.046,-84.85
40.062,-72.2
40.078,-60.33
40.093,-50.31
40.109,-42.18
40.125,-35.12
40.140,-27.99
40.156,-19.95
40.171,-10.81
40.187,-1.05
40.203,8.51
40.218,17.01
40.234,23.9
40.250,28.84
40.265,31.77
40.281,32.79
40.296,32.16
40.312,30.35
40.328,27.95
40.343,25.69
40.359,24.15
40.375,23.71
40.390,24.31
40.406,25.57
40.421,26.93
40.437,27.95
40.453,28.4
40.468,28.38
40.484,28.13
40.500,27.83
40.515,27.49
40.531,26.91
40.546,25.8
40.562,23.95
40.578,21.34
40.593,18.15
40.609,14.58
40.625,10.79
40.640,6.85
40.656,2.76
40.671,-1.49
40.687,-5.89
40.703,-10.42
40.718,-15.01
40.734,-19.53
40.750,-23.71
40.765,-27.24
40.781,-29.85
40.796,-31.47
40.812,-32.45
40.828,-33.4
40.843,-35.03
40.859,-37.91
40.875,-42.06
40.890,-46.86
40.906,-51.01
40.921,-52.77
40.937,-50.44
40.953,-42.8
40.968,-29.55
40.984,-11.4
41.000,10.08
41.015,32.85
41.031,54.91
41.046,74.71
41.062,91.41
41.078,104.91
41.093,115.66
41.109,124.41
41.125,131.7
41.140,137.56
41.156,141.44
41.171,142.39
41.187,139.52
41.203,132.65
41.218,122.54
41.234,110.77
41.250,99.12
41.265,89.01
41.281,81.02
41.296,75.14
41.312,70.94
41.328,68.04
41.343,66.22
41.359,65.09
41.375,64.08
41.390,62.29
41.406,58.79
41.421,53.06
41.437,45.16
41.453,35.63
41.468,25.23
41.484,14.55
41.500,3.76
41.515,-7.14
41.531,-18.2
41.546,-29.24
41.562,-39.8
41.578,-49.14
41.593,-56.4
41.609,-60.58
41.625,-60.73
41.640,-56.23
41.656,-46.94
41.671,-33.43
41.687,-16.95
41.703,0.87
41.718,18.4
41.734,34.41
41.750,48.23
41.765,59.79
41.781,69.32
41.796,77.32
41.812,84.44
41.828,91.45
41.843,99.2
41.859,108.25
41.875,118.65
41.890,129.79
41.906,140.59
41.921,149.73
41.937,156.17
41.953,159.07
41.968,157.93
41.984,152.52
42.000,142.94
42.015,129.74
42.031,114.02
42.046,97.27
42.062,80.76
42.078,65.17
42.093,50.19
42.109,34.86
42.125,18.21
42.140,0.01
42.156,-18.91
42.171,-36.86
42.187,-51.95
42.203,-62.82
42.218,-68.91
42.234,-70.42
42.250,-68.1
42.265,-62.85
42.281,-55.62
42.296,-47.47
42.312,-39.66
42.328,-33.48
42.343,-30.12
42.359,-30.19
42.375,-33.59
42.390,-39.58
42.406,-46.94
42.421,-54.59
42.437,-61.76
42.453,-68.12
42.468,-73.63
42.484,-78.28
42.500,-81.97
42.515,-84.59
42.531,-86.23
42.546,-87.2
42.562,-88.16
42.578,-89.84
42.593,-92.88
42.609,-97.64
42.625,-104.24
42.640,-112.7
42.656,-122.86
42.671,-134.44
42.687,-146.59
42.703,-157.98
42.718,-166.76
42.734,-170.9
42.750,-168.79
42.765,-159.65
42.781,-143.81
42.796,-122.64
42.812,-98.28
42.828,-73.06
42.843,-49.07
42.859,-27.64
42.875,-9.31
42.890,6.14
42.906,19.33
42.921,30.96
42.937,41.59
42.953,51.52
42.968,61.01
42.984,70.14
43.000,78.94
43.015,87.1
43.031,94.09
43.046,99.24
43.062,102.05
43.078,102.51
43.093,100.96
43.109,98.0
43.125,94.0
43.140,88.84
43.156,81.88
43.171,72.26
43.187,59.28
43.203,42.76
43.218,23.16
43.234,1.48
43.250,-20.97
43.265,-42.86
43.281,-63.09
43.296,-81.02
43.312,-96.5
43.328,-109.74
43.343,-121.17
43.359,-131.15
43.375,-139.9
43.390,-147.36
43.406,-153.32
43.421,-157.5
43.437,-159.76
43.453,-160.25
43.468,-159.33
43.484,-157.68
43.500,-156.19
43.515,-155.79
43.531,-157.31
43.546,-161.09
43.562,-166.72
43.578,-172.94
43.593,-177.8
43.609,-179.11
43.625,-175.07
43.640,-164.84
43.656,-148.91
43.671,-128.9
43.687,-107.14
43.703,-85.93
43.718,-66.91
43.734,-50.76
43.750,-37.31
43.765,-25.87
43.781,-15.64
43.796,-6.08
43.812,3.02
43.828,11.62
43.843,19.58
43.859,26.83
43.875,33.43
43.890,39.38
43.906,44.66
43.921,49.15
43.937,52.76
43.953,55.51
43.968,57.6
43.984,59.33
44.000,61.04
44.015,62.96
44.031,65.07
44.046,67.13
44.062,68.76
44.078,69.66
44.093,69.66
44.109,68.77
44.125,67.17
44.140,65.14
44.156,62.9
44.171,60.61
44.187,58.35
44.203,56.13
44.218,53.81
44.234,51.25
44.250,48.23
44.265,44.58
44.281,40.23
44.296,35.21
44.312,29.71
44.328,23.99
44.343,18.28
44.359,12.81
44.375,7.73
44.390,3.02
44.406,-1.4
44.421,-5.8
44.437,-10.51
44.453,-15.87
44.468,-22.03
44.484,-28.84
44.500,-35.7
44.515,-41.58
44.531,-45.32
44.546,-45.81
44.562,-42.45
44.578,-35.22
44.593,-24.84
44.609,-12.52
44.625,0.39
44.640,12.78
44.656,23.93
44.671,33.61
44.687,42.0
44.703,49.37
44.718,55.9
44.734,61.61
44.750,66.28
44.765,69.69
44.781,71.7
44.796,72.38
44.812,72.03
44.828,71.17
44.843,70.23
44.859,69.51
44.875,69.07
44.890,68.76
44.906,68.35
44.921,67.69
44.937,66.71
44.953,65.47
44.968,64.09
44.984,62.6
45.000,60.97
45.015,59.15
45.031,57.07
45.046,54.7
45.062,52.04
45.078,49.07
45.093,45.85
45.109,42.37
45.125,38.66
45.140,34.78
45.156,30.81
45.171,26.77
45.187,22.63
45.203,18.41
45.218,14.07
45.234,9.76
45.250,5.65
45.265,1.87
45.281,-1.49
45.296,-4.49
45.312,-7.33
45.328,-10.25
45.343,-13.42
45.359,-16.97
45.375,-20.9
45.390,-25.19
45.406,-29.62
45.421,-33.67
45.437,-36.58
45.453,-37.35
45.468,-35.14
45.484,-29.48
45.500,-20.61
45.515,-9.34
45.531,3.09
45.546,15.48
45.562,26.91
45.578,36.89
45.593,45.34
45.609,52.43
45.625,58.45
45.640,63.72
45.656,68.55
45.671,73.28
45.687,78.13
45.703,83.26
45.718,88.61
45.734,94.0
45.750,99.21
45.765,104.09
45.781,108.68
45.796,113.29
45.812,118.36
45.828,124.36
45.843,131.52
45.859,139.73
45.875,148.58
45.890,157.47
45.906,165.94
45.921,173.85
45.937,181.49
45.953,189.36
45.968,198.0
45.984,207.61
46.000,218.1
46.015,228.99
46.031,239.71
46.046,249.71
46.062,258.61
46.078,266.24
46.093,272.56
46.109,277.73
46.125,281.92
46.140,285.37
46.156,287.98
46.171,289.17
46.187,287.89
46.203,282.93
46.218,273.43
46.234,259.32
46.250,241.4
46.265,221.03
46.281,199.55
46.296,177.87
46.312,156.31
46.328,134.88
46.343,113.77
46.359,93.53
46.375,74.98
46.390,58.79
46.406,45.0
46.421,32.84
46.437,21.08
46.453,8.47
46.468,-5.78
46.484,-21.7
46.500,-38.66
46.515,-55.45
46.531,-70.8
46.546,-83.72
46.562,-93.94
46.578,-102.2
46.593,-110.14
46.609,-119.89
46.625,-133.2
46.640,-150.57
46.656,-170.62
46.671,-190.36
46.687,-206.3
46.703,-215.91
46.718,-218.98
46.734,-217.84
46.750,-216.48
46.765,-218.94
46.781,-227.82
46.796,-243.32
46.812,-263.54
46.828,-285.2
46.843,-304.78
46.859,-319.33
46.875,-326.79
46.890,-325.81
46.906,-315.68
46.921,-296.42
46.937,-268.96
46.953,-235.24
46.968,-198.02
46.984,-160.33
47.000,-125.04
47.015,-94.5
47.031,-70.56
47.046,-54.7
47.062,-47.9
47.078,-50.39
47.093,-61.19
47.109,-77.91
47.125,-96.91
47.140,-114.15
47.156,-126.28
47.171,-131.48
47.187,-129.72
47.203,-122.27
47.218,-110.86
47.234,-97.08
47.250,-82.22
47.265,-67.27
47.281,-53.33
47.296,-41.57
47.312,-32.95
47.328,-27.83
47.343,-25.65
47.359,-25.03
47.375,-24.17
47.390,-21.54
47.406,-16.33
47.421,-8.78
47.437,-0.03
47.453,8.3
47.468,14.66
47.484,17.98
47.500,17.84
47.515,14.51
47.531,8.55
47.546,0.66
47.562,-8.59
47.578,-18.78
47.593,-29.41
47.609,-39.83
47.625,-49.2
47.640,-56.57
47.656,-61.22
47.671,-62.95
47.687,-62.16
47.703,-59.72
47.718,-56.65
47.734,-53.76
47.750,-51.49
47.765,-49.86
47.781,-48.69
47.796,-47.8
47.812,-47.12
47.828,-46.62
47.843,-46.21
47.859,-45.7
47.875,-44.78
47.890,-43.22
47.906,-41.07
47.921,-38.74
47.937,-36.97
47.953,-36.63
47.968,-38.39
47.984,-42.47
48.000,-48.57
48.015,-55.8
48.031,-62.9
48.046,-68.46
48.062,-71.18
48.078,-70.18
48.093,-65.15
48.109,-56.36
48.125,-44.47
48.140,-30.36
48.156,-14.89
48.171,1.24
48.187,17.45
48.203,33.32
48.218,48.47
48.234,62.59
48.250,75.6
48.265,87.68
48.281,99.26
48.296,110.89
48.312,122.92
48.328,135.41
48.343,148.03
48.359,160.08
48.375,170.7
48.390,179.15
48.406,185.01
48.421,188.4
48.437,190.19
48.453,191.77
48.468,194.74
48.484,200.05
48.500,207.12
48.515,213.19
48.531,214.0
48.546,205.15
48.562,184.07
48.578,151.6
48.593,112.11
48.609,72.19
48.625,38.22
48.640,14.01
48.656,-0.55
48.671,-8.91
48.687,-16.28
48.703,-27.17
48.718,-43.48
48.734,-63.56
48.750,-82.51
48.765,-93.98
48.781,-92.62
48.796,-76.81
48.812,-50.16
48.828,-21.03
48.843,0.08
48.859,4.11
48.875,-13.56
48.890,-51.44
48.906,-102.38
48.921,-155.45
48.937,-199.15
48.953,-224.51
48.968,-227.65
48.984,-210.78
49.000,-181.11
49.015,-148.12
49.031,-120.03
49.046,-100.9
49.062,-89.54
49.078,-80.98
49.093,-69.5
49.109,-51.83
49.125,-28.97
49.140,-5.73
49.156,11.31
49.171,16.49
49.187,7.22
49.203,-15.12
49.218,-45.54
49.234,-76.73
49.250,-101.03
49.265,-112.73
49.281,-109.75
49.296,-94.37
49.312,-72.42
49.328,-51.42
49.343,-38.28
49.359,-37.34
49.375,-49.48
49.390,-72.44
49.406,-101.97
49.421,-133.13
49.437,-161.61
49.453,-184.05
49.468,-198.24
49.484,-202.78
49.500,-197.37
49.515,-183.07
49.531,-162.52
49.546,-139.64
49.562,-118.56
49.578,-102.43
49.593,-92.42
49.609,-87.63
49.625,-85.91
49.640,-85.1
49.656,-84.04
49.671,-83.03
49.687,-83.41
49.703,-86.51
49.718,-92.63
49.734,-100.6
49.750,-108.02
49.765,-112.11
49.781,-110.78
49.796,-103.41
49.812,-91.04
49.828,-75.99
49.843,-60.87
49.859,-47.72
49.875,-37.3
49.890,-29.08
49.906,-21.79
49.921,-14.08
49.937,-5.24
49.953,4.6
49.968,14.63
49.984,23.88
50.000,31.58
50.015,37.49
50.031,41.82
50.046,45.14
50.062,48.02
50.078,50.81
50.093,53.63
50.109,56.47
50.125,59.37
50.140,62.49
50.156,66.06
50.171,70.1
50.187,74.32
50.203,78.06
50.218,80.47
50.234,80.91
50.250,79.16
50.265,75.54
50.281,70.77
50.296,65.66
50.312,60.85
50.328,56.61
50.343,52.81
50.359,49.0
50.375,44.74
50.390,39.71
50.406,33.79
50.421,27.14
50.437,19.98
50.453,12.57
50.468,5.09
50.484,-2.37
50.500,-9.75
50.515,-17.09
50.531,-24.51
50.546,-32.25
50.562,-40.53
50.578,-49.34
50.593,-58.09
50.609,-65.57
50.625,-70.21
50.640,-70.46
50.656,-65.48
50.671,-55.46
50.687,-41.64
50.703,-25.8
50.718,-9.76
50.734,5.2
50.750,18.54
50.765,30.29
50.781,40.73
50.796,50.08
50.812,58.38
50.828,65.51
50.843,71.38
50.859,76.01
50.875,79.51
50.890,82.08
50.906,83.87
50.921,85.07
50.937,85.81
50.953,86.29
50.968,86.73
50.984,87.37
51.000,88.42
51.015,89.93
51.031,91.75
51.046,93.47
51.062,94.57
51.078,94.49
51.093,92.86
51.109,89.61
51.125,84.93
51.140,79.26
51.156,73.02
51.171,66.51
51.187,59.82
51.203,53.08
51.218,46.44
51.234,40.22
51.250,34.84
51.265,30.63
51.281,27.73
51.296,25.88
51.312,24.5
51.328,22.68
51.343,19.39
51.359,13.62
51.375,4.6
51.390,-8.06
51.406,-24.17
51.421,-42.74
51.437,-62.07
51.453,-79.9
51.468,-93.81
51.484,-101.92
51.500,-103.25
51.515,-97.97
51.531,-87.12
51.546,-72.21
51.562,-54.69
51.578,-35.71
51.593,-16.12
51.609,3.44
51.625,22.24
51.640,39.54
51.656,54.65
51.671,67.14
51.687,76.97
51.703,84.35
51.718,89.67
51.734,93.28
51.750,95.44
51.765,96.31
51.781,96.09
51.796,95.09
51.812,93.76
51.828,92.52
51.843,91.75
51.859,91.62
51.875,92.07
51.890,92.89
51.906,93.57
51.921,93.51
51.937,91.97
51.953,88.21
51.968,81.74
51.984,72.48
52.000,60.87
52.015,47.77
52.031,34.25
52.046,21.18
52.062,9.11
52.078,-1.79
52.093,-11.61
52.109,-20.53
52.125,-28.57
52.140,-35.69
52.156,-41.86
52.171,-47.16
52.187,-51.95
52.203,-56.83
52.218,-62.47
52.234,-69.46
52.250,-77.97
52.265,-87.56
52.281,-97.12
52.296,-104.99
52.312,-109.3
52.328,-108.54
52.343,-101.98
52.359,-89.89
52.375,-73.46
52.390,-54.31
52.406,-34.07
52.421,-14.13
52.437,4.52
52.453,21.17
52.468,35.2
52.484,46.15
52.500,53.78
52.515,58.15
52.531,59.74
52.546,59.35
52.562,57.89
52.578,56.26
52.593,55.12
52.609,54.78
52.625,55.24
52.640,56.22
52.656,57.32
52.671,58.26
52.687,58.93
52.703,59.41
52.718,59.84
52.734,60.28
52.750,60.56
52.765,60.43
52.781,59.67
52.796,58.19
52.812,56.15
52.828,53.73
52.843,51.17
52.859,48.57
52.875,45.95
52.890,43.25
52.906,40.48
52.921,37.68
52.937,34.86
52.953,32.0
52.968,29.04
52.984,25.87
53.000,22.4
53.015,18.57
53.031,14.24
53.046,9.37
53.062,3.91
53.078,-1.98
53.093,-7.81
53.109,-12.65
53.125,-15.26
53.140,-14.34
53.156,-9.01
53.171,0.82
53.187,14.29
53.203,29.77
53.218,45.46
53.234,59.85
53.250,72.18
53.265,82.46
53.281,91.14
53.296,98.58
53.312,104.71
53.328,108.98
53.343,110.58
53.359,109.01
53.375,104.28
53.390,97.07
53.406,88.49
53.421,79.72
53.437,71.74
53.453,65.18
53.468,60.36
53.484,57.3
53.500,55.89
53.515,55.81
53.531,56.47
53.546,57.1
53.562,56.73
53.578,54.42
53.593,49.42
53.609,41.27
53.625,29.75
53.640,14.78
53.656,-3.66
53.671,-25.52
53.687,-50.5
53.703,-77.9
53.718,-106.55
53.734,-134.91
53.750,-161.4
53.765,-184.85
53.781,-204.65
53.796,-220.76
53.812,-233.44
53.828,-242.9
53.843,-249.11
53.859,-251.89
53.875,-251.05
53.890,-246.66
53.906,-239.01
53.921,-228.53
53.937,-215.54
53.953,-200.19
53.968,-182.48
53.984,-162.52
54.000,-140.78
54.015,-118.13
54.031,-95.69
54.046,-74.61
54.062,-55.66
54.078,-39.13
54.093,-24.76
54.109,-12.03
54.125,-0.48
54.140,10.08
54.156,19.49
54.171,27.44
54.187,33.68
54.203,38.3
54.218,41.78
54.234,44.81
54.250,48.0
54.265,51.62
54.281,55.47
54.296,59.06
54.312,61.91
54.328,63.71
54.343,64.48
54.359,64.45
54.375,63.83
54.390,62.73
54.406,61.13
54.421,59.01
54.437,56.41
54.453,53.47
54.468,50.34
54.484,47.06
54.500,43.56
54.515,39.64
54.531,35.21
54.546,30.28
54.562,25.03
54.578,19.75
54.593,14.75
54.609,10.22
54.625,6.26
54.640,2.77
54.656,-0.53
54.671,-4.0
54.687,-8.02
54.703,-12.82
54.718,-18.26
54.734,-23.85
54.750,-28.74
54.765,-31.97
54.781,-32.65
54.796,-30.31
54.812,-24.87
54.828,-16.85
54.843,-7.12
54.859,3.22
54.875,13.17
54.890,21.97
54.906,29.25
54.921,34.99
54.937,39.35
54.953,42.52
54.968,44.63
54.984,45.74
55.000,45.92
55.015,45.33
55.031,44.26
55.046,42.99
55.062,41.81
55.078,40.8
55.093,39.98
55.109,39.33
55.125,38.82
55.140,38.47
55.156,38.25
55.171,38.02
55.187,37.6
55.203,36.79
55.218,35.47
55.234,33.67
55.250,31.5
55.265,29.08
55.281,26.46
55.296,23.6
55.312,20.41
55.328,16.82
55.343,12.89
55.359,8.64
55.375,4.24
55.390,-0.22
55.406,-4.65
55.421,-9.02
55.437,-13.33
55.453,-17.63
55.468,-21.99
55.484,-26.51
55.500,-31.25
55.515,-36.05
55.531,-40.56
55.546,-44.21
55.562,-46.28
55.578,-46.15
55.593,-43.37
55.609,-37.92
55.625,-30.17
55.640,-20.9
55.656,-11.04
55.671,-1.55
55.687,6.82
55.703,13.68
55.718,18.98
55.734,22.96
55.750,25.96
55.765,28.27
55.781,29.98
55.796,31.02
55.812,31.26
55.828,30.68
55.843,29.44
55.859,27.9
55.875,26.43
55.890,25.28
55.906,24.48
55.921,23.88
55.937,23.25
55.953,22.47
55.968,21.5
55.984,20.41
56.000,19.25
56.015,17.95
56.031,16.35
56.046,14.25
56.062,11.52
56.078,8.16
56.093,4.36
56.109,0.4
56.125,-3.41
56.140,-6.86
56.156,-9.89
56.171,-12.6
56.187,-15.17
56.203,-17.78
56.218,-20.6
56.234,-23.74
56.250,-27.28
56.265,-31.2
56.281,-35.33
56.296,-39.29
56.312,-42.47
56.328,-44.08
56.343,-43.45
56.359,-40.24
56.375,-34.66
56.390,-27.36
56.406,-19.33
56.421,-11.53
56.437,-4.6
56.453,1.24
56.468,6.08
56.484,10.13
56.500,13.54
56.515,16.27
56.531,18.19
56.546,19.24
56.562,19.52
56.578,19.3
56.593,18.93
56.609,18.65
56.625,18.52
56.640,18.45
56.656,18.34
56.671,18.2
56.687,18.13
56.703,18.24
56.718,18.51
56.734,18.74
56.750,18.62
56.765,17.88
56.781,16.4
56.796,14.22
56.812,11.46
56.828,8.29
56.843,4.79
56.859,1.06
56.875,-2.79
56.890,-6.57
56.906,-10.08
56.921,-13.18
56.937,-15.9
56.953,-18.45
56.968,-21.14
56.984,-24.31
57.000,-28.1
57.015,-32.35
57.031,-36.58
57.046,-40.03
57.062,-41.88
57.078,-41.48
57.093,-38.54
57.109,-33.23
57.125,-26.12
57.140,-18.01
57.156,-9.74
57.171,-2.01
57.187,4.78
57.203,10.39
57.218,14.86
57.234,18.29
57.250,20.83
57.265,22.55
57.281,23.53
57.296,23.87
57.312,23.68
57.328,23.18
57.343,22.57
57.359,22.02
57.375,21.61
57.390,21.39
57.406,21.24
57.421,21.03
57.437,20.69
57.453,20.11
57.468,19.32
57.484,18.39
57.500,17.36
57.515,16.24
57.531,15.01
57.546,13.51
57.562,11.58
57.578,9.1
57.593,6.08
57.609,2.75
57.625,-0.58
57.640,-3.61
57.656,-6.19
57.671,-8.41
57.687,-10.49
57.703,-12.71
57.718,-15.33
57.734,-18.57
57.750,-22.45
57.765,-26.83
57.781,-31.29
57.796,-35.16
57.812,-37.6
57.828,-37.88
57.843,-35.49
57.859,-30.39
57.875,-23.07
57.890,-14.37
57.906,-5.26
57.921,3.32
57.937,10.79
57.953,16.86
57.968,21.5
57.984,24.93
58.000,27.41
58.015,29.15
58.031,30.31
58.046,31.0
58.062,31.33
58.078,31.47
58.093,31.65
58.109,31.98
58.125,32.48
58.140,33.1
58.156,33.68
58.171,34.06
58.187,34.14
58.203,33.8
58.218,32.92
58.234,31.47
58.250,29.43
58.265,26.91
58.281,24.08
58.296,21.09
58.312,18.0
58.328,14.8
58.343,11.41
58.359,7.85
58.375,4.27
58.390,0.93
58.406,-1.91
58.421,-4.13
58.437,-5.86
58.453,-7.36
58.468,-8.98
58.484,-11.0
58.500,-13.58
58.515,-16.77
58.531,-20.57
58.546,-24.91
58.562,-29.54
58.578,-34.02
58.593,-37.58
58.609,-39.41
58.625,-38.84
58.640,-35.7
58.656,-30.39
58.671,-23.73
58.687,-16.54
58.703,-9.26
58.718,-1.79
58.734,6.33
58.750,15.56
58.765,25.92
58.781,36.96
58.796,47.77
58.812,57.41
58.828,65.14
58.843,70.71
58.859,74.27
58.875,76.21
58.890,77.06
58.906,77.25
58.921,77.13
58.937,76.8
58.953,76.32
58.968,75.62
58.984,74.66
59.000,73.46
59.015,72.05
59.031,70.53
59.046,68.89
59.062,67.24
59.078,65.76
59.093,64.74
59.109,64.32
59.125,64.29
59.140,63.85
59.156,61.57
59.171,55.93
59.187,45.82
59.203,31.12
59.218,12.89
59.234,-6.83
59.250,-25.68
59.265,-41.58
59.281,-53.1
59.296,-59.73
59.312,-61.56
59.328,-59.16
59.343,-53.25
59.359,-44.56
59.375,-33.69
59.390,-21.14
59.406,-7.26
59.421,7.69
59.437,23.45
59.453,39.79
59.468,56.47
59.484,73.2
59.500,89.77
59.515,105.95
59.531,121.57
59.546,136.49
59.562,150.71
59.578,164.28
59.593,177.3
59.609,189.85
59.625,201.88
59.640,213.38
59.656,224.32
59.671,234.7
59.687,244.38
59.703,252.95
59.718,259.7
59.734,263.78
59.750,264.44
59.765,261.31
59.781,254.45
59.796,244.22
59.812,230.89
59.828,214.55
59.843,195.12
59.859,172.62
59.875,147.52
59.890,120.89
59.906,94.08
59.921,68.4
59.937,44.7
59.953,23.09
59.968,3.05
59.984,-16.41
