timestamp,value
00.000,-73.97
00.015,-78.7
00.031,-83.63
00.046,-88.5
00.062,-93.05
00.078,-97.09
00.093,-100.5
00.109,-103.26
00.125,-105.42
00.140,-107.15
00.156,-108.65
00.171,-110.02
00.187,-111.21
00.203,-111.76
00.218,-110.89
00.234,-107.61
00.250,-101.12
00.265,-91.08
00.281,-77.95
00.296,-62.85
00.312,-47.31
00.328,-32.8
00.343,-20.31
00.359,-10.27
00.375,-2.5
00.390,3.46
00.406,8.12
00.421,11.86
00.437,14.79
00.453,16.8
00.468,17.6
00.484,16.93
00.500,14.58
00.515,10.68
00.531,5.65
00.546,0.13
00.562,-5.07
00.578,-9.31
00.593,-12.12
00.609,-13.33
00.625,-12.95
00.640,-11.17
00.656,-8.28
00.671,-4.75
00.687,-1.17
00.703,1.81
00.718,3.58
00.734,3.73
00.750,2.16
00.765,-0.85
00.781,-4.84
00.796,-9.02
00.812,-12.54
00.828,-14.52
00.843,-14.19
00.859,-11.08
00.875,-5.12
00.890,3.24
00.906,13.15
00.921,23.44
00.937,33.03
00.953,41.07
00.968,47.08
00.984,51.04
01.000,53.13
01.015,53.68
01.031,53.02
01.046,51.45
01.062,49.22
01.078,46.58
01.093,43.8
01.109,41.11
01.125,38.67
01.140,36.4
01.156,34.16
01.171,31.73
01.187,28.98
01.203,25.96
01.218,22.85
01.234,20.0
01.250,17.65
01.265,15.96
01.281,14.76
01.296,13.77
01.312,12.69
01.328,11.33
01.343,9.6
01.359,7.49
01.375,4.94
01.390,1.85
01.406,-1.71
01.421,-5.52
01.437,-8.84
01.453,-10.74
01.468,-10.29
01.484,-6.97
01.500,-0.88
01.515,7.24
01.531,16.26
01.546,25.09
01.562,32.93
01.578,39.36
01.593,44.26
01.609,47.7
01.625,49.85
01.640,50.91
01.656,51.15
01.671,50.87
01.687,50.35
01.703,49.79
01.718,49.29
01.734,48.77
01.750,48.14
01.765,47.37
01.781,46.44
01.796,45.54
01.812,44.84
01.828,44.47
01.843,44.39
01.859,44.44
01.875,44.35
01.890,43.83
01.906,42.77
01.921,41.09
01.937,38.9
01.953,36.31
01.968,33.41
01.984,30.22
02.000,26.68
02.015,22.62
02.031,17.76
02.046,11.86
02.062,4.83
02.078,-3.11
02.093,-11.25
02.109,-18.54
02.125,-23.84
02.140,-26.32
02.156,-25.75
02.171,-22.68
02.187,-18.15
02.203,-13.49
02.218,-9.75
02.234,-7.62
02.250,-7.26
02.265,-8.49
02.281,-11.01
02.296,-14.51
02.312,-18.74
02.328,-23.42
02.343,-28.24
02.359,-32.85
02.375,-36.91
02.390,-40.1
02.406,-42.28
02.421,-43.53
02.437,-43.95
02.453,-43.78
02.468,-43.13
02.484,-41.99
02.500,-40.38
02.515,-38.34
02.531,-36.09
02.546,-33.92
02.562,-32.2
02.578,-31.12
02.593,-30.68
02.609,-30.76
02.625,-31.05
02.640,-31.35
02.656,-31.48
02.671,-31.42
02.687,-31.27
02.703,-31.24
02.718,-31.58
02.734,-32.56
02.750,-34.17
02.765,-36.11
02.781,-37.71
02.796,-38.04
02.812,-36.32
02.828,-32.14
02.843,-25.67
02.859,-17.49
02.875,-8.49
02.890,0.44
02.906,8.63
02.921,15.54
02.937,20.92
02.953,24.65
02.968,26.74
02.984,27.38
03.000,26.88
03.015,25.61
03.031,23.95
03.046,22.19
03.062,20.6
03.078,19.38
03.093,18.65
03.109,18.49
03.125,18.82
03.140,19.45
03.156,20.12
03.171,20.49
03.187,20.3
03.203,19.45
03.218,17.94
03.234,15.87
03.250,13.35
03.265,10.41
03.281,7.08
03.296,3.38
03.312,-0.61
03.328,-4.8
03.343,-9.04
03.359,-13.28
03.375,-17.52
03.390,-21.75
03.406,-25.79
03.421,-29.18
03.437,-31.18
03.453,-31.03
03.468,-28.31
03.484,-23.14
03.500,-16.35
03.515,-9.04
03.531,-2.32
03.546,3.06
03.562,6.9
03.578,9.45
03.593,11.07
03.609,12.08
03.625,12.55
03.640,12.43
03.656,11.77
03.671,10.74
03.687,9.68
03.703,9.06
03.718,9.16
03.734,10.07
03.750,11.63
03.765,13.5
03.781,15.32
03.796,16.8
03.812,17.78
03.828,18.2
03.843,18.07
03.859,17.39
03.875,16.18
03.890,14.45
03.906,12.2
03.921,9.42
03.937,6.14
03.953,2.48
03.968,-1.41
03.984,-5.38
04.000,-9.33
04.015,-13.2
04.031,-16.88
04.046,-20.08
04.062,-22.3
04.078,-22.74
04.093,-20.78
04.109,-16.06
04.125,-8.96
04.140,-0.41
04.156,8.35
04.171,16.17
04.187,22.3
04.203,26.52
04.218,29.05
04.234,30.14
04.250,29.97
04.265,28.55
04.281,25.91
04.296,22.26
04.312,18.07
04.328,13.98
04.343,10.52
04.359,8.07
04.375,6.62
04.390,5.85
04.406,5.43
04.421,4.98
04.437,4.22
04.453,2.99
04.468,1.22
04.484,-1.1
04.500,-3.91
04.515,-7.07
04.531,-10.43
04.546,-13.84
04.562,-17.23
04.578,-20.55
04.593,-23.88
04.609,-27.3
04.625,-30.82
04.640,-34.39
04.656,-37.69
04.671,-40.27
04.687,-41.49
04.703,-40.83
04.718,-37.99
04.734,-33.1
04.750,-26.66
04.765,-19.4
04.781,-12.16
04.796,-5.59
04.812,-0.22
04.828,3.77
04.843,6.26
04.859,7.32
04.875,7.08
04.890,5.72
04.906,3.56
04.921,1.01
04.937,-1.47
04.953,-3.55
04.968,-5.02
04.984,-6.01
05.000,-6.81
05.015,-7.79
05.031,-9.27
05.046,-11.34
05.062,-13.88
05.078,-16.61
05.093,-19.25
05.109,-21.59
05.125,-23.59
05.140,-25.32
05.156,-26.94
05.171,-28.68
05.187,-30.72
05.203,-33.17
05.218,-36.0
05.234,-38.98
05.250,-41.6
05.265,-43.18
05.281,-42.94
05.296,-40.31
05.312,-35.15
05.328,-27.84
05.343,-19.17
05.359,-10.18
05.375,-1.78
05.390,5.45
05.406,11.24
05.421,15.63
05.437,18.73
05.453,20.59
05.468,21.32
05.484,21.06
05.500,20.11
05.515,18.89
05.531,17.89
05.546,17.4
05.562,17.57
05.578,18.25
05.593,19.13
05.609,19.86
05.625,20.08
05.640,19.66
05.656,18.59
05.671,17.01
05.687,15.14
05.703,13.21
05.718,11.42
05.734,9.88
05.750,8.63
05.765,7.53
05.781,6.35
05.796,4.78
05.812,2.48
05.828,-0.8
05.843,-4.98
05.859,-9.61
05.875,-13.93
05.890,-16.89
05.906,-17.63
05.921,-15.69
05.937,-11.21
05.953,-4.94
05.968,2.04
05.984,8.71
06.000,14.29
06.015,18.37
06.031,20.93
06.046,22.04
06.062,21.83
06.078,20.52
06.093,18.3
06.109,15.54
06.125,12.7
06.140,10.2
06.156,8.36
06.171,7.28
06.187,6.87
06.203,6.87
06.218,6.99
06.234,6.94
06.250,6.52
06.265,5.68
06.281,4.45
06.296,3.0
06.312,1.42
06.328,-0.2
06.343,-1.88
06.359,-3.68
06.375,-5.77
06.390,-8.32
06.406,-11.51
06.421,-15.48
06.437,-20.24
06.453,-25.58
06.468,-31.03
06.484,-35.86
06.500,-39.1
06.515,-39.93
06.531,-37.76
06.546,-32.59
06.562,-24.94
06.578,-15.67
06.593,-5.85
06.609,3.57
06.625,11.79
06.640,18.3
06.656,22.81
06.671,25.34
06.687,26.08
06.703,25.45
06.718,24.05
06.734,22.43
06.750,21.06
06.765,20.21
06.781,19.91
06.796,20.07
06.812,20.47
06.828,20.94
06.843,21.32
06.859,21.6
06.875,21.74
06.890,21.72
06.906,21.4
06.921,20.54
06.937,18.84
06.953,16.05
06.968,12.07
06.984,6.83
07.000,0.35
07.015,-7.37
07.031,-16.28
07.046,-26.22
07.062,-36.9
07.078,-47.71
07.093,-57.85
07.109,-66.28
07.125,-72.03
07.140,-74.19
07.156,-72.21
07.171,-65.94
07.187,-55.74
07.203,-42.53
07.218,-27.64
07.234,-12.68
07.250,0.91
07.265,11.94
07.281,19.9
07.296,24.77
07.312,26.94
07.328,26.95
07.343,25.27
07.359,22.33
07.375,18.45
07.390,14.01
07.406,9.47
07.421,5.29
07.437,1.82
07.453,-0.83
07.468,-2.79
07.484,-4.4
07.500,-6.12
07.515,-8.38
07.531,-11.48
07.546,-15.46
07.562,-20.04
07.578,-24.72
07.593,-28.87
07.609,-32.0
07.625,-33.91
07.640,-34.75
07.656,-34.98
07.671,-35.21
07.687,-35.91
07.703,-37.33
07.718,-39.3
07.734,-41.31
07.750,-42.52
07.765,-42.05
07.781,-39.12
07.796,-33.23
07.812,-24.41
07.828,-13.21
07.843,-0.71
07.859,11.76
07.875,22.88
07.890,31.62
07.906,37.44
07.921,40.4
07.937,41.19
07.953,40.76
07.968,40.19
07.984,40.31
08.000,41.68
08.015,44.52
08.031,48.75
08.046,54.19
08.062,60.6
08.078,67.7
08.093,75.15
08.109,82.62
08.125,89.71
08.140,95.94
08.156,100.9
08.171,104.14
08.187,105.27
08.203,103.94
08.218,99.82
08.234,92.61
08.250,82.34
08.265,69.31
08.281,54.17
08.296,37.77
08.312,20.9
08.328,4.17
08.343,-12.09
08.359,-27.62
08.375,-41.94
08.390,-54.22
08.406,-63.4
08.421,-68.63
08.437,-69.64
08.453,-67.0
08.468,-61.94
08.484,-56.15
08.500,-51.17
08.515,-48.19
08.531,-47.99
08.546,-50.89
08.562,-57.02
08.578,-66.2
08.593,-77.97
08.609,-91.47
08.625,-105.35
08.640,-117.75
08.656,-126.56
08.671,-129.87
08.687,-126.42
08.703,-116.08
08.718,-99.94
08.734,-80.04
08.750,-58.79
08.765,-38.26
08.781,-19.75
08.796,-3.69
08.812,10.09
08.828,22.03
08.843,32.45
08.859,41.57
08.875,49.5
08.890,56.34
08.906,62.07
08.921,66.42
08.937,68.8
08.953,68.5
08.968,65.05
08.984,58.52
09.000,49.75
09.015,40.05
09.031,30.79
09.046,22.87
09.062,16.38
09.078,10.79
09.093,5.3
09.109,-0.6
09.125,-6.86
09.140,-12.96
09.156,-18.07
09.171,-21.67
09.187,-23.71
09.203,-24.63
09.218,-25.18
09.234,-25.84
09.250,-26.72
09.265,-27.52
09.281,-27.82
09.296,-27.43
09.312,-26.62
09.328,-26.04
09.343,-26.32
09.359,-27.64
09.375,-29.63
09.390,-31.43
09.406,-32.1
09.421,-31.13
09.437,-28.48
09.453,-24.35
09.468,-18.96
09.484,-12.38
09.500,-5.06
09.515,1.94
09.531,6.76
09.546,7.51
09.562,3.29
09.578,-4.91
09.593,-14.22
09.609,-20.85
09.625,-21.67
09.640,-15.67
09.656,-4.19
09.671,9.86
09.687,23.38
09.703,34.29
09.718,41.86
09.734,46.38
09.750,48.49
09.765,48.61
09.781,46.87
09.796,43.44
09.812,38.83
09.828,33.85
09.843,29.39
09.859,26.05
09.875,23.86
09.890,22.36
09.906,20.79
09.921,18.44
09.937,14.91
09.953,10.23
09.968,4.78
09.984,-1.0
10.000,-6.72
10.015,-12.26
10.031,-17.51
10.046,-22.46
10.062,-26.96
10.078,-30.84
10.093,-34.1
10.109,-36.97
10.125,-39.95
10.140,-43.47
10.156,-47.78
10.171,-52.48
10.187,-56.57
10.203,-58.6
10.218,-57.06
10.234,-50.72
10.250,-38.87
10.265,-21.65
10.281,-0.28
10.296,22.7
10.312,43.98
10.328,60.13
10.343,68.87
10.359,69.83
10.375,64.74
10.390,56.63
10.406,48.5
10.421,42.35
10.437,38.6
10.453,36.61
10.468,35.47
10.484,34.65
10.500,34.19
10.515,34.31
10.531,35.11
10.546,36.34
10.562,37.66
10.578,38.9
10.593,40.24
10.609,42.06
10.625,44.68
10.640,48.21
10.656,52.31
10.671,56.38
10.687,59.67
10.703,61.51
10.718,61.51
10.734,59.71
10.750,56.53
10.765,52.75
10.781,49.13
10.796,46.16
10.812,43.91
10.828,42.19
10.843,40.58
10.859,38.73
10.875,36.45
10.890,33.76
10.906,30.87
10.921,28.06
10.937,25.55
10.953,23.48
10.968,21.87
10.984,20.54
11.000,19.26
11.015,17.73
11.031,15.89
11.046,13.93
11.062,12.28
11.078,11.35
11.093,11.18
11.109,11.25
11.125,10.6
11.140,8.23
11.156,3.42
11.171,-3.8
11.187,-12.72
11.203,-22.11
11.218,-30.76
11.234,-37.77
11.250,-42.89
11.265,-46.3
11.281,-48.43
11.296,-49.74
11.312,-50.65
11.328,-51.49
11.343,-52.52
11.359,-53.81
11.375,-55.04
11.390,-55.52
11.406,-54.25
11.421,-50.23
11.437,-42.97
11.453,-32.69
11.468,-20.37
11.484,-7.41
11.500,4.87
11.515,15.55
11.531,24.29
11.546,31.02
11.562,35.77
11.578,38.44
11.593,38.97
11.609,37.47
11.625,34.36
11.640,30.38
11.656,26.34
11.671,22.97
11.687,20.71
11.703,19.82
11.718,20.31
11.734,22.09
11.750,24.82
11.765,27.93
11.781,30.68
11.796,32.45
11.812,32.97
11.828,32.42
11.843,31.33
11.859,30.11
11.875,28.97
11.890,27.64
11.906,25.6
11.921,22.44
11.937,18.05
11.953,12.76
11.968,7.18
11.984,2.0
12.000,-2.39
12.015,-5.9
12.031,-8.73
12.046,-11.23
12.062,-13.6
12.078,-15.85
12.093,-17.78
12.109,-19.2
12.125,-20.18
12.140,-21.08
12.156,-22.42
12.171,-24.53
12.187,-27.37
12.203,-30.45
12.218,-33.12
12.234,-34.92
12.250,-35.77
12.265,-36.04
12.281,-36.29
12.296,-36.97
12.312,-38.17
12.328,-39.73
12.343,-41.23
12.359,-42.35
12.375,-42.79
12.390,-42.35
12.406,-40.85
12.421,-38.17
12.437,-34.34
12.453,-29.63
12.468,-24.64
12.484,-20.09
12.500,-16.63
12.515,-14.48
12.531,-13.22
12.546,-11.91
12.562,-9.52
12.578,-5.21
12.593,1.28
12.609,9.7
12.625,19.53
12.640,30.15
12.656,40.97
12.671,51.43
12.687,60.87
12.703,68.53
12.718,73.68
12.734,75.93
12.750,75.41
12.765,72.75
12.781,68.84
12.796,64.43
12.812,59.87
12.828,55.14
12.843,50.01
12.859,44.28
12.875,38.03
12.890,31.62
12.906,25.59
12.921,20.42
12.937,16.37
12.953,13.4
12.968,11.23
12.984,9.48
13.000,7.67
13.015,5.39
13.031,2.22
13.046,-2.09
13.062,-7.53
13.078,-13.76
13.093,-20.0
13.109,-25.2
13.125,-28.31
13.140,-28.63
13.156,-26.04
13.171,-21.19
13.187,-15.18
13.203,-9.29
13.218,-4.55
13.234,-1.49
13.250,-0.22
13.265,-0.58
13.281,-2.32
13.296,-5.08
13.312,-8.45
13.328,-11.81
13.343,-14.33
13.359,-15.29
13.375,-14.29
13.390,-11.52
13.406,-7.72
13.421,-3.94
13.437,-1.19
13.453,-0.14
13.468,-0.97
13.484,-3.42
13.500,-7.08
13.515,-11.56
13.531,-16.66
13.546,-22.33
13.562,-28.64
13.578,-35.7
13.593,-43.54
13.609,-52.06
13.625,-60.94
13.640,-69.64
13.656,-77.17
13.671,-82.34
13.687,-83.87
13.703,-80.87
13.718,-73.21
13.734,-61.56
13.750,-47.39
13.765,-32.37
13.781,-18.05
13.796,-5.41
13.812,5.1
13.828,13.41
13.843,19.75
13.859,24.32
13.875,27.45
13.890,29.54
13.906,31.11
13.921,32.68
13.937,34.58
13.953,37.01
13.968,40.05
13.984,43.9
14.000,48.78
14.015,54.87
14.031,61.93
14.046,69.05
14.062,74.79
14.078,77.4
14.093,75.48
14.109,68.35
14.125,56.34
14.140,40.42
14.156,22.0
14.171,2.52
14.187,-16.65
14.203,-34.04
14.218,-48.21
14.234,-57.78
14.250,-61.87
14.265,-60.4
14.281,-54.32
14.296,-45.3
14.312,-35.2
14.328,-25.56
14.343,-16.97
14.359,-9.26
14.375,-1.7
14.390,6.4
14.406,15.26
14.421,24.55
14.437,33.48
14.453,41.35
14.468,47.66
14.484,52.53
14.500,56.28
14.515,59.31
14.531,61.75
14.546,63.28
14.562,63.37
14.578,61.43
14.593,57.29
14.609,51.2
14.625,43.92
14.640,36.33
14.656,29.16
14.671,22.73
14.687,16.96
14.703,11.52
14.718,6.01
14.734,0.31
14.750,-5.52
14.765,-11.1
14.781,-16.1
14.796,-20.22
14.812,-23.3
14.828,-25.33
14.843,-26.29
14.859,-26.22
14.875,-25.19
14.890,-23.4
14.906,-21.14
14.921,-18.88
14.937,-17.11
14.953,-16.25
14.968,-16.54
14.984,-17.91
15.000,-20.09
15.015,-22.55
15.031,-24.77
15.046,-26.25
15.062,-26.63
15.078,-25.77
15.093,-23.76
15.109,-20.93
15.125,-17.84
15.140,-15.11
15.156,-13.27
15.171,-12.67
15.187,-13.25
15.203,-14.71
15.218,-16.56
15.234,-18.38
15.250,-19.99
15.265,-21.39
15.281,-22.8
15.296,-24.46
15.312,-26.62
15.328,-29.31
15.343,-32.26
15.359,-34.98
15.375,-36.72
15.390,-36.72
15.406,-34.39
15.421,-29.62
15.437,-22.77
15.453,-14.71
15.468,-6.44
15.484,1.14
15.500,7.49
15.515,12.41
15.531,15.88
15.546,18.0
15.562,18.9
15.578,18.67
15.593,17.53
15.609,15.78
15.625,13.79
15.640,11.92
15.656,10.47
15.671,9.48
15.687,8.86
15.703,8.3
15.718,7.4
15.734,5.78
15.750,3.21
15.765,-0.32
15.781,-4.52
15.796,-8.85
15.812,-12.82
15.828,-16.06
15.843,-18.54
15.859,-20.48
15.875,-22.3
15.890,-24.51
15.906,-27.57
15.921,-31.77
15.937,-37.08
15.953,-43.01
15.968,-48.52
15.984,-52.22
16.000,-52.68
16.015,-48.83
16.031,-40.39
16.046,-28.04
16.062,-13.16
16.078,2.53
16.093,17.5
16.109,30.7
16.125,41.65
16.140,50.36
16.156,57.16
16.171,62.43
16.187,66.49
16.203,69.45
16.218,71.24
16.234,71.72
16.250,70.88
16.265,68.96
16.281,66.59
16.296,64.65
16.312,64.04
16.328,65.3
16.343,68.44
16.359,72.8
16.375,77.29
16.390,80.69
16.406,82.0
16.421,80.73
16.437,77.02
16.453,71.56
16.468,65.38
16.484,59.6
16.500,55.06
16.515,52.27
16.531,51.3
16.546,51.83
16.562,53.21
16.578,54.63
16.593,55.26
16.609,54.41
16.625,51.84
16.640,47.66
16.656,42.4
16.671,36.81
16.687,31.69
16.703,27.67
16.718,25.1
16.734,23.96
16.750,23.83
16.765,23.95
16.781,23.39
16.796,21.22
16.812,16.83
16.828,10.07
16.843,1.23
16.859,-8.99
16.875,-20.05
16.890,-31.7
16.906,-44.06
16.921,-57.46
16.937,-72.03
16.953,-87.49
16.968,-103.13
16.984,-117.94
17.000,-130.95
17.015,-141.56
17.031,-149.59
17.046,-155.2
17.062,-158.63
17.078,-160.16
17.093,-160.03
17.109,-158.6
17.125,-156.26
17.140,-153.28
17.156,-149.64
17.171,-144.94
17.187,-138.39
17.203,-129.24
17.218,-117.01
17.234,-101.78
17.250,-84.39
17.265,-66.16
17.281,-48.59
17.296,-32.98
17.312,-20.11
17.328,-10.03
17.343,-2.22
17.359,4.26
17.375,10.46
17.390,17.04
17.406,23.98
17.421,30.5
17.437,35.25
17.453,36.74
17.468,33.88
17.484,26.15
17.500,13.89
17.515,-1.86
17.531,-19.47
17.546,-36.93
17.562,-52.16
17.578,-63.67
17.593,-71.06
17.609,-75.59
17.625,-79.86
17.640,-86.82
17.656,-98.3
17.671,-113.89
17.687,-130.82
17.703,-144.94
17.718,-152.4
17.734,-150.98
17.750,-140.72
17.765,-123.37
17.781,-101.37
17.796,-77.05
17.812,-52.18
17.828,-28.14
17.843,-6.32
17.859,11.81
17.875,25.01
17.890,32.55
17.906,34.63
17.921,32.25
17.937,27.04
17.953,20.79
17.968,15.21
17.984,11.41
18.000,9.88
18.015,10.31
18.031,11.97
18.046,14.04
18.062,16.13
18.078,18.45
18.093,21.71
18.109,26.76
18.125,33.98
18.140,43.02
18.156,52.66
18.171,61.14
18.187,66.63
18.203,67.88
18.218,64.47
18.234,56.89
18.250,46.25
18.265,33.9
18.281,21.13
18.296,9.03
18.312,-1.39
18.328,-9.21
18.343,-13.53
18.359,-13.82
18.375,-10.26
18.390,-4.01
18.406,2.72
18.421,7.18
18.437,6.81
18.453,0.16
18.468,-12.64
18.484,-29.7
18.500,-47.94
18.515,-63.92
18.531,-74.7
18.546,-78.22
18.562,-73.51
18.578,-60.57
18.593,-40.56
18.609,-15.75
18.625,10.7
18.640,35.38
18.656,55.59
18.671,70.14
18.687,79.67
18.703,85.93
18.718,90.87
18.734,95.41
18.750,99.2
18.765,101.12
18.781,100.32
18.796,97.13
18.812,93.24
18.828,91.0
18.843,92.18
18.859,96.95
18.875,103.47
18.890,108.7
18.906,109.55
18.921,104.35
18.937,93.38
18.953,78.81
18.968,63.38
18.984,49.16
19.000,36.88
19.015,25.97
19.031,15.42
19.046,4.74
19.062,-5.64
19.078,-14.65
19.093,-21.29
19.109,-25.43
19.125,-27.75
19.140,-29.36
19.156,-31.1
19.171,-33.18
19.187,-34.91
19.203,-35.44
19.218,-34.14
19.234,-31.08
19.250,-27.12
19.265,-23.64
19.281,-21.93
19.296,-22.78
19.312,-26.31
19.328,-31.72
19.343,-37.53
19.359,-41.68
19.375,-42.13
19.390,-37.48
19.406,-27.7
19.421,-14.29
19.437,0.28
19.453,13.44
19.468,23.56
19.484,30.39
19.500,34.84
19.515,38.12
19.531,41.03
19.546,43.63
19.562,45.54
19.578,46.43
19.593,46.45
19.609,46.08
19.625,45.85
19.640,45.93
19.656,46.11
19.671,45.99
19.687,45.4
19.703,44.53
19.718,43.82
19.734,43.81
19.750,44.92
19.765,47.31
19.781,50.78
19.796,54.94
19.812,59.2
19.828,62.89
19.843,65.45
19.859,66.64
19.875,66.65
19.890,66.03
19.906,65.46
19.921,65.41
19.937,66.0
19.953,67.01
19.968,67.97
19.984,68.51
20.000,68.41
20.015,67.54
20.031,65.82
20.046,63.09
20.062,59.17
20.078,54.05
20.093,47.92
20.109,41.11
20.125,34.07
20.140,27.06
20.156,20.16
20.171,13.22
20.187,6.04
20.203,-1.58
20.218,-9.85
20.234,-18.92
20.250,-29.03
20.265,-40.21
20.281,-52.27
20.296,-64.62
20.312,-76.4
20.328,-86.82
20.343,-95.4
20.359,-102.18
20.375,-107.5
20.390,-111.56
20.406,-113.99
20.421,-113.75
20.437,-109.49
20.453,-100.13
20.468,-85.56
20.484,-66.83
20.500,-46.0
20.515,-25.48
20.531,-7.27
20.546,7.44
20.562,18.35
20.578,25.89
20.593,30.67
20.609,33.21
20.625,33.84
20.640,32.79
20.656,30.43
20.671,27.38
20.687,24.32
20.703,21.8
20.718,20.09
20.734,19.16
20.750,18.75
20.765,18.76
20.781,19.11
20.796,19.89
20.812,21.06
20.828,22.23
20.843,22.7
20.859,21.55
20.875,18.04
20.890,11.81
20.906,3.06
20.921,-7.41
20.937,-18.48
20.953,-28.99
20.968,-38.07
20.984,-45.2
21.000,-50.27
21.015,-53.45
21.031,-54.9
21.046,-54.75
21.062,-53.11
21.078,-50.11
21.093,-46.01
21.109,-41.22
21.125,-36.12
21.140,-30.98
21.156,-25.97
21.171,-21.09
21.187,-16.37
21.203,-11.96
21.218,-8.14
21.234,-5.18
21.250,-3.27
21.265,-2.31
21.281,-2.01
21.296,-2.03
21.312,-2.08
21.328,-2.07
21.343,-2.13
21.359,-2.56
21.375,-3.57
21.390,-5.2
21.406,-7.16
21.421,-9.01
21.437,-10.29
21.453,-10.66
21.468,-10.16
21.484,-9.11
21.500,-8.06
21.515,-7.61
21.531,-8.19
21.546,-9.9
21.562,-12.46
21.578,-15.14
21.593,-16.83
21.609,-16.38
21.625,-12.91
21.640,-6.1
21.656,3.66
21.671,15.3
21.687,27.3
21.703,38.05
21.718,46.16
21.734,50.77
21.750,51.73
21.765,49.58
21.781,45.4
21.796,40.45
21.812,35.83
21.828,32.22
21.843,29.75
21.859,28.11
21.875,26.72
21.890,25.05
21.906,22.71
21.921,19.58
21.937,15.71
21.953,11.23
21.968,6.41
21.984,1.6
22.000,-2.86
22.015,-6.68
22.031,-9.68
22.046,-11.91
22.062,-13.66
22.078,-15.35
22.093,-17.45
22.109,-20.17
22.125,-23.36
22.140,-26.46
22.156,-28.74
22.171,-29.39
22.187,-28.06
22.203,-24.88
22.218,-20.41
22.234,-15.56
22.250,-11.08
22.265,-7.45
22.281,-4.89
22.296,-3.31
22.312,-2.49
22.328,-2.34
22.343,-2.77
22.359,-3.68
22.375,-4.9
22.390,-6.12
22.406,-7.07
22.421,-7.59
22.437,-7.67
22.453,-7.42
22.468,-7.04
22.484,-6.65
22.500,-6.27
22.515,-5.91
22.531,-5.54
22.546,-5.09
22.562,-4.61
22.578,-4.19
22.593,-3.95
22.609,-4.17
22.625,-5.06
22.640,-6.59
22.656,-8.59
22.671,-10.46
22.687,-11.42
22.703,-10.8
22.718,-8.2
22.734,-3.74
22.750,1.99
22.765,8.19
22.781,14.08
22.796,19.01
22.812,22.65
22.828,24.94
22.843,25.93
22.859,25.81
22.875,24.77
22.890,23.05
22.906,20.96
22.921,18.84
22.937,16.94
22.953,15.44
22.968,14.39
22.984,13.64
23.000,13.01
23.015,12.28
23.031,11.27
23.046,9.91
23.062,8.28
23.078,6.43
23.093,4.44
23.109,2.33
23.125,-0.01
23.140,-2.68
23.156,-5.78
23.171,-9.32
23.187,-13.11
23.203,-16.75
23.218,-19.7
23.234,-21.39
23.250,-21.41
23.265,-19.7
23.281,-16.46
23.296,-12.18
23.312,-7.46
23.328,-2.78
23.343,1.52
23.359,5.19
23.375,8.14
23.390,10.31
23.406,11.66
23.421,12.23
23.437,12.21
23.453,11.83
23.468,11.47
23.484,11.4
23.500,11.68
23.515,12.25
23.531,12.8
23.546,13.04
23.562,12.77
23.578,11.98
23.593,10.86
23.609,9.64
23.625,8.57
23.640,7.77
23.656,7.33
23.671,7.18
23.687,7.27
23.703,7.57
23.718,8.05
23.734,8.7
23.750,9.53
23.765,10.55
23.781,11.79
23.796,13.34
23.812,15.16
23.828,17.16
23.843,19.12
23.859,20.6
23.875,21.13
23.890,20.43
23.906,18.54
23.921,15.86
23.937,13.06
23.953,10.73
23.968,9.24
23.984,8.67
24.000,8.76
24.015,9.21
24.031,9.79
24.046,10.38
24.062,10.93
24.078,11.43
24.093,11.78
24.109,11.88
24.125,11.68
24.140,11.13
24.156,10.29
24.171,9.21
24.187,7.98
24.203,6.64
24.218,5.26
24.234,3.78
24.250,2.2
24.265,0.55
24.281,-1.11
24.296,-2.64
24.312,-3.91
24.328,-4.91
24.343,-5.8
24.359,-6.76
24.375,-7.94
24.390,-9.23
24.406,-10.17
24.421,-10.12
24.437,-8.42
24.453,-4.76
24.468,0.79
24.484,7.67
24.500,15.13
24.515,22.42
24.531,28.9
24.546,34.19
24.562,38.06
24.578,40.51
24.593,41.6
24.609,41.56
24.625,40.71
24.640,39.47
24.656,38.21
24.671,37.26
24.687,36.77
24.703,36.76
24.718,37.07
24.734,37.38
24.750,37.38
24.765,36.75
24.781,35.4
24.796,33.34
24.812,30.74
24.828,27.84
24.843,24.75
24.859,21.36
24.875,17.41
24.890,12.56
24.906,6.55
24.921,-0.68
24.937,-8.97
24.953,-17.89
24.968,-26.81
24.984,-34.97
25.000,-41.79
25.015,-46.89
25.031,-50.27
25.046,-52.35
25.062,-53.76
25.078,-55.18
25.093,-57.09
25.109,-59.68
25.125,-62.83
25.140,-66.3
25.156,-69.82
25.171,-73.17
25.187,-76.14
25.203,-78.43
25.218,-79.62
25.234,-79.3
25.250,-77.16
25.265,-73.16
25.281,-67.66
25.296,-61.24
25.312,-54.63
25.328,-48.54
25.343,-43.42
25.359,-39.49
25.375,-36.68
25.390,-34.74
25.406,-33.37
25.421,-32.31
25.437,-31.49
25.453,-30.94
25.468,-30.87
25.484,-31.46
25.500,-32.86
25.515,-35.04
25.531,-37.73
25.546,-40.51
25.562,-42.74
25.578,-43.9
25.593,-43.6
25.609,-41.83
25.625,-38.81
25.640,-35.02
25.656,-30.9
25.671,-26.67
25.687,-22.29
25.703,-17.51
25.718,-12.06
25.734,-5.76
25.750,1.32
25.765,8.96
25.781,16.8
25.796,24.47
25.812,31.74
25.828,38.42
25.843,44.27
25.859,48.99
25.875,52.17
25.890,53.44
25.906,52.68
25.921,50.06
25.937,46.11
25.953,41.61
25.968,37.29
25.984,33.63
26.000,30.76
26.015,28.62
26.031,26.8
26.046,24.58
26.062,21.16
26.078,16.02
26.093,9.4
26.109,2.3
26.125,-3.72
26.140,-7.15
26.156,-7.1
26.171,-3.83
26.187,1.34
26.203,6.84
26.218,11.67
26.234,15.88
26.250,20.36
26.265,26.0
26.281,33.02
26.296,40.88
26.312,48.18
26.328,53.34
26.343,55.42
26.359,54.64
26.375,52.25
26.390,49.74
26.406,48.09
26.421,47.44
26.437,47.97
26.453,48.9
26.468,48.96
26.484,47.04
26.500,43.07
26.515,38.16
26.531,33.91
26.546,31.73
26.562,32.34
26.578,37.51
26.593,47.24
26.609,59.55
26.625,71.41
26.640,80.4
26.656,85.7
26.671,87.83
26.687,88.16
26.703,88.44
26.718,93.61
26.734,106.59
26.750,127.5
26.765,154.07
26.781,183.78
26.796,214.82
26.812,245.87
26.828,276.09
26.843,304.94
26.859,335.83
26.875,369.12
26.890,400.28
26.906,420.95
26.921,423.09
26.937,402.66
26.953,360.71
26.968,303.62
26.984,215.24
27.000,98.33
27.015,-28.26
27.031,-139.55
27.046,-220.01
27.062,-268.14
27.078,-290.16
27.093,-293.82
27.109,-284.89
27.125,-267.67
27.140,-241.94
27.156,-209.31
27.171,-173.8
27.187,-140.48
27.203,-112.6
27.218,-88.95
27.234,-69.47
27.250,-54.11
27.265,-43.56
27.281,-36.21
27.296,-32.5
27.312,-34.86
27.328,-46.34
27.343,-68.89
27.359,-98.74
27.375,-131.06
27.390,-161.3
27.406,-186.45
27.421,-203.31
27.437,-211.06
27.453,-211.29
27.468,-206.87
27.484,-199.85
27.500,-191.38
27.515,-182.28
27.531,-172.82
27.546,-163.16
27.562,-152.83
27.578,-142.0
27.593,-131.57
27.609,-122.8
27.625,-115.93
27.640,-110.94
27.656,-107.77
27.671,-106.2
27.687,-105.91
27.703,-106.65
27.718,-108.44
27.734,-111.32
27.750,-117.29
27.765,-123.55
27.781,-127.17
27.796,-125.14
27.812,-114.88
27.828,-94.78
27.843,-64.97
27.859,-27.4
27.875,14.55
27.890,56.76
27.906,95.7
27.921,128.18
27.937,152.05
27.953,165.94
27.968,169.16
27.984,161.22
28.000,142.04
28.015,112.61
28.031,75.28
28.046,33.35
28.062,-10.4
28.078,-53.35
28.093,-92.57
28.109,-124.14
28.125,-143.37
28.140,-145.97
28.156,-130.22
28.171,-99.05
28.187,-59.42
28.203,-20.71
28.218,8.96
28.234,25.6
28.250,30.02
28.265,26.31
28.281,19.23
28.296,11.92
28.312,5.0
28.328,-2.12
28.343,-10.05
28.359,-18.31
28.375,-25.67
28.390,-31.13
28.406,-34.78
28.421,-37.61
28.437,-41.24
28.453,-47.05
28.468,-55.08
28.484,-64.06
28.500,-71.83
28.515,-76.21
28.531,-75.71
28.546,-70.83
28.562,-61.86
28.578,-50.12
28.593,-37.16
28.609,-24.13
28.625,-11.65
28.640,0.12
28.656,11.2
28.671,21.36
28.687,30.13
28.703,37.02
28.718,41.41
28.734,43.03
28.750,42.11
28.765,39.31
28.781,35.56
28.796,31.85
28.812,28.83
28.828,26.77
28.843,25.72
28.859,25.28
28.875,24.99
28.890,24.43
28.906,23.21
28.921,21.29
28.937,18.86
28.953,16.26
28.968,13.81
28.984,11.86
29.000,10.41
29.015,9.27
29.031,8.03
29.046,6.22
29.062,3.74
29.078,0.8
29.093,-2.15
29.109,-4.51
29.125,-5.67
29.140,-5.45
29.156,-4.06
29.171,-2.1
29.187,-0.28
29.203,1.14
29.218,2.18
29.234,3.19
29.250,4.8
29.265,7.96
29.281,13.86
29.296,23.84
29.312,39.08
29.328,57.66
29.343,77.15
29.359,93.93
29.375,103.89
29.390,103.77
29.406,92.39
29.421,71.19
29.437,43.75
29.453,14.6
29.468,-12.15
29.484,-33.19
29.500,-46.68
29.515,-52.16
29.531,-50.28
29.546,-42.75
29.562,-32.24
29.578,-21.87
29.593,-14.49
29.609,-11.96
29.625,-14.29
29.640,-20.05
29.656,-26.91
29.671,-32.28
29.687,-34.08
29.703,-31.33
29.718,-24.53
29.734,-15.54
29.750,-7.06
29.765,-1.62
29.781,-0.7
29.796,-4.22
29.812,-10.53
29.828,-17.13
29.843,-21.73
29.859,-23.06
29.875,-21.1
29.890,-16.85
29.906,-11.65
29.921,-6.71
29.937,-2.79
29.953,-0.17
29.968,1.22
29.984,1.53
30.000,1.0
30.015,-0.11
30.031,-1.45
30.046,-2.59
30.062,-3.16
30.078,-3.02
30.093,-2.35
30.109,-1.53
30.125,-1.08
30.140,-1.35
30.156,-2.32
30.171,-3.52
30.187,-4.11
30.203,-2.98
30.218,0.95
30.234,8.41
30.250,19.42
30.265,32.83
30.281,46.39
30.296,57.28
30.312,63.08
30.328,62.79
30.343,57.35
30.359,49.27
30.375,41.56
30.390,36.47
30.406,34.66
30.421,35.22
30.437,36.52
30.453,36.99
30.468,35.85
30.484,33.01
30.500,28.68
30.515,22.76
30.531,14.78
30.546,4.04
30.562,-9.75
30.578,-26.06
30.593,-43.52
30.609,-60.19
30.625,-74.23
30.640,-84.49
30.656,-90.78
30.671,-93.61
30.687,-93.72
30.703,-91.36
30.718,-85.95
30.734,-76.14
30.750,-60.56
30.765,-38.59
30.781,-11.04
30.796,19.85
30.812,50.91
30.828,78.87
30.843,100.94
30.859,115.27
30.875,121.0
30.890,118.18
30.906,107.82
30.921,91.84
30.937,72.84
30.953,53.81
30.968,37.38
30.984,25.29
31.000,18.11
31.015,15.3
31.031,15.67
31.046,17.87
31.062,20.75
31.078,23.47
31.093,25.49
31.109,26.49
31.125,26.35
31.140,25.22
31.156,23.34
31.171,21.0
31.187,18.4
31.203,15.49
31.218,12.01
31.234,7.64
31.250,2.17
31.265,-4.28
31.281,-11.16
31.296,-17.63
31.312,-22.74
31.328,-25.72
31.343,-26.29
31.359,-24.77
31.375,-21.92
31.390,-18.68
31.406,-15.91
31.421,-14.12
31.437,-13.51
31.453,-13.98
31.468,-15.38
31.484,-17.48
31.500,-20.0
31.515,-22.52
31.531,-24.52
31.546,-25.52
31.562,-25.24
31.578,-23.79
31.593,-21.67
31.609,-19.55
31.625,-18.05
31.640,-17.45
31.656,-17.55
31.671,-17.79
31.687,-17.41
31.703,-15.78
31.718,-12.69
31.734,-8.4
31.750,-3.52
31.765,1.2
31.781,5.09
31.796,7.68
31.812,8.83
31.828,8.68
31.843,7.66
31.859,6.48
31.875,5.94
31.890,6.78
31.906,9.42
31.921,13.82
31.937,19.32
31.953,24.98
31.968,29.77
31.984,32.92
32.000,34.07
32.015,33.2
32.031,30.54
32.046,26.42
32.062,21.29
32.078,15.73
32.093,10.54
32.109,6.59
32.125,4.6
32.140,4.82
32.156,6.91
32.171,9.92
32.187,12.61
32.203,13.8
32.218,12.81
32.234,9.59
32.250,4.71
32.265,-0.84
32.281,-6.04
32.296,-10.2
32.312,-13.1
32.328,-15.14
32.343,-17.04
32.359,-19.52
32.375,-22.96
32.390,-27.08
32.406,-31.01
32.421,-33.49
32.437,-33.28
32.453,-29.39
32.468,-21.33
32.484,-9.22
32.500,6.03
32.515,22.91
32.531,39.52
32.546,54.13
32.562,65.67
32.578,74.07
32.593,80.11
32.609,84.98
32.625,89.62
32.640,94.37
32.656,98.83
32.671,102.3
32.687,104.14
32.703,103.99
32.718,101.68
32.734,97.09
32.750,89.98
32.765,80.14
32.781,67.77
32.796,53.66
32.812,39.23
32.828,25.99
32.843,14.97
32.859,6.28
32.875,-0.78
32.890,-7.29
32.906,-13.95
32.921,-20.61
32.937,-26.39
32.953,-30.17
32.968,-31.31
32.984,-29.89
33.000,-26.61
33.015,-22.22
33.031,-17.07
33.046,-10.98
33.062,-3.57
33.078,5.34
33.093,15.42
33.109,25.95
33.125,36.21
33.140,45.81
33.156,54.67
33.171,62.82
33.187,70.06
33.203,75.87
33.218,79.52
33.234,80.51
33.250,78.9
33.265,75.2
33.281,70.06
33.296,63.75
33.312,55.92
33.328,45.79
33.343,32.58
33.359,16.03
33.375,-3.35
33.390,-24.37
33.406,-45.43
33.421,-65.05
33.437,-81.99
33.453,-95.42
33.468,-104.87
33.484,-110.24
33.500,-111.75
33.515,-109.88
33.531,-105.25
33.546,-98.5
33.562,-90.09
33.578,-80.39
33.593,-69.75
33.609,-58.65
33.625,-47.73
33.640,-37.73
33.656,-29.24
33.671,-22.58
33.687,-17.72
33.703,-14.19
33.718,-11.34
33.734,-8.46
33.750,-5.07
33.765,-1.11
33.781,3.05
33.796,6.74
33.812,9.24
33.828,10.17
33.843,9.63
33.859,8.08
33.875,6.06
33.890,3.84
33.906,1.32
33.921,-1.77
33.937,-5.62
33.953,-10.2
33.968,-15.29
33.984,-20.75
34.000,-26.78
34.015,-33.76
34.031,-41.96
34.046,-51.12
34.062,-60.12
34.078,-67.25
34.093,-70.67
34.109,-69.21
34.125,-62.9
34.140,-53.12
34.156,-42.15
34.171,-32.45
34.187,-25.94
34.203,-23.4
34.218,-24.43
34.234,-27.64
34.250,-31.24
34.265,-33.65
34.281,-34.0
34.296,-32.22
34.312,-29.05
34.328,-25.55
34.343,-22.74
34.359,-21.17
34.375,-20.82
34.390,-21.15
34.406,-21.45
34.421,-21.08
34.437,-19.77
34.453,-17.52
34.468,-14.54
34.484,-11.02
34.500,-7.13
34.515,-2.96
34.531,1.54
34.546,6.48
34.562,12.07
34.578,18.51
34.593,25.79
34.609,33.54
34.625,41.06
34.640,47.43
34.656,51.92
34.671,54.29
34.687,55.01
34.703,54.98
34.718,55.17
34.734,56.12
34.750,57.71
34.765,59.16
34.781,59.33
34.796,57.19
34.812,52.2
34.828,44.67
34.843,35.67
34.859,26.82
34.875,19.8
34.890,15.83
34.906,15.29
34.921,17.68
34.937,21.85
34.953,26.5
34.968,30.69
34.984,34.08
35.000,37.03
35.015,40.25
35.031,44.44
35.046,49.98
35.062,56.69
35.078,63.97
35.093,70.93
35.109,76.56
35.125,80.03
35.140,80.94
35.156,79.31
35.171,75.61
35.187,70.49
35.203,64.54
35.218,58.05
35.234,51.08
35.250,43.49
35.265,35.24
35.281,26.53
35.296,17.92
35.312,10.1
35.328,3.77
35.343,-0.65
35.359,-3.08
35.375,-3.87
35.390,-3.82
35.406,-4.08
35.421,-6.06
35.437,-10.82
35.453,-18.6
35.468,-28.25
35.484,-37.43
35.500,-43.28
35.515,-43.51
35.531,-37.49
35.546,-26.58
35.562,-13.76
35.578,-2.49
35.593,4.5
35.609,6.03
35.625,2.51
35.640,-4.66
35.656,-13.64
35.671,-22.69
35.687,-30.3
35.703,-35.28
35.718,-36.95
35.734,-35.33
35.750,-31.34
35.765,-26.54
35.781,-22.64
35.796,-20.77
35.812,-21.24
35.828,-23.74
35.843,-28.03
35.859,-34.49
35.875,-44.16
35.890,-57.92
35.906,-75.44
35.921,-94.57
35.937,-111.53
35.953,-122.35
35.968,-124.41
35.984,-117.63
36.000,-104.41
36.015,-88.5
36.031,-73.51
36.046,-61.67
36.062,-53.5
36.078,-48.22
36.093,-44.59
36.109,-41.51
36.125,-38.37
36.140,-35.04
36.156,-31.71
36.171,-28.83
36.187,-26.91
36.203,-26.49
36.218,-27.93
36.234,-31.26
36.250,-36.09
36.265,-41.74
36.281,-47.33
36.296,-51.99
36.312,-55.11
36.328,-56.21
36.343,-55.27
36.359,-52.59
36.375,-48.86
36.390,-44.97
36.406,-41.83
36.421,-40.1
36.437,-40.01
36.453,-41.33
36.468,-43.27
36.484,-44.73
36.500,-44.59
36.515,-42.03
36.531,-36.8
36.546,-29.35
36.562,-20.65
36.578,-11.84
36.593,-3.73
36.609,3.43
36.625,9.93
36.640,16.18
36.656,22.09
36.671,26.93
36.687,29.57
36.703,29.15
36.718,25.81
36.734,20.83
36.750,16.21
36.765,13.7
36.781,13.88
36.796,16.02
36.812,18.44
36.828,19.54
36.843,18.54
36.859,15.88
36.875,12.73
36.890,10.29
36.906,9.17
36.921,9.3
36.937,10.15
36.953,11.22
36.968,12.32
36.984,13.5
37.000,14.95
37.015,16.65
37.031,18.38
37.046,19.65
37.062,19.95
37.078,18.95
37.093,16.74
37.109,13.84
37.125,11.1
37.140,9.48
37.156,9.65
37.171,11.76
37.187,15.39
37.203,19.62
37.218,23.37
37.234,25.72
37.250,26.19
37.265,24.79
37.281,21.94
37.296,18.26
37.312,14.45
37.328,11.1
37.343,8.62
37.359,7.11
37.375,6.25
37.390,5.47
37.406,4.16
37.421,1.94
37.437,-1.05
37.453,-4.24
37.468,-6.79
37.484,-7.92
37.500,-7.26
37.515,-4.88
37.531,-1.2
37.546,3.17
37.562,7.67
37.578,11.87
37.593,15.48
37.609,18.4
37.625,20.63
37.640,22.33
37.656,23.74
37.671,25.09
37.687,26.55
37.703,28.09
37.718,29.53
37.734,30.54
37.750,30.78
37.765,29.97
37.781,28.07
37.796,25.31
37.812,22.22
37.828,19.43
37.843,17.57
37.859,17.05
37.875,17.84
37.890,19.54
37.906,21.49
37.921,23.01
37.937,23.51
37.953,22.65
37.968,20.24
37.984,16.27
38.000,10.92
38.015,4.53
38.031,-2.26
38.046,-8.6
38.062,-13.58
38.078,-16.37
38.093,-16.42
38.109,-13.58
38.125,-8.0
38.140,-0.19
38.156,9.16
38.171,19.22
38.187,29.0
38.203,37.45
38.218,43.62
38.234,46.73
38.250,46.43
38.265,42.83
38.281,36.48
38.296,28.26
38.312,19.14
38.328,10.05
38.343,1.87
38.359,-4.63
38.375,-8.79
38.390,-10.37
38.406,-9.8
38.421,-8.39
38.437,-8.13
38.453,-11.05
38.468,-18.41
38.484,-30.14
38.500,-44.69
38.515,-59.67
38.531,-72.81
38.546,-82.61
38.562,-88.62
38.578,-91.05
38.593,-90.17
38.609,-86.07
38.625,-78.77
38.640,-68.67
38.656,-56.75
38.671,-44.46
38.687,-33.21
38.703,-23.79
38.718,-16.09
38.734,-9.36
38.750,-2.74
38.765,4.22
38.781,11.36
38.796,18.14
38.812,24.0
38.828,28.76
38.843,32.6
38.859,35.86
38.875,38.73
38.890,41.08
38.906,42.54
38.921,42.69
38.937,41.36
38.953,38.72
38.968,35.35
38.984,32.03
39.000,29.44
39.015,27.95
39.031,27.47
39.046,27.36
39.062,26.7
39.078,24.58
39.093,20.5
39.109,14.74
39.125,8.29
39.140,2.54
39.156,-1.24
39.171,-2.44
39.187,-1.29
39.203,1.25
39.218,3.85
39.234,5.32
39.250,5.09
39.265,3.28
39.281,0.76
39.296,-1.21
39.312,-1.48
39.328,0.61
39.343,5.02
39.359,11.03
39.375,17.49
39.390,23.33
39.406,27.83
39.421,30.82
39.437,32.65
39.453,33.83
39.468,34.78
39.484,35.63
39.500,36.11
39.515,35.72
39.531,33.9
39.546,30.36
39.562,25.16
39.578,18.81
39.593,12.1
39.609,5.87
39.625,0.78
39.640,-2.79
39.656,-4.62
39.671,-4.61
39.687,-2.72
39.703,0.87
39.718,5.63
39.734,10.63
39.750,14.78
39.765,17.2
39.781,17.57
39.796,16.27
39.812,14.05
39.828,11.52
39.843,8.91
39.859,6.04
39.875,2.64
39.890,-1.31
39.906,-5.44
39.921,-9.11
39.937,-11.73
39.953,-12.98
39.968,-12.94
39.984,-11.79
40.000,-9.74
40.015,-6.94
40.031,-3.62
40.046,-0.22
40.062,2.64
40.078,4.24
40.093,4.09
40.109,2.03
40.125,-1.68
40.140,-6.55
40.156,-12.02
40.171,-17.56
40.187,-22.78
40.203,-27.44
40.218,-31.35
40.234,-34.46
40.250,-36.69
40.265,-38.04
40.281,-38.48
40.296,-37.97
40.312,-36.51
40.328,-34.13
40.343,-30.98
40.359,-27.42
40.375,-23.92
40.390,-20.96
40.406,-18.82
40.421,-17.47
40.437,-16.57
40.453,-15.58
40.468,-14.18
40.484,-12.47
40.500,-11.0
40.515,-10.55
40.531,-11.72
40.546,-14.56
40.562,-18.56
40.578,-22.78
40.593,-26.27
40.609,-28.43
40.625,-29.19
40.640,-28.92
40.656,-28.2
40.671,-27.5
40.687,-26.99
40.703,-26.48
40.718,-25.5
40.734,-23.49
40.750,-20.09
40.765,-15.34
40.781,-9.76
40.796,-4.3
40.812,0.01
40.828,2.38
40.843,2.61
40.859,1.2
40.875,-0.88
40.890,-2.73
40.906,-3.95
40.921,-5.0
40.937,-7.06
40.953,-11.37
40.968,-18.54
40.984,-28.07
41.000,-38.33
41.015,-47.04
41.031,-52.25
41.046,-53.05
41.062,-49.89
41.078,-44.41
41.093,-38.6
41.109,-34.19
41.125,-32.15
41.140,-32.59
41.156,-35.05
41.171,-38.81
41.187,-43.15
41.203,-47.27
41.218,-50.31
41.234,-51.17
41.250,-48.7
41.265,-41.95
41.281,-30.57
41.296,-15.11
41.312,2.89
41.328,21.22
41.343,37.49
41.359,49.66
41.375,56.65
41.390,58.4
41.406,55.81
41.421,50.41
41.437,43.91
41.453,37.76
41.468,33.03
41.484,30.29
41.500,29.47
41.515,29.98
41.531,30.67
41.546,29.98
41.562,26.46
41.578,19.29
41.593,8.79
41.609,-3.36
41.625,-14.62
41.640,-22.61
41.656,-26.17
41.671,-26.02
41.687,-24.58
41.703,-24.83
41.718,-28.79
41.734,-36.48
41.750,-45.76
41.765,-53.33
41.781,-56.28
41.796,-53.29
41.812,-45.1
41.828,-33.98
41.843,-22.42
41.859,-12.22
41.875,-3.97
41.890,2.6
41.906,8.03
41.921,12.55
41.937,15.98
41.953,17.99
41.968,18.49
41.984,17.82
42.000,16.64
42.015,15.52
42.031,14.59
42.046,13.5
42.062,11.55
42.078,8.23
42.093,3.45
42.109,-2.26
42.125,-7.93
42.140,-12.56
42.156,-15.46
42.171,-16.54
42.187,-16.22
42.203,-15.28
42.218,-14.35
42.234,-13.68
42.250,-12.95
42.265,-11.25
42.281,-7.37
42.296,-0.25
42.312,10.59
42.328,24.63
42.343,40.28
42.359,55.3
42.375,67.51
42.390,75.46
42.406,78.91
42.421,78.8
42.437,76.76
42.453,74.39
42.468,72.62
42.484,71.46
42.500,70.28
42.515,68.27
42.531,64.77
42.546,59.55
42.562,52.74
42.578,44.71
42.593,35.81
42.609,26.51
42.625,17.36
42.640,8.89
42.656,1.41
42.671,-5.29
42.687,-12.04
42.703,-20.03
42.718,-30.02
42.734,-41.77
42.750,-53.57
42.765,-62.74
42.781,-66.68
42.796,-64.16
42.812,-56.05
42.828,-45.08
42.843,-34.66
42.859,-27.49
42.875,-24.49
42.890,-24.74
42.906,-26.29
42.921,-27.27
42.937,-26.73
42.953,-24.77
42.968,-22.18
42.984,-19.79
43.000,-18.0
43.015,-16.74
43.031,-15.68
43.046,-14.62
43.062,-13.69
43.078,-13.21
43.093,-13.54
43.109,-14.8
43.125,-16.71
43.140,-18.81
43.156,-20.83
43.171,-22.95
43.187,-25.9
43.203,-30.54
43.218,-37.32
43.234,-45.63
43.250,-53.75
43.265,-59.24
43.281,-60.0
43.296,-55.15
43.312,-45.58
43.328,-33.61
43.343,-22.08
43.359,-13.19
43.375,-7.73
43.390,-4.96
43.406,-3.13
43.421,-0.42
43.437,4.32
43.453,11.13
43.468,19.09
43.484,26.79
43.500,33.0
43.515,37.06
43.531,39.04
43.546,39.52
43.562,39.13
43.578,38.22
43.593,36.69
43.609,34.22
43.625,30.45
43.640,25.23
43.656,18.67
43.671,10.95
43.687,2.17
43.703,-7.51
43.718,-17.62
43.734,-26.97
43.750,-33.69
43.765,-35.82
43.781,-32.24
43.796,-23.42
43.812,-11.67
43.828,-0.16
43.843,8.36
43.859,12.82
43.875,14.19
43.890,14.83
43.906,17.02
43.921,21.58
43.937,27.54
43.953,32.63
43.968,34.76
43.984,33.12
44.000,28.61
44.015,23.29
44.031,19.28
44.046,17.8
44.062,18.84
44.078,21.43
44.093,24.33
44.109,26.68
44.125,28.15
44.140,28.76
44.156,28.55
44.171,27.2
44.187,24.25
44.203,19.41
44.218,12.98
44.234,5.94
44.250,-0.22
44.265,-3.99
44.281,-4.47
44.296,-1.69
44.312,3.3
44.328,8.94
44.343,13.78
44.359,17.04
44.375,18.76
44.390,19.65
44.406,20.51
44.421,21.67
44.437,22.83
44.453,22.99
44.468,21.01
44.484,16.06
44.500,8.05
44.515,-2.14
44.531,-12.85
44.546,-22.15
44.562,-28.43
44.578,-30.98
44.593,-30.14
44.609,-27.22
44.625,-23.79
44.640,-21.15
44.656,-19.83
44.671,-19.75
44.687,-20.54
44.703,-22.07
44.718,-24.51
44.734,-27.97
44.750,-32.12
44.765,-35.86
44.781,-37.59
44.796,-35.85
44.812,-30.16
44.828,-21.19
44.843,-10.6
44.859,-0.38
44.875,7.84
44.890,13.09
44.906,15.08
44.921,14.03
44.937,10.48
44.953,5.28
44.968,-0.49
44.984,-5.6
45.000,-8.98
45.015,-9.91
45.031,-8.26
45.046,-4.51
45.062,0.38
45.078,5.16
45.093,8.68
45.109,10.08
45.125,9.07
45.140,5.94
45.156,1.43
45.171,-3.56
45.187,-8.38
45.203,-12.85
45.218,-17.21
45.234,-21.71
45.250,-26.16
45.265,-29.72
45.281,-31.03
45.296,-28.65
45.312,-21.81
45.328,-10.8
45.343,3.0
45.359,17.51
45.375,30.52
45.390,40.47
45.406,46.66
45.421,49.19
45.437,48.65
45.453,45.71
45.468,41.05
45.484,35.23
45.500,28.98
45.515,23.24
45.531,19.07
45.546,17.3
45.562,18.14
45.578,20.89
45.593,24.1
45.609,26.19
45.625,26.09
45.640,23.86
45.656,20.64
45.671,18.0
45.687,17.0
45.703,17.63
45.718,18.85
45.734,19.4
45.750,18.67
45.765,17.39
45.781,17.27
45.796,20.27
45.812,27.43
45.828,38.31
45.843,51.07
45.859,63.23
45.875,72.54
45.890,77.69
45.906,78.46
45.921,75.51
45.937,69.92
45.953,62.78
45.968,54.88
45.984,46.67
46.000,38.21
46.015,29.34
46.031,19.75
46.046,9.23
46.062,-2.3
46.078,-14.61
46.093,-27.0
46.109,-38.39
46.125,-47.42
46.140,-52.81
46.156,-53.94
46.171,-51.36
46.187,-46.87
46.203,-43.1
46.218,-42.5
46.234,-46.12
46.250,-53.0
46.265,-60.3
46.281,-64.38
46.296,-62.15
46.312,-52.31
46.328,-35.64
46.343,-14.48
46.359,8.34
46.375,30.42
46.390,50.15
46.406,66.65
46.421,79.29
46.437,87.49
46.453,90.79
46.468,89.1
46.484,82.97
46.500,73.56
46.515,62.32
46.531,50.51
46.546,38.93
46.562,27.79
46.578,17.04
46.593,6.54
46.609,-3.55
46.625,-12.74
46.640,-20.3
46.656,-25.6
46.671,-28.42
46.687,-29.32
46.703,-29.75
46.718,-31.63
46.734,-36.71
46.750,-45.72
46.765,-57.75
46.781,-70.21
46.796,-79.56
46.812,-82.44
46.828,-76.77
46.843,-62.63
46.859,-42.18
46.875,-18.92
46.890,3.35
46.906,21.53
46.921,33.9
46.937,40.25
46.953,41.46
46.968,39.07
46.984,34.54
47.000,28.86
47.015,22.48
47.031,15.41
47.046,7.53
47.062,-1.09
47.078,-10.0
47.093,-18.51
47.109,-25.81
47.125,-31.26
47.140,-34.4
47.156,-34.91
47.171,-32.59
47.187,-27.46
47.203,-20.19
47.218,-12.15
47.234,-5.39
47.250,-1.77
47.265,-2.09
47.281,-5.46
47.296,-9.58
47.312,-11.74
47.328,-10.17
47.343,-4.98
47.359,2.08
47.375,8.63
47.390,13.06
47.406,15.17
47.421,16.06
47.437,17.06
47.453,18.84
47.468,20.97
47.484,22.32
47.500,21.79
47.515,19.03
47.531,14.59
47.546,9.57
47.562,5.14
47.578,2.01
47.593,0.35
47.609,-0.13
47.625,0.09
47.640,0.6
47.656,1.18
47.671,1.81
47.687,2.52
47.703,3.15
47.718,3.2
47.734,1.71
47.750,-2.37
47.765,-9.69
47.781,-19.83
47.796,-31.08
47.812,-40.48
47.828,-44.68
47.843,-41.16
47.859,-29.33
47.875,-11.12
47.890,9.55
47.906,27.93
47.921,40.16
47.937,44.36
47.953,41.11
47.968,32.69
47.984,21.95
48.000,11.22
48.015,1.77
48.031,-5.85
48.046,-11.42
48.062,-14.52
48.078,-14.71
48.093,-11.87
48.109,-6.5
48.125,0.11
48.140,6.4
48.156,10.95
48.171,13.0
48.187,12.41
48.203,9.46
48.218,4.46
48.234,-2.59
48.250,-11.81
48.265,-23.4
48.281,-36.98
48.296,-51.49
48.312,-65.01
48.328,-75.21
48.343,-80.06
48.359,-78.43
48.375,-70.7
48.390,-58.31
48.406,-43.2
48.421,-26.79
48.437,-9.74
48.453,7.77
48.468,25.24
48.484,41.16
48.500,53.25
48.515,59.28
48.531,58.4
48.546,51.71
48.562,42.07
48.578,32.87
48.593,26.76
48.609,24.83
48.625,26.6
48.640,30.81
48.656,36.12
48.671,41.63
48.687,46.81
48.703,51.26
48.718,54.26
48.734,54.84
48.750,52.02
48.765,45.27
48.781,34.99
48.796,22.6
48.812,10.37
48.828,0.68
48.843,-4.8
48.859,-5.64
48.875,-2.88
48.890,1.7
48.906,6.39
48.921,10.39
48.937,14.03
48.953,18.24
48.968,23.7
48.984,29.99
49.000,35.51
49.015,37.86
49.031,35.02
49.046,26.2
49.062,12.34
49.078,-4.35
49.093,-21.46
49.109,-37.33
49.125,-51.55
49.140,-64.6
49.156,-76.91
49.171,-88.14
49.187,-96.96
49.203,-101.79
49.218,-101.81
49.234,-97.7
49.250,-91.65
49.265,-86.51
49.281,-84.57
49.296,-86.7
49.312,-92.06
49.328,-98.77
49.343,-104.55
49.359,-107.55
49.375,-106.62
49.390,-101.37
49.406,-92.06
49.421,-79.4
49.437,-64.59
49.453,-49.1
49.468,-34.42
49.484,-21.66
49.500,-11.16
49.515,-2.4
49.531,5.8
49.546,14.72
49.562,25.14
49.578,36.76
49.593,48.17
49.609,57.38
49.625,62.6
49.640,62.99
49.656,58.98
49.671,52.03
49.687,43.98
49.703,36.39
49.718,30.11
49.734,25.35
49.750,21.91
49.765,19.42
49.781,17.57
49.796,15.98
49.812,14.18
49.828,11.72
49.843,8.51
49.859,5.07
49.875,2.53
49.890,2.23
49.906,4.99
49.921,10.62
49.937,17.8
49.953,24.54
49.968,28.86
49.984,29.59
50.000,26.69
50.015,21.24
50.031,14.94
50.046,9.53
50.062,6.25
50.078,5.45
50.093,6.59
50.109,8.49
50.125,9.86
50.140,9.87
50.156,8.6
50.171,7.05
50.187,6.7
50.203,8.81
50.218,13.66
50.234,20.39
50.250,27.21
50.265,32.13
50.281,33.58
50.296,30.93
50.312,24.41
50.328,14.97
50.343,4.0
50.359,-6.87
50.375,-15.95
50.390,-21.75
50.406,-23.24
50.421,-20.08
50.437,-12.8
50.453,-2.68
50.468,8.56
50.484,19.12
50.500,27.45
50.515,32.44
50.531,33.51
50.546,30.72
50.562,24.59
50.578,16.18
50.593,6.78
50.609,-2.32
50.625,-9.94
50.640,-15.15
50.656,-17.33
50.671,-16.31
50.687,-12.47
50.703,-6.93
50.718,-1.3
50.734,2.71
50.750,3.91
50.765,1.95
50.781,-2.67
50.796,-8.94
50.812,-16.03
50.828,-23.54
50.843,-31.61
50.859,-40.37
50.875,-49.39
50.890,-57.47
50.906,-62.7
50.921,-63.33
50.937,-58.27
50.953,-47.76
50.968,-33.24
50.984,-16.91
51.000,-1.02
51.015,12.8
51.031,23.71
51.046,31.59
51.062,36.47
51.078,38.25
51.093,36.57
51.109,31.11
51.125,22.07
51.140,10.47
51.156,-1.97
51.171,-13.2
51.187,-21.53
51.203,-26.22
51.218,-27.65
51.234,-27.06
51.250,-26.0
51.265,-25.62
51.281,-26.35
51.296,-27.82
51.312,-29.22
51.328,-29.78
51.343,-29.11
51.359,-27.27
51.375,-24.53
51.390,-21.01
51.406,-16.41
51.421,-10.19
51.437,-1.99
51.453,8.07
51.468,19.19
51.484,30.05
51.500,39.27
51.515,45.86
51.531,49.5
51.546,50.53
51.562,49.69
51.578,47.81
51.593,45.59
51.609,43.34
51.625,41.06
51.640,38.55
51.656,35.57
51.671,32.0
51.687,27.92
51.703,23.52
51.718,18.99
51.734,14.59
51.750,10.55
51.765,7.22
51.781,4.85
51.796,3.41
51.812,2.19
51.828,-0.14
51.843,-5.08
51.859,-13.43
51.875,-24.49
51.890,-35.96
51.906,-44.44
51.921,-46.73
51.937,-41.06
51.953,-27.8
51.968,-9.21
51.984,11.51
52.000,31.31
52.015,48.16
52.031,61.25
52.046,70.61
52.062,76.63
52.078,79.6
52.093,79.58
52.109,76.59
52.125,70.81
52.140,62.76
52.156,53.32
52.171,43.4
52.187,33.74
52.203,24.59
52.218,15.76
52.234,6.81
52.250,-2.64
52.265,-12.61
52.281,-22.77
52.296,-32.67
52.312,-42.09
52.328,-51.1
52.343,-59.77
52.359,-67.72
52.375,-73.65
52.390,-75.6
52.406,-71.61
52.421,-60.74
52.437,-43.63
52.453,-22.5
52.468,-0.33
52.484,20.09
52.500,36.86
52.515,49.25
52.531,57.38
52.546,61.77
52.562,63.07
52.578,61.99
52.593,59.33
52.609,55.86
52.625,51.96
52.640,47.47
52.656,41.78
52.671,34.25
52.687,24.81
52.703,14.18
52.718,3.86
52.734,-4.49
52.750,-9.78
52.765,-12.06
52.781,-12.65
52.796,-13.81
52.812,-18.01
52.828,-26.88
52.843,-40.44
52.859,-56.63
52.875,-71.8
52.890,-81.8
52.906,-83.54
52.921,-76.21
52.937,-61.62
52.953,-43.38
52.968,-25.31
52.984,-10.0
53.000,2.02
53.015,11.78
53.031,20.81
53.046,29.94
53.062,38.84
53.078,46.28
53.093,51.02
53.109,52.68
53.125,52.04
53.140,50.6
53.156,49.78
53.171,50.14
53.187,51.09
53.203,51.3
53.218,49.35
53.234,44.57
53.250,37.28
53.265,28.53
53.281,19.46
53.296,10.72
53.312,2.14
53.328,-6.83
53.343,-16.74
53.359,-27.52
53.375,-38.35
53.390,-47.83
53.406,-54.46
53.421,-57.1
53.437,-55.2
53.453,-48.83
53.468,-38.52
53.484,-25.15
53.500,-9.95
53.515,5.61
53.531,19.98
53.546,31.74
53.562,39.99
53.578,44.46
53.593,45.5
53.609,43.77
53.625,40.0
53.640,34.92
53.656,29.25
53.671,23.85
53.687,19.61
53.703,17.24
53.718,16.82
53.734,17.57
53.750,18.04
53.765,16.64
53.781,12.23
53.796,4.49
53.812,-6.17
53.828,-19.04
53.843,-33.2
53.859,-47.71
53.875,-61.27
53.890,-72.23
53.906,-78.74
53.921,-79.47
53.937,-74.3
53.953,-64.58
53.968,-52.7
53.984,-41.06
54.000,-31.17
54.015,-23.21
54.031,-16.45
54.046,-10.1
54.062,-4.07
54.078,1.01
54.093,4.4
54.109,6.08
54.125,6.96
54.140,8.43
54.156,11.43
54.171,15.6
54.187,19.31
54.203,20.53
54.218,18.08
54.234,12.59
54.250,6.29
54.265,1.97
54.281,1.51
54.296,4.9
54.312,10.19
54.328,14.53
54.343,15.53
54.359,12.43
54.375,6.4
54.390,-0.21
54.406,-4.94
54.421,-6.46
54.437,-4.84
54.453,-1.45
54.468,2.02
54.484,4.53
54.500,6.16
54.515,7.93
54.531,11.05
54.546,15.89
54.562,21.38
54.578,25.15
54.593,24.36
54.609,17.09
54.625,3.29
54.640,-14.93
54.656,-33.86
54.671,-49.49
54.687,-58.72
54.703,-60.35
54.718,-55.03
54.734,-44.8
54.750,-32.14
54.765,-19.29
54.781,-7.84
54.796,1.17
54.812,7.04
54.828,9.5
54.843,8.73
54.859,5.56
54.875,1.41
54.890,-1.91
54.906,-2.79
54.921,-0.4
54.937,4.91
54.953,11.84
54.968,18.58
54.984,23.66
55.000,26.44
55.015,27.3
55.031,27.24
55.046,27.2
55.062,27.53
55.078,27.87
55.093,27.49
55.109,25.92
55.125,23.35
55.140,20.53
55.156,18.15
55.171,16.08
55.187,13.21
55.203,8.04
55.218,-0.38
55.234,-11.56
55.250,-23.5
55.265,-33.64
55.281,-40.11
55.296,-42.75
55.312,-43.09
55.328,-43.45
55.343,-45.54
55.359,-49.56
55.375,-54.08
55.390,-56.84
55.406,-55.76
55.421,-49.86
55.437,-39.49
55.453,-26.05
55.468,-11.38
55.484,2.85
55.500,15.44
55.515,25.67
55.531,33.04
55.546,37.01
55.562,37.0
55.578,32.62
55.593,23.98
55.609,12.04
55.625,-1.44
55.640,-14.3
55.656,-24.72
55.671,-31.96
55.687,-36.72
55.703,-40.86
55.718,-46.54
55.734,-55.41
55.750,-67.76
55.765,-82.44
55.781,-97.34
55.796,-110.11
55.812,-118.88
55.828,-122.65
55.843,-121.16
55.859,-114.56
55.875,-103.08
55.890,-86.94
55.906,-66.48
55.921,-42.52
55.937,-16.47
55.953,9.7
55.968,33.79
55.984,53.84
56.000,68.45
56.015,77.03
56.031,79.84
56.046,77.72
56.062,71.83
56.078,63.53
56.093,54.15
56.109,44.91
56.125,36.86
56.140,30.59
56.156,26.13
56.171,22.76
56.187,19.3
56.203,14.49
56.218,7.73
56.234,-0.5
56.250,-8.71
56.265,-15.01
56.281,-17.96
56.296,-17.31
56.312,-14.07
56.328,-9.86
56.343,-5.96
56.359,-2.59
56.375,1.23
56.390,7.04
56.406,16.03
56.421,28.37
56.437,43.07
56.453,58.46
56.468,72.82
56.484,84.84
56.500,93.78
56.515,99.29
56.531,101.17
56.546,99.37
56.562,94.06
56.578,85.81
56.593,75.59
56.609,64.57
56.625,53.71
56.640,43.59
56.656,34.23
56.671,25.21
56.687,15.86
56.703,5.63
56.718,-5.88
56.734,-18.67
56.750,-32.32
56.765,-45.91
56.781,-58.07
56.796,-67.28
56.812,-72.28
56.828,-72.44
56.843,-68.07
56.859,-60.35
56.875,-50.79
56.890,-40.55
56.906,-29.99
56.921,-18.57
56.937,-5.44
56.953,9.88
56.968,26.97
56.984,44.46
57.000,60.48
57.015,73.27
57.031,81.85
57.046,86.07
57.062,86.44
57.078,83.77
57.093,78.84
57.109,72.37
57.125,64.95
57.140,57.1
57.156,49.1
57.171,40.93
57.187,32.26
57.203,22.65
57.218,11.83
57.234,-0.08
57.250,-12.58
57.265,-25.06
57.281,-36.97
57.296,-47.96
57.312,-57.76
57.328,-65.99
57.343,-72.02
57.359,-74.98
57.375,-74.06
57.390,-68.88
57.406,-59.83
57.421,-48.15
57.437,-35.67
57.453,-24.38
57.468,-15.75
57.484,-10.44
57.500,-8.13
57.515,-7.82
57.531,-8.21
57.546,-8.28
57.562,-7.51
57.578,-5.89
57.593,-3.74
57.609,-1.37
57.625,1.02
57.640,3.34
57.656,5.53
57.671,7.37
57.687,8.47
57.703,8.28
57.718,6.26
57.734,2.13
57.750,-4.0
57.765,-11.59
57.781,-19.79
57.796,-27.72
57.812,-34.68
57.828,-40.31
57.843,-44.45
57.859,-46.92
57.875,-47.28
57.890,-44.83
57.906,-38.94
57.921,-29.44
57.937,-17.13
57.953,-3.77
57.968,8.3
57.984,16.86
58.000,20.59
58.015,19.42
58.031,14.57
58.046,8.07
58.062,2.07
58.078,-1.74
58.093,-2.62
58.109,-0.72
58.125,3.06
58.140,7.52
58.156,11.45
58.171,13.89
58.187,14.12
58.203,11.56
58.218,5.85
58.234,-3.06
58.250,-14.48
58.265,-26.83
58.281,-37.77
58.296,-44.91
58.312,-46.7
58.328,-43.1
58.343,-35.65
58.359,-26.74
58.375,-18.66
58.390,-12.61
58.406,-8.49
58.421,-5.3
58.437,-2.0
58.453,1.92
58.468,6.37
58.484,10.97
58.500,15.51
58.515,19.93
58.531,24.15
58.546,27.62
58.562,29.48
58.578,28.85
58.593,25.57
58.609,20.45
58.625,15.09
58.640,11.19
58.656,9.74
58.671,10.61
58.687,12.72
58.703,14.56
58.718,14.85
58.734,13.02
58.750,9.31
58.765,4.67
58.781,0.47
58.796,-1.86
58.812,-1.23
58.828,2.79
58.843,9.81
58.859,18.76
58.875,28.08
58.890,36.07
58.906,41.08
58.921,41.72
58.937,37.09
58.953,27.08
58.968,12.69
58.984,-3.96
59.000,-19.98
59.015,-32.47
59.031,-39.49
59.046,-40.74
59.062,-37.65
59.078,-32.78
59.093,-28.69
59.109,-27.03
59.125,-27.85
59.140,-29.93
59.156,-31.38
59.171,-30.7
59.187,-27.44
59.203,-22.35
59.218,-16.78
59.234,-11.84
59.250,-7.82
59.265,-3.99
59.281,0.79
59.296,7.37
59.312,15.73
59.328,24.96
59.343,33.68
59.359,40.71
59.375,45.49
59.390,48.08
59.406,48.81
59.421,47.79
59.437,44.77
59.453,39.36
59.468,31.45
59.484,21.55
59.500,10.77
59.515,0.5
59.531,-8.06
59.546,-14.21
59.562,-17.67
59.578,-18.42
59.593,-16.44
59.609,-11.72
59.625,-4.44
59.640,4.55
59.656,13.61
59.671,20.41
59.687,22.72
59.703,19.22
59.718,10.25
59.734,-2.09
59.750,-14.43
59.765,-23.15
59.781,-25.52
59.796,-20.37
59.812,-8.3
59.828,8.8
59.843,28.4
59.859,47.96
59.875,65.36
59.890,79.11
59.906,88.4
59.921,93.11
59.937,93.69
59.953,90.91
59.968,85.67
59.984,78.65
