timestamp,value
00.000,86.11
00.015,76.45
00.031,64.08
00.046,50.22
00.062,35.73
00.078,20.9
00.093,5.75
00.109,-9.72
00.125,-25.26
00.140,-40.4
00.156,-54.62
00.171,-67.51
00.187,-78.9
00.203,-88.75
00.218,-97.03
00.234,-103.7
00.250,-108.7
00.265,-112.08
00.281,-113.99
00.296,-114.61
00.312,-114.07
00.328,-112.42
00.343,-109.66
00.359,-105.91
00.375,-101.38
00.390,-96.43
00.406,-91.37
00.421,-86.3
00.437,-81.03
00.453,-75.22
00.468,-68.55
00.484,-60.9
00.500,-52.4
00.515,-43.31
00.531,-33.89
00.546,-24.36
00.562,-14.91
00.578,-5.83
00.593,2.37
00.609,9.04
00.625,13.54
00.640,15.52
00.656,14.97
00.671,12.25
00.687,7.93
00.703,2.68
00.718,-2.84
00.734,-7.9
00.750,-11.8
00.765,-13.91
00.781,-13.87
00.796,-11.75
00.812,-8.09
00.828,-3.78
00.843,0.24
00.859,3.23
00.875,4.97
00.890,5.8
00.906,6.62
00.921,8.45
00.937,12.12
00.953,17.78
00.968,24.71
00.984,31.28
01.000,35.45
01.015,35.35
01.031,29.97
01.046,19.75
01.062,6.82
01.078,-5.2
01.093,-11.99
01.109,-9.92
01.125,2.55
01.140,23.98
01.156,50.21
01.171,75.75
01.187,95.82
01.203,108.0
01.218,112.65
01.234,112.14
01.250,109.24
01.265,105.91
01.281,102.92
01.296,100.4
01.312,98.7
01.328,98.78
01.343,101.79
01.359,108.25
01.375,117.33
01.390,127.0
01.406,134.8
01.421,138.89
01.437,138.75
01.453,135.17
01.468,129.72
01.484,124.0
01.500,119.14
01.515,115.68
01.531,113.61
01.546,112.54
01.562,111.66
01.578,109.67
01.593,105.03
01.609,96.45
01.625,83.57
01.640,67.45
01.656,50.4
01.671,35.15
01.687,23.73
01.703,16.61
01.718,12.39
01.734,8.36
01.750,1.36
01.765,-11.1
01.781,-30.24
01.796,-55.66
01.812,-85.65
01.828,-117.77
01.843,-149.4
01.859,-178.29
01.875,-202.64
01.890,-221.08
01.906,-232.58
01.921,-236.49
01.937,-232.7
01.953,-222.01
01.968,-206.1
01.984,-187.35
02.000,-168.25
02.015,-150.74
02.031,-135.94
02.046,-124.1
02.062,-114.93
02.078,-107.78
02.093,-101.91
02.109,-96.56
02.125,-91.08
02.140,-85.05
02.156,-78.32
02.171,-71.01
02.187,-63.22
02.203,-55.07
02.218,-46.53
02.234,-37.72
02.250,-28.99
02.265,-20.93
02.281,-14.24
02.296,-9.3
02.312,-5.94
02.328,-3.43
02.343,-0.77
02.359,2.9
02.375,7.92
02.390,14.0
02.406,20.43
02.421,26.45
02.437,31.54
02.453,35.48
02.468,38.38
02.484,40.38
02.500,41.55
02.515,41.88
02.531,41.35
02.546,40.02
02.562,38.11
02.578,35.94
02.593,33.81
02.609,31.92
02.625,30.21
02.640,28.43
02.656,26.28
02.671,23.46
02.687,19.93
02.703,15.82
02.718,11.44
02.734,7.19
02.750,3.45
02.765,0.46
02.781,-1.65
02.796,-2.9
02.812,-3.54
02.828,-3.99
02.843,-4.68
02.859,-6.0
02.875,-8.1
02.890,-10.83
02.906,-13.77
02.921,-16.39
02.937,-18.18
02.953,-18.79
02.968,-18.03
02.984,-15.89
03.000,-12.5
03.015,-8.15
03.031,-3.27
03.046,1.58
03.062,5.92
03.078,9.44
03.093,12.03
03.109,13.81
03.125,14.91
03.140,15.44
03.156,15.38
03.171,14.67
03.187,13.35
03.203,11.61
03.218,9.84
03.234,8.44
03.250,7.66
03.265,7.5
03.281,7.62
03.296,7.57
03.312,6.97
03.328,5.69
03.343,3.92
03.359,2.01
03.375,0.31
03.390,-1.01
03.406,-1.96
03.421,-2.72
03.437,-3.46
03.453,-4.31
03.468,-5.36
03.484,-6.7
03.500,-8.46
03.515,-10.68
03.531,-13.12
03.546,-15.27
03.562,-16.39
03.578,-15.82
03.593,-13.24
03.609,-8.89
03.625,-3.45
03.640,2.19
03.656,7.26
03.671,11.29
03.687,14.19
03.703,16.07
03.718,17.1
03.734,17.34
03.750,16.79
03.765,15.44
03.781,13.44
03.796,11.07
03.812,8.67
03.828,6.57
03.843,4.89
03.859,3.57
03.875,2.4
03.890,1.14
03.906,-0.33
03.921,-1.99
03.937,-3.74
03.953,-5.45
03.968,-7.09
03.984,-8.78
04.000,-10.62
04.015,-12.74
04.031,-15.17
04.046,-17.91
04.062,-20.93
04.078,-24.15
04.093,-27.46
04.109,-30.57
04.125,-33.06
04.140,-34.38
04.156,-33.96
04.171,-31.46
04.187,-26.88
04.203,-20.55
04.218,-13.18
04.234,-5.54
04.250,1.63
04.265,7.75
04.281,12.51
04.296,15.8
04.312,17.67
04.328,18.27
04.343,17.84
04.359,16.65
04.375,15.0
04.390,13.21
04.406,11.53
04.421,10.13
04.437,9.05
04.453,8.2
04.468,7.43
04.484,6.54
04.500,5.34
04.515,3.79
04.531,1.91
04.546,-0.19
04.562,-2.38
04.578,-4.56
04.593,-6.72
04.609,-8.98
04.625,-11.47
04.640,-14.4
04.656,-17.88
04.671,-21.91
04.687,-26.38
04.703,-30.96
04.718,-35.18
04.734,-38.46
04.750,-40.14
04.765,-39.63
04.781,-36.6
04.796,-31.1
04.812,-23.58
04.828,-14.88
04.843,-5.92
04.859,2.43
04.875,9.59
04.890,15.33
04.906,19.67
04.921,22.79
04.937,24.91
04.953,26.13
04.968,26.57
04.984,26.25
05.000,25.28
05.015,23.78
05.031,21.98
05.046,20.08
05.062,18.27
05.078,16.65
05.093,15.2
05.109,13.8
05.125,12.28
05.140,10.48
05.156,8.32
05.171,5.83
05.187,3.11
05.203,0.27
05.218,-2.56
05.234,-5.38
05.250,-8.24
05.265,-11.23
05.281,-14.47
05.296,-18.11
05.312,-22.24
05.328,-26.92
05.343,-31.99
05.359,-37.01
05.375,-41.29
05.390,-43.9
05.406,-44.02
05.421,-41.12
05.437,-35.26
05.453,-27.01
05.468,-17.37
05.484,-7.4
05.500,1.98
05.515,10.15
05.531,16.86
05.546,22.09
05.562,25.94
05.578,28.54
05.593,30.03
05.609,30.54
05.625,30.3
05.640,29.61
05.656,28.84
05.671,28.29
05.687,28.06
05.703,28.0
05.718,27.85
05.734,27.33
05.750,26.35
05.765,25.03
05.781,23.6
05.796,22.26
05.812,21.02
05.828,19.68
05.843,17.95
05.859,15.58
05.875,12.55
05.890,9.03
05.906,5.33
05.921,1.7
05.937,-1.72
05.953,-4.97
05.968,-8.24
05.984,-11.8
06.000,-15.91
06.015,-20.77
06.031,-26.43
06.046,-32.67
06.062,-38.9
06.078,-44.23
06.093,-47.58
06.109,-47.96
06.125,-44.78
06.140,-38.13
06.156,-28.73
06.171,-17.76
06.187,-6.49
06.203,4.04
06.218,13.2
06.234,20.82
06.250,26.97
06.265,31.76
06.281,35.33
06.296,37.74
06.312,39.05
06.328,39.37
06.343,38.88
06.359,37.78
06.375,36.27
06.390,34.53
06.406,32.75
06.421,31.06
06.437,29.58
06.453,28.39
06.468,27.54
06.484,27.0
06.500,26.71
06.515,26.56
06.531,26.44
06.546,26.24
06.562,25.86
06.578,25.15
06.593,23.94
06.609,22.01
06.625,19.18
06.640,15.4
06.656,10.74
06.671,5.46
06.687,-0.14
06.703,-5.76
06.718,-11.19
06.734,-16.39
06.750,-21.41
06.765,-26.43
06.781,-31.68
06.796,-37.35
06.812,-43.42
06.828,-49.53
06.843,-54.84
06.859,-58.23
06.875,-58.57
06.890,-55.16
06.906,-48.07
06.921,-38.18
06.937,-26.9
06.953,-15.75
06.968,-5.84
06.984,2.27
07.000,8.61
07.015,13.53
07.031,17.41
07.046,20.43
07.062,22.61
07.078,23.9
07.093,24.35
07.109,24.17
07.125,23.73
07.140,23.38
07.156,23.32
07.171,23.54
07.187,23.85
07.203,23.94
07.218,23.63
07.234,22.85
07.250,21.72
07.265,20.44
07.281,19.17
07.296,17.99
07.312,16.8
07.328,15.39
07.343,13.55
07.359,11.13
07.375,8.15
07.390,4.77
07.406,1.27
07.421,-2.13
07.437,-5.22
07.453,-7.97
07.468,-10.41
07.484,-12.62
07.500,-14.74
07.515,-16.9
07.531,-19.29
07.546,-22.06
07.562,-25.33
07.578,-28.96
07.593,-32.5
07.609,-35.18
07.625,-36.01
07.640,-34.15
07.656,-29.16
07.671,-21.27
07.687,-11.27
07.703,-0.31
07.718,10.48
07.734,20.28
07.750,28.64
07.765,35.49
07.781,40.89
07.796,44.9
07.812,47.56
07.828,48.92
07.843,49.19
07.859,48.62
07.875,47.52
07.890,46.1
07.906,44.44
07.921,42.54
07.937,40.39
07.953,38.04
07.968,35.63
07.984,33.31
08.000,31.2
08.015,29.33
08.031,27.69
08.046,26.24
08.062,24.92
08.078,23.7
08.093,22.5
08.109,21.21
08.125,19.7
08.140,17.86
08.156,15.7
08.171,13.27
08.187,10.7
08.203,8.06
08.218,5.39
08.234,2.7
08.250,-0.04
08.265,-2.84
08.281,-5.75
08.296,-8.84
08.312,-12.25
08.328,-16.04
08.343,-20.07
08.359,-23.94
08.375,-26.93
08.390,-28.26
08.406,-27.29
08.421,-23.85
08.437,-18.32
08.453,-11.48
08.468,-4.22
08.484,2.72
08.500,8.93
08.515,14.24
08.531,18.63
08.546,22.03
08.562,24.38
08.578,25.63
08.593,25.91
08.609,25.48
08.625,24.74
08.640,24.03
08.656,23.53
08.671,23.19
08.687,22.8
08.703,22.17
08.718,21.19
08.734,19.93
08.750,18.52
08.765,17.11
08.781,15.72
08.796,14.22
08.812,12.41
08.828,10.07
08.843,7.14
08.859,3.69
08.875,-0.01
08.890,-3.66
08.906,-7.05
08.921,-10.05
08.937,-12.68
08.953,-15.02
08.968,-17.2
08.984,-19.36
09.000,-21.67
09.015,-24.27
09.031,-27.17
09.046,-30.21
09.062,-32.96
09.078,-34.84
09.093,-35.17
09.109,-33.44
09.125,-29.51
09.140,-23.69
09.156,-16.63
09.171,-9.2
09.187,-2.24
09.203,3.68
09.218,8.26
09.234,11.51
09.250,13.58
09.265,14.62
09.281,14.76
09.296,14.1
09.312,12.84
09.328,11.34
09.343,10.05
09.359,9.35
09.375,9.45
09.390,10.19
09.406,11.23
09.421,12.11
09.437,12.5
09.453,12.32
09.468,11.71
09.484,10.91
09.500,10.09
09.515,9.24
09.531,8.24
09.546,6.89
09.562,5.05
09.578,2.69
09.593,-0.02
09.609,-2.86
09.625,-5.58
09.640,-8.05
09.656,-10.25
09.671,-12.3
09.687,-14.44
09.703,-16.88
09.718,-19.81
09.734,-23.31
09.750,-27.32
09.765,-31.57
09.781,-35.59
09.796,-38.65
09.812,-39.98
09.828,-38.93
09.843,-35.21
09.859,-29.07
09.875,-21.28
09.890,-12.9
09.906,-4.94
09.921,1.87
09.937,7.25
09.953,11.31
09.968,14.33
09.984,16.58
10.000,18.2
10.015,19.21
10.031,19.61
10.046,19.51
10.062,19.06
10.078,18.52
10.093,18.1
10.109,17.89
10.125,17.9
10.140,18.0
10.156,18.03
10.171,17.91
10.187,17.65
10.203,17.34
10.218,17.08
10.234,16.89
10.250,16.65
10.265,16.18
10.281,15.26
10.296,13.78
10.312,11.82
10.328,9.64
10.343,7.59
10.359,5.91
10.375,4.65
10.390,3.63
10.406,2.56
10.421,1.15
10.437,-0.76
10.453,-3.17
10.468,-5.98
10.484,-8.97
10.500,-11.9
10.515,-14.58
10.531,-16.89
10.546,-18.87
10.562,-20.74
10.578,-22.84
10.593,-25.51
10.609,-28.96
10.625,-33.11
10.640,-37.49
10.656,-41.33
10.671,-43.7
10.687,-43.74
10.703,-40.93
10.718,-35.28
10.734,-27.37
10.750,-18.23
10.765,-9.11
10.781,-1.04
10.796,5.36
10.812,9.96
10.828,13.09
10.843,15.19
10.859,16.64
10.875,17.62
10.890,18.17
10.906,18.27
10.921,18.03
10.937,17.64
10.953,17.37
10.968,17.43
10.984,17.84
11.000,18.48
11.015,19.11
11.031,19.54
11.046,19.73
11.062,19.76
11.078,19.79
11.093,19.92
11.109,20.06
11.125,19.99
11.140,19.35
11.156,17.91
11.171,15.61
11.187,12.6
11.203,9.19
11.218,5.65
11.234,2.16
11.250,-1.28
11.265,-4.84
11.281,-8.7
11.296,-12.93
11.312,-17.47
11.328,-22.13
11.343,-26.59
11.359,-30.64
11.375,-34.22
11.390,-37.49
11.406,-40.76
11.421,-44.4
11.437,-48.64
11.453,-53.43
11.468,-58.43
11.484,-62.92
11.500,-66.06
11.515,-66.95
11.531,-64.94
11.546,-59.72
11.562,-51.51
11.578,-41.01
11.593,-29.26
11.609,-17.39
11.625,-6.33
11.640,3.39
11.656,11.68
11.671,18.79
11.687,25.04
11.703,30.65
11.718,35.66
11.734,39.97
11.750,43.48
11.765,46.26
11.781,48.49
11.796,50.46
11.812,52.42
11.828,54.44
11.843,56.4
11.859,58.1
11.875,59.34
11.890,60.0
11.906,60.11
11.921,59.62
11.937,58.45
11.953,56.42
11.968,53.31
11.984,49.14
12.000,44.11
12.015,38.61
12.031,33.09
12.046,27.83
12.062,22.88
12.078,18.12
12.093,13.35
12.109,8.42
12.125,3.33
12.140,-1.86
12.156,-6.99
12.171,-11.92
12.187,-16.48
12.203,-20.55
12.218,-24.11
12.234,-27.29
12.250,-30.36
12.265,-33.59
12.281,-37.11
12.296,-40.74
12.312,-43.93
12.328,-45.86
12.343,-45.66
12.359,-42.75
12.375,-37.05
12.390,-29.12
12.406,-20.01
12.421,-10.92
12.437,-2.88
12.453,3.57
12.468,8.39
12.484,11.86
12.500,14.38
12.515,16.2
12.531,17.37
12.546,17.89
12.562,17.84
12.578,17.44
12.593,16.98
12.609,16.75
12.625,16.86
12.640,17.21
12.656,17.56
12.671,17.67
12.687,17.39
12.703,16.7
12.718,15.67
12.734,14.44
12.750,13.09
12.765,11.68
12.781,10.26
12.796,8.83
12.812,7.41
12.828,5.98
12.843,4.48
12.859,2.85
12.875,1.06
12.890,-0.82
12.906,-2.7
12.921,-4.47
12.937,-6.11
12.953,-7.68
12.968,-9.29
12.984,-11.13
13.000,-13.32
13.015,-15.98
13.031,-19.19
13.046,-23.01
13.062,-27.31
13.078,-31.71
13.093,-35.54
13.109,-37.88
13.125,-37.89
13.140,-35.01
13.156,-29.28
13.171,-21.32
13.187,-12.19
13.203,-3.09
13.218,4.95
13.234,11.29
13.250,15.77
13.265,18.61
13.281,20.29
13.296,21.34
13.312,22.19
13.328,23.13
13.343,24.29
13.359,25.67
13.375,27.21
13.390,28.82
13.406,30.47
13.421,32.21
13.437,34.15
13.453,36.46
13.468,39.3
13.484,42.67
13.500,46.41
13.515,50.1
13.531,53.26
13.546,55.55
13.562,56.97
13.578,57.95
13.593,59.15
13.609,61.25
13.625,64.51
13.640,68.71
13.656,73.15
13.671,77.03
13.687,79.79
13.703,81.34
13.718,82.09
13.734,82.85
13.750,84.63
13.765,88.39
13.781,94.69
13.796,103.24
13.812,112.41
13.828,119.07
13.843,119.34
13.859,109.85
13.875,89.43
13.890,60.0
13.906,26.41
13.921,-5.05
13.937,-28.62
13.953,-40.76
13.968,-40.7
13.984,-29.95
14.000,-11.22
14.015,12.37
14.031,37.62
14.046,61.15
14.062,79.37
14.078,89.06
14.093,88.2
14.109,76.71
14.125,56.63
14.140,31.5
14.156,5.27
14.171,-18.59
14.187,-37.79
14.203,-51.23
14.218,-58.82
14.234,-61.1
14.250,-58.97
14.265,-53.6
14.281,-46.3
14.296,-38.27
14.312,-30.41
14.328,-23.3
14.343,-17.2
14.359,-12.17
14.375,-8.27
14.390,-5.54
14.406,-3.96
14.421,-3.32
14.437,-3.21
14.453,-3.14
14.468,-2.67
14.484,-1.57
14.500,0.27
14.515,2.85
14.531,6.32
14.546,10.95
14.562,17.09
14.578,24.89
14.593,33.97
14.609,43.33
14.625,51.43
14.640,56.73
14.656,58.15
14.671,55.55
14.687,49.78
14.703,42.35
14.718,34.82
14.734,28.17
14.750,22.63
14.765,17.76
14.781,12.91
14.796,7.78
14.812,2.67
14.828,-1.59
14.843,-3.95
14.859,-3.6
14.875,-0.23
14.890,5.86
14.906,13.89
14.921,22.83
14.937,31.57
14.953,39.18
14.968,44.98
14.984,48.54
15.000,49.57
15.015,47.81
15.031,42.96
15.046,34.73
15.062,23.01
15.078,8.14
15.093,-9.03
15.109,-27.22
15.125,-44.98
15.140,-61.05
15.156,-74.57
15.171,-85.16
15.187,-92.88
15.203,-98.18
15.218,-101.74
15.234,-104.45
15.250,-107.19
15.265,-110.42
15.281,-113.98
15.296,-116.81
15.312,-117.31
15.328,-113.93
15.343,-105.92
15.359,-93.95
15.375,-80.07
15.390,-67.19
15.406,-58.17
15.421,-54.81
15.437,-57.46
15.453,-65.05
15.468,-75.73
15.484,-87.53
15.500,-99.01
15.515,-109.36
15.531,-118.25
15.546,-125.45
15.562,-130.69
15.578,-133.63
15.593,-134.07
15.609,-132.09
15.625,-128.07
15.640,-122.58
15.656,-116.05
15.671,-108.71
15.687,-100.55
15.703,-91.57
15.718,-81.86
15.734,-71.71
15.750,-61.57
15.765,-51.87
15.781,-42.97
15.796,-35.09
15.812,-28.37
15.828,-22.84
15.843,-18.46
15.859,-15.12
15.875,-12.64
15.890,-10.96
15.906,-10.15
15.921,-10.37
15.937,-11.85
15.953,-14.63
15.968,-18.59
15.984,-23.37
16.000,-28.54
16.015,-33.47
16.031,-37.47
16.046,-39.64
16.062,-39.07
16.078,-35.08
16.093,-27.55
16.109,-17.14
16.125,-5.15
16.140,6.8
16.156,17.32
16.171,25.53
16.187,31.24
16.203,34.77
16.218,36.57
16.234,37.1
16.250,36.7
16.265,35.72
16.281,34.6
16.296,33.79
16.312,33.59
16.328,33.86
16.343,34.03
16.359,33.21
16.375,30.62
16.390,25.91
16.406,19.32
16.421,11.58
16.437,3.55
16.453,-4.0
16.468,-10.61
16.484,-16.06
16.500,-20.28
16.515,-23.26
16.531,-25.16
16.546,-26.27
16.562,-27.04
16.578,-27.88
16.593,-29.05
16.609,-30.51
16.625,-32.03
16.640,-33.34
16.656,-34.29
16.671,-34.93
16.687,-35.45
16.703,-36.1
16.718,-37.16
16.734,-38.92
16.750,-41.58
16.765,-45.17
16.781,-49.34
16.796,-53.25
16.812,-55.69
16.828,-55.39
16.843,-51.52
16.859,-44.1
16.875,-34.01
16.890,-22.83
16.906,-12.23
16.921,-3.51
16.937,2.8
16.953,6.94
16.968,9.7
16.984,11.9
17.000,14.1
17.015,16.42
17.031,18.58
17.046,20.23
17.062,21.13
17.078,21.37
17.093,21.27
17.109,21.23
17.125,21.52
17.140,22.16
17.156,22.99
17.171,23.77
17.187,24.37
17.203,24.72
17.218,24.86
17.234,24.78
17.250,24.45
17.265,23.76
17.281,22.57
17.296,20.78
17.312,18.37
17.328,15.36
17.343,11.83
17.359,7.98
17.375,4.05
17.390,0.29
17.406,-3.08
17.421,-6.0
17.437,-8.61
17.453,-11.19
17.468,-14.12
17.484,-17.73
17.500,-22.22
17.515,-27.6
17.531,-33.64
17.546,-39.89
17.562,-45.65
17.578,-50.02
17.593,-52.11
17.609,-51.19
17.625,-46.91
17.640,-39.54
17.656,-29.91
17.671,-19.23
17.687,-8.79
17.703,0.46
17.718,8.04
17.734,14.0
17.750,18.69
17.765,22.53
17.781,25.75
17.796,28.35
17.812,30.24
17.828,31.46
17.843,32.23
17.859,32.94
17.875,34.01
17.890,35.64
17.906,37.78
17.921,40.1
17.937,42.24
17.953,44.0
17.968,45.38
17.984,46.59
18.000,47.79
18.015,49.03
18.031,50.17
18.046,50.99
18.062,51.28
18.078,51.09
18.093,50.68
18.109,50.42
18.125,50.7
18.140,51.7
18.156,53.28
18.171,55.1
18.187,56.77
18.203,58.03
18.218,58.92
18.234,59.68
18.250,60.56
18.265,61.76
18.281,63.21
18.296,64.67
18.312,65.91
18.328,66.83
18.343,67.59
18.359,68.49
18.375,69.86
18.390,71.83
18.406,74.28
18.421,76.78
18.437,78.84
18.453,80.02
18.468,80.13
18.484,79.24
18.500,77.69
18.515,76.07
18.531,75.07
18.546,75.39
18.562,77.42
18.578,80.92
18.593,84.7
18.609,86.53
18.625,83.51
18.640,72.99
18.656,53.5
18.671,25.52
18.687,-8.45
18.703,-44.59
18.718,-78.78
18.734,-107.68
18.750,-129.41
18.765,-143.57
18.781,-150.94
18.796,-152.88
18.812,-150.92
18.828,-146.46
18.843,-140.7
18.859,-134.58
18.875,-128.71
18.890,-123.36
18.906,-118.65
18.921,-114.66
18.937,-111.84
18.953,-111.2
18.968,-114.27
18.984,-122.76
19.000,-138.09
19.015,-160.71
19.031,-189.85
19.046,-223.58
19.062,-259.32
19.078,-294.23
19.093,-325.53
19.109,-350.71
19.125,-367.56
19.140,-374.45
19.156,-370.56
19.171,-356.23
19.187,-332.97
19.203,-303.19
19.218,-269.59
19.234,-234.49
19.250,-199.55
19.265,-165.66
19.281,-133.26
19.296,-102.74
19.312,-74.61
19.328,-49.47
19.343,-27.78
19.359,-9.57
19.375,5.59
19.390,18.44
19.406,29.77
19.421,40.09
19.437,49.51
19.453,57.81
19.468,64.72
19.484,70.21
19.500,74.54
19.515,78.18
19.531,81.56
19.546,84.89
19.562,88.07
19.578,90.82
19.593,92.88
19.609,94.08
19.625,94.36
19.640,93.69
19.656,92.01
19.671,89.19
19.687,85.17
19.703,80.01
19.718,74.04
19.734,67.74
19.750,61.66
19.765,56.1
19.781,51.07
19.796,46.25
19.812,41.14
19.828,35.22
19.843,28.12
19.859,19.77
19.875,10.47
19.890,0.99
19.906,-7.48
19.921,-13.48
19.937,-15.59
19.953,-12.92
19.968,-5.48
19.984,5.72
20.000,18.92
20.015,32.19
20.031,43.91
20.046,53.25
20.062,60.08
20.078,64.81
20.093,67.93
20.109,69.82
20.125,70.65
20.140,70.57
20.156,69.81
20.171,68.74
20.187,67.81
20.203,67.27
20.218,67.08
20.234,66.88
20.250,66.18
20.265,64.66
20.281,62.24
20.296,59.27
20.312,56.29
20.328,53.78
20.343,51.93
20.359,50.55
20.375,49.09
20.390,46.94
20.406,43.64
20.421,39.09
20.437,33.58
20.453,27.68
20.468,21.98
20.484,16.88
20.500,12.47
20.515,8.49
20.531,4.48
20.546,-0.1
20.562,-5.65
20.578,-12.27
20.593,-19.64
20.609,-26.94
20.625,-32.93
20.640,-36.24
20.656,-35.72
20.671,-30.91
20.687,-22.16
20.703,-10.64
20.718,2.08
20.734,14.42
20.750,25.23
20.765,33.91
20.781,40.45
20.796,45.12
20.812,48.3
20.828,50.34
20.843,51.44
20.859,51.81
20.875,51.7
20.890,51.4
20.906,51.19
20.921,51.24
20.937,51.47
20.953,51.62
20.968,51.33
20.984,50.33
21.000,48.62
21.015,46.5
21.031,44.38
21.046,42.56
21.062,41.05
21.078,39.46
21.093,37.24
21.109,33.96
21.125,29.48
21.140,24.03
21.156,18.11
21.171,12.26
21.187,6.84
21.203,1.96
21.218,-2.59
21.234,-7.17
21.250,-12.19
21.265,-18.02
21.281,-24.76
21.296,-32.15
21.312,-39.5
21.328,-45.68
21.343,-49.4
21.359,-49.52
21.375,-45.44
21.390,-37.39
21.406,-26.39
21.421,-13.96
21.437,-1.68
21.453,9.28
21.468,18.38
21.484,25.69
21.500,31.55
21.515,36.38
21.531,40.37
21.546,43.5
21.562,45.66
21.578,46.85
21.593,47.22
21.609,47.09
21.625,46.79
21.640,46.56
21.656,46.44
21.671,46.34
21.687,46.09
21.703,45.59
21.718,44.79
21.734,43.74
21.750,42.54
21.765,41.22
21.781,39.79
21.796,38.17
21.812,36.22
21.828,33.82
21.843,30.88
21.859,27.41
21.875,23.53
21.890,19.46
21.906,15.42
21.921,11.63
21.937,8.21
21.953,5.16
21.968,2.33
21.984,-0.55
22.000,-3.87
22.015,-7.98
22.031,-13.07
22.046,-19.07
22.062,-25.47
22.078,-31.33
22.093,-35.41
22.109,-36.45
22.125,-33.65
22.140,-26.96
22.156,-17.19
22.171,-5.75
22.187,5.7
22.203,15.85
22.218,24.04
22.234,30.26
22.250,34.95
22.265,38.59
22.281,41.44
22.296,43.48
22.312,44.57
22.328,44.65
22.343,43.88
22.359,42.62
22.375,41.31
22.390,40.27
22.406,39.58
22.421,39.15
22.437,38.72
22.453,38.12
22.468,37.2
22.484,35.97
22.500,34.45
22.515,32.64
22.531,30.51
22.546,28.0
22.562,25.13
22.578,21.93
22.593,18.46
22.609,14.8
22.625,11.01
22.640,7.17
22.656,3.37
22.671,-0.25
22.687,-3.58
22.703,-6.54
22.718,-9.24
22.734,-11.88
22.750,-14.75
22.765,-18.12
22.781,-22.19
22.796,-26.95
22.812,-32.14
22.828,-37.22
22.843,-41.33
22.859,-43.42
22.875,-42.55
22.890,-38.23
22.906,-30.66
22.921,-20.77
22.937,-9.98
22.953,0.31
22.968,9.07
22.984,15.91
23.000,21.01
23.015,24.82
23.031,27.77
23.046,30.1
23.062,31.78
23.078,32.72
23.093,32.89
23.109,32.44
23.125,31.65
23.140,30.79
23.156,30.07
23.171,29.51
23.187,29.0
23.203,28.36
23.218,27.51
23.234,26.45
23.250,25.28
23.265,24.1
23.281,22.98
23.296,21.86
23.312,20.61
23.328,19.06
23.343,17.06
23.359,14.56
23.375,11.66
23.390,8.54
23.406,5.45
23.421,2.65
23.437,0.26
23.453,-1.73
23.468,-3.54
23.484,-5.5
23.500,-7.94
23.515,-11.07
23.531,-14.9
23.546,-19.31
23.562,-23.99
23.578,-28.55
23.593,-32.42
23.609,-34.82
23.625,-34.93
23.640,-32.07
23.656,-26.06
23.671,-17.38
23.687,-7.21
23.703,3.03
23.718,12.08
23.734,19.19
23.750,24.25
23.765,27.58
23.781,29.58
23.796,30.49
23.812,30.44
23.828,29.48
23.843,27.92
23.859,26.18
23.875,24.78
23.890,24.1
23.906,24.22
23.921,24.95
23.937,25.97
23.953,26.97
23.968,27.77
23.984,28.31
24.000,28.55
24.015,28.43
24.031,27.87
24.046,26.79
24.062,25.2
24.078,23.28
24.093,21.27
24.109,19.43
24.125,17.94
24.140,16.8
24.156,15.97
24.171,15.35
24.187,14.8
24.203,14.22
24.218,13.49
24.234,12.48
24.250,11.17
24.265,9.66
24.281,8.17
24.296,6.96
24.312,6.14
24.328,5.65
24.343,5.28
24.359,4.75
24.375,3.92
24.390,2.83
24.406,1.67
24.421,0.66
24.437,-0.07
24.453,-0.55
24.468,-0.88
24.484,-1.12
24.500,-1.32
24.515,-1.44
24.531,-1.45
24.546,-1.44
24.562,-1.56
24.578,-1.96
24.593,-2.67
24.609,-3.58
24.625,-4.42
24.640,-4.95
24.656,-5.1
24.671,-5.05
24.687,-5.21
24.703,-5.97
24.718,-7.53
24.734,-9.74
24.750,-12.15
24.765,-14.22
24.781,-15.61
24.796,-16.3
24.812,-16.63
24.828,-17.09
24.843,-18.05
24.859,-19.62
24.875,-21.63
24.890,-23.77
24.906,-25.71
24.921,-27.33
24.937,-28.63
24.953,-29.79
24.968,-31.07
24.984,-32.71
25.000,-34.93
25.015,-37.79
25.031,-41.12
25.046,-44.41
25.062,-46.88
25.078,-47.56
25.093,-45.59
25.109,-40.51
25.125,-32.5
25.140,-22.41
25.156,-11.52
25.171,-1.22
25.187,7.42
25.203,13.78
25.218,17.78
25.234,19.7
25.250,19.94
25.265,18.93
25.281,17.08
25.296,14.83
25.312,12.65
25.328,11.01
25.343,10.23
25.359,10.41
25.375,11.28
25.390,12.34
25.406,13.1
25.421,13.18
25.437,12.57
25.453,11.55
25.468,10.49
25.484,9.66
25.500,9.06
25.515,8.43
25.531,7.4
25.546,5.74
25.562,3.47
25.578,0.84
25.593,-1.83
25.609,-4.26
25.625,-6.35
25.640,-8.12
25.656,-9.68
25.671,-11.17
25.687,-12.75
25.703,-14.61
25.718,-16.92
25.734,-19.71
25.750,-22.77
25.765,-25.52
25.781,-27.24
25.796,-27.2
25.812,-24.94
25.828,-20.48
25.843,-14.34
25.859,-7.33
25.875,-0.37
25.890,5.8
25.906,10.77
25.921,14.47
25.937,17.02
25.953,18.64
25.968,19.46
25.984,19.54
26.000,18.89
26.015,17.6
26.031,15.86
26.046,14.02
26.062,12.45
26.078,11.4
26.093,10.95
26.109,10.93
26.125,11.03
26.140,11.02
26.156,10.75
26.171,10.28
26.187,9.75
26.203,9.28
26.218,8.84
26.234,8.27
26.250,7.34
26.265,5.9
26.281,3.97
26.296,1.76
26.312,-0.39
26.328,-2.19
26.343,-3.52
26.359,-4.46
26.375,-5.2
26.390,-6.03
26.406,-7.21
26.421,-8.88
26.437,-11.08
26.453,-13.65
26.468,-16.2
26.484,-18.15
26.500,-18.75
26.515,-17.28
26.531,-13.26
26.546,-6.72
26.562,1.76
26.578,11.16
26.593,20.34
26.609,28.37
26.625,34.74
26.640,39.37
26.656,42.48
26.671,44.37
26.687,45.29
26.703,45.43
26.718,44.95
26.734,44.05
26.750,42.97
26.765,41.94
26.781,41.08
26.796,40.38
26.812,39.76
26.828,39.06
26.843,38.13
26.859,36.82
26.875,35.03
26.890,32.73
26.906,29.95
26.921,26.74
26.937,23.11
26.953,19.01
26.968,14.31
26.984,8.92
27.000,2.84
27.015,-3.7
27.031,-10.31
27.046,-16.53
27.062,-22.05
27.078,-26.74
27.093,-30.73
27.109,-34.23
27.125,-37.43
27.140,-40.44
27.156,-43.32
27.171,-46.09
27.187,-48.8
27.203,-51.44
27.218,-53.79
27.234,-55.38
27.250,-55.51
27.265,-53.51
27.281,-49.07
27.296,-42.49
27.312,-34.61
27.328,-26.64
27.343,-19.66
27.359,-14.28
27.375,-10.58
27.390,-8.22
27.406,-6.73
27.421,-5.81
27.437,-5.4
27.453,-5.57
27.468,-6.37
27.484,-7.63
27.500,-8.99
27.515,-10.03
27.531,-10.49
27.546,-10.31
27.562,-9.68
27.578,-8.9
27.593,-8.26
27.609,-7.93
27.625,-7.92
27.640,-8.13
27.656,-8.42
27.671,-8.67
27.687,-8.84
27.703,-9.04
27.718,-9.43
27.734,-10.17
27.750,-11.36
27.765,-12.95
27.781,-14.73
27.796,-16.46
27.812,-17.9
27.828,-18.97
27.843,-19.77
27.859,-20.49
27.875,-21.37
27.890,-22.59
27.906,-24.29
27.921,-26.51
27.937,-29.21
27.953,-32.19
27.968,-35.02
27.984,-37.04
28.000,-37.45
28.015,-35.62
28.031,-31.29
28.046,-24.78
28.062,-16.98
28.078,-9.01
28.093,-1.9
28.109,3.78
28.125,7.93
28.140,10.82
28.156,12.74
28.171,13.89
28.187,14.26
28.203,13.83
28.218,12.71
28.234,11.28
28.250,10.01
28.265,9.35
28.281,9.47
28.296,10.2
28.312,11.2
28.328,12.08
28.343,12.61
28.359,12.75
28.375,12.62
28.390,12.4
28.406,12.22
28.421,12.14
28.437,12.1
28.453,11.96
28.468,11.51
28.484,10.55
28.500,9.01
28.515,7.0
28.531,4.78
28.546,2.68
28.562,0.96
28.578,-0.31
28.593,-1.22
28.609,-2.0
28.625,-2.9
28.640,-4.03
28.656,-5.49
28.671,-7.27
28.687,-9.34
28.703,-11.5
28.718,-13.38
28.734,-14.37
28.750,-13.79
28.765,-11.11
28.781,-6.19
28.796,0.56
28.812,8.33
28.828,16.1
28.843,22.96
28.859,28.3
28.875,31.93
28.890,33.95
28.906,34.63
28.921,34.26
28.937,33.08
28.953,31.24
28.968,28.9
28.984,26.2
29.000,23.33
29.015,20.51
29.031,17.98
29.046,15.91
29.062,14.34
29.078,13.15
29.093,12.1
29.109,10.95
29.125,9.56
29.140,8.04
29.156,6.57
29.171,5.36
29.187,4.45
29.203,3.69
29.218,2.81
29.234,1.52
29.250,-0.25
29.265,-2.41
29.281,-4.75
29.296,-7.02
29.312,-9.12
29.328,-11.05
29.343,-12.91
29.359,-14.82
29.375,-16.88
29.390,-19.15
29.406,-21.61
29.421,-24.26
29.437,-26.96
29.453,-29.5
29.468,-31.51
29.484,-32.51
29.500,-31.98
29.515,-29.48
29.531,-24.88
29.546,-18.47
29.562,-11.0
29.578,-3.41
29.593,3.39
29.609,8.82
29.625,12.7
29.640,15.23
29.656,16.77
29.671,17.63
29.687,17.99
29.703,17.88
29.718,17.33
29.734,16.49
29.750,15.64
29.765,15.01
29.781,14.74
29.796,14.73
29.812,14.7
29.828,14.37
29.843,13.63
29.859,12.57
29.875,11.44
29.890,10.38
29.906,9.42
29.921,8.39
29.937,7.08
29.953,5.41
29.968,3.51
29.984,1.6
30.000,-0.16
30.015,-1.75
30.031,-3.37
30.046,-5.2
30.062,-7.4
30.078,-9.88
30.093,-12.4
30.109,-14.7
30.125,-16.61
30.140,-18.14
30.156,-19.47
30.171,-20.85
30.187,-22.5
30.203,-24.5
30.218,-26.79
30.234,-29.05
30.250,-30.78
30.265,-31.36
30.281,-30.19
30.296,-26.86
30.312,-21.33
30.328,-13.97
30.343,-5.45
30.359,3.34
30.375,11.62
30.390,18.87
30.406,24.88
30.421,29.68
30.437,33.42
30.453,36.28
30.468,38.36
30.484,39.79
30.500,40.7
30.515,41.29
30.531,41.78
30.546,42.37
30.562,43.11
30.578,43.92
30.593,44.58
30.609,44.9
30.625,44.74
30.640,44.09
30.656,43.02
30.671,41.64
30.687,39.96
30.703,37.94
30.718,35.48
30.734,32.43
30.750,28.7
30.765,24.25
30.781,19.09
30.796,13.31
30.812,7.09
30.828,0.7
30.843,-5.48
30.859,-11.08
30.875,-15.88
30.890,-19.78
30.906,-22.86
30.921,-25.28
30.937,-27.22
30.953,-28.81
30.968,-30.27
30.984,-31.94
31.000,-34.25
31.015,-37.62
31.031,-42.23
31.046,-47.8
31.062,-53.53
31.078,-58.31
31.093,-61.03
31.109,-60.96
31.125,-57.99
31.140,-52.67
31.156,-45.9
31.171,-38.73
31.187,-31.97
31.203,-26.09
31.218,-21.2
31.234,-17.19
31.250,-13.88
31.265,-11.07
31.281,-8.61
31.296,-6.43
31.312,-4.5
31.328,-2.83
31.343,-1.46
31.359,-0.38
31.375,0.45
31.390,1.15
31.406,1.81
31.421,2.47
31.437,3.1
31.453,3.62
31.468,3.92
31.484,3.93
31.500,3.61
31.515,2.93
31.531,1.83
31.546,0.25
31.562,-1.8
31.578,-4.18
31.593,-6.71
31.609,-9.15
31.625,-11.31
31.640,-13.12
31.656,-14.62
31.671,-15.91
31.687,-17.13
31.703,-18.32
31.718,-19.45
31.734,-20.49
31.750,-21.39
31.765,-22.15
31.781,-22.91
31.796,-23.87
31.812,-25.27
31.828,-27.3
31.843,-29.95
31.859,-32.93
31.875,-35.62
31.890,-37.19
31.906,-36.9
31.921,-34.29
31.937,-29.44
31.953,-22.92
31.968,-15.64
31.984,-8.56
32.000,-2.41
32.015,2.44
32.031,5.99
32.046,8.47
32.062,10.12
32.078,11.15
32.093,11.68
32.109,11.77
32.125,11.52
32.140,11.1
32.156,10.64
32.171,10.27
32.187,10.05
32.203,9.99
32.218,10.05
32.234,10.17
32.250,10.26
32.265,10.27
32.281,10.14
32.296,9.89
32.312,9.53
32.328,9.11
32.343,8.61
32.359,7.97
32.375,7.07
32.390,5.86
32.406,4.35
32.421,2.65
32.437,0.91
32.453,-0.79
32.468,-2.45
32.484,-4.11
32.500,-5.84
32.515,-7.6
32.531,-9.4
32.546,-11.24
32.562,-13.23
32.578,-15.51
32.593,-18.19
32.609,-21.15
32.625,-23.96
32.640,-25.96
32.656,-26.45
32.671,-24.92
32.687,-21.27
32.703,-15.84
32.718,-9.28
32.734,-2.43
32.750,3.95
32.765,9.33
32.781,13.47
32.796,16.35
32.812,18.14
32.828,19.02
32.843,19.13
32.859,18.58
32.875,17.45
32.890,15.89
32.906,14.18
32.921,12.66
32.937,11.65
32.953,11.32
32.968,11.63
32.984,12.33
33.000,13.1
33.015,13.68
33.031,13.98
33.046,14.04
33.062,14.0
33.078,13.9
33.093,13.65
33.109,13.04
33.125,11.85
33.140,10.01
33.156,7.62
33.171,4.96
33.187,2.36
33.203,0.07
33.218,-1.82
33.234,-3.36
33.250,-4.74
33.265,-6.12
33.281,-7.65
33.296,-9.45
33.312,-11.58
33.328,-14.02
33.343,-16.69
33.359,-19.26
33.375,-21.24
33.390,-21.99
33.406,-20.93
33.421,-17.68
33.437,-12.33
33.453,-5.39
33.468,2.33
33.484,9.93
33.500,16.75
33.515,22.41
33.531,26.85
33.546,30.2
33.562,32.69
33.578,34.51
33.593,35.84
33.609,36.86
33.625,37.75
33.640,38.65
33.656,39.64
33.671,40.75
33.687,41.9
33.703,42.99
33.718,43.9
33.734,44.47
33.750,44.5
33.765,43.78
33.781,42.17
33.796,39.67
33.812,36.41
33.828,32.67
33.843,28.68
33.859,24.56
33.875,20.31
33.890,15.82
33.906,10.97
33.921,5.8
33.937,0.44
33.953,-4.84
33.968,-9.82
33.984,-14.36
34.000,-18.5
34.015,-22.41
34.031,-26.31
34.046,-30.39
34.062,-34.75
34.078,-39.26
34.093,-43.67
34.109,-47.55
34.125,-50.4
34.140,-51.72
34.156,-51.08
34.171,-48.27
34.187,-43.37
34.203,-36.82
34.218,-29.32
34.234,-21.75
34.250,-14.84
34.265,-9.09
34.281,-4.67
34.296,-1.48
34.312,0.72
34.328,2.16
34.343,2.95
34.359,3.19
34.375,2.98
34.390,2.5
34.406,1.98
34.421,1.62
34.437,1.49
34.453,1.52
34.468,1.53
34.484,1.37
34.500,1.0
34.515,0.46
34.531,-0.09
34.546,-0.53
34.562,-0.86
34.578,-1.2
34.593,-1.78
34.609,-2.8
34.625,-4.36
34.640,-6.39
34.656,-8.71
34.671,-11.08
34.687,-13.31
34.703,-15.34
34.718,-17.17
34.734,-18.87
34.750,-20.56
34.765,-22.33
34.781,-24.28
34.796,-26.49
34.812,-28.97
34.828,-31.56
34.843,-33.92
34.859,-35.55
34.875,-35.83
34.890,-34.28
34.906,-30.7
34.921,-25.29
34.937,-18.66
34.953,-11.56
34.968,-4.77
34.984,1.21
35.000,6.22
35.015,10.3
35.031,13.61
35.046,16.15
35.062,17.83
35.078,18.47
35.093,18.04
35.109,16.78
35.125,15.14
35.140,13.64
35.156,12.63
35.171,12.19
35.187,12.09
35.203,12.01
35.218,11.64
35.234,10.86
35.250,9.7
35.265,8.32
35.281,6.79
35.296,5.18
35.312,3.48
35.328,1.64
35.343,-0.35
35.359,-2.5
35.375,-4.82
35.390,-7.27
35.406,-9.77
35.421,-12.24
35.437,-14.55
35.453,-16.63
35.468,-18.5
35.484,-20.26
35.500,-22.06
35.515,-24.08
35.531,-26.46
35.546,-29.21
35.562,-32.24
35.578,-35.2
35.593,-37.55
35.609,-38.56
35.625,-37.54
35.640,-34.1
35.656,-28.36
35.671,-21.05
35.687,-13.17
35.703,-5.76
35.718,0.49
35.734,5.37
35.750,9.0
35.765,11.67
35.781,13.53
35.796,14.64
35.812,14.94
35.828,14.45
35.843,13.34
35.859,11.97
35.875,10.71
35.890,9.83
35.906,9.45
35.921,9.47
35.937,9.68
35.953,9.82
35.968,9.76
35.984,9.51
36.000,9.22
36.015,9.08
36.031,9.11
36.046,9.18
36.062,8.94
36.078,8.07
36.093,6.43
36.109,4.21
36.125,1.83
36.140,-0.23
36.156,-1.69
36.171,-2.6
36.187,-3.3
36.203,-4.24
36.218,-5.76
36.234,-7.98
36.250,-10.76
36.265,-13.81
36.281,-16.78
36.296,-19.26
36.312,-20.78
36.328,-20.83
36.343,-18.96
36.359,-14.99
36.375,-9.17
36.390,-2.18
36.406,5.02
36.421,11.5
36.437,16.66
36.453,20.37
36.468,22.87
36.484,24.51
36.500,25.61
36.515,26.3
36.531,26.55
36.546,26.35
36.562,25.8
36.578,25.05
36.593,24.32
36.609,23.72
36.625,23.23
36.640,22.76
36.656,22.19
36.671,21.49
36.687,20.67
36.703,19.83
36.718,18.95
36.734,17.98
36.750,16.71
36.765,15.03
36.781,12.81
36.796,10.1
36.812,7.03
36.828,3.82
36.843,0.73
36.859,-2.06
36.875,-4.43
36.890,-6.46
36.906,-8.35
36.921,-10.46
36.937,-13.15
36.953,-16.64
36.968,-20.88
36.984,-25.41
37.000,-29.47
37.015,-32.09
37.031,-32.43
37.046,-30.05
37.062,-25.03
37.078,-17.99
37.093,-9.89
37.109,-1.73
37.125,5.71
37.140,12.02
37.156,17.14
37.171,21.27
37.187,24.6
37.203,27.3
37.218,29.43
37.234,31.0
37.250,32.02
37.265,32.54
37.281,32.61
37.296,32.32
37.312,31.71
37.328,30.73
37.343,29.32
37.359,27.4
37.375,24.92
37.390,21.98
37.406,18.75
37.421,15.46
37.437,12.29
37.453,9.22
37.468,6.03
37.484,2.41
37.500,-1.94
37.515,-7.07
37.531,-12.67
37.546,-18.24
37.562,-23.2
37.578,-27.2
37.593,-30.24
37.609,-32.61
37.625,-34.83
37.640,-37.36
37.656,-40.51
37.671,-44.33
37.687,-48.58
37.703,-52.75
37.718,-56.08
37.734,-57.74
37.750,-56.91
37.765,-53.07
37.781,-46.15
37.796,-36.57
37.812,-25.22
37.828,-13.11
37.843,-1.24
37.859,9.75
37.875,19.54
37.890,28.08
37.906,35.46
37.921,41.74
37.937,46.97
37.953,51.18
37.968,54.54
37.984,57.35
38.000,59.97
38.015,62.69
38.031,65.67
38.046,68.93
38.062,72.47
38.078,76.36
38.093,80.73
38.109,85.75
38.125,91.5
38.140,97.9
38.156,104.7
38.171,111.61
38.187,118.39
38.203,125.0
38.218,131.54
38.234,138.15
38.250,144.91
38.265,151.74
38.281,158.49
38.296,164.91
38.312,170.85
38.328,176.19
38.343,180.89
38.359,184.97
38.375,188.6
38.390,192.18
38.406,196.35
38.421,201.74
38.437,208.43
38.453,215.33
38.468,220.08
38.484,219.45
38.500,210.5
38.515,191.79
38.531,164.09
38.546,130.32
38.562,94.38
38.578,59.78
38.593,28.57
38.609,1.01
38.625,-24.0
38.640,-48.06
38.656,-72.78
38.671,-99.59
38.687,-129.92
38.703,-164.99
38.718,-205.11
38.734,-248.79
38.750,-292.15
38.765,-329.55
38.781,-355.21
38.796,-365.25
38.812,-359.28
38.828,-340.44
38.843,-314.06
38.859,-285.53
38.875,-258.58
38.890,-234.71
38.906,-213.72
38.921,-194.92
38.937,-177.96
38.953,-163.04
38.968,-150.42
38.984,-139.9
39.000,-130.7
39.015,-121.79
39.031,-112.53
39.046,-102.98
39.062,-93.97
39.078,-86.69
39.093,-82.15
39.109,-80.57
39.125,-81.32
39.140,-82.95
39.156,-83.76
39.171,-82.31
39.187,-77.89
39.203,-70.74
39.218,-61.87
39.234,-52.68
39.250,-44.47
39.265,-38.08
39.281,-33.86
39.296,-31.72
39.312,-31.42
39.328,-32.72
39.343,-35.3
39.359,-38.67
39.375,-42.04
39.390,-44.43
39.406,-44.82
39.421,-42.61
39.437,-37.71
39.453,-30.54
39.468,-21.84
39.484,-12.38
39.500,-2.73
39.515,6.77
39.531,15.97
39.546,24.92
39.562,33.87
39.578,43.34
39.593,54.12
39.609,67.02
39.625,82.5
39.640,100.37
39.656,119.61
39.671,138.64
39.687,155.84
39.703,170.11
39.718,181.31
39.734,190.23
39.750,198.25
39.765,206.8
39.781,216.85
39.796,228.52
39.812,240.91
39.828,252.15
39.843,259.66
39.859,260.86
39.875,253.87
39.890,237.96
39.906,213.79
39.921,183.06
39.937,147.8
39.953,109.69
39.968,69.67
39.984,27.85
40.000,-16.29
40.015,-63.5
40.031,-114.06
40.046,-166.97
40.062,-219.42
40.078,-266.94
40.093,-304.44
40.109,-327.78
40.125,-335.26
40.140,-328.17
40.156,-310.13
40.171,-285.67
40.187,-258.8
40.203,-232.27
40.218,-207.68
40.234,-186.08
40.250,-168.36
40.265,-155.14
40.281,-146.45
40.296,-141.33
40.312,-138.14
40.328,-135.1
40.343,-130.99
40.359,-125.56
40.375,-119.3
40.390,-113.22
40.406,-108.39
40.421,-105.5
40.437,-104.63
40.453,-105.05
40.468,-105.38
40.484,-104.01
40.500,-99.63
40.515,-91.67
40.531,-80.51
40.546,-67.27
40.562,-53.31
40.578,-39.78
40.593,-27.34
40.609,-16.09
40.625,-5.92
40.640,3.27
40.656,11.39
40.671,18.18
40.687,23.44
40.703,27.13
40.718,29.47
40.734,30.76
40.750,31.3
40.765,31.26
40.781,30.65
40.796,29.48
40.812,27.83
40.828,25.94
40.843,24.13
40.859,22.65
40.875,21.58
40.890,20.8
40.906,20.03
40.921,19.01
40.937,17.56
40.953,15.66
40.968,13.35
40.984,10.8
41.000,8.14
41.015,5.49
41.031,2.86
41.046,0.1
41.062,-3.01
41.078,-6.58
41.093,-10.42
41.109,-13.89
41.125,-16.01
41.140,-15.83
41.156,-12.87
41.171,-7.31
41.187,0.1
41.203,8.3
41.218,16.38
41.234,23.82
41.250,30.37
41.265,35.99
41.281,40.6
41.296,44.08
41.312,46.41
41.328,47.69
41.343,48.22
41.359,48.32
41.375,48.21
41.390,48.0
41.406,47.62
41.421,46.99
41.437,46.07
41.453,44.93
41.468,43.64
41.484,42.32
41.500,40.98
41.515,39.61
41.531,38.15
41.546,36.5
41.562,34.63
41.578,32.51
41.593,30.14
41.609,27.45
41.625,24.35
41.640,20.65
41.656,16.2
41.671,11.03
41.687,5.41
41.703,-0.04
41.718,-4.49
41.734,-7.1
41.750,-7.31
41.765,-5.03
41.781,-0.62
41.796,5.18
41.812,11.58
41.828,17.93
41.843,23.84
41.859,29.16
41.875,33.82
41.890,37.74
41.906,40.78
41.921,42.82
41.937,43.84
41.953,43.98
41.968,43.55
41.984,42.85
42.000,42.15
42.015,41.6
42.031,41.19
42.046,40.79
42.062,40.2
42.078,39.17
42.093,37.56
42.109,35.34
42.125,32.68
42.140,29.86
42.156,27.17
42.171,24.79
42.187,22.78
42.203,21.02
42.218,19.29
42.234,17.32
42.250,14.9
42.265,11.89
42.281,8.35
42.296,4.59
42.312,1.15
42.328,-1.23
42.343,-1.86
42.359,-0.35
42.375,3.21
42.390,8.25
42.406,13.93
42.421,19.47
42.437,24.36
42.453,28.42
42.468,31.72
42.484,34.39
42.500,36.48
42.515,37.95
42.531,38.74
42.546,38.85
42.562,38.36
42.578,37.48
42.593,36.38
42.609,35.21
42.625,34.07
42.640,32.96
42.656,31.79
42.671,30.44
42.687,28.76
42.703,26.67
42.718,24.21
42.734,21.49
42.750,18.7
42.765,16.02
42.781,13.52
42.796,11.19
42.812,8.92
42.828,6.57
42.843,4.05
42.859,1.32
42.875,-1.53
42.890,-4.25
42.906,-6.48
42.921,-7.81
42.937,-7.84
42.953,-6.34
42.968,-3.32
42.984,0.97
43.000,6.07
43.015,11.48
43.031,16.74
43.046,21.55
43.062,25.74
43.078,29.28
43.093,32.21
43.109,34.59
43.125,36.48
43.140,37.94
43.156,39.02
43.171,39.73
43.187,40.11
43.203,40.16
43.218,39.93
43.234,39.47
43.250,38.89
43.265,38.27
43.281,37.61
43.296,36.87
43.312,35.95
43.328,34.77
43.343,33.31
43.359,31.59
43.375,29.66
43.390,27.58
43.406,25.3
43.421,22.75
43.437,19.85
43.453,16.54
43.468,12.93
43.484,9.24
43.500,5.8
43.515,2.98
43.531,1.11
43.546,0.38
43.562,0.83
43.578,2.28
43.593,4.48
43.609,7.09
43.625,9.81
43.640,12.37
43.656,14.52
43.671,16.11
43.687,16.98
43.703,17.11
43.718,16.57
43.734,15.51
43.750,14.17
43.765,12.75
43.781,11.4
43.796,10.18
43.812,9.08
43.828,8.06
43.843,7.09
43.859,6.13
43.875,5.12
43.890,4.04
43.906,2.84
43.921,1.51
43.937,0.04
43.953,-1.55
43.968,-3.26
43.984,-5.09
44.000,-7.07
44.015,-9.31
44.031,-11.89
44.046,-14.83
44.062,-18.02
44.078,-21.21
44.093,-24.01
44.109,-25.95
44.125,-26.69
44.140,-26.02
44.156,-24.05
44.171,-21.05
44.187,-17.42
44.203,-13.56
44.218,-9.72
44.234,-6.11
44.250,-2.82
44.265,0.05
44.281,2.32
44.296,3.78
44.312,4.21
44.328,3.53
44.343,1.84
44.359,-0.54
44.375,-3.23
44.390,-5.81
44.406,-8.07
44.421,-9.98
44.437,-11.66
44.453,-13.3
44.468,-14.97
44.484,-16.66
44.500,-18.21
44.515,-19.51
44.531,-20.49
44.546,-21.21
44.562,-21.77
44.578,-22.29
44.593,-22.87
44.609,-23.55
44.625,-24.38
44.640,-25.37
44.656,-26.48
44.671,-27.52
44.687,-28.21
44.703,-28.17
44.718,-27.12
44.734,-24.92
44.750,-21.69
44.765,-17.74
44.781,-13.44
44.796,-9.13
44.812,-5.0
44.828,-1.17
44.843,2.32
44.859,5.38
44.875,7.91
44.890,9.79
44.906,10.99
44.921,11.52
44.937,11.5
44.953,11.08
44.968,10.4
44.984,9.62
45.000,8.82
45.015,8.04
45.031,7.29
45.046,6.56
45.062,5.8
45.078,4.97
45.093,4.01
45.109,2.89
45.125,1.59
45.140,0.14
45.156,-1.38
45.171,-2.86
45.187,-4.24
45.203,-5.52
45.218,-6.82
45.234,-8.37
45.250,-10.38
45.265,-12.89
45.281,-15.73
45.296,-18.44
45.312,-20.41
45.328,-21.11
45.343,-20.23
45.359,-17.86
45.375,-14.41
45.390,-10.45
45.406,-6.51
45.421,-2.93
45.437,0.19
45.453,2.99
45.468,5.6
45.484,8.14
45.500,10.64
45.515,12.99
45.531,15.11
45.546,16.87
45.562,18.22
45.578,19.15
45.593,19.66
45.609,19.76
45.625,19.46
45.640,18.79
45.656,17.82
45.671,16.71
45.687,15.61
45.703,14.61
45.718,13.7
45.734,12.75
45.750,11.57
45.765,10.03
45.781,8.09
45.796,5.85
45.812,3.43
45.828,0.95
45.843,-1.6
45.859,-4.28
45.875,-7.16
45.890,-10.25
45.906,-13.45
45.921,-16.54
45.937,-19.27
45.953,-21.36
45.968,-22.58
45.984,-22.75
46.000,-21.78
46.015,-19.68
46.031,-16.6
46.046,-12.82
46.062,-8.73
46.078,-4.72
46.093,-1.08
46.109,2.01
46.125,4.57
46.140,6.7
46.156,8.55
46.171,10.2
46.187,11.69
46.203,12.97
46.218,14.0
46.234,14.74
46.250,15.18
46.265,15.37
46.281,15.36
46.296,15.2
46.312,14.94
46.328,14.58
46.343,14.1
46.359,13.41
46.375,12.46
46.390,11.21
46.406,9.72
46.421,8.11
46.437,6.51
46.453,4.99
46.468,3.55
46.484,2.16
46.500,0.81
46.515,-0.45
46.531,-1.54
46.546,-2.41
46.562,-3.14
46.578,-3.94
46.593,-5.07
46.609,-6.73
46.625,-8.9
46.640,-11.27
46.656,-13.35
46.671,-14.62
46.687,-14.71
46.703,-13.53
46.718,-11.23
46.734,-8.14
46.750,-4.68
46.765,-1.13
46.781,2.31
46.796,5.62
46.812,8.8
46.828,11.85
46.843,14.73
46.859,17.36
46.875,19.66
46.890,21.58
46.906,23.1
46.921,24.23
46.937,24.98
46.953,25.39
46.968,25.51
46.984,25.42
47.000,25.23
47.015,25.04
47.031,24.91
47.046,24.84
47.062,24.76
47.078,24.6
47.093,24.27
47.109,23.66
47.125,22.71
47.140,21.38
47.156,19.71
47.171,17.88
47.187,16.09
47.203,14.52
47.218,13.26
47.234,12.18
47.250,11.05
47.265,9.61
47.281,7.66
47.296,5.21
47.312,2.42
47.328,-0.42
47.343,-3.01
47.359,-5.07
47.375,-6.43
47.390,-7.02
47.406,-6.87
47.421,-6.06
47.437,-4.75
47.453,-3.11
47.468,-1.32
47.484,0.46
47.500,2.07
47.515,3.37
47.531,4.28
47.546,4.71
47.562,4.72
47.578,4.43
47.593,4.0
47.609,3.58
47.625,3.22
47.640,2.94
47.656,2.66
47.671,2.37
47.687,2.05
47.703,1.74
47.718,1.5
47.734,1.34
47.750,1.28
47.765,1.27
47.781,1.25
47.796,1.16
47.812,0.92
47.828,0.44
47.843,-0.31
47.859,-1.33
47.875,-2.51
47.890,-3.81
47.906,-5.16
47.921,-6.57
47.937,-8.09
47.953,-9.71
47.968,-11.45
47.984,-13.27
48.000,-15.13
48.015,-16.94
48.031,-18.55
48.046,-19.75
48.062,-20.28
48.078,-19.96
48.093,-18.75
48.109,-16.78
48.125,-14.31
48.140,-11.61
48.156,-8.9
48.171,-6.3
48.187,-3.92
48.203,-1.88
48.218,-0.29
48.234,0.78
48.250,1.36
48.265,1.56
48.281,1.51
48.296,1.3
48.312,0.94
48.328,0.38
48.343,-0.36
48.359,-1.21
48.375,-2.06
48.390,-2.78
48.406,-3.31
48.421,-3.66
48.437,-3.88
48.453,-4.04
48.468,-4.2
48.484,-4.47
48.500,-4.99
48.515,-5.88
48.531,-7.22
48.546,-8.94
48.562,-10.85
48.578,-12.72
48.593,-14.42
48.609,-15.92
48.625,-17.33
48.640,-18.83
48.656,-20.45
48.671,-22.1
48.687,-23.49
48.703,-24.25
48.718,-24.08
48.734,-22.88
48.750,-20.71
48.765,-17.85
48.781,-14.62
48.796,-11.32
48.812,-8.16
48.828,-5.21
48.843,-2.52
48.859,-0.11
48.875,1.95
48.890,3.57
48.906,4.68
48.921,5.31
48.937,5.5
48.953,5.35
48.968,4.99
48.984,4.48
49.000,3.91
49.015,3.31
49.031,2.71
49.046,2.1
49.062,1.45
49.078,0.7
49.093,-0.2
49.109,-1.2
49.125,-2.26
49.140,-3.29
49.156,-4.26
49.171,-5.19
49.187,-6.18
49.203,-7.29
49.218,-8.57
49.234,-10.02
49.250,-11.58
49.265,-13.25
49.281,-15.02
49.296,-16.91
49.312,-18.88
49.328,-20.81
49.343,-22.46
49.359,-23.55
49.375,-23.85
49.390,-23.23
49.406,-21.73
49.421,-19.5
49.437,-16.72
49.453,-13.58
49.468,-10.21
49.484,-6.76
49.500,-3.37
49.515,-0.23
49.531,2.51
49.546,4.73
49.562,6.36
49.578,7.36
49.593,7.77
49.609,7.67
49.625,7.22
49.640,6.61
49.656,6.02
49.671,5.55
49.687,5.17
49.703,4.79
49.718,4.27
49.734,3.55
49.750,2.66
49.765,1.72
49.781,0.82
49.796,-0.05
49.812,-0.94
49.828,-1.97
49.843,-3.2
49.859,-4.58
49.875,-6.05
49.890,-7.49
49.906,-8.81
49.921,-9.99
49.937,-11.08
49.953,-12.17
49.968,-13.4
49.984,-14.93
50.000,-16.88
50.015,-19.27
50.031,-21.95
50.046,-24.62
50.062,-26.84
50.078,-28.15
50.093,-28.18
50.109,-26.8
50.125,-24.17
50.140,-20.71
50.156,-16.92
50.171,-13.22
50.187,-9.81
50.203,-6.64
50.218,-3.55
50.234,-0.41
50.250,2.75
50.265,5.69
50.281,8.09
50.296,9.75
50.312,10.59
50.328,10.78
50.343,10.58
50.359,10.22
50.375,9.84
50.390,9.42
50.406,8.92
50.421,8.29
50.437,7.56
50.453,6.81
50.468,6.08
50.484,5.38
50.500,4.67
50.515,3.9
50.531,3.05
50.546,2.14
50.562,1.2
50.578,0.22
50.593,-0.86
50.609,-2.13
50.625,-3.61
50.640,-5.23
50.656,-6.81
50.671,-8.19
50.687,-9.28
50.703,-10.15
50.718,-11.01
50.734,-12.11
50.750,-13.64
50.765,-15.62
50.781,-17.95
50.796,-20.33
50.812,-22.32
50.828,-23.45
50.843,-23.29
50.859,-21.59
50.875,-18.42
50.890,-14.11
50.906,-9.21
50.921,-4.27
50.937,0.35
50.953,4.46
50.968,8.12
50.984,11.4
51.000,14.35
51.015,16.9
51.031,18.97
51.046,20.53
51.062,21.62
51.078,22.36
51.093,22.89
51.109,23.26
51.125,23.51
51.140,23.6
51.156,23.51
51.171,23.28
51.187,22.97
51.203,22.64
51.218,22.37
51.234,22.12
51.250,21.83
51.265,21.43
51.281,20.86
51.296,20.1
51.312,19.18
51.328,18.13
51.343,16.93
51.359,15.58
51.375,14.03
51.390,12.34
51.406,10.56
51.421,8.82
51.437,7.19
51.453,5.67
51.468,4.19
51.484,2.64
51.500,0.91
51.515,-1.07
51.531,-3.31
51.546,-5.76
51.562,-8.3
51.578,-10.69
51.593,-12.55
51.609,-13.49
51.625,-13.13
51.640,-11.35
51.656,-8.34
51.671,-4.53
51.687,-0.45
51.703,3.44
51.718,6.9
51.734,9.87
51.750,12.37
51.765,14.44
51.781,15.96
51.796,16.83
51.812,16.96
51.828,16.4
51.843,15.36
51.859,14.08
51.875,12.81
51.890,11.7
51.906,10.83
51.921,10.23
51.937,9.9
51.953,9.84
51.968,10.01
51.984,10.35
52.000,10.77
52.015,11.19
52.031,11.53
52.046,11.79
52.062,12.0
52.078,12.2
52.093,12.45
52.109,12.78
52.125,13.2
52.140,13.73
52.156,14.39
52.171,15.24
52.187,16.36
52.203,17.85
52.218,19.75
52.234,22.0
52.250,24.37
52.265,26.61
52.281,28.57
52.296,30.43
52.312,32.87
52.328,36.95
52.343,43.88
52.359,54.68
52.375,69.84
52.390,89.26
52.406,112.3
52.421,137.99
52.437,165.08
52.453,192.14
52.468,217.47
52.484,239.21
52.500,255.4
52.515,264.33
52.531,264.79
52.546,256.33
52.562,239.39
52.578,215.3
52.593,186.04
52.609,153.92
52.625,121.08
52.640,89.06
52.656,58.58
52.671,29.47
52.687,0.95
52.703,-28.11
52.718,-59.1
52.734,-93.33
52.750,-131.56
52.765,-173.08
52.781,-215.22
52.796,-253.65
52.812,-283.51
52.828,-301.31
52.843,-306.32
52.859,-300.74
52.875,-288.59
52.890,-273.76
52.906,-258.45
52.921,-242.95
52.937,-226.47
52.953,-208.47
52.968,-189.47
52.984,-170.75
53.000,-153.46
53.015,-137.65
53.031,-122.14
53.046,-105.04
53.062,-84.77
53.078,-60.83
53.093,-33.91
53.109,-5.66
53.125,22.13
53.140,48.13
53.156,71.99
53.171,94.41
53.187,116.7
53.203,140.22
53.218,165.72
53.234,192.89
53.250,220.41
53.265,246.31
53.281,268.56
53.296,285.51
53.312,295.92
53.328,298.91
53.343,293.81
53.359,280.26
53.375,258.56
53.390,229.87
53.406,196.23
53.421,160.07
53.437,123.57
53.453,88.23
53.468,54.86
53.484,23.85
53.500,-4.3
53.515,-28.84
53.531,-48.87
53.546,-63.8
53.562,-73.75
53.578,-80.04
53.593,-85.16
53.609,-92.45
53.625,-105.15
53.640,-125.36
53.656,-152.95
53.671,-185.4
53.687,-218.57
53.703,-248.16
53.718,-271.23
53.734,-286.82
53.750,-295.42
53.765,-297.81
53.781,-294.32
53.796,-284.86
53.812,-269.99
53.828,-251.84
53.843,-234.04
53.859,-220.48
53.875,-213.52
53.890,-212.6
53.906,-214.37
53.921,-214.19
53.937,-208.16
53.953,-194.72
53.968,-174.88
53.984,-151.36
54.000,-127.25
54.015,-104.75
54.031,-84.82
54.046,-67.34
54.062,-51.76
54.078,-37.64
54.093,-24.88
54.109,-13.68
54.125,-4.21
54.140,3.61
54.156,10.09
54.171,15.68
54.187,20.71
54.203,25.11
54.218,28.55
54.234,30.46
54.250,30.42
54.265,28.43
54.281,24.93
54.296,20.8
54.312,16.96
54.328,14.05
54.343,12.11
54.359,10.61
54.375,8.66
54.390,5.43
54.406,0.49
54.421,-5.99
54.437,-13.22
54.453,-20.15
54.468,-25.71
54.484,-29.24
54.500,-30.57
54.515,-30.03
54.531,-28.2
54.546,-25.63
54.562,-22.69
54.578,-19.4
54.593,-15.57
54.609,-11.0
54.625,-5.63
54.640,0.36
54.656,6.6
54.671,12.66
54.687,18.17
54.703,22.94
54.718,27.0
54.734,30.46
54.750,33.48
54.765,36.12
54.781,38.31
54.796,39.9
54.812,40.74
54.828,40.83
54.843,40.36
54.859,39.63
54.875,38.92
54.890,38.37
54.906,37.96
54.921,37.54
54.937,36.95
54.953,36.14
54.968,35.24
54.984,34.47
55.000,34.07
55.015,34.14
55.031,34.61
55.046,35.22
55.062,35.61
55.078,35.45
55.093,34.47
55.109,32.66
55.125,30.29
55.140,27.97
55.156,26.53
55.171,26.78
55.187,29.19
55.203,33.71
55.218,39.75
55.234,46.33
55.250,52.46
55.265,57.39
55.281,60.79
55.296,62.68
55.312,63.23
55.328,62.6
55.343,60.87
55.359,58.12
55.375,54.43
55.390,49.95
55.406,44.9
55.421,39.41
55.437,33.53
55.453,27.27
55.468,20.63
55.484,13.77
55.500,6.93
55.515,0.44
55.531,-5.45
55.546,-10.61
55.562,-15.07
55.578,-18.95
55.593,-22.42
55.609,-25.56
55.625,-28.37
55.640,-30.75
55.656,-32.57
55.671,-33.75
55.687,-34.27
55.703,-34.31
55.718,-34.2
55.734,-34.38
55.750,-35.25
55.765,-36.98
55.781,-39.36
55.796,-41.78
55.812,-43.39
55.828,-43.34
55.843,-41.05
55.859,-36.34
55.875,-29.5
55.890,-21.15
55.906,-12.07
55.921,-3.1
55.937,5.08
55.953,11.93
55.968,17.16
55.984,20.73
56.000,22.86
56.015,23.93
56.031,24.45
56.046,24.78
56.062,25.14
56.078,25.52
56.093,25.77
56.109,25.75
56.125,25.36
56.140,24.65
56.156,23.76
56.171,22.84
56.187,21.94
56.203,21.03
56.218,19.97
56.234,18.61
56.250,16.82
56.265,14.54
56.281,11.76
56.296,8.57
56.312,5.09
56.328,1.49
56.343,-2.03
56.359,-5.32
56.375,-8.31
56.390,-11.15
56.406,-14.08
56.421,-17.42
56.437,-21.42
56.453,-26.03
56.468,-30.9
56.484,-35.31
56.500,-38.35
56.515,-39.2
56.531,-37.35
56.546,-32.8
56.562,-25.98
56.578,-17.75
56.593,-9.01
56.609,-0.57
56.625,7.04
56.640,13.6
56.656,19.08
56.671,23.6
56.687,27.25
56.703,30.16
56.718,32.42
56.734,34.12
56.750,35.34
56.765,36.09
56.781,36.34
56.796,36.06
56.812,35.28
56.828,34.15
56.843,32.93
56.859,31.93
56.875,31.34
56.890,31.21
56.906,31.37
56.921,31.66
56.937,31.91
56.953,32.12
56.968,32.4
56.984,32.98
57.000,34.08
57.015,35.82
57.031,38.2
57.046,41.1
57.062,44.37
57.078,47.99
57.093,52.11
57.109,56.99
57.125,62.98
57.140,70.3
57.156,79.05
57.171,89.17
57.187,100.58
57.203,113.36
57.218,127.79
57.234,144.29
57.250,163.17
57.265,184.51
57.281,208.03
57.296,233.17
57.312,259.14
57.328,284.94
57.343,309.4
57.359,331.13
57.375,348.62
57.390,360.56
57.406,366.19
57.421,365.53
57.437,359.25
57.453,348.21
57.468,332.91
57.484,313.28
57.500,288.84
57.515,259.42
57.531,225.7
57.546,189.45
57.562,152.9
57.578,118.05
57.593,85.85
57.609,56.02
57.625,27.44
57.640,-1.1
57.656,-30.48
57.671,-61.22
57.687,-93.51
57.703,-127.12
57.718,-160.89
57.734,-192.4
57.750,-218.35
57.765,-235.76
57.781,-243.4
57.796,-242.64
57.812,-236.93
57.828,-230.23
57.843,-225.19
57.859,-222.3
57.875,-220.4
57.890,-218.07
57.906,-214.82
57.921,-211.3
57.937,-208.36
57.953,-205.94
57.968,-202.61
57.984,-196.35
58.000,-185.76
58.015,-171.24
58.031,-154.91
58.046,-139.61
58.062,-127.78
58.078,-120.51
58.093,-117.52
58.109,-117.64
58.125,-119.43
58.140,-121.53
58.156,-122.65
58.171,-121.67
58.187,-117.77
58.203,-110.82
58.218,-101.54
58.234,-91.34
58.250,-81.66
58.265,-73.34
58.281,-66.24
58.296,-59.47
58.312,-52.0
58.328,-43.27
58.343,-33.42
58.359,-23.04
58.375,-12.66
58.390,-2.47
58.406,7.7
58.421,18.11
58.437,28.67
58.453,39.04
58.468,48.69
58.484,57.3
58.500,64.94
58.515,72.0
58.531,78.86
58.546,85.55
58.562,91.61
58.578,96.21
58.593,98.54
58.609,98.22
58.625,95.51
58.640,91.21
58.656,86.43
58.671,82.25
58.687,79.35
58.703,78.0
58.718,78.03
58.734,79.08
58.750,80.64
58.765,82.14
58.781,82.93
58.796,82.29
58.812,79.62
58.828,74.7
58.843,67.85
58.859,59.96
58.875,52.2
58.890,45.56
58.906,40.5
58.921,36.89
58.937,34.41
58.953,33.14
58.968,33.95
58.984,38.2
59.000,46.89
59.015,59.49
59.031,73.34
59.046,83.96
59.062,86.37
59.078,76.87
59.093,54.41
59.109,20.82
59.125,-20.0
59.140,-63.45
59.156,-105.27
59.171,-141.69
59.187,-169.18
59.203,-184.41
59.218,-185.23
59.234,-172.0
59.250,-148.79
59.265,-122.94
59.281,-102.84
59.296,-94.91
59.312,-101.0
59.328,-117.92
59.343,-139.06
59.359,-157.4
59.375,-168.24
59.390,-170.31
59.406,-165.18
59.421,-155.66
59.437,-144.22
59.453,-132.48
59.468,-121.38
59.484,-111.81
59.500,-104.96
59.515,-102.16
59.531,-104.28
59.546,-111.14
59.562,-121.16
59.578,-131.83
59.593,-140.43
59.609,-144.96
59.625,-144.78
59.640,-140.66
59.656,-134.3
59.671,-127.53
59.687,-121.58
59.703,-116.74
59.718,-112.59
59.734,-108.38
59.750,-103.66
59.765,-98.53
59.781,-93.56
59.796,-89.52
59.812,-86.96
59.828,-85.9
59.843,-85.79
59.859,-85.63
59.875,-84.32
59.890,-80.94
59.906,-75.04
59.921,-66.66
59.937,-56.32
59.953,-44.77
59.968,-32.82
59.984,-21.12
