timestamp,value
00.000,32.44
00.015,30.19
00.031,27.61
00.046,24.99
00.062,22.64
00.078,20.83
00.093,19.72
00.109,19.27
00.125,19.26
00.140,19.29
00.156,18.93
00.171,17.84
00.187,15.89
00.203,13.23
00.218,10.29
00.234,7.56
00.250,5.56
00.265,4.65
00.281,4.88
00.296,6.0
00.312,7.59
00.328,9.11
00.343,10.05
00.359,10.11
00.375,9.08
00.390,7.02
00.406,4.17
00.421,0.91
00.437,-2.25
00.453,-4.78
00.468,-6.26
00.484,-6.54
00.500,-5.73
00.515,-4.23
00.531,-2.56
00.546,-1.19
00.562,-0.46
00.578,-0.46
00.593,-1.14
00.609,-2.31
00.625,-3.8
00.640,-5.42
00.656,-7.0
00.671,-8.39
00.687,-9.47
00.703,-10.2
00.718,-10.61
00.734,-10.89
00.750,-11.26
00.765,-12.03
00.781,-13.42
00.796,-15.59
00.812,-18.49
00.828,-21.8
00.843,-25.05
00.859,-27.67
00.875,-29.22
00.890,-29.51
00.906,-28.79
00.921,-27.56
00.937,-26.65
00.953,-26.81
00.968,-28.57
00.984,-32.09
01.000,-37.03
01.015,-42.46
01.031,-47.0
01.046,-49.1
01.062,-47.44
01.078,-41.43
01.093,-31.57
01.109,-19.4
01.125,-7.09
01.140,3.17
01.156,9.82
01.171,12.23
01.187,10.75
01.203,6.38
01.218,0.37
01.234,-6.23
01.250,-12.58
01.265,-18.13
01.281,-22.43
01.296,-25.14
01.312,-26.18
01.328,-25.65
01.343,-23.98
01.359,-21.72
01.375,-19.36
01.390,-17.21
01.406,-15.24
01.421,-13.18
01.437,-10.69
01.453,-7.62
01.468,-4.03
01.484,-0.33
01.500,2.91
01.515,5.1
01.531,5.78
01.546,4.8
01.562,2.3
01.578,-1.25
01.593,-5.29
01.609,-9.2
01.625,-12.53
01.640,-15.09
01.656,-16.89
01.671,-18.19
01.687,-19.35
01.703,-20.78
01.718,-22.78
01.734,-25.45
01.750,-28.62
01.765,-31.78
01.781,-34.18
01.796,-34.97
01.812,-33.47
01.828,-29.3
01.843,-22.57
01.859,-13.81
01.875,-3.8
01.890,6.56
01.906,16.48
01.921,25.39
01.937,33.02
01.953,39.24
01.968,44.09
01.984,47.56
02.000,49.67
02.015,50.57
02.031,50.46
02.046,49.79
02.062,48.98
02.078,48.4
02.093,48.09
02.109,47.86
02.125,47.33
02.140,46.17
02.156,44.32
02.171,41.89
02.187,39.17
02.203,36.4
02.218,33.71
02.234,31.18
02.250,28.89
02.265,26.88
02.281,25.09
02.296,23.32
02.312,21.16
02.328,18.31
02.343,14.6
02.359,10.11
02.375,5.14
02.390,0.03
02.406,-4.97
02.421,-9.77
02.437,-14.3
02.453,-18.58
02.468,-22.51
02.484,-26.03
02.500,-29.16
02.515,-31.84
02.531,-33.94
02.546,-35.08
02.562,-34.8
02.578,-32.6
02.593,-28.35
02.609,-22.24
02.625,-14.85
02.640,-6.95
02.656,0.75
02.671,7.61
02.687,13.15
02.703,16.88
02.718,18.35
02.734,17.24
02.750,13.46
02.765,7.36
02.781,-0.33
02.796,-8.59
02.812,-16.51
02.828,-23.38
02.843,-28.86
02.859,-32.95
02.875,-35.86
02.890,-37.92
02.906,-39.42
02.921,-40.62
02.937,-41.65
02.953,-42.59
02.968,-43.47
02.984,-44.27
03.000,-45.02
03.015,-45.72
03.031,-46.48
03.046,-47.3
03.062,-48.13
03.078,-48.84
03.093,-49.28
03.109,-49.39
03.125,-49.31
03.140,-49.4
03.156,-50.09
03.171,-51.76
03.187,-54.56
03.203,-58.27
03.218,-62.33
03.234,-65.83
03.250,-67.73
03.265,-67.04
03.281,-63.19
03.296,-56.06
03.312,-46.11
03.328,-34.18
03.343,-21.35
03.359,-8.62
03.375,3.26
03.390,13.75
03.406,22.63
03.421,29.84
03.437,35.48
03.453,39.74
03.468,42.86
03.484,45.09
03.500,46.66
03.515,47.7
03.531,48.29
03.546,48.47
03.562,48.33
03.578,47.92
03.593,47.32
03.609,46.64
03.625,46.05
03.640,45.83
03.656,46.21
03.671,47.28
03.687,48.96
03.703,50.91
03.718,52.63
03.734,53.61
03.750,53.45
03.765,52.08
03.781,49.7
03.796,46.7
03.812,43.58
03.828,40.78
03.843,38.54
03.859,36.87
03.875,35.53
03.890,34.0
03.906,31.66
03.921,27.96
03.937,22.68
03.953,16.01
03.968,8.67
03.984,1.72
04.000,-3.65
04.015,-6.42
04.031,-6.1
04.046,-2.77
04.062,2.93
04.078,10.04
04.093,17.44
04.109,24.15
04.125,29.41
04.140,32.77
04.156,34.1
04.171,33.48
04.187,31.19
04.203,27.64
04.218,23.34
04.234,18.82
04.250,14.54
04.265,10.8
04.281,7.68
04.296,5.07
04.312,2.68
04.328,0.22
04.343,-2.53
04.359,-5.55
04.375,-8.61
04.390,-11.42
04.406,-13.76
04.421,-15.52
04.437,-16.81
04.453,-17.84
04.468,-18.88
04.484,-20.21
04.500,-22.04
04.515,-24.5
04.531,-27.69
04.546,-31.59
04.562,-36.14
04.578,-41.2
04.593,-46.48
04.609,-51.63
04.625,-56.35
04.640,-60.48
04.656,-64.1
04.671,-67.51
04.687,-71.07
04.703,-74.87
04.718,-78.66
04.734,-81.67
04.750,-82.82
04.765,-81.17
04.781,-76.24
04.796,-68.1
04.812,-57.38
04.828,-45.05
04.843,-32.07
04.859,-19.26
04.875,-7.25
04.890,3.59
04.906,13.01
04.921,20.86
04.937,27.1
04.953,31.79
04.968,35.15
04.984,37.46
05.000,39.09
05.015,40.33
05.031,41.45
05.046,42.49
05.062,43.36
05.078,43.87
05.093,43.83
05.109,43.19
05.125,42.01
05.140,40.4
05.156,38.46
05.171,36.3
05.187,33.92
05.203,31.36
05.218,28.7
05.234,25.99
05.250,23.32
05.265,20.67
05.281,17.9
05.296,14.82
05.312,11.26
05.328,7.1
05.343,2.43
05.359,-2.5
05.375,-7.38
05.390,-11.82
05.406,-15.6
05.421,-18.75
05.437,-21.5
05.453,-24.27
05.468,-27.59
05.484,-31.77
05.500,-36.86
05.515,-42.53
05.531,-48.0
05.546,-52.16
05.562,-53.94
05.578,-52.45
05.593,-47.37
05.609,-39.03
05.625,-28.28
05.640,-16.19
05.656,-3.85
05.671,7.97
05.687,18.77
05.703,28.28
05.718,36.36
05.734,42.92
05.750,47.92
05.765,51.41
05.781,53.59
05.796,54.74
05.812,55.19
05.828,55.16
05.843,54.69
05.859,53.69
05.875,52.01
05.890,49.56
05.906,46.43
05.921,42.89
05.937,39.25
05.953,35.77
05.968,32.58
05.984,29.63
06.000,26.79
06.015,23.99
06.031,21.19
06.046,18.41
06.062,15.61
06.078,12.62
06.093,9.28
06.109,5.52
06.125,1.43
06.140,-2.74
06.156,-6.69
06.171,-10.25
06.187,-13.43
06.203,-16.42
06.218,-19.51
06.234,-22.83
06.250,-26.39
06.265,-30.06
06.281,-33.65
06.296,-37.16
06.312,-40.73
06.328,-44.59
06.343,-48.99
06.359,-54.05
06.375,-59.66
06.390,-65.45
06.406,-70.86
06.421,-75.1
06.437,-77.43
06.453,-77.23
06.468,-74.08
06.484,-67.94
06.500,-59.13
06.515,-48.32
06.531,-36.36
06.546,-24.22
06.562,-12.65
06.578,-2.26
06.593,6.63
06.609,13.94
06.625,19.73
06.640,24.09
06.656,27.11
06.671,28.95
06.687,29.73
06.703,29.74
06.718,29.2
06.734,28.39
06.750,27.49
06.765,26.61
06.781,25.83
06.796,25.17
06.812,24.66
06.828,24.23
06.843,23.81
06.859,23.19
06.875,22.16
06.890,20.6
06.906,18.45
06.921,15.8
06.937,12.88
06.953,9.97
06.968,7.33
06.984,5.25
07.000,3.77
07.015,2.8
07.031,2.07
07.046,1.18
07.062,-0.22
07.078,-2.28
07.093,-4.94
07.109,-8.0
07.125,-11.15
07.140,-14.11
07.156,-16.7
07.171,-18.79
07.187,-20.43
07.203,-21.73
07.218,-22.97
07.234,-24.54
07.250,-26.84
07.265,-30.04
07.281,-33.9
07.296,-37.7
07.312,-40.32
07.328,-40.66
07.343,-37.9
07.359,-31.82
07.375,-22.87
07.390,-12.01
07.406,-0.36
07.421,11.04
07.437,21.49
07.453,30.59
07.468,38.16
07.484,44.1
07.500,48.36
07.515,51.0
07.531,52.21
07.546,52.46
07.562,52.25
07.578,52.03
07.593,51.98
07.609,52.02
07.625,51.86
07.640,51.16
07.656,49.72
07.671,47.52
07.687,44.71
07.703,41.5
07.718,38.11
07.734,34.76
07.750,31.64
07.765,28.9
07.781,26.55
07.796,24.44
07.812,22.3
07.828,19.84
07.843,16.83
07.859,13.23
07.875,9.22
07.890,5.0
07.906,0.82
07.921,-3.12
07.937,-6.69
07.953,-9.81
07.968,-12.4
07.984,-14.52
08.000,-16.32
08.015,-18.07
08.031,-20.1
08.046,-22.7
08.062,-26.04
08.078,-30.14
08.093,-34.9
08.109,-40.02
08.125,-45.06
08.140,-49.35
08.156,-52.14
08.171,-52.66
08.187,-50.4
08.203,-45.27
08.218,-37.7
08.234,-28.5
08.250,-18.61
08.265,-8.86
08.281,0.26
08.296,8.59
08.312,16.24
08.328,23.36
08.343,30.04
08.359,36.17
08.375,41.46
08.390,45.59
08.406,48.27
08.421,49.39
08.437,49.07
08.453,47.63
08.468,45.45
08.484,42.9
08.500,40.35
08.515,38.08
08.531,36.28
08.546,35.02
08.562,34.16
08.578,33.47
08.593,32.57
08.609,31.08
08.625,28.73
08.640,25.43
08.656,21.26
08.671,16.5
08.687,11.52
08.703,6.76
08.718,2.69
08.734,-0.37
08.750,-2.46
08.765,-3.89
08.781,-5.29
08.796,-7.3
08.812,-10.32
08.828,-14.43
08.843,-19.3
08.859,-24.37
08.875,-29.08
08.890,-33.03
08.906,-36.0
08.921,-38.07
08.937,-39.56
08.953,-40.91
08.968,-42.76
08.984,-45.6
09.000,-49.66
09.015,-54.74
09.031,-60.07
09.046,-64.57
09.062,-67.12
09.078,-66.86
09.093,-63.41
09.109,-57.01
09.125,-48.24
09.140,-37.98
09.156,-27.16
09.171,-16.55
09.187,-6.76
09.203,1.83
09.218,9.02
09.234,14.73
09.250,18.97
09.265,21.85
09.281,23.54
09.296,24.36
09.312,24.69
09.328,24.9
09.343,25.14
09.359,25.42
09.375,25.44
09.390,24.95
09.406,23.77
09.421,21.94
09.437,19.68
09.453,17.25
09.468,14.88
09.484,12.7
09.500,10.85
09.515,9.36
09.531,8.31
09.546,7.65
09.562,7.2
09.578,6.61
09.593,5.54
09.609,3.68
09.625,0.95
09.640,-2.48
09.656,-6.29
09.671,-10.1
09.687,-13.58
09.703,-16.49
09.718,-18.77
09.734,-20.47
09.750,-21.8
09.765,-23.01
09.781,-24.38
09.796,-26.13
09.812,-28.39
09.828,-31.15
09.843,-34.41
09.859,-38.06
09.875,-41.99
09.890,-46.11
09.906,-50.22
09.921,-54.02
09.937,-57.08
09.953,-58.93
09.968,-59.06
09.984,-57.12
10.000,-52.95
10.015,-46.68
10.031,-38.78
10.046,-29.85
10.062,-20.52
10.078,-11.34
10.093,-2.71
10.109,5.13
10.125,12.0
10.140,17.73
10.156,22.27
10.171,25.57
10.187,27.72
10.203,28.94
10.218,29.48
10.234,29.65
10.250,29.66
10.265,29.73
10.281,29.98
10.296,30.57
10.312,31.59
10.328,33.04
10.343,34.73
10.359,36.34
10.375,37.47
10.390,37.67
10.406,36.7
10.421,34.47
10.437,31.26
10.453,27.57
10.468,23.99
10.484,21.07
10.500,19.09
10.515,18.0
10.531,17.35
10.546,16.55
10.562,14.96
10.578,12.25
10.593,8.45
10.609,3.83
10.625,-1.08
10.640,-5.75
10.656,-9.74
10.671,-12.79
10.687,-14.89
10.703,-16.31
10.718,-17.57
10.734,-19.26
10.750,-21.92
10.765,-25.64
10.781,-30.06
10.796,-34.34
10.812,-37.37
10.828,-38.13
10.843,-35.94
10.859,-30.62
10.875,-22.56
10.890,-12.62
10.906,-1.87
10.921,8.57
10.937,17.84
10.953,25.42
10.968,31.15
10.984,35.08
11.000,37.42
11.015,38.34
11.031,38.06
11.046,36.92
11.062,35.34
11.078,33.78
11.093,32.59
11.109,31.87
11.125,31.42
11.140,30.95
11.156,30.12
11.171,28.84
11.187,27.16
11.203,25.27
11.218,23.28
11.234,21.27
11.250,19.25
11.265,17.26
11.281,15.41
11.296,13.77
11.312,12.4
11.328,11.18
11.343,9.83
11.359,7.99
11.375,5.3
11.390,1.58
11.406,-3.13
11.421,-8.49
11.437,-13.91
11.453,-18.73
11.468,-22.4
11.484,-24.75
11.500,-25.98
11.515,-26.74
11.531,-27.87
11.546,-30.19
11.562,-34.18
11.578,-39.82
11.593,-46.46
11.609,-52.95
11.625,-57.94
11.640,-60.1
11.656,-58.54
11.671,-53.03
11.687,-44.06
11.703,-32.68
11.718,-20.25
11.734,-8.08
11.750,2.85
11.765,11.98
11.781,19.22
11.796,24.71
11.812,28.8
11.828,31.81
11.843,34.06
11.859,35.78
11.875,37.09
11.890,38.02
11.906,38.5
11.921,38.42
11.937,37.64
11.953,36.15
11.968,33.99
11.984,31.31
12.000,28.39
12.015,25.51
12.031,23.03
12.046,21.23
12.062,20.33
12.078,20.22
12.093,20.62
12.109,20.95
12.125,20.61
12.140,19.09
12.156,16.2
12.171,12.17
12.187,7.49
12.203,2.82
12.218,-1.32
12.234,-4.59
12.250,-6.96
12.265,-8.58
12.281,-9.72
12.296,-10.7
12.312,-11.82
12.328,-13.41
12.343,-15.82
12.359,-19.32
12.375,-24.1
12.390,-30.06
12.406,-36.73
12.421,-43.31
12.437,-48.8
12.453,-52.21
12.468,-52.78
12.484,-50.18
12.500,-44.59
12.515,-36.6
12.531,-27.06
12.546,-16.82
12.562,-6.6
12.578,3.06
12.593,11.82
12.609,19.57
12.625,26.31
12.640,32.1
12.656,36.99
12.671,40.94
12.687,43.88
12.703,45.67
12.718,46.18
12.734,45.44
12.750,43.59
12.765,40.9
12.781,37.68
12.796,34.26
12.812,30.92
12.828,27.9
12.843,25.36
12.859,23.37
12.875,21.86
12.890,20.52
12.906,18.93
12.921,16.66
12.937,13.47
12.953,9.38
12.968,4.79
12.984,0.25
13.000,-3.74
13.015,-6.86
13.031,-9.18
13.046,-10.99
13.062,-12.75
13.078,-14.83
13.093,-17.48
13.109,-20.76
13.125,-24.61
13.140,-28.88
13.156,-33.42
13.171,-38.1
13.187,-42.78
13.203,-47.34
13.218,-51.71
13.234,-55.85
13.250,-59.74
13.265,-63.32
13.281,-66.38
13.296,-68.47
13.312,-69.0
13.328,-67.36
13.343,-63.24
13.359,-56.73
13.375,-48.26
13.390,-38.52
13.406,-28.21
13.421,-17.95
13.437,-8.13
13.453,0.89
13.468,8.92
13.484,15.71
13.500,21.05
13.515,24.88
13.531,27.2
13.546,28.19
13.562,28.13
13.578,27.41
13.593,26.45
13.609,25.65
13.625,25.28
13.640,25.39
13.656,25.82
13.671,26.28
13.687,26.47
13.703,26.12
13.718,25.02
13.734,23.07
13.750,20.33
13.765,17.05
13.781,13.64
13.796,10.57
13.812,8.19
13.828,6.69
13.843,5.88
13.859,5.31
13.875,4.36
13.890,2.57
13.906,-0.24
13.921,-3.97
13.937,-8.26
13.953,-12.72
13.968,-16.98
13.984,-20.78
14.000,-24.02
14.015,-26.76
14.031,-29.2
14.046,-31.61
14.062,-34.19
14.078,-36.9
14.093,-39.36
14.109,-40.91
14.125,-40.78
14.140,-38.32
14.156,-33.3
14.171,-25.95
14.187,-16.91
14.203,-6.99
14.218,3.0
14.234,12.4
14.250,20.67
14.265,27.47
14.281,32.6
14.296,36.03
14.312,37.84
14.328,38.3
14.343,37.82
14.359,36.93
14.375,36.14
14.390,35.85
14.406,36.24
14.421,37.24
14.437,38.54
14.453,39.72
14.468,40.34
14.484,40.06
14.500,38.71
14.515,36.29
14.531,32.97
14.546,29.02
14.562,24.86
14.578,20.88
14.593,17.44
14.609,14.74
14.625,12.65
14.640,10.85
14.656,8.83
14.671,6.1
14.687,2.42
14.703,-2.22
14.718,-7.49
14.734,-12.98
14.750,-18.28
14.765,-23.11
14.781,-27.31
14.796,-30.85
14.812,-33.75
14.828,-36.01
14.843,-37.58
14.859,-38.3
14.875,-37.92
14.890,-36.16
14.906,-32.77
14.921,-27.65
14.937,-20.89
14.953,-12.8
14.968,-3.8
14.984,5.64
15.000,15.02
15.015,23.82
15.031,31.49
15.046,37.56
15.062,41.65
15.078,43.63
15.093,43.64
15.109,42.05
15.125,39.44
15.140,36.42
15.156,33.56
15.171,31.25
15.187,29.69
15.203,28.83
15.218,28.43
15.234,28.05
15.250,27.26
15.265,25.63
15.281,22.97
15.296,19.3
15.312,14.9
15.328,10.13
15.343,5.38
15.359,0.95
15.375,-3.03
15.390,-6.56
15.406,-9.77
15.421,-12.86
15.437,-16.08
15.453,-19.61
15.468,-23.61
15.484,-28.08
15.500,-32.99
15.515,-38.18
15.531,-43.48
15.546,-48.76
15.562,-53.85
15.578,-58.57
15.593,-62.62
15.609,-65.47
15.625,-66.52
15.640,-65.21
15.656,-61.17
15.671,-54.43
15.687,-45.37
15.703,-34.61
15.718,-22.94
15.734,-11.01
15.750,0.66
15.765,11.7
15.781,21.88
15.796,30.93
15.812,38.59
15.828,44.54
15.843,48.62
15.859,50.74
15.875,51.12
15.890,50.14
15.906,48.26
15.921,45.96
15.937,43.59
15.953,41.36
15.968,39.38
15.984,37.74
16.000,36.44
16.015,35.33
16.031,34.18
16.046,32.62
16.062,30.32
16.078,27.14
16.093,23.13
16.109,18.58
16.125,13.92
16.140,9.51
16.156,5.56
16.171,2.15
16.187,-0.86
16.203,-3.71
16.218,-6.73
16.234,-10.16
16.250,-14.14
16.265,-18.61
16.281,-23.31
16.296,-27.84
16.312,-31.82
16.328,-35.04
16.343,-37.46
16.359,-39.28
16.375,-40.78
16.390,-42.2
16.406,-43.62
16.421,-44.84
16.437,-45.37
16.453,-44.5
16.468,-41.52
16.484,-35.89
16.500,-27.49
16.515,-16.7
16.531,-4.29
16.546,8.81
16.562,21.76
16.578,34.02
16.593,45.44
16.609,56.07
16.625,66.01
16.640,75.23
16.656,83.36
16.671,89.92
16.687,94.45
16.703,96.87
16.718,97.56
16.734,97.48
16.750,97.92
16.765,100.04
16.781,104.47
16.796,110.93
16.812,118.39
16.828,125.45
16.843,130.94
16.859,134.36
16.875,136.08
16.890,137.1
16.906,138.64
16.921,141.51
16.937,145.84
16.953,150.88
16.968,155.06
16.984,156.33
17.000,152.5
17.015,141.77
17.031,123.2
17.046,97.23
17.062,65.54
17.078,30.69
17.093,-4.7
17.109,-38.92
17.125,-71.78
17.140,-104.38
17.156,-138.3
17.171,-174.02
17.187,-209.75
17.203,-241.0
17.218,-261.83
17.234,-266.96
17.250,-254.0
17.265,-224.76
17.281,-184.68
17.296,-141.01
17.312,-100.17
17.328,-66.01
17.343,-39.23
17.359,-18.23
17.375,-0.58
17.390,15.86
17.406,32.46
17.421,50.19
17.437,69.94
17.453,92.65
17.468,118.92
17.484,148.38
17.500,179.56
17.515,209.95
17.531,236.57
17.546,256.72
17.562,268.44
17.578,270.78
17.593,263.62
17.609,247.59
17.625,223.71
17.640,193.34
17.656,158.05
17.671,119.56
17.687,79.58
17.703,39.75
17.718,1.38
17.734,-34.57
17.750,-67.65
17.765,-98.07
17.781,-126.73
17.796,-154.89
17.812,-183.52
17.828,-212.49
17.843,-240.27
17.859,-264.14
17.875,-281.13
17.890,-289.16
17.906,-287.89
17.921,-278.87
17.937,-264.86
17.953,-248.92
17.968,-233.49
17.984,-220.03
18.000,-208.99
18.015,-199.99
18.031,-192.1
18.046,-184.04
18.062,-174.38
18.078,-161.97
18.093,-146.34
18.109,-127.88
18.125,-107.87
18.140,-87.94
18.156,-69.67
18.171,-54.12
18.187,-41.71
18.203,-32.3
18.218,-25.42
18.234,-20.5
18.250,-16.91
18.265,-14.04
18.281,-11.24
18.296,-7.89
18.312,-3.6
18.328,1.76
18.343,7.9
18.359,14.21
18.375,19.94
18.390,24.41
18.406,27.14
18.421,28.0
18.437,27.22
18.453,25.23
18.468,22.62
18.484,19.91
18.500,17.43
18.515,15.36
18.531,13.67
18.546,12.27
18.562,11.01
18.578,9.78
18.593,8.43
18.609,6.84
18.625,4.84
18.640,2.25
18.656,-1.04
18.671,-5.12
18.687,-9.98
18.703,-15.47
18.718,-21.3
18.734,-26.95
18.750,-31.65
18.765,-34.55
18.781,-34.89
18.796,-32.23
18.812,-26.58
18.828,-18.39
18.843,-8.48
18.859,2.23
18.875,12.85
18.890,22.8
18.906,31.7
18.921,39.31
18.937,45.45
18.953,49.86
18.968,52.28
18.984,52.56
19.000,50.76
19.015,47.31
19.031,42.98
19.046,38.63
19.062,35.07
19.078,32.87
19.093,32.32
19.109,33.5
19.125,36.34
19.140,40.68
19.156,46.24
19.171,52.7
19.187,59.64
19.203,66.67
19.218,73.32
19.234,79.13
19.250,83.6
19.265,86.32
19.281,87.0
19.296,85.63
19.312,82.51
19.328,78.06
19.343,72.66
19.359,66.44
19.375,59.28
19.390,50.9
19.406,41.17
19.421,30.1
19.437,17.99
19.453,5.28
19.468,-7.42
19.484,-19.44
19.500,-29.97
19.515,-38.09
19.531,-43.08
19.546,-44.61
19.562,-42.93
19.578,-38.9
19.593,-33.73
19.609,-28.53
19.625,-24.12
19.640,-20.8
19.656,-18.45
19.671,-16.78
19.687,-15.53
19.703,-14.6
19.718,-13.96
19.734,-13.56
19.750,-13.23
19.765,-12.71
19.781,-11.79
19.796,-10.59
19.812,-9.5
19.828,-9.06
19.843,-9.76
19.859,-11.64
19.875,-14.22
19.890,-16.78
19.906,-18.57
19.921,-19.21
19.937,-18.8
19.953,-17.79
19.968,-16.73
19.984,-16.04
20.000,-16.02
20.015,-16.81
20.031,-18.62
20.046,-21.59
20.062,-25.78
20.078,-31.06
20.093,-37.14
20.109,-43.57
20.125,-50.01
20.140,-56.23
20.156,-62.21
20.171,-67.99
20.187,-73.3
20.203,-77.6
20.218,-80.06
20.234,-79.88
20.250,-76.71
20.265,-70.93
20.281,-63.55
20.296,-55.97
20.312,-49.33
20.328,-44.03
20.343,-39.81
20.359,-36.01
20.375,-32.06
20.390,-27.87
20.406,-24.02
20.421,-21.22
20.437,-20.02
20.453,-20.41
20.468,-21.86
20.484,-23.7
20.500,-25.37
20.515,-26.69
20.531,-27.78
20.546,-28.9
20.562,-30.17
20.578,-31.45
20.593,-32.51
20.609,-33.11
20.625,-33.33
20.640,-33.49
20.656,-34.08
20.671,-35.66
20.687,-38.57
20.703,-42.74
20.718,-47.77
20.734,-53.07
20.750,-58.01
20.765,-62.24
20.781,-65.73
20.796,-68.79
20.812,-71.99
20.828,-75.98
20.843,-81.12
20.859,-87.45
20.875,-94.51
20.890,-101.31
20.906,-106.63
20.921,-109.18
20.937,-107.92
20.953,-102.32
20.968,-92.51
20.984,-79.18
21.000,-63.4
21.015,-46.37
21.031,-29.07
21.046,-12.13
21.062,4.15
21.078,19.64
21.093,34.21
21.109,47.56
21.125,59.25
21.140,68.89
21.156,76.36
21.171,81.88
21.187,85.96
21.203,89.15
21.218,91.92
21.234,94.41
21.250,96.49
21.265,97.85
21.281,98.1
21.296,96.86
21.312,93.83
21.328,88.69
21.343,81.28
21.359,71.62
21.375,59.92
21.390,46.75
21.406,32.96
21.421,19.65
21.437,7.94
21.453,-1.17
21.468,-7.12
21.484,-9.89
21.500,-10.05
21.515,-8.72
21.531,-7.33
21.546,-7.34
21.562,-9.93
21.578,-15.74
21.593,-24.62
21.609,-35.55
21.625,-46.86
21.640,-56.47
21.656,-62.44
21.671,-63.4
21.687,-58.9
21.703,-49.37
21.718,-35.97
21.734,-20.09
21.750,-3.08
21.765,14.05
21.781,30.63
21.796,46.14
21.812,60.14
21.828,72.14
21.843,81.64
21.859,88.29
21.875,91.95
21.890,92.83
21.906,91.36
21.921,88.28
21.937,84.35
21.953,80.22
21.968,76.24
21.984,72.42
22.000,68.46
22.015,63.92
22.031,58.51
22.046,52.16
22.062,45.12
22.078,37.77
22.093,30.37
22.109,22.96
22.125,15.29
22.140,6.95
22.156,-2.42
22.171,-12.98
22.187,-24.72
22.203,-37.46
22.218,-51.02
22.234,-65.26
22.250,-80.1
22.265,-95.43
22.281,-111.15
22.296,-127.14
22.312,-143.3
22.328,-159.51
22.343,-175.31
22.359,-189.88
22.375,-201.78
22.390,-209.3
22.406,-210.82
22.421,-205.28
22.437,-192.41
22.453,-172.74
22.468,-147.36
22.484,-117.45
22.500,-84.3
22.515,-49.2
22.531,-13.6
22.546,20.81
22.562,52.25
22.578,79.12
22.593,100.29
22.609,115.23
22.625,124.16
22.640,127.86
22.656,127.62
22.671,125.04
22.687,121.77
22.703,119.26
22.718,118.42
22.734,119.47
22.750,122.04
22.765,125.4
22.781,128.73
22.796,131.31
22.812,132.49
22.828,131.46
22.843,127.37
22.859,119.26
22.875,106.48
22.890,89.07
22.906,67.9
22.921,44.55
22.937,20.79
22.953,-1.86
22.968,-22.58
22.984,-41.09
23.000,-57.42
23.015,-71.6
23.031,-83.5
23.046,-93.05
23.062,-100.45
23.078,-106.2
23.093,-110.93
23.109,-114.98
23.125,-118.0
23.140,-119.09
23.156,-117.14
23.171,-111.41
23.187,-101.97
23.203,-89.65
23.218,-75.81
23.234,-61.65
23.250,-48.03
23.265,-35.28
23.281,-23.58
23.296,-13.08
23.312,-4.01
23.328,3.49
23.343,9.5
23.359,14.55
23.375,19.48
23.390,25.09
23.406,31.85
23.421,39.65
23.437,47.87
23.453,55.68
23.468,62.39
23.484,67.68
23.500,71.6
23.515,74.39
23.531,76.16
23.546,76.83
23.562,76.11
23.578,73.83
23.593,70.0
23.609,65.07
23.625,59.7
23.640,54.63
23.656,50.41
23.671,47.23
23.687,44.89
23.703,42.82
23.718,40.28
23.734,36.47
23.750,30.73
23.765,22.84
23.781,13.09
23.796,2.55
23.812,-7.19
23.828,-14.2
23.843,-16.8
23.859,-13.97
23.875,-5.72
23.890,7.07
23.906,22.94
23.921,40.22
23.937,57.49
23.953,73.65
23.968,87.9
23.984,99.62
24.000,108.23
24.015,113.31
24.031,114.78
24.046,112.99
24.062,108.67
24.078,102.8
24.093,96.26
24.109,89.62
24.125,83.07
24.140,76.38
24.156,69.21
24.171,61.32
24.187,52.74
24.203,43.75
24.218,34.77
24.234,26.12
24.250,17.86
24.265,9.82
24.281,1.69
24.296,-6.77
24.312,-15.55
24.328,-24.39
24.343,-32.83
24.359,-40.38
24.375,-46.77
24.390,-52.06
24.406,-56.57
24.421,-60.84
24.437,-65.5
24.453,-71.12
24.468,-77.89
24.484,-85.55
24.500,-93.16
24.515,-99.25
24.531,-102.15
24.546,-100.41
24.562,-93.28
24.578,-80.94
24.593,-64.46
24.609,-45.4
24.625,-25.38
24.640,-5.62
24.656,13.11
24.671,30.47
24.687,46.22
24.703,60.02
24.718,71.29
24.734,79.38
24.750,83.91
24.765,84.87
24.781,82.82
24.796,78.65
24.812,73.36
24.828,67.69
24.843,62.04
24.859,56.45
24.875,50.9
24.890,45.46
24.906,40.33
24.921,35.83
24.937,32.17
24.953,29.31
24.968,26.96
24.984,24.73
25.000,22.15
25.015,19.08
25.031,15.54
25.046,11.66
25.062,7.64
25.078,3.55
25.093,-0.62
25.109,-4.84
25.125,-9.1
25.140,-13.34
25.156,-17.45
25.171,-21.5
25.187,-25.72
25.203,-30.35
25.218,-35.59
25.234,-41.3
25.250,-46.86
25.265,-51.33
25.281,-53.6
25.296,-52.76
25.312,-48.39
25.328,-40.63
25.343,-30.02
25.359,-17.39
25.375,-3.56
25.390,10.73
25.406,24.73
25.421,37.53
25.437,48.12
25.453,55.36
25.468,58.42
25.484,57.13
25.500,52.04
25.515,44.39
25.531,35.79
25.546,27.56
25.562,20.47
25.578,14.59
25.593,9.47
25.609,4.55
25.625,-0.53
25.640,-5.88
25.656,-11.26
25.671,-16.24
25.687,-20.37
25.703,-23.19
25.718,-24.34
25.734,-23.62
25.750,-21.03
25.765,-16.84
25.781,-11.63
25.796,-6.04
25.812,-0.67
25.828,3.99
25.843,7.75
25.859,10.5
25.875,12.18
25.890,12.72
25.906,11.98
25.921,9.83
25.937,6.38
25.953,2.12
25.968,-2.01
25.984,-4.65
26.000,-4.37
26.015,-0.13
26.031,8.43
26.046,20.75
26.062,35.57
26.078,51.32
26.093,66.48
26.109,79.75
26.125,90.07
26.140,96.49
26.156,97.96
26.171,93.8
26.187,83.8
26.203,68.69
26.218,50.06
26.234,30.01
26.250,10.54
26.265,-6.86
26.281,-21.43
26.296,-33.02
26.312,-41.63
26.328,-47.32
26.343,-50.08
26.359,-50.02
26.375,-47.64
26.390,-43.9
26.406,-40.04
26.421,-37.43
26.437,-37.14
26.453,-39.62
26.468,-44.64
26.484,-51.29
26.500,-58.16
26.515,-63.78
26.531,-67.02
26.546,-67.54
26.562,-65.84
26.578,-63.18
26.593,-61.02
26.609,-60.69
26.625,-62.97
26.640,-67.9
26.656,-74.95
26.671,-83.07
26.687,-90.91
26.703,-96.98
26.718,-99.96
26.734,-98.81
26.750,-93.16
26.765,-83.35
26.781,-70.28
26.796,-55.17
26.812,-39.09
26.828,-22.8
26.843,-6.62
26.859,9.18
26.875,24.31
26.890,38.24
26.906,50.43
26.921,60.41
26.937,68.01
26.953,73.5
26.968,77.27
26.984,79.82
27.000,81.39
27.015,82.09
27.031,82.04
27.046,81.43
27.062,80.57
27.078,79.78
27.093,79.23
27.109,78.71
27.125,77.81
27.140,75.96
27.156,72.82
27.171,68.32
27.187,62.74
27.203,56.5
27.218,50.1
27.234,43.91
27.250,38.17
27.265,33.04
27.281,28.55
27.296,24.65
27.312,21.27
27.328,18.26
27.343,15.59
27.359,13.33
27.375,11.67
27.390,10.81
27.406,11.01
27.421,12.58
27.437,15.93
27.453,21.59
27.468,29.99
27.484,41.35
27.500,55.41
27.515,71.4
27.531,88.14
27.546,104.37
27.562,119.04
27.578,131.42
27.593,141.22
27.609,148.36
27.625,152.94
27.640,154.99
27.656,154.51
27.671,151.55
27.687,146.33
27.703,139.35
27.718,131.27
27.734,122.8
27.750,114.33
27.765,105.91
27.781,97.25
27.796,87.91
27.812,77.61
27.828,66.3
27.843,53.89
27.859,39.94
27.875,23.58
27.890,3.74
27.906,-20.26
27.921,-48.11
27.937,-78.34
27.953,-108.79
27.968,-137.36
27.984,-162.64
28.000,-184.11
28.015,-201.58
28.031,-214.74
28.046,-222.87
28.062,-225.06
28.078,-220.91
28.093,-211.03
28.109,-197.15
28.125,-181.48
28.140,-166.03
28.156,-151.87
28.171,-139.14
28.187,-127.37
28.203,-115.96
28.218,-104.65
28.234,-93.37
28.250,-82.29
28.265,-71.41
28.281,-60.68
28.296,-50.06
28.312,-39.76
28.328,-30.26
28.343,-22.24
28.359,-16.24
28.375,-12.39
28.390,-10.27
28.406,-9.04
28.421,-7.75
28.437,-5.6
28.453,-2.24
28.468,2.22
28.484,7.29
28.500,12.29
28.515,16.52
28.531,19.44
28.546,20.76
28.562,20.5
28.578,18.99
28.593,16.78
28.609,14.49
28.625,12.74
28.640,11.93
28.656,12.26
28.671,13.68
28.687,15.83
28.703,18.08
28.718,19.53
28.734,19.18
28.750,16.23
28.765,10.36
28.781,1.65
28.796,-9.61
28.812,-23.18
28.828,-39.05
28.843,-57.09
28.859,-76.59
28.875,-95.83
28.890,-112.16
28.906,-122.67
28.921,-125.28
28.937,-119.57
28.953,-106.94
28.968,-90.08
28.984,-71.8
29.000,-54.3
29.015,-38.62
29.031,-24.94
29.046,-12.97
29.062,-2.5
29.078,6.57
29.093,14.35
29.109,21.15
29.125,27.56
29.140,34.17
29.156,41.39
29.171,49.2
29.187,57.11
29.203,64.3
29.218,70.06
29.234,74.08
29.250,76.61
29.265,78.44
29.281,80.53
29.296,83.64
29.312,87.95
29.328,93.04
29.343,98.0
29.359,101.89
29.375,104.05
29.390,104.37
29.406,103.25
29.421,101.4
29.437,99.57
29.453,98.24
29.468,97.57
29.484,97.4
29.500,97.41
29.515,97.25
29.531,96.74
29.546,96.02
29.562,95.53
29.578,95.88
29.593,97.68
29.609,101.21
29.625,106.3
29.640,112.27
29.656,118.04
29.671,122.44
29.687,124.49
29.703,123.65
29.718,119.85
29.734,113.41
29.750,104.85
29.765,94.59
29.781,82.84
29.796,69.52
29.812,54.3
29.828,36.81
29.843,16.84
29.859,-5.45
29.875,-29.47
29.890,-54.19
29.906,-78.35
29.921,-100.71
29.937,-120.23
29.953,-136.23
29.968,-148.47
29.984,-157.06
30.000,-162.38
30.015,-165.08
30.031,-165.85
30.046,-165.35
30.062,-164.13
30.078,-162.5
30.093,-160.52
30.109,-158.19
30.125,-155.42
30.140,-152.3
30.156,-149.09
30.171,-146.16
30.187,-143.94
30.203,-142.78
30.218,-142.86
30.234,-144.01
30.250,-145.66
30.265,-146.88
30.281,-146.52
30.296,-143.52
30.312,-137.13
30.328,-127.11
30.343,-113.71
30.359,-97.49
30.375,-79.25
30.390,-59.88
30.406,-40.34
30.421,-21.59
30.437,-4.55
30.453,10.06
30.468,21.83
30.484,30.85
30.500,37.65
30.515,43.01
30.531,47.77
30.546,52.5
30.562,57.35
30.578,62.0
30.593,65.91
30.609,68.51
30.625,69.53
30.640,69.09
30.656,67.61
30.671,65.58
30.687,63.33
30.703,60.99
30.718,58.46
30.734,55.71
30.750,52.79
30.765,49.83
30.781,46.97
30.796,44.12
30.812,41.03
30.828,37.39
30.843,32.98
30.859,27.81
30.875,22.02
30.890,15.73
30.906,9.02
30.921,1.98
30.937,-5.08
30.953,-11.56
30.968,-16.55
30.984,-19.15
31.000,-18.77
31.015,-15.38
31.031,-9.51
31.046,-2.03
31.062,6.19
31.078,14.5
31.093,22.5
31.109,30.01
31.125,36.88
31.140,42.84
31.156,47.6
31.171,50.85
31.187,52.41
31.203,52.33
31.218,50.87
31.234,48.4
31.250,45.37
31.265,42.21
31.281,39.22
31.296,36.65
31.312,34.6
31.328,33.04
31.343,31.87
31.359,30.96
31.375,30.21
31.390,29.6
31.406,29.13
31.421,28.72
31.437,28.21
31.453,27.43
31.468,26.27
31.484,24.83
31.500,23.39
31.515,22.32
31.531,21.84
31.546,21.85
31.562,21.96
31.578,21.62
31.593,20.38
31.609,18.07
31.625,14.85
31.640,11.21
31.656,7.84
31.671,5.49
31.687,4.9
31.703,6.67
31.718,11.1
31.734,18.1
31.750,26.94
31.765,36.53
31.781,45.59
31.796,52.97
31.812,57.98
31.828,60.43
31.843,60.51
31.859,58.57
31.875,54.88
31.890,49.52
31.906,42.63
31.921,34.43
31.937,25.31
31.953,15.8
31.968,6.35
31.984,-2.79
32.000,-11.67
32.015,-20.47
32.031,-29.29
32.046,-37.98
32.062,-46.11
32.078,-53.06
32.093,-58.22
32.109,-61.22
32.125,-61.99
32.140,-60.84
32.156,-58.21
32.171,-54.68
32.187,-50.76
32.203,-46.89
32.218,-43.36
32.234,-40.32
32.250,-37.79
32.265,-35.59
32.281,-33.49
32.296,-31.27
32.312,-28.85
32.328,-26.36
32.343,-24.27
32.359,-23.28
32.375,-24.19
32.390,-27.75
32.406,-34.47
32.421,-44.42
32.437,-57.19
32.453,-71.86
32.468,-87.09
32.484,-101.34
32.500,-113.2
32.515,-121.57
32.531,-125.91
32.546,-126.17
32.562,-122.75
32.578,-116.22
32.593,-107.12
32.609,-95.98
32.625,-83.32
32.640,-69.77
32.656,-56.02
32.671,-42.77
32.687,-30.47
32.703,-19.33
32.718,-9.22
32.734,0.16
32.750,9.04
32.765,17.48
32.781,25.28
32.796,32.12
32.812,37.6
32.828,41.54
32.843,43.89
32.859,44.87
32.875,44.9
32.890,44.46
32.906,43.97
32.921,43.7
32.937,43.69
32.953,43.69
32.968,43.41
32.984,42.54
33.000,40.86
33.015,38.39
33.031,35.3
33.046,31.88
33.062,28.52
33.078,25.62
33.093,23.45
33.109,22.15
33.125,21.62
33.140,21.51
33.156,21.41
33.171,20.83
33.187,19.47
33.203,17.28
33.218,14.51
33.234,11.65
33.250,9.31
33.265,8.09
33.281,8.43
33.296,10.63
33.312,14.77
33.328,20.81
33.343,28.57
33.359,37.67
33.375,47.3
33.390,56.15
33.406,62.57
33.421,64.88
33.437,62.05
33.453,54.03
33.468,42.01
33.484,28.02
33.500,14.29
33.515,2.55
33.531,-6.46
33.546,-12.92
33.562,-17.6
33.578,-21.3
33.593,-24.5
33.609,-27.3
33.625,-29.54
33.640,-31.03
33.656,-31.62
33.671,-31.28
33.687,-29.96
33.703,-27.62
33.718,-24.24
33.734,-19.89
33.750,-14.86
33.765,-9.66
33.781,-5.01
33.796,-1.67
33.812,-0.36
33.828,-1.52
33.843,-5.3
33.859,-11.56
33.875,-19.8
33.890,-29.4
33.906,-39.59
33.921,-49.5
33.937,-58.26
33.953,-64.9
33.968,-68.61
33.984,-68.78
34.000,-65.23
34.015,-58.18
34.031,-48.22
34.046,-36.14
34.062,-22.72
34.078,-8.61
34.093,5.74
34.109,20.02
34.125,34.03
34.140,47.51
34.156,60.14
34.171,71.46
34.187,80.97
34.203,88.22
34.218,92.94
34.234,95.2
34.250,95.4
34.265,94.26
34.281,92.61
34.296,91.19
34.312,90.45
34.328,90.45
34.343,90.91
34.359,91.21
34.375,90.68
34.390,88.69
34.406,84.92
34.421,79.37
34.437,72.45
34.453,64.9
34.468,57.61
34.484,51.46
34.500,47.05
34.515,44.52
34.531,43.53
34.546,43.35
34.562,43.1
34.578,42.04
34.593,39.87
34.609,36.76
34.625,33.33
34.640,30.41
34.656,28.66
34.671,28.35
34.687,29.28
34.703,30.86
34.718,32.39
34.734,33.45
34.750,34.04
34.765,34.61
34.781,35.87
34.796,38.46
34.812,42.8
34.828,49.0
34.843,57.0
34.859,66.62
34.875,77.7
34.890,89.87
34.906,102.53
34.921,114.71
34.937,125.29
34.953,133.24
34.968,137.94
34.984,139.36
35.000,137.9
35.015,134.32
35.031,129.38
35.046,123.74
35.062,117.89
35.078,112.16
35.093,106.7
35.109,101.42
35.125,95.87
35.140,89.3
35.156,80.84
35.171,69.73
35.187,55.68
35.203,38.98
35.218,20.2
35.234,-0.03
35.250,-21.45
35.265,-44.16
35.281,-68.33
35.296,-93.71
35.312,-119.42
35.328,-143.98
35.343,-165.91
35.359,-184.32
35.375,-199.37
35.390,-212.23
35.406,-224.43
35.421,-237.12
35.437,-250.4
35.453,-263.35
35.468,-274.36
35.484,-281.9
35.500,-285.06
35.515,-283.78
35.531,-278.67
35.546,-270.58
35.562,-260.28
35.578,-248.25
35.593,-234.8
35.609,-220.33
35.625,-205.39
35.640,-190.71
35.656,-176.89
35.671,-164.26
35.687,-152.71
35.703,-141.9
35.718,-131.51
35.734,-121.51
35.750,-112.17
35.765,-103.85
35.781,-96.65
35.796,-90.17
35.812,-83.52
35.828,-75.6
35.843,-65.58
35.859,-53.16
35.875,-38.72
35.890,-23.09
35.906,-7.39
35.921,7.37
35.937,20.32
35.953,30.9
35.968,38.87
35.984,44.22
36.000,47.28
36.015,48.45
36.031,48.29
36.046,47.28
36.062,45.79
36.078,44.04
36.093,42.18
36.109,40.24
36.125,38.17
36.140,35.91
36.156,33.39
36.171,30.61
36.187,27.7
36.203,24.91
36.218,22.53
36.234,20.71
36.250,19.43
36.265,18.39
36.281,17.14
36.296,15.24
36.312,12.47
36.328,9.14
36.343,5.93
36.359,3.92
36.375,4.11
36.390,7.14
36.406,13.05
36.421,21.23
36.437,30.59
36.453,39.94
36.468,48.36
36.484,55.3
36.500,60.83
36.515,65.27
36.531,69.13
36.546,72.83
36.562,76.58
36.578,80.27
36.593,83.64
36.609,86.3
36.625,87.81
36.640,87.84
36.656,86.09
36.671,82.43
36.687,76.86
36.703,69.53
36.718,60.64
36.734,50.41
36.750,38.96
36.765,26.47
36.781,13.3
36.796,0.11
36.812,-12.07
36.828,-21.97
36.843,-28.45
36.859,-30.89
36.875,-29.42
36.890,-24.97
36.906,-18.98
36.921,-13.09
36.937,-8.78
36.953,-7.09
36.968,-8.49
36.984,-12.89
37.000,-19.77
37.015,-28.47
37.031,-38.3
37.046,-48.75
37.062,-59.38
37.078,-69.7
37.093,-79.05
37.109,-86.56
37.125,-91.31
37.140,-92.55
37.156,-89.95
37.171,-83.61
37.187,-73.99
37.203,-61.67
37.218,-47.33
37.234,-31.65
37.250,-15.39
37.265,0.59
37.281,15.41
37.296,28.31
37.312,38.77
37.328,46.64
37.343,52.15
37.359,55.75
37.375,58.01
37.390,59.3
37.406,59.78
37.421,59.35
37.437,57.7
37.453,54.46
37.468,49.36
37.484,42.35
37.500,33.72
37.515,24.05
37.531,14.21
37.546,5.24
37.562,-1.89
37.578,-6.51
37.593,-8.38
37.609,-7.76
37.625,-5.3
37.640,-1.83
37.656,1.89
37.671,5.28
37.687,8.01
37.703,9.97
37.718,11.26
37.734,11.98
37.750,12.4
37.765,12.77
37.781,13.38
37.796,14.39
37.812,15.75
37.828,17.19
37.843,18.33
37.859,18.84
37.875,18.67
37.890,18.11
37.906,17.79
37.921,18.43
37.937,20.65
37.953,24.69
37.968,30.38
37.984,37.17
38.000,44.42
38.015,51.56
38.031,58.12
38.046,63.9
38.062,68.8
38.078,72.83
38.093,75.96
38.109,78.2
38.125,79.46
38.140,79.72
38.156,79.06
38.171,77.79
38.187,76.4
38.203,75.43
38.218,75.34
38.234,76.2
38.250,77.63
38.265,78.79
38.281,78.65
38.296,76.3
38.312,71.22
38.328,63.38
38.343,53.14
38.359,41.17
38.375,28.2
38.390,14.9
38.406,1.79
38.421,-10.73
38.437,-22.43
38.453,-33.27
38.468,-43.18
38.484,-52.0
38.500,-59.48
38.515,-65.08
38.531,-68.37
38.546,-69.09
38.562,-67.46
38.578,-64.08
38.593,-59.81
38.609,-55.31
38.625,-50.86
38.640,-46.35
38.656,-41.4
38.671,-35.77
38.687,-29.45
38.703,-22.76
38.718,-16.11
38.734,-9.85
38.750,-4.11
38.765,1.08
38.781,5.56
38.796,9.05
38.812,11.21
38.828,11.81
38.843,10.92
38.859,8.89
38.875,6.07
38.890,2.73
38.906,-1.16
38.921,-5.77
38.937,-11.14
38.953,-17.02
38.968,-22.87
38.984,-27.99
39.000,-31.87
39.015,-34.37
39.031,-35.73
39.046,-36.42
39.062,-36.93
39.078,-37.67
39.093,-38.79
39.109,-40.37
39.125,-42.31
39.140,-44.49
39.156,-46.64
39.171,-48.49
39.187,-49.8
39.203,-50.55
39.218,-50.95
39.234,-51.31
39.250,-51.94
39.265,-52.92
39.281,-54.17
39.296,-55.47
39.312,-56.7
39.328,-57.87
39.343,-59.12
39.359,-60.63
39.375,-62.51
39.390,-64.79
39.406,-67.35
39.421,-70.07
39.437,-72.85
39.453,-75.48
39.468,-77.64
39.484,-78.78
39.500,-78.35
39.515,-75.83
39.531,-71.14
39.546,-64.53
39.562,-56.68
39.578,-48.49
39.593,-40.8
39.609,-34.31
39.625,-29.45
39.640,-26.46
39.656,-25.34
39.671,-26.02
39.687,-27.99
39.703,-30.41
39.718,-32.23
39.734,-32.35
39.750,-30.01
39.765,-25.13
39.781,-18.3
39.796,-10.5
39.812,-2.88
39.828,3.84
39.843,9.35
39.859,13.68
39.875,16.98
39.890,19.24
39.906,20.27
39.921,19.81
39.937,17.79
39.953,14.33
39.968,9.82
39.984,4.66
40.000,-0.74
40.015,-6.06
40.031,-11.02
40.046,-15.33
40.062,-18.72
40.078,-20.99
40.093,-22.2
40.109,-22.59
40.125,-22.69
40.140,-23.18
40.156,-24.73
40.171,-27.99
40.187,-33.35
40.203,-40.76
40.218,-49.59
40.234,-58.7
40.250,-66.48
40.265,-71.28
40.281,-71.89
40.296,-67.69
40.312,-58.98
40.328,-46.55
40.343,-31.56
40.359,-15.2
40.375,1.39
40.390,17.29
40.406,31.73
40.421,44.0
40.437,53.77
40.453,60.96
40.468,65.97
40.484,69.36
40.500,71.75
40.515,73.53
40.531,74.85
40.546,75.64
40.562,75.63
40.578,74.74
40.593,73.01
40.609,70.72
40.625,68.26
40.640,66.05
40.656,64.36
40.671,63.31
40.687,62.8
40.703,62.49
40.718,61.91
40.734,60.59
40.750,58.2
40.765,54.72
40.781,50.49
40.796,46.11
40.812,42.37
40.828,39.97
40.843,39.24
40.859,40.06
40.875,41.7
40.890,42.99
40.906,42.72
40.921,39.92
40.937,34.34
40.953,26.71
40.968,18.68
40.984,12.45
41.000,10.12
41.015,12.95
41.031,20.82
41.046,32.27
41.062,44.9
41.078,56.1
41.093,63.85
41.109,67.16
41.125,66.22
41.140,62.23
41.156,57.01
41.171,52.57
41.187,50.61
41.203,52.18
41.218,57.32
41.234,65.07
41.250,73.77
41.265,81.52
41.281,86.98
41.296,89.59
41.312,89.66
41.328,88.0
41.343,85.38
41.359,82.16
41.375,78.17
41.390,73.02
41.406,66.37
41.421,58.34
41.437,49.39
41.453,40.29
41.468,31.81
41.484,24.45
41.500,18.28
41.515,12.93
41.531,7.78
41.546,2.04
41.562,-4.92
41.578,-13.48
41.593,-23.63
41.609,-35.04
41.625,-47.14
41.640,-59.42
41.656,-71.36
41.671,-82.56
41.687,-92.54
41.703,-100.59
41.718,-105.84
41.734,-107.47
41.750,-105.09
41.765,-98.91
41.781,-89.76
41.796,-78.77
41.812,-66.9
41.828,-54.67
41.843,-42.04
41.859,-28.7
41.875,-14.5
41.890,0.32
41.906,15.05
41.921,28.82
41.937,40.91
41.953,51.01
41.968,59.27
41.984,66.07
42.000,71.71
42.015,76.1
42.031,78.83
42.046,79.17
42.062,76.43
42.078,70.24
42.093,60.78
42.109,48.76
42.125,35.45
42.140,22.24
42.156,10.34
42.171,0.44
42.187,-7.36
42.203,-13.46
42.218,-18.44
42.234,-22.73
42.250,-26.44
42.265,-29.27
42.281,-30.72
42.296,-30.24
42.312,-27.37
42.328,-21.9
42.343,-13.97
42.359,-4.21
42.375,6.27
42.390,15.88
42.406,22.92
42.421,25.88
42.437,23.87
42.453,16.97
42.468,6.13
42.484,-7.0
42.500,-20.73
42.515,-33.7
42.531,-45.25
42.546,-55.37
42.562,-64.49
42.578,-73.2
42.593,-81.81
42.609,-90.36
42.625,-98.45
42.640,-105.5
42.656,-110.8
42.671,-113.65
42.687,-113.6
42.703,-110.53
42.718,-104.81
42.734,-97.28
42.750,-89.16
42.765,-81.66
42.781,-75.9
42.796,-72.57
42.812,-71.91
42.828,-73.6
42.843,-76.77
42.859,-80.04
42.875,-81.81
42.890,-80.64
42.906,-75.65
42.921,-66.91
42.937,-55.38
42.953,-42.55
42.968,-30.02
42.984,-18.84
43.000,-9.49
43.015,-1.95
43.031,3.99
43.046,8.46
43.062,11.42
43.078,12.76
43.093,12.57
43.109,11.09
43.125,8.81
43.140,6.27
43.156,3.82
43.171,1.58
43.187,-0.54
43.203,-2.71
43.218,-4.93
43.234,-6.79
43.250,-7.52
43.265,-6.22
43.281,-2.18
43.296,4.69
43.312,13.81
43.328,24.03
43.343,34.1
43.359,43.11
43.375,50.69
43.390,56.99
43.406,62.44
43.421,67.36
43.437,71.84
43.453,75.75
43.468,78.93
43.484,81.3
43.500,82.95
43.515,84.01
43.531,84.61
43.546,84.71
43.562,84.07
43.578,82.33
43.593,79.08
43.609,74.0
43.625,66.93
43.640,57.97
43.656,47.48
43.671,36.09
43.687,24.58
43.703,13.62
43.718,3.71
43.734,-5.12
43.750,-13.12
43.765,-20.7
43.781,-28.21
43.796,-35.67
43.812,-42.78
43.828,-48.94
43.843,-53.67
43.859,-56.66
43.875,-58.04
43.890,-58.31
43.906,-58.18
43.921,-58.28
43.937,-59.03
43.953,-60.49
43.968,-62.38
43.984,-64.19
44.000,-65.21
44.015,-64.75
44.031,-62.24
44.046,-57.38
44.062,-50.31
44.078,-41.58
44.093,-32.01
44.109,-22.41
44.125,-13.38
44.140,-5.07
44.156,2.65
44.171,10.1
44.187,17.5
44.203,24.84
44.218,31.89
44.234,38.33
44.250,43.94
44.265,48.63
44.281,52.53
44.296,55.8
44.312,58.53
44.328,60.81
44.343,62.56
44.359,63.73
44.375,64.26
44.390,64.15
44.406,63.41
44.421,62.03
44.437,59.96
44.453,57.12
44.468,53.51
44.484,49.2
44.500,44.42
44.515,39.5
44.531,34.82
44.546,30.72
44.562,27.37
44.578,24.73
44.593,22.48
44.609,20.17
44.625,17.23
44.640,13.19
44.656,7.81
44.671,1.21
44.687,-6.11
44.703,-13.3
44.718,-19.38
44.734,-23.48
44.750,-25.06
44.765,-23.99
44.781,-20.64
44.796,-15.57
44.812,-9.49
44.828,-2.94
44.843,3.73
44.859,10.27
44.875,16.53
44.890,22.26
44.906,27.15
44.921,30.82
44.937,33.02
44.953,33.68
44.968,32.97
44.984,31.25
45.000,28.94
45.015,26.42
45.031,23.92
45.046,21.59
45.062,19.42
45.078,17.37
45.093,15.37
45.109,13.3
45.125,11.14
45.140,8.88
45.156,6.59
45.171,4.36
45.187,2.19
45.218,-2.4
45.234,-5.12
45.250,-8.21
45.265,-11.41
45.281,-14.32
45.296,-16.51
45.312,-17.7
45.328,-17.83
45.343,-17.04
45.359,-15.66
45.375,-13.97
45.390,-12.34
45.406,-11.11
45.421,-10.67
45.437,-11.34
45.453,-13.13
45.468,-15.63
45.484,-18.01
45.500,-19.25
45.515,-18.49
45.531,-15.49
45.546,-10.61
45.562,-4.81
45.578,0.86
45.593,5.59
45.609,8.92
45.625,10.66
45.640,10.58
45.656,8.3
45.671,3.34
45.687,-4.49
45.703,-14.76
45.718,-26.25
45.734,-37.24
45.750,-45.98
45.765,-51.27
45.781,-52.73
45.796,-50.8
45.812,-46.48
45.828,-40.95
45.843,-35.27
45.859,-30.28
45.875,-26.53
45.890,-24.31
45.906,-23.61
45.921,-24.11
45.937,-25.42
45.953,-27.32
45.968,-30.07
45.984,-34.42
46.000,-41.41
46.015,-51.72
46.031,-65.2
46.046,-80.54
46.062,-95.62
46.078,-108.13
46.093,-116.37
46.109,-119.74
46.125,-118.65
46.140,-114.32
46.156,-108.09
46.171,-101.16
46.187,-94.38
46.203,-88.34
46.218,-83.3
46.234,-79.2
46.250,-75.54
46.265,-71.36
46.281,-65.48
46.296,-56.87
46.312,-45.14
46.328,-30.72
46.343,-14.84
46.359,0.86
46.375,14.81
46.390,25.95
46.406,34.06
46.421,39.62
46.437,43.6
46.453,46.94
46.468,50.27
46.484,53.75
46.500,57.17
46.515,60.14
46.531,62.35
46.546,63.67
46.562,64.21
46.578,64.18
46.593,63.82
46.609,63.35
46.625,62.98
46.640,62.9
46.656,63.35
46.671,64.4
46.687,66.0
46.703,67.91
46.718,69.73
46.734,71.05
46.750,71.53
46.765,70.97
46.781,69.31
46.796,66.8
46.812,63.82
46.828,60.89
46.843,58.55
46.859,57.22
46.875,57.08
46.890,58.0
46.906,59.6
46.921,61.24
46.937,62.28
46.953,62.16
46.968,60.5
46.984,57.22
47.000,52.6
47.015,47.24
47.031,41.89
47.046,37.32
47.062,34.07
47.078,32.38
47.093,32.17
47.109,33.11
47.125,34.73
47.140,36.48
47.156,37.87
47.171,38.54
47.187,38.36
47.203,37.44
47.218,36.08
47.234,34.66
47.250,33.43
47.265,32.43
47.281,31.33
47.296,29.61
47.312,26.66
47.328,21.94
47.343,15.07
47.359,6.0
47.375,-4.95
47.390,-17.14
47.406,-29.5
47.421,-40.69
47.437,-49.45
47.453,-54.73
47.468,-56.09
47.484,-53.84
47.500,-48.98
47.515,-42.92
47.531,-37.14
47.546,-32.78
47.562,-30.37
47.578,-30.04
47.593,-31.57
47.609,-34.62
47.625,-38.91
47.640,-44.13
47.656,-49.92
47.671,-55.79
47.687,-61.11
47.703,-65.24
47.718,-67.63
47.734,-67.89
47.750,-65.83
47.765,-61.61
47.781,-55.72
47.796,-49.02
47.812,-42.58
47.828,-37.37
47.843,-33.88
47.859,-31.89
47.875,-30.45
47.890,-28.31
47.906,-24.5
47.921,-18.78
47.937,-11.99
47.953,-5.81
47.968,-2.32
47.984,-3.29
48.000,-9.63
48.015,-21.04
48.031,-35.99
48.046,-52.14
48.062,-66.73
48.078,-77.31
48.093,-82.15
48.109,-80.61
48.125,-73.13
48.140,-60.94
48.156,-45.7
48.171,-29.18
48.187,-12.97
48.203,1.62
48.218,13.68
48.234,22.71
48.250,28.76
48.265,32.57
48.281,35.39
48.296,38.7
48.312,43.7
48.328,50.85
48.343,59.67
48.359,68.96
48.375,77.2
48.390,83.21
48.406,86.62
48.421,87.89
48.437,88.06
48.453,88.48
48.468,90.22
48.484,93.86
48.500,99.45
48.515,106.53
48.531,114.35
48.546,122.08
48.562,128.94
48.578,134.25
48.593,137.59
48.609,138.69
48.625,137.5
48.640,134.25
48.656,129.18
48.671,122.68
48.687,115.15
48.703,107.28
48.718,100.05
48.734,94.82
48.750,92.92
48.765,95.19
48.781,101.42
48.796,110.06
48.812,118.61
48.828,124.13
48.843,124.16
48.859,117.32
48.875,103.51
48.890,83.77
48.906,59.9
48.921,34.06
48.937,8.38
48.953,-15.2
48.968,-35.28
48.984,-51.16
49.000,-62.81
49.015,-70.77
49.031,-75.87
49.046,-79.02
49.062,-81.01
49.078,-82.63
49.093,-84.52
49.109,-87.26
49.125,-91.12
49.140,-95.82
49.156,-100.55
49.171,-104.19
49.187,-105.8
49.203,-105.17
49.218,-103.09
49.234,-101.03
49.250,-100.62
49.265,-102.94
49.281,-108.25
49.296,-116.11
49.312,-125.91
49.328,-137.08
49.343,-149.25
49.359,-161.79
49.375,-173.5
49.390,-182.53
49.406,-186.93
49.421,-185.45
49.437,-178.17
49.453,-166.66
49.468,-153.3
49.484,-140.39
49.500,-129.38
49.515,-120.49
49.531,-113.12
49.546,-106.49
49.562,-100.21
49.578,-94.46
49.593,-89.64
49.609,-85.95
49.625,-83.03
49.640,-79.93
49.656,-75.52
49.671,-69.08
49.687,-60.6
49.703,-50.96
49.718,-41.44
49.734,-33.36
49.750,-27.59
49.765,-24.44
49.781,-23.75
49.796,-25.0
49.812,-27.58
49.828,-30.69
49.843,-33.45
49.859,-34.84
49.875,-33.96
49.890,-30.2
49.906,-23.52
49.921,-14.52
49.937,-4.23
49.953,6.08
49.968,15.34
49.984,22.85
50.000,28.43
50.015,32.31
50.031,34.9
50.046,36.66
50.062,37.94
50.078,38.98
50.093,39.84
50.109,40.6
50.125,41.24
50.140,41.76
50.156,42.16
50.171,42.38
50.187,42.41
50.203,42.19
50.218,41.77
50.234,41.12
50.250,40.31
50.265,39.32
50.281,38.12
50.296,36.69
50.312,34.98
50.328,33.0
50.343,30.65
50.359,27.94
50.375,24.87
50.390,21.59
50.406,18.22
50.421,14.89
50.437,11.58
50.453,8.13
50.468,4.41
50.484,0.41
50.500,-3.5
50.515,-6.66
50.531,-8.36
50.546,-8.11
50.562,-5.86
50.578,-1.86
50.593,3.56
50.609,10.3
50.625,18.27
50.640,27.28
50.656,36.78
50.671,45.89
50.687,53.61
50.703,59.36
50.718,63.12
50.734,65.4
50.750,66.88
50.765,67.89
50.781,68.36
50.796,67.98
50.812,66.5
50.828,64.03
50.843,60.88
50.859,57.26
50.875,53.15
50.890,48.37
50.906,42.77
50.921,36.59
50.937,30.37
50.953,24.72
50.968,19.93
50.984,15.72
51.000,11.3
51.015,5.96
51.031,-0.5
51.046,-7.56
51.062,-14.21
51.078,-19.43
51.093,-22.66
51.109,-23.85
51.125,-23.42
51.140,-21.9
51.156,-19.79
51.171,-17.43
51.187,-15.05
51.203,-12.83
51.218,-10.89
51.234,-9.25
51.250,-7.76
51.265,-6.19
51.281,-4.22
51.296,-1.58
51.312,1.89
51.328,6.23
51.343,11.39
51.359,17.2
51.375,23.38
51.390,29.64
51.406,35.79
51.421,41.86
51.437,47.88
51.453,53.79
51.468,59.23
51.484,63.64
51.500,66.42
51.515,67.19
51.531,65.96
51.546,63.19
51.562,59.66
51.578,56.24
51.593,53.71
51.609,52.58
51.625,53.08
51.640,55.07
51.656,58.13
51.671,61.63
51.687,64.87
51.703,67.31
51.718,68.62
51.734,68.73
51.750,67.75
51.765,65.82
51.781,63.02
51.796,59.28
51.812,54.43
51.828,48.37
51.843,41.31
51.859,33.85
51.875,27.05
51.890,22.17
51.906,20.39
51.921,22.34
51.937,28.12
51.953,37.22
51.968,48.84
51.984,62.21
52.000,76.71
52.015,91.87
52.031,107.11
52.046,121.7
52.062,134.6
52.078,144.81
52.093,151.49
52.109,154.16
52.125,152.78
52.140,147.67
52.156,139.4
52.171,128.83
52.187,117.19
52.203,106.01
52.218,96.98
52.234,91.62
52.250,90.76
52.265,94.28
52.281,101.09
52.296,109.46
52.312,117.58
52.328,124.08
52.343,128.23
52.359,129.94
52.375,129.53
52.390,127.42
52.406,124.1
52.421,119.99
52.437,115.31
52.453,109.89
52.468,103.05
52.484,93.74
52.500,80.96
52.515,64.39
52.531,44.61
52.546,23.14
52.562,1.84
52.578,-17.89
52.593,-35.55
52.609,-51.56
52.625,-66.96
52.640,-82.82
52.656,-99.98
52.671,-118.88
52.687,-139.53
52.703,-161.33
52.718,-183.04
52.734,-202.89
52.750,-218.92
52.765,-229.77
52.781,-234.95
52.796,-235.05
52.812,-231.2
52.828,-224.39
52.843,-214.89
52.859,-202.47
52.875,-186.77
52.890,-168.21
52.906,-148.31
52.921,-129.29
52.937,-113.35
52.953,-101.81
52.968,-94.66
52.984,-90.87
53.000,-89.05
53.015,-88.05
53.031,-87.35
53.046,-86.87
53.062,-86.44
53.078,-85.5
53.093,-83.13
53.109,-78.32
53.125,-70.56
53.140,-60.12
53.156,-47.98
53.171,-35.48
53.187,-23.77
53.203,-13.43
53.218,-4.4
53.234,3.97
53.250,12.61
53.265,22.57
53.281,34.81
53.296,49.92
53.312,67.94
53.328,88.16
53.343,109.23
53.359,129.45
53.375,147.48
53.390,162.71
53.406,175.44
53.421,186.48
53.437,196.4
53.453,205.06
53.468,211.63
53.484,214.94
53.500,214.3
53.515,209.97
53.531,203.05
53.546,194.82
53.562,185.99
53.578,176.24
53.593,164.4
53.609,149.2
53.625,129.98
53.640,106.96
53.656,81.07
53.671,53.34
53.687,24.64
53.703,-4.27
53.718,-32.24
53.734,-57.34
53.750,-77.04
53.765,-88.88
53.781,-91.5
53.796,-85.23
53.812,-71.91
53.828,-53.98
53.843,-33.64
53.859,-12.44
53.875,8.3
53.890,26.77
53.906,40.29
53.921,45.87
53.937,41.32
53.953,26.49
53.968,3.79
53.984,-22.65
54.000,-48.4
54.015,-70.38
54.031,-87.78
54.046,-101.89
54.062,-115.27
54.078,-130.66
54.093,-150.32
54.109,-175.47
54.125,-206.13
54.140,-240.73
54.156,-276.07
54.171,-307.77
54.187,-331.39
54.203,-343.92
54.218,-344.77
54.234,-336.01
54.250,-321.28
54.265,-304.37
54.281,-287.82
54.296,-272.53
54.312,-258.27
54.328,-244.6
54.343,-231.53
54.359,-219.64
54.375,-209.65
54.390,-201.69
54.406,-195.24
54.421,-189.19
54.437,-182.49
54.453,-174.64
54.468,-165.91
54.484,-157.27
54.500,-149.83
54.515,-144.33
54.531,-140.79
54.546,-138.59
54.562,-136.78
54.578,-134.54
54.593,-131.38
54.609,-127.05
54.625,-121.4
54.640,-114.13
54.656,-104.86
54.671,-93.29
54.687,-79.58
54.703,-64.38
54.718,-48.8
54.734,-34.08
54.750,-21.19
54.765,-10.75
54.781,-2.82
54.796,2.84
54.812,6.72
54.828,9.34
54.843,11.19
54.859,12.59
54.875,13.69
54.890,14.53
54.906,15.04
54.921,15.22
54.937,15.14
54.953,14.98
54.968,14.9
54.984,15.06
55.000,15.48
55.015,16.02
55.031,16.52
55.046,16.63
55.062,16.04
55.078,14.42
55.093,11.63
55.109,7.74
55.125,3.05
55.140,-2.0
55.156,-6.98
55.171,-11.63
55.187,-15.99
55.203,-20.27
55.218,-24.85
55.234,-30.01
55.250,-35.71
55.265,-41.57
55.281,-46.78
55.296,-50.34
55.312,-51.17
55.328,-48.53
55.343,-42.07
55.359,-32.1
55.375,-19.48
55.390,-5.39
55.406,8.95
55.421,22.6
55.437,34.94
55.453,45.67
55.468,54.58
55.484,61.55
55.500,66.47
55.515,69.37
55.531,70.54
55.546,70.46
55.562,69.74
55.578,68.82
55.593,67.89
55.609,66.78
55.625,65.25
55.640,63.02
55.656,60.07
55.671,56.55
55.687,52.73
55.703,48.84
55.718,44.96
55.734,41.01
55.750,36.78
55.765,32.0
55.781,26.6
55.796,20.61
55.812,14.29
55.828,8.01
55.843,2.12
55.859,-3.15
55.875,-7.82
55.890,-12.2
55.906,-16.8
55.921,-22.15
55.937,-28.61
55.953,-36.1
55.968,-44.02
55.984,-51.2
56.000,-56.21
56.015,-57.59
56.031,-54.4
56.046,-46.44
56.062,-34.34
56.078,-19.38
56.093,-3.08
56.109,13.17
56.125,28.38
56.140,41.96
56.156,53.6
56.171,63.17
56.187,70.6
56.203,75.85
56.218,78.99
56.234,80.27
56.250,80.08
56.265,78.89
56.281,77.18
56.296,75.26
56.312,73.26
56.328,71.18
56.343,68.87
56.359,66.27
56.375,63.42
56.390,60.54
56.406,57.83
56.421,55.51
56.437,53.5
56.453,51.55
56.468,49.2
56.484,46.0
56.500,41.67
56.515,36.19
56.531,29.77
56.546,22.78
56.562,15.63
56.578,8.57
56.593,1.7
56.609,-5.11
56.625,-12.16
56.640,-19.7
56.656,-27.91
56.671,-36.72
56.687,-45.64
56.703,-53.71
56.718,-59.62
56.734,-61.84
56.750,-59.18
56.765,-51.19
56.781,-38.33
56.796,-22.03
56.812,-4.2
56.828,13.34
56.843,29.31
56.859,43.16
56.875,54.9
56.890,64.75
56.906,72.77
56.921,78.91
56.937,83.02
56.953,85.11
56.968,85.54
56.984,84.82
57.000,83.51
57.015,82.02
57.031,80.51
57.046,79.07
57.062,77.78
57.078,76.79
57.093,76.33
57.109,76.56
57.125,77.44
57.140,78.67
57.156,79.81
57.171,80.42
57.187,80.24
57.203,79.29
57.218,77.76
57.234,75.99
57.250,74.26
57.265,72.68
57.281,71.26
57.296,69.9
57.312,68.44
57.328,66.84
57.343,65.12
57.359,63.34
57.375,61.6
57.390,59.99
57.406,58.55
57.421,57.26
57.437,56.12
57.453,55.04
57.468,54.0
57.484,53.0
57.500,52.16
57.515,51.68
57.531,51.69
57.546,52.27
57.562,53.32
57.578,54.62
57.593,55.94
57.609,57.17
57.625,58.43
57.640,60.1
57.656,62.7
57.671,66.49
57.687,71.45
57.703,77.14
57.718,82.93
57.734,88.33
57.750,93.3
57.765,98.41
57.781,104.66
57.796,113.11
57.812,124.16
57.828,137.49
57.843,152.07
57.859,166.64
57.875,180.09
57.890,191.81
57.906,201.72
57.921,210.01
57.937,217.04
57.953,223.19
57.968,228.97
57.984,234.78
58.000,240.59
58.015,245.5
58.031,247.71
58.046,245.13
58.062,236.38
58.078,221.79
58.093,203.79
58.109,186.26
58.125,173.14
58.140,167.14
58.156,168.92
58.171,177.22
58.187,189.56
58.203,202.97
58.218,214.42
58.234,220.85
58.250,219.24
58.265,206.79
58.281,181.68
58.296,143.84
58.312,95.12
58.328,39.07
58.343,-19.95
58.359,-77.85
58.375,-131.73
58.390,-180.21
58.406,-223.51
58.421,-262.96
58.437,-300.32
58.453,-336.83
58.468,-372.21
58.484,-403.94
58.500,-427.59
58.515,-438.21
58.531,-432.4
58.546,-410.14
58.562,-375.15
58.578,-333.82
58.593,-292.87
58.609,-257.15
58.625,-228.55
58.640,-206.57
58.656,-189.62
58.671,-176.5
58.687,-166.99
58.703,-161.55
58.718,-160.66
58.734,-164.25
58.750,-171.64
58.765,-181.63
58.781,-192.77
58.796,-203.2
58.812,-210.77
58.828,-213.33
58.843,-209.09
58.859,-197.14
58.875,-177.74
58.890,-152.15
58.906,-122.29
58.921,-90.43
58.937,-58.81
58.953,-29.46
58.968,-4.06
58.984,16.36
59.000,31.64
59.015,42.45
59.031,50.24
59.046,56.68
59.062,63.11
59.078,70.27
59.093,78.25
59.109,86.67
59.125,95.01
59.140,102.54
59.156,108.29
59.171,111.24
59.187,110.64
59.203,106.57
59.218,100.1
59.234,92.97
59.250,86.77
59.265,82.16
59.281,78.62
59.296,74.93
59.312,70.1
59.328,63.9
59.343,56.64
59.359,48.2
59.375,37.07
59.390,20.39
59.406,-4.99
59.421,-40.64
59.437,-85.16
59.453,-133.83
59.468,-179.75
59.484,-215.81
59.500,-236.58
59.515,-239.57
59.531,-225.41
59.546,-197.18
59.562,-159.39
59.578,-116.83
59.593,-73.52
59.609,-32.06
59.625,6.72
59.640,43.5
59.656,79.44
59.671,115.02
59.687,148.79
59.703,177.11
59.718,194.93
59.734,197.36
59.750,181.39
59.765,147.04
59.781,97.7
59.796,39.63
59.812,-19.2
59.828,-70.63
59.843,-107.84
59.859,-126.87
59.875,-127.59
59.890,-113.64
59.906,-91.39
59.921,-67.89
59.937,-48.82
59.953,-37.3
59.968,-33.75
59.984,-36.8
