timestamp,value
00.000,-16.07
00.015,11.7
00.031,37.22
00.046,58.66
00.062,75.38
00.078,87.72
00.093,96.31
00.109,101.59
00.125,103.66
00.140,102.56
00.156,98.78
00.171,93.48
00.187,88.19
00.203,84.29
00.218,82.29
00.234,81.61
00.250,80.9
00.265,78.73
00.281,74.38
00.296,68.15
00.312,61.21
00.328,54.99
00.343,50.52
00.359,48.12
00.375,47.36
00.390,47.45
00.406,47.6
00.421,47.34
00.437,46.51
00.453,45.2
00.468,43.43
00.484,41.09
00.500,37.77
00.515,33.0
00.531,26.43
00.546,18.0
00.562,8.15
00.578,-2.1
00.593,-11.19
00.609,-17.24
00.625,-18.35
00.640,-13.16
00.656,-1.28
00.671,16.43
00.687,38.05
00.703,61.13
00.718,83.25
00.734,102.63
00.750,118.33
00.765,130.14
00.781,138.42
00.796,143.69
00.812,146.52
00.828,147.39
00.843,146.67
00.859,144.64
00.875,141.52
00.890,137.47
00.906,132.52
00.921,126.63
00.937,119.63
00.953,111.43
00.968,102.18
00.984,92.4
01.000,82.92
01.015,74.52
01.031,67.59
01.046,61.87
01.062,56.59
01.078,50.9
01.093,44.45
01.109,37.82
01.125,32.41
01.140,29.99
01.156,31.89
01.171,38.3
01.187,47.89
01.203,58.1
01.218,65.87
01.234,68.6
01.250,64.97
01.265,55.34
01.281,41.35
01.296,25.23
01.312,8.96
01.328,-6.12
01.343,-19.46
01.359,-30.84
01.375,-40.09
01.390,-46.96
01.406,-51.21
01.421,-52.92
01.437,-52.65
01.453,-51.3
01.468,-49.76
01.484,-48.64
01.500,-47.96
01.515,-47.26
01.531,-45.86
01.546,-43.2
01.562,-39.11
01.578,-33.9
01.593,-28.29
01.609,-23.19
01.625,-19.4
01.640,-17.32
01.656,-16.84
01.671,-17.43
01.687,-18.34
01.703,-18.98
01.718,-19.2
01.734,-19.34
01.750,-20.08
01.765,-22.08
01.781,-25.65
01.796,-30.54
01.812,-36.12
01.828,-41.65
01.843,-46.6
01.859,-50.88
01.875,-54.7
01.890,-58.48
01.906,-62.73
01.921,-67.94
01.937,-74.6
01.953,-83.01
01.968,-92.99
01.984,-103.57
02.000,-112.85
02.015,-118.29
02.031,-117.33
02.046,-108.22
02.062,-90.68
02.078,-66.09
02.093,-37.11
02.109,-6.97
02.125,21.27
02.140,45.26
02.156,63.68
02.171,76.04
02.187,82.57
02.203,83.99
02.218,81.48
02.234,76.7
02.250,71.74
02.265,68.88
02.281,69.98
02.296,75.67
02.312,84.75
02.328,94.16
02.343,99.79
02.359,97.79
02.375,85.94
02.390,64.48
02.406,35.83
02.421,3.67
02.437,-28.33
02.453,-57.44
02.468,-82.11
02.484,-101.77
02.500,-116.26
02.515,-125.68
02.531,-130.4
02.546,-131.35
02.562,-130.12
02.578,-128.72
02.593,-128.9
02.609,-131.51
02.625,-135.96
02.640,-140.2
02.656,-141.4
02.671,-136.75
02.687,-124.64
02.703,-105.09
02.718,-79.77
02.734,-51.38
02.750,-22.73
02.765,4.06
02.781,27.87
02.796,48.43
02.812,65.89
02.828,80.44
02.843,92.09
02.859,100.81
02.875,106.75
02.890,110.45
02.906,112.84
02.921,114.97
02.937,117.78
02.953,121.8
02.968,127.11
02.984,133.39
03.000,140.16
03.015,146.99
03.031,153.66
03.046,160.26
03.062,167.01
03.078,174.11
03.093,181.56
03.109,188.98
03.125,195.75
03.140,201.24
03.156,205.09
03.171,207.43
03.187,208.88
03.203,210.19
03.218,211.91
03.234,213.97
03.250,215.63
03.265,215.6
03.281,212.38
03.296,204.55
03.312,190.93
03.328,170.8
03.343,144.08
03.359,111.71
03.375,75.81
03.390,39.48
03.406,6.12
03.421,-21.76
03.437,-43.44
03.453,-60.33
03.468,-75.21
03.484,-91.02
03.500,-109.49
03.515,-130.48
03.531,-152.37
03.546,-173.03
03.562,-190.78
03.578,-204.93
03.593,-215.53
03.609,-222.58
03.625,-225.55
03.640,-223.31
03.656,-214.84
03.671,-200.09
03.687,-180.57
03.703,-159.12
03.718,-139.06
03.734,-122.98
03.750,-111.87
03.765,-104.98
03.781,-100.48
03.796,-96.52
03.812,-92.12
03.828,-87.34
03.843,-82.83
03.859,-79.36
03.875,-77.57
03.890,-78.15
03.906,-82.1
03.921,-90.46
03.937,-103.59
03.953,-120.13
03.968,-136.55
03.984,-147.8
04.000,-149.04
04.015,-137.52
04.031,-113.88
04.046,-81.82
04.062,-46.58
04.078,-13.02
04.093,15.75
04.109,38.45
04.125,54.89
04.140,64.99
04.156,68.37
04.171,64.66
04.187,54.24
04.203,38.64
04.218,20.56
04.234,3.05
04.250,-11.35
04.265,-21.35
04.281,-27.01
04.296,-29.4
04.312,-30.03
04.328,-30.35
04.343,-31.47
04.359,-34.03
04.375,-38.13
04.390,-43.37
04.406,-48.88
04.421,-53.58
04.437,-56.51
04.453,-57.18
04.468,-55.65
04.484,-52.56
04.500,-48.9
04.515,-45.99
04.531,-45.43
04.546,-49.03
04.562,-58.21
04.578,-73.22
04.593,-92.42
04.609,-112.09
04.625,-127.16
04.640,-132.84
04.656,-126.25
04.671,-107.56
04.687,-79.82
04.703,-47.8
04.718,-16.28
04.734,11.32
04.750,33.46
04.765,50.12
04.781,62.06
04.796,70.08
04.812,74.69
04.828,76.27
04.843,75.25
04.859,72.37
04.875,68.59
04.890,64.97
04.906,62.27
04.921,60.73
04.937,59.99
04.953,59.22
04.968,57.45
04.984,53.93
05.000,48.37
05.015,41.03
05.031,32.58
05.046,23.69
05.062,14.85
05.078,6.21
05.093,-2.36
05.109,-11.09
05.125,-20.14
05.140,-29.61
05.156,-39.61
05.171,-50.21
05.187,-61.4
05.203,-72.73
05.218,-83.11
05.234,-90.75
05.250,-93.69
05.265,-90.35
05.281,-80.23
05.296,-64.2
05.312,-44.26
05.328,-22.96
05.343,-2.64
05.359,15.14
05.375,29.75
05.390,41.27
05.406,50.08
05.421,56.51
05.437,60.78
05.453,63.06
05.468,63.62
05.484,63.0
05.500,61.87
05.515,60.9
05.531,60.58
05.546,61.08
05.562,62.26
05.578,63.76
05.593,65.13
05.609,65.94
05.625,65.85
05.640,64.67
05.656,62.33
05.671,58.95
05.687,54.73
05.703,49.87
05.718,44.49
05.734,38.67
05.750,32.43
05.765,25.83
05.781,18.85
05.796,11.34
05.812,3.03
05.828,-6.3
05.843,-16.45
05.859,-26.56
05.875,-35.1
05.890,-40.23
05.906,-40.47
05.921,-35.22
05.937,-25.0
05.953,-11.2
05.968,4.47
05.984,20.49
06.000,35.79
06.015,49.56
06.031,60.99
06.046,69.13
06.062,73.01
06.078,72.03
06.093,66.27
06.109,56.65
06.125,44.7
06.140,32.13
06.156,20.38
06.171,10.39
06.187,2.58
06.203,-3.0
06.218,-6.39
06.234,-7.64
06.250,-6.86
06.265,-4.36
06.281,-0.71
06.296,3.21
06.312,6.47
06.328,8.34
06.343,8.55
06.359,7.27
06.375,4.96
06.390,2.08
06.406,-1.27
06.421,-5.38
06.437,-10.87
06.453,-18.48
06.468,-28.71
06.484,-41.6
06.500,-56.5
06.515,-72.04
06.531,-86.28
06.546,-97.15
06.562,-102.89
06.578,-102.6
06.593,-96.37
06.609,-85.23
06.625,-70.66
06.640,-54.13
06.656,-36.75
06.671,-19.25
06.687,-2.15
06.703,13.91
06.718,28.09
06.734,39.48
06.750,47.47
06.765,51.93
06.781,53.38
06.796,52.82
06.812,51.36
06.828,50.02
06.843,49.45
06.859,49.99
06.875,51.66
06.890,54.25
06.906,57.24
06.921,59.89
06.937,61.22
06.953,60.27
06.968,56.38
06.984,49.51
07.000,40.31
07.015,29.99
07.031,19.98
07.046,11.43
07.062,4.96
07.078,0.43
07.093,-2.9
07.109,-6.09
07.125,-10.21
07.140,-15.87
07.156,-22.95
07.171,-30.45
07.187,-36.6
07.203,-39.31
07.218,-36.76
07.234,-28.04
07.250,-13.4
07.265,5.77
07.281,27.37
07.296,49.26
07.312,69.67
07.328,87.45
07.343,102.01
07.359,113.1
07.375,120.6
07.390,124.39
07.406,124.39
07.421,120.69
07.437,113.74
07.453,104.41
07.468,94.0
07.484,83.97
07.500,75.6
07.515,69.62
07.531,66.07
07.546,64.39
07.562,63.73
07.578,63.26
07.593,62.38
07.609,60.66
07.625,57.76
07.640,53.25
07.656,46.68
07.671,37.73
07.687,26.48
07.703,13.4
07.718,-0.67
07.734,-14.84
07.750,-28.52
07.765,-41.59
07.781,-54.41
07.796,-67.46
07.812,-80.91
07.828,-94.16
07.843,-105.73
07.859,-113.53
07.875,-115.53
07.890,-110.49
07.906,-98.54
07.921,-81.22
07.937,-61.02
07.953,-40.62
07.968,-22.21
07.984,-7.11
08.000,4.18
08.015,11.67
08.031,15.49
08.046,15.85
08.062,12.96
08.078,7.27
08.093,-0.49
08.109,-9.37
08.125,-18.47
08.140,-27.07
08.156,-34.81
08.171,-41.55
08.187,-47.3
08.203,-52.06
08.218,-55.78
08.234,-58.33
08.250,-59.6
08.265,-59.56
08.281,-58.33
08.296,-56.29
08.312,-54.11
08.328,-52.7
08.343,-53.0
08.359,-55.68
08.375,-61.01
08.390,-68.85
08.406,-78.85
08.421,-90.65
08.437,-103.95
08.453,-118.3
08.468,-132.7
08.484,-145.39
08.500,-154.02
08.515,-156.26
08.531,-150.68
08.546,-137.3
08.562,-117.79
08.578,-94.94
08.593,-71.76
08.609,-50.64
08.625,-32.82
08.640,-18.43
08.656,-6.85
08.671,2.72
08.687,10.96
08.703,18.29
08.718,24.93
08.734,31.07
08.750,36.96
08.765,42.86
08.781,48.89
08.796,54.94
08.812,60.68
08.828,65.65
08.843,69.51
08.859,72.09
08.875,73.52
08.890,74.07
08.906,74.03
08.921,73.52
08.937,72.48
08.953,70.68
08.968,67.93
08.984,64.13
09.000,59.35
09.015,53.77
09.031,47.61
09.046,41.02
09.062,34.08
09.078,26.82
09.093,19.44
09.109,12.5
09.125,7.05
09.140,4.45
09.156,6.14
09.171,13.1
09.187,25.54
09.203,42.76
09.218,63.37
09.234,85.72
09.250,108.25
09.265,129.68
09.281,148.79
09.296,164.19
09.312,174.05
09.328,176.45
09.343,169.95
09.359,154.34
09.375,131.05
09.390,103.03
09.406,74.11
09.421,48.0
09.437,27.57
09.453,14.33
09.468,8.48
09.484,8.94
09.500,13.63
09.515,19.91
09.531,25.0
09.546,26.54
09.562,23.15
09.578,14.68
09.593,2.14
09.609,-12.64
09.625,-27.61
09.640,-41.05
09.656,-52.01
09.671,-60.61
09.687,-68.04
09.703,-76.28
09.718,-87.56
09.734,-103.44
09.750,-124.0
09.765,-147.38
09.781,-170.07
09.796,-187.85
09.812,-197.08
09.828,-195.74
09.843,-183.83
09.859,-163.11
09.875,-136.29
09.890,-106.17
09.906,-75.09
09.921,-44.77
09.937,-16.49
09.953,8.68
09.968,29.8
09.984,46.21
10.000,57.73
10.015,64.81
10.031,68.35
10.046,69.41
10.062,68.85
10.078,67.03
10.093,63.75
10.109,58.53
10.125,50.96
10.140,40.99
10.156,29.28
10.171,17.12
10.187,6.24
10.203,-1.52
10.218,-4.69
10.234,-2.48
10.250,5.0
10.265,16.88
10.281,31.71
10.296,47.81
10.312,63.57
10.328,77.58
10.343,88.75
10.359,96.3
10.375,99.9
10.390,99.71
10.406,96.38
10.421,90.82
10.437,84.0
10.453,76.79
10.468,69.84
10.484,63.79
10.500,59.2
10.515,56.6
10.531,56.17
10.546,57.6
10.562,60.06
10.578,62.59
10.593,64.48
10.609,65.61
10.625,66.39
10.640,67.43
10.656,69.07
10.671,71.23
10.687,73.31
10.703,74.57
10.718,74.46
10.734,72.86
10.750,70.05
10.765,66.66
10.781,63.4
10.796,60.79
10.812,59.08
10.828,58.13
10.843,57.55
10.859,56.91
10.875,55.93
10.890,54.51
10.906,52.65
10.921,50.27
10.937,47.02
10.953,42.46
10.968,36.16
10.984,27.99
11.000,18.17
11.015,7.09
11.031,-4.81
11.046,-17.15
11.062,-29.48
11.078,-41.06
11.093,-50.73
11.109,-57.1
11.125,-59.05
11.140,-56.21
11.156,-49.33
11.171,-40.12
11.187,-30.71
11.203,-22.89
11.218,-17.68
11.234,-15.14
11.250,-14.76
11.265,-16.04
11.281,-18.91
11.296,-23.74
11.312,-31.08
11.328,-41.07
11.343,-53.13
11.359,-65.96
11.375,-77.91
11.390,-87.29
11.406,-92.6
11.421,-92.52
11.437,-86.22
11.453,-73.76
11.468,-56.58
11.484,-37.54
11.500,-20.2
11.515,-7.58
11.531,-0.95
11.546,0.56
11.562,-0.67
11.578,-2.21
11.593,-2.79
11.609,-2.77
11.625,-3.48
11.640,-6.15
11.656,-11.03
11.671,-17.26
11.687,-23.36
11.703,-28.01
11.718,-30.62
11.734,-31.38
11.750,-31.17
11.765,-31.13
11.781,-32.33
11.796,-35.27
11.812,-39.63
11.828,-44.2
11.843,-47.38
11.859,-47.8
11.875,-45.06
11.890,-39.91
11.906,-33.88
11.921,-28.49
11.937,-24.45
11.953,-21.46
11.968,-18.52
11.984,-14.58
12.000,-9.15
12.015,-2.46
12.031,4.75
12.046,11.67
12.062,17.69
12.078,22.38
12.093,25.39
12.109,26.28
12.125,24.57
12.140,20.04
12.156,12.86
12.171,3.62
12.187,-6.82
12.203,-17.77
12.218,-28.85
12.234,-40.05
12.250,-51.44
12.265,-62.83
12.281,-73.55
12.296,-82.42
12.312,-88.18
12.328,-89.78
12.343,-86.84
12.359,-79.79
12.375,-69.65
12.390,-57.79
12.406,-45.48
12.421,-33.66
12.437,-22.98
12.453,-13.83
12.468,-6.54
12.484,-1.31
12.500,1.91
12.515,3.47
12.531,4.06
12.546,4.44
12.562,5.1
12.578,6.03
12.593,6.81
12.609,6.87
12.625,5.93
12.640,4.21
12.656,2.37
12.671,1.16
12.687,1.06
12.703,2.06
12.718,3.76
12.734,5.62
12.750,7.19
12.765,8.18
12.781,8.31
12.796,7.21
12.812,4.27
12.828,-1.06
12.843,-8.93
12.859,-18.73
12.875,-29.03
12.890,-37.92
12.906,-43.65
12.921,-45.17
12.937,-42.46
12.953,-36.44
12.968,-28.45
12.984,-19.78
13.000,-11.21
13.015,-2.91
13.031,5.31
13.046,13.71
13.062,22.29
13.078,30.75
13.093,38.67
13.109,45.76
13.125,52.24
13.140,58.83
13.156,66.51
13.171,76.05
13.187,87.57
13.203,100.41
13.218,113.43
13.234,125.55
13.250,136.29
13.265,145.83
13.281,154.69
13.296,163.2
13.312,171.04
13.328,177.22
13.343,180.48
13.359,179.86
13.375,175.13
13.390,166.83
13.406,155.96
13.421,143.64
13.437,130.79
13.453,118.02
13.468,105.62
13.484,93.61
13.500,81.72
13.515,69.6
13.531,57.0
13.546,44.12
13.562,31.78
13.578,21.26
13.593,13.86
13.609,10.23
13.625,10.01
13.640,11.81
13.656,13.46
13.671,12.63
13.687,7.18
13.703,-4.1
13.718,-21.24
13.734,-42.66
13.750,-65.41
13.765,-85.68
13.781,-99.97
13.796,-106.18
13.812,-104.25
13.828,-96.06
13.843,-84.38
13.859,-71.78
13.875,-59.67
13.890,-48.36
13.906,-37.89
13.921,-28.91
13.937,-23.1
13.953,-22.49
13.968,-28.29
13.984,-39.8
14.000,-54.29
14.015,-68.04
14.031,-77.9
14.046,-82.92
14.062,-84.63
14.078,-86.17
14.093,-90.6
14.109,-99.45
14.125,-112.14
14.140,-126.6
14.156,-140.38
14.171,-151.68
14.187,-159.73
14.203,-164.47
14.218,-166.06
14.234,-164.48
14.250,-159.61
14.265,-151.32
14.281,-139.79
14.296,-125.47
14.312,-108.98
14.328,-90.94
14.343,-71.94
14.359,-52.45
14.375,-32.86
14.390,-13.57
14.406,4.96
14.421,22.12
14.437,36.94
14.453,48.24
14.468,54.83
14.484,56.01
14.500,51.92
14.515,43.56
14.531,32.45
14.546,20.23
14.562,8.28
14.578,-2.28
14.593,-10.34
14.609,-14.7
14.625,-14.25
14.640,-8.48
14.656,1.99
14.671,15.38
14.687,29.17
14.703,40.96
14.718,49.11
14.734,53.03
14.750,52.8
14.765,48.58
14.781,40.27
14.796,27.55
14.812,10.36
14.828,-10.53
14.843,-33.3
14.859,-55.3
14.875,-73.62
14.890,-85.85
14.906,-90.69
14.921,-88.09
14.937,-79.08
14.953,-65.23
14.968,-48.14
14.984,-29.06
15.000,-8.79
15.015,12.16
15.031,33.23
15.046,53.62
15.062,72.27
15.078,88.08
15.093,100.34
15.109,108.96
15.125,114.49
15.140,117.76
15.156,119.52
15.171,120.07
15.187,119.23
15.203,116.64
15.218,111.98
15.234,105.21
15.250,96.52
15.265,86.2
15.281,74.47
15.296,61.52
15.312,47.56
15.328,33.01
15.343,18.45
15.359,4.57
15.375,-8.04
15.390,-19.07
15.406,-28.5
15.421,-36.56
15.437,-43.63
15.453,-50.22
15.468,-56.67
15.484,-63.0
15.500,-68.7
15.515,-72.6
15.531,-73.11
15.546,-68.59
15.562,-57.93
15.578,-40.98
15.593,-18.78
15.609,6.59
15.625,32.59
15.640,56.8
15.656,77.52
15.671,94.08
15.687,106.79
15.703,116.64
15.718,124.75
15.734,131.96
15.750,138.55
15.765,144.28
15.781,148.62
15.796,151.0
15.812,151.14
15.828,149.21
15.843,145.93
15.859,142.43
15.875,139.98
15.890,139.45
15.906,140.68
15.921,142.05
15.937,140.67
15.953,133.2
15.968,116.98
15.984,90.98
16.000,56.08
16.015,14.68
16.031,-30.16
16.046,-75.4
16.062,-118.36
16.078,-156.71
16.093,-188.43
16.109,-211.93
16.125,-226.32
16.140,-231.47
16.156,-227.8
16.171,-215.89
16.187,-196.3
16.203,-169.58
16.218,-136.71
16.234,-99.45
16.250,-60.32
16.265,-22.1
16.281,12.8
16.296,42.81
16.312,67.15
16.328,85.27
16.343,96.34
16.359,98.94
16.375,91.41
16.390,72.76
16.406,43.51
16.421,6.11
16.437,-35.48
16.453,-76.72
16.468,-113.82
16.484,-144.56
16.500,-168.49
16.515,-186.34
16.531,-199.12
16.546,-207.3
16.562,-210.74
16.578,-208.93
16.593,-201.7
16.609,-189.6
16.625,-173.94
16.640,-156.56
16.656,-139.31
16.671,-123.7
16.687,-110.69
16.703,-100.66
16.718,-93.56
16.734,-88.85
16.750,-85.57
16.765,-82.32
16.781,-77.32
16.796,-68.66
16.812,-54.83
16.828,-35.18
16.843,-10.23
16.859,18.38
16.875,48.27
16.890,76.97
16.906,102.46
16.921,123.5
16.937,139.58
16.953,150.78
16.968,157.43
16.984,160.09
17.000,159.56
17.015,156.89
17.031,153.33
17.046,149.99
17.062,147.47
17.078,145.61
17.093,143.5
17.109,139.79
17.125,133.16
17.140,122.51
17.156,107.22
17.171,87.06
17.187,62.17
17.203,33.23
17.218,1.49
17.234,-31.12
17.250,-62.24
17.265,-89.64
17.281,-111.86
17.296,-128.6
17.312,-140.53
17.328,-148.6
17.343,-153.16
17.359,-153.42
17.375,-147.6
17.390,-133.86
17.406,-111.5
17.421,-81.69
17.437,-47.54
17.453,-13.1
17.468,17.86
17.484,42.98
17.500,61.58
17.515,74.41
17.531,82.96
17.546,88.91
17.562,93.7
17.578,98.26
17.593,102.41
17.609,104.53
17.625,101.46
17.640,89.27
17.656,64.73
17.671,26.95
17.687,-21.69
17.703,-75.8
17.718,-128.54
17.734,-173.68
17.750,-207.21
17.765,-227.95
17.781,-237.01
17.796,-236.69
17.812,-229.42
17.828,-217.36
17.843,-202.34
17.859,-186.15
17.875,-170.66
17.890,-157.69
17.906,-148.7
17.921,-144.26
17.937,-143.83
17.953,-145.65
17.968,-147.12
17.984,-145.36
18.000,-137.92
18.015,-123.47
18.031,-102.08
18.046,-75.19
18.062,-45.01
18.078,-13.94
18.093,16.07
18.109,43.72
18.125,68.21
18.140,88.99
18.156,105.56
18.171,117.49
18.187,124.7
18.203,127.67
18.218,127.4
18.234,125.19
18.250,122.21
18.265,119.17
18.281,116.24
18.296,113.19
18.312,109.67
18.328,105.55
18.343,100.97
18.359,96.25
18.375,91.78
18.390,87.73
18.406,83.91
18.421,79.88
18.437,75.1
18.453,69.16
18.468,62.02
18.484,53.89
18.500,45.08
18.515,35.68
18.531,25.38
18.546,13.6
18.562,-0.15
18.578,-15.78
18.593,-32.34
18.609,-48.12
18.625,-61.23
18.640,-70.2
18.656,-74.51
18.671,-74.69
18.687,-72.04
18.703,-67.98
18.718,-63.6
18.734,-59.31
18.750,-54.93
18.765,-50.1
18.781,-44.61
18.796,-38.68
18.812,-32.92
18.828,-28.04
18.843,-24.57
18.859,-22.65
18.875,-22.09
18.890,-22.34
18.906,-22.64
18.921,-22.11
18.937,-19.99
18.953,-15.94
18.968,-10.35
18.984,-4.56
19.000,-0.54
19.015,-0.24
19.031,-4.82
19.046,-14.15
19.062,-26.78
19.078,-40.56
19.093,-53.36
19.109,-63.78
19.125,-71.31
19.140,-76.21
19.156,-79.17
19.171,-81.13
19.187,-83.13
19.203,-86.12
19.218,-90.66
19.234,-96.46
19.250,-102.09
19.265,-105.06
19.281,-102.54
19.296,-92.32
19.312,-73.63
19.328,-47.6
19.343,-16.93
19.359,15.01
19.375,45.08
19.390,71.17
19.406,92.53
19.421,109.43
19.437,122.76
19.453,133.42
19.468,141.99
19.484,148.67
19.500,153.3
19.515,155.58
19.531,155.21
19.546,152.03
19.562,146.12
19.578,137.88
19.593,127.98
19.609,117.36
19.625,107.02
19.640,97.87
19.656,90.52
19.671,85.14
19.687,81.46
19.703,78.77
19.718,76.13
19.734,72.45
19.750,66.79
19.765,58.48
19.781,47.38
19.796,33.94
19.812,19.09
19.828,4.06
19.843,-10.02
19.859,-22.33
19.875,-32.66
19.890,-41.36
19.906,-49.34
19.921,-57.78
19.937,-67.69
19.953,-79.46
19.968,-92.44
19.984,-104.78
20.000,-113.84
20.015,-116.85
20.031,-111.78
20.046,-98.13
20.062,-77.08
20.078,-51.24
20.093,-23.83
20.109,2.13
20.125,24.52
20.140,42.3
20.156,55.32
20.171,63.96
20.187,68.76
20.203,70.23
20.218,68.87
20.234,65.31
20.250,60.28
20.265,54.66
20.281,49.26
20.296,44.62
20.312,40.97
20.328,38.3
20.343,36.48
20.359,35.48
20.375,35.28
20.390,35.96
20.406,37.42
20.421,39.38
20.437,41.33
20.453,42.61
20.468,42.55
20.484,40.72
20.500,37.0
20.515,31.6
20.531,24.81
20.546,16.64
20.562,6.53
20.578,-6.67
20.593,-24.33
20.609,-47.35
20.625,-75.7
20.640,-108.33
20.656,-143.65
20.671,-180.08
20.687,-216.4
20.703,-251.48
20.718,-283.58
20.734,-309.91
20.750,-326.88
20.765,-331.23
20.781,-321.44
20.796,-298.7
20.812,-266.68
20.828,-230.35
20.843,-194.21
20.859,-161.14
20.875,-132.06
20.890,-106.57
20.906,-83.97
20.921,-63.93
20.937,-46.58
20.953,-32.16
20.968,-20.56
20.984,-11.09
21.000,-2.79
21.015,5.23
21.031,13.41
21.046,21.66
21.062,29.56
21.078,36.82
21.093,43.54
21.109,50.24
21.125,57.59
21.140,65.95
21.156,75.05
21.171,84.01
21.187,91.6
21.203,96.93
21.218,99.75
21.234,100.57
21.250,100.3
21.265,99.78
21.281,99.29
21.296,98.46
21.312,96.49
21.328,92.65
21.343,86.6
21.359,78.49
21.375,68.86
21.390,58.4
21.406,47.93
21.421,38.38
21.437,30.94
21.453,27.01
21.468,27.93
21.484,34.58
21.500,47.05
21.515,64.44
21.531,85.06
21.546,106.9
21.562,128.15
21.578,147.46
21.593,164.12
21.609,177.85
21.625,188.57
21.640,196.24
21.656,200.92
21.671,202.94
21.687,203.0
21.703,202.19
21.718,201.84
21.734,203.16
21.750,206.94
21.765,213.34
21.781,221.86
21.796,231.51
21.812,241.18
21.828,249.91
21.843,257.1
21.859,262.48
21.875,265.9
21.890,267.05
21.906,265.31
21.921,259.87
21.937,250.06
21.953,235.81
21.968,217.75
21.984,197.18
22.000,175.57
22.015,154.26
22.031,134.17
22.046,115.95
22.062,100.06
22.078,86.89
22.093,76.58
22.109,68.67
22.125,62.07
22.140,55.23
22.156,46.69
22.171,35.66
22.187,22.37
22.203,8.0
22.218,-5.69
22.234,-16.8
22.250,-23.74
22.265,-25.49
22.281,-21.84
22.296,-13.56
22.312,-2.31
22.328,9.68
22.343,20.2
22.359,27.89
22.375,32.81
22.390,36.32
22.406,40.33
22.421,45.94
22.437,52.53
22.453,57.59
22.468,57.58
22.484,49.5
22.500,32.17
22.515,6.58
22.531,-24.85
22.546,-59.44
22.562,-95.16
22.578,-130.55
22.593,-164.11
22.609,-193.64
22.625,-216.51
22.640,-230.53
22.656,-235.21
22.671,-232.26
22.687,-224.95
22.703,-216.7
22.718,-209.66
22.734,-204.07
22.750,-198.85
22.765,-192.55
22.781,-184.21
22.796,-173.4
22.812,-159.7
22.828,-142.22
22.843,-119.69
22.859,-91.23
22.875,-57.4
22.890,-20.6
22.906,15.38
22.921,46.6
22.937,70.62
22.953,87.41
22.968,99.17
22.984,108.98
23.000,118.93
23.015,128.75
23.031,135.66
23.046,135.58
23.062,124.93
23.078,102.42
23.093,69.74
23.109,31.25
23.125,-7.44
23.140,-41.02
23.156,-65.83
23.171,-80.52
23.187,-85.93
23.203,-84.53
23.218,-79.39
23.234,-73.28
23.250,-68.09
23.265,-64.82
23.281,-64.15
23.296,-66.88
23.312,-74.25
23.328,-87.43
23.343,-106.83
23.359,-131.48
23.375,-159.17
23.390,-187.05
23.406,-212.4
23.421,-233.04
23.437,-247.27
23.453,-253.65
23.468,-251.15
23.484,-239.72
23.500,-220.9
23.515,-198.01
23.531,-175.24
23.546,-156.26
23.562,-142.83
23.578,-134.43
23.593,-128.97
23.609,-124.14
23.625,-118.51
23.640,-111.91
23.656,-105.05
23.671,-98.63
23.687,-92.78
23.703,-86.98
23.718,-80.38
23.734,-72.34
23.750,-62.54
23.765,-51.08
23.781,-38.2
23.796,-24.08
23.812,-8.81
23.828,7.46
23.843,24.24
23.859,40.7
23.875,55.62
23.890,67.67
23.906,75.81
23.921,79.55
23.937,79.16
23.953,75.59
23.968,70.15
23.984,64.24
24.000,59.05
24.015,55.58
24.031,54.86
24.046,58.16
24.062,66.73
24.078,81.36
24.093,101.47
24.109,124.74
24.125,147.29
24.140,164.61
24.156,173.0
24.171,170.72
24.187,158.34
24.203,138.23
24.218,113.5
24.234,87.16
24.250,61.77
24.265,39.63
24.281,22.86
24.296,13.09
24.312,10.67
24.328,14.0
24.343,19.45
24.359,22.48
24.375,19.25
24.390,8.11
24.406,-9.72
24.421,-30.84
24.437,-51.1
24.453,-67.19
24.468,-77.53
24.484,-82.26
24.500,-82.61
24.515,-80.15
24.531,-76.26
24.546,-72.0
24.562,-68.03
24.578,-64.59
24.593,-61.31
24.609,-57.24
24.625,-50.98
24.640,-41.21
24.656,-27.17
24.671,-8.92
24.687,12.64
24.703,36.0
24.718,59.34
24.734,80.83
24.750,98.91
24.765,112.71
24.781,122.2
24.796,127.94
24.812,130.31
24.828,128.82
24.843,121.91
24.859,107.54
24.875,84.6
24.890,54.06
24.906,19.43
24.921,-14.23
24.937,-42.13
24.953,-61.25
24.968,-71.05
24.984,-72.9
25.000,-69.09
25.015,-62.11
25.031,-54.55
25.046,-49.25
25.062,-49.1
25.078,-56.28
25.093,-71.05
25.109,-91.21
25.125,-112.62
25.140,-130.76
25.156,-142.62
25.171,-147.83
25.187,-148.54
25.203,-148.07
25.218,-149.19
25.234,-152.89
25.250,-158.21
25.265,-163.02
25.281,-165.1
25.296,-162.99
25.312,-156.29
25.328,-145.46
25.343,-131.43
25.359,-115.23
25.375,-97.94
25.390,-80.69
25.406,-64.5
25.421,-50.1
25.437,-37.68
25.453,-26.99
25.468,-17.34
25.484,-7.99
25.500,1.49
25.515,11.14
25.531,20.67
25.546,29.66
25.562,37.82
25.578,44.88
25.593,50.62
25.609,54.71
25.625,56.64
25.640,55.82
25.656,51.66
25.671,43.64
25.687,31.48
25.703,15.2
25.718,-4.67
25.734,-26.78
25.750,-48.94
25.765,-68.25
25.781,-81.7
25.796,-86.92
25.812,-82.91
25.828,-70.42
25.843,-51.77
25.859,-30.19
25.875,-9.02
25.890,9.09
25.906,22.58
25.921,31.03
25.937,34.9
25.953,35.18
25.968,32.94
25.984,29.17
26.000,24.52
26.015,19.25
26.031,13.22
26.046,5.98
26.062,-3.06
26.078,-14.26
26.093,-27.49
26.109,-42.03
26.125,-56.8
26.140,-70.64
26.156,-82.9
26.171,-93.53
26.187,-103.04
26.203,-112.14
26.218,-121.15
26.234,-129.7
26.250,-136.72
26.265,-140.58
26.281,-139.54
26.296,-132.17
26.312,-117.67
26.328,-96.08
26.343,-68.25
26.359,-35.64
26.375,0.02
26.390,36.98
26.406,73.69
26.421,108.84
26.437,141.21
26.453,169.81
26.468,193.88
26.484,213.21
26.500,228.24
26.515,239.99
26.531,249.74
26.546,258.65
26.562,267.5
26.578,276.38
26.593,284.53
26.609,290.21
26.625,290.8
26.640,283.28
26.656,265.12
26.671,235.42
26.687,195.68
26.703,149.87
26.718,103.45
26.734,61.86
26.750,28.88
26.765,5.74
26.781,-8.7
26.796,-17.02
26.812,-21.96
26.828,-25.48
26.843,-28.39
26.859,-30.53
26.875,-31.16
26.890,-29.41
26.906,-24.56
26.921,-16.16
26.937,-4.14
26.953,11.13
26.968,28.62
26.984,46.64
27.000,62.74
27.015,74.11
27.031,78.1
27.046,73.02
27.062,58.8
27.078,37.26
27.093,11.79
27.109,-13.55
27.125,-35.25
27.140,-51.31
27.156,-61.63
27.171,-67.56
27.187,-71.12
27.203,-73.99
27.218,-76.96
27.234,-79.84
27.250,-81.89
27.265,-82.31
27.281,-80.63
27.296,-76.88
27.312,-71.46
27.328,-64.92
27.343,-57.86
27.359,-50.78
27.375,-44.07
27.390,-37.87
27.406,-31.94
27.421,-25.5
27.437,-17.32
27.453,-5.98
27.468,9.68
27.484,30.07
27.500,54.53
27.515,81.44
27.531,108.55
27.546,133.54
27.562,154.54
27.578,170.25
27.593,179.93
27.609,183.35
27.625,180.77
27.640,173.13
27.656,162.22
27.671,150.71
27.687,141.68
27.703,137.65
27.718,139.37
27.734,144.84
27.750,149.39
27.765,146.71
27.781,130.97
27.796,99.07
27.812,52.01
27.828,-4.9
27.843,-63.54
27.859,-115.37
27.875,-153.84
27.890,-176.0
27.906,-182.84
27.921,-178.27
27.937,-167.54
27.953,-155.51
27.968,-145.33
27.984,-138.13
28.000,-133.35
28.015,-129.47
28.031,-124.83
28.046,-118.22
28.062,-109.08
28.078,-97.52
28.093,-84.29
28.109,-70.62
28.125,-57.93
28.140,-47.44
28.156,-39.8
28.171,-35.03
28.187,-32.68
28.203,-32.25
28.218,-33.52
28.234,-36.58
28.250,-41.52
28.265,-47.95
28.281,-54.77
28.296,-60.47
28.312,-63.65
28.328,-63.68
28.343,-60.87
28.359,-56.24
28.375,-50.98
28.390,-45.94
28.406,-41.47
28.421,-37.57
28.437,-34.22
28.453,-31.7
28.468,-30.57
28.484,-31.55
28.500,-35.2
28.515,-41.61
28.531,-50.33
28.546,-60.34
28.562,-70.08
28.578,-77.6
28.593,-80.7
28.609,-77.28
28.625,-65.86
28.640,-46.08
28.656,-19.04
28.671,12.76
28.687,46.0
28.703,77.32
28.718,104.06
28.734,124.64
28.750,138.47
28.765,145.63
28.781,146.56
28.796,141.98
28.812,132.96
28.828,120.96
28.843,107.67
28.859,94.61
28.875,82.68
28.890,72.08
28.906,62.4
28.921,53.13
28.937,44.01
28.953,35.2
28.968,27.13
28.984,20.27
29.000,14.76
29.015,10.37
29.031,6.61
29.046,2.85
29.062,-1.5
29.078,-6.87
29.093,-13.6
29.109,-21.93
29.125,-31.95
29.140,-43.66
29.156,-56.68
29.171,-70.23
29.187,-82.94
29.203,-92.98
29.218,-98.43
29.234,-97.72
29.250,-90.13
29.265,-76.1
29.281,-57.15
29.296,-35.45
29.312,-13.26
29.328,7.52
29.343,25.66
29.359,40.48
29.375,51.77
29.390,59.58
29.406,64.18
29.421,66.13
29.437,66.23
29.453,65.42
29.468,64.55
29.484,64.16
29.500,64.34
29.515,64.83
29.531,65.21
29.546,65.15
29.562,64.57
29.578,63.7
29.593,62.9
29.609,62.47
29.625,62.49
29.640,62.78
29.656,63.01
29.671,62.85
29.687,62.08
29.703,60.57
29.718,58.13
29.734,54.37
29.750,48.6
29.765,40.07
29.781,28.26
29.796,13.28
29.812,-3.88
29.828,-21.49
29.843,-37.48
29.859,-50.05
29.875,-58.01
29.890,-60.94
29.906,-59.06
29.921,-52.98
29.937,-43.59
29.953,-31.92
29.968,-19.14
29.984,-6.47
30.000,5.05
30.015,14.77
30.031,22.59
30.046,28.78
30.062,33.74
30.078,37.64
30.093,40.37
30.109,41.62
30.125,41.13
30.140,38.92
30.156,35.42
30.171,31.27
30.187,27.08
30.203,23.24
30.218,19.82
30.234,16.71
30.250,13.83
30.265,11.35
30.281,9.71
30.296,9.49
30.312,11.03
30.328,14.24
30.343,18.36
30.359,22.26
30.375,24.87
30.390,25.73
30.406,25.33
30.421,25.09
30.437,26.97
30.453,32.89
30.468,44.14
30.484,60.87
30.500,81.85
30.515,104.4
30.531,124.69
30.546,138.46
30.562,141.94
30.578,132.94
30.593,111.55
30.609,80.11
30.625,42.6
30.640,3.47
30.656,-33.33
30.671,-64.95
30.687,-89.68
30.703,-106.69
30.718,-115.76
30.734,-117.25
30.750,-112.2
30.765,-102.38
30.781,-90.08
30.796,-77.66
30.812,-66.97
30.828,-59.01
30.843,-53.9
30.859,-51.1
30.875,-49.81
30.890,-49.35
30.906,-49.28
30.921,-49.52
30.937,-50.17
30.953,-51.52
30.968,-53.93
30.984,-57.68
31.000,-62.82
31.015,-68.94
31.031,-75.0
31.046,-79.44
31.062,-80.51
31.078,-76.8
31.093,-67.78
31.109,-54.01
31.125,-36.95
31.140,-18.48
31.156,-0.41
31.171,15.86
31.187,29.4
31.203,39.64
31.218,46.24
31.234,49.01
31.250,48.06
31.265,43.94
31.281,37.63
31.296,30.4
31.312,23.54
31.328,18.06
31.343,14.47
31.359,12.81
31.375,12.73
31.390,13.65
31.406,14.97
31.421,16.1
31.437,16.57
31.453,15.92
31.468,13.82
31.484,10.05
31.500,4.58
31.515,-2.44
31.531,-10.62
31.546,-19.55
31.562,-28.85
31.578,-38.41
31.593,-48.33
31.609,-58.76
31.625,-69.59
31.640,-80.08
31.656,-88.81
31.671,-93.89
31.687,-93.54
31.703,-86.79
31.718,-73.88
31.734,-56.34
31.750,-36.62
31.765,-17.29
31.781,-0.41
31.796,12.95
31.812,22.73
31.828,29.57
31.843,34.43
31.859,38.18
31.875,41.51
31.890,44.92
31.906,48.89
31.921,54.01
31.937,60.86
31.953,69.86
31.968,81.0
31.984,93.68
32.000,106.89
32.015,119.4
32.031,130.14
32.046,138.28
32.062,143.12
32.078,143.97
32.093,140.06
32.109,130.84
32.125,116.37
32.140,97.67
32.156,76.52
32.171,54.92
32.187,34.11
32.203,14.03
32.218,-6.52
32.234,-28.98
32.250,-53.86
32.265,-79.95
32.281,-104.36
32.296,-123.56
32.312,-134.68
32.328,-136.6
32.343,-130.04
32.359,-117.17
32.375,-100.65
32.390,-82.88
32.406,-65.57
32.421,-49.67
32.437,-35.53
32.453,-23.12
32.468,-12.31
32.484,-3.23
32.500,3.65
32.515,7.48
32.531,7.34
32.546,2.79
32.562,-5.78
32.578,-17.04
32.593,-29.12
32.609,-40.25
32.625,-49.25
32.640,-55.74
32.656,-59.85
32.671,-61.85
32.687,-61.87
32.703,-59.93
32.718,-56.24
32.734,-51.47
32.750,-46.73
32.765,-43.28
32.781,-42.08
32.796,-43.49
32.812,-47.18
32.828,-52.49
32.843,-58.8
32.859,-65.73
32.875,-73.05
32.890,-80.33
32.906,-86.57
32.921,-90.12
32.937,-89.02
32.953,-81.52
32.968,-66.7
32.984,-44.82
33.000,-17.34
33.015,13.41
33.031,44.59
33.046,73.32
33.062,96.89
33.078,113.18
33.093,120.81
33.109,119.48
33.125,110.1
33.140,94.64
33.156,75.75
33.171,56.09
33.187,37.74
33.203,21.91
33.218,8.86
33.234,-1.78
33.250,-10.6
33.265,-18.15
33.281,-24.76
33.296,-30.71
33.312,-36.29
33.328,-41.9
33.343,-47.96
33.359,-54.74
33.375,-62.15
33.390,-69.76
33.406,-76.75
33.421,-82.23
33.437,-85.38
33.453,-85.85
33.468,-83.81
33.484,-80.05
33.500,-75.78
33.515,-72.3
33.531,-70.61
33.546,-70.97
33.562,-72.79
33.578,-74.64
33.593,-74.69
33.609,-71.35
33.625,-63.76
33.640,-52.09
33.656,-37.42
33.671,-21.39
33.687,-5.62
33.703,8.65
33.718,20.7
33.734,30.31
33.750,37.54
33.765,42.57
33.781,45.71
33.796,47.4
33.812,48.24
33.828,48.97
33.843,50.28
33.859,52.66
33.875,56.33
33.890,61.23
33.906,67.15
33.921,73.91
33.937,81.49
33.953,90.0
33.968,99.61
33.984,110.34
34.000,121.96
34.015,133.98
34.031,145.66
34.046,156.32
34.062,165.46
34.078,172.83
34.093,178.29
34.109,181.62
34.125,182.26
34.140,179.25
34.156,171.46
34.171,158.02
34.187,138.9
34.203,115.26
34.218,89.43
34.234,64.47
34.250,43.39
34.265,28.4
34.281,20.29
34.296,18.36
34.312,20.61
34.328,24.4
34.343,27.03
34.359,26.35
34.375,21.0
34.390,10.47
34.406,-5.09
34.421,-25.04
34.437,-48.51
34.453,-74.4
34.468,-101.37
34.484,-127.79
34.500,-151.71
34.515,-171.01
34.531,-183.63
34.546,-188.19
34.562,-184.26
34.578,-172.72
34.593,-155.61
34.609,-135.67
34.625,-115.63
34.640,-97.57
34.656,-82.57
34.671,-70.71
34.687,-61.49
34.703,-54.26
34.718,-48.53
34.734,-44.1
34.750,-40.92
34.765,-38.99
34.781,-38.33
34.796,-38.93
34.812,-40.65
34.828,-43.07
34.843,-45.23
34.859,-45.61
34.875,-42.29
34.890,-33.53
34.906,-18.32
34.921,3.25
34.937,29.97
34.953,59.79
34.968,90.36
34.984,119.38
35.000,144.87
35.015,165.18
35.031,179.02
35.046,185.38
35.062,183.75
35.078,174.24
35.093,157.75
35.109,135.93
35.125,110.9
35.140,84.87
35.156,59.65
35.171,36.29
35.187,15.02
35.203,-4.63
35.218,-23.59
35.234,-42.91
35.250,-63.57
35.265,-86.17
35.281,-110.58
35.296,-135.77
35.312,-159.81
35.328,-180.27
35.343,-195.09
35.359,-203.3
35.375,-205.43
35.390,-203.35
35.406,-199.47
35.421,-195.75
35.437,-192.98
35.453,-190.44
35.468,-186.26
35.484,-178.07
35.500,-163.75
35.515,-142.21
35.531,-113.75
35.546,-80.14
35.562,-44.16
35.578,-8.87
35.593,23.29
35.609,50.99
35.625,74.16
35.640,93.49
35.656,109.81
35.671,123.58
35.687,134.77
35.703,143.18
35.718,148.9
35.734,152.74
35.750,156.2
35.765,161.06
35.781,168.83
35.796,180.26
35.812,195.21
35.828,212.77
35.843,231.36
35.859,248.81
35.875,262.36
35.890,268.81
35.906,265.18
35.921,249.53
35.937,221.62
35.953,183.23
35.968,137.4
35.984,87.24
36.000,34.68
36.015,-19.86
36.031,-76.75
36.046,-135.44
36.062,-193.05
36.078,-244.05
36.093,-281.64
36.109,-300.24
36.125,-297.72
36.140,-276.27
36.156,-241.55
36.171,-200.47
36.187,-158.86
36.203,-120.21
36.218,-85.75
36.234,-55.63
36.250,-30.02
36.265,-9.69
36.281,4.49
36.296,12.3
36.312,14.76
36.328,14.04
36.343,12.75
36.359,13.08
36.375,16.08
36.390,21.37
36.406,27.47
36.421,32.5
36.437,34.92
36.453,34.14
36.468,30.66
36.484,25.74
36.500,20.69
36.515,16.23
36.531,12.15
36.546,7.55
36.562,1.37
36.578,-7.11
36.593,-18.04
36.609,-31.09
36.625,-45.67
36.640,-60.98
36.656,-75.87
36.671,-88.72
36.687,-97.58
36.703,-100.65
36.718,-96.95
36.734,-86.74
36.750,-71.48
36.765,-53.36
36.781,-34.58
36.796,-16.91
36.812,-1.52
36.828,10.83
36.843,19.61
36.859,24.43
36.875,25.28
36.890,22.64
36.906,17.52
36.921,11.3
36.937,5.37
36.953,0.76
36.968,-2.06
36.984,-3.26
37.000,-3.47
37.015,-3.54
37.031,-4.13
37.046,-5.64
37.062,-8.04
37.078,-11.05
37.093,-14.38
37.109,-17.9
37.125,-21.66
37.140,-25.86
37.156,-30.77
37.171,-36.64
37.187,-43.79
37.203,-52.55
37.218,-63.19
37.234,-75.64
37.250,-89.09
37.265,-101.76
37.281,-111.02
37.296,-113.97
37.312,-108.32
37.328,-93.26
37.343,-69.88
37.359,-40.93
37.375,-10.11
37.390,19.06
37.406,43.92
37.421,63.19
37.437,76.73
37.453,85.16
37.468,89.32
37.484,90.07
37.500,88.17
37.515,84.42
37.531,79.66
37.546,74.68
37.562,70.05
37.578,66.01
37.593,62.48
37.609,59.18
37.625,55.84
37.640,52.29
37.656,48.47
37.671,44.3
37.687,39.7
37.703,34.45
37.718,28.35
37.734,21.26
37.750,13.21
37.765,4.45
37.781,-4.67
37.796,-13.78
37.812,-22.69
37.828,-31.54
37.843,-40.79
37.859,-51.09
37.875,-62.87
37.890,-75.77
37.906,-88.4
37.921,-98.39
37.937,-103.0
37.953,-100.05
37.968,-88.76
37.984,-70.12
38.000,-46.61
38.015,-21.43
38.031,2.4
38.046,22.73
38.062,38.48
38.078,49.42
38.093,55.82
38.109,58.16
38.125,57.08
38.140,53.51
38.156,48.63
38.171,43.78
38.187,40.14
38.203,38.37
38.218,38.45
38.234,39.81
38.250,41.6
38.265,43.12
38.281,44.07
38.296,44.57
38.312,44.94
38.328,45.29
38.343,45.38
38.359,44.48
38.375,41.66
38.390,36.15
38.406,27.7
38.421,16.66
38.437,3.91
38.453,-9.44
38.468,-22.43
38.484,-34.51
38.500,-45.63
38.515,-56.22
38.531,-66.96
38.546,-78.5
38.562,-91.1
38.578,-104.29
38.593,-116.7
38.609,-126.17
38.625,-130.32
38.640,-127.24
38.656,-116.19
38.671,-97.94
38.687,-74.5
38.703,-48.56
38.718,-22.66
38.734,1.34
38.750,22.46
38.765,40.43
38.781,55.37
38.796,67.57
38.812,77.42
38.828,85.54
38.843,92.65
38.859,99.63
38.875,107.17
38.890,115.5
38.906,124.32
38.921,132.83
38.937,140.09
38.953,145.42
38.968,148.65
38.984,150.27
39.000,151.08
39.015,151.87
39.031,152.94
39.046,153.75
39.062,152.95
39.078,148.67
39.093,138.94
39.109,122.43
39.125,98.79
39.140,68.88
39.156,34.5
39.171,-2.07
39.187,-38.54
39.203,-73.09
39.218,-104.49
39.234,-132.06
39.250,-155.58
39.265,-175.1
39.281,-190.73
39.296,-202.46
39.312,-210.0
39.328,-212.77
39.343,-210.17
39.359,-201.83
39.375,-188.05
39.390,-169.84
39.406,-148.73
39.421,-126.39
39.437,-104.13
39.453,-82.71
39.468,-62.5
39.484,-43.65
39.500,-26.44
39.515,-11.29
39.531,1.46
39.546,11.77
39.562,20.08
39.578,27.19
39.593,33.93
39.609,40.83
39.625,47.9
39.640,54.6
39.656,60.16
39.671,63.89
39.687,65.45
39.703,65.12
39.718,63.6
39.734,61.91
39.750,61.01
39.765,61.58
39.781,63.84
39.796,67.56
39.812,72.12
39.828,76.72
39.843,80.43
39.859,82.24
39.875,81.11
39.890,76.05
39.906,66.43
39.921,52.07
39.937,33.52
39.953,11.9
39.968,-11.31
39.984,-34.53
40.000,-56.24
40.015,-74.95
40.031,-89.16
40.046,-97.31
40.062,-98.14
40.078,-91.1
40.093,-76.79
40.109,-57.08
40.125,-34.75
40.140,-12.82
40.156,6.2
40.171,20.76
40.187,30.38
40.203,35.4
40.218,36.63
40.234,35.15
40.250,32.16
40.265,28.98
40.281,26.96
40.296,27.29
40.312,30.77
40.328,37.51
40.343,46.89
40.359,57.72
40.375,68.54
40.390,78.02
40.406,85.26
40.421,89.94
40.437,92.29
40.453,92.92
40.468,92.61
40.484,92.04
40.500,91.71
40.515,91.79
40.531,92.13
40.546,92.3
40.562,91.78
40.578,90.01
40.593,86.49
40.609,80.96
40.625,73.46
40.640,64.37
40.656,54.44
40.671,44.64
40.687,35.99
40.703,29.24
40.718,24.74
40.734,22.36
40.750,21.51
40.765,21.41
40.781,21.23
40.796,20.32
40.812,18.33
40.828,15.19
40.843,11.2
40.859,6.96
40.875,3.31
40.890,1.11
40.906,0.99
40.921,3.14
40.937,7.1
40.953,11.86
40.968,16.09
40.984,18.51
41.000,18.24
41.015,15.16
41.031,9.83
41.046,3.35
41.062,-3.0
41.078,-8.12
41.093,-11.36
41.109,-12.61
41.125,-12.25
41.140,-10.85
41.156,-9.06
41.171,-7.37
41.187,-6.05
41.203,-5.21
41.218,-4.83
41.234,-4.92
41.250,-5.67
41.265,-7.54
41.281,-11.21
41.296,-17.32
41.312,-26.01
41.328,-36.45
41.343,-46.64
41.359,-53.7
41.375,-54.72
41.390,-47.68
41.406,-32.33
41.421,-10.33
41.437,15.26
41.453,40.87
41.468,63.42
41.484,80.93
41.500,92.59
41.515,98.54
41.531,99.46
41.546,96.15
41.562,89.41
41.578,80.02
41.593,68.76
41.609,56.4
41.625,43.71
41.640,31.31
41.656,19.53
41.671,8.43
41.687,-2.29
41.703,-12.99
41.718,-23.83
41.734,-34.58
41.750,-44.44
41.765,-52.31
41.781,-57.09
41.796,-58.12
41.812,-55.44
41.828,-49.79
41.843,-42.36
41.859,-34.49
41.875,-27.43
41.890,-22.09
41.906,-19.09
41.921,-18.7
41.937,-20.84
41.953,-24.97
41.968,-30.16
41.984,-35.16
42.000,-38.7
42.015,-39.8
42.031,-38.03
42.046,-33.53
42.062,-26.94
42.078,-19.07
42.093,-10.68
42.109,-2.38
42.125,5.36
42.140,12.1
42.156,17.35
42.171,20.62
42.187,21.64
42.203,20.46
42.218,17.61
42.234,13.93
42.250,10.44
42.265,8.07
42.281,7.51
42.296,9.13
42.312,12.96
42.328,18.74
42.343,25.96
42.359,33.94
42.375,41.92
42.390,49.13
42.406,54.92
42.421,58.8
42.437,60.47
42.453,59.91
42.468,57.32
42.484,53.2
42.500,48.24
42.515,43.17
42.531,38.6
42.546,34.91
42.562,32.17
42.578,30.22
42.593,28.78
42.609,27.59
42.625,26.52
42.640,25.48
42.656,24.49
42.671,23.57
42.687,22.8
42.703,22.27
42.718,22.1
42.734,22.4
42.750,23.16
42.765,24.24
42.781,25.26
42.796,25.73
42.812,25.24
42.828,23.6
42.843,21.01
42.859,18.05
42.875,15.49
42.890,14.01
42.906,14.02
42.921,15.45
42.937,17.89
42.953,20.78
42.968,23.68
42.984,26.45
43.000,29.31
43.015,32.68
43.031,36.86
43.046,41.89
43.062,47.41
43.078,52.71
43.093,57.02
43.109,59.76
43.125,60.87
43.140,60.89
43.156,60.87
43.171,62.0
43.187,65.29
43.203,71.12
43.218,79.21
43.234,88.5
43.250,97.41
43.265,104.2
43.281,107.27
43.296,105.62
43.312,99.1
43.328,88.44
43.343,74.87
43.359,59.66
43.375,43.64
43.390,26.97
43.406,9.56
43.421,-8.42
43.437,-26.01
43.453,-41.51
43.468,-53.1
43.484,-59.76
43.500,-61.86
43.515,-61.09
43.531,-59.79
43.546,-59.98
43.562,-62.74
43.578,-68.18
43.593,-75.74
43.609,-84.75
43.625,-94.7
43.640,-105.24
43.656,-116.05
43.671,-126.8
43.687,-137.27
43.703,-147.46
43.718,-157.48
43.734,-167.23
43.750,-176.11
43.765,-182.82
43.781,-185.74
43.796,-183.56
43.812,-175.84
43.828,-163.27
43.843,-147.38
43.859,-130.05
43.875,-112.99
43.890,-97.47
43.906,-84.32
43.921,-74.0
43.937,-66.68
43.953,-62.14
43.968,-59.61
43.984,-57.78
44.000,-55.09
44.015,-50.12
44.031,-42.05
44.046,-31.04
44.062,-18.1
44.078,-4.8
44.093,7.15
44.109,16.4
44.125,22.17
44.140,24.29
44.156,23.1
44.171,19.14
44.187,13.04
44.203,5.33
44.218,-3.56
44.234,-13.17
44.250,-22.81
44.265,-31.46
44.281,-37.76
44.296,-40.27
44.312,-37.93
44.328,-30.56
44.343,-18.97
44.359,-4.78
44.375,10.23
44.390,24.61
44.406,37.58
44.421,48.83
44.437,58.23
44.453,65.51
44.468,70.29
44.484,72.47
44.500,72.45
44.515,71.13
44.531,69.39
44.546,67.5
44.562,64.69
44.578,59.69
44.593,51.46
44.609,39.96
44.625,26.26
44.640,12.0
44.656,-1.46
44.671,-13.45
44.687,-23.97
44.703,-33.39
44.718,-42.23
44.734,-51.36
44.750,-62.36
44.765,-77.47
44.781,-98.86
44.796,-127.1
44.812,-159.89
44.828,-191.86
44.843,-215.91
44.859,-225.81
44.875,-218.47
44.890,-194.95
44.906,-159.53
44.921,-117.79
44.937,-74.7
44.953,-33.8
44.968,2.19
44.984,30.64
45.000,48.62
45.015,53.72
45.031,45.69
45.046,27.52
45.062,5.08
45.078,-14.86
45.093,-27.28
45.109,-30.6
45.125,-26.7
45.140,-19.29
45.156,-12.09
45.171,-7.71
45.187,-7.71
45.203,-13.26
45.218,-25.5
45.234,-44.96
45.250,-70.73
45.265,-99.7
45.281,-127.03
45.296,-147.7
45.312,-158.28
45.328,-158.43
45.343,-150.9
45.359,-140.59
45.375,-132.76
45.390,-131.34
45.406,-137.72
45.421,-150.43
45.437,-165.73
45.453,-178.72
45.468,-184.99
45.484,-181.79
45.500,-168.63
45.515,-146.99
45.531,-119.5
45.546,-89.0
45.562,-57.89
45.578,-28.07
45.593,-1.09
45.609,21.74
45.625,39.4
45.640,51.45
45.656,58.28
45.671,61.1
45.687,61.53
45.703,61.21
45.718,61.22
45.734,61.98
45.750,63.33
45.765,64.81
45.781,65.94
45.796,66.42
45.812,66.11
45.828,64.95
45.843,62.87
45.859,59.72
45.875,55.42
45.890,49.98
45.906,43.57
45.921,36.48
45.937,29.0
45.953,21.28
45.968,13.12
45.984,4.11
46.000,-6.36
46.015,-18.78
46.031,-33.16
46.046,-48.8
46.062,-64.06
46.078,-76.63
46.093,-84.0
46.109,-84.14
46.125,-76.16
46.140,-60.56
46.156,-39.03
46.171,-13.87
46.187,12.6
46.203,38.64
46.218,63.09
46.234,85.29
46.250,104.82
46.265,121.31
46.281,134.41
46.296,143.96
46.312,150.02
46.328,153.0
46.343,153.61
46.359,152.77
46.375,151.28
46.390,149.67
46.406,148.01
46.421,145.91
46.437,142.77
46.453,138.05
46.468,131.64
46.484,123.83
46.500,115.3
46.515,106.63
46.531,98.1
46.546,89.5
46.562,80.33
46.578,70.06
46.593,58.5
46.609,45.86
46.625,32.64
46.640,19.31
46.656,6.09
46.671,-7.22
46.687,-21.1
46.703,-36.17
46.718,-52.97
46.734,-71.81
46.750,-92.66
46.765,-115.02
46.781,-137.68
46.796,-158.6
46.812,-175.08
46.828,-184.27
46.843,-183.96
46.859,-173.42
46.875,-153.62
46.890,-127.08
46.906,-97.08
46.921,-66.68
46.937,-38.18
46.953,-12.78
46.968,9.18
46.984,27.81
47.000,43.41
47.015,56.34
47.031,66.95
47.046,75.65
47.062,82.86
47.078,88.86
47.093,93.75
47.109,97.49
47.125,100.0
47.140,101.22
47.156,101.25
47.171,100.3
47.187,98.64
47.203,96.48
47.218,93.96
47.234,91.07
47.250,87.76
47.265,83.96
47.281,79.65
47.296,74.89
47.312,69.75
47.328,64.36
47.343,58.9
47.359,53.65
47.375,49.02
47.390,45.49
47.406,43.51
47.421,43.27
47.437,44.48
47.453,46.28
47.468,47.31
47.484,45.93
47.500,40.67
47.515,30.6
47.531,15.78
47.546,-2.59
47.562,-22.14
47.578,-39.77
47.593,-52.35
47.609,-57.47
47.625,-54.11
47.640,-42.84
47.656,-25.56
47.671,-4.92
47.687,16.4
47.703,36.16
47.718,52.88
47.734,65.75
47.750,74.55
47.765,79.46
47.781,80.89
47.796,79.52
47.812,76.07
47.828,71.31
47.843,65.94
47.859,60.57
47.875,55.69
47.890,51.65
47.906,48.66
47.921,46.7
47.937,45.52
47.953,44.68
47.968,43.7
47.984,42.11
48.000,39.67
48.015,36.34
48.031,32.33
48.046,27.94
48.062,23.42
48.078,18.87
48.093,14.17
48.109,9.07
48.125,3.38
48.140,-2.93
48.156,-9.62
48.171,-16.27
48.187,-22.32
48.203,-27.33
48.218,-31.09
48.234,-33.79
48.250,-36.1
48.265,-39.17
48.281,-44.46
48.296,-53.48
48.312,-67.19
48.328,-85.54
48.343,-107.04
48.359,-128.96
48.375,-147.89
48.390,-160.76
48.406,-165.75
48.421,-162.77
48.437,-153.3
48.453,-139.71
48.468,-124.38
48.484,-108.97
48.500,-94.25
48.515,-80.28
48.531,-66.84
48.546,-53.89
48.562,-41.67
48.578,-30.64
48.593,-21.21
48.609,-13.47
48.625,-7.12
48.640,-1.53
48.656,3.97
48.671,9.84
48.687,16.2
48.703,22.75
48.718,29.04
48.734,34.69
48.750,39.51
48.765,43.54
48.781,46.91
48.796,49.65
48.812,51.58
48.828,52.41
48.843,51.89
48.859,50.04
48.875,47.16
48.890,43.83
48.906,40.67
48.921,38.07
48.937,36.03
48.953,34.18
48.968,31.83
48.984,28.22
49.000,22.72
49.015,14.94
49.031,4.76
49.046,-7.73
49.062,-22.21
49.078,-37.96
49.093,-53.73
49.109,-67.69
49.125,-77.58
49.140,-81.33
49.156,-77.68
49.171,-66.74
49.187,-50.11
49.203,-30.43
49.218,-10.53
49.234,7.37
49.250,22.1
49.265,33.51
49.281,42.0
49.296,48.09
49.312,52.07
49.328,54.02
49.343,54.09
49.359,52.64
49.375,50.34
49.390,47.99
49.406,46.32
49.421,45.7
49.437,46.13
49.453,47.33
49.468,48.95
49.484,50.75
49.500,52.62
49.515,54.64
49.531,56.83
49.546,59.1
49.562,61.12
49.578,62.39
49.593,62.31
49.609,60.4
49.625,56.48
49.640,50.73
49.656,43.67
49.671,35.97
49.687,28.06
49.703,19.99
49.718,11.35
49.734,1.47
49.750,-10.32
49.765,-24.43
49.781,-40.86
49.796,-59.29
49.812,-79.05
49.828,-99.17
49.843,-118.3
49.859,-134.66
49.875,-146.27
49.890,-151.4
49.906,-149.09
49.921,-139.64
49.937,-124.57
49.953,-106.13
49.968,-86.71
49.984,-68.09
50.000,-51.22
50.015,-36.24
50.031,-22.77
50.046,-10.32
50.062,1.53
50.078,13.03
50.093,24.34
50.109,35.49
50.125,46.45
50.140,57.08
50.156,67.13
50.171,76.38
50.187,84.73
50.203,92.3
50.218,99.34
50.234,106.16
50.250,112.93
50.265,119.59
50.281,125.79
50.296,130.94
50.312,134.34
50.328,135.31
50.343,133.27
50.359,127.91
50.375,119.26
50.390,107.73
50.406,94.21
50.421,79.83
50.437,65.67
50.453,52.35
50.468,39.76
50.484,27.16
50.500,13.69
50.515,-0.99
50.531,-16.31
50.546,-30.77
50.562,-42.51
50.578,-50.08
50.593,-52.83
50.609,-51.02
50.625,-45.46
50.640,-36.94
50.656,-25.94
50.671,-12.73
50.687,2.32
50.703,18.43
50.718,34.39
50.734,48.87
50.750,60.84
50.765,69.81
50.781,75.86
50.796,79.36
50.812,80.62
50.828,79.79
50.843,76.82
50.859,71.59
50.875,64.09
50.890,54.42
50.906,42.87
50.921,29.84
50.937,15.82
50.953,1.39
50.968,-12.77
50.984,-25.85
51.000,-36.91
51.015,-44.91
51.031,-48.86
51.046,-48.05
51.062,-42.31
51.078,-32.17
51.093,-18.96
51.109,-4.54
51.125,8.98
51.140,19.64
51.156,25.96
51.171,27.13
51.187,23.1
51.203,14.67
51.218,3.58
51.234,-7.58
51.250,-15.65
51.265,-17.65
51.281,-11.75
51.296,1.81
51.312,20.37
51.328,39.46
51.343,54.28
51.359,61.41
51.375,59.97
51.390,51.7
51.406,39.79
51.421,27.3
51.437,16.09
51.453,6.58
51.468,-1.62
51.484,-9.05
51.500,-16.16
51.515,-23.58
51.531,-32.37
51.546,-43.71
51.562,-57.97
51.578,-73.94
51.593,-88.94
51.609,-100.01
51.625,-105.47
51.640,-105.96
51.656,-103.96
51.671,-102.42
51.687,-103.13
51.703,-106.18
51.718,-110.53
51.734,-115.23
51.750,-120.3
51.765,-126.67
51.781,-135.35
51.796,-146.38
51.812,-158.33
51.828,-168.38
51.843,-173.22
51.859,-170.01
51.875,-157.44
51.890,-136.31
51.906,-109.73
51.921,-82.34
51.937,-59.07
51.953,-43.46
51.968,-36.56
51.984,-36.86
52.000,-41.23
52.015,-46.52
52.031,-50.65
52.046,-53.01
52.062,-53.9
52.078,-53.64
52.093,-52.04
52.109,-48.38
52.125,-42.04
52.140,-33.02
52.156,-22.14
52.171,-10.82
52.187,-0.52
52.203,7.86
52.218,14.13
52.234,18.63
52.250,21.72
52.265,23.43
52.281,23.39
52.296,21.09
52.312,16.27
52.328,9.25
52.343,0.76
52.359,-8.38
52.375,-17.74
52.390,-27.38
52.406,-37.66
52.421,-48.66
52.437,-59.71
52.453,-69.28
52.468,-75.36
52.484,-76.19
52.500,-70.93
52.515,-59.97
52.531,-44.77
52.546,-27.36
52.562,-9.71
52.578,6.65
52.593,20.76
52.609,32.15
52.625,40.58
52.640,45.88
52.656,48.03
52.671,47.24
52.687,44.07
52.703,39.37
52.718,34.15
52.734,29.37
52.750,25.73
52.765,23.52
52.781,22.62
52.796,22.63
52.812,23.0
52.828,23.22
52.843,22.96
52.859,22.11
52.875,20.73
52.890,18.92
52.906,16.69
52.921,13.9
52.937,10.31
52.953,5.57
52.968,-0.6
52.984,-8.44
53.000,-17.97
53.015,-28.9
53.031,-40.39
53.046,-51.02
53.062,-58.93
53.078,-62.21
53.093,-59.59
53.109,-50.91
53.125,-37.28
53.140,-20.8
53.156,-3.9
53.171,11.29
53.187,23.44
53.203,32.06
53.218,37.35
53.234,39.82
53.250,40.1
53.265,38.82
53.281,36.6
53.296,34.13
53.312,32.11
53.328,31.12
53.343,31.63
53.359,33.78
53.375,37.44
53.390,42.18
53.406,47.37
53.421,52.2
53.437,55.84
53.453,57.57
53.468,57.01
53.484,54.14
53.500,49.34
53.515,43.26
53.531,36.49
53.546,29.4
53.562,21.93
53.578,13.64
53.593,3.85
53.609,-8.08
53.625,-22.45
53.640,-38.95
53.656,-56.38
53.671,-72.74
53.687,-85.49
53.703,-92.15
53.718,-91.09
53.734,-82.04
53.750,-66.23
53.765,-46.03
53.781,-24.22
53.796,-3.22
53.812,15.3
53.828,30.52
53.843,42.25
53.859,50.6
53.875,55.96
53.890,58.85
53.906,60.03
53.921,60.32
53.937,60.46
53.953,60.73
53.968,61.04
53.984,60.98
54.000,60.13
54.015,58.41
54.031,56.01
54.046,53.36
54.062,50.75
54.078,48.14
54.093,45.1
54.109,40.95
54.125,35.06
54.140,27.11
54.156,17.29
54.171,6.2
54.187,-5.39
54.203,-16.79
54.218,-27.62
54.234,-38.01
54.250,-48.52
54.265,-59.93
54.281,-73.03
54.296,-88.21
54.312,-105.06
54.328,-122.22
54.343,-137.38
54.359,-147.74
54.375,-150.77
54.390,-144.99
54.406,-130.52
54.421,-109.14
54.437,-83.71
54.453,-57.39
54.468,-32.8
54.484,-11.58
54.500,5.6
54.515,18.77
54.531,28.23
54.546,34.35
54.562,37.51
54.578,38.25
54.593,37.27
54.609,35.42
54.625,33.45
54.640,31.83
54.656,30.67
54.671,29.76
54.687,28.76
54.703,27.48
54.718,26.0
54.734,24.63
54.750,23.7
54.765,23.27
54.781,22.95
54.796,21.91
54.812,19.18
54.828,14.01
54.843,6.34
54.859,-3.19
54.875,-13.43
54.890,-23.13
54.906,-31.5
54.921,-38.51
54.937,-44.85
54.953,-51.66
54.968,-60.02
54.984,-70.42
55.000,-82.35
55.015,-94.29
55.031,-103.79
55.046,-108.18
55.062,-105.2
55.078,-93.75
55.093,-74.26
55.109,-48.59
55.125,-19.57
55.140,9.77
55.156,36.87
55.171,60.04
55.187,78.58
55.203,92.54
55.218,102.46
55.234,109.07
55.250,113.08
55.265,115.14
55.281,115.82
55.296,115.54
55.312,114.62
55.328,113.14
55.343,111.03
55.359,108.12
55.375,104.31
55.390,99.79
55.406,95.04
55.421,90.7
55.437,87.26
55.453,84.73
55.468,82.43
55.484,79.1
55.500,73.42
55.515,64.42
55.531,51.96
55.546,36.71
55.562,19.97
55.578,3.16
55.593,-12.62
55.609,-26.85
55.625,-39.6
55.640,-51.45
55.656,-63.15
55.671,-75.35
55.687,-88.29
55.703,-101.42
55.718,-113.24
55.734,-121.51
55.750,-123.72
55.765,-117.87
55.781,-103.23
55.796,-80.76
55.812,-52.96
55.828,-23.13
55.843,5.53
55.859,30.79
55.875,51.66
55.890,68.27
55.906,81.32
55.921,91.64
55.937,99.87
55.953,106.45
55.968,111.86
55.984,116.57
56.000,121.12
56.015,125.98
56.031,131.36
56.046,137.22
56.062,143.33
56.078,149.38
56.093,155.14
56.109,160.49
56.125,165.37
56.140,169.8
56.156,173.72
56.171,177.02
56.187,179.54
56.203,181.07
56.218,181.49
56.234,180.88
56.250,179.54
56.265,177.95
56.281,176.52
56.296,175.38
56.312,174.24
56.328,172.42
56.343,169.14
56.359,163.87
56.375,156.56
56.390,147.67
56.406,137.91
56.421,127.9
56.437,117.83
56.453,107.5
56.468,96.42
56.484,84.16
56.500,70.58
56.515,55.87
56.531,40.51
56.546,25.04
56.562,10.02
56.578,-4.2
56.593,-17.3
56.609,-29.06
56.625,-39.34
56.640,-48.15
56.656,-55.79
56.671,-62.86
56.687,-70.07
56.703,-77.99
56.718,-86.81
56.734,-96.23
56.750,-105.59
56.765,-114.11
56.781,-121.14
56.796,-126.26
56.812,-129.38
56.828,-130.71
56.843,-130.8
56.859,-130.55
56.875,-131.1
56.890,-133.58
56.906,-138.57
56.921,-145.9
56.937,-154.54
56.953,-163.07
56.968,-170.25
56.984,-175.52
57.000,-179.06
57.015,-181.48
57.031,-183.34
57.046,-184.95
57.062,-186.44
57.078,-188.21
57.093,-191.05
57.109,-195.9
57.125,-203.14
57.140,-211.73
57.156,-219.0
57.171,-221.18
57.187,-214.74
57.203,-197.82
57.218,-171.09
57.234,-137.64
57.250,-101.87
57.265,-68.05
57.281,-39.15
57.296,-16.42
57.312,0.22
57.328,11.49
57.343,18.1
57.359,20.66
57.375,19.82
57.390,16.52
57.406,12.11
57.421,8.02
57.437,5.37
57.453,4.6
57.468,5.46
57.484,7.27
57.500,9.35
57.515,11.43
57.531,13.72
57.546,16.65
57.562,20.59
57.578,25.37
57.593,30.26
57.609,34.13
57.625,35.86
57.640,34.78
57.656,30.93
57.671,24.96
57.687,17.87
57.703,10.46
57.718,3.14
57.734,-4.28
57.750,-12.34
57.765,-21.69
57.781,-32.73
57.796,-45.23
57.812,-58.22
57.828,-70.02
57.843,-78.52
57.859,-81.74
57.875,-78.41
57.890,-68.43
57.906,-53.03
57.921,-34.39
57.937,-15.0
57.953,3.02
57.968,18.39
57.984,30.77
58.000,40.49
58.015,48.13
58.031,54.26
58.046,59.28
58.062,63.47
58.078,67.14
58.093,70.56
58.109,73.94
58.125,77.31
58.140,80.4
58.156,82.75
58.171,83.85
58.187,83.46
58.203,81.66
58.218,78.89
58.234,75.66
58.250,72.31
58.265,68.76
58.281,64.52
58.296,59.01
58.312,51.79
58.328,42.9
58.343,32.83
58.359,22.38
58.375,12.31
58.390,3.17
58.406,-4.93
58.421,-12.25
58.437,-19.41
58.453,-27.2
58.468,-36.34
58.484,-47.16
58.500,-59.23
58.515,-71.16
58.531,-80.78
58.546,-85.61
58.562,-83.75
58.578,-74.44
58.593,-58.38
58.609,-37.48
58.625,-14.15
58.640,9.48
58.656,32.0
58.671,52.77
58.687,71.57
58.703,88.21
58.718,102.16
58.734,112.68
58.750,119.17
58.765,121.49
58.781,120.17
58.796,116.3
58.812,111.17
58.828,105.9
58.843,101.23
58.859,97.52
58.875,94.85
58.890,93.17
58.906,92.3
58.921,91.94
58.937,91.65
58.953,90.92
58.968,89.39
58.984,86.94
59.000,83.78
59.015,80.29
59.031,76.86
59.046,73.79
59.062,71.18
59.078,69.09
59.093,67.51
59.109,66.43
59.125,65.76
59.140,65.41
59.156,65.31
59.171,65.36
59.187,65.13
59.203,63.44
59.218,58.28
59.234,47.06
59.250,27.57
59.265,-0.83
59.281,-36.51
59.296,-75.61
59.312,-113.2
59.328,-144.8
59.343,-167.68
59.359,-181.32
59.375,-186.88
59.390,-186.25
59.406,-181.16
59.421,-172.91
59.437,-162.52
59.453,-151.09
59.468,-139.86
59.484,-130.03
59.500,-122.36
59.515,-116.98
59.531,-113.4
59.546,-110.78
59.562,-108.35
59.578,-105.7
59.593,-102.88
59.609,-100.28
59.625,-98.45
59.640,-97.78
59.656,-98.34
59.671,-99.73
59.687,-101.26
59.703,-102.13
59.718,-101.71
59.734,-99.82
59.750,-96.74
59.765,-93.1
59.781,-89.68
59.796,-87.23
59.812,-86.4
59.828,-87.81
59.843,-92.01
59.859,-99.18
59.875,-108.77
59.890,-119.06
59.906,-127.24
59.921,-130.01
59.937,-124.61
59.953,-109.81
59.968,-86.49
59.984,-57.33
