timestamp,value
00.000,110.08
00.015,105.25
00.031,98.36
00.046,88.48
00.062,74.34
00.078,54.64
00.093,28.75
00.109,-2.53
00.125,-36.67
00.140,-69.73
00.156,-97.37
00.171,-116.21
00.187,-125.07
00.203,-125.4
00.218,-120.65
00.234,-115.13
00.250,-112.42
00.265,-114.35
00.281,-120.86
00.296,-130.5
00.312,-141.62
00.328,-153.43
00.343,-166.54
00.359,-182.78
00.375,-204.24
00.390,-232.01
00.406,-265.16
00.421,-300.28
00.437,-331.96
00.453,-354.16
00.468,-361.71
00.484,-351.67
00.500,-323.83
00.515,-280.68
00.531,-226.65
00.546,-167.19
00.562,-108.03
00.578,-54.22
00.593,-9.58
00.609,23.99
00.625,46.65
00.640,60.47
00.656,68.56
00.671,74.14
00.687,79.59
00.703,85.93
00.718,93.04
00.734,100.0
00.750,105.8
00.765,109.74
00.781,111.54
00.796,111.25
00.812,109.23
00.828,106.16
00.843,102.93
00.859,100.69
00.875,100.47
00.890,102.83
00.906,107.29
00.921,112.1
00.937,114.49
00.953,111.28
00.968,99.94
00.984,79.39
01.000,50.48
01.015,15.73
01.031,-21.4
01.046,-57.45
01.062,-89.55
01.078,-115.78
01.093,-135.05
01.109,-147.03
01.125,-152.12
01.140,-151.47
01.156,-147.06
01.171,-141.33
01.187,-136.67
01.203,-134.57
01.218,-134.99
01.234,-136.14
01.250,-135.08
01.265,-128.65
01.281,-114.64
01.296,-92.54
01.312,-63.59
01.328,-30.19
01.343,5.05
01.359,40.12
01.375,73.93
01.390,106.03
01.406,136.06
01.421,163.33
01.437,186.68
01.453,204.85
01.468,216.97
01.484,223.05
01.500,224.01
01.515,221.5
01.531,217.39
01.546,213.33
01.562,210.35
01.578,208.61
01.593,207.37
01.609,205.19
01.625,200.61
01.640,192.91
01.656,182.9
01.671,172.92
01.687,166.17
01.703,165.31
01.718,171.16
01.734,182.09
01.750,194.55
01.765,204.41
01.781,208.29
01.796,204.36
01.812,192.21
01.828,172.36
01.843,145.79
01.859,113.84
01.875,78.11
01.890,40.41
01.906,2.32
01.921,-35.04
01.937,-70.98
01.953,-104.75
01.968,-134.79
01.984,-158.49
02.000,-172.74
02.015,-174.86
02.031,-163.77
02.046,-140.35
02.062,-107.07
02.078,-67.23
02.093,-24.04
02.109,19.8
02.125,62.06
02.140,100.71
02.156,133.78
02.171,159.37
02.187,175.87
02.203,182.11
02.218,177.64
02.234,162.72
02.250,138.61
02.265,107.59
02.281,72.85
02.296,38.11
02.312,6.81
02.328,-18.69
02.343,-37.55
02.359,-50.29
02.375,-58.15
02.390,-62.37
02.406,-63.56
02.421,-61.63
02.437,-56.07
02.453,-46.45
02.468,-32.92
02.484,-16.55
02.500,0.74
02.515,16.54
02.531,28.41
02.546,34.59
02.562,34.42
02.578,28.58
02.593,18.79
02.609,7.46
02.625,-2.85
02.640,-9.75
02.656,-11.6
02.671,-8.03
02.687,-0.56
02.703,7.3
02.718,10.84
02.734,5.74
02.750,-10.06
02.765,-35.39
02.781,-66.32
02.796,-97.78
02.812,-125.45
02.828,-146.74
02.843,-160.49
02.859,-165.74
02.875,-161.08
02.890,-144.91
02.906,-116.98
02.921,-79.79
02.937,-38.91
02.953,-1.51
02.968,26.3
02.984,41.67
03.000,45.83
03.015,42.88
03.031,37.59
03.046,33.24
03.062,30.62
03.078,28.51
03.093,24.85
03.109,18.06
03.125,7.51
03.140,-6.53
03.156,-23.36
03.171,-42.27
03.187,-62.69
03.203,-84.1
03.218,-105.99
03.234,-127.79
03.250,-148.76
03.265,-167.73
03.281,-182.83
03.296,-191.24
03.312,-189.37
03.328,-173.79
03.343,-142.72
03.359,-97.81
03.375,-45.01
03.390,6.27
03.406,45.65
03.421,65.28
03.437,62.48
03.453,40.42
03.468,6.42
03.484,-31.11
03.500,-65.6
03.515,-93.95
03.531,-116.29
03.546,-134.86
03.562,-152.57
03.578,-172.07
03.593,-194.97
03.609,-221.13
03.625,-248.25
03.640,-272.04
03.656,-287.38
03.671,-290.24
03.687,-279.27
03.703,-256.3
03.718,-225.26
03.734,-190.37
03.750,-154.77
03.765,-120.0
03.781,-86.67
03.796,-55.34
03.812,-26.93
03.828,-2.37
03.843,18.19
03.859,35.76
03.875,52.14
03.890,68.94
03.906,86.56
03.921,103.77
03.937,118.21
03.953,127.55
03.968,130.6
03.984,127.94
04.000,121.76
04.015,114.83
04.031,109.37
04.046,106.14
04.062,104.32
04.078,101.99
04.093,97.2
04.109,88.73
04.125,76.58
04.140,61.81
04.156,45.98
04.171,30.44
04.187,15.94
04.203,2.5
04.218,-10.4
04.234,-23.33
04.250,-36.62
04.265,-50.08
04.281,-63.16
04.296,-75.05
04.312,-85.12
04.328,-93.23
04.343,-99.84
04.359,-105.92
04.375,-112.62
04.390,-120.62
04.406,-129.79
04.421,-138.87
04.437,-145.79
04.453,-148.24
04.468,-144.33
04.484,-133.23
04.500,-115.34
04.515,-92.08
04.531,-65.4
04.546,-37.37
04.562,-9.71
04.578,16.29
04.593,39.75
04.609,60.18
04.625,77.38
04.640,91.36
04.656,102.3
04.671,110.46
04.687,116.18
04.703,119.88
04.718,122.14
04.734,123.59
04.750,124.88
04.765,126.5
04.781,128.62
04.796,131.09
04.812,133.5
04.828,135.33
04.843,136.11
04.859,135.52
04.875,133.48
04.890,130.09
04.906,125.71
04.921,120.72
04.937,115.46
04.953,110.11
04.968,104.58
04.984,98.63
05.000,91.98
05.015,84.45
05.031,76.11
05.046,67.18
05.062,58.0
05.078,48.86
05.093,39.88
05.109,30.96
05.125,21.87
05.140,12.27
05.156,1.87
05.171,-9.32
05.187,-20.9
05.203,-31.89
05.218,-40.88
05.234,-46.37
05.250,-47.19
05.265,-42.86
05.281,-33.79
05.296,-21.02
05.312,-5.89
05.328,10.39
05.343,26.92
05.359,43.14
05.375,58.62
05.390,72.99
05.406,85.81
05.421,96.67
05.437,105.3
05.453,111.56
05.468,115.48
05.484,117.18
05.500,116.94
05.515,115.19
05.531,112.55
05.546,109.65
05.562,107.01
05.578,104.85
05.593,103.05
05.609,101.27
05.625,99.08
05.640,96.16
05.656,92.31
05.671,87.46
05.687,81.63
05.703,75.01
05.718,67.98
05.734,61.04
05.750,54.73
05.765,49.34
05.781,44.82
05.796,40.71
05.812,36.41
05.828,31.43
05.843,25.55
05.859,18.97
05.875,12.04
05.890,5.17
05.906,-1.4
05.921,-7.63
05.937,-13.68
05.953,-19.82
05.968,-26.3
05.984,-33.26
06.000,-40.46
06.015,-47.24
06.031,-52.48
06.046,-54.89
06.062,-53.36
06.078,-47.41
06.093,-37.35
06.109,-24.2
06.125,-9.32
06.140,6.04
06.156,20.99
06.171,35.06
06.187,48.06
06.203,59.8
06.218,70.02
06.234,78.39
06.250,84.64
06.265,88.69
06.281,90.69
06.296,91.01
06.312,90.15
06.328,88.58
06.343,86.72
06.359,84.81
06.375,82.98
06.390,81.21
06.406,79.45
06.421,77.68
06.437,75.83
06.453,73.77
06.468,71.23
06.484,67.81
06.500,63.22
06.515,57.4
06.531,50.65
06.546,43.59
06.562,36.95
06.578,31.22
06.593,26.54
06.609,22.59
06.625,18.79
06.640,14.54
06.656,9.4
06.671,3.25
06.687,-3.75
06.703,-11.22
06.718,-18.72
06.734,-25.79
06.750,-32.25
06.765,-38.09
06.781,-43.65
06.796,-49.44
06.812,-55.92
06.828,-63.3
06.843,-71.24
06.859,-78.89
06.875,-84.93
06.890,-88.04
06.906,-87.22
06.921,-82.12
06.937,-73.12
06.953,-61.11
06.968,-47.22
06.984,-32.56
07.000,-17.98
07.015,-4.11
07.031,8.6
07.046,19.9
07.062,29.57
07.078,37.45
07.093,43.45
07.109,47.52
07.125,49.76
07.140,50.47
07.156,50.12
07.171,49.26
07.187,48.39
07.203,47.78
07.218,47.39
07.234,47.02
07.250,46.37
07.265,45.23
07.281,43.53
07.296,41.34
07.312,38.75
07.328,35.85
07.343,32.7
07.359,29.37
07.375,25.96
07.390,22.56
07.406,19.27
07.421,16.12
07.437,13.09
07.453,10.08
07.468,6.94
07.484,3.4
07.500,-0.78
07.515,-5.79
07.531,-11.65
07.546,-18.12
07.562,-24.71
07.578,-30.82
07.593,-35.91
07.609,-39.77
07.625,-42.6
07.640,-44.94
07.656,-47.57
07.671,-51.19
07.687,-56.28
07.703,-62.92
07.718,-70.7
07.734,-78.71
07.750,-85.64
07.765,-90.02
07.781,-90.49
07.796,-86.25
07.812,-77.3
07.828,-64.49
07.843,-49.33
07.859,-33.57
07.875,-18.68
07.890,-5.6
07.906,5.35
07.921,14.36
07.937,21.82
07.953,28.1
07.968,33.4
07.984,37.76
08.000,41.15
08.015,43.64
08.031,45.38
08.046,46.56
08.062,47.33
08.078,47.64
08.093,47.3
08.109,46.06
08.125,43.85
08.140,40.86
08.156,37.57
08.171,34.56
08.187,32.22
08.203,30.58
08.218,29.28
08.234,27.79
08.250,25.64
08.265,22.67
08.281,19.08
08.296,15.28
08.312,11.66
08.328,8.36
08.343,5.21
08.359,1.8
08.375,-2.22
08.390,-6.91
08.406,-12.06
08.421,-17.15
08.437,-21.68
08.453,-25.35
08.468,-28.22
08.484,-30.73
08.500,-33.47
08.515,-37.02
08.531,-41.79
08.546,-47.97
08.562,-55.37
08.578,-63.42
08.593,-71.03
08.609,-76.75
08.625,-79.08
08.640,-76.86
08.656,-69.79
08.671,-58.55
08.687,-44.68
08.703,-30.05
08.718,-16.26
08.734,-4.29
08.750,5.63
08.765,13.76
08.781,20.54
08.796,26.25
08.812,31.03
08.828,34.85
08.843,37.75
08.859,39.78
08.875,41.06
08.890,41.66
08.906,41.63
08.921,40.96
08.937,39.7
08.953,37.99
08.968,36.09
08.984,34.28
09.000,32.76
09.015,31.61
09.031,30.66
09.046,29.65
09.062,28.24
09.078,26.21
09.093,23.46
09.109,20.07
09.125,16.16
09.140,11.85
09.156,7.17
09.171,2.12
09.187,-3.23
09.203,-8.77
09.218,-14.23
09.234,-19.32
09.250,-23.8
09.265,-27.58
09.281,-30.79
09.296,-33.71
09.312,-36.76
09.328,-40.34
09.343,-44.84
09.359,-50.51
09.375,-57.37
09.390,-65.02
09.406,-72.6
09.421,-78.86
09.437,-82.35
09.453,-81.87
09.468,-76.88
09.484,-67.67
09.500,-55.31
09.515,-41.39
09.531,-27.46
09.546,-14.7
09.562,-3.75
09.578,5.32
09.593,12.77
09.609,18.94
09.625,24.13
09.640,28.52
09.656,32.17
09.671,35.13
09.687,37.45
09.703,39.13
09.718,40.13
09.734,40.34
09.750,39.64
09.765,38.03
09.781,35.73
09.796,33.13
09.812,30.68
09.828,28.77
09.843,27.49
09.859,26.63
09.875,25.81
09.890,24.61
09.906,22.8
09.921,20.3
09.937,17.15
09.953,13.48
09.968,9.34
09.984,4.79
10.000,-0.08
10.015,-5.06
10.031,-9.95
10.046,-14.54
10.062,-18.68
10.078,-22.35
10.093,-25.6
10.109,-28.55
10.125,-31.41
10.140,-34.45
10.156,-38.04
10.171,-42.62
10.187,-48.54
10.203,-55.84
10.218,-64.09
10.234,-72.29
10.250,-78.97
10.265,-82.62
10.281,-82.04
10.296,-76.78
10.312,-67.28
10.328,-54.75
10.343,-40.74
10.359,-26.79
10.375,-14.01
10.390,-2.91
10.406,6.46
10.421,14.36
10.437,21.16
10.453,27.21
10.468,32.74
10.484,37.88
10.500,42.53
10.515,46.54
10.531,49.62
10.546,51.51
10.562,52.04
10.578,51.25
10.593,49.36
10.609,46.72
10.625,43.72
10.640,40.72
10.656,38.03
10.671,35.84
10.687,34.17
10.703,32.87
10.718,31.6
10.734,29.95
10.750,27.58
10.765,24.3
10.781,20.18
10.796,15.49
10.812,10.58
10.828,5.74
10.843,1.09
10.859,-3.45
10.875,-8.01
10.890,-12.63
10.906,-17.21
10.921,-21.56
10.937,-25.47
10.953,-28.91
10.968,-32.1
10.984,-35.45
11.000,-39.45
11.015,-44.55
11.031,-50.92
11.046,-58.38
11.062,-66.32
11.078,-73.76
11.093,-79.46
11.109,-82.2
11.125,-81.11
11.140,-75.9
11.156,-67.02
11.171,-55.49
11.187,-42.62
11.203,-29.63
11.218,-17.45
11.234,-6.55
11.250,3.02
11.265,11.38
11.281,18.79
11.296,25.43
11.312,31.39
11.328,36.64
11.343,41.08
11.359,44.59
11.375,47.01
11.390,48.33
11.406,48.54
11.421,47.73
11.437,46.03
11.453,43.71
11.468,41.13
11.484,38.74
11.500,36.96
11.515,35.97
11.531,35.68
11.546,35.69
11.562,35.4
11.578,34.31
11.593,32.08
11.609,28.72
11.625,24.49
11.640,19.74
11.656,14.86
11.671,10.15
11.687,5.79
11.703,1.81
11.718,-1.88
11.734,-5.46
11.750,-9.12
11.765,-13.0
11.781,-17.12
11.796,-21.4
11.812,-25.71
11.828,-30.0
11.843,-34.38
11.859,-39.05
11.875,-44.29
11.890,-50.24
11.906,-56.72
11.921,-63.2
11.937,-68.73
11.953,-72.15
11.968,-72.37
11.984,-68.74
12.000,-61.32
12.015,-50.86
12.031,-38.63
12.046,-25.93
12.062,-13.7
12.078,-2.3
12.093,8.36
12.109,18.54
12.125,28.24
12.140,37.14
12.156,44.71
12.171,50.48
12.187,54.42
12.203,57.01
12.218,59.01
12.234,61.14
12.250,63.8
12.265,66.86
12.281,69.88
12.296,72.37
12.312,74.22
12.328,75.81
12.343,77.95
12.359,81.46
12.375,86.7
12.390,93.3
12.406,100.11
12.421,105.65
12.437,108.67
12.453,108.66
12.468,106.19
12.484,102.64
12.500,99.76
12.515,99.13
12.531,101.77
12.546,107.84
12.562,116.39
12.578,125.32
12.593,131.51
12.609,131.49
12.625,122.39
12.640,102.97
12.656,74.14
12.671,38.52
12.687,-0.62
12.703,-40.71
12.718,-80.84
12.734,-121.59
12.750,-163.99
12.765,-208.0
12.781,-251.36
12.796,-289.57
12.812,-317.11
12.828,-329.28
12.843,-324.08
12.859,-302.98
12.875,-270.61
12.890,-233.19
12.906,-196.67
12.921,-165.16
12.937,-140.28
12.953,-121.47
12.968,-106.74
12.984,-93.62
13.000,-79.8
13.015,-63.57
13.031,-43.98
13.046,-20.99
13.062,4.59
13.078,31.15
13.093,56.52
13.109,78.28
13.125,94.28
13.140,103.25
13.156,105.32
13.171,102.19
13.187,96.61
13.203,91.46
13.218,88.45
13.234,87.47
13.250,86.71
13.265,83.74
13.281,76.76
13.296,65.44
13.312,51.01
13.328,35.57
13.343,21.3
13.359,9.85
13.375,2.06
13.390,-2.11
13.406,-3.54
13.421,-3.69
13.437,-4.2
13.453,-6.18
13.468,-9.85
13.484,-14.51
13.500,-18.91
13.515,-21.87
13.531,-22.68
13.546,-21.03
13.562,-16.85
13.578,-10.08
13.593,-0.92
13.609,9.84
13.625,20.77
13.640,30.18
13.656,36.91
13.671,40.92
13.687,43.28
13.703,45.52
13.718,48.8
13.734,53.28
13.750,58.2
13.765,62.4
13.781,64.93
13.796,65.51
13.812,64.49
13.828,62.57
13.843,60.5
13.859,58.72
13.875,57.4
13.890,56.51
13.906,55.92
13.921,55.49
13.937,55.09
13.953,54.61
13.968,53.92
13.984,52.88
14.000,51.28
14.015,48.85
14.031,45.29
14.046,40.34
14.062,33.73
14.078,25.32
14.093,15.07
14.109,3.09
14.125,-10.32
14.140,-24.62
14.156,-39.02
14.171,-52.54
14.187,-64.09
14.203,-72.87
14.218,-78.73
14.234,-82.45
14.250,-85.79
14.265,-90.92
14.281,-99.58
14.296,-112.18
14.312,-127.23
14.328,-141.51
14.343,-150.95
14.359,-151.99
14.375,-142.8
14.390,-124.2
14.406,-99.69
14.421,-74.71
14.437,-55.1
14.453,-45.3
14.468,-46.78
14.484,-57.43
14.500,-72.22
14.515,-84.98
14.531,-90.54
14.546,-86.15
14.562,-71.8
14.578,-49.36
14.593,-21.43
14.609,9.43
14.625,40.82
14.640,70.24
14.656,95.17
14.671,113.53
14.687,124.56
14.703,129.07
14.718,129.06
14.734,126.48
14.750,122.21
14.765,115.74
14.781,105.92
14.796,92.1
14.812,75.11
14.828,57.17
14.843,41.01
14.859,28.63
14.875,20.44
14.890,15.22
14.906,10.78
14.921,4.91
14.937,-3.83
14.953,-15.92
14.968,-30.84
14.984,-47.57
15.000,-64.94
15.015,-81.89
15.031,-97.58
15.046,-111.38
15.062,-122.79
15.078,-131.43
15.093,-136.99
15.109,-139.21
15.125,-137.89
15.140,-132.92
15.156,-124.16
15.171,-111.52
15.187,-95.0
15.203,-74.94
15.218,-52.16
15.234,-28.11
15.250,-4.75
15.265,15.74
15.281,31.46
15.296,41.24
15.312,44.81
15.328,42.83
15.343,36.54
15.359,27.47
15.375,17.04
15.390,6.39
15.406,-3.65
15.421,-12.53
15.437,-19.82
15.453,-25.15
15.468,-28.11
15.484,-28.44
15.500,-26.07
15.515,-21.3
15.531,-14.84
15.546,-7.62
15.562,-0.64
15.578,5.39
15.593,10.11
15.609,13.56
15.625,15.92
15.640,17.34
15.656,17.84
15.671,17.3
15.687,15.58
15.703,12.55
15.718,8.08
15.734,1.85
15.750,-6.61
15.765,-17.84
15.781,-32.13
15.796,-49.03
15.812,-67.21
15.828,-84.48
15.843,-98.42
15.859,-106.97
15.875,-109.07
15.890,-104.87
15.906,-95.49
15.921,-82.58
15.937,-67.71
15.953,-52.2
15.968,-36.93
15.984,-22.51
16.000,-9.36
16.015,2.22
16.031,12.1
16.046,20.37
16.062,27.25
16.078,33.11
16.093,38.12
16.109,42.27
16.125,45.2
16.140,46.3
16.156,44.91
16.171,40.59
16.187,33.5
16.203,24.66
16.218,16.0
16.234,9.95
16.250,8.8
16.265,13.8
16.281,24.59
16.296,39.15
16.312,54.35
16.328,66.99
16.343,74.78
16.359,76.91
16.375,73.95
16.390,67.27
16.406,58.39
16.421,48.45
16.437,38.14
16.453,27.85
16.468,17.88
16.484,8.38
16.500,-0.71
16.515,-9.83
16.531,-19.69
16.546,-30.94
16.562,-43.68
16.578,-57.16
16.593,-69.79
16.609,-79.53
16.625,-84.45
16.640,-83.25
16.656,-75.44
16.671,-61.38
16.687,-42.05
16.703,-18.91
16.718,6.35
16.734,32.01
16.750,56.52
16.765,78.88
16.781,98.79
16.796,116.61
16.812,132.93
16.828,148.11
16.843,161.85
16.859,173.16
16.875,180.67
16.890,183.22
16.906,180.26
16.921,171.97
16.937,159.0
16.953,142.28
16.968,122.84
16.984,101.83
17.000,80.64
17.015,60.79
17.031,43.61
17.046,29.81
17.062,19.15
17.078,10.54
17.093,2.52
17.109,-6.11
17.125,-15.7
17.140,-25.64
17.156,-34.65
17.171,-41.45
17.187,-45.39
17.203,-46.77
17.218,-46.84
17.234,-47.3
17.250,-49.89
17.265,-55.78
17.281,-65.28
17.296,-77.75
17.312,-91.76
17.328,-105.42
17.343,-116.75
17.359,-124.05
17.375,-126.12
17.390,-122.48
17.406,-113.38
17.421,-99.82
17.437,-83.29
17.453,-65.61
17.468,-48.54
17.484,-33.5
17.500,-21.34
17.515,-12.25
17.531,-5.87
17.546,-1.46
17.562,1.77
17.578,4.55
17.593,7.35
17.609,10.44
17.625,13.85
17.640,17.43
17.656,20.99
17.671,24.36
17.687,27.51
17.703,30.51
17.718,33.52
17.734,36.6
17.750,39.69
17.765,42.5
17.781,44.59
17.796,45.43
17.812,44.48
17.828,41.24
17.843,35.43
17.859,27.0
17.875,16.28
17.890,3.95
17.906,-9.11
17.921,-22.06
17.937,-34.26
17.953,-45.42
17.968,-55.48
17.984,-64.46
18.000,-72.19
18.015,-78.24
18.031,-81.98
18.046,-82.76
18.062,-80.22
18.078,-74.37
18.093,-65.7
18.109,-54.98
18.125,-43.12
18.140,-30.88
18.156,-18.8
18.171,-7.07
18.187,4.34
18.203,15.55
18.218,26.6
18.234,37.25
18.250,46.98
18.265,55.04
18.281,60.65
18.296,63.27
18.312,62.73
18.328,59.27
18.343,53.5
18.359,46.07
18.375,37.53
18.390,28.13
18.406,17.86
18.421,6.64
18.437,-5.47
18.453,-18.06
18.468,-30.39
18.484,-41.61
18.500,-51.07
18.515,-58.51
18.531,-64.13
18.546,-68.28
18.562,-71.17
18.578,-72.57
18.593,-71.8
18.609,-67.91
18.625,-60.16
18.640,-48.38
18.656,-33.32
18.671,-16.58
18.687,-0.28
18.703,13.48
18.718,23.24
18.734,28.61
18.750,30.25
18.765,29.56
18.781,28.07
18.796,26.9
18.812,26.53
18.828,26.97
18.843,28.07
18.859,29.92
18.875,32.85
18.890,37.41
18.906,43.96
18.921,52.45
18.937,62.3
18.953,72.39
18.968,81.27
18.984,87.4
19.000,89.47
19.015,86.73
19.031,79.26
19.046,67.96
19.062,54.39
19.078,40.24
19.093,27.02
19.109,15.72
19.125,6.87
19.140,0.71
19.156,-2.6
19.171,-2.97
19.187,-0.53
19.203,4.21
19.218,10.25
19.234,16.33
19.250,21.25
19.265,24.24
19.281,25.16
19.296,24.42
19.312,22.64
19.328,20.41
19.343,17.98
19.359,15.28
19.375,12.03
19.390,7.91
19.406,2.66
19.421,-3.92
19.437,-12.05
19.453,-22.08
19.468,-34.54
19.484,-49.95
19.500,-68.43
19.515,-89.38
19.531,-111.13
19.546,-131.11
19.562,-146.22
19.578,-153.76
19.593,-152.16
19.609,-141.5
19.625,-123.41
19.640,-100.51
19.656,-75.59
19.671,-50.87
19.687,-27.62
19.703,-6.29
19.718,13.18
19.734,30.95
19.750,47.06
19.765,61.46
19.781,74.03
19.796,84.68
19.812,93.3
19.828,99.79
19.843,103.98
19.859,105.76
19.875,105.15
19.890,102.37
19.906,97.94
19.921,92.47
19.937,86.53
19.953,80.5
19.968,74.45
19.984,68.26
20.000,61.71
20.015,54.65
20.031,47.05
20.046,38.94
20.062,30.38
20.078,21.42
20.093,12.15
20.109,2.7
20.125,-6.73
20.140,-15.89
20.156,-24.69
20.171,-33.18
20.187,-41.58
20.203,-50.09
20.218,-58.74
20.234,-67.24
20.250,-75.15
20.265,-82.11
20.281,-88.05
20.296,-93.28
20.312,-98.35
20.328,-103.58
20.343,-108.73
20.359,-112.9
20.375,-114.72
20.390,-112.87
20.406,-106.62
20.421,-96.08
20.437,-82.26
20.453,-66.65
20.468,-50.83
20.484,-36.16
20.500,-23.5
20.515,-13.21
20.531,-5.07
20.546,1.66
20.562,8.12
20.578,15.6
20.593,25.15
20.609,37.24
20.625,51.53
20.640,67.08
20.656,82.57
20.671,96.78
20.687,108.78
20.703,118.01
20.718,124.23
20.734,127.44
20.750,127.88
20.765,126.08
20.781,122.79
20.796,118.87
20.812,114.98
20.828,111.47
20.843,108.28
20.859,105.1
20.875,101.47
20.890,97.01
20.906,91.46
20.921,84.62
20.937,76.35
20.953,66.61
20.968,55.51
20.984,43.35
21.000,30.72
21.015,18.34
21.031,6.95
21.046,-2.89
21.062,-10.95
21.078,-17.44
21.093,-23.0
21.109,-28.57
21.125,-35.17
21.140,-43.57
21.156,-54.11
21.171,-66.47
21.187,-79.68
21.203,-92.22
21.218,-102.2
21.234,-107.84
21.250,-107.83
21.265,-101.89
21.281,-91.03
21.296,-77.39
21.312,-63.73
21.328,-52.61
21.343,-45.55
21.359,-42.62
21.375,-42.61
21.390,-43.7
21.406,-44.21
21.421,-43.2
21.437,-40.69
21.453,-37.26
21.468,-33.68
21.484,-30.53
21.500,-27.98
21.515,-26.02
21.531,-24.54
21.546,-23.48
21.562,-22.85
21.578,-22.51
21.593,-22.13
21.609,-21.22
21.625,-19.33
21.640,-16.22
21.656,-12.09
21.671,-7.48
21.687,-3.09
21.703,0.45
21.718,2.8
21.734,3.85
21.750,3.72
21.765,2.51
21.781,0.33
21.796,-2.69
21.812,-6.17
21.828,-9.48
21.843,-11.8
21.859,-12.37
21.875,-10.98
21.890,-8.09
21.906,-4.92
21.921,-3.0
21.937,-3.8
21.953,-8.19
21.968,-16.24
21.984,-27.18
22.000,-39.59
22.015,-51.7
22.031,-61.74
22.046,-68.2
22.062,-70.13
22.078,-67.27
22.093,-60.12
22.109,-49.83
22.125,-37.89
22.140,-25.75
22.156,-14.51
22.171,-4.78
22.187,3.44
22.203,10.48
22.218,16.9
22.234,23.19
22.250,29.75
22.265,36.74
22.281,44.01
22.296,51.23
22.312,57.86
22.328,63.34
22.343,67.24
22.359,69.45
22.375,70.25
22.390,70.3
22.406,70.46
22.421,71.48
22.437,73.84
22.453,77.53
22.468,82.19
22.484,87.23
22.500,92.09
22.515,96.42
22.531,100.13
22.546,103.36
22.562,106.45
22.578,109.86
22.593,114.15
22.609,119.7
22.625,126.53
22.640,133.92
22.656,140.46
22.671,144.32
22.687,143.95
22.703,138.92
22.718,130.34
22.734,120.6
22.750,112.59
22.765,108.57
22.781,109.44
22.796,114.61
22.812,122.51
22.828,131.29
22.843,139.43
22.859,145.75
22.875,149.23
22.890,148.85
22.906,143.74
22.921,133.74
22.937,119.77
22.953,103.96
22.968,89.08
22.984,77.62
23.000,70.88
23.015,68.69
23.031,69.69
23.046,72.1
23.062,74.61
23.078,76.56
23.093,77.83
23.109,78.39
23.125,77.9
23.140,75.75
23.156,71.25
23.171,64.03
23.187,54.0
23.203,41.45
23.218,26.64
23.234,9.86
23.250,-8.55
23.265,-28.11
23.281,-48.15
23.296,-67.95
23.312,-87.03
23.328,-105.4
23.343,-123.53
23.359,-142.09
23.375,-161.55
23.390,-181.75
23.406,-201.79
23.421,-220.04
23.437,-234.56
23.453,-243.61
23.468,-246.24
23.484,-242.7
23.500,-234.46
23.515,-223.85
23.531,-213.35
23.546,-204.95
23.562,-199.7
23.578,-197.72
23.593,-198.41
23.609,-201.01
23.625,-204.9
23.640,-209.79
23.656,-215.54
23.671,-221.84
23.687,-228.0
23.703,-232.78
23.718,-234.71
23.734,-232.48
23.750,-225.41
23.765,-213.74
23.781,-198.46
23.796,-181.05
23.812,-162.91
23.828,-145.05
23.843,-127.91
23.859,-111.48
23.875,-95.53
23.890,-79.78
23.906,-64.13
23.921,-48.59
23.937,-33.36
23.953,-18.75
23.968,-5.11
23.984,7.2
24.000,17.87
24.015,26.66
24.031,33.48
24.046,38.46
24.062,41.99
24.078,44.72
24.093,47.48
24.109,51.03
24.125,55.76
24.140,61.58
24.156,67.84
24.171,73.69
24.187,78.27
24.203,80.94
24.218,81.37
24.234,79.36
24.250,74.76
24.265,67.46
24.281,57.48
24.296,45.15
24.312,31.3
24.328,17.12
24.343,3.88
24.359,-7.43
24.375,-16.47
24.390,-23.58
24.406,-29.72
24.421,-35.94
24.437,-43.06
24.453,-51.21
24.468,-59.72
24.484,-67.3
24.500,-72.4
24.515,-73.73
24.531,-70.66
24.546,-63.45
24.562,-52.94
24.578,-40.25
24.593,-26.24
24.609,-11.43
24.625,3.98
24.640,19.86
24.656,35.85
24.671,51.31
24.687,65.35
24.703,77.1
24.718,85.94
24.734,91.58
24.750,94.1
24.765,93.87
24.781,91.46
24.796,87.5
24.812,82.66
24.828,77.52
24.843,72.44
24.859,67.61
24.875,62.98
24.890,58.37
24.906,53.48
24.921,48.07
24.937,41.96
24.953,35.21
24.968,28.08
24.984,21.0
25.000,14.5
25.015,8.92
25.031,4.36
25.046,0.61
25.062,-2.72
25.078,-6.13
25.093,-10.08
25.109,-14.9
25.125,-20.92
25.140,-28.47
25.156,-37.88
25.171,-49.5
25.187,-63.49
25.203,-79.69
25.218,-97.33
25.234,-114.99
25.250,-130.71
25.265,-142.47
25.281,-148.76
25.296,-149.15
25.312,-144.42
25.328,-136.27
25.343,-126.7
25.359,-117.23
25.375,-108.47
25.390,-100.17
25.406,-91.63
25.421,-82.29
25.437,-72.08
25.453,-61.47
25.468,-51.21
25.484,-42.13
25.500,-34.78
25.515,-29.44
25.531,-26.12
25.546,-24.64
25.562,-24.58
25.578,-25.39
25.593,-26.33
25.609,-26.59
25.625,-25.49
25.640,-22.62
25.656,-17.99
25.671,-12.05
25.687,-5.55
25.703,0.65
25.718,5.75
25.734,9.12
25.750,10.35
25.765,9.25
25.781,5.85
25.796,0.47
25.812,-6.42
25.828,-14.14
25.843,-22.06
25.859,-29.65
25.875,-36.65
25.890,-43.13
25.906,-49.34
25.921,-55.72
25.937,-62.73
25.953,-70.83
25.968,-80.27
25.984,-90.99
26.000,-102.36
26.015,-113.09
26.031,-121.37
26.046,-125.16
26.062,-122.72
26.078,-113.2
26.093,-96.91
26.109,-75.39
26.125,-50.94
26.140,-25.97
26.156,-2.45
26.171,18.54
26.187,36.8
26.203,52.72
26.218,66.86
26.234,79.57
26.250,90.9
26.265,100.61
26.281,108.34
26.296,113.85
26.312,117.05
26.328,118.14
26.343,117.49
26.359,115.66
26.375,113.22
26.390,110.72
26.406,108.62
26.421,107.15
26.437,106.3
26.453,105.79
26.468,105.22
26.484,104.1
26.500,102.03
26.515,98.74
26.531,94.06
26.546,87.93
26.562,80.42
26.578,71.8
26.593,62.47
26.609,52.96
26.625,43.74
26.640,35.16
26.656,27.25
26.671,19.8
26.687,12.4
26.703,4.62
26.718,-3.98
26.734,-13.7
26.750,-24.68
26.765,-36.7
26.781,-49.01
26.796,-60.22
26.812,-68.49
26.828,-71.92
26.843,-69.11
26.859,-59.69
26.875,-44.5
26.890,-25.35
26.906,-4.52
26.921,15.81
26.937,34.06
26.953,49.44
26.968,61.9
26.984,71.83
27.000,79.78
27.015,86.23
27.031,91.37
27.046,95.12
27.062,97.26
27.078,97.59
27.093,96.17
27.109,93.27
27.125,89.38
27.140,85.06
27.156,80.84
27.171,77.05
27.187,73.85
27.203,71.23
27.218,68.99
27.234,66.87
27.250,64.51
27.265,61.64
27.281,58.12
27.296,53.95
27.312,49.28
27.328,44.24
27.343,38.88
27.359,33.19
27.375,27.12
27.390,20.78
27.406,14.42
27.421,8.42
27.437,3.09
27.453,-1.54
27.468,-5.66
27.484,-9.69
27.500,-14.17
27.515,-19.58
27.531,-26.25
27.546,-34.24
27.562,-43.17
27.578,-52.17
27.593,-59.91
27.609,-64.66
27.625,-64.86
27.640,-59.53
27.656,-48.69
27.671,-33.45
27.687,-15.7
27.703,2.48
27.718,19.27
27.734,33.6
27.750,45.15
27.765,54.2
27.781,61.33
27.796,67.06
27.812,71.73
27.828,75.37
27.843,77.87
27.859,79.04
27.875,78.87
27.890,77.58
27.906,75.54
27.921,73.16
27.937,70.78
27.953,68.53
27.968,66.4
27.984,64.4
28.000,62.53
28.015,60.86
28.031,59.35
28.046,57.8
28.062,55.87
28.078,53.18
28.093,49.49
28.109,44.72
28.125,39.03
28.140,32.62
28.156,25.74
28.171,18.57
28.187,11.25
28.203,4.04
28.218,-2.77
28.234,-8.89
28.250,-14.19
28.265,-18.8
28.281,-23.16
28.296,-27.92
28.312,-33.73
28.328,-40.97
28.343,-49.52
28.359,-58.61
28.375,-66.77
28.390,-72.2
28.406,-73.22
28.421,-68.87
28.437,-59.19
28.453,-45.32
28.468,-29.05
28.484,-12.33
28.500,3.27
28.515,16.77
28.531,27.81
28.546,36.45
28.562,42.95
28.578,47.68
28.593,51.01
28.609,53.31
28.625,54.81
28.640,55.58
28.656,55.57
28.671,54.74
28.687,53.09
28.703,50.83
28.718,48.22
28.734,45.55
28.750,43.01
28.765,40.71
28.781,38.73
28.796,37.12
28.812,35.88
28.828,34.82
28.843,33.63
28.859,31.92
28.875,29.36
28.890,25.9
28.906,21.7
28.921,17.06
28.937,12.28
28.953,7.46
28.968,2.5
28.984,-2.75
29.000,-8.3
29.015,-13.99
29.031,-19.46
29.046,-24.32
29.062,-28.43
29.078,-31.88
29.093,-35.06
29.109,-38.54
29.125,-42.88
29.140,-48.5
29.156,-55.45
29.171,-63.33
29.187,-71.15
29.203,-77.48
29.218,-80.78
29.234,-79.81
29.250,-74.03
29.265,-63.82
29.281,-50.37
29.296,-35.29
29.312,-20.23
29.328,-6.37
29.343,5.59
29.359,15.57
29.375,23.81
29.390,30.74
29.406,36.68
29.421,41.75
29.437,45.86
29.453,48.77
29.468,50.31
29.484,50.44
29.500,49.41
29.515,47.61
29.531,45.42
29.546,43.12
29.562,40.84
29.578,38.71
29.593,36.85
29.609,35.43
29.625,34.52
29.640,34.02
29.656,33.62
29.671,32.85
29.687,31.32
29.703,28.85
29.718,25.53
29.734,21.64
29.750,17.51
29.765,13.42
29.781,9.49
29.796,5.73
29.812,2.06
29.828,-1.63
29.843,-5.49
29.859,-9.61
29.875,-14.04
29.890,-18.72
29.906,-23.46
29.921,-28.04
29.937,-32.29
29.953,-36.17
29.968,-39.84
29.984,-43.67
30.000,-48.06
30.015,-53.23
30.031,-59.04
30.046,-64.81
30.062,-69.46
30.078,-71.75
30.093,-70.65
30.109,-65.73
30.125,-57.3
30.140,-46.23
30.156,-33.72
30.171,-20.91
30.187,-8.6
30.203,2.69
30.218,12.78
30.234,21.58
30.250,29.04
30.265,35.13
30.281,39.84
30.296,43.23
30.312,45.38
30.328,46.46
30.343,46.67
30.359,46.26
30.375,45.49
30.390,44.59
30.406,43.74
30.421,43.01
30.437,42.4
30.453,41.84
30.468,41.29
30.484,40.7
30.500,40.01
30.515,39.16
30.531,38.06
30.546,36.66
30.562,34.95
30.578,32.98
30.593,30.81
30.609,28.51
30.625,26.1
30.640,23.57
30.656,20.92
30.671,18.15
30.687,15.3
30.703,12.4
30.718,9.4
30.734,6.2
30.750,2.76
30.765,-0.99
30.781,-5.06
30.796,-9.36
30.812,-13.86
30.828,-18.5
30.843,-23.36
30.859,-28.62
30.875,-34.55
30.890,-41.39
30.906,-49.24
30.921,-57.77
30.937,-66.24
30.953,-73.5
30.968,-78.25
30.984,-79.44
31.000,-76.56
31.015,-69.81
31.031,-60.05
31.046,-48.5
31.062,-36.4
31.078,-24.74
31.093,-14.13
31.109,-4.76
31.125,3.43
31.140,10.64
31.156,17.02
31.171,22.64
31.187,27.4
31.203,31.13
31.218,33.68
31.234,35.03
31.250,35.29
31.265,34.75
31.281,33.72
31.296,32.49
31.312,31.24
31.328,30.07
31.343,29.05
31.359,28.27
31.375,27.82
31.390,27.76
31.406,28.02
31.421,28.37
31.437,28.52
31.453,28.13
31.468,26.96
31.484,24.99
31.500,22.33
31.515,19.23
31.531,15.96
31.546,12.74
31.562,9.69
31.578,6.85
31.593,4.16
31.609,1.52
31.625,-1.16
31.640,-3.99
31.656,-7.11
31.671,-10.65
31.687,-14.73
31.703,-19.32
31.718,-24.24
31.734,-29.14
31.750,-33.69
31.765,-37.71
31.781,-41.28
31.796,-44.72
31.812,-48.45
31.828,-52.78
31.843,-57.63
31.859,-62.54
31.875,-66.66
31.890,-69.0
31.906,-68.7
31.921,-65.28
31.937,-58.74
31.953,-49.63
31.968,-38.91
31.984,-27.73
32.000,-17.16
32.015,-8.01
32.031,-0.7
32.046,4.8
32.062,8.82
32.078,11.8
32.093,14.21
32.109,16.33
32.125,18.31
32.140,20.16
32.156,21.86
32.171,23.34
32.187,24.55
32.203,25.47
32.218,26.05
32.234,26.26
32.250,26.1
32.265,25.64
32.281,25.0
32.296,24.39
32.312,23.95
32.328,23.76
32.343,23.74
32.359,23.64
32.375,23.17
32.390,22.12
32.406,20.49
32.421,18.49
32.437,16.49
32.453,14.79
32.468,13.45
32.484,12.23
32.500,10.7
32.515,8.53
32.531,5.6
32.546,2.09
32.562,-1.62
32.578,-5.17
32.593,-8.35
32.609,-11.17
32.625,-13.78
32.640,-16.4
32.656,-19.29
32.671,-22.71
32.687,-26.88
32.703,-31.82
32.718,-37.18
32.734,-42.16
32.750,-45.66
32.765,-46.52
32.781,-43.94
32.796,-37.78
32.812,-28.54
32.828,-17.21
32.843,-4.92
32.859,7.42
32.875,19.2
32.890,30.21
32.906,40.52
32.921,50.32
32.937,59.77
32.953,68.9
32.968,77.58
32.984,85.67
33.000,93.04
33.015,99.82
33.031,106.33
33.046,113.0
33.062,120.27
33.078,128.31
33.093,137.05
33.109,146.19
33.125,155.41
33.140,164.71
33.156,174.39
33.171,185.09
33.187,197.47
33.203,211.66
33.218,227.0
33.234,241.94
33.250,254.41
33.265,262.57
33.281,265.32
33.296,262.67
33.312,255.4
33.328,244.5
33.343,230.65
33.359,213.96
33.375,194.08
33.390,170.55
33.406,143.26
33.421,112.72
33.437,80.13
33.453,47.35
33.468,16.74
33.484,-9.12
33.500,-27.62
33.515,-36.7
33.531,-35.36
33.546,-24.38
33.562,-6.54
33.578,13.62
33.593,30.79
33.609,40.25
33.625,39.23
33.640,27.49
33.656,7.11
33.671,-18.66
33.687,-46.67
33.703,-74.77
33.718,-101.98
33.734,-128.08
33.750,-153.11
33.765,-177.08
33.781,-200.2
33.796,-223.11
33.812,-247.16
33.828,-274.14
33.843,-305.79
33.859,-342.84
33.875,-384.17
33.890,-426.52
33.906,-464.85
33.921,-493.68
33.937,-508.76
33.953,-508.51
33.968,-494.49
33.984,-470.63
34.000,-441.6
34.015,-411.21
34.031,-381.47
34.046,-352.8
34.062,-324.83
34.078,-297.43
34.093,-270.98
34.109,-246.28
34.125,-223.84
34.140,-203.53
34.156,-184.63
34.171,-166.27
34.187,-147.99
34.203,-130.09
34.218,-113.52
34.234,-99.45
34.250,-88.66
34.265,-81.19
34.281,-76.3
34.296,-72.78
34.312,-69.42
34.328,-65.47
34.343,-60.84
34.359,-56.04
34.375,-51.9
34.390,-49.22
34.406,-48.65
34.421,-50.46
34.437,-54.54
34.453,-60.39
34.468,-67.02
34.484,-73.06
34.500,-76.89
34.515,-76.97
34.531,-72.27
34.546,-62.53
34.562,-48.41
34.578,-31.31
34.593,-12.92
34.609,5.22
34.625,22.01
34.640,36.94
34.656,49.99
34.671,61.41
34.687,71.51
34.703,80.49
34.718,88.4
34.734,95.17
34.750,100.63
34.765,104.65
34.781,107.2
34.796,108.36
34.812,108.36
34.828,107.56
34.843,106.35
34.859,105.11
34.875,104.11
34.890,103.52
34.906,103.26
34.921,103.12
34.937,102.75
34.953,101.73
34.968,99.69
34.984,96.41
35.000,91.83
35.015,86.16
35.031,79.76
35.046,73.15
35.062,66.83
35.078,61.18
35.093,56.29
35.109,51.91
35.125,47.6
35.140,42.85
35.156,37.4
35.171,31.24
35.187,24.63
35.203,17.94
35.218,11.41
35.234,5.05
35.250,-1.33
35.265,-8.02
35.281,-15.27
35.296,-23.19
35.312,-31.72
35.328,-40.56
35.343,-49.05
35.359,-56.18
35.375,-60.65
35.390,-61.19
35.406,-56.94
35.421,-47.89
35.437,-34.9
35.453,-19.48
35.468,-3.32
35.484,12.18
35.500,26.17
35.515,38.35
35.531,48.69
35.546,57.29
35.562,64.18
35.578,69.42
35.593,73.13
35.609,75.59
35.625,77.12
35.640,78.03
35.656,78.56
35.671,78.82
35.687,78.83
35.703,78.62
35.718,78.2
35.734,77.63
35.750,76.99
35.765,76.32
35.781,75.59
35.796,74.67
35.812,73.31
35.828,71.27
35.843,68.39
35.859,64.68
35.875,60.41
35.890,55.94
35.906,51.62
35.921,47.59
35.937,43.73
35.953,39.75
35.968,35.33
35.984,30.38
36.000,25.0
36.015,19.48
36.031,14.13
36.046,9.1
36.062,4.3
36.078,-0.52
36.093,-5.74
36.109,-11.67
36.125,-18.42
36.140,-25.8
36.156,-33.2
36.171,-39.61
36.187,-43.75
36.203,-44.4
36.218,-40.74
36.234,-32.72
36.250,-21.16
36.265,-7.49
36.281,6.61
36.296,19.68
36.312,30.88
36.328,39.98
36.343,47.27
36.359,53.19
36.375,58.12
36.390,62.14
36.406,65.14
36.421,66.92
36.437,67.39
36.453,66.69
36.468,65.12
36.484,63.07
36.500,60.9
36.515,58.82
36.531,56.91
36.546,55.19
36.562,53.63
36.578,52.17
36.593,50.75
36.609,49.21
36.625,47.35
36.640,44.99
36.656,42.02
36.671,38.41
36.687,34.24
36.703,29.58
36.718,24.51
36.734,19.12
36.750,13.56
36.765,8.0
36.781,2.61
36.796,-2.54
36.812,-7.47
36.828,-12.28
36.843,-17.1
36.859,-22.12
36.875,-27.5
36.890,-33.42
36.906,-40.07
36.921,-47.39
36.937,-55.0
36.953,-62.0
36.968,-67.12
36.984,-69.05
37.000,-66.82
37.015,-60.22
37.031,-49.91
37.046,-37.24
37.062,-23.8
37.078,-10.92
37.093,0.59
37.109,10.51
37.125,19.03
37.140,26.5
37.156,33.19
37.171,39.16
37.187,44.28
37.203,48.36
37.218,51.22
37.234,52.78
37.250,53.09
37.265,52.3
37.281,50.67
37.296,48.53
37.312,46.27
37.328,44.22
37.343,42.65
37.359,41.65
37.375,41.06
37.390,40.56
37.406,39.73
37.421,38.25
37.437,35.9
37.453,32.73
37.468,28.9
37.484,24.68
37.500,20.3
37.515,15.88
37.531,11.46
37.546,6.99
37.562,2.41
37.578,-2.35
37.593,-7.24
37.609,-12.21
37.625,-17.2
37.640,-22.19
37.656,-27.22
37.671,-32.37
37.687,-37.73
37.703,-43.39
37.718,-49.42
37.734,-55.82
37.750,-62.42
37.765,-68.78
37.781,-74.12
37.796,-77.41
37.812,-77.62
37.828,-74.1
37.843,-66.83
37.859,-56.49
37.875,-44.28
37.890,-31.46
37.906,-19.05
37.921,-7.59
37.937,2.76
37.953,12.06
37.968,20.41
37.984,27.79
38.000,34.1
38.015,39.24
38.031,43.18
38.046,45.92
38.062,47.54
38.078,48.2
38.093,48.09
38.109,47.49
38.125,46.69
38.140,45.99
38.156,45.54
38.171,45.33
38.187,45.16
38.203,44.77
38.218,43.89
38.234,42.33
38.250,39.97
38.265,36.81
38.281,33.0
38.296,28.8
38.312,24.55
38.328,20.58
38.343,17.06
38.359,13.94
38.375,10.87
38.390,7.43
38.406,3.26
38.421,-1.69
38.437,-7.22
38.453,-12.89
38.468,-18.29
38.484,-23.14
38.500,-27.45
38.515,-31.44
38.531,-35.44
38.546,-39.76
38.562,-44.61
38.578,-49.96
38.593,-55.48
38.609,-60.5
38.625,-64.09
38.640,-65.24
38.656,-63.19
38.671,-57.59
38.687,-48.69
38.703,-37.26
38.718,-24.37
38.734,-11.11
38.750,1.54
38.765,12.93
38.781,22.66
38.796,30.59
38.812,36.79
38.828,41.44
38.843,44.76
38.859,46.97
38.875,48.24
38.890,48.69
38.906,48.39
38.921,47.45
38.937,45.98
38.953,44.18
38.968,42.24
38.984,40.37
39.000,38.7
39.015,37.3
39.031,36.16
39.046,35.18
39.062,34.2
39.078,33.06
39.093,31.55
39.109,29.49
39.125,26.78
39.140,23.46
39.156,19.72
39.171,15.89
39.187,12.26
39.203,8.92
39.218,5.64
39.234,2.03
39.250,-2.31
39.265,-7.53
39.281,-13.32
39.296,-19.17
39.312,-24.5
39.328,-29.01
39.343,-32.86
39.359,-36.53
39.375,-40.66
39.390,-45.72
39.406,-51.86
39.421,-58.76
39.437,-65.73
39.453,-71.77
39.468,-75.74
39.484,-76.67
39.500,-73.89
39.515,-67.31
39.531,-57.46
39.546,-45.38
39.562,-32.42
39.578,-19.86
39.593,-8.63
39.609,0.81
39.625,8.44
39.640,14.57
39.656,19.58
39.671,23.79
39.687,27.4
39.703,30.43
39.718,32.88
39.734,34.74
39.750,36.08
39.765,36.98
39.781,37.54
39.796,37.8
39.812,37.8
39.828,37.54
39.843,37.05
39.859,36.34
39.875,35.41
39.890,34.21
39.906,32.62
39.921,30.52
39.937,27.85
39.953,24.62
39.968,21.01
39.984,17.22
40.000,13.41
40.015,9.67
40.031,5.92
40.046,2.06
40.062,-2.0
40.078,-6.2
40.093,-10.35
40.109,-14.24
40.125,-17.7
40.140,-20.74
40.156,-23.54
40.171,-26.49
40.187,-29.99
40.203,-34.39
40.218,-39.75
40.234,-45.71
40.250,-51.49
40.265,-56.03
40.281,-58.2
40.296,-57.23
40.312,-52.93
40.328,-45.72
40.343,-36.56
40.359,-26.5
40.375,-16.5
40.390,-7.17
40.406,1.17
40.421,8.46
40.437,14.75
40.453,20.15
40.468,24.8
40.484,28.76
40.500,32.07
40.515,34.71
40.531,36.56
40.546,37.58
40.562,37.85
40.578,37.57
40.593,37.02
40.609,36.48
40.625,36.05
40.640,35.71
40.656,35.32
40.671,34.71
40.687,33.82
40.703,32.64
40.718,31.27
40.734,29.79
40.750,28.27
40.765,26.7
40.781,25.03
40.796,23.21
40.812,21.21
40.828,19.16
40.843,17.22
40.859,15.56
40.875,14.27
40.890,13.34
40.906,12.62
40.921,11.92
40.937,11.12
40.953,10.19
40.968,9.23
40.984,8.35
41.000,7.64
41.015,7.12
41.031,6.72
41.046,6.33
41.062,5.88
41.078,5.43
41.093,5.06
41.109,4.94
41.125,5.17
41.140,5.76
41.156,6.6
41.171,7.55
41.187,8.44
41.203,9.18
41.218,9.81
41.234,10.45
41.250,11.21
41.265,12.26
41.281,13.69
41.296,15.57
41.312,17.92
41.328,20.67
41.343,23.61
41.359,26.42
41.375,28.73
41.390,30.3
41.406,31.18
41.421,31.69
41.437,32.44
41.453,34.12
41.468,37.24
41.484,41.96
41.500,48.01
41.515,54.85
41.531,61.87
41.546,68.67
41.562,75.19
41.578,81.72
41.593,88.73
41.609,96.64
41.625,105.63
41.640,115.56
41.656,126.06
41.671,136.71
41.687,147.24
41.703,157.65
41.718,168.23
41.734,179.55
41.750,192.33
41.765,207.28
41.781,224.71
41.796,244.02
41.812,263.4
41.828,279.92
41.843,290.29
41.859,291.96
41.875,284.16
41.890,268.24
41.906,247.15
41.921,224.2
41.937,201.83
41.953,180.9
41.968,160.92
41.984,140.77
42.000,119.62
42.015,97.38
42.031,74.58
42.046,51.81
42.062,29.31
42.078,6.76
42.093,-16.38
42.109,-40.52
42.125,-65.47
42.140,-90.42
42.156,-114.1
42.171,-135.39
42.187,-153.67
42.203,-169.15
42.218,-182.78
42.234,-195.85
42.250,-209.66
42.265,-225.26
42.281,-243.51
42.296,-265.02
42.312,-289.83
42.328,-316.89
42.343,-343.67
42.359,-366.39
42.375,-380.94
42.390,-384.39
42.406,-376.07
42.421,-357.87
42.437,-333.46
42.453,-306.92
42.468,-281.32
42.484,-258.27
42.500,-238.03
42.515,-220.25
42.531,-204.5
42.546,-190.38
42.562,-177.42
42.578,-164.98
42.593,-152.24
42.609,-138.71
42.625,-124.52
42.640,-110.58
42.656,-98.32
42.671,-89.21
42.687,-84.08
42.703,-82.75
42.718,-83.96
42.734,-85.65
42.750,-85.74
42.765,-82.69
42.781,-76.04
42.796,-66.45
42.812,-55.39
42.828,-44.66
42.843,-35.93
42.859,-30.58
42.875,-29.59
42.890,-33.61
42.906,-42.91
42.921,-57.38
42.937,-76.45
42.953,-99.12
42.968,-123.95
42.984,-149.04
43.000,-172.16
43.015,-190.96
43.031,-203.4
43.046,-208.27
43.062,-205.68
43.078,-197.08
43.093,-184.82
43.109,-171.46
43.125,-158.95
43.140,-148.3
43.156,-139.59
43.171,-132.36
43.187,-125.99
43.203,-119.99
43.218,-114.04
43.234,-107.98
43.250,-101.74
43.265,-95.44
43.281,-89.37
43.296,-83.92
43.312,-79.44
43.328,-76.13
43.343,-73.95
43.359,-72.77
43.375,-72.48
43.390,-73.19
43.406,-75.15
43.421,-78.62
43.437,-83.65
43.453,-89.86
43.468,-96.3
43.484,-101.52
43.500,-103.82
43.515,-101.64
43.531,-93.99
43.546,-80.77
43.562,-62.81
43.578,-41.7
43.593,-19.35
43.609,2.39
43.625,22.15
43.640,39.22
43.656,53.42
43.671,65.07
43.687,74.64
43.703,82.56
43.718,89.16
43.734,94.54
43.750,98.75
43.765,101.8
43.781,103.75
43.796,104.8
43.812,105.19
43.828,105.14
43.843,104.87
43.859,104.49
43.875,104.06
43.890,103.62
43.906,103.13
43.921,102.5
43.937,101.56
43.953,100.07
43.968,97.83
43.984,94.63
44.000,90.37
44.015,84.99
44.031,78.55
44.046,71.18
44.062,63.15
44.078,54.87
44.093,46.76
44.109,39.16
44.125,32.19
44.140,25.68
44.156,19.17
44.171,12.16
44.187,4.16
44.203,-5.18
44.218,-15.91
44.234,-27.77
44.250,-39.95
44.265,-51.07
44.281,-59.32
44.296,-62.81
44.312,-60.19
44.328,-51.13
44.343,-36.49
44.359,-18.11
44.375,1.77
44.390,21.13
44.406,38.64
44.421,53.77
44.437,66.65
44.453,77.74
44.468,87.51
44.484,96.22
44.500,103.9
44.515,110.37
44.531,115.35
44.546,118.67
44.562,120.23
44.578,120.17
44.593,118.72
44.609,116.22
44.625,113.08
44.640,109.72
44.656,106.57
44.671,104.01
44.687,102.27
44.703,101.3
44.718,100.73
44.734,99.94
44.750,98.26
44.765,95.19
44.781,90.57
44.796,84.58
44.812,77.64
44.828,70.23
44.843,62.73
44.859,55.36
44.875,48.23
44.890,41.39
44.906,34.88
44.921,28.74
44.937,22.96
44.953,17.39
44.968,11.78
44.984,5.75
45.000,-1.1
45.015,-9.1
45.031,-18.37
45.046,-28.61
45.062,-39.03
45.078,-48.23
45.093,-54.55
45.109,-56.38
45.125,-52.79
45.140,-43.82
45.156,-30.54
45.171,-14.74
45.187,1.64
45.203,17.07
45.218,30.79
45.234,42.67
45.250,53.07
45.265,62.39
45.281,70.8
45.296,78.24
45.312,84.45
45.328,89.11
45.343,91.98
45.359,93.05
45.375,92.38
45.390,90.21
45.406,86.84
45.421,82.68
45.437,78.21
45.453,73.97
45.468,70.45
45.484,67.96
45.500,66.54
45.515,65.89
45.531,65.41
45.546,64.44
45.562,62.41
45.578,59.06
45.593,54.44
45.609,48.9
45.625,42.93
45.640,37.01
45.656,31.45
45.671,26.36
45.687,21.63
45.703,17.01
45.718,12.25
45.734,7.19
45.750,1.86
45.765,-3.58
45.781,-8.98
45.796,-14.24
45.812,-19.48
45.828,-24.89
45.843,-30.8
45.859,-37.46
45.875,-44.91
45.890,-52.8
45.906,-60.41
45.921,-66.6
45.937,-70.12
45.953,-69.88
45.968,-65.27
45.984,-56.39
46.000,-44.05
46.015,-29.56
46.031,-14.37
46.046,0.26
46.062,13.49
46.078,24.97
46.093,34.72
46.109,42.87
46.125,49.61
46.140,54.93
46.156,58.75
46.171,60.97
46.187,61.61
46.203,60.88
46.218,59.18
46.234,56.98
46.250,54.7
46.265,52.64
46.281,50.89
46.296,49.46
46.312,48.32
46.328,47.41
46.343,46.61
46.359,45.67
46.375,44.3
46.390,42.16
46.406,39.01
46.421,34.89
46.437,30.06
46.453,25.0
46.468,20.18
46.484,15.87
46.500,12.04
46.515,8.36
46.531,4.43
46.546,-0.08
46.562,-5.22
46.578,-10.81
46.593,-16.5
46.609,-21.96
46.625,-27.0
46.640,-31.63
46.656,-36.03
46.671,-40.55
46.687,-45.53
46.703,-51.17
46.718,-57.31
46.734,-63.29
46.750,-67.99
46.765,-70.03
46.781,-68.31
46.796,-62.31
46.812,-52.39
46.828,-39.64
46.843,-25.54
46.859,-11.5
46.875,1.45
46.890,12.82
46.906,22.57
46.921,30.85
46.937,37.85
46.953,43.6
46.968,48.04
46.984,51.02
47.000,52.49
47.015,52.57
47.031,51.62
47.046,50.12
47.062,48.56
47.078,47.24
47.093,46.24
47.109,45.39
47.125,44.45
47.140,43.26
47.156,41.77
47.171,40.07
47.187,38.21
47.203,36.18
47.218,33.87
47.234,31.14
47.250,27.93
47.265,24.29
47.281,20.37
47.296,16.41
47.312,12.6
47.328,9.05
47.343,5.78
47.359,2.73
47.375,-0.2
47.390,-3.2
47.406,-6.44
47.421,-10.07
47.437,-14.13
47.453,-18.51
47.468,-23.01
47.484,-27.36
47.500,-31.38
47.515,-35.03
47.531,-38.49
47.546,-42.06
47.562,-46.15
47.578,-51.14
47.593,-57.19
47.609,-64.09
47.625,-71.19
47.640,-77.4
47.656,-81.4
47.671,-81.97
47.687,-78.32
47.703,-70.42
47.718,-58.98
47.734,-45.27
47.750,-30.78
47.765,-16.86
47.781,-4.47
47.796,5.96
47.812,14.42
47.828,21.27
47.843,26.99
47.859,32.08
47.875,36.78
47.890,41.09
47.906,44.75
47.921,47.39
47.937,48.73
47.953,48.7
47.968,47.45
47.984,45.35
48.000,42.84
48.015,40.35
48.031,38.27
48.046,36.83
48.062,36.1
48.078,35.93
48.093,36.01
48.109,35.92
48.125,35.25
48.140,33.69
48.156,31.17
48.171,27.8
48.187,23.85
48.203,19.66
48.218,15.53
48.234,11.65
48.250,8.17
48.265,5.09
48.281,2.38
48.296,-0.07
48.312,-2.41
48.328,-4.77
48.343,-7.28
48.359,-10.01
48.375,-12.98
48.390,-16.21
48.406,-19.75
48.421,-23.59
48.437,-27.63
48.453,-31.68
48.468,-35.5
48.484,-38.88
48.500,-41.75
48.515,-44.21
48.531,-46.56
48.546,-49.23
48.562,-52.58
48.578,-56.8
48.593,-61.75
48.609,-66.87
48.625,-71.17
48.640,-73.45
48.656,-72.62
48.671,-68.08
48.687,-60.03
48.703,-49.36
48.718,-37.39
48.734,-25.42
48.750,-14.38
48.765,-4.7
48.781,3.59
48.796,10.63
48.812,16.63
48.828,21.79
48.843,26.25
48.859,30.14
48.875,33.53
48.890,36.41
48.906,38.67
48.921,40.15
48.937,40.74
48.953,40.45
48.968,39.41
48.984,37.92
49.000,36.28
49.015,34.79
49.031,33.68
49.046,32.95
49.062,32.46
49.078,31.95
49.093,31.12
49.109,29.75
49.125,27.77
49.140,25.26
49.156,22.39
49.171,19.34
49.187,16.31
49.203,13.44
49.218,10.79
49.234,8.34
49.250,6.0
49.265,3.61
49.281,1.06
49.296,-1.68
49.312,-4.51
49.328,-7.3
49.343,-9.9
49.359,-12.3
49.375,-14.63
49.390,-17.1
49.406,-19.91
49.421,-23.12
49.437,-26.67
49.453,-30.34
49.468,-33.9
49.484,-37.18
49.500,-40.2
49.515,-43.15
49.531,-46.33
49.546,-50.07
49.562,-54.55
49.578,-59.7
49.593,-64.99
49.609,-69.6
49.625,-72.47
49.640,-72.65
49.656,-69.52
49.671,-63.07
49.687,-53.86
49.703,-42.93
49.718,-31.41
49.734,-20.34
49.750,-10.35
49.765,-1.73
49.781,5.57
49.796,11.77
49.812,17.14
49.828,21.87
49.843,26.09
49.859,29.75
49.875,32.67
49.890,34.65
49.906,35.52
49.921,35.33
49.937,34.36
49.953,33.01
49.968,31.68
49.984,30.61
50.000,29.82
50.015,29.17
50.031,28.51
50.046,27.73
50.062,26.82
50.078,25.79
50.093,24.61
50.109,23.23
50.125,21.56
50.140,19.56
50.156,17.25
50.171,14.74
50.187,12.12
50.203,9.47
50.218,6.81
50.234,4.18
50.250,1.59
50.265,-0.88
50.281,-3.17
50.296,-5.28
50.312,-7.28
50.328,-9.35
50.343,-11.72
50.359,-14.59
50.375,-18.01
50.390,-21.81
50.406,-25.69
50.421,-29.35
50.437,-32.6
50.453,-35.46
50.468,-38.17
50.484,-41.03
50.500,-44.36
50.515,-48.33
50.531,-52.93
50.546,-57.86
50.562,-62.47
50.578,-65.82
50.593,-66.83
50.609,-64.67
50.625,-59.03
50.640,-50.34
50.656,-39.63
50.671,-28.18
50.687,-17.18
50.703,-7.34
50.718,1.02
50.734,7.98
50.750,13.77
50.765,18.64
50.781,22.83
50.796,26.5
50.812,29.66
50.828,32.28
50.843,34.25
50.859,35.5
50.875,36.09
50.890,36.14
50.906,35.84
50.921,35.31
50.937,34.61
50.953,33.73
50.968,32.67
50.984,31.52
51.000,30.44
51.015,29.52
51.031,28.76
51.046,27.99
51.062,26.9
51.078,25.2
51.093,22.67
51.109,19.31
51.125,15.35
51.140,11.14
51.156,7.08
51.171,3.44
51.187,0.26
51.203,-2.57
51.218,-5.3
51.234,-8.14
51.250,-11.17
51.265,-14.34
51.281,-17.57
51.296,-20.81
51.312,-24.14
51.328,-27.73
51.343,-31.77
51.359,-36.38
51.375,-41.54
51.390,-47.14
51.406,-52.83
51.421,-58.11
51.437,-62.24
51.453,-64.41
51.468,-63.88
51.484,-60.24
51.500,-53.6
51.515,-44.59
51.531,-34.2
51.546,-23.49
51.562,-13.29
51.578,-4.07
51.593,4.03
51.609,11.12
51.625,17.33
51.640,22.78
51.656,27.52
51.671,31.5
51.687,34.69
51.703,37.01
51.718,38.46
51.734,39.09
51.750,39.11
51.765,38.78
51.781,38.39
51.796,38.1
51.812,37.94
51.828,37.79
51.843,37.49
51.859,36.88
51.875,35.89
51.890,34.55
51.906,32.87
51.921,30.9
51.937,28.67
51.953,26.21
51.968,23.6
51.984,20.89
52.000,18.12
52.015,15.26
52.031,12.26
52.046,9.06
52.062,5.63
52.078,2.03
52.093,-1.73
52.109,-5.61
52.125,-9.67
52.140,-13.91
52.156,-18.29
52.171,-22.67
52.187,-26.86
52.203,-30.65
52.218,-33.93
52.234,-36.76
52.250,-39.4
52.265,-42.27
52.281,-45.84
52.296,-50.5
52.312,-56.37
52.328,-63.1
52.343,-69.82
52.359,-75.23
52.375,-77.93
52.390,-76.86
52.406,-71.64
52.421,-62.69
52.437,-51.09
52.453,-38.22
52.468,-25.33
52.484,-13.31
52.500,-2.59
52.515,6.67
52.531,14.56
52.546,21.23
52.562,26.93
52.578,31.92
52.593,36.44
52.609,40.6
52.625,44.33
52.640,47.39
52.656,49.51
52.671,50.52
52.687,50.4
52.703,49.32
52.718,47.61
52.734,45.63
52.750,43.71
52.765,42.13
52.781,40.98
52.796,40.24
52.812,39.68
52.828,38.96
52.843,37.74
52.859,35.75
52.875,33.01
52.890,29.68
52.906,26.02
52.921,22.29
52.937,18.63
52.953,15.11
52.968,11.77
52.984,8.69
53.000,5.91
53.015,3.43
53.031,1.03
53.046,-1.62
53.062,-4.88
53.078,-8.98
53.093,-13.81
53.109,-19.01
53.125,-24.05
53.140,-28.5
53.156,-32.18
53.171,-35.2
53.187,-37.92
53.203,-40.81
53.218,-44.33
53.234,-48.77
53.250,-54.16
53.265,-60.14
53.281,-65.88
53.296,-70.23
53.312,-71.89
53.328,-69.91
53.343,-63.94
53.359,-54.44
53.375,-42.45
53.390,-29.35
53.406,-16.38
53.421,-4.38
53.437,6.2
53.453,15.26
53.468,22.88
53.484,29.19
53.500,34.34
53.515,38.54
53.531,42.03
53.546,44.97
53.562,47.42
53.578,49.31
53.593,50.47
53.609,50.77
53.625,50.22
53.640,48.97
53.656,47.27
53.671,45.4
53.687,43.54
53.703,41.85
53.718,40.33
53.734,39.0
53.750,37.78
53.765,36.56
53.781,35.16
53.796,33.39
53.812,31.06
53.828,28.17
53.843,24.78
53.859,21.05
53.875,17.17
53.890,13.3
53.906,9.5
53.921,5.81
53.937,2.23
53.953,-1.23
53.968,-4.6
53.984,-7.89
54.000,-11.15
54.015,-14.45
54.031,-17.85
54.046,-21.42
54.062,-25.17
54.078,-29.14
54.093,-33.25
54.109,-37.44
54.125,-41.65
54.140,-45.87
54.156,-50.21
54.171,-54.79
54.187,-59.6
54.203,-64.34
54.218,-68.31
54.234,-70.5
54.250,-69.95
54.265,-66.01
54.281,-58.62
54.296,-48.39
54.312,-36.38
54.328,-23.74
54.343,-11.5
54.359,-0.32
54.375,9.51
54.390,17.96
54.406,25.11
54.421,31.03
54.437,35.71
54.453,39.15
54.468,41.43
54.484,42.71
54.500,43.26
54.515,43.32
54.531,43.06
54.546,42.47
54.562,41.52
54.578,40.18
54.593,38.57
54.609,36.9
54.625,35.37
54.640,34.08
54.656,32.96
54.671,31.81
54.687,30.45
54.703,28.78
54.718,26.82
54.734,24.61
54.750,22.22
54.765,19.67
54.781,16.97
54.796,14.17
54.812,11.33
54.828,8.48
54.843,5.59
54.859,2.57
54.875,-0.72
54.890,-4.33
54.906,-8.21
54.921,-12.13
54.937,-15.81
54.953,-19.03
54.968,-21.72
54.984,-23.99
55.000,-26.14
55.015,-28.5
55.031,-31.4
55.046,-35.03
55.062,-39.5
55.078,-44.75
55.093,-50.56
55.109,-56.37
55.125,-61.33
55.140,-64.36
55.156,-64.4
55.171,-60.82
55.187,-53.61
55.203,-43.48
55.218,-31.66
55.234,-19.54
55.250,-8.28
55.265,1.43
55.281,9.42
55.296,15.89
55.312,21.17
55.328,25.54
55.343,29.13
55.359,31.94
55.375,33.95
55.390,35.14
55.406,35.64
55.421,35.56
55.437,35.05
55.453,34.23
55.468,33.17
55.484,31.99
55.500,30.77
55.515,29.68
55.531,28.86
55.546,28.38
55.562,28.18
55.578,28.06
55.593,27.75
55.609,26.88
55.625,25.21
55.640,22.59
55.656,19.13
55.671,15.11
55.687,10.93
55.703,6.99
55.718,3.53
55.734,0.58
55.750,-1.99
55.765,-4.46
55.781,-7.06
55.796,-9.94
55.812,-13.06
55.828,-16.3
55.843,-19.53
55.859,-22.67
55.875,-25.87
55.890,-29.39
55.906,-33.55
55.921,-38.54
55.937,-44.23
55.953,-50.1
55.968,-55.29
55.984,-58.74
56.000,-59.45
56.015,-56.78
56.031,-50.7
56.046,-41.73
56.062,-30.98
56.078,-19.67
56.093,-8.95
56.109,0.45
56.125,8.31
56.140,14.84
56.156,20.38
56.171,25.18
56.187,29.28
56.203,32.48
56.218,34.52
56.234,35.26
56.250,34.86
56.265,33.71
56.281,32.29
56.296,31.02
56.312,30.13
56.328,29.61
56.343,29.32
56.359,29.13
56.375,28.98
56.390,28.85
56.406,28.69
56.421,28.33
56.437,27.53
56.453,26.05
56.468,23.75
56.484,20.64
56.500,16.89
56.515,12.8
56.531,8.67
56.546,4.85
56.562,1.46
56.578,-1.45
56.593,-4.12
56.609,-6.91
56.625,-10.22
56.640,-14.3
56.656,-19.08
56.671,-24.2
56.687,-29.17
56.703,-33.57
56.718,-37.22
56.734,-40.23
56.750,-42.88
56.765,-45.48
56.781,-48.35
56.796,-51.73
56.812,-55.74
56.828,-60.32
56.843,-65.08
56.859,-69.19
56.875,-71.53
56.890,-71.0
56.906,-66.89
56.921,-59.21
56.937,-48.71
56.953,-36.67
56.968,-24.41
56.984,-12.96
57.000,-2.82
57.015,5.93
57.031,13.41
57.046,19.82
57.062,25.23
57.078,29.71
57.093,33.25
57.109,35.89
57.125,37.7
57.140,38.83
57.156,39.45
57.171,39.72
57.187,39.81
57.203,39.73
57.218,39.41
57.234,38.72
57.250,37.6
57.265,36.14
57.281,34.55
57.296,33.13
57.312,32.02
57.328,31.23
57.343,30.49
57.359,29.46
57.375,27.87
57.390,25.63
57.406,22.8
57.421,19.55
57.437,16.05
57.453,12.42
57.468,8.73
57.484,5.06
57.500,1.42
57.515,-2.19
57.531,-5.78
57.546,-9.42
57.562,-13.16
57.578,-16.98
57.593,-20.79
57.609,-24.53
57.625,-28.21
57.640,-31.92
57.656,-35.88
57.671,-40.27
57.687,-45.28
57.703,-50.92
57.718,-57.05
57.734,-63.25
57.750,-68.82
57.765,-72.8
57.781,-74.2
57.796,-72.31
57.812,-66.93
57.828,-58.55
57.843,-48.12
57.859,-36.76
57.875,-25.43
57.890,-14.72
57.906,-4.86
57.921,4.15
57.937,12.31
57.953,19.57
57.968,25.83
57.984,31.02
58.000,35.14
58.015,38.23
58.031,40.38
58.046,41.69
58.062,42.33
58.078,42.44
58.093,42.21
58.109,41.81
58.125,41.41
58.140,41.1
58.156,40.89
58.171,40.76
58.187,40.61
58.203,40.33
58.218,39.77
58.234,38.75
58.250,37.16
58.265,34.92
58.281,32.04
58.296,28.63
58.312,24.87
58.328,20.95
58.343,17.03
58.359,13.25
58.375,9.63
58.390,6.16
58.406,2.75
58.421,-0.68
58.437,-4.29
58.453,-8.2
58.468,-12.51
58.484,-17.18
58.500,-22.03
58.515,-26.73
58.531,-30.96
58.546,-34.55
58.562,-37.57
58.578,-40.36
58.593,-43.38
58.609,-47.17
58.625,-52.03
58.640,-57.95
58.656,-64.52
58.671,-70.87
58.687,-75.81
58.703,-78.04
58.718,-76.51
58.734,-70.74
58.750,-61.06
58.765,-48.52
58.781,-34.6
58.796,-20.78
58.812,-8.17
58.828,2.7
58.843,11.77
58.859,19.3
58.875,25.7
58.890,31.29
58.906,36.27
58.921,40.72
58.937,44.55
58.953,47.6
58.968,49.68
58.984,50.67
59.000,50.63
59.015,49.72
59.031,48.24
59.046,46.47
59.062,44.65
59.078,42.94
59.093,41.47
59.109,40.3
59.125,39.43
59.140,38.77
59.156,38.12
59.171,37.18
59.187,35.65
59.203,33.29
59.218,29.99
59.234,25.83
59.250,21.07
59.265,16.03
59.281,11.1
59.296,6.57
59.312,2.56
59.328,-0.99
59.343,-4.37
59.359,-7.86
59.375,-11.68
59.390,-15.83
59.406,-20.15
59.421,-24.34
59.437,-28.23
59.453,-31.78
59.468,-35.16
59.484,-38.67
59.500,-42.59
59.515,-47.15
59.531,-52.39
59.546,-58.14
59.562,-63.99
59.578,-69.21
59.593,-72.8
59.609,-73.74
59.625,-71.2
59.640,-64.95
59.656,-55.4
59.671,-43.53
59.687,-30.62
59.703,-17.81
59.718,-5.87
59.734,4.84
59.750,14.27
59.765,22.47
59.781,29.46
59.796,35.16
59.812,39.51
59.828,42.51
59.843,44.3
59.859,45.17
59.875,45.44
59.890,45.38
59.906,45.13
59.921,44.65
59.937,43.86
59.953,42.75
59.968,41.43
59.984,40.13
