timestamp,value
00.000,88.59
00.015,90.52
00.031,89.4
00.046,83.74
00.062,72.25
00.078,54.45
00.093,30.75
00.109,2.41
00.125,-28.91
00.140,-61.49
00.156,-93.77
00.171,-124.51
00.187,-152.77
00.203,-177.92
00.218,-199.59
00.234,-217.54
00.250,-231.33
00.265,-240.2
00.281,-243.05
00.296,-238.79
00.312,-226.82
00.328,-207.45
00.343,-182.0
00.359,-152.48
00.375,-120.95
00.390,-89.08
00.406,-57.91
00.421,-28.06
00.437,-0.1
00.453,25.36
00.468,47.79
00.484,67.21
00.500,84.54
00.515,101.62
00.531,120.71
00.546,143.81
00.562,172.07
00.578,205.62
00.593,243.6
00.609,284.21
00.625,324.41
00.640,359.93
00.656,385.55
00.671,396.11
00.687,388.03
00.703,360.4
00.718,315.21
00.734,256.37
00.750,188.13
00.765,114.24
00.781,38.05
00.796,-36.43
00.812,-103.64
00.828,-157.02
00.843,-190.84
00.859,-202.6
00.875,-194.45
00.890,-172.61
00.906,-144.98
00.921,-118.15
00.937,-95.53
00.953,-77.15
00.968,-61.19
00.984,-45.8
01.000,-30.37
01.015,-15.5
01.031,-2.11
01.046,9.56
01.062,20.35
01.078,31.82
01.093,45.4
01.109,61.55
01.125,79.35
01.140,96.65
01.156,110.78
01.171,119.49
01.187,121.77
01.203,118.35
01.218,111.58
01.234,104.87
01.250,101.57
01.265,103.83
01.281,111.54
01.296,121.98
01.312,130.27
01.328,130.67
01.343,118.21
01.359,90.26
01.375,47.48
01.390,-6.26
01.406,-64.84
01.421,-121.46
01.437,-170.22
01.453,-207.24
01.468,-231.17
01.484,-242.82
01.500,-244.35
01.515,-238.4
01.531,-227.35
01.546,-212.99
01.562,-196.6
01.578,-179.12
01.593,-161.4
01.609,-144.2
01.625,-128.11
01.640,-113.34
01.656,-99.77
01.671,-87.15
01.687,-75.4
01.703,-64.72
01.718,-55.68
01.734,-48.85
01.750,-44.51
01.765,-42.44
01.781,-41.95
01.796,-42.2
01.812,-42.51
01.828,-42.67
01.843,-42.85
01.859,-43.47
01.875,-44.7
01.890,-46.2
01.906,-46.96
01.921,-45.54
01.937,-40.51
01.953,-31.05
01.968,-17.25
01.984,-0.2
02.000,18.29
02.015,36.29
02.031,52.23
02.046,65.27
02.062,75.25
02.078,82.51
02.093,87.51
02.109,90.66
02.125,92.32
02.140,92.72
02.156,92.1
02.171,90.69
02.187,88.66
02.203,86.18
02.218,83.38
02.234,80.52
02.250,77.82
02.265,75.53
02.281,73.7
02.296,72.2
02.312,70.68
02.328,68.75
02.343,66.19
02.359,63.02
02.375,59.49
02.390,55.95
02.406,52.74
02.421,50.08
02.437,48.11
02.453,46.83
02.468,46.14
02.484,45.84
02.500,45.56
02.515,44.81
02.531,43.07
02.546,40.08
02.562,35.95
02.578,31.42
02.593,27.74
02.609,26.44
02.625,28.92
02.640,35.89
02.656,47.2
02.671,61.84
02.687,78.46
02.703,95.77
02.718,112.98
02.734,129.58
02.750,144.93
02.765,157.85
02.781,166.59
02.796,169.37
02.812,165.14
02.828,154.22
02.843,138.46
02.859,120.6
02.875,103.5
02.890,89.33
02.906,79.42
02.921,74.47
02.937,74.98
02.953,81.35
02.968,93.59
02.984,110.8
03.000,130.83
03.015,150.55
03.031,166.66
03.046,176.71
03.062,179.86
03.078,177.0
03.093,170.29
03.109,162.26
03.125,154.91
03.140,149.18
03.156,144.73
03.171,140.24
03.187,133.82
03.203,123.6
03.218,108.24
03.234,87.23
03.250,61.07
03.265,31.0
03.281,-1.34
03.296,-34.4
03.312,-66.97
03.328,-98.28
03.343,-127.74
03.359,-154.64
03.375,-177.97
03.390,-196.52
03.406,-209.2
03.421,-215.41
03.437,-215.41
03.453,-210.24
03.468,-201.62
03.484,-191.41
03.500,-181.28
03.515,-172.36
03.531,-165.14
03.546,-159.49
03.562,-154.9
03.578,-150.73
03.593,-146.4
03.609,-141.55
03.625,-136.0
03.640,-129.76
03.656,-122.86
03.671,-115.36
03.687,-107.35
03.703,-98.97
03.718,-90.39
03.734,-81.8
03.750,-73.35
03.765,-65.08
03.781,-57.04
03.796,-49.37
03.812,-42.31
03.828,-36.3
03.843,-31.78
03.859,-29.19
03.875,-28.82
03.890,-30.85
03.906,-35.3
03.921,-41.95
03.937,-50.23
03.953,-59.11
03.968,-67.32
03.984,-73.44
04.000,-76.35
04.015,-75.46
04.031,-70.81
04.046,-63.0
04.062,-52.93
04.078,-41.6
04.093,-29.91
04.109,-18.68
04.125,-8.65
04.140,-0.49
04.156,5.34
04.171,8.74
04.187,10.16
04.203,10.45
04.218,10.67
04.234,11.67
04.250,13.77
04.265,16.74
04.281,19.97
04.296,22.8
04.312,24.88
04.328,26.18
04.343,26.9
04.359,27.18
04.375,26.94
04.390,25.83
04.406,23.38
04.421,19.17
04.437,12.91
04.453,4.52
04.468,-5.97
04.484,-18.4
04.500,-32.49
04.515,-47.84
04.531,-63.9
04.546,-80.06
04.562,-95.76
04.578,-110.52
04.593,-124.0
04.609,-135.84
04.625,-145.49
04.640,-152.14
04.656,-154.68
04.671,-151.99
04.687,-143.21
04.703,-128.17
04.718,-107.54
04.734,-82.8
04.750,-55.94
04.765,-28.98
04.781,-3.52
04.796,19.43
04.812,39.51
04.828,56.74
04.843,71.19
04.859,82.86
04.875,91.53
04.890,97.04
04.906,99.52
04.921,99.55
04.937,98.11
04.953,96.42
04.968,95.47
04.984,95.79
05.000,97.27
05.015,99.38
05.031,101.4
05.046,102.78
05.062,103.3
05.078,103.1
05.093,102.39
05.109,101.41
05.125,100.14
05.140,98.41
05.156,96.0
05.171,92.78
05.187,88.87
05.203,84.62
05.218,80.47
05.234,76.74
05.250,73.54
05.265,70.68
05.281,67.75
05.296,64.32
05.312,59.97
05.328,54.43
05.343,47.61
05.359,39.72
05.375,31.37
05.390,23.74
05.406,18.51
05.421,17.69
05.437,23.08
05.453,35.69
05.468,55.32
05.484,80.22
05.500,107.2
05.515,132.15
05.531,150.77
05.546,159.56
05.562,156.65
05.578,142.28
05.593,118.78
05.609,89.94
05.625,60.11
05.640,33.11
05.656,11.42
05.671,-4.23
05.687,-14.61
05.703,-21.44
05.718,-26.58
05.734,-31.47
05.750,-36.75
05.765,-42.3
05.781,-47.49
05.796,-51.28
05.812,-52.36
05.828,-49.3
05.843,-41.19
05.859,-28.53
05.875,-14.16
05.890,-3.11
05.906,-1.23
05.921,-12.58
05.937,-37.16
05.953,-69.99
05.968,-102.38
05.984,-124.81
06.000,-130.18
06.015,-116.05
06.031,-85.24
06.046,-44.72
06.062,-3.47
06.078,29.84
06.093,48.95
06.109,51.26
06.125,38.37
06.140,15.52
06.156,-9.89
06.171,-30.39
06.187,-40.52
06.203,-38.19
06.218,-24.88
06.234,-4.89
06.250,16.19
06.265,33.02
06.281,41.98
06.296,42.22
06.312,35.88
06.328,27.29
06.343,21.27
06.359,21.2
06.375,27.5
06.390,37.6
06.406,47.13
06.421,52.07
06.437,50.62
06.453,44.03
06.468,35.66
06.484,29.14
06.500,26.27
06.515,26.1
06.531,25.55
06.546,21.24
06.562,11.69
06.578,-1.55
06.593,-14.46
06.609,-22.49
06.625,-23.07
06.640,-17.15
06.656,-8.94
06.671,-3.74
06.687,-5.19
06.703,-13.5
06.718,-25.71
06.734,-37.78
06.750,-47.17
06.765,-54.38
06.781,-62.12
06.796,-72.85
06.812,-86.21
06.828,-98.19
06.843,-102.93
06.859,-96.06
06.875,-77.68
06.890,-52.72
06.906,-28.79
06.921,-12.43
06.937,-6.0
06.953,-6.83
06.968,-9.0
06.984,-6.37
07.000,4.71
07.015,24.25
07.031,49.38
07.046,76.08
07.062,101.0
07.078,122.31
07.093,139.58
07.109,152.89
07.125,161.96
07.140,165.68
07.156,162.28
07.171,150.01
07.187,128.21
07.203,98.13
07.218,63.13
07.234,27.96
07.250,-2.55
07.265,-25.09
07.281,-38.82
07.296,-45.34
07.312,-47.78
07.328,-49.37
07.343,-52.2
07.359,-56.54
07.375,-61.13
07.390,-63.99
07.406,-63.79
07.421,-60.9
07.437,-57.93
07.453,-59.18
07.468,-69.32
07.484,-91.66
07.500,-126.73
07.515,-171.81
07.531,-221.69
07.546,-270.41
07.562,-313.04
07.578,-346.8
07.593,-371.1
07.609,-386.69
07.625,-394.64
07.640,-395.56
07.656,-389.83
07.671,-377.93
07.687,-360.95
07.703,-340.55
07.718,-318.5
07.734,-295.98
07.750,-273.11
07.765,-249.0
07.781,-222.24
07.796,-191.7
07.812,-157.18
07.828,-119.69
07.843,-81.18
07.859,-43.97
07.875,-10.08
07.890,19.34
07.906,44.19
07.921,65.12
07.937,83.13
07.953,98.98
07.968,112.96
07.984,124.86
08.000,134.31
08.015,141.18
08.031,145.77
08.046,148.8
08.062,151.1
08.078,153.34
08.093,155.75
08.109,158.13
08.125,160.1
08.140,161.37
08.156,161.94
08.171,162.07
08.187,161.88
08.203,160.98
08.218,158.24
08.234,152.01
08.250,140.78
08.265,123.92
08.281,102.19
08.296,77.65
08.312,53.04
08.328,30.82
08.343,12.54
08.359,-1.44
08.375,-11.5
08.390,-18.24
08.406,-22.05
08.421,-23.11
08.437,-21.66
08.453,-18.41
08.468,-14.66
08.484,-12.0
08.500,-11.73
08.515,-14.3
08.531,-19.04
08.546,-24.38
08.562,-28.34
08.578,-29.09
08.593,-25.47
08.609,-17.11
08.625,-4.54
08.640,10.86
08.656,26.93
08.671,41.0
08.687,50.39
08.703,53.15
08.718,48.71
08.734,38.04
08.750,23.41
08.765,7.56
08.781,-7.12
08.796,-19.01
08.812,-27.36
08.828,-31.89
08.843,-32.52
08.859,-29.38
08.875,-22.91
08.890,-14.09
08.906,-4.34
08.921,4.76
08.937,12.04
08.953,17.07
08.968,20.14
08.984,22.05
09.000,23.63
09.015,25.38
09.031,27.43
09.046,29.49
09.062,31.11
09.078,31.82
09.093,31.24
09.109,29.22
09.125,25.82
09.140,21.34
09.156,16.24
09.171,11.06
09.187,6.22
09.203,1.89
09.218,-2.01
09.234,-5.85
09.250,-10.13
09.265,-15.2
09.281,-21.11
09.296,-27.39
09.312,-33.12
09.328,-37.04
09.343,-37.88
09.359,-34.72
09.375,-27.33
09.390,-16.24
09.406,-2.55
09.421,12.32
09.437,27.12
09.453,41.0
09.468,53.55
09.484,64.74
09.500,74.77
09.515,83.92
09.531,92.53
09.546,101.04
09.562,109.83
09.578,119.27
09.593,129.47
09.609,140.31
09.625,151.5
09.640,162.79
09.656,174.04
09.671,185.33
09.687,196.68
09.703,207.84
09.718,218.13
09.734,226.4
09.750,231.25
09.765,231.53
09.781,226.63
09.796,216.69
09.812,202.6
09.828,185.67
09.843,167.31
09.859,148.85
09.875,131.35
09.890,115.67
09.906,102.29
09.921,91.29
09.937,82.21
09.953,74.18
09.968,66.31
09.984,58.18
10.000,50.24
10.015,43.68
10.031,39.92
10.046,39.66
10.062,42.01
10.078,44.47
10.093,43.47
10.109,35.72
10.125,19.58
10.140,-4.1
10.156,-32.13
10.171,-59.98
10.187,-83.23
10.203,-98.9
10.218,-105.99
10.234,-105.41
10.250,-99.19
10.265,-89.71
10.281,-79.01
10.296,-68.72
10.312,-60.14
10.328,-54.46
10.343,-52.78
10.359,-55.87
10.375,-63.88
10.390,-76.07
10.406,-90.87
10.421,-106.37
10.437,-120.81
10.453,-133.18
10.468,-143.36
10.484,-151.92
10.500,-159.6
10.515,-166.77
10.531,-173.11
10.546,-177.72
10.562,-179.51
10.578,-177.64
10.593,-171.92
10.609,-162.78
10.625,-151.17
10.640,-138.21
10.656,-124.83
10.671,-111.71
10.687,-99.19
10.703,-87.4
10.718,-76.36
10.734,-66.08
10.750,-56.57
10.765,-47.85
10.781,-39.96
10.796,-33.01
10.812,-27.25
10.828,-23.1
10.843,-21.03
10.859,-21.46
10.875,-24.54
10.890,-29.93
10.906,-36.77
10.921,-43.71
10.937,-49.16
10.953,-51.67
10.968,-50.23
10.984,-44.61
11.000,-35.33
11.015,-23.64
11.031,-11.19
11.046,0.28
11.062,9.23
11.078,14.51
11.093,15.58
11.109,12.52
11.125,6.02
11.140,-2.78
11.156,-12.58
11.171,-22.17
11.187,-30.67
11.203,-37.6
11.218,-42.73
11.234,-45.92
11.250,-46.98
11.265,-45.62
11.281,-41.56
11.296,-34.7
11.312,-25.34
11.328,-14.21
11.343,-2.43
11.359,8.86
11.375,18.87
11.390,27.43
11.406,35.15
11.421,43.06
11.437,52.26
11.453,63.29
11.468,75.93
11.484,89.25
11.500,101.96
11.515,113.04
11.531,121.99
11.546,129.02
11.562,134.92
11.578,140.8
11.593,147.7
11.609,156.25
11.625,166.06
11.640,175.38
11.656,181.06
11.671,179.35
11.687,167.19
11.703,143.71
11.718,111.05
11.734,74.23
11.750,40.16
11.765,15.85
11.781,6.4
11.796,13.4
11.812,34.22
11.828,62.36
11.843,89.27
11.859,106.74
11.875,109.29
11.890,95.65
11.906,68.8
11.921,34.68
11.937,0.29
11.953,-27.96
11.968,-45.58
11.984,-50.65
12.000,-44.14
12.015,-29.72
12.031,-13.12
12.046,-0.61
12.062,2.85
12.078,-4.75
12.093,-21.85
12.109,-43.83
12.125,-64.48
12.140,-77.92
12.156,-80.32
12.171,-71.24
12.187,-53.87
12.203,-34.17
12.218,-19.06
12.234,-14.05
12.250,-21.41
12.265,-39.37
12.281,-62.94
12.296,-85.76
12.312,-102.28
12.328,-109.34
12.343,-106.91
12.359,-97.61
12.375,-85.81
12.390,-76.18
12.406,-72.33
12.421,-75.66
12.437,-84.93
12.453,-96.8
12.468,-106.91
12.484,-111.44
12.500,-108.05
12.515,-96.18
12.531,-76.73
12.546,-51.55
12.562,-22.97
12.578,6.36
12.593,33.78
12.609,56.98
12.625,74.57
12.640,86.46
12.656,93.92
12.671,99.05
12.687,104.07
12.703,110.49
12.718,118.68
12.734,127.98
12.750,137.06
12.765,144.62
12.781,149.76
12.796,152.28
12.812,152.63
12.828,151.65
12.843,150.38
12.859,149.83
12.875,150.63
12.890,152.7
12.906,154.83
12.921,154.65
12.937,148.99
12.953,134.57
12.968,108.82
12.984,70.49
13.000,20.17
13.015,-39.27
13.031,-102.29
13.046,-161.02
13.062,-206.68
13.078,-232.22
13.093,-235.17
13.109,-219.33
13.125,-193.82
13.140,-169.72
13.156,-155.69
13.171,-154.84
13.187,-164.43
13.203,-178.01
13.218,-188.88
13.234,-192.57
13.250,-187.54
13.265,-174.53
13.281,-155.46
13.296,-132.83
13.312,-109.67
13.328,-89.27
13.343,-74.54
13.359,-67.06
13.375,-66.26
13.390,-69.52
13.406,-72.93
13.421,-72.62
13.437,-66.0
13.453,-52.71
13.468,-34.97
13.484,-17.14
13.500,-4.5
13.515,-1.46
13.531,-9.72
13.546,-27.38
13.562,-49.46
13.578,-69.79
13.593,-83.23
13.609,-87.29
13.625,-82.26
13.640,-70.31
13.656,-54.04
13.671,-35.44
13.687,-15.78
13.703,4.04
13.718,23.0
13.734,39.81
13.750,53.24
13.765,62.61
13.781,68.11
13.796,70.63
13.812,71.48
13.828,71.84
13.843,72.53
13.859,74.13
13.875,77.1
13.890,82.04
13.906,89.57
13.921,99.96
13.937,112.81
13.953,126.98
13.968,140.86
13.984,153.04
14.000,162.83
14.015,170.42
14.031,176.57
14.046,181.97
14.062,186.74
14.078,190.24
14.093,191.45
14.109,189.63
14.125,184.93
14.140,178.54
14.156,172.41
14.171,168.81
14.187,169.63
14.203,175.85
14.218,187.03
14.234,200.99
14.250,213.94
14.265,221.31
14.281,219.0
14.296,204.78
14.312,179.23
14.328,145.73
14.343,109.56
14.359,76.48
14.375,51.42
14.390,37.37
14.406,34.91
14.421,42.03
14.437,54.49
14.453,66.59
14.468,72.4
14.484,67.3
14.500,49.08
14.515,18.27
14.531,-22.39
14.546,-68.97
14.562,-117.03
14.578,-162.23
14.593,-200.69
14.609,-229.58
14.625,-247.75
14.640,-256.2
14.656,-257.83
14.671,-256.34
14.687,-254.8
14.703,-254.37
14.718,-253.96
14.734,-250.94
14.750,-242.76
14.765,-228.27
14.781,-208.7
14.796,-187.32
14.812,-168.24
14.828,-154.9
14.843,-148.83
14.859,-149.44
14.875,-154.57
14.890,-161.6
14.906,-168.46
14.921,-173.89
14.937,-177.09
14.953,-177.08
14.968,-172.4
14.984,-161.48
15.000,-143.49
15.015,-119.06
15.031,-90.53
15.046,-61.41
15.062,-35.48
15.078,-15.92
15.093,-4.57
15.109,-1.86
15.125,-6.85
15.140,-17.58
15.156,-31.46
15.171,-45.84
15.187,-58.51
15.203,-67.94
15.218,-73.38
15.234,-74.79
15.250,-72.62
15.265,-67.64
15.281,-60.77
15.296,-52.94
15.312,-45.0
15.328,-37.45
15.343,-30.38
15.359,-23.37
15.375,-15.68
15.390,-6.59
15.406,4.25
15.421,16.54
15.437,29.42
15.453,41.72
15.468,52.41
15.484,61.08
15.500,68.12
15.515,74.73
15.531,82.59
15.546,93.45
15.562,108.58
15.578,128.5
15.593,152.87
15.609,180.74
15.625,210.94
15.640,242.44
15.656,274.74
15.671,307.74
15.687,341.45
15.703,375.4
15.718,408.17
15.734,437.17
15.750,459.02
15.765,470.48
15.781,469.48
15.796,455.95
15.812,431.91
15.828,400.82
15.843,366.45
15.859,331.79
15.875,298.41
15.890,266.57
15.906,235.78
15.921,205.58
15.937,175.92
15.953,147.17
15.968,119.68
15.984,93.48
16.000,67.97
16.015,42.22
16.031,15.4
16.046,-12.9
16.062,-42.33
16.078,-72.12
16.093,-101.54
16.109,-130.22
16.125,-158.2
16.140,-185.6
16.156,-212.27
16.171,-237.73
16.187,-261.42
16.203,-283.06
16.218,-302.85
16.234,-321.18
16.250,-338.09
16.265,-352.81
16.281,-363.97
16.296,-370.28
16.312,-371.57
16.328,-369.41
16.343,-366.84
16.359,-367.3
16.375,-373.27
16.390,-385.32
16.406,-402.02
16.421,-420.59
16.437,-437.97
16.453,-451.67
16.468,-460.21
16.484,-463.06
16.500,-460.26
16.515,-452.04
16.531,-438.49
16.546,-419.8
16.562,-396.29
16.578,-368.73
16.593,-338.38
16.609,-306.69
16.625,-275.0
16.640,-244.13
16.656,-214.21
16.671,-184.79
16.687,-155.22
16.703,-125.12
16.718,-94.72
16.734,-64.92
16.750,-37.0
16.765,-12.18
16.781,8.83
16.796,25.94
16.812,39.48
16.828,49.77
16.843,56.85
16.859,60.28
16.875,59.51
16.890,54.41
16.906,45.73
16.921,35.31
16.937,25.8
16.953,20.0
16.968,20.08
16.984,27.01
17.000,40.35
17.015,58.49
17.031,79.23
17.046,100.29
17.062,119.9
17.078,137.01
17.093,151.17
17.109,162.18
17.125,169.84
17.140,173.82
17.156,173.76
17.171,169.7
17.187,162.25
17.203,152.65
17.218,142.42
17.234,133.01
17.250,125.42
17.265,120.14
17.281,117.09
17.296,115.71
17.312,114.93
17.328,113.29
17.343,109.21
17.359,101.39
17.375,89.33
17.390,73.52
17.406,55.27
17.421,36.27
17.437,18.05
17.453,1.67
17.468,-12.25
17.484,-23.42
17.500,-31.63
17.515,-36.96
17.531,-39.82
17.546,-41.15
17.562,-42.17
17.578,-44.02
17.593,-47.31
17.609,-51.8
17.625,-56.42
17.640,-59.61
17.656,-59.75
17.671,-55.65
17.687,-46.81
17.703,-33.45
17.718,-16.37
17.734,3.3
17.750,24.36
17.765,45.67
17.781,66.19
17.796,85.03
17.812,101.4
17.828,114.67
17.843,124.54
17.859,131.05
17.875,134.71
17.890,136.32
17.906,136.72
17.921,136.58
17.937,136.15
17.953,135.4
17.968,134.13
17.984,132.28
18.000,130.14
18.015,128.23
18.031,127.24
18.046,127.71
18.062,129.83
18.078,133.26
18.093,137.17
18.109,140.25
18.125,141.04
18.140,138.29
18.156,131.39
18.171,120.66
18.187,107.37
18.203,93.41
18.218,80.66
18.234,70.51
18.250,63.5
18.265,59.33
18.281,57.18
18.296,56.03
18.312,54.96
18.328,53.38
18.343,51.15
18.359,48.87
18.375,47.76
18.390,49.62
18.406,56.28
18.421,69.05
18.437,88.14
18.453,112.64
18.468,140.7
18.484,170.08
18.500,198.7
18.515,224.84
18.531,247.18
18.546,264.68
18.562,276.44
18.578,281.73
18.593,280.11
18.609,271.45
18.625,255.91
18.640,233.82
18.656,205.54
18.671,171.45
18.687,132.09
18.703,88.46
18.718,42.25
18.734,-4.04
18.750,-47.22
18.765,-83.89
18.781,-111.12
18.796,-127.22
18.812,-132.3
18.828,-128.47
18.843,-119.37
18.859,-109.23
18.875,-101.67
18.890,-98.91
18.906,-101.36
18.921,-108.02
18.937,-117.01
18.953,-126.22
18.968,-133.55
18.984,-137.05
19.000,-134.94
19.015,-125.9
19.031,-109.63
19.046,-87.3
19.062,-61.73
19.078,-36.94
19.093,-17.13
19.109,-5.67
19.125,-4.09
19.140,-11.84
19.156,-26.46
19.171,-44.33
19.187,-61.58
19.203,-74.96
19.218,-82.51
19.234,-83.76
19.250,-79.6
19.265,-71.72
19.281,-62.07
19.296,-52.33
19.312,-43.66
19.328,-36.78
19.343,-32.07
19.359,-29.8
19.375,-30.08
19.390,-32.89
19.406,-37.94
19.421,-44.56
19.437,-51.83
19.453,-58.72
19.468,-64.18
19.484,-67.49
19.500,-68.31
19.515,-66.68
19.531,-62.95
19.546,-57.57
19.562,-50.89
19.578,-43.1
19.593,-34.29
19.609,-24.63
19.625,-14.44
19.640,-4.28
19.656,5.19
19.671,13.41
19.687,20.12
19.703,25.41
19.718,29.69
19.734,33.43
19.750,36.96
19.765,40.31
19.781,43.17
19.796,45.13
19.812,45.85
19.828,45.33
19.843,43.88
19.859,42.07
19.875,40.39
19.890,39.11
19.906,38.16
19.921,37.23
19.937,36.0
19.953,34.28
19.968,32.14
19.984,29.91
20.000,27.94
20.015,26.53
20.031,25.72
20.046,25.33
20.062,25.07
20.078,24.66
20.093,23.98
20.109,23.11
20.125,22.24
20.140,21.57
20.156,21.22
20.171,21.21
20.187,21.49
20.203,22.04
20.218,22.78
20.234,23.58
20.250,24.19
20.265,24.3
20.281,23.62
20.296,21.98
20.312,19.38
20.328,16.0
20.343,12.07
20.359,7.84
20.375,3.47
20.390,-0.99
20.406,-5.56
20.421,-10.31
20.437,-15.27
20.453,-20.29
20.468,-24.99
20.484,-28.85
20.500,-31.41
20.515,-32.55
20.531,-32.62
20.546,-32.38
20.562,-32.69
20.578,-34.14
20.593,-36.84
20.609,-40.42
20.625,-44.31
20.640,-48.1
20.656,-51.71
20.671,-55.32
20.687,-59.25
20.703,-63.69
20.718,-68.69
20.734,-74.15
20.750,-79.9
20.765,-85.65
20.781,-90.79
20.796,-94.39
20.812,-95.25
20.828,-92.2
20.843,-84.55
20.859,-72.45
20.875,-56.92
20.890,-39.64
20.906,-22.45
20.921,-6.95
20.937,5.9
20.953,15.71
20.968,22.64
20.984,27.13
21.000,29.7
21.015,30.86
21.031,30.94
21.046,30.25
21.062,28.98
21.078,27.4
21.093,25.75
21.109,24.34
21.125,23.39
21.140,22.97
21.156,23.04
21.171,23.43
21.187,23.98
21.203,24.59
21.218,25.23
21.234,25.88
21.250,26.41
21.265,26.53
21.281,25.9
21.296,24.27
21.312,21.6
21.328,18.19
21.343,14.5
21.359,11.05
21.375,8.2
21.390,6.04
21.406,4.41
21.421,3.06
21.437,1.8
21.453,0.47
21.468,-1.0
21.484,-2.75
21.500,-4.93
21.515,-7.66
21.531,-10.78
21.546,-13.74
21.562,-15.59
21.578,-15.2
21.593,-11.59
21.609,-4.22
21.625,6.71
21.640,20.33
21.656,35.27
21.671,50.05
21.687,63.46
21.703,74.85
21.718,84.17
21.734,91.77
21.750,98.11
21.765,103.41
21.781,107.6
21.796,110.41
21.812,111.69
21.828,111.57
21.843,110.56
21.859,109.26
21.875,108.01
21.890,106.66
21.906,104.65
21.921,101.4
21.937,96.73
21.953,91.04
21.968,85.18
21.984,79.77
22.000,74.54
22.015,68.01
22.031,57.73
22.046,41.1
22.062,16.25
22.078,-17.4
22.093,-59.24
22.109,-107.91
22.125,-161.49
22.140,-217.51
22.156,-272.51
22.171,-322.05
22.187,-361.31
22.203,-386.39
22.218,-395.53
22.234,-389.75
22.250,-372.31
22.265,-347.45
22.281,-319.0
22.296,-289.67
22.312,-260.97
22.328,-233.75
22.343,-208.51
22.359,-185.47
22.375,-164.28
22.390,-144.06
22.406,-123.61
22.421,-102.1
22.437,-79.43
22.453,-56.36
22.468,-34.08
22.484,-13.77
22.500,3.84
22.515,18.58
22.531,30.71
22.546,40.72
22.562,49.1
22.578,56.26
22.593,62.44
22.609,67.74
22.625,72.17
22.640,75.69
22.656,78.31
22.671,80.11
22.687,81.26
22.703,82.0
22.718,82.58
22.734,83.17
22.750,83.78
22.765,84.26
22.781,84.35
22.796,83.71
22.812,82.04
22.828,79.26
22.843,75.5
22.859,71.06
22.875,66.22
22.890,61.08
22.906,55.52
22.921,49.31
22.937,42.29
22.953,34.55
22.968,26.43
22.984,18.36
23.000,10.71
23.015,3.58
23.031,-3.14
23.046,-9.74
23.062,-16.5
23.078,-23.67
23.093,-31.35
23.109,-39.47
23.125,-47.67
23.140,-55.21
23.156,-61.0
23.171,-63.79
23.187,-62.56
23.203,-56.86
23.218,-47.05
23.234,-34.27
23.250,-20.1
23.265,-6.07
23.281,6.65
23.296,17.45
23.312,26.27
23.328,33.35
23.343,39.01
23.359,43.52
23.375,47.09
23.390,49.87
23.406,52.04
23.421,53.84
23.437,55.52
23.453,57.32
23.468,59.36
23.484,61.6
23.500,63.76
23.515,65.45
23.531,66.22
23.546,65.83
23.562,64.31
23.578,62.01
23.593,59.42
23.609,57.0
23.625,54.94
23.640,53.11
23.656,51.21
23.671,48.89
23.687,46.03
23.703,42.7
23.718,39.13
23.734,35.56
23.750,31.98
23.765,28.26
23.781,24.12
23.796,19.4
23.812,14.1
23.828,8.41
23.843,2.6
23.859,-3.14
23.875,-8.8
23.890,-14.62
23.906,-20.97
23.921,-28.14
23.937,-35.99
23.953,-43.84
23.968,-50.42
23.984,-54.19
24.000,-53.79
24.015,-48.44
24.031,-38.11
24.046,-23.43
24.062,-5.45
24.078,14.51
24.093,34.84
24.109,53.66
24.125,68.77
24.140,78.17
24.156,80.59
24.171,76.0
24.187,65.8
24.203,52.3
24.218,38.04
24.234,25.04
24.250,14.4
24.265,6.53
24.281,1.4
24.296,-1.06
24.312,-0.91
24.328,1.66
24.343,6.13
24.359,11.62
24.375,17.03
24.390,21.31
24.406,23.77
24.421,24.3
24.437,23.16
24.453,20.92
24.468,18.09
24.484,14.97
24.500,11.6
24.515,7.87
24.531,3.65
24.546,-1.02
24.562,-5.94
24.578,-10.75
24.593,-15.07
24.609,-18.69
24.625,-21.61
24.640,-24.12
24.656,-26.7
24.671,-29.86
24.687,-33.97
24.703,-39.22
24.718,-45.47
24.734,-52.25
24.750,-58.84
24.765,-64.25
24.781,-67.35
24.796,-67.09
24.812,-62.72
24.828,-54.08
24.843,-41.67
24.859,-26.59
24.875,-10.3
24.890,5.76
24.906,20.39
24.921,32.79
24.937,42.6
24.953,49.77
24.968,54.49
24.984,57.16
25.000,58.19
25.015,58.08
25.031,57.27
25.046,56.18
25.062,55.16
25.078,54.43
25.093,54.17
25.109,54.45
25.125,55.28
25.140,56.62
25.156,58.45
25.171,60.76
25.187,63.45
25.203,66.3
25.218,68.92
25.234,70.82
25.250,71.52
25.265,70.79
25.281,68.73
25.296,65.77
25.312,62.54
25.328,59.57
25.343,57.13
25.359,55.09
25.375,52.96
25.390,50.14
25.406,46.14
25.421,40.8
25.437,34.42
25.453,27.74
25.468,21.72
25.484,17.26
25.500,14.86
25.515,14.46
25.531,15.46
25.546,17.0
25.562,18.33
25.578,19.09
25.593,19.33
25.609,19.36
25.625,19.5
25.640,19.89
25.656,20.49
25.671,21.28
25.687,22.31
25.703,23.82
25.718,26.04
25.734,29.11
25.750,32.94
25.765,37.31
25.781,42.02
25.796,47.0
25.812,52.34
25.828,58.23
25.843,64.76
25.859,71.77
25.875,78.85
25.890,85.32
25.906,90.44
25.921,93.62
25.937,94.64
25.953,93.92
25.968,92.4
25.984,91.28
26.000,91.45
26.015,93.09
26.031,95.44
26.046,97.02
26.062,96.14
26.078,91.39
26.093,81.96
26.109,67.62
26.125,48.56
26.140,25.17
26.156,-2.0
26.171,-32.18
26.187,-64.41
26.203,-97.54
26.218,-130.41
26.234,-161.98
26.250,-191.34
26.265,-217.57
26.281,-239.61
26.296,-256.17
26.312,-265.92
26.328,-267.7
26.343,-260.9
26.359,-245.75
26.375,-223.35
26.390,-195.56
26.406,-164.66
26.421,-133.05
26.437,-102.93
26.453,-76.1
26.468,-53.82
26.484,-36.84
26.500,-25.38
26.515,-19.22
26.531,-17.81
26.546,-20.34
26.562,-25.87
26.578,-33.41
26.593,-41.91
26.609,-50.3
26.625,-57.51
26.640,-62.57
26.656,-64.84
26.671,-64.13
26.687,-60.77
26.703,-55.58
26.718,-49.61
26.734,-43.96
26.750,-39.5
26.765,-36.67
26.781,-35.53
26.796,-35.73
26.812,-36.76
26.828,-38.01
26.843,-39.0
26.859,-39.39
26.875,-39.07
26.890,-38.1
26.906,-36.67
26.921,-35.0
26.937,-33.39
26.953,-32.16
26.968,-31.76
26.984,-32.71
27.000,-35.52
27.015,-40.45
27.031,-47.27
27.046,-55.09
27.062,-62.38
27.078,-67.41
27.093,-68.65
27.109,-65.27
27.125,-57.32
27.140,-45.62
27.156,-31.44
27.171,-16.19
27.187,-1.23
27.203,12.23
27.218,23.23
27.234,31.18
27.250,36.14
27.265,38.98
27.281,41.29
27.296,44.97
27.312,51.55
27.328,61.67
27.343,74.81
27.359,89.55
27.375,104.13
27.390,117.08
27.406,127.54
27.421,135.36
27.437,140.82
27.453,144.3
27.468,145.99
27.484,145.78
27.500,143.2
27.515,137.64
27.531,128.45
27.546,115.18
27.562,97.83
27.578,77.02
27.593,54.07
27.609,30.76
27.625,8.9
27.640,-10.17
27.656,-26.01
27.671,-39.06
27.687,-50.26
27.703,-60.49
27.718,-70.15
27.734,-79.0
27.750,-86.6
27.765,-92.65
27.781,-97.39
27.796,-101.44
27.812,-105.53
27.828,-110.18
27.843,-115.6
27.859,-121.81
27.875,-128.76
27.890,-136.2
27.906,-143.3
27.921,-148.48
27.937,-149.55
27.953,-144.38
27.968,-131.78
27.984,-112.07
28.000,-87.03
28.015,-59.2
28.031,-30.87
28.046,-3.41
28.062,22.97
28.078,48.69
28.093,74.13
28.109,99.08
28.125,122.74
28.140,144.07
28.156,162.4
28.171,177.86
28.187,191.48
28.203,204.9
28.218,219.7
28.234,236.76
28.250,255.62
28.265,274.24
28.281,289.2
28.296,296.46
28.312,292.23
28.328,274.04
28.343,241.44
28.359,196.48
28.375,143.7
28.390,89.56
28.406,41.19
28.421,4.84
28.437,-15.62
28.453,-19.41
28.468,-8.52
28.484,13.72
28.500,44.24
28.515,81.11
28.531,122.96
28.546,167.57
28.562,210.55
28.578,245.31
28.593,264.88
28.609,264.53
28.625,243.89
28.640,207.12
28.656,161.36
28.671,114.18
28.687,71.44
28.703,36.32
28.718,9.21
28.734,-11.49
28.750,-28.8
28.765,-46.43
28.781,-67.81
28.796,-94.73
28.812,-126.23
28.828,-158.45
28.843,-185.92
28.859,-203.9
28.875,-210.58
28.890,-207.91
28.906,-200.61
28.921,-193.83
28.937,-190.82
28.953,-191.56
28.968,-193.11
28.984,-191.07
29.000,-181.32
29.015,-161.35
29.031,-131.17
29.046,-93.51
29.062,-53.38
29.078,-17.15
29.093,9.08
29.109,21.21
29.125,18.5
29.140,3.81
29.156,-17.45
29.171,-39.26
29.187,-57.19
29.203,-69.88
29.218,-79.19
29.234,-89.01
29.250,-103.46
29.265,-125.09
29.281,-153.98
29.296,-187.95
29.312,-223.48
29.328,-257.12
29.343,-286.31
29.359,-309.67
29.375,-326.68
29.390,-337.05
29.406,-340.46
29.421,-336.86
29.437,-326.93
29.453,-312.3
29.468,-295.29
29.484,-278.1
29.500,-261.93
29.515,-246.68
29.531,-231.1
29.546,-213.66
29.562,-193.45
29.578,-170.71
29.593,-146.88
29.609,-124.05
29.625,-104.19
29.640,-88.42
29.656,-76.74
29.671,-68.21
29.687,-61.49
29.703,-55.56
29.718,-50.12
29.734,-45.64
29.750,-42.9
29.765,-42.56
29.781,-44.69
29.796,-48.71
29.812,-53.51
29.828,-57.74
29.843,-60.09
29.859,-59.42
29.875,-54.89
29.890,-46.06
29.906,-32.95
29.921,-16.17
29.937,3.2
29.953,23.78
29.968,44.15
29.984,63.19
30.000,80.15
30.015,94.75
30.031,106.96
30.046,116.89
30.062,124.63
30.078,130.28
30.093,133.93
30.109,135.78
30.125,136.14
30.140,135.43
30.156,134.06
30.171,132.3
30.187,130.28
30.203,128.02
30.218,125.56
30.234,123.2
30.250,121.43
30.265,120.84
30.281,121.72
30.296,123.79
30.312,126.07
30.328,127.18
30.343,125.85
30.359,121.34
30.375,113.64
30.390,103.34
30.406,91.18
30.421,77.76
30.437,63.39
30.453,48.25
30.468,32.64
30.484,17.12
30.500,2.43
30.515,-10.77
30.531,-22.24
30.546,-32.26
30.562,-41.59
30.578,-51.16
30.593,-61.72
30.609,-73.47
30.625,-85.82
30.640,-97.35
30.656,-106.04
30.671,-109.81
30.687,-107.1
30.703,-97.37
30.718,-81.34
30.734,-60.7
30.750,-37.59
30.765,-13.95
30.781,8.79
30.796,29.84
30.812,48.77
30.828,65.22
30.843,78.77
30.859,89.09
30.875,96.22
30.890,100.71
30.906,103.53
30.921,105.71
30.937,107.96
30.953,110.38
30.968,112.64
30.984,114.29
31.000,115.16
31.015,115.56
31.031,116.14
31.046,117.55
31.062,119.97
31.078,123.0
31.093,125.74
31.109,127.26
31.125,126.98
31.140,124.98
31.156,121.98
31.171,118.99
31.187,117.03
31.203,116.8
31.218,118.6
31.234,122.25
31.250,126.99
31.265,131.29
31.281,132.86
31.296,129.09
31.312,117.78
31.328,98.0
31.343,70.46
31.359,37.37
31.375,1.56
31.390,-34.41
31.406,-68.7
31.421,-100.11
31.437,-127.43
31.453,-149.01
31.468,-162.86
31.484,-167.34
31.500,-162.01
31.515,-148.13
31.531,-128.36
31.546,-105.9
31.562,-83.51
31.578,-62.85
31.593,-44.26
31.609,-27.48
31.625,-11.99
31.640,2.41
31.656,15.45
31.671,26.51
31.687,35.09
31.703,41.05
31.718,44.82
31.734,47.26
31.750,49.15
31.765,51.1
31.781,53.4
31.796,55.96
31.812,58.42
31.828,60.19
31.843,60.45
31.859,58.31
31.875,53.43
31.890,45.88
31.906,36.95
31.921,28.58
31.937,22.5
31.953,19.32
31.968,18.33
31.984,17.99
32.000,16.95
32.015,15.62
32.031,14.59
32.046,15.91
32.062,21.44
32.078,32.09
32.093,47.3
32.109,65.33
32.125,83.73
32.140,99.87
32.156,112.66
32.171,118.96
32.187,117.53
32.203,107.6
32.218,89.03
32.234,62.06
32.250,27.21
32.265,-14.73
32.281,-62.81
32.296,-114.16
32.312,-170.35
32.328,-231.14
32.343,-295.55
32.359,-360.46
32.375,-419.82
32.390,-465.41
32.406,-489.13
32.421,-486.07
32.437,-453.9
32.453,-400.67
32.468,-334.64
32.484,-263.58
32.500,-192.11
32.515,-121.04
32.531,-48.54
32.546,27.58
32.562,90.99
32.578,158.02
32.593,220.29
32.609,270.98
32.625,304.33
32.640,317.77
32.656,313.09
32.671,295.9
32.687,273.55
32.703,252.14
32.718,237.25
32.734,225.74
32.750,215.27
32.765,203.97
32.781,192.15
32.796,182.07
32.812,176.46
32.828,176.75
32.843,182.18
32.859,192.4
32.875,202.88
32.890,212.2
32.906,220.44
32.921,228.78
32.937,238.41
32.953,249.61
32.968,261.38
32.984,271.75
33.000,279.77
33.015,282.66
33.031,280.11
33.046,273.17
33.062,263.81
33.078,254.11
33.093,245.46
33.109,238.23
33.125,232.02
33.140,227.01
33.156,222.81
33.171,220.44
33.187,221.05
33.203,224.79
33.218,230.1
33.234,233.7
33.250,231.75
33.265,221.28
33.281,201.62
33.296,173.64
33.312,139.56
33.328,101.48
33.343,60.54
33.359,17.08
33.375,-28.73
33.390,-76.25
33.406,-124.06
33.421,-170.57
33.437,-214.77
33.453,-256.95
33.468,-298.78
33.484,-343.07
33.500,-392.68
33.515,-449.26
33.531,-511.61
33.546,-574.9
33.562,-630.92
33.578,-670.15
33.593,-684.85
33.609,-671.69
33.625,-632.92
33.640,-575.14
33.656,-506.68
33.671,-434.94
33.687,-364.97
33.703,-299.51
33.718,-239.94
33.734,-187.06
33.750,-141.38
33.765,-102.96
33.781,-71.35
33.796,-45.83
33.812,-25.87
33.828,-11.27
33.843,-1.85
33.859,2.91
33.875,3.95
33.890,2.23
33.906,-1.66
33.921,-7.64
33.937,-15.56
33.953,-24.6
33.968,-33.12
33.984,-39.33
34.000,-42.52
34.015,-43.8
34.031,-45.9
34.046,-52.19
34.062,-65.15
34.078,-85.05
34.093,-109.49
34.109,-133.5
34.125,-150.65
34.140,-154.48
34.156,-140.32
34.171,-106.95
34.187,-57.37
34.203,1.46
34.218,60.33
34.234,110.42
34.250,145.97
34.265,165.89
34.281,173.58
34.296,175.06
34.312,176.22
34.328,180.59
34.343,188.47
34.359,197.7
34.375,205.43
34.390,209.83
34.406,210.94
34.421,210.19
34.437,209.28
34.453,208.97
34.468,208.82
34.484,207.74
34.500,204.95
34.515,200.64
34.531,195.9
34.546,192.04
34.562,189.64
34.578,188.35
34.593,187.1
34.609,184.88
34.625,181.42
34.640,177.44
34.656,174.35
34.671,173.51
34.687,175.63
34.703,180.47
34.718,186.99
34.734,193.82
34.750,199.74
34.765,204.07
34.781,206.79
34.796,208.32
34.812,209.14
34.828,209.29
34.843,208.05
34.859,203.99
34.875,195.45
34.890,181.03
34.906,160.25
34.921,133.6
34.937,102.14
34.953,66.93
34.968,28.42
34.984,-13.43
35.000,-58.44
35.015,-105.45
35.031,-151.95
35.046,-194.55
35.062,-230.16
35.078,-257.21
35.093,-276.08
35.109,-288.69
35.125,-297.28
35.140,-303.33
35.156,-307.04
35.171,-307.81
35.187,-305.06
35.203,-299.09
35.218,-291.19
35.234,-283.15
35.250,-276.41
35.265,-271.37
35.281,-267.4
35.296,-263.19
35.312,-257.47
35.328,-249.48
35.343,-239.17
35.359,-227.01
35.375,-213.53
35.390,-199.08
35.406,-183.71
35.421,-167.31
35.437,-149.84
35.453,-131.51
35.468,-112.78
35.484,-94.19
35.500,-76.3
35.515,-59.53
35.531,-44.28
35.546,-30.9
35.562,-19.63
35.578,-10.48
35.593,-3.12
35.609,3.06
35.625,8.82
35.640,14.68
35.656,20.87
35.671,27.18
35.687,33.28
35.703,38.85
35.718,43.79
35.734,48.17
35.750,52.04
35.765,55.34
35.781,57.73
35.796,58.7
35.812,57.79
35.828,54.67
35.843,49.3
35.859,41.93
35.875,33.19
35.890,23.96
35.906,15.36
35.921,8.44
35.937,3.98
35.953,2.25
35.968,2.88
35.984,5.07
36.000,7.78
36.015,10.13
36.031,11.51
36.046,11.76
36.062,11.16
36.078,10.32
36.093,10.12
36.109,11.49
36.125,15.19
36.140,21.68
36.156,30.93
36.171,42.28
36.187,54.48
36.203,65.95
36.218,75.12
36.234,81.01
36.250,83.59
36.265,83.82
36.281,83.21
36.296,83.11
36.312,83.94
36.328,85.03
36.343,84.94
36.359,82.26
36.375,76.29
36.390,67.37
36.406,56.68
36.421,45.64
36.437,35.49
36.453,26.96
36.468,20.22
36.484,14.82
36.500,9.79
36.515,3.8
36.531,-4.31
36.546,-14.96
36.562,-27.33
36.578,-39.57
36.593,-49.46
36.609,-55.39
36.625,-57.08
36.640,-55.5
36.656,-52.2
36.671,-48.33
36.687,-44.13
36.703,-38.94
36.718,-31.89
36.734,-22.59
36.750,-11.39
36.765,0.7
36.781,12.58
36.796,23.33
36.812,32.31
36.828,39.13
36.843,43.89
36.859,47.32
36.875,50.81
36.890,55.94
36.906,63.73
36.921,73.89
36.937,84.62
36.953,93.22
36.968,97.18
36.984,95.24
37.000,87.69
37.015,75.94
37.031,61.76
37.046,46.58
37.062,31.44
37.078,17.49
37.093,6.28
37.109,-0.39
37.125,-1.2
37.140,3.88
37.156,13.34
37.171,24.65
37.187,35.2
37.203,43.14
37.218,47.53
37.234,47.89
37.250,43.57
37.265,33.71
37.281,17.76
37.296,-3.54
37.312,-27.63
37.328,-50.69
37.343,-68.96
37.359,-80.3
37.375,-84.99
37.390,-85.38
37.406,-84.61
37.421,-85.16
37.437,-88.02
37.453,-92.66
37.468,-97.75
37.484,-101.8
37.500,-103.59
37.515,-102.32
37.531,-97.5
37.546,-88.92
37.562,-76.83
37.578,-61.99
37.593,-45.57
37.609,-28.97
37.625,-13.46
37.640,0.13
37.656,11.65
37.671,21.61
37.687,31.09
37.703,41.2
37.718,52.56
37.734,64.67
37.750,75.85
37.765,83.63
37.781,85.89
37.796,81.81
37.812,72.55
37.828,60.81
37.843,49.72
37.859,41.54
37.875,36.92
37.890,34.97
37.906,34.15
37.921,33.26
37.937,32.01
37.953,30.81
37.968,30.15
37.984,29.97
38.000,29.5
38.015,27.64
38.031,23.53
38.046,16.93
38.062,8.31
38.078,-1.49
38.093,-11.67
38.109,-21.86
38.125,-32.12
38.140,-42.83
38.156,-54.39
38.171,-66.86
38.187,-79.76
38.203,-92.07
38.218,-102.49
38.234,-109.94
38.250,-113.89
38.265,-114.51
38.281,-112.5
38.296,-108.75
38.312,-103.91
38.328,-98.28
38.343,-91.91
38.359,-84.83
38.375,-77.34
38.390,-70.01
38.406,-63.52
38.421,-58.37
38.437,-54.61
38.453,-51.67
38.468,-48.47
38.484,-43.72
38.500,-36.3
38.515,-25.65
38.531,-11.95
38.546,3.91
38.562,20.56
38.578,36.53
38.593,50.61
38.609,61.86
38.625,69.66
38.640,73.69
38.656,73.96
38.671,70.81
38.687,65.06
38.703,57.77
38.718,49.99
38.734,42.37
38.750,34.95
38.765,27.19
38.781,18.41
38.796,8.13
38.812,-3.45
38.828,-15.46
38.843,-26.51
38.859,-35.16
38.875,-40.27
38.890,-41.35
38.906,-38.61
38.921,-32.81
38.937,-25.04
38.953,-16.46
38.968,-8.1
38.984,-0.75
39.000,5.06
39.015,9.03
39.031,11.09
39.046,11.32
39.062,10.03
39.078,7.7
39.093,4.93
39.109,2.36
39.125,0.47
39.140,-0.49
39.156,-0.47
39.171,0.44
39.187,2.25
39.203,5.08
39.218,9.08
39.234,14.24
39.250,20.1
39.265,25.86
39.281,30.41
39.296,32.75
39.312,32.26
39.328,28.93
39.343,23.36
39.359,16.53
39.375,9.65
39.390,3.9
39.406,0.28
39.421,-0.61
39.437,1.35
39.453,5.73
39.468,11.51
39.484,17.38
39.500,22.02
39.515,24.52
39.531,24.72
39.546,23.21
39.562,21.14
39.578,19.81
39.593,20.21
39.609,22.82
39.625,27.55
39.640,33.94
39.656,41.34
39.671,49.02
39.687,56.23
39.703,62.07
39.718,65.63
39.734,66.11
39.750,63.13
39.765,56.92
39.781,48.35
39.796,38.69
39.812,29.17
39.828,20.65
39.843,13.38
39.859,7.15
39.875,1.53
39.890,-3.74
39.906,-8.62
39.921,-12.81
39.937,-15.98
39.953,-17.98
39.968,-19.01
39.984,-19.45
40.000,-19.7
40.015,-20.05
40.031,-20.6
40.046,-21.35
40.062,-22.28
40.078,-23.38
40.093,-24.57
40.109,-25.63
40.125,-26.23
40.140,-26.09
40.156,-25.18
40.171,-23.92
40.187,-23.03
40.203,-23.34
40.218,-25.38
40.234,-29.06
40.250,-33.56
40.265,-37.58
40.281,-39.63
40.296,-38.54
40.312,-33.74
40.328,-25.4
40.343,-14.37
40.359,-1.94
40.375,10.45
40.390,21.5
40.406,30.33
40.421,36.65
40.437,40.68
40.453,43.07
40.468,44.56
40.484,45.76
40.500,46.94
40.515,48.13
40.531,49.21
40.546,50.14
40.562,51.08
40.578,52.33
40.593,54.2
40.609,56.9
40.625,60.44
40.640,64.64
40.656,69.24
40.671,74.04
40.687,78.99
40.703,84.19
40.718,89.83
40.734,96.09
40.750,103.06
40.765,110.65
40.781,118.6
40.796,126.5
40.812,133.92
40.828,140.46
40.843,145.94
40.859,150.44
40.875,154.33
40.890,158.09
40.906,162.19
40.921,166.71
40.937,171.16
40.953,174.42
40.968,174.93
40.984,171.19
41.000,162.33
41.015,148.6
41.031,131.58
41.046,113.89
41.062,98.57
41.078,88.19
41.093,84.33
41.109,87.31
41.125,96.5
41.140,110.72
41.156,128.53
41.171,148.17
41.187,167.18
41.203,182.4
41.218,190.41
41.234,188.82
41.250,177.37
41.265,158.45
41.281,136.26
41.296,115.05
41.312,97.35
41.328,83.17
41.343,70.49
41.359,56.82
41.375,40.67
41.390,22.09
41.406,2.21
41.421,-17.71
41.437,-36.69
41.453,-53.91
41.468,-68.44
41.484,-79.28
41.500,-86.0
41.515,-89.6
41.531,-92.59
41.546,-98.23
41.562,-109.08
41.578,-125.91
41.593,-147.69
41.609,-172.57
41.625,-199.29
41.640,-227.87
41.656,-259.23
41.671,-294.11
41.687,-331.94
41.703,-370.27
41.718,-404.85
41.734,-430.54
41.750,-442.66
41.765,-438.68
41.781,-419.88
41.796,-392.02
41.812,-364.29
41.828,-346.43
41.843,-345.21
41.859,-361.71
41.875,-390.99
41.890,-424.3
41.906,-452.52
41.921,-469.0
41.937,-470.6
41.953,-457.04
41.968,-429.74
41.984,-391.31
42.000,-345.84
42.015,-299.14
42.031,-257.83
42.046,-227.19
42.062,-208.88
42.078,-199.95
42.093,-193.98
42.109,-183.64
42.125,-163.71
42.140,-132.65
42.156,-92.55
42.171,-47.72
42.187,-2.94
42.203,37.71
42.218,71.59
42.234,97.57
42.250,116.24
42.265,129.49
42.281,140.1
42.296,150.6
42.312,162.32
42.328,174.69
42.343,185.45
42.359,191.48
42.375,190.15
42.390,180.36
42.406,162.93
42.421,140.35
42.437,116.11
42.453,93.8
42.468,76.49
42.484,66.22
42.500,63.8
42.515,68.73
42.531,79.5
42.546,93.84
42.562,109.33
42.578,123.86
42.593,136.0
42.609,145.09
42.625,151.19
42.640,154.88
42.656,156.99
42.671,158.48
42.687,160.2
42.703,162.79
42.718,166.68
42.734,172.09
42.750,179.17
42.765,187.84
42.781,197.37
42.796,206.16
42.812,211.8
42.828,211.65
42.843,203.9
42.859,188.46
42.875,167.18
42.890,143.31
42.906,120.17
42.921,100.11
42.937,83.93
42.953,71.35
42.968,61.72
42.984,54.72
43.000,50.39
43.015,48.54
43.031,48.34
43.046,48.32
43.062,47.1
43.078,44.22
43.093,40.58
43.109,38.12
43.125,38.83
43.140,43.78
43.156,52.5
43.171,63.28
43.187,74.12
43.203,83.67
43.218,91.71
43.234,98.98
43.250,106.3
43.265,113.75
43.281,120.34
43.296,124.36
43.312,124.18
43.328,119.09
43.343,109.64
43.359,97.42
43.375,84.31
43.390,71.92
43.406,61.1
43.421,52.08
43.437,44.76
43.453,38.76
43.468,33.31
43.484,26.93
43.500,17.41
43.515,2.32
43.531,-20.01
43.546,-49.56
43.562,-84.08
43.578,-119.62
43.593,-151.71
43.609,-176.77
43.625,-193.06
43.640,-200.87
43.656,-201.84
43.671,-198.07
43.687,-191.34
43.703,-182.85
43.718,-173.32
43.734,-163.34
43.750,-153.59
43.765,-144.75
43.781,-137.38
43.796,-131.69
43.812,-127.51
43.828,-124.44
43.843,-122.05
43.859,-120.08
43.875,-118.48
43.890,-117.22
43.906,-116.06
43.921,-114.37
43.937,-111.07
43.953,-104.96
43.968,-95.11
43.984,-81.28
44.000,-64.18
44.015,-45.31
44.031,-26.52
44.046,-9.44
44.062,4.93
44.078,16.43
44.093,25.5
44.109,32.75
44.125,38.62
44.140,43.17
44.156,46.26
44.171,47.78
44.187,47.94
44.203,47.28
44.218,46.46
44.234,45.99
44.250,45.96
44.265,46.08
44.281,45.87
44.296,44.98
44.312,43.36
44.328,41.29
44.343,39.11
44.359,36.99
44.375,34.84
44.390,32.48
44.406,29.95
44.421,27.68
44.437,26.45
44.453,26.99
44.468,29.51
44.484,33.46
44.500,37.61
44.515,40.53
44.531,41.25
44.546,39.67
44.562,36.56
44.578,33.19
44.593,30.7
44.609,29.67
44.625,30.06
44.640,31.56
44.656,33.93
44.671,37.43
44.687,42.62
44.703,49.95
44.718,59.21
44.734,69.21
44.750,78.11
44.765,84.12
44.781,86.3
44.796,84.94
44.812,81.27
44.828,76.63
44.843,71.86
44.859,67.17
44.875,62.48
44.890,58.0
44.906,54.31
44.921,51.74
44.937,49.65
44.953,45.98
44.968,37.68
44.984,22.07
45.000,-1.81
45.015,-32.38
45.031,-65.91
45.046,-97.8
45.062,-124.13
45.078,-142.71
45.093,-153.35
45.109,-157.27
45.125,-156.34
45.140,-152.2
45.156,-146.0
45.171,-138.23
45.187,-129.04
45.203,-118.54
45.218,-107.05
45.234,-95.26
45.250,-84.05
45.265,-74.37
45.281,-66.92
45.296,-62.08
45.312,-59.93
45.328,-60.14
45.343,-62.0
45.359,-64.27
45.375,-65.17
45.390,-62.55
45.406,-54.47
45.421,-39.87
45.437,-19.16
45.453,5.66
45.468,31.45
45.484,54.82
45.500,73.02
45.515,84.64
45.531,89.61
45.546,88.92
45.562,84.01
45.578,76.32
45.593,67.02
45.609,57.09
45.625,47.19
45.640,37.89
45.656,29.6
45.671,22.58
45.687,16.97
45.703,12.89
45.718,10.43
45.734,9.68
45.750,10.64
45.765,13.22
45.781,17.27
45.796,22.62
45.812,29.05
45.828,36.28
45.843,43.85
45.859,51.12
45.875,57.32
45.890,61.87
45.906,64.55
45.921,65.62
45.937,65.62
45.953,65.05
45.968,64.01
45.984,62.03
46.000,58.27
46.015,51.89
46.031,42.37
46.046,29.75
46.062,14.51
46.078,-2.59
46.093,-20.67
46.109,-38.71
46.125,-55.51
46.140,-69.64
46.156,-79.61
46.171,-84.3
46.187,-83.42
46.203,-77.82
46.218,-69.39
46.234,-60.54
46.250,-53.42
46.265,-49.38
46.281,-48.69
46.296,-50.85
46.312,-55.1
46.328,-60.8
46.343,-67.73
46.359,-75.72
46.375,-84.33
46.390,-92.58
46.406,-99.09
46.421,-102.64
46.437,-102.84
46.453,-100.44
46.468,-96.93
46.484,-93.97
46.500,-92.47
46.515,-92.29
46.531,-92.47
46.546,-91.88
46.562,-89.78
46.578,-85.83
46.593,-79.67
46.609,-70.78
46.625,-58.86
46.640,-44.61
46.656,-30.26
46.671,-19.19
46.687,-14.46
46.703,-17.29
46.718,-26.19
46.734,-37.76
46.750,-48.38
46.765,-56.01
46.781,-60.75
46.796,-64.03
46.812,-67.17
46.828,-70.27
46.843,-72.27
46.859,-71.97
46.875,-69.25
46.890,-65.39
46.906,-62.51
46.921,-62.3
46.937,-65.0
46.953,-69.32
46.968,-72.84
46.984,-73.15
47.000,-68.81
47.015,-59.98
47.031,-48.27
47.046,-36.06
47.062,-25.46
47.078,-17.36
47.093,-11.17
47.109,-5.29
47.125,1.95
47.140,11.32
47.156,22.33
47.171,33.46
47.187,43.04
47.203,49.98
47.218,54.15
47.234,56.0
47.250,56.13
47.265,54.68
47.281,51.33
47.296,45.59
47.312,37.29
47.328,26.9
47.343,15.45
47.359,4.25
47.375,-5.47
47.390,-12.86
47.406,-17.47
47.421,-19.25
47.437,-18.46
47.453,-15.76
47.468,-12.25
47.484,-9.37
47.500,-8.51
47.515,-10.46
47.531,-14.87
47.546,-20.1
47.562,-23.66
47.578,-22.93
47.593,-16.13
47.609,-2.89
47.625,15.53
47.640,36.78
47.656,58.07
47.671,76.88
47.687,91.53
47.703,101.25
47.718,106.09
47.734,106.68
47.750,103.96
47.765,99.0
47.781,92.84
47.796,86.44
47.812,80.51
47.828,75.51
47.843,71.57
47.859,68.54
47.875,66.09
47.890,63.85
47.906,61.51
47.921,58.87
47.937,55.94
47.953,52.79
47.968,49.53
47.984,46.14
48.000,42.39
48.015,37.87
48.031,32.13
48.046,24.9
48.062,16.33
48.078,7.07
48.093,-1.93
48.109,-9.76
48.125,-15.88
48.140,-20.38
48.156,-23.9
48.171,-27.4
48.187,-31.8
48.203,-37.72
48.218,-45.29
48.234,-54.1
48.250,-63.1
48.265,-70.7
48.281,-74.99
48.296,-74.12
48.312,-66.88
48.328,-53.12
48.343,-34.01
48.359,-11.79
48.375,10.77
48.390,31.18
48.406,47.74
48.421,59.82
48.437,67.66
48.453,72.04
48.468,73.8
48.484,73.72
48.500,72.47
48.515,70.71
48.531,69.17
48.546,68.53
48.562,69.21
48.578,71.22
48.593,74.17
48.609,77.3
48.625,79.82
48.640,81.19
48.656,81.3
48.671,80.48
48.687,79.34
48.703,78.59
48.718,78.74
48.734,80.04
48.750,82.41
48.765,85.62
48.781,89.48
48.796,94.0
48.812,99.35
48.828,105.72
48.843,112.91
48.859,120.05
48.875,125.49
48.890,127.1
48.906,122.86
48.921,111.55
48.937,93.17
48.953,68.86
48.968,40.48
48.984,10.04
49.000,-20.72
49.015,-50.27
49.031,-77.11
49.046,-99.57
49.062,-115.99
49.078,-125.16
49.093,-126.77
49.109,-121.69
49.125,-111.66
49.140,-98.73
49.156,-84.71
49.171,-70.9
49.187,-58.11
49.203,-46.93
49.218,-37.73
49.234,-30.71
49.250,-25.58
49.265,-21.62
49.281,-17.79
49.296,-13.19
49.312,-7.31
49.328,-0.31
49.343,7.12
49.359,14.02
49.375,19.46
49.390,22.79
49.406,23.79
49.421,22.75
49.437,20.36
49.453,17.59
49.468,15.42
49.484,14.44
49.500,14.69
49.515,15.58
49.531,16.22
49.546,15.7
49.562,13.34
49.578,8.89
49.593,2.45
49.609,-5.74
49.625,-15.42
49.640,-26.41
49.656,-38.67
49.671,-52.21
49.687,-67.15
49.703,-83.48
49.718,-100.89
49.734,-118.42
49.750,-134.3
49.765,-146.08
49.781,-151.08
49.796,-147.3
49.812,-134.07
49.828,-112.56
49.843,-85.5
49.859,-56.46
49.875,-28.82
49.890,-4.98
49.906,14.04
49.921,28.37
49.937,38.86
49.953,46.54
49.968,52.32
49.984,56.97
50.000,61.08
50.015,65.13
50.031,69.44
50.046,74.03
50.062,78.65
50.078,82.81
50.093,86.01
50.109,87.92
50.125,88.61
50.140,88.46
50.156,88.03
50.171,87.8
50.187,87.98
50.203,88.37
50.218,88.41
50.234,87.3
50.250,84.26
50.265,78.75
50.281,70.64
50.296,60.23
50.312,48.07
50.328,34.85
50.343,21.15
50.359,7.37
50.375,-6.32
50.390,-19.96
50.406,-33.72
50.421,-47.79
50.437,-62.38
50.453,-77.49
50.468,-92.8
50.484,-107.51
50.500,-120.36
50.515,-129.94
50.531,-135.02
50.546,-135.0
50.562,-130.05
50.578,-121.01
50.593,-108.96
50.609,-94.83
50.625,-79.14
50.640,-62.03
50.656,-43.58
50.671,-24.05
50.687,-4.05
50.703,15.36
50.718,32.93
50.734,47.43
50.750,57.97
50.765,64.21
50.781,66.49
50.796,65.73
50.812,63.22
50.828,60.26
50.843,57.82
50.859,56.36
50.875,55.8
50.890,55.72
50.906,55.55
50.921,54.81
50.937,53.17
50.953,50.5
50.968,46.86
50.984,42.56
51.000,38.1
51.015,34.17
51.031,31.51
51.046,30.8
51.062,32.55
51.078,36.99
51.093,43.95
51.109,52.85
51.125,62.66
51.140,72.09
51.156,79.81
51.171,84.82
51.187,86.73
51.203,85.76
51.218,82.62
51.234,78.12
51.250,72.95
51.265,67.46
51.281,61.81
51.296,55.97
51.312,49.98
51.328,43.83
51.343,37.45
51.359,30.62
51.375,22.98
51.390,14.25
51.406,4.35
51.421,-6.39
51.437,-17.32
51.453,-27.49
51.468,-36.0
51.484,-42.16
51.500,-45.61
51.515,-46.32
51.531,-44.64
51.546,-41.18
51.562,-36.67
51.578,-31.91
51.593,-27.6
51.609,-24.22
51.625,-22.02
51.640,-20.94
51.656,-20.73
51.671,-20.96
51.687,-21.19
51.703,-21.03
51.718,-20.29
51.734,-18.91
51.750,-17.04
51.765,-14.92
51.781,-12.88
51.796,-11.3
51.812,-10.69
51.828,-11.58
51.843,-14.49
51.859,-19.88
51.875,-28.0
51.890,-38.85
51.906,-52.12
51.921,-67.16
51.937,-82.89
51.953,-97.68
51.968,-109.45
51.984,-115.89
52.000,-114.98
52.015,-105.51
52.031,-87.68
52.046,-63.11
52.062,-34.6
52.078,-5.43
52.093,21.31
52.109,43.33
52.125,59.38
52.140,69.2
52.156,73.35
52.171,72.86
52.187,69.09
52.203,63.47
52.218,57.37
52.234,52.01
52.250,48.37
52.265,47.09
52.281,48.6
52.296,53.22
52.312,61.17
52.328,72.55
52.343,87.16
52.359,104.3
52.375,122.76
52.390,140.87
52.406,156.83
52.421,168.99
52.437,176.09
52.453,177.41
52.468,172.89
52.484,163.23
52.500,149.84
52.515,134.66
52.531,119.71
52.546,106.43
52.562,95.24
52.578,85.33
52.593,75.09
52.609,62.9
52.625,48.0
52.640,30.88
52.656,13.17
52.671,-3.04
52.687,-16.1
52.703,-25.35
52.718,-31.28
52.734,-35.1
52.750,-38.15
52.765,-41.39
52.781,-45.26
52.796,-49.92
52.812,-55.56
52.828,-62.67
52.843,-71.72
52.859,-82.79
52.875,-95.1
52.890,-107.08
52.906,-116.75
52.921,-122.47
52.937,-123.57
52.953,-120.5
52.968,-114.5
52.984,-107.03
53.000,-99.21
53.015,-91.63
53.031,-84.28
53.046,-76.94
53.062,-69.3
53.078,-61.16
53.093,-52.46
53.109,-43.38
53.125,-34.29
53.140,-25.76
53.156,-18.45
53.171,-12.89
53.187,-9.45
53.203,-8.28
53.218,-9.32
53.234,-12.24
53.250,-16.31
53.265,-20.43
53.281,-23.35
53.296,-24.27
53.312,-23.32
53.328,-21.88
53.343,-22.0
53.359,-25.37
53.375,-32.21
53.390,-40.79
53.406,-47.84
53.421,-49.99
53.437,-45.24
53.453,-33.87
53.468,-18.47
53.484,-2.78
53.500,9.55
53.515,16.26
53.531,16.91
53.546,12.61
53.562,5.24
53.578,-3.32
53.593,-11.78
53.609,-19.48
53.625,-26.24
53.640,-32.08
53.656,-37.07
53.671,-41.36
53.687,-45.19
53.703,-48.93
53.718,-52.82
53.734,-56.85
53.750,-60.61
53.765,-63.46
53.781,-64.84
53.796,-64.58
53.812,-63.16
53.828,-61.53
53.843,-60.76
53.859,-61.6
53.875,-64.13
53.890,-67.7
53.906,-71.27
53.921,-73.86
53.937,-75.02
53.953,-75.17
53.968,-75.51
53.984,-77.54
54.000,-82.36
54.015,-89.94
54.031,-98.86
54.046,-106.6
54.062,-110.38
54.078,-108.1
54.093,-99.19
54.109,-84.72
54.125,-66.95
54.140,-48.53
54.156,-31.55
54.171,-17.03
54.187,-5.08
54.203,4.73
54.218,12.74
54.234,18.96
54.250,23.11
54.265,24.95
54.281,24.59
54.296,22.64
54.312,20.17
54.328,18.47
54.343,18.75
54.359,21.8
54.375,27.79
54.390,36.22
54.406,46.02
54.421,55.84
54.437,64.28
54.453,70.09
54.468,72.31
54.484,70.41
54.500,64.4
54.515,54.96
54.531,43.43
54.546,31.63
54.562,21.32
54.578,13.73
54.593,9.23
54.609,7.46
54.625,7.83
54.640,9.99
54.656,14.06
54.671,20.32
54.687,28.55
54.703,37.67
54.718,45.8
54.734,51.08
54.750,52.59
54.765,50.83
54.781,47.49
54.796,44.32
54.812,42.06
54.828,39.97
54.843,36.34
54.859,29.43
54.875,18.38
54.890,3.37
54.906,-14.95
54.921,-36.12
54.937,-60.2
54.953,-87.27
54.968,-116.68
54.984,-146.56
55.000,-174.09
55.015,-196.32
55.031,-211.17
55.046,-218.0
55.062,-217.33
55.078,-210.38
55.093,-198.44
55.109,-182.74
55.125,-164.53
55.140,-145.36
55.156,-126.89
55.171,-110.63
55.187,-97.48
55.203,-87.58
55.218,-80.4
55.234,-75.11
55.250,-71.02
55.265,-67.65
55.281,-64.82
55.296,-62.38
55.312,-60.12
55.328,-57.86
55.343,-55.44
55.359,-53.04
55.375,-51.09
55.390,-50.3
55.406,-51.43
55.421,-55.08
55.437,-61.37
55.453,-69.8
55.468,-79.04
55.484,-87.1
55.500,-91.69
55.515,-90.84
55.531,-83.4
55.546,-69.52
55.562,-50.5
55.578,-28.42
55.593,-5.56
55.609,16.22
55.625,35.78
55.640,52.62
55.656,66.65
55.671,77.92
55.687,86.44
55.703,92.24
55.718,95.46
55.734,96.48
55.750,95.88
55.765,94.28
55.781,92.21
55.796,89.94
55.812,87.5
55.828,84.7
55.843,81.32
55.859,77.26
55.875,72.61
55.890,67.68
55.906,62.94
55.921,58.73
55.937,55.17
55.953,51.99
55.968,48.62
55.984,44.45
56.000,39.04
56.015,32.32
56.031,24.6
56.046,16.35
56.062,7.98
56.078,-0.31
56.093,-8.49
56.109,-16.57
56.125,-24.4
56.140,-31.64
56.156,-37.93
56.171,-42.95
56.187,-46.57
56.203,-48.72
56.218,-49.04
56.234,-46.71
56.250,-40.39
56.265,-28.54
56.281,-9.98
56.296,15.47
56.312,46.72
56.328,81.53
56.343,117.1
56.359,150.78
56.375,180.77
56.390,206.33
56.406,227.7
56.421,245.73
56.437,261.38
56.453,275.45
56.468,288.31
56.484,300.03
56.500,310.37
56.515,318.71
56.531,323.94
56.546,324.34
56.562,317.7
56.578,301.87
56.593,275.47
56.609,238.37
56.625,191.76
56.640,137.67
56.656,78.42
56.671,16.39
56.687,-45.85
56.703,-105.19
56.718,-157.84
56.734,-199.86
56.750,-228.12
56.765,-241.3
56.781,-240.27
56.796,-227.68
56.812,-206.89
56.828,-180.9
56.843,-151.91
56.859,-121.28
56.875,-90.07
56.890,-59.54
56.906,-31.59
56.921,-8.83
56.937,5.72
56.953,9.38
56.968,0.72
56.984,-19.58
57.000,-48.37
57.015,-80.58
57.031,-110.43
57.046,-132.79
57.062,-144.33
57.078,-144.01
57.093,-132.74
57.109,-112.84
57.125,-87.26
57.140,-59.15
57.156,-31.45
57.171,-6.65
57.187,13.49
57.203,28.08
57.218,37.16
57.234,41.57
57.250,42.64
57.265,41.93
57.281,40.99
57.296,41.05
57.312,42.82
57.328,46.45
57.343,51.52
57.359,57.26
57.375,62.86
57.390,67.74
57.406,71.64
57.421,74.57
57.437,76.64
57.453,77.94
57.468,78.45
57.484,78.1
57.500,76.93
57.515,75.1
57.531,72.99
57.546,71.02
57.562,69.62
57.578,69.08
57.593,69.57
57.609,71.1
57.625,73.68
57.640,77.29
57.656,81.83
57.671,87.03
57.687,92.32
57.703,96.78
57.718,99.37
57.734,99.19
57.750,95.79
57.765,89.38
57.781,80.82
57.796,71.5
57.812,62.99
57.828,56.71
57.843,53.74
57.859,54.58
57.875,59.19
57.890,66.99
57.906,77.0
57.921,87.91
57.937,98.1
57.953,105.77
57.968,109.15
57.984,106.74
58.000,97.77
58.015,82.47
58.031,62.1
58.046,38.61
58.062,14.11
58.078,-9.73
58.093,-31.93
58.109,-52.21
58.125,-70.55
58.140,-86.89
58.156,-100.86
58.171,-111.84
58.187,-119.1
58.203,-121.99
58.218,-119.99
58.234,-112.74
58.250,-100.07
58.265,-82.24
58.281,-60.26
58.296,-36.12
58.312,-12.65
58.328,7.08
58.343,20.54
58.359,26.58
58.375,25.69
58.390,19.72
58.406,11.11
58.421,2.09
58.437,-5.97
58.453,-12.59
58.468,-17.89
58.484,-22.26
58.500,-26.07
58.515,-29.6
58.531,-33.14
58.546,-36.99
58.562,-41.26
58.578,-45.69
58.593,-49.49
58.609,-51.51
58.625,-50.64
58.640,-46.28
58.656,-38.57
58.671,-28.38
58.687,-16.94
58.703,-5.44
58.718,5.22
58.734,14.49
58.750,22.0
58.765,27.37
58.781,30.21
58.796,30.25
58.812,27.41
58.828,21.97
58.843,14.49
58.859,5.64
58.875,-3.94
58.890,-13.73
58.906,-23.45
58.921,-33.26
58.937,-43.98
58.953,-56.98
58.968,-73.56
58.984,-94.1
59.000,-117.24
59.015,-139.7
59.031,-157.14
59.046,-165.69
59.062,-163.46
59.078,-151.15
59.093,-131.59
59.109,-108.21
59.125,-83.57
59.140,-58.64
59.156,-33.01
59.171,-5.98
59.187,22.48
59.203,51.27
59.218,78.66
59.234,103.01
59.250,123.59
59.265,140.79
59.281,155.88
59.296,170.66
59.312,186.9
59.328,205.98
59.343,228.49
59.359,253.62
59.375,278.77
59.390,299.66
59.406,311.26
59.421,309.38
59.437,292.35
59.453,261.58
59.468,221.2
59.484,176.36
59.500,131.35
59.515,88.44
59.531,47.76
59.546,8.08
59.562,-32.23
59.578,-74.38
59.593,-118.61
59.609,-163.84
59.625,-207.4
59.640,-245.3
59.656,-272.99
59.671,-286.84
59.687,-285.56
59.703,-270.82
59.718,-246.68
59.734,-218.17
59.750,-189.6
59.765,-163.68
59.781,-141.44
59.796,-122.98
59.812,-108.12
59.828,-96.68
59.843,-88.23
59.859,-81.83
59.875,-76.04
59.890,-69.32
59.906,-60.67
59.921,-50.17
59.937,-38.9
59.953,-28.66
59.968,-21.23
59.984,-17.7
