timestamp,value
00.000,56.11
00.015,53.34
00.031,49.81
00.046,45.7
00.062,41.2
00.078,36.36
00.093,30.98
00.109,24.62
00.125,16.75
00.140,7.07
00.156,-4.45
00.171,-17.49
00.187,-31.43
00.203,-45.48
00.218,-58.62
00.234,-69.61
00.250,-77.03
00.265,-79.57
00.281,-76.37
00.296,-67.44
00.312,-53.8
00.328,-37.36
00.343,-20.36
00.359,-4.73
00.375,8.37
00.390,18.75
00.406,26.94
00.421,33.79
00.437,40.06
00.453,46.18
00.468,52.21
00.484,57.95
00.500,63.07
00.515,67.17
00.531,69.92
00.546,71.02
00.562,70.34
00.578,67.91
00.593,63.96
00.609,58.9
00.625,53.27
00.640,47.66
00.656,42.43
00.671,37.66
00.687,33.01
00.703,27.86
00.718,21.56
00.734,13.7
00.750,4.35
00.765,-6.01
00.781,-16.6
00.796,-26.65
00.812,-35.68
00.828,-43.62
00.843,-50.86
00.859,-58.18
00.875,-66.57
00.890,-76.83
00.906,-89.14
00.921,-102.75
00.937,-115.85
00.953,-126.11
00.968,-131.36
00.984,-130.44
01.000,-123.57
01.015,-112.29
01.031,-98.73
01.046,-84.94
01.062,-72.33
01.078,-61.49
01.093,-52.45
01.109,-44.97
01.125,-38.89
01.140,-34.13
01.156,-30.71
01.171,-28.55
01.187,-27.42
01.203,-26.91
01.218,-26.51
01.234,-25.77
01.250,-24.47
01.265,-22.71
01.281,-20.91
01.296,-19.6
01.312,-19.18
01.328,-19.77
01.343,-21.17
01.359,-23.05
01.375,-25.25
01.390,-27.99
01.406,-31.84
01.421,-37.56
01.437,-45.71
01.453,-56.28
01.468,-68.56
01.484,-81.18
01.500,-92.42
01.515,-100.63
01.531,-104.72
01.546,-104.4
01.562,-100.35
01.578,-94.1
01.593,-87.65
01.609,-83.03
01.625,-81.73
01.640,-84.23
01.656,-89.8
01.671,-96.64
01.687,-102.32
01.703,-104.55
01.718,-101.88
01.734,-94.07
01.750,-82.21
01.765,-68.26
01.781,-54.39
01.796,-42.39
01.812,-33.18
01.828,-26.77
01.843,-22.51
01.859,-19.45
01.875,-16.66
01.890,-13.58
01.906,-9.93
01.921,-5.76
01.937,-1.32
01.953,3.02
01.968,7.0
01.984,10.52
02.000,13.75
02.015,17.13
02.031,21.2
02.046,26.38
02.062,32.84
02.078,40.51
02.093,49.15
02.109,58.46
02.125,68.09
02.140,77.58
02.156,86.43
02.171,94.1
02.187,100.24
02.203,104.77
02.218,107.87
02.234,109.9
02.250,111.06
02.265,111.36
02.281,110.54
02.296,108.31
02.312,104.46
02.328,99.06
02.343,92.43
02.359,85.0
02.375,77.26
02.390,69.63
02.406,62.41
02.421,55.81
02.437,49.92
02.453,44.79
02.468,40.45
02.484,36.98
02.500,34.32
02.515,32.34
02.531,30.72
02.546,29.1
02.562,27.07
02.578,24.41
02.593,21.07
02.609,17.23
02.625,13.17
02.640,9.24
02.656,5.69
02.671,2.72
02.687,0.33
02.703,-1.62
02.718,-3.46
02.734,-5.6
02.750,-8.38
02.765,-12.04
02.781,-16.59
02.796,-21.86
02.812,-27.58
02.828,-33.49
02.843,-39.36
02.859,-45.01
02.875,-50.25
02.890,-54.88
02.906,-58.73
02.921,-61.83
02.937,-64.43
02.953,-67.04
02.968,-70.32
02.984,-74.78
03.000,-80.6
03.015,-87.41
03.031,-94.36
03.046,-100.17
03.062,-103.46
03.078,-103.03
03.093,-98.1
03.109,-88.43
03.125,-74.47
03.140,-57.21
03.156,-38.09
03.171,-18.68
03.187,-0.45
03.203,15.56
03.218,28.8
03.234,39.23
03.250,47.22
03.265,53.34
03.281,58.2
03.296,62.36
03.312,66.18
03.328,69.85
03.343,73.32
03.359,76.47
03.375,79.16
03.390,81.39
03.406,83.42
03.421,85.67
03.437,88.56
03.453,92.24
03.468,96.51
03.484,100.85
03.500,104.52
03.515,106.86
03.531,107.4
03.546,105.88
03.562,102.22
03.578,96.46
03.593,88.74
03.609,79.41
03.625,69.02
03.640,58.19
03.656,47.36
03.671,36.57
03.687,25.37
03.703,13.12
03.718,-0.57
03.734,-15.43
03.750,-30.29
03.765,-43.39
03.781,-52.93
03.796,-57.8
03.812,-57.93
03.828,-54.27
03.843,-48.31
03.859,-41.53
03.875,-34.89
03.890,-28.69
03.906,-22.84
03.921,-17.11
03.937,-11.5
03.953,-6.28
03.968,-1.9
03.984,1.17
04.000,2.67
04.015,2.51
04.031,0.83
04.046,-2.14
04.062,-6.18
04.078,-11.07
04.093,-16.54
04.109,-22.25
04.125,-27.69
04.140,-32.27
04.156,-35.54
04.171,-37.3
04.187,-37.71
04.203,-37.25
04.218,-36.49
04.234,-35.84
04.250,-35.43
04.265,-35.09
04.281,-34.63
04.296,-34.02
04.312,-33.52
04.328,-33.76
04.343,-35.56
04.359,-39.73
04.375,-46.7
04.390,-56.38
04.406,-67.89
04.421,-79.68
04.437,-89.83
04.453,-96.58
04.468,-98.69
04.484,-95.88
04.500,-88.73
04.515,-78.45
04.531,-66.52
04.546,-54.26
04.562,-42.62
04.578,-32.13
04.593,-22.96
04.609,-14.99
04.625,-7.96
04.640,-1.53
04.656,4.61
04.671,10.62
04.687,16.6
04.703,22.46
04.718,28.05
04.734,33.21
04.750,37.85
04.765,41.96
04.781,45.66
04.796,49.1
04.812,52.4
04.828,55.51
04.843,58.18
04.859,60.0
04.875,60.54
04.890,59.54
04.906,57.05
04.921,53.46
04.937,49.33
04.953,45.27
04.968,41.63
04.984,38.33
05.000,34.8
05.015,30.03
05.031,22.91
05.046,12.57
05.062,-1.24
05.078,-17.87
05.093,-35.85
05.109,-53.12
05.125,-67.6
05.140,-77.59
05.156,-82.23
05.171,-81.52
05.187,-76.14
05.203,-67.1
05.218,-55.48
05.234,-42.1
05.250,-27.51
05.265,-12.08
05.281,3.89
05.296,20.02
05.312,35.63
05.328,49.75
05.343,61.17
05.359,68.69
05.375,71.57
05.390,69.84
05.406,64.49
05.421,57.24
05.437,50.03
05.453,44.45
05.468,41.21
05.484,40.12
05.500,40.26
05.515,40.44
05.531,39.6
05.546,37.02
05.562,32.34
05.578,25.6
05.593,17.18
05.609,7.78
05.625,-1.59
05.640,-9.87
05.656,-16.21
05.671,-20.25
05.687,-22.2
05.703,-22.7
05.718,-22.49
05.734,-22.13
05.750,-21.87
05.765,-21.76
05.781,-21.87
05.796,-22.46
05.812,-23.99
05.828,-26.95
05.843,-31.51
05.859,-37.28
05.875,-43.19
05.890,-47.66
05.906,-48.91
05.921,-45.43
05.937,-36.41
05.953,-21.96
05.968,-3.13
05.984,18.38
06.000,40.66
06.015,62.06
06.031,81.51
06.046,98.58
06.062,113.43
06.078,126.46
06.093,138.2
06.109,148.89
06.125,158.59
06.140,167.07
06.156,173.99
06.171,179.04
06.187,182.04
06.203,182.95
06.218,181.82
06.234,178.72
06.250,173.69
06.265,166.8
06.281,158.26
06.296,148.47
06.312,138.06
06.328,127.77
06.343,118.28
06.359,109.96
06.375,102.79
06.390,96.3
06.406,89.68
06.421,81.98
06.437,72.29
06.453,59.97
06.468,44.76
06.484,26.82
06.500,6.64
06.515,-14.99
06.531,-37.14
06.546,-58.84
06.562,-79.26
06.578,-97.91
06.593,-114.77
06.609,-130.31
06.625,-145.35
06.640,-160.79
06.656,-177.19
06.671,-194.69
06.687,-212.83
06.703,-230.64
06.718,-246.73
06.734,-259.51
06.750,-267.5
06.765,-269.68
06.781,-265.8
06.796,-256.48
06.812,-243.05
06.828,-227.07
06.843,-209.84
06.859,-192.02
06.875,-173.67
06.890,-154.42
06.906,-133.93
06.921,-112.22
06.937,-89.74
06.953,-67.35
06.968,-46.12
06.984,-27.03
07.000,-10.84
07.015,2.11
07.031,11.95
07.046,19.22
07.062,24.7
07.078,29.27
07.093,33.67
07.109,38.48
07.125,43.99
07.140,50.19
07.156,56.73
07.171,62.96
07.187,67.95
07.203,70.75
07.218,70.68
07.234,67.6
07.250,62.02
07.265,54.93
07.281,47.53
07.296,40.77
07.312,35.12
07.328,30.5
07.343,26.53
07.359,22.78
07.375,18.95
07.390,14.91
07.406,10.55
07.421,5.6
07.437,-0.27
07.453,-7.37
07.468,-15.76
07.484,-25.13
07.500,-34.89
07.515,-44.32
07.531,-52.7
07.546,-59.35
07.562,-63.54
07.578,-64.56
07.593,-61.83
07.609,-55.14
07.625,-44.88
07.640,-32.01
07.656,-17.78
07.671,-3.31
07.687,10.71
07.703,24.16
07.718,37.21
07.734,50.0
07.750,62.37
07.765,73.76
07.781,83.37
07.796,90.39
07.812,94.35
07.828,95.22
07.843,93.46
07.859,89.91
07.875,85.56
07.890,81.37
07.906,78.1
07.921,76.25
07.937,76.13
07.953,77.79
07.968,80.95
07.984,84.98
08.000,88.75
08.015,90.96
08.031,90.54
08.046,87.06
08.062,81.1
08.078,74.01
08.093,67.41
08.109,62.29
08.125,58.55
08.140,54.86
08.156,49.21
08.171,39.74
08.187,25.51
08.203,6.87
08.218,-14.65
08.234,-36.87
08.250,-57.54
08.265,-74.9
08.281,-87.95
08.296,-96.49
08.312,-100.98
08.328,-102.34
08.343,-101.55
08.359,-99.39
08.375,-96.24
08.390,-92.04
08.406,-86.47
08.421,-79.2
08.437,-70.15
08.453,-59.59
08.468,-48.07
08.484,-36.28
08.500,-24.83
08.515,-14.14
08.531,-4.33
08.546,4.65
08.562,12.78
08.578,19.71
08.593,24.72
08.609,26.75
08.625,24.8
08.640,18.39
08.656,7.9
08.671,-5.32
08.687,-19.17
08.703,-31.3
08.718,-39.79
08.734,-43.5
08.750,-42.32
08.765,-37.01
08.781,-28.79
08.796,-18.98
08.812,-8.76
08.828,0.95
08.843,9.4
08.859,15.96
08.875,20.22
08.890,22.13
08.906,21.99
08.921,20.53
08.937,18.55
08.953,16.69
08.968,15.16
08.984,13.73
09.000,11.86
09.015,9.06
09.031,4.97
09.046,-0.38
09.062,-6.58
09.078,-12.93
09.093,-18.65
09.109,-23.09
09.125,-26.0
09.140,-27.6
09.156,-28.47
09.171,-29.29
09.187,-30.56
09.203,-32.3
09.218,-34.07
09.234,-35.06
09.250,-34.33
09.265,-31.1
09.281,-24.97
09.296,-15.95
09.312,-4.51
09.328,8.59
09.343,22.55
09.359,36.56
09.375,49.95
09.390,62.23
09.406,73.01
09.421,82.02
09.437,89.03
09.453,93.87
09.468,96.46
09.484,96.85
09.500,95.22
09.515,91.96
09.531,87.59
09.546,82.68
09.562,77.7
09.578,72.95
09.593,68.54
09.609,64.56
09.625,61.14
09.640,58.51
09.656,56.93
09.671,56.53
09.687,57.07
09.703,58.0
09.718,58.53
09.734,57.83
09.750,55.3
09.765,50.61
09.781,43.75
09.796,34.97
09.812,24.61
09.828,13.03
09.843,0.6
09.859,-12.31
09.875,-25.33
09.890,-38.02
09.906,-50.06
09.921,-61.3
09.937,-71.82
09.953,-81.91
09.968,-91.93
09.984,-102.04
10.000,-112.02
10.015,-121.25
10.031,-128.79
10.046,-133.73
10.062,-135.5
10.078,-133.97
10.093,-129.38
10.109,-121.95
10.125,-111.71
10.140,-98.4
10.156,-81.81
10.171,-62.14
10.187,-40.39
10.203,-18.26
10.218,2.26
10.234,19.5
10.250,32.61
10.265,41.68
10.281,47.45
10.296,50.81
10.312,52.41
10.328,52.56
10.343,51.27
10.359,48.56
10.375,44.63
10.390,39.85
10.406,34.64
10.421,29.33
10.437,24.11
10.453,19.04
10.468,14.2
10.484,9.72
10.500,5.78
10.515,2.58
10.531,0.26
10.546,-1.22
10.562,-1.97
10.578,-2.23
10.593,-2.32
10.609,-2.67
10.625,-3.73
10.640,-5.79
10.656,-8.82
10.671,-12.4
10.687,-15.8
10.703,-18.28
10.718,-19.48
10.734,-19.54
10.750,-19.09
10.765,-18.93
10.781,-19.7
10.796,-21.68
10.812,-24.75
10.828,-28.58
10.843,-32.85
10.859,-37.39
10.875,-42.13
10.890,-47.07
10.906,-52.18
10.921,-57.46
10.937,-62.89
10.953,-68.41
10.968,-73.8
10.984,-78.52
11.000,-81.77
11.015,-82.55
11.031,-80.06
11.046,-73.98
11.062,-64.59
11.078,-52.75
11.093,-39.58
11.109,-26.18
11.125,-13.34
11.140,-1.56
11.156,8.93
11.171,17.98
11.187,25.43
11.203,31.15
11.218,35.07
11.234,37.35
11.250,38.41
11.265,38.79
11.281,39.08
11.296,39.74
11.312,40.92
11.328,42.55
11.343,44.41
11.359,46.24
11.375,47.88
11.390,49.3
11.406,50.5
11.421,51.43
11.437,52.01
11.453,52.12
11.468,51.73
11.484,50.97
11.500,50.11
11.515,49.52
11.531,49.44
11.546,49.9
11.562,50.74
11.578,51.74
11.593,52.77
11.609,54.01
11.625,55.84
11.640,58.75
11.656,63.08
11.671,68.94
11.687,76.09
11.703,84.04
11.718,92.1
11.734,99.52
11.750,105.56
11.765,109.61
11.781,111.29
11.796,110.53
11.812,107.6
11.828,103.0
11.843,97.22
11.859,90.63
11.875,83.29
11.890,75.06
11.906,65.72
11.921,55.18
11.937,43.62
11.953,31.55
11.968,19.68
11.984,8.79
12.000,-0.56
12.015,-8.21
12.031,-14.51
12.046,-20.09
12.062,-25.69
12.078,-31.65
12.093,-37.7
12.109,-42.93
12.125,-46.06
12.140,-45.94
12.156,-41.97
12.171,-34.43
12.187,-24.36
12.203,-13.35
12.218,-3.19
12.234,4.52
12.250,8.51
12.265,8.03
12.281,2.92
12.296,-6.32
12.312,-18.58
12.328,-32.26
12.343,-45.66
12.359,-57.31
12.375,-66.25
12.390,-72.25
12.406,-75.8
12.421,-77.98
12.437,-80.21
12.453,-83.89
12.468,-90.01
12.484,-98.72
12.500,-109.15
12.515,-119.58
12.531,-128.0
12.546,-132.82
12.562,-133.55
12.578,-130.89
12.593,-126.4
12.609,-121.92
12.625,-118.87
12.640,-117.98
12.656,-119.28
12.671,-122.28
12.687,-126.09
12.703,-129.55
12.718,-131.18
12.734,-129.45
12.750,-123.08
12.765,-111.51
12.781,-95.15
12.796,-75.27
12.812,-53.62
12.828,-31.87
12.843,-11.24
12.859,7.62
12.875,24.49
12.890,39.39
12.906,52.38
12.921,63.5
12.937,72.78
12.953,80.31
12.968,86.33
12.984,91.19
13.000,95.39
13.015,99.35
13.031,103.27
13.046,106.95
13.062,109.74
13.078,110.71
13.093,108.99
13.109,104.14
13.125,96.35
13.140,86.42
13.156,75.46
13.171,64.56
13.187,54.58
13.203,46.02
13.218,39.07
13.234,33.65
13.250,29.35
13.265,25.52
13.281,21.32
13.296,16.01
13.312,9.1
13.328,0.66
13.343,-8.76
13.359,-18.29
13.375,-27.12
13.390,-34.72
13.406,-41.05
13.421,-46.49
13.437,-51.72
13.453,-57.45
13.468,-64.27
13.484,-72.53
13.500,-82.3
13.515,-93.35
13.531,-105.12
13.546,-116.7
13.562,-126.86
13.578,-134.18
13.593,-137.32
13.609,-135.38
13.625,-128.11
13.640,-116.02
13.656,-100.18
13.671,-81.83
13.687,-62.07
13.703,-41.69
13.718,-21.2
13.734,-1.03
13.750,18.31
13.765,36.16
13.781,51.9
13.796,65.11
13.812,75.72
13.828,84.0
13.843,90.3
13.859,94.91
13.875,97.88
13.890,99.09
13.906,98.46
13.921,96.17
13.937,92.68
13.953,88.74
13.968,85.05
13.984,82.01
14.000,79.64
14.015,77.62
14.031,75.45
14.046,72.67
14.062,68.95
14.078,64.13
14.093,58.19
14.109,51.28
14.125,43.61
14.140,35.55
14.156,27.48
14.171,19.74
14.187,12.54
14.203,5.9
14.218,-0.29
14.234,-6.13
14.250,-11.74
14.265,-17.27
14.281,-22.93
14.296,-29.02
14.312,-35.79
14.328,-43.26
14.343,-51.16
14.359,-58.91
14.375,-65.78
14.390,-71.04
14.406,-74.11
14.421,-74.6
14.437,-72.28
14.453,-67.2
14.468,-59.8
14.484,-51.03
14.500,-42.23
14.515,-34.82
14.531,-29.82
14.546,-27.48
14.562,-27.17
14.578,-27.7
14.593,-27.71
14.609,-26.19
14.625,-22.54
14.640,-16.65
14.656,-8.68
14.671,1.06
14.687,12.16
14.703,24.01
14.718,35.79
14.734,46.55
14.750,55.38
14.765,61.68
14.781,65.36
14.796,66.85
14.812,66.95
14.828,66.46
14.843,65.86
14.859,64.99
14.875,63.17
14.890,59.42
14.906,52.94
14.921,43.5
14.937,31.63
14.953,18.42
14.968,5.21
14.984,-6.86
15.000,-17.1
15.015,-25.31
15.031,-31.69
15.046,-36.69
15.062,-40.82
15.078,-44.66
15.093,-48.66
15.109,-53.21
15.125,-58.46
15.140,-64.41
15.156,-70.88
15.171,-77.57
15.187,-84.05
15.203,-89.6
15.218,-93.26
15.234,-93.88
15.250,-90.46
15.265,-82.63
15.281,-70.95
15.296,-56.94
15.312,-42.58
15.328,-29.68
15.343,-19.19
15.359,-11.08
15.375,-4.45
15.390,1.76
15.406,8.33
15.421,15.39
15.437,22.48
15.453,28.86
15.468,33.91
15.484,37.35
15.500,39.26
15.515,40.0
15.531,39.9
15.546,39.14
15.562,37.71
15.578,35.51
15.593,32.57
15.609,29.17
15.625,25.85
15.640,23.21
15.656,21.62
15.671,21.0
15.687,20.83
15.703,20.3
15.718,18.79
15.734,16.07
15.750,12.44
15.765,8.58
15.781,5.21
15.796,2.72
15.812,1.11
15.828,0.04
15.843,-0.94
15.859,-2.16
15.875,-3.73
15.890,-5.68
15.906,-8.13
15.921,-11.31
15.937,-15.58
15.953,-21.22
15.968,-28.24
15.984,-36.37
16.000,-45.1
16.015,-53.77
16.031,-61.73
16.046,-68.26
16.062,-72.66
16.078,-74.25
16.093,-72.55
16.109,-67.41
16.125,-59.17
16.140,-48.56
16.156,-36.4
16.171,-23.4
16.187,-9.9
16.203,4.16
16.218,18.99
16.234,34.71
16.250,51.03
16.265,67.05
16.281,81.4
16.296,92.59
16.312,99.44
16.328,101.61
16.343,99.74
16.359,95.35
16.375,90.33
16.390,86.31
16.406,84.23
16.421,84.09
16.437,85.13
16.453,86.02
16.468,85.19
16.484,81.03
16.500,72.23
16.515,58.24
16.531,39.73
16.546,18.79
16.562,-1.39
16.578,-17.47
16.593,-27.14
16.609,-30.01
16.625,-27.73
16.640,-23.2
16.656,-19.28
16.671,-17.72
16.687,-18.78
16.703,-21.55
16.718,-24.77
16.734,-27.53
16.750,-29.47
16.765,-30.66
16.781,-31.21
16.796,-31.08
16.812,-30.15
16.828,-28.36
16.843,-25.78
16.859,-22.51
16.875,-18.48
16.890,-13.31
16.906,-6.42
16.921,2.71
16.937,14.29
16.953,28.06
16.968,43.36
16.984,59.26
17.000,74.78
17.015,89.0
17.031,101.21
17.046,110.88
17.062,117.71
17.078,121.64
17.093,122.8
17.109,121.5
17.125,118.22
17.140,113.54
17.156,108.08
17.171,102.38
17.187,96.72
17.203,91.02
17.218,84.94
17.234,78.09
17.250,70.24
17.265,61.47
17.281,52.13
17.296,42.58
17.312,33.03
17.328,23.44
17.343,13.7
17.359,3.86
17.375,-5.72
17.390,-14.53
17.406,-22.15
17.421,-28.62
17.437,-34.58
17.453,-41.06
17.468,-49.11
17.484,-59.36
17.500,-71.78
17.515,-85.66
17.531,-99.96
17.546,-113.64
17.562,-125.95
17.578,-136.56
17.593,-145.53
17.609,-153.18
17.625,-159.93
17.640,-166.09
17.656,-171.76
17.671,-176.59
17.687,-179.81
17.703,-180.19
17.718,-176.4
17.734,-167.28
17.750,-152.3
17.765,-131.74
17.781,-106.75
17.796,-79.05
17.812,-50.5
17.828,-22.68
17.843,3.32
17.859,26.91
17.875,47.8
17.890,65.72
17.906,80.34
17.921,91.29
17.937,98.41
17.953,101.89
17.968,102.38
17.984,100.76
18.000,97.92
18.015,94.46
18.031,90.6
18.046,86.25
18.062,81.25
18.078,75.6
18.093,69.47
18.109,63.15
18.125,56.87
18.140,50.6
18.156,44.09
18.171,36.99
18.187,29.06
18.203,20.36
18.218,11.26
18.234,2.35
18.250,-5.76
18.265,-12.52
18.281,-17.6
18.296,-20.84
18.312,-22.43
18.328,-22.89
18.343,-23.13
18.359,-24.32
18.375,-27.59
18.390,-33.66
18.406,-42.57
18.421,-53.57
18.437,-65.34
18.453,-76.32
18.468,-85.02
18.484,-90.27
18.500,-91.35
18.515,-88.0
18.531,-80.51
18.546,-69.67
18.562,-56.72
18.578,-43.07
18.593,-30.02
18.609,-18.42
18.625,-8.58
18.640,-0.23
18.656,7.24
18.671,14.55
18.687,22.28
18.703,30.66
18.718,39.57
18.734,48.51
18.750,56.77
18.765,63.6
18.781,68.44
18.796,71.08
18.812,71.62
18.828,70.45
18.843,68.01
18.859,64.64
18.875,60.4
18.890,55.03
18.906,48.06
18.921,39.04
18.937,27.77
18.953,14.49
18.968,-0.12
18.984,-14.99
19.000,-28.98
19.015,-41.04
19.031,-50.49
19.046,-57.0
19.062,-60.68
19.078,-61.91
19.093,-61.29
19.109,-59.51
19.125,-57.3
19.140,-55.34
19.156,-54.25
19.171,-54.53
19.187,-56.47
19.203,-59.96
19.218,-64.45
19.234,-68.87
19.250,-71.79
19.265,-71.76
19.281,-67.7
19.296,-59.26
19.312,-47.01
19.328,-32.32
19.343,-17.02
19.359,-2.86
19.375,8.97
19.390,18.14
19.406,25.12
19.421,30.84
19.437,36.24
19.453,41.77
19.468,47.32
19.484,52.21
19.500,55.58
19.515,56.71
19.531,55.3
19.546,51.57
19.562,46.19
19.578,40.08
19.593,34.24
19.609,29.56
19.625,26.69
19.640,25.99
19.656,27.46
19.671,30.77
19.687,35.26
19.703,40.06
19.718,44.22
19.734,46.9
19.750,47.64
19.765,46.44
19.781,43.83
19.796,40.59
19.812,37.49
19.828,34.97
19.843,33.08
19.859,31.63
19.875,30.43
19.890,29.62
19.906,29.63
19.921,30.93
19.937,33.72
19.953,37.61
19.968,41.77
19.984,45.12
20.000,46.86
20.015,46.72
20.031,45.01
20.046,42.36
20.062,39.46
20.078,36.76
20.093,34.44
20.109,32.45
20.125,30.57
20.140,28.41
20.156,25.48
20.171,21.25
20.187,15.34
20.203,7.87
20.218,-0.47
20.234,-8.42
20.250,-14.61
20.265,-18.01
20.281,-18.36
20.296,-16.19
20.312,-12.6
20.328,-8.79
20.343,-5.62
20.359,-3.53
20.375,-2.58
20.390,-2.65
20.406,-3.62
20.421,-5.45
20.437,-8.06
20.453,-11.23
20.468,-14.56
20.484,-17.57
20.500,-19.84
20.515,-21.22
20.531,-21.94
20.546,-22.66
20.562,-24.3
20.578,-27.73
20.593,-33.48
20.609,-41.48
20.625,-51.02
20.640,-60.99
20.656,-70.19
20.671,-77.73
20.687,-83.27
20.703,-87.14
20.718,-90.29
20.734,-94.08
20.750,-99.94
20.765,-108.86
20.781,-120.85
20.796,-134.65
20.812,-147.69
20.828,-156.65
20.843,-158.41
20.859,-151.04
20.875,-134.47
20.890,-110.56
20.906,-82.49
20.921,-53.81
20.937,-27.5
20.953,-5.38
20.968,11.99
20.984,25.03
21.000,34.75
21.015,42.34
21.031,48.97
21.046,55.69
21.062,63.26
21.078,72.09
21.093,82.18
21.109,93.1
21.125,104.08
21.140,114.22
21.156,122.68
21.171,128.77
21.187,132.14
21.203,132.73
21.218,130.85
21.234,126.99
21.250,121.7
21.265,115.36
21.281,108.05
21.296,99.6
21.312,89.71
21.328,78.37
21.343,65.92
21.359,53.0
21.375,40.28
21.390,28.07
21.406,16.26
21.421,4.42
21.437,-7.81
21.453,-20.49
21.468,-33.18
21.484,-45.25
21.500,-56.04
21.515,-65.17
21.531,-72.43
21.546,-77.76
21.562,-80.99
21.578,-81.93
21.593,-80.5
21.609,-76.85
21.625,-71.56
21.640,-65.44
21.656,-59.23
21.671,-53.32
21.687,-47.54
21.703,-41.18
21.718,-33.3
21.734,-23.13
21.750,-10.48
21.765,4.11
21.781,19.43
21.796,33.93
21.812,46.2
21.828,55.34
21.843,61.24
21.859,64.5
21.875,66.17
21.890,67.4
21.906,69.07
21.921,71.61
21.937,74.96
21.953,78.58
21.968,81.67
21.984,83.23
22.000,82.31
22.015,78.07
22.031,70.05
22.046,58.28
22.062,43.35
22.078,26.43
22.093,8.99
22.109,-7.52
22.125,-21.98
22.140,-33.89
22.156,-43.44
22.171,-51.39
22.187,-58.83
22.203,-66.71
22.218,-75.6
22.234,-85.42
22.250,-95.39
22.265,-104.2
22.281,-110.25
22.296,-112.15
22.312,-108.95
22.328,-100.51
22.343,-87.44
22.359,-71.01
22.375,-52.83
22.390,-34.56
22.406,-17.59
22.421,-2.94
22.437,8.86
22.453,17.8
22.468,24.25
22.484,28.87
22.500,32.36
22.515,35.31
22.531,38.0
22.546,40.39
22.562,42.2
22.578,43.13
22.593,42.94
22.609,41.49
22.625,38.64
22.640,34.26
22.656,28.34
22.671,21.17
22.687,13.56
22.703,6.86
22.718,2.67
22.734,2.32
22.750,6.23
22.765,13.69
22.781,22.86
22.796,31.32
22.812,36.94
22.828,38.44
22.843,35.77
22.859,29.92
22.875,22.42
22.890,14.77
22.906,8.07
22.921,2.83
22.937,-0.96
22.953,-3.84
22.968,-6.72
22.984,-10.8
23.000,-17.13
23.015,-26.13
23.031,-37.18
23.046,-48.43
23.062,-57.33
23.078,-61.36
23.093,-59.04
23.109,-50.37
23.125,-36.76
23.140,-20.39
23.156,-3.38
23.171,12.79
23.187,27.31
23.203,39.86
23.218,50.13
23.234,57.73
23.250,62.29
23.265,63.86
23.281,63.06
23.296,61.17
23.312,59.66
23.328,59.69
23.343,61.58
23.359,64.75
23.375,67.95
23.390,69.83
23.406,69.36
23.421,66.08
23.437,60.04
23.453,51.59
23.468,41.06
23.484,28.74
23.500,14.89
23.515,-0.17
23.531,-15.99
23.546,-32.11
23.562,-48.19
23.578,-64.07
23.593,-79.81
23.609,-95.5
23.625,-111.17
23.640,-126.66
23.656,-141.66
23.671,-155.75
23.687,-168.5
23.703,-179.48
23.718,-188.25
23.734,-194.32
23.750,-197.15
23.765,-196.15
23.781,-190.86
23.796,-181.03
23.812,-166.76
23.828,-148.53
23.843,-127.14
23.859,-103.61
23.875,-78.99
23.890,-54.19
23.906,-29.93
23.921,-6.76
23.937,14.89
23.953,34.59
23.968,51.88
23.984,66.28
24.000,77.53
24.015,85.64
24.031,91.02
24.046,94.35
24.062,96.42
24.078,97.9
24.093,99.2
24.109,100.43
24.125,101.46
24.140,102.07
24.156,102.01
24.171,101.12
24.187,99.29
24.203,96.5
24.218,92.83
24.234,88.48
24.250,83.77
24.265,79.09
24.281,74.85
24.296,71.29
24.312,68.5
24.328,66.32
24.343,64.48
24.359,62.71
24.375,60.81
24.390,58.81
24.406,56.75
24.421,54.73
24.437,52.71
24.453,50.59
24.468,48.28
24.484,45.79
24.500,43.27
24.515,40.91
24.531,38.93
24.546,37.38
24.562,36.23
24.578,35.35
24.593,34.58
24.609,33.73
24.625,32.55
24.640,30.75
24.656,28.11
24.671,24.63
24.687,20.55
24.703,16.35
24.718,12.49
24.734,9.24
24.750,6.52
24.765,4.0
24.781,1.31
24.796,-1.76
24.812,-5.14
24.828,-8.65
24.843,-12.1
24.859,-15.44
24.875,-18.78
24.890,-22.27
24.906,-26.02
24.921,-29.98
24.937,-33.9
24.953,-37.41
24.968,-40.2
24.984,-42.13
25.000,-43.41
25.015,-44.66
25.031,-46.67
25.046,-50.14
25.062,-55.37
25.078,-62.0
25.093,-69.2
25.109,-75.95
25.125,-81.52
25.140,-85.71
25.156,-88.85
25.171,-91.65
25.187,-94.86
25.203,-99.15
25.218,-104.93
25.234,-112.21
25.250,-120.41
25.265,-128.19
25.281,-133.51
25.296,-134.12
25.312,-128.21
25.328,-115.2
25.343,-95.95
25.359,-72.48
25.375,-47.21
25.390,-22.13
25.406,1.6
25.421,23.45
25.437,43.03
25.453,59.62
25.468,72.11
25.484,79.46
25.500,81.24
25.515,78.11
25.531,71.66
25.546,63.93
25.562,56.7
25.578,51.01
25.593,47.02
25.609,44.16
25.625,41.5
25.640,38.13
25.656,33.48
25.671,27.54
25.687,20.98
25.703,15.02
25.718,11.08
25.734,10.22
25.750,12.75
25.765,18.03
25.781,24.67
25.796,31.05
25.812,35.78
25.828,38.04
25.843,37.53
25.859,34.28
25.875,28.46
25.890,20.27
25.906,9.92
25.921,-2.33
25.937,-16.26
25.953,-31.71
25.968,-48.55
25.984,-66.39
26.000,-84.29
26.015,-100.52
26.031,-112.92
26.046,-119.43
26.062,-118.91
26.078,-111.6
26.093,-99.03
26.109,-83.38
26.125,-66.61
26.140,-49.94
26.156,-33.66
26.171,-17.57
26.187,-1.52
26.203,14.28
26.218,29.15
26.234,42.37
26.250,53.38
26.265,61.98
26.281,68.3
26.296,72.6
26.312,75.16
26.328,76.24
26.343,76.17
26.359,75.33
26.375,74.18
26.390,73.14
26.406,72.4
26.421,71.84
26.437,70.99
26.453,69.16
26.468,65.68
26.484,60.17
26.500,52.68
26.515,43.73
26.531,34.11
26.546,24.59
26.562,15.64
26.578,7.37
26.593,-0.45
26.609,-8.19
26.625,-16.22
26.640,-24.8
26.656,-34.07
26.671,-44.12
26.687,-54.97
26.703,-66.58
26.718,-78.75
26.734,-90.99
26.750,-102.47
26.765,-111.98
26.781,-118.07
26.796,-119.37
26.812,-114.96
26.828,-104.75
26.843,-89.69
26.859,-71.53
26.875,-52.39
26.890,-34.11
26.906,-17.8
26.921,-3.64
26.937,8.89
26.953,20.55
26.968,31.87
26.984,42.83
27.000,52.89
27.015,61.21
27.031,67.0
27.046,69.86
27.062,69.88
27.078,67.48
27.093,63.31
27.109,58.0
27.125,52.07
27.140,46.03
27.156,40.33
27.171,35.5
27.187,31.99
27.203,30.08
27.218,29.71
27.234,30.44
27.250,31.58
27.265,32.29
27.281,31.82
27.296,29.56
27.312,25.14
27.328,18.45
27.343,9.7
27.359,-0.61
27.375,-11.64
27.390,-22.42
27.406,-31.97
27.421,-39.69
27.437,-45.45
27.453,-49.68
27.468,-53.16
27.484,-56.73
27.500,-60.92
27.515,-65.64
27.531,-70.13
27.546,-73.12
27.562,-73.18
27.578,-69.14
27.593,-60.44
27.609,-47.33
27.625,-30.77
27.640,-12.2
27.656,6.74
27.671,24.44
27.687,39.48
27.703,50.81
27.718,57.91
27.734,60.91
27.750,60.57
27.765,57.97
27.781,54.23
27.796,50.14
27.812,46.1
27.828,42.35
27.843,39.15
27.859,36.87
27.875,35.78
27.890,35.85
27.906,36.65
27.921,37.53
27.937,37.98
27.953,37.91
27.968,37.57
27.984,37.26
28.000,36.99
28.015,36.27
28.031,34.38
28.046,30.7
28.062,25.04
28.078,17.72
28.093,9.24
28.109,0.1
28.125,-9.44
28.140,-19.28
28.156,-29.26
28.171,-39.02
28.187,-47.99
28.203,-55.58
28.218,-61.38
28.234,-65.48
28.250,-68.46
28.265,-71.29
28.281,-75.05
28.296,-80.49
28.312,-87.6
28.328,-95.47
28.343,-102.36
28.359,-106.19
28.375,-105.16
28.390,-98.4
28.406,-86.17
28.421,-69.76
28.437,-50.96
28.453,-31.56
28.468,-12.92
28.484,4.14
28.500,19.34
28.515,32.71
28.531,44.58
28.546,55.45
28.562,65.81
28.578,75.99
28.593,85.97
28.609,95.3
28.625,103.26
28.640,109.19
28.656,112.73
28.671,113.98
28.687,113.39
28.703,111.56
28.718,109.05
28.734,106.28
28.750,103.59
28.765,101.19
28.781,99.17
28.796,97.39
28.812,95.41
28.828,92.59
28.843,88.34
28.859,82.3
28.875,74.58
28.890,65.72
28.906,56.51
28.921,47.7
28.937,39.83
28.953,33.04
28.968,27.2
28.984,21.98
29.000,17.02
29.015,12.0
29.031,6.6
29.046,0.53
29.062,-6.65
29.078,-15.52
29.093,-26.82
29.109,-41.21
29.125,-58.85
29.140,-78.9
29.156,-99.22
29.171,-116.62
29.187,-127.6
29.203,-129.45
29.218,-121.07
29.234,-103.43
29.250,-79.13
29.265,-51.55
29.281,-23.98
29.296,1.12
29.312,22.31
29.328,39.08
29.343,51.54
29.359,60.23
29.375,65.77
29.390,68.72
29.406,69.44
29.421,68.1
29.437,64.98
29.453,60.68
29.468,56.27
29.484,53.16
29.500,52.69
29.515,55.72
29.531,62.35
29.546,71.96
29.562,83.49
29.578,95.8
29.593,108.0
29.609,119.52
29.625,130.04
29.640,139.3
29.656,146.8
29.671,151.78
29.687,153.15
29.703,149.77
29.718,140.63
29.734,125.21
29.750,103.6
29.765,76.53
29.781,45.27
29.796,11.48
29.812,-22.98
29.828,-56.21
29.843,-86.48
29.859,-112.5
29.875,-133.48
29.890,-149.28
29.906,-160.33
29.921,-167.52
29.937,-172.03
29.953,-175.11
29.968,-177.93
29.984,-181.21
30.000,-185.07
30.015,-188.77
30.031,-190.89
30.046,-189.79
30.062,-184.23
30.078,-173.87
30.093,-159.49
30.109,-142.68
30.125,-125.13
30.140,-108.01
30.156,-91.67
30.171,-75.84
30.187,-60.16
30.203,-44.73
30.218,-30.25
30.234,-17.68
30.250,-7.73
30.265,-0.36
30.281,5.27
30.296,10.4
30.312,16.09
30.328,22.66
30.343,29.71
30.359,36.24
30.375,41.39
30.390,44.68
30.406,46.29
30.421,46.81
30.437,46.9
30.453,46.96
30.468,46.99
30.484,46.71
30.500,45.73
30.515,43.79
30.531,40.87
30.546,37.16
30.562,32.95
30.578,28.46
30.593,23.8
30.609,18.9
30.625,13.67
30.640,8.14
30.656,2.54
30.671,-2.77
30.687,-7.47
30.703,-11.53
30.718,-15.37
30.734,-19.74
30.750,-25.44
30.765,-32.91
30.781,-41.9
30.796,-51.46
30.812,-60.17
30.828,-66.57
30.843,-69.45
30.859,-68.22
30.875,-62.9
30.890,-54.17
30.906,-43.13
30.921,-31.06
30.937,-19.13
30.953,-8.11
30.968,1.71
30.984,10.42
31.000,18.25
31.015,25.34
31.031,31.68
31.046,37.15
31.062,41.64
31.078,45.18
31.093,47.89
31.109,49.86
31.125,51.09
31.140,51.42
31.156,50.76
31.171,49.14
31.187,46.82
31.203,44.17
31.218,41.57
31.234,39.23
31.250,37.19
31.265,35.34
31.281,33.54
31.296,31.55
31.312,29.15
31.328,26.05
31.343,22.1
31.359,17.33
31.375,11.97
31.390,6.45
31.406,1.15
31.421,-3.73
31.437,-8.3
31.453,-12.83
31.468,-17.54
31.484,-22.46
31.500,-27.31
31.515,-31.8
31.531,-35.79
31.546,-39.44
31.562,-43.2
31.578,-47.5
31.593,-52.64
31.609,-58.63
31.625,-65.22
31.640,-71.85
31.656,-77.77
31.671,-82.0
31.687,-83.45
31.703,-81.18
31.718,-74.75
31.734,-64.46
31.750,-51.27
31.765,-36.47
31.781,-21.13
31.796,-5.77
31.812,9.65
31.828,25.41
31.843,41.58
31.859,57.77
31.875,73.12
31.890,86.58
31.906,97.19
31.921,104.35
31.937,107.85
31.953,107.84
31.968,104.84
31.984,99.71
32.000,93.57
32.015,87.69
32.031,83.19
32.046,80.71
32.062,80.32
32.078,81.46
32.093,83.26
32.109,84.8
32.125,85.35
32.140,84.52
32.156,82.2
32.171,78.53
32.187,73.83
32.203,68.53
32.218,63.16
32.234,58.2
32.250,53.99
32.265,50.58
32.281,47.68
32.296,44.7
32.312,40.95
32.328,35.81
32.343,28.83
32.359,19.75
32.375,8.44
32.390,-5.09
32.406,-20.77
32.421,-38.28
32.437,-57.13
32.453,-76.58
32.468,-95.78
32.484,-113.79
32.500,-129.62
32.515,-142.15
32.531,-150.14
32.546,-152.38
32.562,-147.97
32.578,-136.76
32.593,-119.58
32.609,-98.23
32.625,-75.06
32.640,-52.4
32.656,-32.0
32.671,-14.78
32.687,-0.94
32.703,9.81
32.718,17.85
32.734,23.47
32.750,26.83
32.765,28.08
32.781,27.43
32.796,25.23
32.812,22.03
32.828,18.41
32.843,15.01
32.859,12.29
32.875,10.54
32.890,9.76
32.906,9.75
32.921,10.11
32.937,10.48
32.953,10.58
32.968,10.26
32.984,9.44
33.000,8.04
33.015,5.92
33.031,3.01
33.046,-0.59
33.062,-4.57
33.078,-8.42
33.093,-11.68
33.109,-14.13
33.125,-15.87
33.140,-17.41
33.156,-19.36
33.171,-22.24
33.187,-26.2
33.203,-31.0
33.218,-36.04
33.234,-40.58
33.250,-44.08
33.265,-46.31
33.281,-47.52
33.296,-48.27
33.312,-49.4
33.328,-51.69
33.343,-55.68
33.359,-61.39
33.375,-68.23
33.390,-74.94
33.406,-79.78
33.421,-80.96
33.437,-77.15
33.453,-67.99
33.468,-54.26
33.484,-37.69
33.500,-20.41
33.515,-4.32
33.531,9.35
33.546,20.21
33.562,28.48
33.578,34.76
33.593,39.67
33.609,43.67
33.625,47.12
33.640,50.27
33.656,53.3
33.671,56.3
33.687,59.24
33.703,61.97
33.718,64.3
33.734,66.09
33.750,67.38
33.765,68.37
33.781,69.5
33.796,71.27
33.812,74.13
33.828,78.29
33.843,83.64
33.859,89.77
33.875,96.1
33.890,102.01
33.906,106.9
33.921,110.32
33.937,111.93
33.953,111.47
33.968,108.79
33.984,103.84
34.000,96.63
34.015,87.34
34.031,76.36
34.046,64.3
34.062,51.96
34.078,40.22
34.093,29.76
34.109,20.7
34.125,12.44
34.140,3.72
34.156,-6.92
34.171,-20.39
34.187,-36.44
34.203,-53.52
34.218,-69.26
34.234,-81.32
34.250,-88.31
34.265,-90.3
34.281,-88.63
34.296,-85.26
34.312,-81.95
34.328,-79.82
34.343,-79.17
34.359,-79.72
34.375,-80.9
34.390,-82.06
34.406,-82.63
34.421,-82.18
34.437,-80.56
34.453,-77.89
34.468,-74.59
34.484,-71.21
34.500,-68.19
34.515,-65.76
34.531,-63.87
34.546,-62.28
34.562,-60.59
34.578,-58.28
34.593,-54.75
34.609,-49.42
34.625,-41.94
34.640,-32.39
34.656,-21.4
34.671,-10.0
34.687,0.67
34.703,9.85
34.718,17.29
34.734,23.25
34.750,28.24
34.765,32.72
34.781,36.88
34.796,40.6
34.812,43.69
34.828,46.01
34.843,47.62
34.859,48.7
34.875,49.43
34.890,49.81
34.906,49.6
34.921,48.39
34.937,45.71
34.953,41.31
34.968,35.32
34.984,28.39
35.000,21.62
35.015,16.37
35.031,13.85
35.046,14.71
35.062,18.7
35.078,24.75
35.093,31.15
35.109,36.14
35.125,38.28
35.140,36.74
35.156,31.39
35.171,22.82
35.187,12.2
35.203,1.16
35.218,-8.4
35.234,-14.75
35.250,-16.69
35.265,-13.87
35.281,-6.91
35.296,2.99
35.312,14.45
35.328,26.2
35.343,37.25
35.359,46.68
35.375,53.5
35.390,56.69
35.406,55.54
35.421,49.98
35.437,40.8
35.453,29.52
35.468,17.84
35.484,7.16
35.500,-1.78
35.515,-9.03
35.531,-15.12
35.546,-20.83
35.562,-26.91
35.578,-33.86
35.593,-41.94
35.609,-51.11
35.625,-61.03
35.640,-71.1
35.656,-80.73
35.671,-89.39
35.687,-96.81
35.703,-102.93
35.718,-107.86
35.734,-111.76
35.750,-114.86
35.765,-117.55
35.781,-120.28
35.796,-123.51
35.812,-127.3
35.828,-131.04
35.843,-133.41
35.859,-132.74
35.875,-127.57
35.890,-117.24
35.906,-102.22
35.921,-83.89
35.937,-64.02
35.953,-44.26
35.968,-25.67
35.984,-8.76
36.000,6.39
36.015,19.87
36.031,31.76
36.046,42.1
36.062,50.91
36.078,58.26
36.093,64.2
36.109,68.8
36.125,72.05
36.140,73.94
36.156,74.36
36.171,73.17
36.187,70.24
36.203,65.56
36.218,59.28
36.234,51.84
36.250,43.86
36.265,36.04
36.281,29.0
36.296,23.09
36.312,18.35
36.328,14.6
36.343,11.5
36.359,8.67
36.375,5.72
36.390,2.26
36.406,-2.04
36.421,-7.4
36.437,-13.8
36.453,-20.97
36.468,-28.39
36.484,-35.51
36.500,-41.91
36.515,-47.39
36.531,-52.06
36.546,-56.19
36.562,-60.16
36.578,-64.31
36.593,-68.89
36.609,-73.86
36.625,-78.84
36.640,-83.02
36.656,-85.17
36.671,-84.08
36.687,-78.89
36.703,-69.59
36.718,-57.05
36.734,-42.83
36.750,-28.66
36.765,-16.01
36.781,-5.75
36.796,1.99
36.812,7.56
36.828,11.63
36.843,14.89
36.859,17.9
36.875,20.89
36.890,23.81
36.906,26.42
36.921,28.65
36.937,30.87
36.953,33.9
36.968,38.75
36.984,46.07
37.000,55.62
37.015,66.29
37.031,76.37
37.046,84.3
37.062,89.24
37.078,91.25
37.093,91.08
37.109,89.68
37.125,87.81
37.140,85.75
37.156,83.37
37.171,80.23
37.187,75.67
37.203,69.02
37.218,59.65
37.234,47.24
37.250,31.96
37.265,14.6
37.281,-3.51
37.296,-20.7
37.312,-35.32
37.328,-46.12
37.343,-52.65
37.359,-55.46
37.375,-56.02
37.390,-56.25
37.406,-57.72
37.421,-60.97
37.437,-65.11
37.453,-68.13
37.468,-67.75
37.484,-62.39
37.500,-51.88
37.515,-37.4
37.531,-20.87
37.546,-4.15
37.562,11.6
37.578,25.99
37.593,39.06
37.609,50.91
37.625,61.41
37.640,70.21
37.656,76.98
37.671,81.65
37.687,84.41
37.703,85.66
37.718,85.79
37.734,85.07
37.750,83.65
37.765,81.64
37.781,79.19
37.796,76.52
37.812,73.76
37.828,70.88
37.843,67.7
37.859,63.95
37.875,59.58
37.890,54.9
37.906,50.52
37.921,47.07
37.937,44.8
37.953,43.21
37.968,41.04
37.984,36.53
38.000,27.98
38.015,14.41
38.031,-3.95
38.046,-25.57
38.062,-47.88
38.078,-68.06
38.093,-83.78
38.109,-93.86
38.125,-98.42
38.140,-98.68
38.156,-96.51
38.171,-93.9
38.187,-92.52
38.203,-93.39
38.218,-96.57
38.234,-101.07
38.250,-104.97
38.265,-105.88
38.281,-101.7
38.296,-91.33
38.312,-75.03
38.328,-54.23
38.343,-30.95
38.359,-7.07
38.375,15.99
38.390,37.35
38.406,56.38
38.421,72.68
38.437,86.05
38.453,96.85
38.468,106.04
38.484,114.93
38.500,124.73
38.515,136.0
38.531,148.44
38.546,160.97
38.562,172.08
38.578,180.2
38.593,183.88
38.609,181.82
38.625,173.0
38.640,156.96
38.656,134.22
38.671,106.5
38.687,76.53
38.703,47.34
38.718,21.47
38.734,0.32
38.750,-16.12
38.765,-28.82
38.781,-39.21
38.796,-48.62
38.812,-58.1
38.828,-68.33
38.843,-79.68
38.859,-92.18
38.875,-105.41
38.890,-118.53
38.906,-130.56
38.921,-140.68
38.937,-148.65
38.953,-154.87
38.968,-160.11
38.984,-165.12
39.000,-170.1
39.015,-174.48
39.031,-177.05
39.046,-176.3
39.062,-171.04
39.078,-160.77
39.093,-145.83
39.109,-127.24
39.125,-106.32
39.140,-84.35
39.156,-62.29
39.171,-40.66
39.187,-19.76
39.203,0.28
39.218,19.16
39.234,36.44
39.250,51.52
39.265,63.79
39.281,72.85
39.296,78.58
39.312,81.22
39.328,81.3
39.343,79.46
39.359,76.34
39.375,72.51
39.390,68.43
39.406,64.44
39.421,60.82
39.437,57.7
39.453,55.07
39.468,52.75
39.484,50.54
39.500,48.13
39.515,45.35
39.531,42.15
39.546,38.64
39.562,35.01
39.578,31.44
39.593,27.97
39.609,24.4
39.625,20.45
39.640,15.73
39.656,10.06
39.671,3.53
39.687,-3.52
39.703,-10.59
39.718,-17.32
39.734,-23.58
39.750,-29.57
39.765,-35.7
39.781,-42.46
39.796,-50.09
39.812,-58.46
39.828,-66.89
39.843,-74.21
39.859,-78.97
39.875,-79.85
39.890,-76.07
39.906,-67.72
39.921,-55.76
39.937,-41.75
39.953,-27.37
39.968,-13.97
39.984,-2.22
40.000,7.71
40.015,15.99
40.031,22.78
40.046,28.06
40.062,31.65
40.078,33.42
40.093,33.5
40.109,32.28
40.125,30.43
40.140,28.59
40.156,27.25
40.171,26.63
40.187,26.62
40.203,26.95
40.218,27.27
40.234,27.24
40.250,26.63
40.265,25.32
40.281,23.22
40.296,20.34
40.312,16.78
40.328,12.68
40.343,8.31
40.359,4.02
40.375,0.21
40.390,-2.76
40.406,-4.6
40.421,-5.24
40.437,-4.74
40.453,-3.27
40.468,-0.95
40.484,2.19
40.500,6.12
40.515,10.66
40.531,15.31
40.546,19.39
40.562,22.13
40.578,23.16
40.593,22.69
40.609,21.66
40.625,21.57
40.640,24.02
40.656,30.28
40.671,40.86
40.687,55.36
40.703,72.6
40.718,90.89
40.734,108.41
40.750,123.66
40.765,135.65
40.781,143.98
40.796,148.63
40.812,149.78
40.828,147.57
40.843,142.11
40.859,133.49
40.875,121.92
40.890,107.84
40.906,91.8
40.921,74.35
40.937,55.97
40.953,36.96
40.968,17.55
40.984,-2.07
41.000,-21.71
41.015,-41.25
41.031,-60.7
41.046,-80.13
41.062,-99.5
41.078,-118.39
41.093,-135.85
41.109,-150.49
41.125,-160.77
41.140,-165.59
41.156,-164.67
41.171,-158.73
41.187,-149.29
41.203,-138.27
41.218,-127.4
41.234,-117.89
41.250,-110.25
41.265,-104.5
41.281,-100.26
41.296,-97.12
41.312,-94.79
41.328,-93.14
41.343,-92.22
41.359,-92.07
41.375,-92.55
41.390,-93.22
41.406,-93.26
41.421,-91.61
41.437,-87.33
41.453,-79.81
41.468,-69.02
41.484,-55.54
41.500,-40.33
41.515,-24.41
41.531,-8.65
41.546,6.33
41.562,20.23
41.578,32.9
41.593,44.25
41.609,54.17
41.625,62.49
41.640,69.0
41.656,73.48
41.671,75.79
41.687,75.96
41.703,74.26
41.718,71.2
41.734,67.45
41.750,63.77
41.765,60.85
41.781,59.14
41.796,58.77
41.812,59.43
41.828,60.44
41.843,60.85
41.859,59.77
41.875,56.59
41.890,51.25
41.906,44.26
41.921,36.64
41.937,29.58
41.953,24.17
41.968,21.01
41.984,19.99
42.000,20.25
42.015,20.33
42.031,18.66
42.046,13.98
42.062,5.81
42.078,-5.36
42.093,-18.2
42.109,-31.08
42.125,-42.53
42.140,-51.72
42.156,-58.65
42.171,-63.96
42.187,-68.48
42.203,-72.85
42.218,-77.07
42.234,-80.54
42.250,-82.21
42.265,-81.06
42.281,-76.36
42.296,-68.01
42.312,-56.39
42.328,-42.21
42.343,-26.3
42.359,-9.44
42.375,7.64
42.390,24.28
42.406,39.89
42.421,53.95
42.437,66.08
42.453,76.14
42.468,84.13
42.484,90.24
42.500,94.8
42.515,98.21
42.531,100.89
42.546,103.09
42.562,104.81
42.578,105.74
42.593,105.43
42.609,103.5
42.625,99.86
42.640,94.68
42.656,88.25
42.671,80.68
42.687,71.79
42.703,61.16
42.718,48.39
42.734,33.4
42.750,16.48
42.765,-1.76
42.781,-20.59
42.796,-39.3
42.812,-57.21
42.828,-73.58
42.843,-87.58
42.859,-98.38
42.875,-105.31
42.890,-108.14
42.906,-107.16
42.921,-103.13
42.937,-97.09
42.953,-90.13
42.968,-83.23
42.984,-77.18
43.000,-72.46
43.015,-69.2
43.031,-66.98
43.046,-64.85
43.062,-61.43
43.078,-55.33
43.093,-45.61
43.109,-32.14
43.125,-15.74
43.140,2.14
43.156,19.82
43.171,35.91
43.187,49.64
43.203,60.8
43.218,69.57
43.234,76.26
43.250,81.09
43.265,84.11
43.281,85.3
43.296,84.64
43.312,82.24
43.328,78.37
43.343,73.51
43.359,68.27
43.375,63.28
43.390,59.03
43.406,55.84
43.421,53.8
43.437,52.75
43.453,52.38
43.468,52.2
43.484,51.62
43.500,50.01
43.515,46.9
43.531,42.13
43.546,35.94
43.562,28.91
43.578,21.69
43.593,14.79
43.609,8.35
43.625,2.1
43.640,-4.44
43.656,-11.73
43.671,-20.03
43.687,-29.26
43.703,-39.14
43.718,-49.35
43.734,-59.64
43.750,-70.02
43.765,-80.67
43.781,-91.83
43.796,-103.49
43.812,-115.15
43.828,-125.63
43.843,-133.23
43.859,-136.12
43.875,-132.82
43.890,-122.81
43.906,-106.77
43.921,-86.44
43.937,-64.17
43.953,-42.31
43.968,-22.59
43.984,-5.92
44.000,7.6
44.015,18.34
44.031,26.71
44.046,32.92
44.062,36.88
44.078,38.42
44.093,37.55
44.109,34.65
44.125,30.39
44.140,25.55
44.156,20.63
44.171,15.72
44.187,10.56
44.203,4.77
44.218,-1.86
44.234,-9.26
44.250,-17.21
44.265,-25.4
44.281,-33.51
44.296,-41.14
44.312,-47.66
44.328,-52.28
44.343,-54.31
44.359,-53.61
44.375,-50.76
44.390,-46.96
44.406,-43.45
44.421,-41.03
44.437,-39.75
44.453,-39.11
44.468,-38.5
44.484,-37.65
44.500,-36.77
44.515,-36.36
44.531,-36.81
44.546,-38.2
44.562,-40.17
44.578,-42.12
44.593,-43.34
44.609,-43.12
44.625,-40.9
44.640,-36.31
44.656,-29.35
44.671,-20.47
44.687,-10.45
44.703,-0.28
44.718,9.27
44.734,17.8
44.750,25.37
44.765,32.31
44.781,38.94
44.796,45.41
44.812,51.55
44.828,56.98
44.843,61.26
44.859,63.97
44.875,64.85
44.890,63.83
44.906,61.07
44.921,56.91
44.937,51.84
44.953,46.47
44.968,41.42
44.984,37.24
45.000,34.33
45.015,32.85
45.031,32.64
45.046,33.2
45.062,33.79
45.078,33.54
45.093,31.71
45.109,27.87
45.125,22.09
45.140,14.87
45.156,7.11
45.171,-0.14
45.187,-6.01
45.203,-9.96
45.218,-11.92
45.234,-12.29
45.250,-11.76
45.265,-11.24
45.281,-11.6
45.296,-13.62
45.312,-17.77
45.328,-24.25
45.343,-32.7
45.359,-42.21
45.375,-51.31
45.390,-58.13
45.406,-60.94
45.421,-58.55
45.437,-50.78
45.453,-38.47
45.468,-23.21
45.484,-6.83
45.500,9.13
45.515,23.72
45.531,36.56
45.546,47.63
45.562,57.01
45.578,64.73
45.593,70.8
45.609,75.27
45.625,78.36
45.640,80.36
45.656,81.55
45.671,81.99
45.687,81.48
45.703,79.69
45.718,76.37
45.734,71.6
45.750,65.92
45.765,60.16
45.781,55.2
45.796,51.64
45.812,49.62
45.828,48.88
45.843,48.93
45.859,49.29
45.875,49.56
45.890,49.43
45.906,48.56
45.921,46.64
45.937,43.51
45.953,39.26
45.968,34.39
45.984,29.6
46.000,25.58
46.015,22.69
46.031,20.96
46.046,20.14
46.062,19.96
46.078,20.31
46.093,21.16
46.109,22.36
46.125,23.49
46.140,23.87
46.156,22.86
46.171,20.19
46.187,16.19
46.203,11.77
46.218,8.05
46.234,5.94
46.250,5.88
46.265,7.92
46.281,11.97
46.296,18.0
46.312,26.03
46.328,35.95
46.343,47.22
46.359,58.78
46.375,69.31
46.390,77.58
46.406,82.83
46.421,84.87
46.437,83.88
46.453,80.09
46.468,73.58
46.484,64.26
46.500,52.06
46.515,37.23
46.531,20.49
46.546,2.86
46.562,-14.5
46.578,-30.64
46.593,-44.96
46.609,-57.15
46.625,-66.98
46.640,-74.13
46.656,-78.12
46.671,-78.5
46.687,-75.13
46.703,-68.5
46.718,-59.78
46.734,-50.65
46.750,-42.8
46.765,-37.51
46.781,-35.32
46.796,-36.0
46.812,-38.82
46.828,-42.93
46.843,-47.67
46.859,-52.88
46.875,-58.87
46.890,-66.35
46.906,-76.06
46.921,-88.39
46.937,-102.92
46.953,-118.25
46.968,-132.09
46.984,-141.74
47.000,-144.85
47.015,-140.12
47.031,-127.71
47.046,-109.25
47.062,-87.34
47.078,-64.82
47.093,-44.09
47.109,-26.55
47.125,-12.55
47.140,-1.65
47.156,7.03
47.171,14.3
47.187,20.73
47.203,26.6
47.218,32.08
47.234,37.27
47.250,42.3
47.265,47.11
47.281,51.41
47.296,54.66
47.312,56.22
47.328,55.74
47.343,53.25
47.359,49.33
47.375,44.78
47.390,40.39
47.406,36.64
47.421,33.62
47.437,31.12
47.453,28.78
47.468,26.23
47.484,23.18
47.500,19.39
47.515,14.69
47.531,9.06
47.546,2.68
47.562,-4.08
47.578,-10.57
47.593,-16.13
47.609,-20.25
47.625,-22.83
47.640,-24.26
47.656,-25.47
47.671,-27.64
47.687,-31.98
47.703,-39.33
47.718,-49.74
47.734,-62.37
47.750,-75.39
47.765,-86.48
47.781,-93.19
47.796,-93.75
47.812,-87.53
47.828,-75.23
47.843,-58.72
47.859,-40.43
47.875,-22.64
47.890,-6.98
47.906,5.84
47.921,15.81
47.937,23.35
47.953,28.96
47.968,33.0
47.984,35.71
48.000,37.3
48.015,38.02
48.031,38.16
48.046,38.04
48.062,37.8
48.078,37.46
48.093,36.87
48.109,35.79
48.125,33.95
48.140,31.11
48.156,27.15
48.171,22.09
48.187,16.2
48.203,9.92
48.218,3.83
48.234,-1.51
48.250,-5.69
48.265,-8.6
48.281,-10.46
48.296,-11.75
48.312,-13.09
48.328,-15.01
48.343,-17.85
48.359,-21.66
48.375,-26.18
48.390,-30.99
48.406,-35.63
48.421,-39.75
48.437,-43.26
48.453,-46.43
48.468,-49.76
48.484,-53.87
48.500,-59.18
48.515,-65.63
48.531,-72.47
48.546,-78.36
48.562,-81.64
48.578,-80.77
48.593,-74.83
48.609,-63.81
48.625,-48.62
48.640,-30.73
48.656,-11.82
48.671,6.66
48.687,23.7
48.703,38.66
48.718,51.09
48.734,60.57
48.750,66.69
48.765,69.16
48.781,68.01
48.796,63.72
48.812,57.21
48.828,49.69
48.843,42.49
48.859,36.87
48.875,33.8
48.890,33.85
48.906,36.94
48.921,42.29
48.937,48.57
48.953,54.15
48.968,57.68
48.984,58.42
49.000,56.49
49.015,52.62
49.031,47.86
49.046,43.14
49.062,38.95
49.078,35.4
49.093,32.18
49.109,28.7
49.125,24.23
49.140,18.1
49.156,9.86
49.171,-0.45
49.187,-12.23
49.203,-24.4
49.218,-35.8
49.234,-45.47
49.250,-52.97
49.265,-58.44
49.281,-62.55
49.296,-66.32
49.312,-70.92
49.328,-77.26
49.343,-85.7
49.359,-95.71
49.375,-105.84
49.390,-113.98
49.406,-118.08
49.421,-116.88
49.437,-110.37
49.453,-99.75
49.468,-86.87
49.484,-73.51
49.500,-60.82
49.515,-49.14
49.531,-38.33
49.546,-28.11
49.562,-18.37
49.578,-9.29
49.593,-1.15
49.609,5.89
49.625,11.78
49.640,16.67
49.656,20.75
49.671,24.18
49.687,27.1
49.703,29.6
49.718,31.74
49.734,33.59
49.750,35.19
49.765,36.6
49.781,37.9
49.796,39.23
49.812,40.71
49.828,42.36
49.843,44.08
49.859,45.65
49.875,46.74
49.890,47.04
49.906,46.26
49.921,44.13
49.937,40.36
49.953,34.74
49.968,27.18
49.984,17.89
50.000,7.39
50.015,-3.5
50.031,-13.92
50.046,-23.14
50.062,-30.75
50.078,-36.72
50.093,-41.37
50.109,-45.23
50.125,-48.91
50.140,-52.93
50.156,-57.42
50.171,-62.05
50.187,-65.92
50.203,-67.81
50.218,-66.53
50.234,-61.36
50.250,-52.28
50.265,-39.98
50.281,-25.67
50.296,-10.62
50.312,4.04
50.328,17.49
50.343,29.16
50.359,38.59
50.375,45.38
50.390,49.22
50.406,50.15
50.421,48.64
50.437,45.66
50.453,42.48
50.468,40.32
50.484,39.99
50.500,41.69
50.515,44.98
50.531,48.98
50.546,52.73
50.562,55.5
50.578,56.94
50.593,57.19
50.609,56.68
50.625,56.01
50.640,55.6
50.656,55.54
50.671,55.53
50.687,54.99
50.703,53.3
50.718,50.02
50.734,45.05
50.750,38.59
50.765,31.01
50.781,22.64
50.796,13.75
50.812,4.54
50.828,-4.79
50.843,-13.92
50.859,-22.41
50.875,-29.78
50.890,-35.59
50.906,-39.65
50.921,-41.94
50.937,-42.79
50.953,-42.6
50.968,-41.83
50.984,-40.83
51.000,-39.74
51.015,-38.61
51.031,-37.37
51.046,-35.94
51.062,-34.02
51.078,-30.97
51.093,-25.78
51.109,-17.4
51.125,-5.3
51.140,10.01
51.156,26.81
51.171,42.73
51.187,55.56
51.203,64.26
51.218,69.32
51.234,72.4
51.250,75.49
51.265,79.98
51.281,86.14
51.296,93.32
51.312,100.49
51.328,106.86
51.343,112.08
51.359,116.15
51.375,119.08
51.390,120.74
51.406,120.95
51.421,119.71
51.437,117.36
51.453,114.57
51.468,112.09
51.484,110.42
51.500,109.57
51.515,109.04
51.531,108.05
51.546,105.73
51.562,101.38
51.578,94.54
51.593,85.09
51.609,73.28
51.625,59.7
51.640,45.25
51.656,30.92
51.671,17.55
51.687,5.61
51.703,-4.74
51.718,-13.52
51.734,-20.61
51.750,-25.6
51.765,-27.79
51.781,-26.61
51.796,-21.99
51.812,-14.66
51.828,-6.0
51.843,2.33
51.859,9.06
51.875,13.65
51.890,16.37
51.906,17.92
51.921,18.9
51.937,19.33
51.953,18.59
51.968,15.79
51.984,10.29
52.000,2.17
52.015,-7.7
52.031,-17.95
52.046,-27.24
52.062,-34.69
52.078,-40.09
52.093,-43.66
52.109,-45.77
52.125,-46.71
52.140,-46.69
52.156,-45.95
52.171,-45.0
52.187,-44.62
52.203,-45.58
52.218,-48.43
52.234,-53.19
52.250,-59.42
52.265,-66.42
52.281,-73.49
52.296,-80.2
52.312,-86.36
52.328,-91.95
52.343,-96.99
52.359,-101.54
52.375,-105.7
52.390,-109.71
52.406,-113.97
52.421,-118.89
52.437,-124.8
52.453,-131.74
52.468,-139.4
52.484,-147.07
52.500,-153.71
52.515,-158.03
52.531,-158.77
52.546,-154.96
52.562,-146.26
52.578,-133.13
52.593,-116.81
52.609,-99.03
52.625,-81.5
52.640,-65.48
52.656,-51.56
52.671,-39.64
52.687,-29.28
52.703,-20.04
52.718,-11.78
52.734,-4.71
52.750,0.74
52.765,4.18
52.781,5.6
52.796,5.44
52.812,4.57
52.828,4.02
52.843,4.7
52.859,7.1
52.875,11.29
52.890,16.87
52.906,23.21
52.921,29.66
52.937,35.61
52.953,40.6
52.968,44.26
52.984,46.28
53.000,46.44
53.015,44.75
53.031,41.47
53.046,37.12
53.062,32.35
53.078,27.68
53.093,23.42
53.109,19.52
53.125,15.72
53.140,11.74
53.156,7.42
53.171,2.79
53.187,-2.05
53.203,-7.07
53.218,-12.41
53.234,-18.32
53.250,-24.86
53.265,-31.68
53.281,-37.9
53.296,-42.17
53.312,-43.04
53.328,-39.42
53.343,-31.06
53.359,-18.63
53.375,-3.64
53.390,12.06
53.406,26.79
53.421,39.5
53.437,49.94
53.453,58.46
53.468,65.69
53.484,72.12
53.500,77.87
53.515,82.71
53.531,86.26
53.546,88.26
53.562,88.7
53.578,87.81
53.593,85.92
53.609,83.27
53.625,79.97
53.640,76.07
53.656,71.61
53.671,66.8
53.687,61.91
53.703,57.23
53.718,53.01
53.734,49.28
53.750,45.9
53.765,42.5
53.781,38.57
53.796,33.59
53.812,27.2
53.828,19.36
53.843,10.41
53.859,1.02
53.875,-8.08
53.890,-16.28
53.906,-23.33
53.921,-29.24
53.937,-34.22
53.953,-38.52
53.968,-42.41
53.984,-46.19
54.000,-50.25
54.015,-54.96
54.031,-60.39
54.046,-66.09
54.062,-70.95
54.078,-73.45
54.093,-72.16
54.109,-66.18
54.125,-55.5
54.140,-40.99
54.156,-24.04
54.171,-6.17
54.187,11.32
54.203,27.41
54.218,41.32
54.234,52.31
54.250,59.76
54.265,63.28
54.281,62.97
54.296,59.52
54.312,54.06
54.328,47.79
54.343,41.54
54.359,35.42
54.375,28.89
54.390,21.12
54.406,11.61
54.421,0.63
54.437,-10.6
54.453,-20.2
54.468,-26.3
54.484,-27.7
54.500,-24.27
54.515,-17.02
54.531,-7.71
54.546,1.66
54.562,9.3
54.578,13.93
54.593,14.83
54.609,11.97
54.625,5.93
54.640,-2.22
54.656,-11.22
54.671,-19.88
54.687,-27.56
54.703,-34.34
54.718,-40.96
54.734,-48.54
54.750,-58.04
54.765,-69.87
54.781,-83.6
54.796,-98.01
54.812,-111.26
54.828,-121.26
54.843,-126.16
54.859,-124.78
54.875,-117.01
54.890,-103.79
54.906,-86.88
54.921,-68.33
54.937,-49.94
54.953,-32.98
54.968,-18.14
54.984,-5.71
55.000,4.16
55.015,11.37
55.031,15.89
55.046,17.98
55.062,18.23
55.078,17.52
55.093,16.8
55.109,16.84
55.125,18.01
55.140,20.26
55.156,23.12
55.171,25.95
55.187,28.04
55.203,28.9
55.218,28.29
55.234,26.28
55.250,23.19
55.265,19.43
55.281,15.43
55.296,11.47
55.312,7.75
55.328,4.37
55.343,1.44
55.359,-1.02
55.375,-3.07
55.390,-4.98
55.406,-7.18
55.421,-10.19
55.437,-14.41
55.453,-19.98
55.468,-26.72
55.484,-34.19
55.500,-41.69
55.515,-48.34
55.531,-53.06
55.546,-54.7
55.562,-52.19
55.578,-44.96
55.593,-33.12
55.609,-17.66
55.625,-0.22
55.640,17.36
55.656,33.53
55.671,47.52
55.687,59.39
55.703,69.92
55.718,80.12
55.734,90.71
55.750,101.78
55.765,112.61
55.781,121.88
55.796,128.01
55.812,129.7
55.828,126.25
55.843,117.67
55.859,104.59
55.875,88.08
55.890,69.47
55.906,50.22
55.921,31.88
55.937,15.86
55.953,3.28
55.968,-5.32
55.984,-10.03
56.000,-11.55
56.015,-10.84
56.031,-8.83
56.046,-6.09
56.062,-2.84
56.078,0.9
56.093,4.95
56.109,8.76
56.125,11.31
56.140,11.29
56.156,7.53
56.171,-0.64
56.187,-13.14
56.203,-29.24
56.218,-47.82
56.234,-67.69
56.250,-87.65
56.265,-106.35
56.281,-122.11
56.296,-132.94
56.312,-137.0
56.328,-133.2
56.343,-121.82
56.359,-104.63
56.375,-84.51
56.390,-64.58
56.406,-47.38
56.421,-34.28
56.437,-25.34
56.453,-19.63
56.468,-15.63
56.484,-11.77
56.500,-6.83
56.515,-0.19
56.531,8.02
56.546,17.13
56.562,26.1
56.578,33.94
56.593,40.03
56.609,44.23
56.625,46.81
56.640,48.3
56.656,49.2
56.671,49.88
56.687,50.47
56.703,50.93
56.718,51.1
56.734,50.81
56.750,49.89
56.765,48.18
56.781,45.55
56.796,41.86
56.812,36.97
56.828,30.82
56.843,23.49
56.859,15.25
56.875,6.51
56.890,-2.21
56.906,-10.48
56.921,-18.07
56.937,-24.94
56.953,-31.27
56.968,-37.34
56.984,-43.38
57.000,-49.45
57.015,-55.37
57.031,-60.69
57.046,-64.7
57.062,-66.57
57.078,-65.52
57.093,-61.13
57.109,-53.48
57.125,-43.16
57.140,-31.2
57.156,-18.7
57.171,-6.53
57.187,4.85
57.203,15.37
57.218,25.16
57.234,34.18
57.250,42.12
57.265,48.42
57.281,52.57
57.296,54.36
57.312,54.06
57.328,52.32
57.343,49.95
57.359,47.58
57.375,45.51
57.390,43.73
57.406,42.04
57.421,40.22
57.437,38.14
57.453,35.81
57.468,33.25
57.484,30.56
57.500,27.8
57.515,25.01
57.531,22.2
57.546,19.33
57.562,16.27
57.578,13.0
57.593,9.68
57.609,6.75
57.625,4.85
57.640,4.64
57.656,6.42
57.671,9.93
57.687,14.36
57.703,18.51
57.718,21.27
57.734,21.9
57.750,20.23
57.765,16.74
57.781,12.47
57.796,8.84
57.812,7.43
57.828,9.66
57.843,16.35
57.859,27.39
57.875,41.65
57.890,57.17
57.906,71.7
57.921,83.29
57.937,90.75
57.953,93.84
57.968,93.06
57.984,89.39
58.000,83.92
58.015,77.49
58.031,70.57
58.046,63.18
58.062,54.98
58.078,45.58
58.093,34.78
58.109,22.83
58.125,10.42
58.140,-1.56
58.156,-12.32
58.171,-21.46
58.187,-29.0
58.203,-35.22
58.218,-40.46
58.234,-44.96
58.250,-48.97
58.265,-52.83
58.281,-57.1
58.296,-62.42
58.312,-69.2
58.328,-77.31
58.343,-86.01
58.359,-94.05
58.375,-100.2
58.390,-103.64
58.406,-104.22
58.421,-102.48
58.437,-99.4
58.453,-96.02
58.468,-93.25
58.484,-91.67
58.500,-91.52
58.515,-92.64
58.531,-94.42
58.546,-95.79
58.562,-95.38
58.578,-91.79
58.593,-84.02
58.609,-71.8
58.625,-55.74
58.640,-37.15
58.656,-17.66
58.671,1.22
58.687,18.4
58.703,33.38
58.718,46.15
58.734,56.96
58.750,66.1
58.765,73.77
58.781,80.02
58.796,84.85
58.812,88.23
58.828,90.21
58.843,90.94
58.859,90.6
58.875,89.39
58.890,87.5
58.906,85.13
58.921,82.56
58.937,80.13
58.953,78.16
58.968,76.84
58.984,76.1
59.000,75.66
59.015,75.16
59.031,74.4
59.046,73.41
59.062,72.5
59.078,71.95
59.093,71.92
59.109,72.3
59.125,72.82
59.140,73.28
59.156,73.68
59.171,74.26
59.187,75.24
59.203,76.68
59.218,78.25
59.234,79.42
59.250,79.56
59.265,78.31
59.281,75.61
59.296,71.65
59.312,66.71
59.328,60.99
59.343,54.52
59.359,47.22
59.375,38.87
59.390,29.25
59.406,18.09
59.421,5.2
59.437,-9.42
59.453,-25.39
59.468,-41.82
59.484,-57.41
59.500,-70.69
59.515,-80.45
59.531,-86.1
59.546,-87.85
59.562,-86.56
59.578,-83.4
59.593,-79.46
59.609,-75.56
59.625,-72.16
59.640,-69.47
59.656,-67.67
59.671,-66.94
59.687,-67.46
59.703,-69.3
59.718,-72.32
59.734,-76.1
59.750,-80.07
59.765,-83.68
59.781,-86.58
59.796,-88.79
59.812,-90.62
59.828,-92.5
59.843,-94.74
59.859,-97.4
59.875,-100.25
59.890,-102.95
59.906,-105.24
59.921,-107.1
59.937,-108.68
59.953,-110.27
59.968,-112.19
59.984,-114.77
