timestamp,value
00.000,14.69
00.015,10.58
00.031,6.31
00.046,1.59
00.062,-3.79
00.078,-9.78
00.093,-16.08
00.109,-22.13
00.125,-27.47
00.140,-31.81
00.156,-35.31
00.171,-38.48
00.187,-41.96
00.203,-46.31
00.218,-51.63
00.234,-57.58
00.250,-63.31
00.265,-67.77
00.281,-69.95
00.296,-69.24
00.312,-65.51
00.328,-59.16
00.343,-50.93
00.359,-41.64
00.375,-32.08
00.390,-22.82
00.406,-14.26
00.421,-6.7
00.437,-0.38
00.453,4.56
00.468,8.1
00.484,10.42
00.500,11.86
00.515,12.84
00.531,13.81
00.546,15.06
00.562,16.76
00.578,18.87
00.593,21.26
00.609,23.71
00.625,26.02
00.640,28.0
00.656,29.54
00.671,30.59
00.687,31.03
00.703,30.78
00.718,29.77
00.734,27.98
00.750,25.52
00.765,22.6
00.781,19.54
00.796,16.63
00.812,14.04
00.828,11.72
00.843,9.43
00.859,6.83
00.875,3.63
00.890,-0.2
00.906,-4.45
00.921,-8.73
00.937,-12.64
00.953,-15.99
00.968,-18.84
00.984,-21.52
01.000,-24.45
01.015,-27.98
01.031,-32.31
01.046,-37.34
01.062,-42.7
01.078,-47.76
01.093,-51.63
01.109,-53.33
01.125,-51.92
01.140,-46.91
01.156,-38.42
01.171,-27.28
01.187,-14.84
01.203,-2.57
01.218,8.36
01.234,17.37
01.250,24.47
01.265,30.08
01.281,34.66
01.296,38.47
01.312,41.58
01.328,43.94
01.343,45.64
01.359,46.98
01.375,48.4
01.390,50.25
01.406,52.6
01.421,55.19
01.437,57.57
01.453,59.31
01.468,60.27
01.484,60.58
01.500,60.54
01.515,60.39
01.531,60.13
01.546,59.56
01.562,58.36
01.578,56.37
01.593,53.73
01.609,50.79
01.625,48.03
01.640,45.71
01.656,43.83
01.671,42.05
01.687,39.93
01.703,37.12
01.718,33.58
01.734,29.57
01.750,25.53
01.765,21.86
01.781,18.75
01.796,16.09
01.812,13.53
01.828,10.63
01.843,7.0
01.859,2.46
01.875,-2.91
01.890,-8.69
01.906,-14.19
01.921,-18.5
01.937,-20.65
01.953,-19.91
01.968,-16.03
01.984,-9.4
02.000,-0.97
02.015,7.96
02.031,16.08
02.046,22.52
02.062,27.02
02.078,29.97
02.093,32.22
02.109,34.78
02.125,38.53
02.140,43.99
02.156,51.26
02.171,60.04
02.187,69.74
02.203,79.58
02.218,88.69
02.234,96.24
02.250,101.64
02.265,104.65
02.281,105.54
02.296,104.99
02.312,103.88
02.328,102.99
02.343,102.73
02.359,103.11
02.375,103.81
02.390,104.46
02.406,104.73
02.421,104.36
02.437,103.06
02.453,100.42
02.468,95.98
02.484,89.4
02.500,80.65
02.515,70.01
02.531,57.9
02.546,44.71
02.562,30.83
02.578,16.76
02.593,3.42
02.609,-7.88
02.625,-15.76
02.640,-19.51
02.656,-19.74
02.671,-18.55
02.687,-18.92
02.703,-23.58
02.718,-33.83
02.734,-48.96
02.750,-66.55
02.765,-83.55
02.781,-97.38
02.796,-106.68
02.812,-111.39
02.828,-112.15
02.843,-109.7
02.859,-104.47
02.875,-96.68
02.890,-86.74
02.906,-75.55
02.921,-64.53
02.937,-55.17
02.953,-48.41
02.968,-44.24
02.984,-41.78
03.000,-39.71
03.015,-36.99
03.031,-33.36
03.046,-29.36
03.062,-26.04
03.078,-24.24
03.093,-24.2
03.109,-25.4
03.125,-26.93
03.140,-27.9
03.156,-27.87
03.171,-27.0
03.187,-25.78
03.203,-24.7
03.218,-23.99
03.234,-23.42
03.250,-22.44
03.265,-20.45
03.281,-17.04
03.296,-12.14
03.312,-6.12
03.328,0.41
03.343,6.7
03.359,12.14
03.375,16.4
03.390,19.61
03.406,22.38
03.421,25.66
03.437,30.44
03.453,37.44
03.468,46.84
03.484,58.26
03.500,70.84
03.515,83.48
03.531,94.93
03.546,103.91
03.562,109.21
03.578,109.93
03.593,105.74
03.609,97.03
03.625,84.77
03.640,70.15
03.656,54.23
03.671,37.89
03.687,22.15
03.703,8.55
03.718,-0.88
03.734,-4.23
03.750,-0.82
03.765,7.9
03.781,18.29
03.796,25.56
03.812,25.49
03.828,16.13
03.843,-1.56
03.859,-24.35
03.875,-48.07
03.890,-69.3
03.906,-86.19
03.921,-98.51
03.937,-107.05
03.953,-112.85
03.968,-116.84
03.984,-119.7
04.000,-122.14
04.015,-125.04
04.031,-129.29
04.046,-135.57
04.062,-143.93
04.078,-153.75
04.093,-163.85
04.109,-172.96
04.125,-180.04
04.140,-184.56
04.156,-186.44
04.171,-185.88
04.187,-183.07
04.203,-177.94
04.218,-170.24
04.234,-159.63
04.250,-146.05
04.265,-129.96
04.281,-112.34
04.296,-94.54
04.312,-77.94
04.328,-63.56
04.343,-51.83
04.359,-42.56
04.375,-35.05
04.390,-28.48
04.406,-22.14
04.421,-15.64
04.437,-8.92
04.453,-2.16
04.468,4.37
04.484,10.37
04.500,15.65
04.515,20.09
04.531,23.62
04.546,26.27
04.562,28.09
04.578,29.22
04.593,29.78
04.609,29.86
04.625,29.46
04.640,28.46
04.656,26.7
04.671,24.01
04.687,20.32
04.703,15.67
04.718,10.23
04.734,4.1
04.750,-2.69
04.765,-10.3
04.781,-18.93
04.796,-28.7
04.812,-39.41
04.828,-50.45
04.843,-60.76
04.859,-69.03
04.875,-74.02
04.890,-74.84
04.906,-71.25
04.921,-63.69
04.937,-53.19
04.953,-41.06
04.968,-28.57
04.984,-16.66
05.000,-5.83
05.015,3.78
05.031,12.24
05.046,19.61
05.062,25.91
05.078,31.07
05.093,35.14
05.109,38.32
05.125,41.0
05.140,43.61
05.156,46.48
05.171,49.65
05.187,52.9
05.203,55.78
05.218,57.9
05.234,59.04
05.250,59.22
05.265,58.7
05.281,57.83
05.296,56.88
05.312,55.94
05.328,54.94
05.343,53.75
05.359,52.2
05.375,50.18
05.390,47.6
05.406,44.38
05.421,40.42
05.437,35.67
05.453,30.13
05.468,23.84
05.484,16.91
05.500,9.45
05.515,1.51
05.531,-6.94
05.546,-15.98
05.562,-25.57
05.578,-35.38
05.593,-44.65
05.609,-52.25
05.625,-56.9
05.640,-57.59
05.656,-53.93
05.671,-46.36
05.687,-36.03
05.703,-24.5
05.718,-13.27
05.734,-3.44
05.750,4.43
05.765,10.32
05.781,14.45
05.796,17.2
05.812,18.91
05.828,19.92
05.843,20.57
05.859,21.27
05.875,22.46
05.890,24.61
05.906,28.03
05.921,32.78
05.937,38.66
05.953,45.26
05.968,52.19
05.984,59.16
06.000,66.06
06.015,72.92
06.031,79.67
06.046,86.19
06.062,92.19
06.078,97.44
06.093,101.77
06.109,105.05
06.125,107.12
06.140,107.69
06.156,106.35
06.171,102.71
06.187,96.52
06.203,87.8
06.218,76.75
06.234,63.68
06.250,48.86
06.265,32.6
06.281,15.39
06.296,-2.05
06.312,-18.74
06.328,-33.57
06.343,-45.53
06.359,-53.82
06.375,-57.98
06.390,-57.86
06.406,-53.63
06.421,-45.77
06.437,-34.99
06.453,-22.02
06.468,-7.47
06.484,8.37
06.500,25.28
06.515,42.89
06.531,60.32
06.546,76.19
06.562,88.92
06.578,97.41
06.593,101.64
06.609,102.81
06.625,102.93
06.640,103.99
06.656,107.12
06.671,112.17
06.687,117.84
06.703,122.4
06.718,124.46
06.734,123.43
06.750,119.58
06.765,113.71
06.781,106.68
06.796,99.25
06.812,91.93
06.828,84.89
06.843,77.62
06.859,68.44
06.875,54.46
06.890,32.21
06.906,-0.77
06.921,-44.35
06.937,-95.12
06.953,-147.24
06.968,-194.63
06.984,-233.3
07.000,-262.48
07.015,-284.2
07.031,-301.68
07.046,-317.76
07.062,-334.01
07.078,-350.66
07.093,-366.87
07.109,-380.78
07.125,-389.45
07.140,-388.98
07.156,-375.53
07.171,-346.97
07.187,-304.28
07.203,-252.0
07.218,-196.95
07.234,-146.01
07.250,-103.99
07.265,-72.55
07.281,-50.49
07.296,-35.07
07.312,-23.37
07.328,-13.14
07.343,-3.07
07.359,7.49
07.375,18.71
07.390,30.58
07.406,42.72
07.421,54.4
07.437,64.54
07.453,71.97
07.468,75.97
07.484,76.46
07.500,74.17
07.515,70.24
07.531,65.84
07.546,61.69
07.562,57.96
07.578,54.34
07.593,50.41
07.609,45.97
07.625,41.19
07.640,36.64
07.656,32.92
07.671,30.43
07.687,29.12
07.703,28.43
07.718,27.5
07.734,25.44
07.750,21.69
07.765,16.09
07.781,9.03
07.796,1.3
07.812,-6.01
07.828,-11.62
07.843,-14.34
07.859,-13.22
07.875,-7.8
07.890,1.73
07.906,14.58
07.921,29.5
07.937,45.11
07.953,60.19
07.968,73.79
07.984,85.23
08.000,94.05
08.015,100.0
08.031,103.08
08.046,103.59
08.062,102.19
08.078,99.74
08.093,97.13
08.109,94.98
08.125,93.58
08.140,92.86
08.156,92.57
08.171,92.49
08.187,92.41
08.203,92.16
08.218,91.45
08.234,89.89
08.250,87.14
08.265,83.01
08.281,77.61
08.296,71.33
08.312,64.63
08.328,57.85
08.343,51.11
08.359,44.29
08.375,37.2
08.390,29.64
08.406,21.39
08.421,12.11
08.437,1.24
08.453,-11.89
08.468,-27.71
08.484,-46.03
08.500,-65.81
08.515,-85.17
08.531,-101.8
08.546,-113.39
08.562,-118.18
08.578,-115.42
08.593,-105.61
08.609,-90.49
08.625,-72.67
08.640,-55.05
08.656,-40.02
08.671,-28.82
08.687,-21.35
08.703,-16.47
08.718,-12.86
08.734,-9.76
08.750,-7.38
08.765,-6.66
08.781,-8.58
08.796,-13.37
08.812,-20.19
08.828,-27.35
08.843,-33.04
08.859,-35.97
08.875,-35.67
08.890,-32.52
08.906,-27.46
08.921,-21.77
08.937,-16.8
08.953,-13.68
08.968,-12.67
08.984,-12.55
09.000,-10.57
09.015,-3.2
09.031,12.2
09.046,35.72
09.062,64.19
09.078,92.03
09.093,113.27
09.109,123.86
09.125,123.03
09.140,113.05
09.156,97.86
09.171,81.3
09.187,66.15
09.203,53.97
09.218,45.64
09.234,41.8
09.250,42.85
09.265,48.55
09.281,57.61
09.296,67.7
09.312,75.95
09.328,79.9
09.343,78.17
09.359,70.9
09.375,59.55
09.390,46.32
09.406,33.4
09.421,22.3
09.437,13.64
09.453,7.25
09.468,2.57
09.484,-0.9
09.500,-3.31
09.515,-4.46
09.531,-3.99
09.546,-1.73
09.562,2.14
09.578,6.94
09.593,11.77
09.609,15.76
09.625,18.43
09.640,19.82
09.656,20.32
09.671,20.44
09.687,20.46
09.703,20.32
09.718,19.68
09.734,18.16
09.750,15.54
09.765,11.92
09.781,7.57
09.796,2.81
09.812,-2.23
09.828,-7.59
09.843,-13.43
09.859,-19.88
09.875,-26.84
09.890,-33.89
09.906,-40.31
09.921,-45.08
09.937,-47.13
09.953,-45.58
09.968,-40.06
09.984,-30.91
10.000,-19.16
10.015,-6.28
10.031,6.18
10.046,17.04
10.062,25.72
10.078,32.17
10.093,36.67
10.109,39.59
10.125,41.23
10.140,41.74
10.156,41.39
10.171,40.5
10.187,39.56
10.203,39.01
10.218,39.17
10.234,40.02
10.250,41.26
10.265,42.45
10.281,43.19
10.296,43.32
10.312,42.99
10.328,42.62
10.343,42.64
10.359,43.25
10.375,44.3
10.390,45.24
10.406,45.42
10.421,44.4
10.437,42.29
10.453,39.82
10.468,38.05
10.484,37.85
10.500,39.49
10.515,42.41
10.531,45.42
10.546,47.31
10.562,47.32
10.578,45.39
10.593,41.98
10.609,37.77
10.625,33.41
10.640,29.65
10.656,27.37
10.671,27.43
10.687,30.06
10.703,34.19
10.718,37.17
10.734,35.52
10.750,26.47
10.765,9.69
10.781,-11.89
10.796,-32.67
10.812,-46.28
10.828,-47.94
10.843,-36.07
10.859,-12.68
10.875,17.69
10.890,49.63
10.906,78.43
10.921,100.98
10.937,116.01
10.953,123.62
10.968,124.72
10.984,120.54
11.000,112.73
11.015,103.62
11.031,96.21
11.046,93.48
11.062,97.26
11.078,107.14
11.093,120.46
11.109,133.26
11.125,142.14
11.140,145.71
11.156,144.94
11.171,142.17
11.187,139.49
11.203,137.56
11.218,135.31
11.234,130.78
11.250,122.4
11.265,109.79
11.281,93.8
11.296,75.86
11.312,57.09
11.328,37.76
11.343,17.21
11.359,-5.63
11.375,-31.51
11.390,-60.15
11.406,-89.77
11.421,-117.49
11.437,-140.02
11.453,-154.74
11.468,-160.51
11.484,-157.79
11.500,-148.44
11.515,-135.18
11.531,-121.3
11.546,-110.43
11.562,-106.3
11.578,-112.17
11.593,-129.79
11.609,-158.51
11.625,-194.96
11.640,-233.86
11.656,-269.57
11.671,-297.81
11.687,-316.5
11.703,-325.72
11.718,-326.72
11.734,-320.87
11.750,-309.23
11.765,-292.75
11.781,-272.79
11.796,-251.24
11.812,-230.44
11.828,-212.4
11.843,-198.37
11.859,-188.65
11.875,-182.29
11.890,-176.9
11.906,-168.48
11.921,-152.08
11.937,-123.78
11.953,-83.49
11.968,-36.91
11.984,5.17
12.000,30.48
12.015,30.78
12.031,5.9
12.046,-35.61
12.062,-79.96
12.078,-113.72
12.093,-128.67
12.109,-123.5
12.125,-102.28
12.140,-71.32
12.156,-36.39
12.171,-1.78
12.187,29.26
12.203,53.78
12.218,69.26
12.234,74.42
12.250,70.29
12.265,60.27
12.281,49.03
12.296,41.03
12.312,38.79
12.328,42.24
12.343,49.06
12.359,55.8
12.375,59.33
12.390,58.09
12.406,52.57
12.421,45.02
12.437,38.44
12.453,35.25
12.468,36.33
12.484,40.81
12.500,46.5
12.515,50.87
12.531,52.05
12.546,49.48
12.562,43.79
12.578,36.4
12.593,28.68
12.609,21.42
12.625,14.59
12.640,7.64
12.671,-8.44
12.687,-17.02
12.703,-24.46
12.718,-29.16
12.734,-29.88
12.750,-26.08
12.765,-18.21
12.781,-7.51
12.796,4.36
12.812,15.81
12.828,25.75
12.843,33.59
12.859,39.2
12.875,42.56
12.890,43.65
12.906,42.38
12.921,38.84
12.937,33.46
12.953,27.18
12.968,21.22
12.984,16.76
13.000,14.58
13.015,14.78
13.031,16.76
13.046,19.52
13.062,22.08
13.078,23.79
13.093,24.48
13.109,24.33
13.125,23.57
13.140,22.17
13.156,19.82
13.171,16.06
13.187,10.66
13.203,3.89
13.218,-3.48
13.234,-10.42
13.250,-16.14
13.265,-20.59
13.281,-24.43
13.296,-28.8
13.312,-34.64
13.328,-42.1
13.343,-50.26
13.359,-57.41
13.375,-61.59
13.390,-61.43
13.406,-56.62
13.421,-48.06
13.437,-37.4
13.453,-26.46
13.468,-16.65
13.484,-8.71
13.500,-2.72
13.515,1.8
13.531,5.56
13.546,9.46
13.562,14.41
13.578,21.03
13.593,29.36
13.609,38.55
13.625,46.87
13.640,52.13
13.656,52.51
13.671,47.26
13.687,37.08
13.703,23.82
13.718,9.74
13.734,-3.41
13.750,-14.87
13.765,-24.88
13.781,-34.27
13.796,-43.82
13.812,-53.91
13.828,-64.43
13.843,-74.98
13.859,-85.08
13.875,-94.29
13.890,-102.24
13.906,-108.66
13.921,-113.52
13.937,-117.11
13.953,-120.0
13.968,-122.81
13.984,-125.7
14.000,-128.01
14.015,-128.24
14.031,-124.52
14.046,-115.42
14.062,-100.76
14.078,-82.1
14.093,-62.54
14.109,-45.85
14.125,-35.17
14.140,-31.63
14.156,-33.87
14.171,-38.34
14.187,-40.69
14.203,-37.65
14.218,-28.01
14.234,-12.52
14.250,7.68
14.265,32.23
14.281,62.15
14.296,98.49
14.312,140.47
14.328,184.6
14.343,225.9
14.359,260.9
14.375,290.11
14.390,317.9
14.406,349.33
14.421,385.72
14.437,421.9
14.453,447.7
14.468,452.78
14.484,432.22
14.500,389.3
14.515,333.9
14.531,277.48
14.546,227.77
14.562,186.62
14.578,151.09
14.593,117.04
14.609,82.53
14.625,48.69
14.640,18.54
14.656,-5.3
14.671,-22.05
14.687,-32.58
14.703,-38.29
14.718,-39.85
14.734,-36.93
14.750,-28.74
14.765,-15.36
14.781,1.45
14.796,18.32
14.812,31.28
14.828,37.11
14.843,34.4
14.859,24.06
14.875,8.79
14.890,-7.89
14.906,-22.82
14.921,-33.84
14.937,-40.35
14.953,-42.81
14.968,-42.5
14.984,-40.8
15.000,-38.62
15.015,-36.46
15.031,-34.43
15.046,-32.74
15.062,-31.38
15.078,-30.22
15.093,-28.73
15.109,-25.88
15.125,-20.37
15.140,-11.28
15.156,1.19
15.171,15.29
15.187,27.9
15.203,35.6
15.218,35.84
15.234,27.93
15.250,13.38
15.265,-4.57
15.281,-22.3
15.296,-36.73
15.312,-46.2
15.328,-50.44
15.343,-50.0
15.359,-45.74
15.375,-38.63
15.390,-29.91
15.406,-21.27
15.421,-14.45
15.437,-10.39
15.453,-8.05
15.468,-4.68
15.484,2.86
15.500,16.25
15.515,34.12
15.531,52.12
15.546,64.65
15.562,67.29
15.578,58.96
15.593,42.18
15.609,21.65
15.625,2.16
15.640,-13.27
15.656,-23.89
15.671,-30.54
15.687,-34.61
15.703,-37.12
15.718,-38.48
15.734,-38.69
15.750,-37.7
15.765,-35.54
15.781,-32.64
15.796,-29.57
15.812,-27.04
15.828,-25.58
15.843,-25.5
15.859,-26.86
15.875,-29.69
15.890,-34.17
15.906,-40.53
15.921,-48.99
15.937,-59.51
15.953,-71.51
15.968,-83.91
15.984,-95.28
16.000,-104.08
16.015,-109.13
16.031,-109.81
16.046,-106.2
16.062,-99.07
16.078,-89.65
16.093,-79.33
16.109,-69.33
16.125,-60.5
16.140,-53.15
16.156,-47.24
16.171,-42.54
16.187,-38.84
16.203,-36.09
16.218,-34.32
16.234,-33.5
16.250,-33.43
16.265,-33.72
16.281,-33.94
16.296,-33.76
16.312,-33.0
16.328,-31.63
16.343,-29.65
16.359,-27.07
16.375,-23.96
16.390,-20.55
16.406,-17.25
16.421,-14.59
16.437,-13.02
16.453,-12.75
16.468,-13.68
16.484,-15.53
16.500,-17.95
16.515,-20.63
16.531,-23.37
16.546,-26.02
16.562,-28.4
16.578,-30.36
16.593,-31.79
16.609,-32.62
16.625,-32.92
16.640,-32.68
16.656,-31.77
16.671,-29.95
16.687,-26.93
16.703,-22.42
16.718,-16.39
16.734,-9.09
16.750,-1.05
16.765,7.05
16.781,14.56
16.796,21.04
16.812,26.28
16.828,30.28
16.843,33.17
16.859,35.09
16.875,36.12
16.890,36.44
16.906,36.31
16.921,36.15
16.937,36.45
16.953,37.4
16.968,38.83
16.984,40.17
17.000,40.71
17.015,39.99
17.031,38.06
17.046,35.43
17.062,32.81
17.078,30.74
17.093,29.38
17.109,28.46
17.125,27.53
17.140,26.26
17.156,24.56
17.171,22.55
17.187,20.39
17.203,18.12
17.218,15.68
17.234,12.94
17.250,9.92
17.265,6.84
17.281,4.22
17.296,2.71
17.312,2.96
17.328,5.34
17.343,9.82
17.359,15.93
17.375,22.94
17.390,30.02
17.406,36.55
17.421,42.26
17.437,47.33
17.453,52.28
17.468,57.83
17.484,64.68
17.500,73.32
17.515,83.84
17.531,95.93
17.546,108.9
17.562,121.87
17.578,133.93
17.593,144.24
17.609,152.09
17.625,157.02
17.640,158.93
17.656,158.21
17.671,155.64
17.687,152.01
17.703,147.92
17.718,143.71
17.734,139.81
17.750,137.09
17.765,137.0
17.781,141.1
17.796,150.36
17.812,164.34
17.828,180.97
17.843,196.91
17.859,208.58
17.875,213.09
17.890,208.92
17.906,195.99
17.921,175.38
17.937,149.11
17.953,119.81
17.968,90.39
17.984,63.43
18.000,40.51
18.015,21.87
18.031,6.59
18.046,-6.62
18.062,-18.72
18.078,-29.81
18.093,-39.26
18.109,-46.21
18.125,-50.22
18.140,-51.53
18.156,-50.94
18.171,-49.41
18.187,-47.76
18.203,-46.73
18.218,-47.07
18.234,-49.66
18.250,-55.17
18.265,-63.45
18.281,-73.12
18.296,-81.64
18.312,-85.98
18.328,-83.74
18.343,-74.07
18.359,-58.04
18.375,-38.38
18.390,-18.59
18.406,-1.95
18.421,9.24
18.437,13.95
18.453,12.29
18.468,5.17
18.484,-6.17
18.500,-20.42
18.515,-36.42
18.531,-53.27
18.546,-70.43
18.562,-87.69
18.578,-105.07
18.593,-122.66
18.609,-140.37
18.625,-157.85
18.640,-174.54
18.656,-189.88
18.671,-203.56
18.687,-215.66
18.703,-226.64
18.718,-236.94
18.734,-246.71
18.750,-255.44
18.765,-262.09
18.781,-265.48
18.796,-264.72
18.812,-259.64
18.828,-250.78
18.843,-239.15
18.859,-225.74
18.875,-211.22
18.890,-195.78
18.906,-179.3
18.921,-161.59
18.937,-142.66
18.953,-122.8
18.968,-102.54
18.984,-82.57
19.000,-63.64
19.015,-46.41
19.031,-31.36
19.046,-18.74
19.062,-8.47
19.078,-0.24
19.093,6.25
19.109,10.94
19.125,13.32
19.140,12.61
19.156,8.2
19.171,0.3
19.187,-9.81
19.203,-20.0
19.218,-27.86
19.234,-31.53
19.250,-30.18
19.265,-24.21
19.281,-14.78
19.296,-3.27
19.312,9.16
19.328,21.72
19.343,33.81
19.359,44.74
19.375,53.58
19.390,59.42
19.406,61.72
19.421,60.62
19.437,56.9
19.453,51.65
19.468,45.8
19.484,39.64
19.500,32.89
19.515,25.01
19.531,15.77
19.546,5.57
19.562,-4.7
19.578,-14.0
19.593,-21.75
19.609,-28.06
19.625,-33.62
19.640,-39.09
19.656,-44.65
19.671,-49.79
19.687,-53.61
19.703,-55.43
19.718,-55.27
19.734,-53.95
19.750,-52.69
19.765,-52.5
19.781,-53.74
19.796,-56.16
19.812,-59.27
19.828,-62.77
19.843,-66.71
19.859,-71.08
19.875,-75.31
19.890,-78.19
19.906,-78.45
19.921,-75.75
19.937,-71.43
19.953,-68.14
19.968,-68.62
19.984,-74.21
20.000,-84.01
20.015,-95.33
20.031,-105.18
20.046,-111.79
20.062,-115.28
20.078,-117.09
20.093,-118.66
20.109,-120.24
20.125,-120.72
20.140,-118.34
20.156,-111.99
20.171,-101.97
20.187,-89.97
20.203,-78.2
20.218,-68.2
20.234,-60.15
20.250,-52.97
20.265,-44.98
20.281,-35.13
20.296,-23.76
20.312,-12.78
20.328,-4.88
20.343,-2.38
20.359,-5.99
20.375,-14.31
20.390,-24.19
20.406,-31.96
20.421,-34.67
20.437,-31.09
20.453,-21.85
20.468,-8.78
20.484,5.91
20.500,20.55
20.515,34.23
20.531,46.7
20.546,57.85
20.562,67.4
20.578,74.82
20.593,79.54
20.609,81.39
20.625,80.71
20.640,78.39
20.656,75.48
20.671,72.8
20.687,70.64
20.703,68.69
20.718,66.34
20.734,62.95
20.750,58.3
20.765,52.64
20.781,46.69
20.796,41.34
20.812,37.33
20.828,35.0
20.843,34.19
20.859,34.34
20.875,34.68
20.890,34.46
20.906,33.06
20.921,30.16
20.937,25.68
20.953,19.87
20.968,13.2
20.984,6.38
21.000,0.3
21.015,-4.14
21.031,-6.2
21.046,-5.51
21.062,-2.19
21.078,3.2
21.093,9.84
21.109,16.94
21.125,23.92
21.140,30.42
21.156,36.25
21.171,41.15
21.187,44.79
21.203,46.77
21.218,46.91
21.234,45.39
21.250,42.8
21.265,39.96
21.281,37.65
21.296,36.36
21.312,36.11
21.328,36.6
21.343,37.39
21.359,38.08
21.375,38.47
21.390,38.46
21.406,38.05
21.421,37.17
21.437,35.75
21.453,33.75
21.468,31.28
21.484,28.59
21.500,26.05
21.515,23.92
21.531,22.21
21.546,20.65
21.562,18.8
21.578,16.42
21.593,13.66
21.609,11.27
21.625,10.35
21.640,11.97
21.656,16.75
21.671,24.49
21.687,34.24
21.703,44.65
21.718,54.45
21.734,62.87
21.750,69.71
21.765,75.17
21.781,79.43
21.796,82.47
21.812,83.97
21.828,83.54
21.843,81.04
21.859,76.76
21.875,71.39
21.890,65.77
21.906,60.58
21.921,56.06
21.937,51.95
21.953,47.66
21.968,42.55
21.984,36.24
22.000,28.84
22.015,21.05
22.031,14.09
22.046,9.38
22.062,8.09
22.078,10.78
22.093,16.99
22.109,25.38
22.125,34.13
22.140,41.45
22.156,46.28
22.171,48.62
22.187,49.51
22.203,50.69
22.218,53.94
22.234,60.41
22.250,70.04
22.265,81.6
22.281,92.99
22.296,102.12
22.312,107.72
22.328,109.72
22.343,109.15
22.359,107.53
22.375,106.18
22.390,105.69
22.406,105.67
22.421,104.75
22.437,101.24
22.453,93.85
22.468,82.64
22.484,69.66
22.500,58.65
22.515,54.05
22.531,59.11
22.546,74.41
22.562,97.2
22.578,122.38
22.593,144.48
22.609,159.66
22.625,166.73
22.640,166.82
22.656,162.07
22.671,154.36
22.687,144.88
22.703,134.4
22.718,123.91
22.734,114.75
22.750,108.1
22.765,104.18
22.781,101.6
22.796,97.65
22.812,89.25
22.828,74.46
22.843,53.43
22.859,28.55
22.875,3.47
22.890,-18.5
22.906,-35.64
22.921,-48.46
22.937,-59.18
22.953,-70.53
22.968,-84.35
22.984,-100.83
23.000,-118.59
23.015,-135.39
23.031,-149.22
23.046,-159.11
23.062,-165.25
23.078,-168.68
23.093,-170.59
23.109,-171.82
23.125,-172.67
23.140,-173.01
23.156,-172.54
23.171,-171.06
23.187,-168.59
23.203,-165.34
23.218,-161.71
23.234,-158.19
23.250,-155.24
23.265,-153.26
23.281,-152.41
23.296,-152.57
23.312,-153.29
23.328,-153.88
23.343,-153.56
23.359,-151.61
23.375,-147.47
23.390,-140.77
23.406,-131.3
23.421,-119.08
23.437,-104.46
23.453,-88.13
23.468,-71.1
23.484,-54.48
23.500,-39.17
23.515,-25.54
23.531,-13.47
23.546,-2.59
23.562,7.34
23.578,16.01
23.593,22.46
23.609,25.38
23.625,23.82
23.640,17.76
23.656,8.56
23.671,-1.29
23.687,-8.86
23.703,-11.82
23.718,-9.24
23.734,-1.82
23.750,8.49
23.765,19.34
23.781,28.73
23.796,35.53
23.812,39.33
23.828,40.35
23.843,39.08
23.859,36.33
23.875,33.09
23.890,30.39
23.906,28.87
23.921,28.29
23.937,27.39
23.953,24.21
23.968,16.82
23.984,4.25
24.000,-13.07
24.015,-33.22
24.031,-53.34
24.046,-70.34
24.062,-81.62
24.078,-85.49
24.093,-81.6
24.109,-70.9
24.125,-55.56
24.140,-38.36
24.156,-21.98
24.171,-8.28
24.187,2.14
24.203,9.79
24.218,15.75
24.234,21.06
24.250,26.29
24.265,31.66
24.281,37.34
24.296,43.92
24.312,52.32
24.328,63.55
24.343,78.08
24.359,95.44
24.375,114.11
24.390,131.86
24.406,146.16
24.421,154.82
24.437,156.14
24.453,149.11
24.468,133.5
24.484,109.92
24.500,79.93
24.515,45.96
24.531,10.87
24.546,-22.71
24.562,-53.02
24.578,-79.5
24.593,-102.51
24.609,-122.42
24.625,-138.79
24.640,-149.79
24.656,-152.5
24.671,-144.09
24.687,-123.09
24.703,-90.26
24.718,-48.72
24.734,-3.0
24.750,42.16
24.765,82.91
24.781,116.92
24.796,143.47
24.812,163.1
24.828,177.18
24.843,187.43
24.859,195.33
24.875,201.56
24.890,205.67
24.906,206.05
24.921,200.78
24.937,188.57
24.953,169.65
24.968,145.75
24.984,119.45
25.000,92.99
25.015,67.54
25.031,43.27
25.046,20.04
25.062,-1.63
25.078,-20.38
25.093,-34.51
25.109,-43.07
25.125,-46.63
25.140,-47.31
25.156,-47.82
25.171,-50.21
25.187,-54.9
25.203,-60.66
25.218,-65.26
25.234,-66.62
25.250,-63.62
25.265,-56.48
25.281,-46.43
25.296,-35.09
25.312,-23.86
25.328,-13.57
25.343,-4.43
25.359,3.78
25.375,11.43
25.390,18.82
25.406,26.0
25.421,32.7
25.437,38.42
25.453,42.68
25.468,45.23
25.484,46.38
25.500,46.81
25.515,47.18
25.531,47.63
25.546,47.49
25.562,45.54
25.578,40.76
25.593,33.12
25.609,23.85
25.625,15.05
25.640,8.59
25.656,5.21
25.671,4.22
25.687,4.12
25.703,3.7
25.718,2.86
25.734,2.58
25.750,3.95
25.765,7.02
25.781,10.36
25.796,11.59
25.812,8.68
25.828,1.12
25.843,-9.64
25.859,-20.88
25.875,-29.87
25.890,-35.03
25.906,-36.32
25.921,-34.97
25.937,-32.66
25.953,-30.9
25.968,-30.78
25.984,-33.01
26.000,-38.09
26.015,-46.3
26.031,-57.56
26.046,-71.27
26.062,-86.32
26.078,-101.31
26.093,-114.8
26.109,-125.59
26.125,-132.86
26.140,-136.27
26.156,-135.95
26.171,-132.54
26.187,-127.12
26.203,-120.97
26.218,-115.22
26.234,-110.47
26.250,-106.54
26.265,-102.45
26.281,-96.73
26.296,-87.95
26.312,-75.23
26.328,-58.52
26.343,-38.68
26.359,-17.12
26.375,4.64
26.390,25.28
26.406,43.97
26.421,60.33
26.437,74.34
26.453,86.27
26.468,96.77
26.484,106.81
26.500,117.61
26.515,129.87
26.531,143.23
26.546,155.59
26.562,163.38
26.578,162.48
26.593,149.62
26.609,123.44
26.625,84.8
26.640,36.4
26.656,-18.1
26.671,-74.54
26.687,-128.6
26.703,-175.95
26.718,-212.85
26.734,-237.05
26.750,-248.55
26.765,-249.72
26.781,-244.43
26.796,-236.49
26.812,-228.39
26.828,-220.58
26.843,-212.04
26.859,-201.1
26.875,-186.47
26.890,-167.64
26.906,-144.94
26.921,-119.2
26.937,-91.55
26.953,-63.27
26.968,-35.77
26.984,-10.44
27.000,11.42
27.015,28.84
27.031,41.38
27.046,49.3
27.062,53.62
27.078,55.88
27.093,57.6
27.109,59.78
27.125,62.51
27.140,65.14
27.156,66.76
27.171,66.77
27.187,65.13
27.203,62.25
27.218,58.67
27.234,54.63
27.250,50.12
27.265,44.99
27.281,39.2
27.296,32.88
27.312,26.15
27.328,19.0
27.343,11.19
27.359,2.59
27.375,-6.61
27.390,-15.49
27.406,-22.63
27.421,-26.41
27.437,-25.67
27.453,-20.2
27.468,-10.8
27.484,0.94
27.500,13.31
27.515,25.02
27.531,35.45
27.546,44.47
27.562,51.94
27.578,57.35
27.593,59.68
27.609,57.84
27.625,51.2
27.640,40.13
27.656,25.91
27.671,10.42
27.687,-4.55
27.703,-17.76
27.718,-28.64
27.734,-37.05
27.750,-42.93
27.765,-46.2
27.781,-46.88
27.796,-45.46
27.812,-43.06
27.828,-41.36
27.843,-42.08
27.859,-46.28
27.875,-53.86
27.890,-63.44
27.906,-72.74
27.921,-79.38
27.937,-81.6
27.953,-78.74
27.968,-71.29
27.984,-60.44
28.000,-47.58
28.015,-33.87
28.031,-20.06
28.046,-6.73
28.062,5.65
28.078,16.5
28.093,25.26
28.109,31.56
28.125,35.38
28.140,37.12
28.156,37.45
28.171,37.12
28.187,36.74
28.203,36.71
28.218,37.11
28.234,37.77
28.250,38.28
28.265,38.14
28.281,36.9
28.296,34.3
28.312,30.39
28.328,25.38
28.343,19.53
28.359,13.0
28.375,5.76
28.390,-2.28
28.406,-11.04
28.421,-20.1
28.437,-28.61
28.453,-35.43
28.468,-39.41
28.484,-39.72
28.500,-36.06
28.515,-28.67
28.531,-18.26
28.546,-5.76
28.562,7.82
28.578,21.53
28.593,34.46
28.609,45.81
28.625,54.85
28.640,61.04
28.656,64.13
28.671,64.2
28.687,61.66
28.703,57.15
28.718,51.45
28.734,45.27
28.750,39.16
28.765,33.45
28.781,28.23
28.796,23.44
28.812,18.98
28.828,14.77
28.843,10.77
28.859,6.96
28.875,3.22
28.890,-0.7
28.906,-5.1
28.921,-10.24
28.937,-16.27
28.953,-23.19
28.968,-30.9
28.984,-39.26
29.000,-48.01
29.015,-56.61
29.031,-64.09
29.046,-69.18
29.062,-70.51
29.078,-67.11
29.093,-58.85
29.109,-46.58
29.125,-31.9
29.140,-16.61
29.156,-2.15
29.171,10.68
29.187,21.72
29.203,31.07
29.218,38.72
29.234,44.41
29.250,47.78
29.265,48.7
29.281,47.55
29.296,45.23
29.312,42.88
29.328,41.49
29.343,41.55
29.359,43.05
29.375,45.6
29.390,48.8
29.406,52.31
29.421,55.87
29.437,59.09
29.453,61.23
29.468,61.26
29.484,58.06
29.500,50.93
29.515,39.98
29.531,26.16
29.546,10.99
29.562,-3.9
29.578,-17.31
29.593,-28.62
29.609,-37.66
29.625,-44.41
29.640,-48.58
29.656,-49.68
29.671,-47.19
29.687,-40.97
29.703,-31.53
29.718,-20.03
29.734,-7.94
29.750,3.45
29.765,13.39
29.781,21.79
29.796,28.87
29.812,34.88
29.828,39.75
29.843,43.1
29.859,44.45
29.875,43.63
29.890,40.89
29.906,36.94
29.921,32.67
29.937,28.79
29.953,25.73
29.968,23.53
29.984,22.03
30.000,21.03
30.015,20.4
30.031,20.06
30.046,19.94
30.062,19.95
30.078,19.96
30.093,19.8
30.109,19.26
30.125,18.12
30.140,16.15
30.156,13.2
30.171,9.22
30.187,4.22
30.203,-1.67
30.218,-8.16
30.234,-14.66
30.250,-20.29
30.265,-23.85
30.281,-24.22
30.296,-20.62
30.312,-13.05
30.328,-2.33
30.343,10.07
30.359,22.51
30.375,33.65
30.390,42.74
30.406,49.61
30.421,54.47
30.437,57.7
30.453,59.6
30.468,60.35
30.484,60.01
30.500,58.49
30.515,55.6
30.531,51.12
30.546,44.92
30.562,37.09
30.578,28.11
30.593,18.72
30.609,9.84
30.625,2.25
30.640,-3.55
30.656,-7.44
30.671,-9.57
30.687,-10.32
30.703,-10.18
30.718,-9.76
30.734,-9.73
30.750,-10.75
30.765,-13.36
30.781,-17.77
30.796,-23.92
30.812,-31.46
30.828,-39.95
30.843,-48.96
30.859,-57.93
30.875,-66.11
30.890,-72.43
30.906,-75.68
30.921,-74.86
30.937,-69.58
30.953,-60.34
30.968,-48.42
30.984,-35.53
31.000,-23.25
31.015,-12.61
31.031,-3.96
31.046,2.99
31.062,8.71
31.078,13.69
31.093,18.14
31.109,22.07
31.125,25.37
31.140,28.04
31.156,30.25
31.171,32.35
31.187,34.74
31.203,37.69
31.218,41.16
31.234,44.83
31.250,48.28
31.265,51.24
31.281,53.73
31.296,56.11
31.312,58.8
31.328,62.09
31.343,65.85
31.359,69.58
31.375,72.63
31.390,74.41
31.406,74.51
31.421,72.68
31.437,68.72
31.453,62.41
31.468,53.65
31.484,42.64
31.500,30.1
31.515,17.14
31.531,4.92
31.546,-5.87
31.562,-15.27
31.578,-24.01
31.593,-33.03
31.609,-42.87
31.625,-53.31
31.640,-63.52
31.656,-72.4
31.671,-79.17
31.687,-83.57
31.703,-85.79
31.718,-86.14
31.734,-84.85
31.750,-82.04
31.765,-77.99
31.781,-73.44
31.796,-69.45
31.812,-67.16
31.828,-67.17
31.843,-69.18
31.859,-72.01
31.875,-73.97
31.890,-73.41
31.906,-69.23
31.921,-61.2
31.937,-49.85
31.953,-36.24
31.968,-21.57
31.984,-6.89
32.000,7.04
32.015,19.74
32.031,30.86
32.046,39.87
32.062,46.02
32.078,48.43
32.093,46.4
32.109,39.8
32.125,29.21
32.140,15.8
32.156,0.94
32.171,-14.21
32.187,-29.03
32.203,-43.26
32.218,-56.68
32.234,-68.72
32.250,-78.38
32.265,-84.43
32.281,-85.97
32.296,-82.77
32.312,-75.51
32.328,-65.46
32.343,-54.05
32.359,-42.48
32.375,-31.5
32.390,-21.47
32.406,-12.54
32.421,-4.79
32.437,1.69
32.453,6.82
32.468,10.6
32.484,13.14
32.500,14.69
32.515,15.61
32.531,16.31
32.546,17.22
32.562,18.64
32.578,20.66
32.593,23.09
32.609,25.5
32.625,27.37
32.640,28.29
32.656,28.05
32.671,26.66
32.687,24.26
32.703,20.98
32.718,16.92
32.734,12.18
32.750,6.9
32.765,1.41
32.781,-3.82
32.796,-8.33
32.812,-11.79
32.828,-14.2
32.843,-15.89
32.859,-17.51
32.875,-19.79
32.890,-23.31
32.906,-28.26
32.921,-34.31
32.937,-40.62
32.953,-45.98
32.968,-49.08
32.984,-48.87
33.000,-44.83
33.015,-37.11
33.031,-26.5
33.046,-14.17
33.062,-1.42
33.078,10.64
33.093,21.18
33.109,29.8
33.125,36.32
33.140,40.83
33.156,43.57
33.171,44.9
33.187,45.27
33.203,45.11
33.218,44.79
33.234,44.47
33.250,44.1
33.265,43.47
33.281,42.38
33.296,40.74
33.312,38.61
33.328,36.2
33.343,33.69
33.359,31.19
33.375,28.68
33.390,26.12
33.406,23.45
33.421,20.66
33.437,17.77
33.453,14.74
33.468,11.43
33.484,7.65
33.500,3.25
33.515,-1.73
33.531,-7.07
33.546,-12.44
33.562,-17.55
33.578,-22.31
33.593,-26.97
33.609,-31.99
33.625,-37.87
33.640,-44.9
33.656,-52.88
33.671,-61.01
33.687,-68.01
33.703,-72.4
33.718,-72.98
33.734,-69.19
33.750,-61.37
33.765,-50.51
33.781,-38.04
33.796,-25.26
33.812,-13.16
33.828,-2.3
33.843,7.1
33.859,14.88
33.875,20.91
33.890,25.07
33.906,27.41
33.921,28.19
33.937,27.94
33.953,27.29
33.968,26.7
33.984,26.42
34.000,26.34
34.015,26.2
34.031,25.72
34.046,24.81
34.062,23.64
34.078,22.58
34.093,21.97
34.109,21.92
34.125,22.21
34.140,22.33
34.156,21.74
34.171,20.08
34.187,17.37
34.203,14.02
34.218,10.67
34.234,7.95
34.250,6.31
34.265,5.82
34.281,6.27
34.296,7.19
34.312,7.89
34.328,7.61
34.343,5.6
34.359,1.31
34.375,-5.19
34.390,-13.12
34.406,-20.89
34.421,-26.56
34.437,-28.38
34.453,-25.51
34.468,-18.24
34.484,-7.84
34.500,3.98
34.515,15.86
34.531,27.07
34.546,37.51
34.562,47.19
34.578,55.7
34.593,62.03
34.609,64.78
34.625,62.89
34.640,56.16
34.656,45.59
34.671,32.93
34.687,20.07
34.703,8.39
34.718,-1.67
34.734,-10.34
34.750,-18.12
34.765,-25.26
34.781,-31.62
34.796,-36.79
34.812,-40.5
34.828,-42.86
34.843,-44.46
34.859,-46.1
34.875,-48.48
34.890,-51.84
34.906,-55.93
34.921,-60.01
34.937,-63.16
34.953,-64.51
34.968,-63.46
34.984,-60.01
35.000,-54.72
35.015,-48.72
35.031,-43.49
35.046,-40.41
35.062,-40.3
35.078,-42.96
35.093,-47.02
35.109,-50.21
35.125,-49.96
35.140,-44.24
35.156,-32.28
35.171,-14.82
35.187,6.08
35.203,27.94
35.218,48.64
35.234,67.09
35.250,83.36
35.265,98.3
35.281,112.9
35.296,127.77
35.312,142.76
35.328,156.74
35.343,167.54
35.359,172.11
35.375,167.1
35.390,149.85
35.406,119.54
35.421,78.06
35.437,29.96
35.453,-18.64
35.468,-61.73
35.484,-95.03
35.500,-116.8
35.515,-127.59
35.531,-129.21
35.546,-123.74
35.562,-112.93
35.578,-98.28
35.593,-81.33
35.609,-63.85
35.625,-47.6
35.640,-33.85
35.656,-22.89
35.671,-13.93
35.687,-5.53
35.703,3.61
35.718,13.89
35.734,24.28
35.750,32.62
35.765,36.42
35.781,34.03
35.796,25.52
35.812,12.78
35.828,-1.26
35.843,-13.91
35.859,-23.68
35.875,-30.41
35.890,-34.65
35.906,-36.65
35.921,-35.84
35.937,-31.09
35.953,-21.59
35.968,-7.72
35.984,8.73
36.000,25.21
36.015,39.5
36.031,50.66
36.046,59.1
36.062,66.08
36.078,72.75
36.093,79.6
36.109,86.28
36.125,92.11
36.140,96.51
36.156,99.37
36.171,101.03
36.187,102.08
36.203,103.09
36.218,104.58
36.234,106.77
36.250,109.46
36.265,111.55
36.281,111.0
36.296,105.07
36.312,91.19
36.328,68.1
36.343,36.78
36.359,0.5
36.375,-36.02
36.390,-68.15
36.406,-92.81
36.421,-109.01
36.437,-117.74
36.453,-120.96
36.468,-120.68
36.484,-118.51
36.500,-115.48
36.515,-112.31
36.531,-109.39
36.546,-106.72
36.562,-103.73
36.578,-99.4
36.593,-92.55
36.609,-82.39
36.625,-68.92
36.640,-53.03
36.656,-36.28
36.671,-20.28
36.687,-6.38
36.703,4.72
36.718,12.95
36.734,18.71
36.750,22.76
36.765,25.98
36.781,29.28
36.796,33.22
36.812,37.89
36.828,42.59
36.843,45.98
36.859,46.25
36.875,41.84
36.890,31.88
36.906,16.58
36.921,-2.77
36.937,-24.25
36.953,-45.89
36.968,-66.29
36.984,-84.83
37.000,-101.69
37.015,-117.57
37.031,-133.17
37.046,-148.85
37.062,-164.32
37.078,-178.7
37.093,-190.82
37.109,-199.67
37.125,-204.85
37.140,-206.73
37.156,-206.16
37.171,-203.87
37.187,-199.9
37.203,-193.37
37.218,-182.8
37.234,-166.86
37.250,-145.14
37.265,-118.49
37.281,-88.75
37.296,-58.12
37.312,-28.29
37.328,-0.15
37.343,26.14
37.359,50.65
37.375,73.15
37.390,92.98
37.406,109.24
37.421,121.35
37.437,129.44
37.453,134.48
37.468,138.0
37.484,141.56
37.500,146.19
37.515,152.07
37.531,158.63
37.546,164.76
37.562,169.35
37.578,171.69
37.593,171.75
37.609,170.16
37.625,168.06
37.640,166.69
37.656,167.04
37.671,169.57
37.687,173.88
37.703,178.58
37.718,181.4
37.734,179.52
37.750,170.28
37.765,152.07
37.781,124.95
37.796,90.88
37.812,53.35
37.828,16.49
37.843,-15.88
37.859,-41.0
37.875,-57.52
37.890,-65.4
37.906,-65.65
37.921,-59.98
37.937,-50.5
37.953,-39.42
37.968,-28.74
37.984,-19.98
38.000,-13.94
38.015,-10.78
38.031,-10.21
38.046,-11.74
38.062,-15.04
38.078,-20.0
38.093,-26.76
38.109,-35.55
38.125,-46.33
38.140,-58.52
38.156,-70.89
38.171,-81.69
38.187,-89.12
38.203,-91.9
38.218,-89.63
38.234,-82.88
38.250,-72.94
38.265,-61.24
38.281,-48.88
38.296,-36.35
38.312,-23.66
38.328,-10.74
38.343,2.13
38.359,14.02
38.375,23.5
38.390,28.93
38.406,29.22
38.421,24.46
38.437,16.45
38.453,8.55
38.468,4.88
38.484,8.96
38.500,22.59
38.515,45.11
38.531,73.65
38.546,103.99
38.562,131.83
38.578,153.7
38.593,167.57
38.609,172.8
38.625,169.93
38.640,160.32
38.656,145.83
38.671,128.61
38.687,110.86
38.703,94.65
38.718,81.62
38.734,72.8
38.750,68.55
38.765,68.53
38.781,71.75
38.796,76.83
38.812,82.4
38.828,87.51
38.843,91.71
38.859,95.03
38.875,97.64
38.890,99.52
38.906,100.47
38.921,100.16
38.937,98.4
38.953,95.25
38.968,90.95
38.984,85.63
39.000,79.17
39.015,71.25
39.031,61.45
39.046,49.5
39.062,35.34
39.078,19.2
39.093,1.5
39.109,-17.11
39.125,-35.69
39.140,-52.9
39.156,-67.13
39.171,-76.81
39.187,-80.9
39.203,-79.32
39.218,-73.17
39.234,-64.5
39.250,-55.75
39.265,-49.06
39.281,-45.8
39.296,-46.28
39.312,-50.0
39.328,-56.05
39.343,-63.58
39.359,-72.02
39.375,-80.99
39.390,-90.13
39.406,-98.8
39.421,-106.09
39.437,-110.99
39.453,-112.79
39.468,-111.32
39.484,-107.1
39.500,-101.09
39.515,-94.3
39.531,-87.46
39.546,-80.82
39.562,-74.26
39.578,-67.5
39.593,-60.43
39.609,-53.12
39.625,-45.93
39.640,-39.2
39.656,-33.21
39.671,-28.14
39.687,-24.17
39.703,-21.67
39.718,-21.15
39.734,-23.09
39.750,-27.54
39.765,-33.87
39.781,-40.6
39.796,-45.67
39.812,-46.99
39.828,-43.03
39.843,-33.32
39.859,-18.7
39.875,-0.99
39.890,17.44
39.906,34.37
39.921,48.28
39.937,58.5
39.953,65.08
39.968,68.3
39.984,68.27
40.000,64.85
40.015,57.91
40.031,47.65
40.046,34.69
40.062,19.74
40.078,3.09
40.093,-15.63
40.109,-37.16
40.125,-61.8
40.140,-88.54
40.156,-114.88
40.171,-137.48
40.187,-153.31
40.203,-160.83
40.218,-160.41
40.234,-153.95
40.250,-143.92
40.265,-132.43
40.281,-120.89
40.296,-109.98
40.312,-100.18
40.328,-91.97
40.343,-85.91
40.359,-82.5
40.375,-81.84
40.390,-83.48
40.406,-86.4
40.421,-89.1
40.437,-89.91
40.453,-87.33
40.468,-80.5
40.484,-69.36
40.500,-54.81
40.515,-38.32
40.531,-21.62
40.546,-6.18
40.562,7.1
40.578,17.91
40.593,26.42
40.609,32.96
40.625,37.85
40.640,41.31
40.656,43.56
40.671,44.96
40.687,46.11
40.703,47.67
40.718,50.2
40.734,53.84
40.750,58.25
40.765,62.68
40.781,66.33
40.796,68.67
40.812,69.64
40.828,69.6
40.843,69.07
40.859,68.48
40.875,67.91
40.890,67.25
40.906,66.19
40.921,64.58
40.937,62.43
40.953,59.9
40.968,57.18
40.984,54.26
41.000,50.89
41.015,46.57
41.031,40.74
41.046,32.99
41.062,23.29
41.078,12.26
41.093,1.16
41.109,-8.29
41.125,-14.3
41.140,-15.55
41.156,-11.65
41.171,-3.24
41.187,8.25
41.203,21.03
41.218,33.51
41.234,44.58
41.250,53.73
41.265,60.82
41.281,65.87
41.296,68.96
41.312,70.23
41.328,69.93
41.343,68.36
41.359,65.85
41.375,62.54
41.390,58.47
41.406,53.65
41.421,48.15
41.437,42.27
41.453,36.47
41.468,31.24
41.484,26.91
41.500,23.5
41.515,20.82
41.531,18.57
41.546,16.48
41.562,14.34
41.578,12.0
41.593,9.29
41.609,5.94
41.625,1.72
41.640,-3.52
41.656,-9.73
41.671,-16.71
41.687,-24.12
41.703,-31.56
41.718,-38.53
41.734,-44.36
41.750,-48.15
41.765,-48.87
41.781,-45.61
41.796,-37.91
41.812,-26.05
41.828,-11.09
41.843,5.35
41.859,21.53
41.875,35.94
41.890,47.61
41.906,56.07
41.921,61.3
41.937,63.54
41.953,63.16
41.968,60.75
41.984,57.02
42.000,52.83
42.015,49.03
42.031,46.38
42.046,45.36
42.062,46.09
42.078,48.23
42.093,50.95
42.109,53.02
42.125,52.98
42.140,49.6
42.156,42.28
42.171,31.31
42.187,17.8
42.203,3.33
42.218,-10.59
42.234,-22.99
42.250,-33.61
42.265,-42.69
42.281,-50.68
42.296,-57.92
42.312,-64.6
42.328,-70.78
42.343,-76.53
42.359,-81.85
42.375,-86.47
42.390,-89.71
42.406,-90.45
42.421,-87.48
42.437,-79.9
42.453,-67.63
42.468,-51.57
42.484,-33.39
42.500,-15.12
42.515,1.44
42.531,15.03
42.546,25.18
42.562,32.01
42.578,36.12
42.593,38.19
42.609,38.87
42.625,38.62
42.640,37.78
42.656,36.65
42.671,35.5
42.687,34.68
42.703,34.42
42.718,34.81
42.734,35.59
42.750,36.28
42.765,36.28
42.781,35.16
42.796,32.68
42.812,28.93
42.828,24.17
42.843,18.71
42.859,12.86
42.875,6.86
42.890,0.88
42.906,-5.04
42.921,-11.01
42.937,-17.23
42.953,-24.04
42.968,-31.73
42.984,-40.47
43.000,-50.08
43.015,-59.92
43.031,-68.84
43.046,-75.3
43.062,-77.78
43.078,-75.12
43.093,-67.09
43.109,-54.48
43.125,-39.01
43.140,-22.83
43.156,-7.87
43.171,4.62
43.187,14.21
43.203,21.05
43.218,25.54
43.234,28.0
43.250,28.64
43.265,27.66
43.281,25.42
43.296,22.54
43.312,19.72
43.328,17.61
43.343,16.49
43.359,16.3
43.375,16.65
43.390,17.11
43.406,17.35
43.421,17.23
43.437,16.76
43.453,15.94
43.468,14.67
43.484,12.67
43.500,9.67
43.515,5.56
43.531,0.49
43.546,-5.05
43.562,-10.49
43.578,-15.3
43.593,-19.3
43.609,-22.7
43.625,-26.08
43.640,-30.17
43.656,-35.54
43.671,-42.28
43.687,-49.77
43.703,-56.75
43.718,-61.53
43.734,-62.58
43.750,-58.98
43.765,-50.73
43.781,-38.75
43.796,-24.54
43.812,-9.68
43.828,4.54
43.843,17.25
43.859,27.96
43.875,36.4
43.890,42.37
43.906,45.82
43.921,46.94
43.937,46.19
43.953,44.26
43.968,41.89
43.984,39.58
44.000,37.51
44.015,35.58
44.031,33.52
44.046,31.19
44.062,28.68
44.078,26.19
44.093,23.97
44.109,22.06
44.125,20.24
44.140,18.11
44.156,15.25
44.171,11.41
44.187,6.63
44.203,1.2
44.218,-4.44
44.234,-9.88
44.250,-14.83
44.265,-19.26
44.281,-23.43
44.296,-27.87
44.312,-33.22
44.328,-39.99
44.343,-48.25
44.359,-57.38
44.375,-66.08
44.390,-72.63
44.406,-75.35
44.421,-73.19
44.437,-66.08
44.453,-54.99
44.468,-41.65
44.484,-28.06
44.500,-15.94
44.515,-6.39
44.531,0.23
44.546,4.11
44.562,5.83
44.578,6.05
44.593,5.37
44.609,4.25
44.625,3.03
44.640,1.95
44.656,1.19
44.671,0.89
44.687,1.2
44.703,2.22
44.718,4.06
44.734,6.83
44.750,10.63
44.765,15.57
44.781,21.67
44.796,28.74
44.812,36.31
44.828,43.52
44.843,49.37
44.859,52.97
44.875,54.0
44.890,52.8
44.906,50.33
44.921,47.72
44.937,45.74
44.953,44.47
44.968,43.26
44.984,41.06
45.000,36.97
45.015,30.48
45.031,21.64
45.046,10.93
45.062,-0.95
45.078,-13.15
45.093,-24.67
45.109,-34.38
45.125,-41.13
45.140,-44.0
45.156,-42.62
45.171,-37.24
45.187,-28.62
45.203,-17.72
45.218,-5.23
45.234,8.46
45.250,23.05
45.265,37.66
45.281,50.34
45.296,58.08
45.312,57.64
45.328,46.79
45.343,25.6
45.359,-3.14
45.375,-34.56
45.390,-63.32
45.406,-85.34
45.421,-98.87
45.437,-104.51
45.453,-104.12
45.468,-99.52
45.484,-91.68
45.500,-80.65
45.515,-66.21
45.531,-48.79
45.546,-29.79
45.562,-11.33
45.578,4.53
45.593,16.66
45.609,25.15
45.625,31.14
45.640,36.07
45.656,41.0
45.671,46.25
45.687,51.56
45.703,56.4
45.718,60.27
45.734,62.69
45.750,63.03
45.765,60.55
45.781,54.62
45.796,45.31
45.812,33.7
45.828,21.8
45.843,11.97
45.859,6.07
45.875,4.92
45.890,8.14
45.906,14.54
45.921,22.69
45.937,31.31
45.953,39.39
45.968,46.19
45.984,51.21
46.000,54.19
46.015,55.21
46.031,54.68
46.046,53.25
46.062,51.68
46.078,50.66
46.093,50.67
46.109,51.81
46.125,53.7
46.140,55.55
46.156,56.49
46.171,55.92
46.187,53.92
46.203,51.28
46.218,49.1
46.234,48.34
46.250,49.27
46.265,51.43
46.281,53.96
46.296,55.91
46.312,56.63
46.328,55.83
46.343,53.51
46.359,49.89
46.375,45.38
46.390,40.54
46.406,35.9
46.421,31.68
46.437,27.48
46.453,22.37
46.468,15.17
46.484,5.12
46.500,-7.61
46.515,-21.75
46.531,-35.23
46.546,-45.89
46.562,-52.24
46.578,-54.0
46.593,-51.97
46.609,-47.67
46.625,-42.53
46.640,-37.47
46.656,-32.66
46.671,-27.85
46.687,-22.96
46.703,-18.42
46.718,-15.27
46.734,-14.67
46.750,-17.34
46.765,-23.19
46.781,-31.19
46.796,-39.76
46.812,-47.27
46.828,-52.43
46.843,-54.57
46.859,-53.61
46.875,-50.07
46.890,-44.97
46.906,-39.71
46.921,-35.86
46.937,-34.78
46.953,-37.28
46.968,-43.38
46.984,-52.36
47.000,-62.9
47.015,-73.55
47.031,-83.04
47.046,-90.54
47.062,-95.74
47.078,-98.86
47.093,-100.52
47.109,-101.52
47.125,-102.53
47.140,-103.77
47.156,-104.78
47.171,-104.45
47.187,-101.35
47.203,-94.29
47.218,-82.85
47.234,-67.63
47.250,-50.15
47.265,-32.35
47.281,-15.99
47.296,-2.29
47.312,8.26
47.328,15.72
47.343,20.4
47.359,22.64
47.375,22.7
47.390,20.84
47.406,17.48
47.421,13.24
47.437,8.9
47.453,5.25
47.468,2.84
47.484,1.83
47.500,2.0
47.515,2.89
47.531,4.01
47.546,5.08
47.562,6.07
47.578,7.08
47.593,8.17
47.609,9.19
47.625,9.78
47.640,9.58
47.656,8.42
47.671,6.45
47.687,4.12
47.703,1.99
47.718,0.45
47.734,-0.49
47.750,-1.28
47.765,-2.7
47.781,-5.59
47.796,-10.55
47.812,-17.69
47.828,-26.49
47.843,-35.83
47.859,-44.12
47.875,-49.75
47.890,-51.42
47.906,-48.55
47.921,-41.36
47.937,-30.77
47.953,-18.13
47.968,-4.9
47.984,7.66
48.000,18.61
48.015,27.4
48.031,33.83
48.046,37.95
48.062,39.88
48.078,39.72
48.093,37.35
48.109,32.74
48.125,26.02
48.140,17.9
48.156,9.63
48.171,2.79
48.187,-1.25
48.203,-1.79
48.218,1.01
48.234,6.21
48.250,12.61
48.265,19.14
48.281,25.29
48.296,31.09
48.312,36.91
48.328,43.15
48.343,49.87
48.359,56.63
48.375,62.62
48.390,66.95
48.406,69.05
48.421,68.97
48.437,67.49
48.453,65.86
48.468,65.51
48.484,67.62
48.500,72.72
48.515,80.35
48.531,88.92
48.546,95.66
48.562,97.2
48.578,90.39
48.593,73.52
48.609,47.23
48.625,14.63
48.640,-19.38
48.656,-49.71
48.671,-72.49
48.687,-86.07
48.703,-90.97
48.718,-89.18
48.734,-83.08
48.750,-74.64
48.765,-65.17
48.781,-55.45
48.796,-46.04
48.812,-37.46
48.828,-30.22
48.843,-24.58
48.859,-20.52
48.875,-17.73
48.890,-15.76
48.906,-14.28
48.921,-13.22
48.937,-12.86
48.953,-13.66
48.968,-16.08
48.984,-20.2
49.000,-25.66
49.015,-31.64
49.031,-37.22
49.046,-41.72
49.062,-44.97
49.078,-47.42
49.093,-49.77
49.109,-52.8
49.125,-56.96
49.140,-62.35
49.156,-68.75
49.171,-75.75
49.187,-82.78
49.203,-89.0
49.218,-93.33
49.234,-94.49
49.250,-91.38
49.265,-83.44
49.281,-70.92
49.296,-54.94
49.312,-37.12
49.328,-19.18
49.343,-2.64
49.359,11.4
49.375,22.28
49.390,29.67
49.406,33.59
49.421,34.41
49.437,32.86
49.453,29.93
49.468,26.69
49.484,24.04
49.500,22.51
49.515,22.17
49.531,22.77
49.546,23.83
49.562,24.91
49.578,25.76
49.593,26.32
49.609,26.65
49.625,26.79
49.640,26.69
49.656,26.2
49.671,25.19
49.687,23.68
49.703,21.82
49.718,19.88
49.734,18.07
49.750,16.39
49.765,14.56
49.781,12.05
49.796,8.34
49.812,3.04
49.828,-3.76
49.843,-11.41
49.859,-18.73
49.875,-24.24
49.890,-26.56
49.906,-24.79
49.921,-18.79
49.937,-9.26
49.953,2.51
49.968,15.0
49.984,26.75
50.000,36.7
50.015,44.28
50.031,49.37
50.046,52.18
50.062,53.12
50.078,52.65
50.093,51.1
50.109,48.74
50.125,45.63
50.140,41.8
50.156,37.24
50.171,31.98
50.187,26.08
50.203,19.69
50.218,12.93
50.234,5.88
50.250,-1.44
50.265,-9.07
50.281,-17.08
50.296,-25.49
50.312,-34.13
50.328,-42.72
50.343,-50.86
50.359,-58.22
50.375,-64.72
50.390,-70.61
50.406,-76.37
50.421,-82.51
50.437,-89.23
50.453,-96.2
50.468,-102.45
50.484,-106.55
50.500,-107.04
50.515,-102.84
50.531,-93.7
50.546,-80.3
50.562,-64.03
50.578,-46.62
50.593,-29.69
50.609,-14.43
50.625,-1.55
50.640,8.71
50.656,16.33
50.671,21.47
50.687,24.31
50.703,25.11
50.718,24.16
50.734,21.9
50.750,18.9
50.765,15.74
50.781,12.98
50.796,10.92
50.812,9.57
50.828,8.63
50.843,7.65
50.859,6.3
50.875,4.44
50.890,2.18
50.906,-0.32
50.921,-3.01
50.937,-6.06
50.953,-9.73
50.968,-14.25
50.984,-19.73
51.000,-26.14
51.015,-33.45
51.031,-41.63
51.046,-50.59
51.062,-59.93
51.078,-68.8
51.093,-75.93
51.109,-79.87
51.125,-79.48
51.140,-74.4
51.156,-65.07
51.171,-52.57
51.187,-38.15
51.203,-22.81
51.218,-7.12
51.234,8.58
51.250,23.95
51.265,38.29
51.281,50.52
51.296,59.49
51.312,64.37
51.328,65.05
51.343,62.18
51.359,57.04
51.375,50.98
51.390,45.18
51.406,40.31
51.421,36.59
51.437,33.9
51.453,31.97
51.468,30.52
51.484,29.24
51.500,27.84
51.515,26.09
51.531,23.83
51.546,21.07
51.562,17.95
51.578,14.66
51.593,11.29
51.609,7.7
51.625,3.54
51.640,-1.64
51.656,-8.16
51.671,-15.89
51.687,-24.03
51.703,-31.16
51.718,-35.54
51.734,-35.58
51.750,-30.4
51.765,-20.21
51.781,-6.23
51.796,9.65
51.812,25.48
51.828,39.74
51.843,51.65
51.859,61.0
51.875,67.9
51.890,72.49
51.906,74.85
51.921,75.14
51.937,73.8
51.953,71.53
51.968,69.15
51.984,67.33
52.000,66.25
52.015,65.57
52.031,64.62
52.046,62.65
52.062,59.13
52.078,53.82
52.093,46.67
52.109,37.75
52.125,27.06
52.140,14.64
52.156,0.66
52.171,-14.4
52.187,-29.77
52.203,-44.51
52.218,-57.84
52.234,-69.37
52.250,-79.27
52.265,-88.27
52.281,-97.36
52.296,-107.34
52.312,-118.39
52.328,-129.63
52.343,-139.24
52.359,-144.88
52.375,-144.37
52.390,-136.5
52.406,-121.43
52.421,-100.67
52.437,-76.55
52.453,-51.53
52.468,-27.62
52.484,-6.14
52.500,12.19
52.515,26.98
52.531,37.97
52.546,45.08
52.562,48.56
52.578,49.2
52.593,48.22
52.609,47.03
52.625,46.78
52.640,48.15
52.656,51.18
52.671,55.47
52.687,60.42
52.703,65.54
52.718,70.49
52.734,75.13
52.750,79.39
52.765,83.2
52.781,86.41
52.796,88.78
52.812,89.98
52.828,89.68
52.843,87.62
52.859,83.76
52.875,78.4
52.890,72.12
52.906,65.68
52.921,59.61
52.937,54.05
52.953,48.6
52.968,42.4
52.984,34.46
53.000,24.07
53.015,10.94
53.031,-4.59
53.046,-21.56
53.062,-38.57
53.078,-53.98
53.093,-66.37
53.109,-74.91
53.125,-79.66
53.140,-81.58
53.156,-82.15
53.171,-82.78
53.187,-84.23
53.203,-86.47
53.218,-89.02
53.234,-91.58
53.250,-94.6
53.265,-99.29
53.281,-107.03
53.296,-118.52
53.312,-133.24
53.328,-149.49
53.343,-164.93
53.359,-177.04
53.375,-183.63
53.390,-183.13
53.406,-174.99
53.421,-159.92
53.437,-140.13
53.453,-118.95
53.468,-99.88
53.484,-85.34
53.500,-75.78
53.515,-69.68
53.531,-64.64
53.546,-58.8
53.562,-51.89
53.578,-45.0
53.593,-39.52
53.609,-35.84
53.625,-32.88
53.640,-28.72
53.656,-21.98
53.671,-12.95
53.687,-3.7
53.703,2.95
53.718,4.94
53.734,1.95
53.750,-4.35
53.765,-11.47
53.781,-17.43
53.796,-21.76
53.812,-25.43
53.828,-29.94
53.843,-36.22
53.859,-43.73
53.875,-50.54
53.890,-54.05
53.906,-52.04
53.921,-43.43
53.937,-28.49
53.953,-8.56
53.968,14.58
53.984,39.26
54.000,64.34
54.015,89.21
54.031,113.55
54.046,137.06
54.062,159.12
54.078,178.74
54.093,194.7
54.109,206.0
54.125,212.16
54.140,213.57
54.156,211.38
54.171,207.24
54.187,202.7
54.203,198.68
54.218,195.16
54.234,191.18
54.250,185.27
54.265,175.95
54.281,162.27
54.296,144.08
54.312,122.13
54.328,97.89
54.343,73.35
54.359,50.74
54.375,32.17
54.390,19.37
54.406,13.4
54.421,14.47
54.437,21.77
54.453,33.64
54.468,47.75
54.484,61.66
54.500,73.32
54.515,81.6
54.531,86.34
54.546,87.98
54.562,87.01
54.578,83.39
54.593,76.44
54.609,65.17
54.625,48.83
54.640,27.52
54.656,2.39
54.671,-24.49
54.687,-50.49
54.703,-72.87
54.718,-89.11
54.734,-97.32
54.750,-96.55
54.765,-86.99
54.781,-70.0
54.796,-47.78
54.812,-22.94
54.828,2.05
54.843,25.17
54.859,44.88
54.875,60.1
54.890,70.21
54.906,75.2
54.921,75.77
54.937,73.33
54.953,69.64
54.968,66.45
54.984,65.16
55.000,66.69
55.015,71.54
55.031,79.92
55.046,91.75
55.062,106.57
55.078,123.4
55.093,140.76
55.109,156.95
55.125,170.27
55.140,179.24
55.156,182.74
55.171,179.96
55.187,170.56
55.203,154.93
55.218,134.46
55.234,111.6
55.250,89.2
55.265,69.48
55.281,53.02
55.296,38.41
55.312,22.85
55.328,3.49
55.343,-21.16
55.359,-50.56
55.375,-82.46
55.390,-113.94
55.406,-142.43
55.421,-166.28
55.437,-184.52
55.453,-196.43
55.468,-201.17
55.484,-198.0
55.500,-186.84
55.515,-168.66
55.531,-145.64
55.546,-120.54
55.562,-95.98
55.578,-73.71
55.593,-54.34
55.609,-37.56
55.625,-22.62
55.640,-8.89
55.656,3.93
55.671,15.76
55.687,26.47
55.703,36.08
55.718,44.86
55.734,53.2
55.750,61.55
55.765,70.18
55.781,79.19
55.796,88.55
55.812,98.06
55.828,107.41
55.843,116.24
55.859,124.17
55.875,131.06
55.890,137.09
55.906,142.87
55.921,149.08
55.937,156.24
55.953,164.28
55.968,172.43
55.984,179.38
56.000,183.53
56.015,183.43
56.031,178.05
56.046,166.85
56.062,149.74
56.078,126.87
56.093,98.65
56.109,65.71
56.125,29.22
56.140,-9.04
56.156,-46.72
56.171,-81.3
56.187,-110.5
56.203,-132.74
56.218,-147.13
56.234,-153.39
56.250,-151.52
56.265,-141.71
56.281,-124.45
56.296,-100.67
56.312,-72.04
56.328,-41.09
56.343,-11.36
56.359,12.99
56.375,27.78
56.390,29.97
56.406,18.73
56.421,-3.99
56.437,-33.84
56.453,-65.41
56.468,-93.92
56.484,-116.41
56.500,-132.1
56.515,-141.7
56.531,-146.52
56.546,-147.75
56.562,-146.41
56.578,-143.46
56.593,-139.98
56.609,-136.86
56.625,-134.55
56.640,-132.77
56.656,-130.72
56.671,-127.47
56.687,-122.29
56.703,-114.89
56.718,-105.5
56.734,-94.84
56.750,-83.96
56.765,-73.98
56.781,-65.91
56.796,-60.48
56.812,-58.33
56.828,-60.13
56.843,-66.4
56.859,-76.83
56.875,-89.45
56.890,-100.32
56.906,-104.57
56.921,-98.43
56.937,-81.3
56.953,-56.53
56.968,-30.13
56.984,-8.13
57.000,6.02
57.015,12.52
57.031,14.16
57.046,14.31
57.062,15.01
57.078,16.5
57.093,18.08
57.109,19.34
57.125,20.85
57.140,23.76
57.156,28.86
57.171,35.86
57.187,43.47
57.203,50.11
57.218,54.79
57.234,57.52
57.250,59.19
57.265,60.98
57.281,63.74
57.296,67.67
57.312,72.33
57.328,76.94
57.343,80.73
57.359,83.18
57.375,84.15
57.390,83.76
57.406,82.28
57.421,79.98
57.437,77.05
57.453,73.57
57.468,69.63
57.484,65.38
57.500,61.12
57.515,57.31
57.531,54.48
57.546,53.08
57.562,53.29
57.578,54.88
57.593,57.0
57.609,58.36
57.625,57.33
57.640,52.55
57.656,43.38
57.671,30.29
57.687,14.94
57.703,-0.41
57.718,-13.48
57.734,-22.78
57.750,-27.94
57.765,-29.65
57.781,-29.11
57.796,-27.52
57.812,-25.63
57.828,-23.65
57.843,-21.43
57.859,-18.73
57.875,-15.44
57.890,-11.63
57.906,-7.51
57.921,-3.33
57.937,0.6
57.953,3.87
57.968,5.89
57.984,6.03
58.000,3.74
58.015,-1.12
58.031,-8.12
58.046,-16.25
58.062,-24.14
58.078,-30.49
58.093,-34.4
58.109,-35.62
58.125,-34.59
58.140,-32.1
58.156,-29.07
58.171,-26.22
58.187,-23.93
58.203,-22.27
58.218,-21.16
58.234,-20.49
58.250,-20.27
58.265,-20.61
58.281,-21.71
58.296,-23.7
58.312,-26.6
58.328,-30.41
58.343,-35.0
58.359,-40.26
58.375,-46.05
58.390,-52.12
58.406,-58.02
58.421,-63.1
58.437,-66.48
58.453,-67.3
58.468,-65.03
58.484,-59.61
58.500,-51.68
58.515,-42.32
58.531,-32.78
58.546,-24.19
58.562,-17.24
58.578,-12.11
58.593,-8.63
58.609,-6.55
58.625,-5.61
58.640,-5.72
58.656,-6.74
58.671,-8.47
58.687,-10.53
58.703,-12.49
58.718,-13.96
58.734,-14.77
58.750,-15.0
58.765,-14.88
58.781,-14.61
58.796,-14.24
58.812,-13.62
58.828,-12.46
58.843,-10.57
58.859,-8.03
58.875,-5.22
58.890,-2.79
58.906,-1.34
58.921,-1.25
58.937,-2.51
58.953,-4.77
58.968,-7.5
58.984,-10.27
59.000,-12.95
59.015,-15.72
59.031,-18.94
59.046,-22.96
59.062,-27.93
59.078,-33.73
59.093,-40.02
59.109,-46.3
59.125,-52.02
59.140,-56.61
59.156,-59.46
59.171,-60.08
59.187,-58.15
59.203,-53.7
59.218,-47.13
59.234,-39.15
59.250,-30.62
59.265,-22.33
59.281,-14.95
59.296,-8.84
59.312,-4.14
59.328,-0.76
59.343,1.53
59.359,3.01
59.375,3.99
59.390,4.66
59.406,5.17
59.421,5.54
59.437,5.83
59.453,6.11
59.468,6.52
59.484,7.18
59.500,8.18
59.515,9.51
59.531,11.05
59.546,12.68
59.562,14.15
59.578,15.24
59.593,15.69
59.609,15.31
59.625,14.05
59.640,12.07
59.656,9.74
59.671,7.52
59.687,5.81
59.703,4.7
59.718,3.93
59.734,2.98
59.750,1.18
59.765,-1.93
59.781,-6.45
59.796,-12.01
59.812,-17.8
59.828,-22.64
59.843,-25.35
59.859,-24.9
59.875,-20.74
59.890,-12.91
59.906,-2.01
59.921,10.94
59.937,24.86
59.953,38.76
59.968,52.03
59.984,64.25
