timestamp,value
00.000,-2.76
00.015,-6.8
00.031,-11.1
00.046,-15.83
00.062,-21.1
00.078,-26.88
00.093,-32.97
00.109,-38.99
00.125,-44.3
00.140,-47.99
00.156,-49.12
00.171,-47.01
00.187,-41.57
00.203,-33.36
00.218,-23.43
00.234,-12.95
00.250,-2.83
00.265,6.43
00.281,14.74
00.296,22.17
00.312,28.74
00.328,34.38
00.343,39.0
00.359,42.55
00.375,45.1
00.390,46.8
00.406,47.77
00.421,48.14
00.437,47.99
00.453,47.4
00.468,46.52
00.484,45.58
00.500,44.75
00.515,44.19
00.531,43.95
00.546,43.91
00.562,43.89
00.578,43.6
00.593,42.81
00.609,41.43
00.625,39.52
00.640,37.31
00.656,35.06
00.671,33.03
00.687,31.3
00.703,29.88
00.718,28.6
00.734,27.28
00.750,25.79
00.765,24.01
00.781,21.93
00.796,19.61
00.812,17.16
00.828,14.72
00.843,12.47
00.859,10.56
00.875,9.08
00.890,8.03
00.906,7.31
00.921,6.79
00.937,6.34
00.953,5.85
00.968,5.29
00.984,4.68
01.000,4.06
01.015,3.42
01.031,2.73
01.046,1.88
01.062,0.86
01.078,-0.31
01.093,-1.51
01.109,-2.62
01.125,-3.55
01.140,-4.26
01.156,-4.85
01.171,-5.39
01.187,-6.01
01.203,-6.76
01.218,-7.66
01.234,-8.7
01.250,-9.88
01.265,-11.19
01.281,-12.66
01.296,-14.29
01.312,-16.03
01.328,-17.84
01.343,-19.69
01.359,-21.58
01.375,-23.64
01.390,-25.96
01.406,-28.63
01.421,-31.58
01.437,-34.64
01.453,-37.55
01.468,-40.06
01.484,-42.08
01.500,-43.61
01.515,-44.87
01.531,-46.18
01.546,-47.87
01.562,-50.23
01.578,-53.27
01.593,-56.68
01.609,-59.75
01.625,-61.54
01.640,-61.07
01.656,-57.69
01.671,-51.3
01.687,-42.37
01.703,-31.87
01.718,-20.84
01.734,-10.22
01.750,-0.67
01.765,7.44
01.781,13.99
01.796,18.99
01.812,22.55
01.828,24.86
01.843,26.18
01.859,26.9
01.875,27.37
01.890,27.89
01.906,28.58
01.921,29.48
01.937,30.45
01.953,31.33
01.968,31.99
01.984,32.38
02.000,32.63
02.015,32.89
02.031,33.35
02.046,34.01
02.062,34.77
02.078,35.31
02.093,35.37
02.109,34.74
02.125,33.46
02.140,31.85
02.156,30.38
02.171,29.63
02.187,30.01
02.203,31.75
02.218,34.69
02.234,38.33
02.250,41.98
02.265,44.96
02.281,46.96
02.296,48.23
02.312,49.62
02.328,52.28
02.343,57.28
02.359,65.15
02.375,75.72
02.390,88.23
02.406,101.61
02.421,114.75
02.437,126.77
02.453,137.03
02.468,145.18
02.484,151.09
02.500,154.91
02.515,157.01
02.531,157.97
02.546,158.33
02.562,158.55
02.578,159.0
02.593,160.15
02.609,162.54
02.625,166.68
02.640,172.74
02.656,180.03
02.671,186.95
02.687,191.21
02.703,190.8
02.718,184.8
02.734,174.03
02.750,160.77
02.765,147.7
02.781,136.64
02.796,127.56
02.812,118.53
02.828,106.53
02.843,88.87
02.859,64.39
02.875,33.86
02.890,-0.34
02.906,-35.17
02.921,-67.82
02.937,-96.3
02.953,-119.86
02.968,-139.18
02.984,-156.19
03.000,-173.52
03.015,-193.26
03.031,-215.77
03.046,-239.05
03.062,-259.1
03.078,-271.48
03.093,-273.14
03.109,-263.68
03.125,-245.46
03.140,-222.42
03.156,-198.4
03.171,-176.06
03.187,-156.65
03.203,-140.52
03.218,-127.9
03.234,-119.27
03.250,-114.97
03.265,-114.87
03.281,-117.97
03.296,-122.43
03.312,-126.06
03.328,-126.96
03.343,-123.93
03.359,-116.84
03.375,-106.56
03.390,-94.51
03.406,-82.2
03.421,-70.88
03.437,-61.27
03.453,-53.56
03.468,-47.76
03.484,-44.01
03.500,-42.89
03.515,-45.46
03.531,-52.81
03.546,-65.49
03.562,-83.07
03.578,-103.74
03.593,-124.66
03.609,-142.48
03.625,-154.18
03.640,-157.84
03.656,-152.96
03.671,-140.39
03.687,-121.92
03.703,-99.78
03.718,-76.09
03.734,-52.71
03.750,-31.15
03.765,-12.51
03.781,2.49
03.796,13.56
03.812,21.02
03.828,25.7
03.843,28.69
03.859,31.07
03.875,33.52
03.890,36.25
03.906,39.0
03.921,41.25
03.937,42.37
03.953,41.85
03.968,39.39
03.984,35.14
04.000,29.72
04.015,24.09
04.031,19.18
04.046,15.49
04.062,12.76
04.078,10.13
04.093,6.63
04.109,1.69
04.125,-4.49
04.140,-11.03
04.156,-16.76
04.171,-20.88
04.187,-23.34
04.203,-24.88
04.218,-26.64
04.234,-29.57
04.250,-34.04
04.265,-39.54
04.281,-44.88
04.296,-48.54
04.312,-49.2
04.328,-46.22
04.343,-39.82
04.359,-30.9
04.375,-20.74
04.390,-10.55
04.406,-1.17
04.421,6.98
04.437,13.79
04.453,19.26
04.468,23.3
04.484,25.73
04.500,26.57
04.515,26.07
04.531,24.81
04.546,23.54
04.562,22.85
04.578,22.97
04.593,23.79
04.609,25.04
04.625,26.59
04.640,28.66
04.656,31.78
04.671,36.47
04.687,42.95
04.703,50.8
04.718,59.17
04.734,66.93
04.750,73.09
04.765,77.08
04.781,78.85
04.796,78.64
04.812,76.86
04.828,73.92
04.843,69.96
04.859,64.91
04.875,58.3
04.890,49.24
04.906,36.69
04.921,19.78
04.937,-1.73
04.953,-27.14
04.968,-54.76
04.984,-82.25
05.000,-107.08
05.015,-126.91
05.031,-140.1
05.046,-145.75
05.062,-143.85
05.078,-135.37
05.093,-122.11
05.109,-106.5
05.125,-91.13
05.140,-78.09
05.156,-68.44
05.171,-61.9
05.187,-57.09
05.203,-52.22
05.218,-45.8
05.234,-37.34
05.250,-27.58
05.265,-18.13
05.281,-10.64
05.296,-5.91
05.312,-3.43
05.328,-1.4
05.343,2.39
05.359,9.71
05.375,21.22
05.390,36.28
05.406,53.19
05.421,69.57
05.437,82.69
05.453,89.69
05.468,88.1
05.484,76.43
05.500,55.08
05.515,26.62
05.531,-4.46
05.546,-32.88
05.562,-54.27
05.578,-66.24
05.593,-69.04
05.609,-64.98
05.625,-57.46
05.640,-49.76
05.656,-44.34
05.671,-42.42
05.687,-43.99
05.703,-48.13
05.718,-53.19
05.734,-57.3
05.750,-58.8
05.765,-56.78
05.781,-51.34
05.796,-43.59
05.812,-35.2
05.828,-27.66
05.843,-21.6
05.859,-16.53
05.875,-11.02
05.890,-3.31
05.906,7.76
05.921,22.09
05.937,38.04
05.953,52.93
05.968,63.86
05.984,68.88
06.000,67.68
06.015,61.75
06.031,53.82
06.046,46.94
06.062,43.51
06.078,44.77
06.093,50.45
06.109,58.93
06.125,67.53
06.140,73.05
06.156,72.58
06.171,64.37
06.187,48.64
06.203,27.66
06.218,5.26
06.234,-14.47
06.250,-28.41
06.265,-35.27
06.281,-35.68
06.296,-31.59
06.312,-25.36
06.328,-18.91
06.343,-13.29
06.359,-8.6
06.375,-4.35
06.390,0.15
06.406,5.3
06.421,10.92
06.437,16.27
06.453,20.33
06.468,22.21
06.484,21.59
06.500,19.03
06.515,15.99
06.531,14.6
06.546,17.11
06.562,25.1
06.578,38.7
06.593,56.2
06.609,74.22
06.625,88.71
06.640,96.55
06.656,96.92
06.671,91.84
06.687,85.56
06.703,82.69
06.718,85.95
06.734,94.64
06.750,104.62
06.765,109.96
06.781,105.39
06.796,88.45
06.812,60.19
06.828,24.62
06.843,-12.92
06.859,-47.37
06.875,-74.96
06.890,-93.6
06.906,-102.79
06.921,-103.39
06.937,-97.37
06.953,-87.39
06.968,-76.24
06.984,-66.27
07.000,-58.97
07.015,-54.69
07.031,-52.68
07.046,-51.12
07.062,-47.41
07.078,-38.71
07.093,-22.97
07.109,-0.25
07.125,26.25
07.140,50.37
07.156,64.92
07.171,64.35
07.187,47.19
07.203,16.98
07.218,-18.91
07.234,-51.93
07.250,-74.98
07.265,-84.48
07.281,-80.76
07.296,-67.39
07.312,-49.95
07.328,-34.64
07.343,-26.98
07.359,-30.49
07.375,-45.79
07.390,-70.1
07.406,-97.98
07.421,-122.97
07.437,-139.47
07.453,-144.4
07.468,-137.55
07.484,-121.01
07.500,-97.92
07.515,-71.48
07.531,-44.31
07.546,-18.4
07.562,4.78
07.578,24.29
07.593,39.87
07.609,52.11
07.625,62.35
07.640,72.13
07.656,82.61
07.671,94.03
07.687,105.67
07.703,116.21
07.718,124.42
07.734,129.73
07.750,132.62
07.765,134.49
07.781,137.23
07.796,142.36
07.812,150.29
07.828,159.81
07.843,168.15
07.859,171.78
07.875,167.72
07.890,154.99
07.906,135.49
07.921,113.59
07.937,94.5
07.953,82.0
07.968,76.6
07.984,74.94
08.000,71.19
08.015,59.32
08.031,35.42
08.046,-1.16
08.062,-47.93
08.078,-100.35
08.093,-152.98
08.109,-200.39
08.125,-237.82
08.140,-261.83
08.156,-271.13
08.171,-267.19
08.187,-253.97
08.203,-236.61
08.218,-219.51
08.234,-204.65
08.250,-191.27
08.265,-176.84
08.281,-158.86
08.296,-136.38
08.312,-110.36
08.328,-83.05
08.343,-56.85
08.359,-33.35
08.375,-13.22
08.390,3.45
08.406,16.79
08.421,26.89
08.437,33.85
08.453,37.98
08.468,39.94
08.484,40.61
08.500,41.0
08.515,41.97
08.531,44.14
08.546,47.71
08.562,52.43
08.578,57.59
08.593,62.35
08.609,66.06
08.625,68.57
08.640,70.35
08.656,72.09
08.671,74.35
08.687,77.09
08.703,79.61
08.718,80.83
08.734,79.94
08.750,76.88
08.765,72.4
08.781,67.85
08.796,64.53
08.812,63.29
08.828,64.36
08.843,67.36
08.859,71.49
08.875,75.74
08.890,78.77
08.906,78.89
08.921,74.24
08.937,63.36
08.953,45.83
08.968,22.88
08.984,-2.65
09.000,-27.01
09.015,-46.57
09.031,-58.82
09.046,-63.05
09.062,-60.47
09.078,-53.96
09.093,-47.42
09.109,-44.74
09.125,-48.57
09.140,-59.26
09.156,-74.35
09.171,-89.22
09.187,-98.83
09.203,-99.66
09.218,-91.15
09.234,-75.7
09.250,-57.36
09.265,-39.86
09.281,-25.25
09.296,-13.53
09.312,-3.64
09.328,5.52
09.343,14.09
09.359,21.2
09.375,25.45
09.390,25.74
09.406,21.82
09.421,14.48
09.437,5.34
09.453,-3.76
09.468,-11.26
09.484,-16.42
09.500,-19.21
09.515,-20.15
09.531,-19.62
09.546,-17.58
09.562,-13.47
09.578,-6.62
09.593,2.97
09.609,14.28
09.625,25.17
09.640,33.1
09.656,35.99
09.671,33.22
09.687,25.91
09.703,16.78
09.718,9.48
09.734,7.39
09.750,12.47
09.765,24.3
09.781,39.73
09.796,53.29
09.812,58.62
09.828,50.37
09.843,26.18
09.859,-12.15
09.875,-58.88
09.890,-105.73
09.906,-144.33
09.921,-168.47
09.937,-175.76
09.953,-167.92
09.968,-149.7
09.984,-127.31
10.000,-106.47
10.015,-91.25
10.031,-83.25
10.046,-81.92
10.062,-85.01
10.078,-89.48
10.093,-92.35
10.109,-91.22
10.125,-84.84
10.140,-73.14
10.156,-57.36
10.171,-39.48
10.187,-21.9
10.203,-6.69
10.218,4.88
10.234,12.58
10.250,17.24
10.265,20.35
10.281,23.59
10.296,28.23
10.312,34.81
10.328,43.02
10.343,51.83
10.359,59.95
10.375,66.19
10.390,69.92
10.406,71.13
10.421,70.53
10.437,69.19
10.453,68.19
10.468,68.18
10.484,69.11
10.500,70.31
10.515,70.66
10.531,69.29
10.546,65.83
10.562,60.83
10.578,55.54
10.593,51.5
10.609,49.88
10.625,51.02
10.640,54.3
10.656,58.32
10.671,61.53
10.687,62.65
10.703,61.25
10.718,57.91
10.734,54.36
10.750,53.07
10.765,56.54
10.781,66.32
10.796,81.95
10.812,100.54
10.828,117.23
10.843,126.59
10.859,124.46
10.875,109.56
10.890,84.13
10.906,53.17
10.921,22.92
10.937,-1.07
10.953,-15.25
10.968,-18.76
10.984,-13.13
11.000,-1.64
11.015,11.62
11.031,22.94
11.046,29.73
11.062,31.25
11.078,28.53
11.093,23.95
11.109,20.25
11.125,19.63
11.140,23.16
11.156,30.88
11.171,42.2
11.187,56.22
11.203,71.91
11.218,87.76
11.234,101.66
11.250,111.18
11.265,114.27
11.281,110.05
11.296,99.19
11.312,83.76
11.328,66.53
11.343,50.25
11.359,37.01
11.375,27.9
11.390,22.96
11.406,20.88
11.421,19.21
11.437,14.59
11.453,3.75
11.468,-15.35
11.484,-42.51
11.500,-75.14
11.515,-109.09
11.531,-140.05
11.546,-164.8
11.562,-181.69
11.578,-190.24
11.593,-190.26
11.609,-181.17
11.625,-162.12
11.640,-132.72
11.656,-94.05
11.671,-49.34
11.687,-3.68
11.703,37.2
11.718,68.53
11.734,87.88
11.750,95.67
11.765,94.46
11.781,87.75
11.796,78.67
11.812,69.1
11.828,59.63
11.843,50.05
11.859,39.97
11.875,29.06
11.890,17.31
11.906,4.89
11.921,-7.45
11.937,-18.38
11.953,-26.07
11.968,-28.91
11.984,-26.44
12.000,-20.0
12.015,-12.72
12.031,-8.26
12.046,-9.4
12.062,-16.48
12.078,-27.35
12.093,-38.38
12.109,-46.17
12.125,-49.12
12.140,-47.78
12.156,-44.14
12.171,-40.24
12.187,-37.13
12.203,-34.53
12.218,-31.8
12.234,-28.92
12.250,-27.02
12.265,-28.15
12.281,-34.2
12.296,-45.79
12.312,-61.7
12.328,-79.34
12.343,-95.75
12.359,-108.71
12.375,-117.38
12.390,-122.21
12.406,-124.38
12.421,-125.09
12.437,-125.0
12.453,-124.02
12.468,-121.52
12.484,-116.71
12.500,-109.18
12.515,-99.03
12.531,-87.01
12.546,-74.2
12.562,-61.58
12.578,-49.72
12.593,-38.61
12.609,-28.0
12.625,-17.71
12.640,-7.96
12.656,0.76
12.671,7.87
12.687,13.07
12.703,16.54
12.718,18.88
12.734,20.85
12.750,23.02
12.765,25.71
12.781,28.82
12.796,32.11
12.812,35.27
12.828,38.11
12.843,40.57
12.859,42.58
12.875,44.22
12.890,45.44
12.906,46.3
12.921,46.79
12.937,47.0
12.953,47.02
12.968,46.91
12.984,46.7
13.000,46.21
13.015,45.21
13.031,43.45
13.046,40.86
13.062,37.51
13.078,33.63
13.093,29.33
13.109,24.48
13.125,18.79
13.140,11.87
13.156,3.82
13.171,-4.53
13.187,-11.5
13.203,-15.01
13.218,-13.21
13.234,-5.2
13.250,8.53
13.265,26.33
13.281,45.81
13.296,64.67
13.312,81.16
13.328,94.45
13.343,104.62
13.359,112.45
13.375,119.26
13.390,126.54
13.406,135.54
13.421,146.59
13.437,158.69
13.453,169.23
13.468,174.73
13.484,172.06
13.500,159.84
13.515,139.46
13.531,114.9
13.546,91.57
13.562,74.46
13.578,66.55
13.593,67.9
13.609,75.84
13.625,86.25
13.640,94.97
13.656,99.34
13.671,98.88
13.687,95.26
13.703,91.27
13.718,89.39
13.734,90.3
13.750,92.15
13.765,91.16
13.781,82.99
13.796,64.54
13.812,34.92
13.828,-4.5
13.843,-50.87
13.859,-100.57
13.875,-149.67
13.890,-193.98
13.906,-229.28
13.921,-252.04
13.937,-260.54
13.953,-255.76
13.968,-241.18
13.984,-221.55
14.000,-200.97
14.015,-181.69
14.031,-163.77
14.046,-146.0
14.062,-127.1
14.078,-106.56
14.093,-84.65
14.109,-62.0
14.125,-39.19
14.140,-16.78
14.156,4.5
14.171,23.55
14.187,39.21
14.203,50.67
14.218,58.1
14.234,63.03
14.250,68.03
14.265,75.97
14.281,88.91
14.296,107.05
14.312,128.13
14.328,147.89
14.343,161.36
14.359,164.79
14.375,157.36
14.390,141.87
14.406,123.86
14.421,109.6
14.437,103.53
14.453,106.42
14.468,115.16
14.484,124.22
14.500,128.23
14.515,124.21
14.531,112.7
14.546,97.18
14.562,82.23
14.578,71.38
14.593,65.5
14.609,62.59
14.625,58.79
14.640,49.91
14.656,32.85
14.671,6.43
14.687,-28.31
14.703,-68.47
14.718,-109.68
14.734,-147.02
14.750,-176.19
14.765,-194.71
14.781,-202.94
14.796,-203.88
14.812,-202.1
14.828,-201.81
14.843,-205.1
14.859,-211.18
14.875,-216.97
14.890,-218.78
14.906,-214.05
14.921,-202.32
14.937,-184.95
14.953,-164.3
14.968,-142.53
14.984,-121.16
15.000,-101.09
15.015,-83.01
15.031,-67.77
15.046,-56.15
15.062,-48.52
15.078,-44.26
15.093,-41.88
15.109,-39.3
15.125,-34.85
15.140,-27.88
15.156,-19.1
15.171,-10.11
15.187,-2.65
15.203,2.23
15.218,4.57
15.234,5.36
15.250,5.98
15.265,7.49
15.281,10.24
15.296,13.83
15.312,17.43
15.328,20.39
15.343,22.47
15.359,23.96
15.375,25.42
15.390,27.31
15.406,29.71
15.421,32.29
15.437,34.64
15.453,36.45
15.468,37.82
15.484,39.21
15.500,41.18
15.515,43.98
15.531,47.37
15.546,50.71
15.562,53.41
15.578,55.44
15.593,57.61
15.609,61.52
15.625,69.06
15.640,81.74
15.656,100.0
15.671,122.96
15.687,148.41
15.703,173.2
15.718,193.95
15.734,207.79
15.750,213.22
15.765,210.72
15.781,202.97
15.796,194.15
15.812,188.45
15.828,188.33
15.843,193.0
15.859,198.31
15.875,198.05
15.890,186.52
15.906,161.17
15.921,124.3
15.937,82.61
15.953,45.17
15.968,20.26
15.984,12.37
16.000,20.55
16.015,38.69
16.031,57.59
16.046,67.82
16.062,62.73
16.078,40.32
16.093,3.74
16.109,-39.7
16.125,-80.84
16.140,-111.35
16.156,-126.25
16.171,-125.24
16.187,-112.79
16.203,-96.67
16.218,-85.49
16.234,-85.79
16.250,-99.88
16.265,-125.18
16.281,-155.43
16.296,-183.28
16.312,-203.02
16.328,-212.25
16.343,-211.85
16.359,-204.45
16.375,-192.6
16.390,-177.67
16.406,-159.97
16.421,-139.35
16.437,-116.22
16.453,-91.62
16.468,-66.63
16.484,-41.8
16.500,-17.08
16.515,7.42
16.531,30.6
16.546,49.9
16.562,62.06
16.578,64.41
16.593,56.4
16.609,40.52
16.625,21.75
16.640,5.85
16.656,-2.97
16.671,-3.97
16.687,-0.24
16.703,2.65
16.718,-0.99
16.734,-14.25
16.750,-36.21
16.765,-62.23
16.781,-85.94
16.796,-101.87
16.812,-107.34
16.828,-103.01
16.843,-91.59
16.859,-76.34
16.875,-59.56
16.890,-42.3
16.906,-24.94
16.921,-7.82
16.937,8.23
16.953,22.17
16.968,33.24
16.984,41.57
17.000,48.07
17.015,53.9
17.031,59.71
17.046,65.16
17.062,69.04
17.078,69.56
17.093,64.97
17.109,54.04
17.125,36.7
17.140,14.4
17.156,-9.73
17.171,-31.43
17.187,-46.56
17.203,-52.59
17.218,-50.04
17.234,-42.47
17.250,-35.35
17.265,-33.68
17.281,-39.64
17.296,-51.5
17.312,-64.37
17.328,-72.58
17.343,-72.13
17.359,-62.2
17.375,-44.84
17.390,-23.39
17.406,-0.71
17.421,21.58
17.437,42.53
17.453,60.58
17.468,72.62
17.484,74.67
17.500,63.62
17.515,39.4
17.531,5.89
17.546,-29.87
17.562,-60.15
17.578,-79.19
17.593,-84.93
17.609,-79.15
17.625,-66.3
17.640,-51.72
17.656,-40.01
17.671,-34.25
17.687,-35.56
17.703,-43.32
17.718,-55.62
17.734,-69.8
17.750,-83.13
17.765,-93.4
17.781,-99.32
17.796,-100.57
17.812,-97.65
17.828,-91.61
17.843,-83.84
17.859,-75.91
17.875,-69.4
17.890,-65.62
17.906,-65.37
17.921,-68.56
17.937,-74.32
17.953,-81.06
17.968,-86.94
17.984,-90.26
18.000,-89.7
18.015,-84.54
18.031,-74.69
18.046,-60.64
18.062,-43.43
18.078,-24.46
18.093,-5.23
18.109,12.97
18.125,29.36
18.140,43.66
18.156,56.0
18.171,66.59
18.187,75.56
18.203,82.9
18.218,88.55
18.234,92.62
18.250,95.41
18.265,97.37
18.281,98.87
18.296,100.05
18.312,100.73
18.328,100.63
18.343,99.52
18.359,97.4
18.375,94.62
18.390,91.67
18.406,89.08
18.421,87.31
18.437,86.67
18.453,87.26
18.468,88.9
18.484,91.13
18.500,93.07
18.515,93.52
18.531,91.14
18.546,84.88
18.562,74.25
18.578,59.63
18.593,42.12
18.609,23.26
18.625,4.66
18.640,-12.52
18.656,-27.61
18.671,-40.67
18.687,-52.15
18.703,-62.79
18.718,-73.35
18.734,-84.27
18.750,-95.47
18.765,-106.05
18.781,-114.54
18.796,-119.08
18.812,-118.18
18.828,-111.15
18.843,-98.57
18.859,-82.28
18.875,-64.86
18.890,-49.02
18.906,-36.93
18.921,-29.85
18.937,-27.95
18.953,-30.75
18.968,-37.33
18.984,-46.66
19.000,-57.8
19.015,-69.69
19.031,-81.13
19.046,-90.72
19.062,-97.11
19.078,-99.31
19.093,-97.1
19.109,-91.12
19.125,-82.56
19.140,-72.9
19.156,-63.32
19.171,-54.61
19.187,-47.17
19.203,-41.22
19.218,-36.88
19.234,-34.26
19.250,-33.26
19.265,-33.46
19.281,-34.23
19.296,-34.88
19.312,-35.03
19.328,-34.79
19.343,-34.63
19.359,-35.25
19.375,-37.12
19.390,-40.32
19.406,-44.44
19.421,-48.88
19.437,-53.04
19.453,-56.63
19.468,-59.76
19.484,-62.74
19.500,-65.84
19.515,-69.01
19.531,-71.7
19.546,-72.96
19.562,-71.72
19.578,-67.0
19.593,-58.32
19.609,-45.82
19.625,-30.21
19.640,-12.57
19.656,5.86
19.671,24.04
19.687,41.17
19.703,56.71
19.718,70.19
19.734,81.24
19.750,89.43
19.765,94.64
19.781,97.03
19.796,97.22
19.812,96.18
19.828,94.9
19.843,94.14
19.859,94.23
19.875,95.04
19.890,96.12
19.906,97.06
19.921,97.52
19.937,97.47
19.953,97.04
19.968,96.4
19.984,95.69
20.000,94.8
20.015,93.59
20.031,91.88
20.046,89.6
20.062,86.8
20.078,83.53
20.093,79.81
20.109,75.51
20.125,70.45
20.140,64.47
20.156,57.61
20.171,50.17
20.187,42.66
20.203,35.65
20.218,29.39
20.234,23.83
20.250,18.45
20.265,12.64
20.281,5.86
20.296,-1.98
20.312,-10.34
20.328,-18.16
20.343,-24.06
20.359,-26.81
20.375,-25.58
20.390,-20.26
20.406,-11.46
20.421,-0.35
20.437,11.7
20.453,23.44
20.468,34.04
20.484,43.09
20.500,50.56
20.515,56.59
20.531,61.27
20.546,64.66
20.562,66.82
20.578,67.83
20.593,67.87
20.609,67.16
20.625,65.95
20.640,64.45
20.656,62.82
20.671,61.2
20.687,59.66
20.703,58.35
20.718,57.27
20.734,56.38
20.750,55.5
20.765,54.4
20.781,52.89
20.796,50.81
20.812,48.14
20.828,44.95
20.843,41.35
20.859,37.44
20.875,33.21
20.890,28.66
20.906,23.86
20.921,18.92
20.937,14.06
20.953,9.48
20.968,5.31
20.984,1.54
21.000,-2.0
21.015,-5.52
21.031,-9.18
21.046,-13.07
21.062,-17.16
21.078,-21.22
21.093,-24.83
21.109,-27.42
21.125,-28.2
21.140,-26.53
21.156,-21.96
21.171,-14.53
21.187,-4.82
21.203,6.19
21.218,17.4
21.234,27.87
21.250,36.99
21.265,44.57
21.281,50.66
21.296,55.37
21.312,58.85
21.328,61.09
21.343,62.16
21.359,62.21
21.375,61.5
21.390,60.39
21.406,59.17
21.421,58.04
21.437,57.03
21.453,56.07
21.468,55.02
21.484,53.78
21.500,52.42
21.515,51.04
21.531,49.8
21.546,48.75
21.562,47.81
21.578,46.77
21.593,45.31
21.609,43.09
21.625,39.9
21.640,35.68
21.656,30.53
21.671,24.72
21.687,18.62
21.703,12.63
21.718,7.1
21.734,2.28
21.750,-1.81
21.765,-5.34
21.781,-8.65
21.796,-12.2
21.812,-16.34
21.828,-21.17
21.843,-26.42
21.859,-31.45
21.875,-35.48
21.890,-37.7
21.906,-37.67
21.921,-35.28
21.937,-30.83
21.953,-24.82
21.968,-17.81
21.984,-10.34
22.000,-2.88
22.015,4.08
22.031,10.18
22.046,15.12
22.062,18.76
22.078,21.11
22.093,22.39
22.109,22.84
22.125,22.71
22.140,22.22
22.156,21.48
22.171,20.63
22.187,19.74
22.203,18.86
22.218,17.98
22.234,17.08
22.250,16.12
22.265,15.07
22.281,13.9
22.296,12.55
22.312,10.96
22.328,8.98
22.343,6.53
22.359,3.55
22.375,0.08
22.390,-3.72
22.406,-7.63
22.421,-11.42
22.437,-14.92
22.453,-18.06
22.468,-20.84
22.484,-23.4
22.500,-25.97
22.515,-28.8
22.531,-32.12
22.546,-36.06
22.562,-40.5
22.578,-45.03
22.593,-48.96
22.609,-51.47
22.625,-51.91
22.640,-49.93
22.656,-45.64
22.671,-39.56
22.687,-32.36
22.703,-24.72
22.718,-17.19
22.734,-10.11
22.750,-3.69
22.765,1.91
22.781,6.57
22.796,10.2
22.812,12.82
22.828,14.57
22.843,15.7
22.859,16.45
22.875,16.99
22.890,17.38
22.906,17.55
22.921,17.38
22.937,16.75
22.953,15.65
22.968,14.11
22.984,12.29
23.000,10.31
23.015,8.35
23.031,6.48
23.046,4.7
23.062,2.97
23.078,1.25
23.093,-0.49
23.109,-2.24
23.125,-3.97
23.140,-5.67
23.156,-7.28
23.171,-8.79
23.187,-10.09
23.203,-11.09
23.218,-11.77
23.234,-12.21
23.250,-12.66
23.265,-13.45
23.281,-14.87
23.296,-16.99
23.312,-19.57
23.328,-22.09
23.343,-23.88
23.359,-24.35
23.375,-23.13
23.390,-20.16
23.406,-15.6
23.421,-9.86
23.437,-3.43
23.453,3.23
23.468,9.73
23.484,15.82
23.500,21.43
23.515,26.57
23.531,31.2
23.546,35.23
23.562,38.45
23.578,40.64
23.593,41.7
23.609,41.79
23.625,41.18
23.640,40.2
23.656,39.16
23.671,38.15
23.687,37.2
23.703,36.29
23.718,35.36
23.734,34.38
23.750,33.32
23.765,32.04
23.781,30.41
23.796,28.28
23.812,25.59
23.828,22.33
23.843,18.64
23.859,14.72
23.875,10.83
23.890,7.21
23.906,4.1
23.921,1.65
23.937,-0.11
23.953,-1.24
23.968,-1.89
23.984,-2.29
24.000,-2.71
24.015,-3.32
24.031,-4.24
24.046,-5.44
24.062,-6.75
24.078,-7.89
24.093,-8.63
24.109,-8.82
24.125,-8.42
24.140,-7.53
24.156,-6.31
24.171,-4.9
24.187,-3.45
24.203,-2.08
24.218,-0.96
24.234,-0.29
24.250,-0.23
24.265,-0.91
24.281,-2.33
24.296,-4.41
24.312,-7.0
24.328,-9.92
24.343,-12.97
24.359,-16.01
24.375,-18.93
24.390,-21.69
24.406,-24.35
24.421,-27.04
24.437,-29.8
24.453,-32.61
24.468,-35.35
24.484,-37.78
24.500,-39.71
24.515,-41.06
24.531,-41.82
24.546,-42.07
24.562,-41.95
24.578,-41.59
24.593,-41.1
24.609,-40.66
24.625,-40.46
24.640,-40.63
24.656,-41.28
24.671,-42.41
24.687,-43.96
24.703,-45.85
24.718,-48.04
24.734,-50.54
24.750,-53.31
24.765,-56.15
24.781,-58.73
24.796,-60.47
24.812,-60.77
24.828,-59.18
24.843,-55.56
24.859,-50.13
24.875,-43.41
24.890,-36.02
24.906,-28.46
24.921,-21.15
24.937,-14.32
24.953,-8.16
24.968,-2.87
24.984,1.39
25.000,4.57
25.015,6.82
25.031,8.46
25.046,9.88
25.062,11.3
25.078,12.78
25.093,14.18
25.109,15.22
25.125,15.73
25.140,15.64
25.156,15.06
25.171,14.17
25.187,13.16
25.203,12.14
25.218,11.15
25.234,10.14
25.250,8.99
25.265,7.65
25.281,6.08
25.296,4.28
25.312,2.3
25.328,0.16
25.343,-2.11
25.359,-4.48
25.375,-6.99
25.390,-9.68
25.406,-12.54
25.421,-15.59
25.437,-18.76
25.453,-21.87
25.468,-24.64
25.484,-26.72
25.500,-27.7
25.515,-27.34
25.531,-25.62
25.546,-22.72
25.562,-18.99
25.578,-14.89
25.593,-10.76
25.609,-6.83
25.625,-3.25
25.640,-0.11
25.656,2.52
25.671,4.61
25.687,6.12
25.703,7.1
25.718,7.57
25.734,7.58
25.750,7.15
25.765,6.35
25.781,5.28
25.796,4.05
25.812,2.79
25.828,1.57
25.843,0.4
25.859,-0.74
25.875,-1.84
25.890,-2.87
25.906,-3.81
25.921,-4.71
25.937,-5.7
25.953,-6.98
25.968,-8.67
25.984,-10.86
26.000,-13.48
26.015,-16.42
26.031,-19.57
26.046,-22.82
26.062,-26.11
26.078,-29.37
26.093,-32.59
26.109,-35.75
26.125,-38.78
26.140,-41.52
26.156,-43.67
26.171,-44.79
26.187,-44.41
26.203,-42.18
26.218,-38.08
26.234,-32.44
26.250,-25.83
26.265,-18.92
26.281,-12.22
26.296,-6.02
26.312,-0.46
26.328,4.46
26.343,8.64
26.359,11.99
26.375,14.42
26.390,15.91
26.406,16.6
26.421,16.73
26.437,16.53
26.453,16.12
26.468,15.52
26.484,14.65
26.500,13.49
26.515,12.08
26.531,10.57
26.546,9.08
26.562,7.67
26.578,6.23
26.593,4.63
26.609,2.76
26.625,0.59
26.640,-1.77
26.656,-4.18
26.671,-6.53
26.687,-8.79
26.703,-11.0
26.718,-13.26
26.734,-15.75
26.750,-18.57
26.765,-21.76
26.781,-25.12
26.796,-28.28
26.812,-30.68
26.828,-31.75
26.843,-31.05
26.859,-28.4
26.875,-23.97
26.890,-18.18
26.906,-11.6
26.921,-4.83
26.937,1.62
26.953,7.44
26.968,12.43
26.984,16.54
27.000,19.75
27.015,22.05
27.031,23.4
27.046,23.81
27.062,23.46
27.078,22.51
27.093,21.27
27.109,19.98
27.125,18.8
27.140,17.78
27.156,16.91
27.171,16.14
27.187,15.36
27.203,14.53
27.218,13.49
27.234,12.17
27.250,10.47
27.265,8.37
27.281,5.93
27.296,3.25
27.312,0.46
27.328,-2.37
27.343,-5.21
27.359,-8.07
27.375,-10.99
27.390,-14.03
27.406,-17.19
27.421,-20.38
27.437,-23.35
27.453,-25.67
27.468,-26.83
27.484,-26.3
27.500,-23.83
27.515,-19.43
27.531,-13.46
27.546,-6.49
27.562,0.91
27.578,8.23
27.593,15.12
27.609,21.37
27.625,26.82
27.640,31.26
27.656,34.49
27.671,36.35
27.687,36.8
27.703,36.01
27.718,34.29
27.734,32.04
27.750,29.65
27.765,27.37
27.781,25.33
27.796,23.49
27.812,21.78
27.828,20.11
27.843,18.42
27.859,16.65
27.875,14.73
27.890,12.58
27.906,10.15
27.921,7.4
27.937,4.34
27.953,1.04
27.968,-2.41
27.984,-5.88
28.000,-9.24
28.015,-12.43
28.031,-15.47
28.046,-18.49
28.062,-21.69
28.078,-25.15
28.093,-28.76
28.109,-32.14
28.125,-34.67
28.140,-35.65
28.156,-34.56
28.171,-31.22
28.187,-25.89
28.203,-19.1
28.218,-11.53
28.234,-3.8
28.250,3.68
28.265,10.64
28.281,16.96
28.296,22.56
28.312,27.35
28.328,31.27
28.343,34.32
28.359,36.55
28.375,38.12
28.390,39.2
28.406,39.97
28.421,40.53
28.437,40.91
28.453,41.11
28.468,41.11
28.484,40.89
28.500,40.5
28.515,39.96
28.531,39.31
28.546,38.53
28.562,37.6
28.578,36.45
28.593,35.03
28.609,33.29
28.625,31.19
28.640,28.69
28.656,25.79
28.671,22.53
28.687,19.06
28.703,15.63
28.718,12.47
28.734,9.74
28.750,7.46
28.765,5.48
28.781,3.51
28.796,1.26
28.812,-1.45
28.828,-4.63
28.843,-8.03
28.859,-11.26
28.875,-13.83
28.890,-15.29
28.906,-15.33
28.921,-13.87
28.937,-11.11
28.953,-7.37
28.968,-3.09
28.984,1.34
29.000,5.61
29.015,9.58
29.031,13.12
29.046,16.22
29.062,18.9
29.078,21.22
29.093,23.28
29.109,25.16
29.125,26.83
29.140,28.24
29.156,29.29
29.171,29.92
29.187,30.14
29.203,30.07
29.218,29.8
29.234,29.36
29.250,28.77
29.265,27.95
29.281,26.83
29.296,25.4
29.312,23.64
29.328,21.6
29.343,19.33
29.359,16.85
29.375,14.19
29.390,11.33
29.406,8.26
29.421,5.03
29.437,1.65
29.453,-1.8
29.468,-5.26
29.484,-8.69
29.500,-12.13
29.515,-15.58
29.531,-19.06
29.546,-22.58
29.562,-26.11
29.578,-29.65
29.593,-33.2
29.609,-36.67
29.625,-39.91
29.640,-42.66
29.656,-44.57
29.671,-45.35
29.687,-44.85
29.703,-43.02
29.718,-39.99
29.734,-36.02
29.750,-31.38
29.765,-26.43
29.781,-21.49
29.796,-16.81
29.812,-12.54
29.828,-8.71
29.843,-5.29
29.859,-2.28
29.875,0.2
29.890,2.01
29.906,2.99
29.921,3.17
29.937,2.78
29.953,2.14
29.968,1.54
29.984,1.16
30.000,1.02
30.015,0.96
30.031,0.92
30.046,0.83
30.062,0.74
30.078,0.67
30.093,0.61
30.109,0.48
30.125,0.22
30.140,-0.22
30.156,-0.82
30.171,-1.5
30.187,-2.23
30.203,-2.97
30.218,-3.79
30.234,-4.73
30.250,-5.89
30.265,-7.34
30.281,-9.09
30.296,-11.09
30.312,-13.23
30.328,-15.4
30.343,-17.48
30.359,-19.44
30.375,-21.29
30.390,-23.11
30.406,-24.99
30.421,-26.99
30.437,-29.11
30.453,-31.3
30.468,-33.48
30.484,-35.52
30.500,-37.2
30.515,-38.28
30.531,-38.46
30.546,-37.5
30.562,-35.28
30.578,-31.81
30.593,-27.28
30.609,-21.95
30.625,-16.12
30.640,-10.11
30.656,-4.26
30.671,1.12
30.687,5.77
30.703,9.58
30.718,12.59
30.734,14.93
30.750,16.8
30.765,18.33
30.781,19.6
30.796,20.61
30.812,21.42
30.828,22.08
30.843,22.61
30.859,23.01
30.875,23.2
30.890,23.07
30.906,22.58
30.921,21.77
30.937,20.83
30.953,19.91
30.968,19.07
30.984,18.27
31.000,17.4
31.015,16.34
31.031,15.04
31.046,13.54
31.062,11.9
31.078,10.22
31.093,8.52
31.109,6.79
31.125,4.95
31.140,3.0
31.156,0.91
31.171,-1.24
31.187,-3.37
31.203,-5.36
31.218,-7.15
31.234,-8.73
31.250,-10.17
31.265,-11.58
31.281,-13.05
31.296,-14.66
31.312,-16.47
31.328,-18.51
31.343,-20.79
31.359,-23.27
31.375,-25.81
31.390,-28.18
31.406,-30.02
31.421,-31.03
31.437,-30.92
31.453,-29.56
31.468,-27.01
31.484,-23.44
31.500,-19.14
31.515,-14.44
31.531,-9.6
31.546,-4.82
31.562,-0.27
31.578,3.95
31.593,7.77
31.609,11.11
31.625,13.89
31.640,16.08
31.656,17.72
31.671,18.94
31.687,19.91
31.703,20.81
31.718,21.73
31.734,22.71
31.750,23.62
31.765,24.35
31.781,24.8
31.796,25.01
31.812,25.05
31.828,25.01
31.843,24.91
31.859,24.68
31.875,24.25
31.890,23.53
31.906,22.56
31.921,21.45
31.937,20.37
31.953,19.4
31.968,18.56
31.984,17.76
32.000,16.93
32.015,16.06
32.031,15.19
32.046,14.39
32.062,13.7
32.078,13.03
32.093,12.21
32.109,11.13
32.125,9.67
32.140,7.85
32.156,5.69
32.171,3.2
32.187,0.35
32.203,-2.87
32.218,-6.42
32.234,-10.16
32.250,-13.86
32.265,-17.3
32.281,-20.34
32.296,-22.88
32.312,-24.89
32.328,-26.29
32.343,-26.92
32.359,-26.65
32.375,-25.43
32.390,-23.32
32.406,-20.58
32.421,-17.44
32.437,-14.14
32.453,-10.8
32.468,-7.44
32.484,-4.09
32.500,-0.78
32.515,2.41
32.531,5.4
32.546,8.11
32.562,10.56
32.578,12.8
32.593,14.9
32.609,16.93
32.625,18.93
32.640,20.86
32.656,22.7
32.671,24.41
32.687,25.87
32.703,27.07
32.718,27.95
32.734,28.44
32.750,28.52
32.765,28.19
32.781,27.43
32.796,26.28
32.812,24.8
32.828,23.06
32.843,21.23
32.859,19.42
32.875,17.7
32.890,16.09
32.906,14.52
32.921,12.9
32.937,11.15
32.953,9.25
32.968,7.16
32.984,4.91
33.000,2.53
33.031,-2.69
33.046,-5.53
33.062,-8.53
33.078,-11.64
33.093,-14.77
33.109,-17.84
33.125,-20.73
33.140,-23.39
33.156,-25.79
33.171,-27.84
33.187,-29.44
33.203,-30.35
33.218,-30.34
33.234,-29.21
33.250,-26.94
33.265,-23.77
33.281,-20.09
33.296,-16.37
33.312,-12.93
33.328,-10.01
33.343,-7.58
33.359,-5.62
33.375,-4.11
33.390,-3.05
33.406,-2.47
33.421,-2.27
33.437,-2.26
33.453,-2.11
33.468,-1.63
33.484,-0.73
33.500,0.48
33.515,1.72
33.531,2.79
33.546,3.54
33.562,4.01
33.578,4.32
33.593,4.66
33.609,5.04
33.625,5.41
33.640,5.62
33.656,5.46
33.671,4.88
33.687,3.87
33.703,2.56
33.718,1.1
33.734,-0.44
33.750,-2.01
33.765,-3.63
33.781,-5.26
33.796,-6.91
33.812,-8.52
33.828,-10.09
33.843,-11.59
33.859,-13.06
33.875,-14.51
33.890,-16.04
33.906,-17.71
33.921,-19.58
33.937,-21.76
33.953,-24.27
33.968,-27.12
33.984,-30.17
34.000,-33.15
34.015,-35.68
34.031,-37.39
34.046,-37.97
34.062,-37.29
34.078,-35.43
34.093,-32.56
34.109,-29.0
34.125,-25.0
34.140,-20.8
34.156,-16.59
34.171,-12.63
34.187,-9.19
34.203,-6.56
34.218,-4.89
34.234,-4.18
34.250,-4.24
34.265,-4.8
34.281,-5.55
34.296,-6.23
34.312,-6.64
34.328,-6.67
34.343,-6.25
34.359,-5.42
34.375,-4.29
34.390,-3.06
34.406,-1.98
34.421,-1.16
34.437,-0.62
34.453,-0.25
34.468,0.05
34.484,0.34
34.500,0.54
34.515,0.51
34.531,0.13
34.546,-0.6
34.562,-1.54
34.578,-2.47
34.593,-3.21
34.609,-3.71
34.625,-4.11
34.640,-4.62
34.656,-5.44
34.671,-6.68
34.687,-8.28
34.703,-10.11
34.718,-12.01
34.734,-13.87
34.750,-15.64
34.765,-17.36
34.781,-19.1
34.796,-20.97
34.812,-23.07
34.828,-25.4
34.843,-27.86
34.859,-30.22
34.875,-32.1
34.890,-33.09
34.906,-32.89
34.921,-31.42
34.937,-28.83
34.953,-25.5
34.968,-21.77
34.984,-17.94
35.000,-14.12
35.015,-10.3
35.031,-6.5
35.046,-2.79
35.062,0.74
35.078,3.99
35.093,6.86
35.109,9.35
35.125,11.45
35.140,13.16
35.156,14.49
35.171,15.4
35.187,15.93
35.203,16.22
35.218,16.43
35.234,16.7
35.250,17.06
35.265,17.49
35.281,17.86
35.296,18.11
35.312,18.14
35.328,17.94
35.343,17.55
35.359,17.02
35.375,16.35
35.390,15.6
35.406,14.74
35.421,13.76
35.437,12.62
35.453,11.25
35.468,9.6
35.484,7.7
35.500,5.59
35.515,3.39
35.531,1.26
35.546,-0.72
35.562,-2.51
35.578,-4.13
35.593,-5.67
35.609,-7.28
35.625,-9.04
35.640,-11.16
35.656,-13.71
35.671,-16.67
35.687,-19.8
35.703,-22.65
35.718,-24.67
35.734,-25.35
35.750,-24.45
35.765,-22.06
35.781,-18.56
35.796,-14.43
35.812,-10.07
35.828,-5.69
35.843,-1.39
35.859,2.78
35.875,6.76
35.890,10.45
35.906,13.75
35.921,16.59
35.937,19.0
35.953,21.03
35.968,22.76
35.984,24.16
36.000,25.23
36.015,25.99
36.031,26.54
36.046,27.02
36.062,27.53
36.078,28.15
36.093,28.75
36.109,29.16
36.125,29.16
36.140,28.58
36.156,27.39
36.171,25.7
36.187,23.7
36.203,21.59
36.218,19.55
36.234,17.54
36.250,15.47
36.265,13.15
36.281,10.44
36.296,7.26
36.312,3.73
36.328,0.03
36.343,-3.62
36.359,-7.05
36.375,-10.28
36.390,-13.38
36.406,-16.53
36.421,-19.8
36.437,-23.22
36.453,-26.69
36.468,-29.95
36.484,-32.68
36.500,-34.51
36.515,-35.07
36.531,-34.08
36.546,-31.48
36.562,-27.39
36.578,-22.19
36.593,-16.42
36.609,-10.63
36.625,-5.26
36.640,-0.58
36.656,3.33
36.671,6.55
36.687,9.16
36.703,11.28
36.718,12.94
36.734,14.15
36.750,14.98
36.765,15.63
36.781,16.3
36.796,17.16
36.812,18.23
36.828,19.38
36.843,20.3
36.859,20.75
36.875,20.55
36.890,19.7
36.906,18.34
36.921,16.68
36.937,14.91
36.953,13.13
36.968,11.4
36.984,9.66
37.000,7.89
37.015,6.06
37.031,4.21
37.046,2.43
37.062,0.77
37.078,-0.72
37.093,-2.05
37.109,-3.28
37.125,-4.5
37.140,-5.75
37.156,-7.09
37.171,-8.59
37.187,-10.35
37.203,-12.47
37.218,-14.87
37.234,-17.3
37.250,-19.24
37.265,-20.12
37.281,-19.45
37.296,-17.03
37.312,-13.0
37.328,-7.74
37.343,-1.77
37.359,4.47
37.375,10.68
37.390,16.67
37.406,22.29
37.421,27.42
37.437,31.92
37.453,35.66
37.468,38.63
37.484,40.82
37.500,42.36
37.515,43.42
37.531,44.23
37.546,44.9
37.562,45.55
37.578,46.18
37.593,46.7
37.609,47.13
37.625,47.47
37.640,47.85
37.656,48.4
37.671,49.21
37.687,50.27
37.703,51.41
37.718,52.37
37.734,52.79
37.750,52.46
37.765,51.34
37.781,49.6
37.796,47.62
37.812,45.79
37.828,44.43
37.843,43.6
37.859,43.13
37.875,42.73
37.890,42.16
37.906,41.33
37.921,40.21
37.937,38.86
37.953,37.3
37.968,35.6
37.984,34.0
38.000,33.0
38.015,33.29
38.031,35.65
38.046,40.6
38.062,48.24
38.078,58.22
38.093,69.83
38.109,82.3
38.125,95.01
38.140,107.7
38.156,120.46
38.171,133.58
38.187,147.29
38.203,161.46
38.218,175.38
38.234,187.75
38.250,196.85
38.265,201.02
38.281,198.96
38.296,190.09
38.312,174.58
38.328,153.35
38.343,128.04
38.359,100.88
38.375,74.51
38.390,51.51
38.406,33.75
38.421,21.82
38.437,14.87
38.453,10.96
38.468,8.04
38.484,4.87
38.500,1.38
38.515,-1.81
38.531,-4.3
38.546,-6.74
38.562,-10.99
38.578,-19.3
38.593,-33.32
38.609,-53.25
38.625,-77.86
38.640,-105.34
38.656,-134.1
38.671,-163.16
38.687,-191.73
38.703,-218.71
38.718,-242.14
38.734,-259.57
38.750,-269.09
38.765,-270.08
38.781,-263.79
38.796,-252.75
38.812,-239.87
38.828,-227.33
38.843,-216.14
38.859,-206.26
38.875,-197.08
38.890,-188.07
38.906,-179.07
38.921,-170.29
38.937,-161.98
38.953,-154.23
38.968,-146.89
38.984,-139.72
39.000,-132.5
39.015,-125.27
39.031,-118.38
39.046,-112.23
39.062,-107.14
39.078,-103.13
39.093,-99.93
39.109,-97.16
39.125,-94.52
39.140,-91.97
39.156,-89.65
39.171,-87.72
39.187,-86.09
39.203,-84.34
39.218,-81.89
39.234,-78.17
39.250,-72.98
39.265,-66.62
39.281,-59.78
39.296,-53.29
39.312,-47.91
39.328,-43.99
39.343,-41.43
39.359,-39.72
39.375,-37.96
39.390,-35.21
39.406,-30.78
39.421,-24.66
39.437,-17.58
39.453,-10.9
39.468,-6.03
39.484,-3.75
39.500,-3.91
39.515,-5.43
39.531,-6.93
39.546,-7.3
39.562,-6.14
39.578,-3.69
39.593,-0.34
39.609,3.69
39.625,8.56
39.640,14.38
39.656,20.95
39.671,27.69
39.687,34.11
39.703,40.2
39.718,46.44
39.734,53.49
39.750,61.52
39.765,69.85
39.781,77.13
39.796,82.09
39.812,84.35
39.828,84.67
39.843,84.58
39.859,85.52
39.875,88.17
39.890,92.27
39.906,96.97
39.921,101.48
39.937,105.46
39.953,109.06
39.968,112.52
39.984,115.87
40.000,118.75
40.015,120.7
40.031,121.31
40.046,120.47
40.062,118.47
40.078,115.7
40.093,112.62
40.109,109.45
40.125,106.19
40.140,102.71
40.156,98.96
40.171,94.89
40.187,90.57
40.203,86.04
40.218,81.21
40.234,75.95
40.250,70.13
40.265,63.76
40.281,56.98
40.296,49.96
40.312,42.78
40.328,35.54
40.343,28.29
40.359,21.16
40.375,14.41
40.390,8.21
40.406,2.65
40.421,-2.4
40.437,-7.13
40.453,-11.68
40.468,-15.92
40.484,-19.61
40.500,-22.51
40.515,-24.49
40.531,-25.5
40.546,-25.38
40.562,-23.58
40.578,-19.18
40.593,-11.22
40.609,0.9
40.625,16.88
40.640,35.41
40.656,54.29
40.671,71.01
40.687,83.29
40.703,89.63
40.718,89.6
40.734,83.89
40.750,74.11
40.765,62.27
40.781,50.19
40.796,38.98
40.812,28.7
40.828,18.55
40.843,7.22
40.859,-6.46
40.875,-23.07
40.890,-42.39
40.906,-63.3
40.921,-84.02
40.937,-102.27
40.953,-115.57
40.968,-121.75
40.984,-119.68
41.000,-110.18
41.015,-96.45
41.031,-83.57
41.046,-77.05
41.062,-80.81
41.078,-95.4
41.093,-117.5
41.109,-141.03
41.125,-159.31
41.140,-167.46
41.156,-163.88
41.171,-150.18
41.187,-130.01
41.203,-107.35
41.218,-85.37
41.234,-65.98
41.250,-50.09
41.265,-38.04
41.281,-29.77
41.296,-24.75
41.312,-21.81
41.328,-19.19
41.343,-15.01
41.359,-7.87
41.375,2.54
41.390,15.24
41.406,28.27
41.421,39.49
41.437,47.25
41.453,51.02
41.468,51.39
41.484,49.64
41.500,47.14
41.515,44.75
41.531,42.61
41.546,40.34
41.562,37.56
41.578,34.29
41.593,31.18
41.609,29.32
41.625,29.72
41.640,32.86
41.656,38.44
41.671,45.3
41.687,51.86
41.703,56.54
41.718,58.24
41.734,56.9
41.750,53.81
41.765,51.57
41.781,53.52
41.796,62.53
41.812,79.43
41.828,101.9
41.843,124.42
41.859,139.53
41.875,140.25
41.890,122.62
41.906,87.32
41.921,39.85
41.937,-11.0
41.953,-55.75
41.968,-86.9
41.984,-100.88
42.000,-98.82
42.015,-85.61
42.031,-68.12
42.046,-53.06
42.062,-45.06
42.078,-45.61
42.093,-53.01
42.109,-63.2
42.125,-71.24
42.140,-72.84
42.156,-65.58
42.171,-49.37
42.187,-26.47
42.203,-0.74
42.218,23.21
42.234,41.03
42.250,49.34
42.265,46.24
42.281,31.55
42.296,6.92
42.312,-24.41
42.328,-58.02
42.343,-89.25
42.359,-114.04
42.375,-129.84
42.390,-136.04
42.406,-133.96
42.421,-126.21
42.437,-115.89
42.453,-105.76
42.468,-97.68
42.484,-92.38
42.500,-89.65
42.515,-88.81
42.531,-89.19
42.546,-90.53
42.562,-93.0
42.578,-97.03
42.593,-102.96
42.609,-110.77
42.625,-119.96
42.640,-129.59
42.656,-138.44
42.671,-145.29
42.687,-149.17
42.703,-149.59
42.718,-146.62
42.734,-140.85
42.750,-133.29
42.765,-125.02
42.781,-117.06
42.796,-110.14
42.812,-104.7
42.828,-100.85
42.843,-98.44
42.859,-97.04
42.875,-96.0
42.890,-94.51
42.906,-91.83
42.921,-87.48
42.937,-81.33
42.953,-73.74
42.968,-65.43
42.984,-57.25
43.000,-49.98
43.015,-44.17
43.031,-39.96
43.046,-37.24
43.062,-35.68
43.078,-34.91
43.093,-34.61
43.109,-34.63
43.125,-34.94
43.140,-35.57
43.156,-36.59
43.171,-37.98
43.187,-39.65
43.203,-41.4
43.218,-43.03
43.234,-44.38
43.250,-45.45
43.265,-46.34
43.281,-47.38
43.296,-48.99
43.312,-51.51
43.328,-55.13
43.343,-59.66
43.359,-64.48
43.375,-68.57
43.390,-70.74
43.406,-69.9
43.421,-65.4
43.437,-57.22
43.453,-45.9
43.468,-32.43
43.484,-17.93
43.500,-3.39
43.515,10.46
43.531,23.15
43.546,34.4
43.562,44.05
43.578,52.07
43.593,58.52
43.609,63.62
43.625,67.64
43.640,70.91
43.656,73.68
43.671,76.07
43.687,78.05
43.703,79.52
43.718,80.38
43.734,80.6
43.750,80.28
43.765,79.59
43.781,78.76
43.796,77.88
43.812,76.89
43.828,75.44
43.843,73.1
43.859,69.54
43.875,64.66
43.890,58.73
43.906,52.3
43.921,46.0
43.937,40.25
43.953,35.2
43.968,30.63
43.984,26.12
44.000,21.19
44.015,15.37
44.031,8.48
44.046,0.7
44.062,-7.28
44.078,-14.27
44.093,-18.82
44.109,-19.61
44.125,-15.84
44.140,-7.57
44.156,4.27
44.171,18.22
44.187,32.75
44.203,46.68
44.218,59.41
44.234,70.82
44.250,81.05
44.265,90.22
44.281,98.32
44.296,105.15
44.312,110.54
44.328,114.4
44.343,116.81
44.359,118.08
44.375,118.52
44.390,118.45
44.406,117.98
44.421,117.16
44.437,115.91
44.453,114.19
44.468,112.04
44.484,109.62
44.500,107.18
44.515,104.91
44.531,102.81
44.546,100.64
44.562,98.01
44.578,94.52
44.593,90.06
44.609,84.8
44.625,79.22
44.640,73.88
44.656,69.23
44.671,65.5
44.687,62.56
44.703,60.07
44.718,57.58
44.734,54.66
44.750,51.14
44.765,47.25
44.781,43.68
44.796,41.48
44.812,41.83
44.828,45.66
44.843,53.26
44.859,64.21
44.875,77.56
44.890,92.11
44.906,106.79
44.921,120.94
44.937,134.36
44.953,147.19
44.968,159.7
44.984,171.85
45.000,183.21
45.015,192.74
45.031,199.07
45.046,200.77
45.062,196.96
45.078,187.66
45.093,173.9
45.109,157.39
45.125,139.98
45.140,123.06
45.156,107.3
45.171,92.81
45.187,79.56
45.203,67.89
45.218,58.78
45.234,53.78
45.250,54.46
45.265,61.56
45.281,74.14
45.296,89.18
45.312,102.0
45.328,107.46
45.343,101.54
45.359,82.66
45.375,52.24
45.390,14.21
45.406,-26.0
45.421,-62.75
45.437,-91.19
45.453,-108.17
45.468,-112.87
45.484,-107.36
45.500,-96.5
45.515,-87.02
45.531,-85.51
45.546,-96.16
45.562,-119.17
45.578,-150.58
45.593,-183.88
45.609,-212.39
45.625,-231.49
45.640,-239.54
45.656,-237.63
45.671,-228.27
45.687,-214.18
45.703,-197.61
45.718,-180.37
45.734,-164.01
45.750,-150.03
45.765,-139.65
45.781,-133.33
45.796,-130.6
45.812,-130.12
45.828,-130.14
45.843,-129.22
45.859,-126.63
45.875,-122.48
45.890,-117.28
45.906,-111.46
45.921,-104.93
45.937,-97.12
45.953,-87.36
45.968,-75.22
45.984,-61.06
46.000,-45.9
46.015,-31.22
46.031,-18.46
46.046,-8.62
46.062,-2.08
46.078,1.5
46.093,2.95
46.109,3.41
46.125,3.92
46.140,5.23
46.156,7.63
46.171,10.8
46.187,14.08
46.203,16.65
46.218,17.89
46.234,17.48
46.250,15.66
46.265,13.02
46.281,10.46
46.296,8.96
46.312,9.22
46.328,11.61
46.343,15.93
46.359,21.67
46.375,28.04
46.390,34.46
46.406,40.64
46.421,46.6
46.437,52.59
46.453,58.7
46.468,64.8
46.484,70.39
46.500,74.8
46.515,77.4
46.531,77.93
46.546,76.7
46.562,74.57
46.578,72.83
46.593,72.67
46.609,74.79
46.625,79.01
46.640,84.31
46.656,89.22
46.671,92.45
46.687,93.38
46.703,92.29
46.718,90.28
46.734,88.78
46.750,89.08
46.765,91.86
46.781,96.95
46.796,103.4
46.812,109.81
46.828,114.71
46.843,117.01
46.859,116.33
46.875,112.95
46.890,107.61
46.906,101.21
46.921,94.51
46.937,88.15
46.953,82.6
46.968,78.03
46.984,74.15
47.000,70.21
47.015,65.15
47.031,57.98
47.046,48.28
47.062,36.42
47.078,23.4
47.093,10.51
47.109,-1.19
47.125,-11.02
47.140,-18.6
47.156,-23.71
47.171,-26.26
47.187,-26.36
47.203,-24.61
47.218,-22.07
47.234,-19.98
47.250,-19.26
47.265,-20.16
47.281,-22.27
47.296,-24.86
47.312,-27.3
47.328,-29.29
47.343,-30.83
47.359,-31.92
47.375,-32.33
47.390,-31.52
47.406,-28.98
47.421,-24.57
47.437,-18.73
47.453,-12.49
47.468,-7.04
47.484,-3.41
47.500,-2.16
47.515,-3.29
47.531,-6.34
47.546,-10.49
47.562,-14.72
47.578,-17.95
47.593,-19.23
47.609,-18.01
47.625,-14.52
47.640,-9.75
47.656,-5.25
47.671,-2.68
47.687,-3.08
47.703,-6.49
47.718,-11.89
47.734,-17.65
47.750,-22.32
47.765,-25.25
47.781,-26.85
47.796,-28.35
47.812,-31.22
47.828,-36.58
47.843,-44.81
47.859,-55.47
47.875,-67.42
47.890,-78.81
47.906,-87.34
47.921,-90.75
47.937,-87.61
47.953,-78.19
47.968,-64.94
47.984,-51.99
48.000,-43.69
48.015,-42.9
48.031,-49.62
48.046,-60.93
48.062,-72.32
48.078,-79.64
48.093,-80.72
48.109,-76.01
48.125,-67.85
48.140,-59.05
48.156,-51.56
48.171,-45.71
48.187,-40.46
48.203,-34.1
48.218,-25.24
48.234,-13.39
48.250,0.82
48.265,16.12
48.281,31.23
48.296,45.39
48.312,58.68
48.328,71.76
48.343,85.38
48.359,99.95
48.375,115.18
48.390,130.13
48.406,143.49
48.421,153.72
48.437,159.1
48.453,157.8
48.468,148.19
48.484,129.5
48.500,102.75
48.515,71.31
48.531,40.5
48.546,16.34
48.562,3.47
48.578,3.3
48.593,13.29
48.609,27.9
48.625,40.61
48.640,46.33
48.656,42.87
48.671,30.94
48.687,12.97
48.703,-8.52
48.718,-31.81
48.734,-55.94
48.750,-79.8
48.765,-101.37
48.781,-117.61
48.796,-125.49
48.812,-123.48
48.828,-112.75
48.843,-97.26
48.859,-82.3
48.875,-72.62
48.890,-70.72
48.906,-76.33
48.921,-87.2
48.937,-100.39
48.953,-113.6
48.968,-125.4
48.984,-134.92
49.000,-140.99
49.015,-141.99
49.031,-136.41
49.046,-123.93
49.062,-106.25
49.078,-86.94
49.093,-70.27
49.109,-59.41
49.125,-55.11
49.140,-55.52
49.156,-57.13
49.171,-56.41
49.187,-51.41
49.203,-42.31
49.218,-31.18
49.234,-20.96
49.250,-14.27
49.265,-12.7
49.281,-16.72
49.296,-25.88
49.312,-39.12
49.328,-54.96
49.343,-71.6
49.359,-86.95
49.375,-98.96
49.390,-106.08
49.406,-107.8
49.421,-104.89
49.437,-99.18
49.453,-93.0
49.468,-88.34
49.484,-86.17
49.500,-86.17
49.515,-86.97
49.531,-86.78
49.546,-84.16
49.562,-78.52
49.578,-70.25
49.593,-60.43
49.609,-50.43
49.625,-41.26
49.640,-33.36
49.656,-26.6
49.671,-20.41
49.687,-14.21
49.703,-7.67
49.718,-0.8
49.734,6.0
49.750,12.17
49.765,17.2
49.781,20.81
49.796,23.07
49.812,24.43
49.828,25.51
49.843,26.92
49.859,29.14
49.875,32.35
49.890,36.37
49.906,40.81
49.921,45.04
49.937,48.44
49.953,50.53
49.968,51.02
49.984,49.9
50.000,47.31
50.015,43.46
50.031,38.47
50.046,32.48
50.062,25.66
50.078,18.4
50.093,11.33
50.109,5.13
50.125,0.38
50.140,-2.7
50.156,-4.31
50.171,-5.05
50.187,-5.62
50.203,-6.65
50.218,-8.48
50.234,-11.07
50.250,-14.08
50.265,-17.06
50.281,-19.65
50.296,-21.65
50.312,-23.05
50.328,-23.83
50.343,-23.92
50.359,-23.05
50.375,-20.88
50.390,-17.17
50.406,-11.96
50.421,-5.71
50.437,0.8
50.453,6.63
50.468,10.84
50.484,12.69
50.500,11.7
50.515,7.75
50.531,1.13
50.546,-7.47
50.562,-17.19
50.578,-27.41
50.593,-38.03
50.609,-49.78
50.625,-63.88
50.640,-81.43
50.656,-102.54
50.671,-125.58
50.687,-147.28
50.703,-163.47
50.718,-170.59
50.734,-166.98
50.750,-153.59
50.765,-133.66
50.781,-111.46
50.796,-90.98
50.812,-74.67
50.828,-63.03
50.843,-55.05
50.859,-48.92
50.875,-42.9
50.890,-35.79
50.906,-27.27
50.921,-17.75
50.937,-8.3
50.953,-0.29
50.968,5.05
50.984,6.98
51.000,5.66
51.015,2.16
51.031,-1.72
51.046,-4.0
51.062,-3.05
51.078,2.02
51.093,11.18
51.109,23.73
51.125,38.49
51.140,54.24
51.156,69.81
51.171,84.28
51.187,97.01
51.203,107.71
51.218,116.41
51.234,123.42
51.250,129.21
51.265,134.23
51.281,138.73
51.296,142.64
51.312,145.63
51.328,147.24
51.343,147.2
51.359,145.57
51.375,142.82
51.390,139.71
51.406,136.96
51.421,135.0
51.437,133.8
51.453,132.87
51.468,131.68
51.484,129.82
51.500,127.25
51.515,124.2
51.531,121.1
51.546,118.28
51.562,115.85
51.578,113.71
51.593,111.6
51.609,109.29
51.625,106.65
51.640,103.62
51.656,100.06
51.671,95.8
51.687,90.53
51.703,83.87
51.718,75.69
51.734,66.07
51.750,55.48
51.765,44.73
51.781,34.8
51.796,26.68
51.812,21.23
51.828,19.03
51.843,20.24
51.859,24.69
51.875,31.75
51.890,40.59
51.906,50.25
51.921,59.88
51.937,68.83
51.953,76.74
51.968,83.5
51.984,89.11
52.000,93.66
52.015,97.18
52.031,99.68
52.046,101.23
52.062,101.95
52.078,102.09
52.093,101.99
52.109,101.96
52.125,102.18
52.140,102.59
52.156,102.82
52.171,102.28
52.187,100.39
52.203,96.67
52.218,90.99
52.234,83.53
52.250,74.78
52.265,65.38
52.281,56.05
52.296,47.34
52.312,39.63
52.328,33.02
52.343,27.4
52.359,22.46
52.375,17.81
52.390,13.12
52.406,8.25
52.421,3.25
52.437,-1.67
52.453,-6.29
52.468,-10.44
52.484,-14.11
52.500,-17.5
52.515,-20.92
52.531,-24.72
52.546,-29.19
52.562,-34.32
52.578,-39.76
52.593,-44.76
52.609,-48.32
52.625,-49.48
52.640,-47.71
52.656,-43.01
52.671,-35.99
52.687,-27.65
52.703,-19.02
52.718,-10.87
52.734,-3.59
52.750,2.74
52.765,8.27
52.781,13.04
52.796,16.99
52.812,19.91
52.828,21.59
52.843,21.93
52.859,21.05
52.875,19.19
52.890,16.7
52.906,13.82
52.921,10.72
52.937,7.41
52.953,3.9
52.968,0.25
52.984,-3.43
53.000,-7.03
53.015,-10.51
53.031,-13.94
53.046,-17.43
53.062,-21.11
53.078,-24.99
53.093,-28.98
53.109,-33.01
53.125,-37.0
53.140,-40.94
53.156,-44.88
53.171,-48.8
53.187,-52.6
53.203,-56.16
53.218,-59.39
53.234,-62.35
53.250,-65.28
53.265,-68.44
53.281,-72.1
53.296,-76.35
53.312,-81.02
53.328,-85.76
53.343,-90.03
53.359,-93.16
53.375,-94.45
53.390,-93.29
53.406,-89.4
53.421,-82.98
53.437,-74.75
53.453,-65.76
53.468,-57.12
53.484,-49.64
53.500,-43.65
53.515,-39.01
53.531,-35.36
53.546,-32.37
53.562,-29.96
53.578,-28.21
53.593,-27.24
53.609,-26.99
53.625,-27.13
53.640,-27.14
53.656,-26.52
53.671,-25.0
53.687,-22.58
53.703,-19.57
53.718,-16.29
53.734,-13.09
53.750,-10.19
53.765,-7.64
53.781,-5.38
53.796,-3.41
53.812,-1.82
53.828,-0.85
53.843,-0.88
53.859,-2.2
53.875,-4.91
53.890,-8.84
53.906,-13.55
53.921,-18.54
53.937,-23.36
53.953,-27.87
53.968,-32.13
53.984,-36.35
54.000,-40.72
54.015,-45.25
54.031,-49.75
54.046,-53.92
54.062,-57.56
54.078,-60.47
54.093,-62.61
54.109,-63.84
54.125,-63.91
54.140,-62.4
54.156,-58.9
54.171,-53.22
54.187,-45.58
54.203,-36.67
54.218,-27.32
54.234,-18.31
54.250,-10.02
54.265,-2.44
54.281,4.7
54.296,11.59
54.312,18.2
54.328,24.35
54.343,29.75
54.359,34.19
54.375,37.69
54.390,40.34
54.406,42.39
54.421,44.09
54.437,45.74
54.453,47.54
54.468,49.54
54.484,51.54
54.500,53.2
54.515,54.18
54.531,54.24
54.546,53.36
54.562,51.68
54.578,49.34
54.593,46.44
54.609,43.0
54.625,38.96
54.640,34.3
54.656,29.03
54.671,23.09
54.687,16.45
54.703,9.16
54.718,1.5
54.734,-6.04
54.750,-12.89
54.765,-18.77
54.781,-23.78
54.796,-28.41
54.812,-33.29
54.828,-38.82
54.843,-44.96
54.859,-51.11
54.875,-56.24
54.890,-59.08
54.906,-58.62
54.921,-54.39
54.937,-46.69
54.953,-36.53
54.968,-25.25
54.984,-13.97
55.000,-3.35
55.015,6.62
55.031,16.23
55.046,25.75
55.062,35.1
55.078,43.96
55.093,51.9
55.109,58.72
55.125,64.47
55.140,69.29
55.156,73.34
55.171,76.74
55.187,79.71
55.203,82.6
55.218,85.82
55.234,89.61
55.250,94.12
55.265,99.25
55.281,104.66
55.296,109.95
55.312,114.55
55.328,117.87
55.343,119.53
55.359,119.61
55.375,118.66
55.390,117.5
55.406,116.56
55.421,115.3
55.437,112.26
55.453,105.5
55.468,93.59
55.484,76.24
55.500,54.37
55.515,29.52
55.531,3.34
55.546,-22.66
55.562,-46.79
55.578,-66.76
55.593,-79.76
55.609,-83.13
55.625,-75.52
55.640,-57.73
55.656,-32.86
55.671,-5.4
55.687,20.02
55.703,39.81
55.718,52.13
55.734,56.85
55.750,55.37
55.765,49.77
55.781,42.1
55.796,33.77
55.812,25.3
55.828,16.54
55.843,7.0
55.859,-3.71
55.875,-15.68
55.890,-28.56
55.906,-41.52
55.921,-53.32
55.937,-62.41
55.953,-67.26
55.968,-66.78
55.984,-61.0
56.000,-51.22
56.015,-39.79
56.031,-29.33
56.046,-21.85
56.062,-18.23
56.078,-18.18
56.093,-20.87
56.109,-25.37
56.125,-31.21
56.140,-38.24
56.156,-46.64
56.171,-56.67
56.187,-68.42
56.203,-81.53
56.218,-95.14
56.234,-108.05
56.250,-118.97
56.265,-126.98
56.281,-131.73
56.296,-133.51
56.312,-133.18
56.328,-131.82
56.343,-130.36
56.359,-129.31
56.375,-128.73
56.390,-128.29
56.406,-127.45
56.421,-125.67
56.437,-122.45
56.453,-117.51
56.468,-110.65
56.484,-101.81
56.500,-91.15
56.515,-79.06
56.531,-66.14
56.546,-53.13
56.562,-40.8
56.578,-29.71
56.593,-20.07
56.609,-11.74
56.625,-4.31
56.640,2.63
56.656,9.35
56.671,15.95
56.687,22.37
56.703,28.62
56.718,34.79
56.734,41.01
56.750,47.37
56.765,53.74
56.781,59.68
56.796,64.54
56.812,67.64
56.828,68.5
56.843,67.08
56.859,63.76
56.875,59.32
56.890,54.51
56.906,49.84
56.921,45.35
56.937,40.73
56.953,35.42
56.968,28.89
56.984,20.79
57.000,11.16
57.015,0.45
57.031,-10.28
57.046,-19.39
57.062,-24.98
57.078,-25.44
57.093,-20.32
57.109,-10.84
57.125,0.11
57.140,8.8
57.156,12.05
57.171,8.4
57.187,-1.38
57.203,-14.88
57.218,-29.21
57.234,-42.24
57.250,-53.06
57.265,-61.6
57.281,-67.99
57.296,-71.8
57.312,-72.32
57.328,-68.86
57.343,-61.38
57.359,-50.48
57.375,-36.94
57.390,-21.14
57.406,-3.1
57.421,16.98
57.437,37.84
57.453,56.59
57.468,69.47
57.484,73.21
57.500,66.76
57.515,52.1
57.531,33.8
57.546,17.39
57.562,7.48
57.578,6.34
57.593,13.27
57.609,25.1
57.625,36.94
57.640,43.59
57.656,40.75
57.671,26.21
57.687,0.6
57.703,-32.46
57.718,-67.17
57.734,-96.97
57.750,-116.48
57.765,-123.03
57.781,-117.34
57.796,-103.14
57.812,-85.84
57.828,-70.63
57.843,-60.86
57.859,-57.14
57.875,-57.68
57.890,-59.46
57.906,-59.7
57.921,-57.01
57.937,-51.5
57.953,-44.25
57.968,-36.38
57.984,-28.52
58.000,-20.8
58.015,-13.28
58.031,-6.22
58.046,0.09
58.062,5.76
58.078,11.62
58.093,18.92
58.109,28.4
58.125,39.21
58.140,48.54
58.156,52.36
58.171,47.02
58.187,31.01
58.203,5.9
58.218,-23.79
58.234,-52.22
58.250,-74.09
58.265,-86.56
58.281,-89.95
58.296,-87.33
58.312,-83.01
58.328,-80.86
58.343,-82.74
58.359,-87.79
58.375,-92.82
58.390,-93.81
58.406,-87.77
58.421,-74.38
58.437,-56.6
58.453,-39.42
58.468,-28.03
58.484,-25.43
58.500,-31.36
58.515,-42.52
58.531,-54.17
58.546,-62.14
58.562,-64.27
58.578,-60.7
58.593,-53.03
58.609,-43.08
58.625,-32.07
58.640,-20.54
58.656,-8.9
58.671,2.06
58.687,11.04
58.703,16.72
58.718,18.44
58.734,16.72
58.750,13.12
58.765,9.64
58.781,7.82
58.796,8.07
58.812,9.61
58.828,10.92
58.843,10.52
58.859,7.66
58.875,2.64
58.890,-3.48
58.906,-9.43
58.921,-14.35
58.937,-18.32
58.953,-22.2
58.968,-27.15
58.984,-33.87
59.000,-42.12
59.015,-50.52
59.031,-56.97
59.046,-59.43
59.062,-56.61
59.078,-48.54
59.093,-36.45
59.109,-22.28
59.125,-8.01
59.140,4.94
59.156,15.92
59.171,24.96
59.187,32.41
59.203,38.62
59.218,43.74
59.234,47.75
59.250,50.68
59.265,52.69
59.281,54.14
59.296,55.52
59.312,57.37
59.328,60.05
59.343,63.72
59.359,68.3
59.375,73.59
59.390,79.24
59.406,84.96
59.421,90.38
59.437,95.12
59.453,98.7
59.468,100.61
59.484,100.43
59.500,98.02
59.515,93.53
59.531,87.28
59.546,79.69
59.562,71.04
59.578,61.7
59.593,52.44
59.609,44.73
59.625,40.63
59.640,42.17
59.656,50.3
59.671,64.11
59.687,80.74
59.703,96.17
59.718,106.52
59.734,109.34
59.750,104.34
59.765,93.18
59.781,78.99
59.796,65.41
59.812,55.71
59.828,52.04
59.843,54.78
59.859,62.16
59.875,70.64
59.890,75.89
59.906,74.28
59.921,64.39
59.937,47.67
59.953,27.9
59.968,9.95
59.984,-2.02
