timestamp,value
00.000,123.36
00.015,126.36
00.031,126.45
00.046,123.78
00.062,118.19
00.078,108.9
00.093,94.84
00.109,75.39
00.125,51.18
00.140,24.19
00.156,-2.8
00.171,-27.34
00.187,-48.17
00.203,-65.34
00.218,-79.6
00.234,-91.41
00.250,-100.26
00.265,-104.82
00.281,-103.69
00.296,-96.19
00.312,-82.88
00.328,-65.42
00.343,-45.86
00.359,-26.0
00.375,-7.1
00.390,10.02
00.406,24.73
00.421,36.29
00.437,44.01
00.453,47.6
00.468,47.48
00.484,44.73
00.500,40.7
00.515,36.14
00.531,30.91
00.546,24.05
00.562,14.52
00.578,2.17
00.593,-11.76
00.609,-24.9
00.625,-34.57
00.640,-38.89
00.656,-37.43
00.671,-30.8
00.687,-19.79
00.703,-4.51
00.718,15.68
00.734,41.1
00.750,70.43
00.765,99.99
00.781,124.4
00.796,138.45
00.812,139.31
00.828,127.71
00.843,107.54
00.859,84.14
00.875,62.14
00.890,43.88
00.906,29.35
00.921,16.98
00.937,5.04
00.953,-7.41
00.968,-20.32
00.984,-33.09
01.000,-45.07
01.015,-55.88
01.031,-65.31
01.046,-72.99
01.062,-78.42
01.078,-80.91
01.093,-79.98
01.109,-75.74
01.125,-69.0
01.140,-61.07
01.156,-53.45
01.171,-47.21
01.187,-42.72
01.203,-39.74
01.218,-37.69
01.234,-36.11
01.250,-34.9
01.265,-34.36
01.281,-34.92
01.296,-36.81
01.312,-39.98
01.328,-44.0
01.343,-48.44
01.359,-52.98
01.375,-57.55
01.390,-62.04
01.406,-66.07
01.421,-68.68
01.437,-68.44
01.453,-63.88
01.468,-54.13
01.484,-39.48
01.500,-21.46
01.515,-2.74
01.531,13.72
01.546,25.36
01.562,30.52
01.578,28.84
01.593,21.32
01.609,10.37
01.625,-0.6
01.640,-7.83
01.656,-8.4
01.671,-1.34
01.687,11.57
01.703,26.05
01.718,36.63
01.734,38.69
01.750,30.27
01.765,12.8
01.781,-9.49
01.796,-31.26
01.812,-48.07
01.828,-57.58
01.843,-59.67
01.859,-55.61
01.875,-46.99
01.890,-34.95
01.906,-20.34
01.921,-4.13
01.937,12.25
01.953,26.87
01.968,37.88
01.984,44.21
02.000,46.25
02.015,45.42
02.031,43.77
02.046,43.06
02.062,44.14
02.078,46.87
02.093,50.49
02.109,54.14
02.125,57.45
02.140,60.56
02.156,63.86
02.171,67.65
02.187,71.81
02.203,75.79
02.218,78.75
02.234,79.98
02.250,79.05
02.265,75.94
02.281,70.93
02.296,64.33
02.312,56.42
02.328,47.36
02.343,37.29
02.359,26.41
02.375,15.06
02.390,3.69
02.406,-7.19
02.421,-17.2
02.437,-26.19
02.453,-34.37
02.468,-42.24
02.484,-50.59
02.500,-60.25
02.515,-71.76
02.531,-85.07
02.546,-99.3
02.562,-112.82
02.578,-123.56
02.593,-129.62
02.609,-129.83
02.625,-124.14
02.640,-113.54
02.656,-99.77
02.671,-84.67
02.687,-69.79
02.703,-56.06
02.718,-43.89
02.734,-33.28
02.750,-24.08
02.765,-16.06
02.781,-8.96
02.796,-2.64
02.812,3.0
02.828,7.89
02.843,11.91
02.859,14.9
02.875,16.9
02.890,18.09
02.906,18.82
02.921,19.47
02.937,20.29
02.953,21.4
02.968,22.73
02.984,24.12
03.000,25.31
03.015,26.01
03.031,25.94
03.046,24.91
03.062,22.89
03.078,19.99
03.093,16.51
03.109,12.68
03.125,8.66
03.140,4.46
03.156,-0.07
03.171,-4.98
03.187,-10.22
03.203,-15.47
03.218,-20.27
03.234,-24.16
03.250,-26.97
03.265,-28.89
03.281,-30.5
03.296,-32.64
03.312,-36.08
03.328,-41.19
03.343,-47.63
03.359,-54.4
03.375,-59.91
03.390,-62.41
03.406,-60.43
03.421,-53.16
03.437,-40.72
03.453,-24.16
03.468,-5.17
03.484,14.31
03.500,32.5
03.515,48.12
03.531,60.47
03.546,69.37
03.562,74.94
03.578,77.4
03.593,77.04
03.609,74.17
03.625,69.24
03.640,62.9
03.656,55.84
03.671,48.69
03.687,41.85
03.703,35.49
03.718,29.64
03.734,24.23
03.750,19.3
03.765,14.88
03.781,10.94
03.796,7.38
03.812,3.97
03.828,0.43
03.843,-3.36
03.859,-7.4
03.875,-11.58
03.890,-15.73
03.906,-19.83
03.921,-24.02
03.937,-28.52
03.953,-33.62
03.968,-39.38
03.984,-45.69
04.000,-52.22
04.015,-58.54
04.031,-64.31
04.046,-69.43
04.062,-74.03
04.078,-78.46
04.093,-83.25
04.109,-88.82
04.125,-95.3
04.140,-102.3
04.156,-108.82
04.171,-113.35
04.187,-114.28
04.203,-110.34
04.218,-101.02
04.234,-86.83
04.250,-69.12
04.265,-49.71
04.281,-30.42
04.296,-12.67
04.312,2.73
04.328,15.41
04.343,25.38
04.359,32.86
04.375,38.14
04.390,41.65
04.406,43.92
04.421,45.55
04.437,47.03
04.453,48.64
04.468,50.36
04.484,51.91
04.500,52.95
04.515,53.2
04.531,52.63
04.546,51.36
04.562,49.67
04.578,47.73
04.593,45.68
04.609,43.49
04.625,41.07
04.640,38.37
04.656,35.4
04.671,32.25
04.687,28.91
04.703,25.34
04.718,21.32
04.734,16.59
04.750,10.9
04.765,4.2
04.781,-3.39
04.796,-11.55
04.812,-19.8
04.828,-27.71
04.843,-34.97
04.859,-41.54
04.875,-47.62
04.890,-53.69
04.906,-60.29
04.921,-67.71
04.937,-75.8
04.953,-83.64
04.968,-89.83
04.984,-92.73
05.000,-90.98
05.015,-83.99
05.031,-72.04
05.046,-56.21
05.062,-37.98
05.078,-18.92
05.093,-0.28
05.109,16.94
05.125,32.11
05.140,44.82
05.156,54.88
05.171,62.29
05.187,67.25
05.203,70.1
05.218,71.24
05.234,71.13
05.250,70.17
05.265,68.74
05.281,67.17
05.296,65.68
05.312,64.47
05.328,63.54
05.343,62.81
05.359,62.06
05.375,61.04
05.390,59.47
05.406,57.12
05.421,53.87
05.437,49.63
05.453,44.48
05.468,38.58
05.484,32.2
05.500,25.61
05.515,19.08
05.531,12.78
05.546,6.74
05.562,0.97
05.578,-4.64
05.593,-10.15
05.609,-15.62
05.625,-21.12
05.640,-26.76
05.656,-32.76
05.671,-39.36
05.687,-46.77
05.703,-55.06
05.718,-64.03
05.734,-73.1
05.750,-81.24
05.765,-87.03
05.781,-88.85
05.796,-85.41
05.812,-76.07
05.828,-61.21
05.843,-42.15
05.859,-20.78
05.875,0.89
05.890,21.19
05.906,38.96
05.921,53.6
05.937,64.87
05.953,72.76
05.968,77.46
05.984,79.38
06.000,79.05
06.015,77.12
06.031,74.25
06.046,70.94
06.062,67.54
06.078,64.25
06.093,61.1
06.109,58.03
06.125,54.9
06.140,51.53
06.156,47.81
06.171,43.69
06.187,39.25
06.203,34.69
06.218,30.2
06.234,25.9
06.250,21.79
06.265,17.74
06.281,13.56
06.296,9.08
06.312,4.18
06.328,-1.17
06.343,-6.91
06.359,-12.99
06.375,-19.31
06.390,-25.73
06.406,-32.05
06.421,-38.07
06.437,-43.67
06.453,-48.98
06.468,-54.32
06.484,-60.12
06.500,-66.63
06.515,-73.64
06.531,-80.27
06.546,-85.1
06.562,-86.57
06.578,-83.47
06.593,-75.45
06.609,-63.11
06.625,-47.83
06.640,-31.24
06.656,-14.88
06.671,0.27
06.687,13.69
06.703,25.26
06.718,35.01
06.734,42.97
06.750,49.14
06.765,53.57
06.781,56.36
06.796,57.73
06.812,57.97
06.828,57.35
06.843,56.2
06.859,54.85
06.875,53.66
06.890,52.98
06.906,53.08
06.921,54.01
06.937,55.67
06.953,57.72
06.968,59.77
06.984,61.39
07.000,62.28
07.015,62.25
07.031,61.22
07.046,59.23
07.062,56.37
07.078,52.9
07.093,49.15
07.109,45.55
07.125,42.46
07.140,40.1
07.156,38.45
07.171,37.26
07.187,36.26
07.203,35.19
07.218,33.99
07.234,32.73
07.250,31.56
07.265,30.58
07.281,29.73
07.296,28.87
07.312,27.81
07.328,26.44
07.343,24.73
07.359,22.75
07.375,20.6
07.390,18.39
07.406,16.24
07.421,14.27
07.437,12.56
07.453,11.23
07.468,10.32
07.484,9.77
07.500,9.39
07.515,8.87
07.531,7.92
07.546,6.29
07.562,3.94
07.578,1.07
07.593,-1.99
07.609,-4.83
07.625,-7.22
07.640,-9.13
07.656,-10.82
07.671,-12.59
07.687,-14.72
07.703,-17.29
07.718,-20.18
07.734,-23.15
07.750,-26.03
07.765,-28.89
07.781,-32.05
07.796,-35.93
07.812,-40.85
07.828,-46.91
07.843,-53.81
07.859,-61.0
07.875,-67.88
07.890,-73.97
07.906,-79.15
07.921,-83.59
07.937,-87.74
07.953,-92.16
07.968,-97.44
07.984,-104.07
08.000,-112.16
08.015,-121.28
08.031,-130.21
08.046,-137.07
08.062,-139.7
08.078,-136.31
08.093,-126.14
08.109,-109.83
08.125,-89.17
08.140,-66.6
08.156,-44.48
08.171,-24.48
08.187,-7.46
08.203,6.33
08.218,16.96
08.234,24.58
08.250,29.4
08.265,31.81
08.281,32.51
08.296,32.36
08.312,32.25
08.328,32.76
08.343,34.02
08.359,35.72
08.375,37.29
08.390,38.19
08.406,38.16
08.421,37.22
08.437,35.62
08.453,33.66
08.468,31.46
08.484,28.95
08.500,25.89
08.515,22.07
08.531,17.38
08.546,12.01
08.562,6.3
08.578,0.66
08.593,-4.58
08.609,-9.34
08.625,-13.68
08.640,-17.85
08.656,-22.09
08.671,-26.69
08.687,-31.89
08.703,-37.94
08.718,-44.98
08.734,-52.79
08.750,-60.66
08.765,-67.21
08.781,-70.73
08.796,-69.62
08.812,-63.03
08.828,-51.25
08.843,-35.7
08.859,-18.47
08.875,-1.61
08.890,13.37
08.906,25.79
08.921,35.61
08.937,43.07
08.953,48.42
08.968,51.81
08.984,53.45
09.000,53.69
09.015,53.11
09.031,52.3
09.046,51.7
09.062,51.4
09.078,51.2
09.093,50.75
09.109,49.72
09.125,48.03
09.140,45.78
09.156,43.15
09.171,40.29
09.187,37.2
09.203,33.74
09.218,29.72
09.234,25.1
09.250,19.94
09.265,14.5
09.281,9.11
09.296,4.04
09.312,-0.57
09.328,-4.83
09.343,-9.07
09.359,-13.78
09.375,-19.45
09.390,-26.52
09.406,-35.07
09.421,-44.72
09.437,-54.48
09.453,-62.76
09.468,-67.73
09.484,-67.81
09.500,-62.13
09.515,-50.97
09.531,-35.63
09.546,-18.12
09.562,-0.57
09.578,15.35
09.593,28.63
09.609,38.96
09.625,46.48
09.640,51.55
09.656,54.53
09.671,55.78
09.687,55.73
09.703,54.84
09.718,53.6
09.734,52.46
09.750,51.63
09.765,51.07
09.781,50.55
09.796,49.77
09.812,48.45
09.828,46.5
09.843,43.96
09.859,40.93
09.875,37.51
09.890,33.67
09.906,29.3
09.921,24.27
09.937,18.63
09.953,12.58
09.968,6.47
09.984,0.66
10.000,-4.62
10.015,-9.39
10.031,-13.91
10.046,-18.68
10.062,-24.34
10.078,-31.51
10.093,-40.51
10.109,-51.15
10.125,-62.47
10.140,-72.81
10.156,-80.06
10.171,-82.3
10.187,-78.44
10.203,-68.55
10.218,-53.88
10.234,-36.39
10.250,-18.12
10.265,-0.67
10.281,15.02
10.296,28.59
10.312,39.94
10.328,49.04
10.343,55.8
10.359,60.2
10.375,62.32
10.390,62.54
10.406,61.41
10.421,59.64
10.437,57.84
10.453,56.42
10.468,55.44
10.484,54.63
10.500,53.53
10.515,51.7
10.531,48.91
10.546,45.25
10.562,41.07
10.578,36.76
10.593,32.55
10.609,28.41
10.625,24.02
10.640,19.02
10.656,13.19
10.671,6.66
10.687,-0.18
10.703,-6.81
10.718,-12.85
10.734,-18.25
10.750,-23.28
10.765,-28.46
10.781,-34.32
10.796,-41.27
10.812,-49.37
10.828,-58.45
10.843,-68.0
10.859,-77.16
10.875,-84.7
10.890,-89.2
10.906,-89.28
10.921,-84.06
10.937,-73.53
10.953,-58.6
10.968,-40.91
10.984,-22.38
11.000,-4.65
11.015,11.23
11.031,24.8
11.046,36.1
11.062,45.39
11.078,52.92
11.093,58.83
11.109,63.19
11.125,66.03
11.140,67.48
11.156,67.78
11.171,67.22
11.187,66.11
11.203,64.66
11.218,62.95
11.234,60.97
11.250,58.64
11.265,55.97
11.281,53.06
11.296,50.07
11.312,47.08
11.328,44.08
11.343,40.9
11.359,37.39
11.375,33.46
11.390,29.12
11.406,24.46
11.421,19.5
11.437,14.18
11.453,8.33
11.468,1.85
11.484,-5.24
11.500,-12.69
11.515,-20.08
11.531,-27.02
11.546,-33.25
11.562,-38.81
11.578,-44.01
11.593,-49.32
11.609,-55.21
11.625,-61.97
11.640,-69.52
11.656,-77.26
11.671,-84.11
11.687,-88.6
11.703,-89.27
11.718,-85.06
11.734,-75.78
11.750,-62.13
11.765,-45.51
11.781,-27.56
11.796,-9.73
11.812,7.0
11.828,22.17
11.843,35.54
11.859,46.96
11.875,56.17
11.890,62.9
11.906,67.05
11.921,68.71
11.937,68.28
11.953,66.34
11.968,63.55
11.984,60.48
12.000,57.6
12.015,55.12
12.031,53.11
12.046,51.53
12.062,50.23
12.078,49.0
12.093,47.58
12.109,45.71
12.125,43.14
12.140,39.69
12.156,35.31
12.171,30.08
12.187,24.26
12.203,18.18
12.218,12.17
12.234,6.45
12.250,1.04
12.265,-4.16
12.281,-9.29
12.296,-14.45
12.312,-19.63
12.328,-24.68
12.343,-29.52
12.359,-34.18
12.375,-38.85
12.390,-43.94
12.406,-49.9
12.421,-57.01
12.437,-65.17
12.453,-73.75
12.468,-81.61
12.484,-87.2
12.500,-88.94
12.515,-85.69
12.531,-77.13
12.546,-63.9
12.562,-47.49
12.578,-29.75
12.593,-12.39
12.609,3.34
12.625,16.89
12.640,28.21
12.656,37.5
12.671,44.94
12.687,50.59
12.703,54.41
12.718,56.46
12.734,57.0
12.750,56.5
12.765,55.49
12.781,54.36
12.796,53.26
12.812,52.11
12.828,50.71
12.843,48.95
12.859,46.85
12.875,44.57
12.890,42.28
12.906,40.1
12.921,37.95
12.937,35.66
12.953,33.02
12.968,29.88
12.984,26.19
13.000,22.03
13.015,17.55
13.031,12.98
13.046,8.5
13.062,4.08
13.078,-0.46
13.093,-5.47
13.109,-11.3
13.125,-18.04
13.140,-25.42
13.156,-32.88
13.171,-39.68
13.187,-45.28
13.203,-49.52
13.218,-52.7
13.234,-55.47
13.250,-58.64
13.265,-62.9
13.281,-68.55
13.296,-75.4
13.312,-82.63
13.328,-88.95
13.343,-92.85
13.359,-92.92
13.375,-88.25
13.390,-78.71
13.406,-64.95
13.421,-48.29
13.437,-30.34
13.453,-12.65
13.468,3.56
13.484,17.61
13.500,29.24
13.515,38.53
13.531,45.62
13.546,50.71
13.562,53.99
13.578,55.72
13.593,56.21
13.609,55.85
13.625,55.06
13.640,54.21
13.656,53.48
13.671,52.88
13.687,52.29
13.703,51.52
13.718,50.45
13.734,49.05
13.750,47.33
13.765,45.35
13.781,43.08
13.796,40.43
13.812,37.24
13.828,33.46
13.843,29.12
13.859,24.49
13.875,19.91
13.890,15.71
13.906,12.02
13.921,8.71
13.937,5.44
13.953,1.84
13.968,-2.38
13.984,-7.36
14.000,-13.08
14.015,-19.35
14.031,-25.9
14.046,-32.43
14.062,-38.66
14.078,-44.36
14.093,-49.35
14.109,-53.63
14.125,-57.36
14.140,-60.91
14.156,-64.82
14.171,-69.65
14.187,-75.69
14.203,-82.71
14.218,-89.79
14.234,-95.36
14.250,-97.67
14.265,-95.28
14.281,-87.61
14.296,-75.18
14.312,-59.43
14.328,-42.2
14.343,-25.21
14.359,-9.62
14.375,4.05
14.390,15.78
14.406,25.75
14.421,34.12
14.437,40.91
14.453,46.03
14.468,49.45
14.484,51.29
14.500,51.85
14.515,51.55
14.531,50.83
14.546,50.06
14.562,49.4
14.578,48.86
14.593,48.3
14.609,47.56
14.625,46.49
14.640,45.07
14.656,43.31
14.671,41.25
14.687,38.94
14.703,36.33
14.718,33.36
14.734,29.97
14.750,26.16
14.765,22.06
14.781,17.89
14.796,13.89
14.812,10.21
14.828,6.85
14.843,3.62
14.859,0.25
14.875,-3.58
14.890,-8.05
14.906,-13.16
14.921,-18.79
14.937,-24.64
14.953,-30.45
14.968,-35.94
14.984,-40.94
15.000,-45.36
15.015,-49.31
15.031,-53.01
15.046,-56.87
15.062,-61.26
15.078,-66.41
15.093,-72.12
15.109,-77.72
15.125,-82.06
15.140,-83.85
15.156,-81.98
15.171,-75.92
15.187,-65.95
15.203,-53.02
15.218,-38.48
15.234,-23.73
15.250,-9.82
15.265,2.63
15.281,13.38
15.296,22.43
15.312,29.8
15.328,35.46
15.343,39.34
15.359,41.42
15.375,41.87
15.390,41.12
15.406,39.8
15.421,38.54
15.437,37.81
15.453,37.76
15.468,38.25
15.484,38.97
15.500,39.61
15.515,39.98
15.531,40.05
15.546,39.8
15.562,39.14
15.578,37.85
15.593,35.66
15.609,32.37
15.625,28.06
15.640,23.07
15.656,17.93
15.671,13.14
15.687,8.97
15.703,5.38
15.718,2.06
15.734,-1.39
15.750,-5.35
15.765,-9.94
15.781,-15.05
15.796,-20.4
15.812,-25.66
15.828,-30.64
15.843,-35.33
15.859,-39.91
15.875,-44.57
15.890,-49.56
15.906,-54.97
15.921,-60.8
15.937,-66.89
15.953,-72.86
15.968,-78.03
15.984,-81.53
16.000,-82.33
16.015,-79.57
16.031,-72.9
16.046,-62.59
16.062,-49.63
16.078,-35.38
16.093,-21.14
16.109,-7.87
16.125,3.99
16.140,14.39
16.156,23.47
16.171,31.29
16.187,37.76
16.203,42.67
16.218,45.91
16.234,47.59
16.250,48.04
16.265,47.7
16.281,47.02
16.296,46.28
16.312,45.61
16.328,45.06
16.343,44.56
16.359,44.08
16.375,43.57
16.390,42.97
16.406,42.23
16.421,41.27
16.437,40.04
16.453,38.45
16.468,36.39
16.484,33.72
16.500,30.3
16.515,26.07
16.531,21.18
16.546,15.96
16.562,10.87
16.578,6.34
16.593,2.62
16.609,-0.32
16.625,-2.8
16.640,-5.28
16.656,-8.2
16.671,-11.85
16.687,-16.19
16.703,-21.02
16.718,-26.01
16.734,-30.94
16.750,-35.73
16.765,-40.43
16.781,-45.28
16.796,-50.49
16.812,-56.18
16.828,-62.22
16.843,-68.09
16.859,-72.88
16.875,-75.34
16.890,-74.18
16.906,-68.42
16.921,-57.78
16.937,-42.86
16.953,-24.96
16.968,-5.74
16.984,13.21
17.000,30.81
17.015,46.56
17.031,60.53
17.046,73.1
17.062,84.69
17.078,95.59
17.093,105.85
17.109,115.31
17.125,123.72
17.140,130.95
17.156,137.17
17.171,142.78
17.187,148.36
17.203,154.33
17.218,160.86
17.234,167.8
17.250,174.67
17.265,180.85
17.281,185.55
17.296,187.96
17.312,187.33
17.328,183.23
17.343,175.76
17.359,165.75
17.375,154.56
17.390,143.72
17.406,134.4
17.421,127.02
17.437,121.19
17.453,116.0
17.468,110.46
17.484,103.85
17.500,95.86
17.515,86.42
17.531,75.54
17.546,63.08
17.562,48.88
17.578,32.92
17.593,15.46
17.609,-2.86
17.625,-21.19
17.640,-38.82
17.656,-55.41
17.671,-71.27
17.687,-87.3
17.703,-104.86
17.718,-125.45
17.734,-150.17
17.750,-179.02
17.765,-210.32
17.781,-240.56
17.796,-264.97
17.812,-278.78
17.828,-278.69
17.843,-264.01
17.859,-236.98
17.875,-201.97
17.890,-164.37
17.906,-129.24
17.921,-100.52
17.937,-80.66
17.953,-70.51
17.968,-69.43
17.984,-75.38
18.000,-85.3
18.015,-95.68
18.031,-103.32
18.046,-105.91
18.062,-102.3
18.078,-92.43
18.093,-76.98
18.109,-57.17
18.125,-34.55
18.140,-10.9
18.156,12.04
18.171,32.92
18.187,51.09
18.203,66.78
18.218,80.9
18.234,94.75
18.250,109.72
18.265,126.9
18.281,146.9
18.296,169.48
18.312,193.28
18.328,215.56
18.343,232.55
18.359,240.22
18.375,235.56
18.390,217.61
18.406,187.81
18.421,149.4
18.437,106.14
18.453,61.21
18.468,16.77
18.484,-25.76
18.500,-65.13
18.515,-99.99
18.531,-129.27
18.546,-152.72
18.562,-171.36
18.578,-187.23
18.593,-202.53
18.609,-218.69
18.625,-235.97
18.640,-253.49
18.656,-269.48
18.671,-281.41
18.687,-285.97
18.703,-279.27
18.718,-257.63
18.734,-218.86
18.750,-163.56
18.765,-95.79
18.781,-22.55
18.796,47.68
18.812,106.9
18.828,149.17
18.843,171.78
18.859,175.54
18.875,164.46
18.890,144.84
18.906,123.83
18.921,107.71
18.937,100.11
18.953,100.89
18.968,106.3
18.984,110.58
19.000,108.33
19.015,96.62
19.031,75.97
19.046,49.95
19.062,23.62
19.078,1.55
19.093,-13.53
19.109,-21.34
19.125,-23.56
19.140,-23.04
19.156,-22.78
19.171,-25.16
19.187,-31.51
19.203,-42.02
19.218,-55.97
19.234,-72.12
19.250,-89.34
19.265,-106.78
19.281,-123.74
19.296,-139.34
19.312,-152.18
19.328,-160.59
19.343,-163.32
19.359,-160.48
19.375,-153.85
19.390,-146.65
19.406,-142.38
19.421,-143.41
19.437,-149.78
19.453,-159.02
19.468,-167.02
19.484,-169.78
19.500,-165.21
19.515,-154.07
19.531,-139.7
19.546,-126.54
19.562,-118.22
19.578,-116.18
19.593,-119.45
19.609,-125.49
19.625,-131.81
19.640,-136.95
19.656,-140.77
19.671,-143.64
19.687,-145.56
19.703,-145.56
19.718,-142.0
19.734,-133.37
19.750,-119.15
19.765,-100.34
19.781,-79.04
19.796,-57.8
19.812,-38.63
19.828,-22.45
19.843,-9.11
19.859,2.17
19.875,12.04
19.890,20.59
19.906,27.25
19.921,31.25
19.937,32.15
19.953,30.14
19.968,26.04
19.984,20.93
20.000,15.7
20.015,10.76
20.031,6.11
20.046,1.53
20.062,-3.02
20.078,-7.47
20.093,-11.61
20.109,-15.33
20.125,-18.8
20.140,-22.53
20.156,-27.23
20.171,-33.5
20.187,-41.55
20.203,-50.81
20.218,-59.88
20.234,-66.67
20.250,-68.89
20.265,-64.85
20.281,-54.04
20.296,-37.48
20.312,-17.34
20.328,3.59
20.343,22.93
20.359,39.27
20.375,52.35
20.390,62.8
20.406,71.51
20.421,79.12
20.437,85.82
20.453,91.5
20.468,96.01
20.484,99.49
20.500,102.39
20.515,105.28
20.531,108.64
20.546,112.66
20.562,117.39
20.578,122.86
20.593,129.33
20.609,137.1
20.625,146.27
20.640,156.45
20.656,166.55
20.671,175.08
20.687,180.6
20.703,182.2
20.718,179.77
20.734,173.97
20.750,165.86
20.765,156.54
20.781,146.9
20.796,137.36
20.812,128.0
20.828,118.67
20.843,109.21
20.859,99.56
20.875,89.7
20.890,79.43
20.906,68.25
20.921,55.35
20.937,39.95
20.953,22.01
20.968,2.53
20.984,-16.51
21.000,-32.86
21.015,-44.93
21.031,-52.44
21.046,-56.42
21.062,-58.51
21.078,-60.2
21.093,-62.23
21.109,-64.67
21.125,-67.49
21.140,-70.98
21.156,-75.76
21.171,-82.39
21.187,-90.68
21.203,-99.53
21.218,-107.15
21.234,-111.66
21.250,-111.84
21.265,-107.35
21.281,-98.59
21.296,-86.19
21.312,-70.67
21.328,-52.26
21.343,-31.21
21.359,-8.15
21.375,15.69
21.390,38.62
21.406,58.97
21.421,75.77
21.437,89.1
21.453,100.08
21.468,110.34
21.484,121.23
21.500,133.29
21.515,146.01
21.531,158.23
21.546,168.77
21.562,177.04
21.578,183.26
21.593,188.28
21.609,193.13
21.625,198.5
21.640,204.49
21.656,210.55
21.671,215.83
21.687,219.59
21.703,221.71
21.718,222.78
21.734,224.02
21.750,226.69
21.765,231.34
21.781,237.2
21.796,241.94
21.812,242.29
21.828,235.07
21.843,218.37
21.859,192.46
21.875,159.67
21.890,123.65
21.906,88.0
21.921,54.89
21.937,24.46
21.953,-5.02
21.968,-36.14
21.984,-70.98
22.000,-109.88
22.015,-150.92
22.031,-190.28
22.046,-223.17
22.062,-245.16
22.078,-253.29
22.093,-246.79
22.109,-227.36
22.125,-199.08
22.140,-167.64
22.156,-139.08
22.171,-118.07
22.187,-106.55
22.203,-103.22
22.218,-104.56
22.234,-106.58
22.250,-107.02
22.265,-106.36
22.281,-107.59
22.296,-114.3
22.312,-128.64
22.328,-149.76
22.343,-174.02
22.359,-196.62
22.375,-214.01
22.390,-225.67
22.406,-234.0
22.421,-242.53
22.437,-253.17
22.453,-264.32
22.468,-270.96
22.484,-266.97
22.500,-248.45
22.515,-215.96
22.531,-174.7
22.546,-131.95
22.562,-93.83
22.578,-62.83
22.593,-37.85
22.609,-15.9
22.625,5.32
22.640,25.94
22.656,44.25
22.671,58.17
22.687,66.97
22.703,71.99
22.718,76.01
22.734,81.94
22.750,91.57
22.765,104.94
22.781,120.51
22.796,136.08
22.812,149.63
22.828,159.89
22.843,166.47
22.859,169.42
22.875,168.8
22.890,164.33
22.906,155.45
22.921,141.61
22.937,122.72
22.953,99.31
22.968,72.72
22.984,44.8
23.000,17.53
23.015,-7.56
23.031,-29.85
23.046,-49.74
23.062,-68.44
23.078,-87.19
23.093,-106.62
23.109,-126.15
23.125,-143.96
23.140,-157.71
23.156,-165.5
23.171,-166.65
23.187,-161.99
23.203,-153.48
23.218,-143.36
23.234,-133.46
23.250,-124.68
23.265,-117.18
23.281,-110.62
23.296,-104.64
23.312,-99.02
23.328,-93.65
23.343,-88.59
23.359,-83.82
23.375,-79.32
23.390,-75.11
23.406,-71.25
23.421,-67.8
23.437,-64.77
23.453,-62.04
23.468,-59.38
23.484,-56.58
23.500,-53.5
23.515,-50.09
23.531,-46.45
23.546,-42.74
23.562,-39.19
23.578,-36.03
23.593,-33.44
23.609,-31.54
23.625,-30.34
23.640,-29.73
23.656,-29.58
23.671,-29.78
23.687,-30.39
23.703,-31.74
23.718,-34.38
23.734,-38.91
23.750,-45.62
23.765,-54.17
23.781,-63.34
23.796,-71.13
23.812,-75.21
23.828,-73.51
23.843,-65.0
23.859,-50.1
23.875,-30.49
23.890,-8.61
23.906,13.09
23.921,32.87
23.937,49.89
23.953,64.07
23.968,75.71
23.984,85.1
24.000,92.32
24.015,97.4
24.031,100.49
24.046,102.02
24.062,102.6
24.078,102.87
24.093,103.17
24.109,103.46
24.125,103.41
24.140,102.55
24.156,100.64
24.171,97.71
24.187,94.07
24.203,90.1
24.218,86.03
24.234,81.86
24.250,77.34
24.265,72.19
24.281,66.26
24.296,59.7
24.312,52.86
24.328,46.15
24.343,39.9
24.359,34.15
24.375,28.66
24.390,22.91
24.406,16.34
24.421,8.41
24.437,-1.1
24.453,-12.01
24.468,-23.58
24.484,-34.46
24.500,-42.83
24.515,-46.75
24.531,-44.73
24.546,-36.16
24.562,-21.7
24.578,-3.09
24.593,17.31
24.609,37.25
24.625,55.18
24.640,70.39
24.656,82.91
24.671,93.07
24.687,101.1
24.703,106.98
24.718,110.56
24.734,111.81
24.750,111.03
24.765,108.83
24.781,105.99
24.796,103.13
24.812,100.6
24.828,98.36
24.843,96.14
24.859,93.66
24.875,90.75
24.890,87.47
24.906,83.92
24.921,80.13
24.937,76.02
24.953,71.42
24.968,66.15
24.984,60.2
25.000,53.73
25.015,47.01
25.031,40.32
25.046,33.81
25.062,27.43
25.078,21.08
25.093,14.73
25.109,8.39
25.125,2.15
25.140,-4.0
25.156,-10.29
25.171,-17.06
25.187,-24.66
25.203,-33.16
25.218,-42.13
25.234,-50.69
25.250,-57.5
25.265,-61.13
25.281,-60.38
25.296,-54.63
25.312,-43.99
25.328,-29.38
25.343,-12.27
25.359,5.62
25.375,22.72
25.390,37.97
25.406,50.93
25.421,61.6
25.437,70.21
25.453,76.92
25.468,81.67
25.484,84.37
25.500,85.06
25.515,84.04
25.531,81.92
25.546,79.42
25.562,77.08
25.578,75.13
25.593,73.5
25.609,72.0
25.625,70.55
25.640,69.28
25.656,68.41
25.671,68.03
25.687,67.93
25.703,67.63
25.718,66.53
25.734,64.23
25.750,60.71
25.765,56.34
25.781,51.66
25.796,47.19
25.812,43.2
25.828,39.7
25.843,36.54
25.859,33.54
25.875,30.6
25.890,27.77
25.906,25.21
25.921,23.11
25.937,21.6
25.953,20.67
25.968,20.12
25.984,19.66
26.000,19.04
26.015,18.13
26.031,17.06
26.046,16.05
26.062,15.33
26.078,14.89
26.093,14.56
26.109,14.05
26.125,13.14
26.140,11.86
26.156,10.48
26.171,9.37
26.187,8.84
26.203,8.97
26.218,9.6
26.234,10.41
26.250,11.07
26.265,11.34
26.281,11.15
26.296,10.6
26.312,9.87
26.328,9.2
26.343,8.77
26.359,8.69
26.375,8.94
26.390,9.41
26.406,9.94
26.421,10.46
26.437,11.12
26.453,12.29
26.468,14.45
26.484,18.06
26.500,23.31
26.515,29.95
26.531,37.22
26.546,43.83
26.562,48.22
26.578,48.86
26.593,44.63
26.609,35.26
26.625,21.44
26.640,4.76
26.656,-12.62
26.671,-28.68
26.687,-42.04
26.703,-52.18
26.718,-59.19
26.734,-63.43
26.750,-64.86
26.765,-62.94
26.781,-56.82
26.796,-45.89
26.812,-30.3
26.828,-11.14
26.843,9.83
26.859,30.71
26.875,49.97
26.890,66.77
26.906,80.82
26.921,92.03
26.937,100.27
26.953,105.22
26.968,106.52
26.984,104.11
27.000,98.44
27.015,90.4
27.031,81.25
27.046,72.12
27.062,63.75
27.078,56.39
27.093,49.9
27.109,44.1
27.125,39.08
27.140,35.2
27.156,32.92
27.171,32.39
27.187,33.15
27.203,34.19
27.218,34.33
27.234,32.73
27.250,29.28
27.265,24.59
27.281,19.73
27.296,15.81
27.312,13.59
27.328,13.28
27.343,14.59
27.359,16.73
27.375,18.58
27.390,18.72
27.406,15.67
27.421,8.3
27.437,-3.73
27.453,-19.63
27.468,-37.63
27.484,-55.55
27.500,-71.7
27.515,-85.75
27.531,-98.88
27.546,-113.22
27.562,-130.75
27.578,-152.13
27.593,-176.21
27.609,-200.42
27.625,-221.74
27.640,-237.66
27.656,-246.83
27.671,-248.97
27.687,-244.53
27.703,-234.26
27.718,-219.11
27.734,-200.24
27.750,-179.19
27.765,-157.65
27.781,-137.27
27.796,-119.18
27.812,-103.92
27.828,-91.41
27.843,-81.27
27.859,-73.08
27.875,-66.53
27.890,-61.52
27.906,-58.13
27.921,-56.51
27.937,-56.67
27.953,-58.32
27.968,-60.75
27.984,-62.89
28.000,-63.62
28.015,-62.08
28.031,-58.01
28.046,-51.88
28.062,-44.73
28.078,-37.79
28.093,-32.02
28.109,-27.76
28.125,-24.7
28.140,-22.1
28.156,-19.25
28.171,-15.78
28.187,-11.81
28.203,-7.77
28.218,-4.04
28.234,-0.65
28.250,2.8
28.265,7.05
28.281,12.8
28.296,20.43
28.312,29.79
28.328,40.26
28.343,50.94
28.359,60.78
28.375,68.59
28.390,73.08
28.406,73.18
28.421,68.52
28.437,60.1
28.453,50.44
28.468,43.07
28.484,41.23
28.500,46.36
28.515,57.13
28.531,69.76
28.546,79.64
28.562,83.34
28.578,80.04
28.593,71.62
28.609,61.4
28.625,52.36
28.640,45.9
28.656,41.7
28.671,38.6
28.687,35.76
28.703,33.32
28.718,32.17
28.734,33.15
28.750,36.34
28.765,40.74
28.781,44.61
28.796,46.21
28.812,44.32
28.828,38.4
28.843,28.55
28.859,15.25
28.875,-0.75
28.890,-18.42
28.906,-36.44
28.921,-53.32
28.937,-67.63
28.953,-78.31
28.968,-84.9
28.984,-87.59
29.000,-87.16
29.015,-84.74
29.031,-81.66
29.046,-79.18
29.062,-78.25
29.078,-79.27
29.093,-82.17
29.109,-86.39
29.125,-91.2
29.140,-95.98
29.156,-100.3
29.171,-103.85
29.187,-106.31
29.203,-107.1
29.218,-105.59
29.234,-101.26
29.250,-94.01
29.265,-84.1
29.281,-72.02
29.296,-58.22
29.312,-42.9
29.328,-26.18
29.343,-8.21
29.359,10.51
29.375,29.14
29.390,46.62
29.406,62.06
29.421,75.0
29.437,85.55
29.453,94.21
29.468,101.67
29.484,108.59
29.500,115.36
29.515,122.03
29.531,128.16
29.546,132.74
29.562,134.45
29.578,132.09
29.593,125.05
29.609,113.64
29.625,99.08
29.640,82.88
29.656,66.23
29.671,49.54
29.687,32.48
29.703,14.65
29.718,-3.82
29.734,-21.93
29.750,-38.05
29.765,-50.59
29.781,-58.75
29.796,-62.87
29.812,-64.12
29.828,-64.01
29.843,-63.67
29.859,-63.69
29.875,-64.18
29.890,-65.24
29.906,-67.24
29.921,-70.88
29.937,-76.78
29.953,-85.08
29.968,-95.1
29.984,-105.49
30.000,-114.76
30.015,-121.91
30.031,-126.72
30.046,-129.68
30.062,-131.33
30.078,-131.64
30.093,-129.76
30.109,-124.38
30.125,-114.32
30.140,-99.3
30.156,-80.1
30.171,-58.4
30.187,-36.13
30.203,-14.96
30.218,4.18
30.234,20.99
30.250,35.56
30.265,48.02
30.281,58.23
30.296,65.75
30.312,69.93
30.328,70.32
30.343,66.97
30.359,60.57
30.375,52.4
30.390,43.95
30.406,36.51
30.421,30.94
30.437,27.5
30.453,26.0
30.468,26.05
30.484,27.29
30.500,29.47
30.515,32.39
30.531,35.78
30.546,39.25
30.562,42.27
30.578,44.36
30.593,45.29
30.609,45.21
30.625,44.56
30.640,43.87
30.656,43.38
30.671,42.87
30.687,41.57
30.703,38.47
30.718,32.62
30.734,23.61
30.750,11.76
30.765,-1.94
30.781,-16.08
30.796,-29.23
30.812,-40.31
30.828,-48.89
30.843,-55.16
30.859,-59.82
30.875,-63.74
30.890,-67.75
30.906,-72.49
30.921,-78.31
30.937,-85.16
30.953,-92.5
30.968,-99.19
30.984,-103.5
31.000,-103.46
31.015,-97.39
31.031,-84.65
31.046,-66.0
31.062,-43.6
31.078,-20.26
31.093,1.46
31.109,20.05
31.125,35.32
31.140,48.01
31.156,59.11
31.171,69.23
31.187,78.35
31.203,86.06
31.218,92.04
31.234,96.34
31.250,99.44
31.265,101.88
31.281,103.8
31.296,104.89
31.312,104.52
31.328,102.22
31.343,97.98
31.359,92.3
31.375,85.75
31.390,78.52
31.406,70.24
31.421,60.27
31.437,48.29
31.453,34.85
31.468,21.55
31.484,10.44
31.500,3.25
31.515,0.53
31.531,1.55
31.546,4.65
31.562,7.99
31.578,10.28
31.593,11.06
31.609,10.57
31.625,9.27
31.640,7.43
31.656,4.93
31.671,1.35
31.687,-3.87
31.703,-11.17
31.718,-20.77
31.734,-32.61
31.750,-46.25
31.765,-60.81
31.781,-74.9
31.796,-86.7
31.812,-94.16
31.828,-95.5
31.843,-89.72
31.859,-76.89
31.875,-58.22
31.890,-35.73
31.906,-11.78
31.921,11.48
31.937,32.44
31.953,50.27
31.968,64.75
31.984,76.12
32.000,84.76
32.015,90.89
32.031,94.44
32.046,94.99
32.062,91.94
32.078,84.82
32.093,73.61
32.109,58.97
32.125,42.37
32.140,25.81
32.156,11.49
32.171,1.2
32.187,-4.04
32.203,-4.29
32.218,-0.56
32.234,5.44
32.250,11.77
32.265,16.79
32.281,19.47
32.296,19.61
32.312,17.84
32.328,15.31
32.343,13.29
32.359,12.61
32.375,13.35
32.390,14.67
32.406,15.06
32.421,12.74
32.437,6.35
32.453,-4.66
32.468,-19.69
32.484,-37.06
32.500,-54.48
32.515,-69.64
32.531,-80.89
32.546,-87.68
32.562,-90.58
32.578,-90.98
32.593,-90.5
32.609,-90.5
32.625,-91.7
32.640,-94.11
32.656,-97.06
32.671,-99.49
32.687,-100.18
32.703,-98.02
32.718,-92.34
32.734,-83.06
32.750,-70.83
32.765,-56.77
32.781,-42.19
32.796,-28.18
32.812,-15.39
32.828,-4.06
32.843,5.87
32.859,14.44
32.875,21.64
32.890,27.4
32.906,31.77
32.921,34.97
32.937,37.41
32.953,39.59
32.968,41.91
32.984,44.69
33.000,48.15
33.015,52.43
33.031,57.59
33.046,63.51
33.062,69.69
33.078,75.41
33.093,79.88
33.109,82.52
33.125,83.11
33.140,81.61
33.156,78.0
33.171,72.11
33.187,63.75
33.203,53.05
33.218,40.88
33.234,28.83
33.250,18.84
33.265,12.51
33.281,10.48
33.296,12.2
33.312,16.21
33.328,20.73
33.343,24.31
33.359,26.12
33.375,25.9
33.390,23.69
33.406,19.58
33.421,13.66
33.437,6.15
33.453,-2.56
33.468,-11.96
33.484,-21.67
33.500,-31.67
33.515,-42.31
33.531,-53.97
33.546,-66.59
33.562,-79.17
33.578,-89.73
33.593,-95.85
33.609,-95.48
33.625,-87.67
33.640,-73.0
33.656,-53.31
33.671,-31.02
33.687,-8.55
33.703,12.19
33.718,30.03
33.734,44.38
33.750,55.02
33.765,61.88
33.781,64.89
33.796,64.17
33.812,60.14
33.828,53.62
33.843,45.82
33.859,38.07
33.875,31.47
33.890,26.61
33.906,23.59
33.921,22.2
33.937,22.3
33.953,24.02
33.968,27.63
33.984,33.29
34.000,40.63
34.015,48.57
34.031,55.66
34.046,60.45
34.062,62.06
34.078,60.51
34.093,56.55
34.109,51.41
34.125,46.26
34.140,41.7
34.156,37.59
34.171,32.99
34.187,26.54
34.203,16.94
34.218,3.53
34.234,-13.34
34.250,-32.2
34.265,-50.88
34.281,-67.16
34.296,-79.38
34.312,-87.0
34.328,-90.61
34.343,-91.7
34.359,-92.03
34.375,-93.0
34.390,-95.14
34.406,-98.06
34.421,-100.58
34.437,-101.28
34.453,-99.12
34.468,-93.82
34.484,-85.9
34.500,-76.36
34.515,-66.15
34.531,-55.66
34.546,-44.84
34.562,-33.45
34.578,-21.53
34.593,-9.69
34.609,1.1
34.625,9.91
34.640,16.36
34.656,20.86
34.671,24.47
34.687,28.36
34.703,33.34
34.718,39.57
34.734,46.53
34.750,53.39
34.765,59.36
34.781,64.04
34.796,67.46
34.812,69.86
34.828,71.49
34.843,72.44
34.859,72.49
34.875,71.22
34.890,68.18
34.906,63.1
34.921,56.01
34.937,47.34
34.953,37.84
34.968,28.48
34.984,20.24
35.000,13.85
35.015,9.61
35.031,7.21
35.046,5.84
35.062,4.4
35.078,1.91
35.093,-2.18
35.109,-7.79
35.125,-14.28
35.140,-20.77
35.156,-26.47
35.171,-31.08
35.187,-34.95
35.203,-39.16
35.218,-45.18
35.234,-54.49
35.250,-67.9
35.265,-85.09
35.281,-104.32
35.296,-122.69
35.312,-136.83
35.328,-143.8
35.343,-141.97
35.359,-131.36
35.375,-113.56
35.390,-91.02
35.406,-66.43
35.421,-42.0
35.437,-19.3
35.453,0.73
35.468,17.59
35.484,30.94
35.500,40.57
35.515,46.45
35.531,48.88
35.546,48.52
35.562,46.38
35.578,43.52
35.593,40.68
35.609,38.21
35.625,36.05
35.640,34.06
35.656,32.36
35.671,31.38
35.687,31.7
35.703,33.66
35.718,37.12
35.734,41.38
35.750,45.48
35.765,48.6
35.781,50.34
35.796,50.88
35.812,50.72
35.828,50.43
35.843,50.41
35.859,50.75
35.875,51.13
35.890,50.96
35.906,49.38
35.921,45.47
35.937,38.65
35.953,28.88
35.968,16.87
35.984,3.95
36.000,-8.27
36.015,-18.43
36.031,-25.66
36.046,-29.91
36.062,-31.84
36.078,-32.56
36.093,-33.37
36.109,-35.35
36.125,-39.07
36.140,-44.25
36.156,-49.79
36.171,-53.86
36.187,-54.51
36.203,-50.26
36.218,-40.66
36.234,-26.56
36.250,-9.97
36.265,6.47
36.281,20.17
36.296,29.24
36.312,33.0
36.328,32.06
36.343,28.09
36.359,23.28
36.375,19.63
36.390,18.39
36.406,19.81
36.421,23.23
36.437,27.47
36.453,31.46
36.468,34.6
36.484,36.91
36.500,38.81
36.515,40.74
36.531,42.73
36.546,44.34
36.562,44.77
36.578,43.28
36.593,39.61
36.609,34.13
36.625,27.67
36.640,20.97
36.656,14.31
36.671,7.4
36.687,-0.25
36.703,-8.84
36.718,-17.92
36.734,-26.42
36.750,-33.15
36.765,-37.36
36.781,-39.08
36.796,-39.12
36.812,-38.54
36.828,-38.16
36.843,-38.34
36.859,-38.92
36.875,-39.62
36.890,-40.27
36.906,-41.07
36.921,-42.48
36.937,-45.07
36.953,-49.2
36.968,-54.75
36.984,-60.97
37.000,-66.46
37.015,-69.45
37.031,-68.23
37.046,-61.67
37.062,-49.66
37.078,-33.27
37.093,-14.46
37.109,4.5
37.125,21.61
37.140,35.6
37.156,46.07
37.171,53.23
37.187,57.7
37.203,60.24
37.218,61.69
37.234,62.8
37.250,64.18
37.265,65.91
37.281,67.28
37.296,66.93
37.312,63.26
37.328,55.3
37.343,43.31
37.359,29.01
37.375,14.96
37.390,3.63
37.406,-3.55
37.421,-6.56
37.437,-6.45
37.453,-4.69
37.468,-2.38
37.484,-0.05
37.500,2.17
37.515,4.08
37.531,5.19
37.546,4.71
37.562,2.02
37.578,-3.0
37.593,-9.75
37.609,-17.19
37.625,-24.14
37.640,-29.83
37.656,-34.05
37.671,-37.23
37.687,-40.15
37.703,-43.69
37.718,-48.46
37.734,-54.71
37.750,-62.18
37.765,-70.08
37.781,-77.23
37.796,-82.2
37.812,-83.65
37.828,-80.57
37.843,-72.61
37.859,-60.14
37.875,-44.16
37.890,-25.99
37.906,-6.97
37.921,11.76
37.937,29.35
37.953,45.06
37.968,58.18
37.984,68.04
38.000,74.08
38.015,76.14
38.031,74.65
38.046,70.62
38.062,65.35
38.078,60.05
38.093,55.43
38.109,51.59
38.125,48.22
38.140,45.0
38.156,41.89
38.171,39.24
38.187,37.52
38.203,36.98
38.218,37.42
38.234,38.15
38.250,38.32
38.265,37.21
38.281,34.53
38.296,30.43
38.312,25.38
38.328,19.9
38.343,14.38
38.359,9.03
38.375,3.84
38.390,-1.24
38.406,-6.29
38.421,-11.38
38.437,-16.48
38.453,-21.5
38.468,-26.35
38.484,-31.06
38.500,-35.76
38.515,-40.72
38.531,-46.26
38.546,-52.55
38.562,-59.66
38.578,-67.33
38.593,-75.01
38.609,-81.7
38.625,-86.14
38.640,-86.91
38.656,-82.93
38.671,-73.75
38.687,-59.81
38.703,-42.42
38.718,-23.39
38.734,-4.63
38.750,12.33
38.765,26.51
38.781,37.56
38.796,45.58
38.812,51.06
38.828,54.68
38.843,57.17
38.859,59.13
38.875,60.88
38.890,62.34
38.906,63.17
38.921,63.04
38.937,61.78
38.953,59.6
38.968,57.02
38.984,54.6
39.000,52.73
39.015,51.44
39.031,50.32
39.046,48.68
39.062,45.69
39.078,40.7
39.093,33.45
39.109,24.18
39.125,13.64
39.140,2.81
39.156,-7.33
39.171,-16.16
39.187,-23.47
39.203,-29.43
39.218,-34.34
39.234,-38.49
39.250,-42.06
39.265,-45.11
39.281,-47.7
39.296,-49.88
39.312,-51.81
39.328,-53.73
39.343,-56.2
39.359,-60.05
39.375,-66.24
39.390,-75.35
39.406,-86.93
39.421,-99.25
39.437,-109.5
39.453,-114.73
39.468,-112.96
39.484,-103.87
39.500,-88.92
39.515,-70.57
39.531,-51.26
39.546,-32.66
39.562,-15.5
39.578,0.12
39.593,14.03
39.609,25.78
39.625,34.7
39.640,40.25
39.656,42.5
39.671,42.17
39.687,40.5
39.703,38.76
39.718,37.87
39.734,38.2
39.750,39.59
39.765,41.64
39.781,44.0
39.796,46.54
39.812,49.28
39.828,52.2
39.843,55.14
39.859,57.8
39.875,59.92
39.890,61.48
39.906,62.73
39.921,63.95
39.937,65.12
39.953,65.8
39.968,65.15
39.984,62.33
40.000,56.95
40.015,49.18
40.031,39.78
40.046,29.75
40.062,20.01
40.078,11.18
40.093,3.49
40.109,-3.37
40.125,-10.26
40.140,-18.52
40.156,-29.72
40.171,-45.01
40.187,-64.42
40.203,-86.45
40.218,-108.12
40.234,-125.79
40.250,-136.26
40.265,-137.73
40.281,-130.29
40.296,-115.68
40.312,-96.6
40.328,-75.77
40.343,-55.38
40.359,-36.8
40.375,-20.68
40.390,-7.3
40.406,3.27
40.421,11.11
40.437,16.44
40.453,19.77
40.468,21.88
40.484,23.61
40.500,25.6
40.515,28.03
40.531,30.5
40.546,32.28
40.562,32.69
40.578,31.5
40.593,29.13
40.609,26.5
40.625,24.6
40.640,24.05
40.656,24.88
40.671,26.45
40.687,27.78
40.703,27.86
40.718,25.94
40.734,21.63
40.750,15.04
40.765,6.65
40.781,-2.69
40.796,-12.04
40.812,-20.59
40.828,-27.87
40.843,-33.78
40.859,-38.55
40.875,-42.46
40.890,-45.62
40.906,-47.95
40.921,-49.26
40.937,-49.6
40.953,-49.35
40.968,-49.22
40.984,-50.09
41.000,-52.64
41.015,-56.93
41.031,-62.25
41.046,-67.08
41.062,-69.37
41.078,-67.19
41.093,-59.34
41.109,-45.95
41.125,-28.57
41.140,-9.65
41.156,8.22
41.171,23.22
41.187,34.7
41.203,43.06
41.218,49.22
41.234,54.0
41.250,57.77
41.265,60.51
41.281,62.2
41.296,63.15
41.312,64.06
41.328,65.73
41.343,68.71
41.359,72.87
41.375,77.46
41.390,81.41
41.406,83.88
41.421,84.58
41.437,83.81
41.453,82.26
41.468,80.51
41.484,78.79
41.500,76.89
41.515,74.39
41.531,70.86
41.546,66.0
41.562,59.69
41.578,51.86
41.593,42.51
41.609,31.78
41.625,19.99
41.640,7.74
41.656,-4.26
41.671,-15.3
41.687,-24.87
41.703,-32.75
41.718,-38.95
41.734,-43.66
41.750,-47.13
41.765,-49.7
41.781,-51.83
41.796,-54.15
41.812,-57.42
41.828,-62.32
41.843,-69.05
41.859,-77.03
41.875,-84.76
41.890,-90.11
41.906,-90.98
41.921,-86.05
41.937,-75.31
41.953,-60.05
41.968,-42.42
41.984,-24.63
42.000,-8.36
42.015,5.58
42.031,17.06
42.046,26.34
42.062,33.61
42.078,38.87
42.093,42.11
42.109,43.44
42.125,43.28
42.140,42.25
42.156,41.07
42.171,40.24
42.187,39.96
42.203,40.16
42.218,40.58
42.234,40.98
42.250,41.2
42.265,41.15
42.281,40.71
42.296,39.65
42.312,37.71
42.328,34.73
42.343,30.76
42.359,26.17
42.375,21.53
42.390,17.42
42.406,14.17
42.421,11.76
42.437,9.83
42.453,7.89
42.468,5.48
42.484,2.35
42.500,-1.51
42.515,-5.96
42.531,-10.77
42.546,-15.76
42.562,-20.81
42.578,-25.92
42.593,-31.16
42.609,-36.74
42.625,-42.93
42.640,-50.03
42.656,-58.18
42.671,-67.06
42.687,-75.85
42.703,-83.13
42.718,-87.22
42.734,-86.61
42.750,-80.55
42.765,-69.4
42.781,-54.61
42.796,-38.29
42.812,-22.49
42.828,-8.51
42.843,3.42
42.859,13.91
42.875,23.82
42.890,33.65
42.906,43.15
42.921,51.59
42.937,58.14
42.953,62.37
42.968,64.26
42.984,64.11
43.000,62.17
43.015,58.44
43.031,52.9
43.046,45.74
43.062,37.63
43.078,29.68
43.093,23.09
43.109,18.72
43.125,16.75
43.140,16.72
43.156,17.66
43.171,18.53
43.187,18.43
43.203,16.85
43.218,13.65
43.234,9.04
43.250,3.34
43.265,-3.04
43.281,-9.75
43.296,-16.51
43.312,-23.02
43.328,-28.97
43.343,-33.95
43.359,-37.63
43.375,-39.8
43.390,-40.55
43.406,-40.27
43.421,-39.5
43.437,-38.84
43.453,-38.84
43.468,-39.93
43.484,-42.53
43.500,-47.0
43.515,-53.56
43.531,-62.02
43.546,-71.56
43.562,-80.59
43.578,-86.97
43.593,-88.67
43.609,-84.42
43.625,-74.25
43.640,-59.47
43.656,-42.24
43.671,-24.79
43.687,-8.76
43.703,5.04
43.718,16.55
43.734,25.97
43.750,33.46
43.765,39.02
43.781,42.58
43.796,44.23
43.812,44.39
43.828,43.76
43.843,43.15
43.859,43.2
43.875,44.24
43.890,46.22
43.906,48.79
43.921,51.52
43.937,54.0
43.953,55.99
43.968,57.39
43.984,58.13
44.000,58.08
44.015,57.01
44.031,54.68
44.046,51.0
44.062,46.11
44.078,40.45
44.093,34.64
44.109,29.18
44.125,24.28
44.140,19.82
44.156,15.35
44.171,10.35
44.187,4.52
44.203,-2.2
44.218,-9.48
44.234,-16.87
44.250,-23.95
44.265,-30.56
44.281,-36.78
44.296,-42.93
44.312,-49.34
44.328,-56.21
44.343,-63.45
44.359,-70.57
44.375,-76.72
44.390,-80.8
44.406,-81.67
44.421,-78.48
44.437,-71.03
44.453,-59.83
44.468,-46.13
44.484,-31.51
44.500,-17.5
44.515,-5.16
44.531,5.06
44.546,13.23
44.562,19.66
44.578,24.63
44.593,28.28
44.609,30.65
44.625,31.89
44.640,32.28
44.656,32.27
44.671,32.26
44.687,32.53
44.703,33.14
44.718,33.98
44.734,34.94
44.750,35.9
44.765,36.82
44.781,37.66
44.796,38.35
44.812,38.68
44.828,38.38
44.843,37.2
44.859,35.08
44.875,32.08
44.890,28.44
44.906,24.4
44.921,20.08
44.937,15.43
44.953,10.27
44.968,4.54
44.984,-1.65
45.000,-7.86
45.015,-13.57
45.031,-18.32
45.046,-21.97
45.062,-24.76
45.078,-27.24
45.093,-30.06
45.109,-33.76
45.125,-38.69
45.140,-44.74
45.156,-51.37
45.171,-57.51
45.187,-61.7
45.203,-62.39
45.218,-58.39
45.234,-49.32
45.250,-35.74
45.265,-19.15
45.281,-1.52
45.296,15.22
45.312,29.64
45.328,40.94
45.343,49.01
45.359,54.19
45.375,57.05
45.390,58.24
45.406,58.27
45.421,57.56
45.437,56.44
45.453,55.16
45.468,53.89
45.484,52.8
45.500,51.93
45.515,51.23
45.531,50.62
45.546,49.95
45.562,49.07
45.578,47.87
45.593,46.22
45.609,44.04
45.625,41.25
45.640,37.83
45.656,33.86
45.671,29.56
45.687,25.17
45.703,20.91
45.718,16.87
45.734,12.92
45.750,8.83
45.765,4.39
45.781,-0.54
45.796,-5.93
45.812,-11.61
45.828,-17.28
45.843,-22.68
45.859,-27.66
45.875,-32.16
45.890,-36.33
45.906,-40.38
45.921,-44.72
45.937,-49.75
45.953,-55.61
45.968,-61.98
45.984,-67.99
46.000,-72.24
46.015,-73.29
46.031,-70.1
46.046,-62.47
46.062,-51.1
46.078,-37.4
46.093,-22.98
46.109,-9.11
46.125,3.49
46.140,14.66
46.156,24.56
46.171,33.36
46.187,41.07
46.203,47.52
46.218,52.48
46.234,55.81
46.250,57.55
46.265,57.96
46.281,57.4
46.296,56.29
46.312,54.94
46.328,53.58
46.343,52.3
46.359,51.19
46.375,50.3
46.390,49.68
46.406,49.38
46.421,49.33
46.437,49.28
46.453,48.84
46.468,47.63
46.484,45.45
46.500,42.27
46.515,38.25
46.531,33.57
46.546,28.29
46.562,22.24
46.578,15.23
46.593,7.16
46.609,-1.8
46.625,-11.17
46.640,-20.37
46.656,-28.9
46.671,-36.5
46.687,-43.19
46.703,-49.19
46.718,-54.9
46.734,-60.78
46.750,-67.3
46.765,-74.68
46.781,-82.76
46.796,-90.73
46.812,-97.17
46.828,-100.37
46.843,-98.8
46.859,-91.81
46.875,-79.76
46.890,-64.08
46.906,-46.76
46.921,-29.74
46.937,-14.45
46.953,-1.57
46.968,8.75
46.984,16.69
47.000,22.41
47.015,26.09
47.031,27.88
47.046,28.1
47.062,27.26
47.078,26.01
47.093,24.93
47.109,24.39
47.125,24.45
47.140,24.88
47.156,25.3
47.171,25.32
47.187,24.64
47.203,23.16
47.218,20.75
47.234,17.44
47.250,13.29
47.265,8.47
47.281,3.31
47.296,-1.72
47.312,-6.19
47.328,-9.86
47.343,-12.69
47.359,-15.04
47.375,-17.27
47.390,-19.77
47.406,-22.71
47.421,-26.05
47.437,-29.71
47.453,-33.58
47.468,-37.75
47.484,-42.33
47.500,-47.53
47.515,-53.5
47.531,-60.27
47.546,-67.6
47.562,-74.91
47.578,-81.18
47.593,-85.06
47.609,-85.21
47.625,-80.67
47.640,-71.36
47.656,-58.19
47.671,-42.9
47.687,-27.53
47.703,-13.75
47.718,-2.57
47.734,5.87
47.750,12.0
47.765,16.48
47.781,19.79
47.796,22.21
47.812,23.81
47.828,24.56
47.843,24.49
47.859,23.68
47.875,22.28
47.890,20.44
47.906,18.41
47.921,16.47
47.937,14.98
47.953,14.22
47.968,14.3
47.984,15.07
48.000,16.13
48.015,16.94
48.031,17.03
48.046,16.18
48.062,14.39
48.078,11.93
48.093,9.14
48.109,6.31
48.125,3.68
48.140,1.31
48.156,-0.75
48.171,-2.53
48.187,-4.04
48.203,-5.35
48.218,-6.52
48.234,-7.7
48.250,-9.07
48.265,-10.83
48.281,-13.23
48.296,-16.44
48.312,-20.61
48.328,-25.67
48.343,-31.18
48.359,-36.28
48.375,-39.72
48.390,-40.13
48.406,-36.48
48.421,-28.48
48.437,-16.66
48.453,-2.34
48.468,12.88
48.484,27.44
48.500,40.3
48.515,50.83
48.531,58.83
48.546,64.28
48.562,67.22
48.578,67.81
48.593,66.32
48.609,63.32
48.625,59.54
48.640,55.82
48.656,52.87
48.671,51.11
48.687,50.64
48.703,51.31
48.718,52.81
48.734,54.72
48.750,56.53
48.765,57.59
48.781,57.21
48.796,54.83
48.812,50.21
48.828,43.65
48.843,35.91
48.859,28.0
48.875,20.7
48.890,14.36
48.906,8.83
48.921,3.7
48.937,-1.44
48.953,-6.76
48.968,-12.26
48.984,-17.92
49.000,-23.9
49.015,-30.56
49.031,-38.37
49.046,-47.69
49.062,-58.66
49.078,-71.2
49.093,-84.97
49.109,-99.43
49.125,-113.65
49.140,-126.27
49.156,-135.61
49.171,-139.99
49.187,-138.28
49.203,-130.31
49.218,-117.01
49.234,-100.17
49.250,-81.85
49.265,-63.8
49.281,-47.09
49.296,-32.04
49.312,-18.46
49.328,-6.09
49.343,5.18
49.359,15.28
49.375,24.03
49.390,31.44
49.406,37.69
49.421,43.16
49.437,48.28
49.453,53.38
49.468,58.62
49.484,63.97
49.500,69.35
49.515,74.56
49.531,79.3
49.546,83.13
49.562,85.45
49.578,85.69
49.593,83.5
49.609,78.83
49.625,72.0
49.640,63.5
49.656,53.8
49.671,43.24
49.687,31.97
49.703,20.13
49.718,7.93
49.734,-4.25
49.750,-15.96
49.765,-26.76
49.781,-36.4
49.796,-44.87
49.812,-52.28
49.828,-58.87
49.843,-64.93
49.859,-70.76
49.875,-76.66
49.890,-82.81
49.906,-89.11
49.921,-94.98
49.937,-99.33
49.953,-100.76
49.968,-98.0
49.984,-90.34
50.000,-78.04
50.015,-62.25
50.031,-44.66
50.046,-26.97
50.062,-10.38
50.078,4.54
50.093,17.79
50.109,29.47
50.125,39.59
50.140,47.83
50.156,53.77
50.171,57.26
50.187,58.49
50.203,58.1
50.218,56.9
50.234,55.63
50.250,54.73
50.265,54.36
50.281,54.43
50.296,54.76
50.312,55.19
50.328,55.5
50.343,55.49
50.359,54.97
50.375,53.79
50.390,51.99
50.406,49.65
50.421,46.85
50.437,43.57
50.453,39.61
50.468,34.77
50.484,28.98
50.500,22.45
50.515,15.69
50.531,9.48
50.546,4.62
50.562,1.64
50.578,0.63
50.593,1.12
50.609,2.22
50.625,2.87
50.640,2.28
50.656,0.21
50.671,-2.75
50.687,-5.32
50.703,-5.85
50.718,-2.79
50.734,4.81
50.750,17.02
50.765,32.94
50.781,50.95
50.796,69.09
50.812,85.62
50.828,99.29
50.843,109.59
50.859,116.65
50.875,120.96
50.890,123.02
50.906,123.02
50.921,120.83
50.937,116.16
50.953,108.84
50.968,99.1
50.984,87.61
51.000,75.29
51.015,62.96
51.031,51.08
51.046,39.55
51.062,27.87
51.078,15.36
51.093,1.5
51.109,-13.9
51.125,-30.78
51.140,-48.91
51.156,-68.09
51.171,-88.06
51.187,-108.32
51.203,-128.01
51.218,-145.89
51.234,-160.64
51.250,-171.23
51.265,-177.37
51.281,-179.57
51.296,-178.9
51.312,-176.54
51.328,-173.33
51.343,-169.68
51.359,-165.67
51.375,-161.33
51.390,-156.85
51.406,-152.45
51.421,-148.04
51.437,-142.96
51.453,-135.97
51.468,-125.72
51.484,-111.3
51.500,-92.76
51.515,-71.2
51.531,-48.4
51.546,-26.23
51.562,-6.08
51.578,11.47
51.593,26.52
51.609,39.54
51.625,50.97
51.640,61.08
51.656,69.81
51.671,76.93
51.687,82.23
51.703,85.62
51.718,87.23
51.734,87.38
51.750,86.57
51.765,85.21
51.781,83.57
51.796,81.73
51.812,79.55
51.828,76.86
51.843,73.48
51.859,69.27
51.875,64.17
51.890,58.24
51.906,51.64
51.921,44.62
51.937,37.42
51.953,30.14
51.968,22.74
51.984,14.98
52.000,6.54
52.015,-2.85
52.031,-13.32
52.046,-24.86
52.062,-37.36
52.078,-50.57
52.093,-64.1
52.109,-77.26
52.125,-89.25
52.140,-99.32
52.156,-107.05
52.171,-112.49
52.187,-115.96
52.203,-117.63
52.218,-117.23
52.234,-113.94
52.250,-106.79
52.265,-95.23
52.281,-79.52
52.296,-60.76
52.312,-40.55
52.328,-20.41
52.343,-1.42
52.359,15.91
52.375,31.39
52.390,44.84
52.406,55.91
52.421,64.2
52.437,69.43
52.453,71.69
52.468,71.55
52.484,69.95
52.500,67.93
52.515,66.27
52.531,65.31
52.546,64.9
52.562,64.66
52.578,64.24
52.593,63.55
52.609,62.81
52.625,62.35
52.640,62.37
52.656,62.77
52.671,63.11
52.687,62.79
52.703,61.26
52.718,58.24
52.734,53.81
52.750,48.34
52.765,42.28
52.781,36.04
52.796,29.9
52.812,23.96
52.828,18.23
52.843,12.67
52.859,7.19
52.875,1.6
52.890,-4.35
52.906,-11.03
52.921,-18.62
52.937,-26.91
52.953,-35.16
52.968,-42.07
52.984,-46.17
53.000,-46.27
53.015,-41.88
53.031,-33.42
53.046,-22.08
53.062,-9.47
53.078,2.85
53.093,13.76
53.109,22.63
53.125,29.27
53.140,33.78
53.156,36.34
53.171,37.17
53.187,36.53
53.203,34.77
53.218,32.4
53.234,29.97
53.250,27.98
53.265,26.71
53.281,26.18
53.296,26.09
53.312,26.04
53.328,25.66
53.343,24.78
53.359,23.48
53.375,21.91
53.390,20.21
53.406,18.29
53.421,15.8
53.437,12.35
53.453,7.7
53.468,2.0
53.484,-4.25
53.500,-10.3
53.515,-15.52
53.531,-19.6
53.546,-22.69
53.562,-25.32
53.578,-28.19
53.593,-31.92
53.609,-36.86
53.625,-43.06
53.640,-50.18
53.656,-57.53
53.671,-64.17
53.687,-68.93
53.703,-70.68
53.718,-68.52
53.734,-62.14
53.750,-51.94
53.765,-39.02
53.781,-24.88
53.796,-11.03
53.812,1.37
53.828,11.75
53.843,19.97
53.859,26.25
53.875,30.79
53.890,33.76
53.906,35.26
53.921,35.49
53.937,34.81
53.953,33.73
53.968,32.82
53.984,32.37
54.000,32.39
54.015,32.49
54.031,32.19
54.046,31.14
54.062,29.3
54.078,26.99
54.093,24.71
54.109,22.84
54.125,21.38
54.140,19.99
54.156,18.1
54.171,15.26
54.187,11.37
54.203,6.73
54.218,1.93
54.234,-2.5
54.250,-6.3
54.265,-9.57
54.281,-12.62
54.296,-15.86
54.312,-19.57
54.328,-23.93
54.343,-29.01
54.359,-34.77
54.375,-41.05
54.390,-47.38
54.406,-52.87
54.421,-56.31
54.437,-56.47
54.453,-52.55
54.468,-44.47
54.484,-33.01
54.500,-19.51
54.515,-5.46
54.531,7.9
54.546,19.84
54.562,30.15
54.578,38.85
54.593,46.04
54.609,51.74
54.625,55.91
54.640,58.58
54.656,59.91
54.671,60.25
54.687,59.99
54.703,59.49
54.718,58.97
54.734,58.57
54.750,58.3
54.765,58.09
54.781,57.82
54.796,57.35
54.812,56.5
54.828,55.13
54.843,53.13
54.859,50.54
54.875,47.46
54.890,44.0
54.906,40.23
54.921,36.09
54.937,31.48
54.953,26.3
54.968,20.61
54.984,14.57
55.000,8.42
55.015,2.33
55.031,-3.63
55.046,-9.57
55.062,-15.64
55.078,-22.04
55.093,-28.91
55.109,-36.26
55.125,-43.98
55.140,-51.7
55.156,-58.8
55.171,-64.39
55.187,-67.47
55.203,-67.15
55.218,-63.02
55.234,-55.32
55.250,-44.98
55.265,-33.4
55.281,-22.01
55.296,-11.92
55.312,-3.63
55.328,2.89
55.343,8.02
55.359,12.15
55.375,15.52
55.390,18.06
55.406,19.63
55.421,20.11
55.437,19.64
55.453,18.53
55.468,17.25
55.484,16.2
55.500,15.69
55.515,15.79
55.531,16.43
55.546,17.46
55.562,18.73
55.578,20.1
55.593,21.44
55.609,22.63
55.625,23.51
55.640,23.86
55.656,23.47
55.671,22.2
55.687,19.93
55.703,16.72
55.718,12.67
55.734,8.03
55.750,3.09
55.765,-1.87
55.781,-6.62
55.796,-11.02
55.812,-15.12
55.828,-19.12
55.843,-23.29
55.859,-27.97
55.875,-33.38
55.890,-39.61
55.906,-46.61
55.921,-54.06
55.937,-61.45
55.953,-67.93
55.968,-72.44
55.984,-73.93
56.000,-71.58
56.015,-65.16
56.031,-55.19
56.046,-42.83
56.062,-29.57
56.078,-16.83
56.093,-5.6
56.109,3.61
56.125,10.8
56.140,16.15
56.156,19.83
56.171,21.94
56.187,22.52
56.203,21.74
56.218,19.94
56.234,17.69
56.250,15.62
56.265,14.23
56.281,13.69
56.296,13.77
56.312,14.01
56.328,13.93
56.343,13.29
56.359,12.19
56.375,10.9
56.390,9.67
56.406,8.5
56.421,7.11
56.437,5.13
56.453,2.4
56.468,-0.93
56.484,-4.44
56.500,-7.63
56.515,-10.25
56.531,-12.32
56.546,-14.2
56.562,-16.38
56.578,-19.24
56.593,-22.9
56.609,-27.36
56.625,-32.55
56.640,-38.44
56.656,-44.98
56.671,-51.89
56.687,-58.51
56.703,-63.71
56.718,-66.12
56.734,-64.53
56.750,-58.38
56.765,-48.0
56.781,-34.53
56.796,-19.58
56.812,-4.64
56.828,9.26
56.843,21.66
56.859,32.46
56.875,41.67
56.890,49.18
56.906,54.8
56.921,58.39
56.937,60.08
56.953,60.29
56.968,59.64
56.984,58.78
57.000,58.1
57.015,57.68
57.031,57.28
57.046,56.47
57.062,54.84
57.078,52.14
57.093,48.31
57.109,43.48
57.125,37.92
57.140,31.87
57.156,25.55
57.171,19.09
57.187,12.59
57.203,6.08
57.218,-0.43
57.234,-6.82
57.250,-12.95
57.265,-18.6
57.281,-23.59
57.296,-27.85
57.312,-31.51
57.328,-34.84
57.343,-38.21
57.359,-41.96
57.375,-46.19
57.390,-50.83
57.406,-55.56
57.421,-59.89
57.437,-63.23
57.453,-64.86
57.468,-64.06
57.484,-60.2
57.500,-53.07
57.515,-42.94
57.531,-30.59
57.546,-17.15
57.562,-3.75
57.578,8.75
57.593,19.88
57.609,29.52
57.625,37.81
57.640,44.79
57.656,50.44
57.671,54.63
57.687,57.26
57.703,58.39
57.718,58.2
57.734,57.08
57.750,55.46
57.765,53.78
57.781,52.26
57.796,50.99
57.812,49.86
57.828,48.77
57.843,47.64
57.859,46.48
57.875,45.3
57.890,44.07
57.906,42.65
57.921,40.76
57.937,38.18
57.953,34.76
57.968,30.57
57.984,25.8
58.000,20.75
58.015,15.65
58.031,10.63
58.046,5.69
58.062,0.79
58.078,-4.12
58.093,-9.09
58.109,-14.26
58.125,-19.91
58.140,-26.34
58.156,-33.88
58.171,-42.55
58.187,-51.95
58.203,-61.14
58.218,-68.88
58.234,-73.91
58.250,-75.34
58.265,-72.93
58.281,-67.02
58.296,-58.45
58.312,-48.18
58.328,-37.12
58.343,-25.99
58.359,-15.33
58.375,-5.64
58.390,2.57
58.406,8.83
58.421,12.8
58.437,14.43
58.453,13.99
58.468,12.06
58.484,9.36
58.500,6.62
58.515,4.43
58.531,3.21
58.546,3.11
58.562,4.08
58.578,5.88
58.593,8.12
58.609,10.36
58.625,12.2
58.640,13.34
58.656,13.65
58.671,13.11
58.687,11.73
58.703,9.57
58.718,6.69
58.734,3.22
58.750,-0.66
58.765,-4.63
58.781,-8.41
58.796,-11.74
58.812,-14.56
58.828,-16.99
58.843,-19.29
58.859,-21.74
58.875,-24.56
58.890,-27.89
58.906,-31.76
58.921,-36.16
58.937,-40.88
58.953,-45.44
58.968,-49.02
58.984,-50.52
59.000,-48.81
59.015,-43.13
59.031,-33.47
59.046,-20.63
59.062,-6.08
59.078,8.46
59.093,21.58
59.109,32.42
59.125,40.76
59.140,46.73
59.156,50.66
59.171,52.77
59.187,53.26
59.203,52.37
59.218,50.48
59.234,48.02
59.250,45.36
59.265,42.64
59.281,39.75
59.296,36.41
59.312,32.38
59.328,27.62
59.343,22.38
59.359,17.07
59.375,12.1
59.390,7.71
59.406,3.93
59.421,0.64
59.437,-2.3
59.453,-5.05
59.468,-7.72
59.484,-10.37
59.500,-13.07
59.515,-15.86
59.531,-18.75
59.546,-21.71
59.562,-24.66
59.578,-27.58
59.593,-30.53
59.609,-33.68
59.625,-37.31
59.640,-41.69
59.656,-46.92
59.671,-52.74
59.687,-58.46
59.703,-63.04
59.718,-65.3
59.734,-64.24
59.750,-59.38
59.765,-50.98
59.781,-39.95
59.796,-27.58
59.812,-15.22
59.828,-3.87
59.843,5.95
59.859,14.18
59.875,20.96
59.890,26.51
59.906,30.85
59.921,33.92
59.937,35.68
59.953,36.21
59.968,35.73
59.984,34.54
