timestamp,value
00.000,-33.33
00.015,-94.57
00.031,-146.12
00.046,-179.48
00.062,-190.11
00.078,-179.52
00.093,-154.78
00.109,-125.69
00.125,-101.11
00.140,-86.17
00.156,-81.6
00.171,-84.68
00.187,-90.77
00.203,-94.37
00.218,-90.09
00.234,-73.69
00.250,-43.35
00.265,-1.0
00.281,47.47
00.296,93.45
00.312,128.25
00.328,145.7
00.343,143.82
00.359,124.95
00.375,94.52
00.390,59.3
00.406,25.61
00.421,-1.8
00.437,-20.41
00.453,-30.13
00.468,-33.07
00.484,-32.78
00.500,-33.21
00.515,-37.27
00.531,-45.94
00.546,-58.12
00.562,-71.32
00.578,-82.91
00.593,-91.35
00.609,-96.7
00.625,-100.32
00.640,-104.09
00.656,-109.37
00.671,-116.51
00.687,-124.72
00.703,-132.47
00.718,-138.03
00.734,-139.95
00.750,-137.29
00.765,-129.64
00.781,-117.02
00.796,-99.79
00.812,-78.65
00.828,-54.6
00.843,-28.91
00.859,-3.03
00.875,21.66
00.890,44.1
00.906,63.74
00.921,80.54
00.937,94.82
00.953,106.88
00.968,116.58
00.984,123.13
01.000,125.24
01.015,121.54
01.031,111.18
01.046,94.23
01.062,71.78
01.078,45.71
01.093,18.37
01.109,-7.67
01.125,-29.73
01.140,-45.39
01.156,-53.08
01.171,-52.82
01.187,-46.66
01.203,-38.35
01.218,-32.12
01.234,-31.09
01.250,-36.19
01.265,-46.05
01.281,-58.12
01.296,-70.2
01.312,-81.53
01.328,-92.72
01.343,-104.83
01.359,-118.05
01.375,-130.95
01.390,-140.71
01.406,-144.3
01.421,-139.71
01.437,-126.84
01.453,-107.44
01.468,-84.17
01.484,-59.6
01.500,-35.31
01.515,-11.91
01.531,10.62
01.546,32.22
01.562,52.22
01.578,69.6
01.593,83.36
01.609,93.13
01.625,99.17
01.640,101.91
01.656,101.32
01.671,96.89
01.687,88.11
01.703,75.39
01.718,60.44
01.734,45.94
01.750,34.37
01.765,26.83
01.781,22.74
01.796,20.3
01.812,17.74
01.828,14.23
01.843,10.09
01.859,6.12
01.875,2.76
01.890,-0.31
01.906,-3.95
01.921,-8.86
01.937,-15.11
01.953,-22.14
01.968,-29.18
01.984,-35.46
02.000,-40.39
02.015,-43.38
02.031,-43.76
02.046,-40.84
02.062,-34.37
02.078,-24.62
02.093,-12.47
02.109,0.91
02.125,14.45
02.140,27.48
02.156,39.62
02.171,50.66
02.187,60.28
02.203,68.1
02.218,73.75
02.234,77.13
02.250,78.47
02.265,78.19
02.281,76.76
02.296,74.46
02.312,71.39
02.328,67.61
02.343,63.27
02.359,58.68
02.375,54.14
02.390,49.77
02.406,45.34
02.421,40.31
02.437,34.03
02.453,26.08
02.468,16.37
02.484,5.32
02.500,-6.44
02.515,-18.22
02.531,-29.49
02.546,-39.85
02.562,-48.95
02.578,-56.28
02.593,-61.16
02.609,-62.91
02.625,-61.07
02.640,-55.69
02.656,-47.24
02.671,-36.51
02.687,-24.43
02.703,-11.85
02.718,0.41
02.734,11.57
02.750,20.86
02.765,27.73
02.781,31.98
02.796,33.84
02.812,34.0
02.828,33.24
02.843,32.31
02.859,31.76
02.875,31.9
02.890,32.85
02.906,34.57
02.921,36.74
02.937,38.81
02.953,40.12
02.968,40.15
02.984,38.76
03.000,36.21
03.015,33.06
03.031,29.82
03.046,26.65
03.062,23.25
03.078,19.04
03.093,13.44
03.109,6.18
03.125,-2.52
03.140,-11.97
03.156,-21.25
03.171,-29.48
03.187,-36.2
03.203,-41.46
03.218,-45.78
03.234,-49.79
03.250,-53.93
03.265,-58.1
03.281,-61.68
03.296,-63.83
03.312,-63.83
03.328,-61.38
03.343,-56.74
03.359,-50.48
03.375,-43.27
03.390,-35.68
03.406,-28.08
03.421,-20.77
03.437,-14.12
03.453,-8.55
03.468,-4.42
03.484,-1.85
03.500,-0.75
03.515,-0.74
03.531,-1.39
03.546,-2.34
03.562,-3.4
03.578,-4.52
03.593,-5.75
03.609,-7.14
03.625,-8.72
03.640,-10.52
03.656,-12.53
03.671,-14.72
03.687,-17.01
03.703,-19.28
03.718,-21.45
03.734,-23.54
03.750,-25.7
03.765,-28.16
03.781,-31.18
03.796,-34.81
03.812,-38.94
03.828,-43.23
03.843,-47.26
03.859,-50.53
03.875,-52.56
03.890,-52.93
03.906,-51.27
03.921,-47.44
03.937,-41.51
03.953,-33.86
03.968,-25.15
03.984,-16.12
04.000,-7.5
04.015,0.14
04.031,6.4
04.046,11.07
04.062,14.09
04.078,15.59
04.093,15.88
04.109,15.41
04.125,14.7
04.140,14.11
04.156,13.82
04.171,13.76
04.187,13.7
04.203,13.33
04.218,12.42
04.234,10.83
04.250,8.55
04.265,5.7
04.281,2.48
04.296,-0.93
04.312,-4.35
04.328,-7.68
04.343,-11.0
04.359,-14.35
04.375,-17.86
04.390,-21.57
04.406,-25.42
04.421,-29.2
04.437,-32.65
04.453,-35.36
04.468,-36.89
04.484,-36.84
04.500,-34.87
04.515,-30.83
04.531,-24.84
04.546,-17.27
04.562,-8.7
04.578,0.21
04.593,8.82
04.609,16.62
04.625,23.28
04.640,28.66
04.656,32.77
04.671,35.69
04.687,37.54
04.703,38.44
04.718,38.54
04.734,38.05
04.750,37.21
04.765,36.21
04.781,35.18
04.796,34.12
04.812,32.92
04.828,31.43
04.843,29.54
04.859,27.2
04.875,24.44
04.890,21.33
04.906,17.85
04.921,13.95
04.937,9.61
04.953,4.81
04.968,-0.29
04.984,-5.47
05.000,-10.54
05.015,-15.3
05.031,-19.61
05.046,-23.38
05.062,-26.45
05.078,-28.56
05.093,-29.42
05.109,-28.65
05.125,-25.93
05.140,-21.09
05.156,-14.19
05.171,-5.6
05.187,3.92
05.203,13.39
05.218,21.81
05.234,28.41
05.250,32.94
05.265,35.61
05.281,36.87
05.296,37.19
05.312,36.77
05.328,35.52
05.343,33.26
05.359,29.92
05.375,25.62
05.390,20.69
05.406,15.5
05.421,10.3
05.437,5.17
05.453,0.01
05.468,-5.31
05.484,-10.92
05.500,-16.72
05.515,-22.44
05.531,-27.64
05.546,-31.95
05.562,-35.2
05.578,-37.55
05.593,-39.46
05.609,-41.51
05.625,-44.12
05.640,-47.33
05.656,-50.8
05.671,-53.93
05.687,-56.12
05.703,-56.98
05.718,-56.27
05.734,-53.92
05.750,-49.89
05.765,-44.15
05.781,-36.79
05.796,-28.15
05.812,-18.8
05.828,-9.51
05.843,-1.04
05.859,6.05
05.875,11.49
05.890,15.24
05.906,17.51
05.921,18.55
05.937,18.7
05.953,18.28
05.968,17.61
05.984,16.89
06.000,16.18
06.015,15.4
06.031,14.46
06.046,13.26
06.062,11.83
06.078,10.23
06.093,8.58
06.109,6.94
06.125,5.32
06.140,3.7
06.156,2.03
06.171,0.28
06.187,-1.57
06.203,-3.56
06.218,-5.79
06.234,-8.29
06.250,-11.14
06.265,-14.33
06.281,-17.88
06.296,-21.81
06.312,-26.06
06.328,-30.49
06.343,-34.72
06.359,-38.15
06.375,-40.02
06.390,-39.68
06.406,-36.73
06.421,-31.23
06.437,-23.71
06.453,-14.95
06.468,-5.86
06.484,2.77
06.500,10.28
06.515,16.15
06.531,20.03
06.546,21.76
06.562,21.53
06.578,19.79
06.593,17.17
06.609,14.23
06.625,11.24
06.640,8.13
06.656,4.67
06.671,0.71
06.687,-3.59
06.703,-7.81
06.718,-11.56
06.734,-14.69
06.750,-17.49
06.765,-20.42
06.781,-23.96
06.796,-28.26
06.812,-33.1
06.828,-38.06
06.843,-42.69
06.859,-46.78
06.875,-50.3
06.890,-53.29
06.906,-55.64
06.921,-57.02
06.937,-56.84
06.953,-54.39
06.968,-48.9
06.984,-39.7
07.000,-26.38
07.015,-8.98
07.031,11.88
07.046,34.94
07.062,58.47
07.078,80.59
07.093,99.67
07.109,114.68
07.125,125.31
07.140,131.8
07.156,134.61
07.171,134.08
07.187,130.25
07.203,123.01
07.218,112.4
07.234,98.88
07.250,83.43
07.265,67.26
07.281,51.44
07.296,36.67
07.312,23.19
07.328,10.98
07.343,0.11
07.359,-9.2
07.375,-16.63
07.390,-22.14
07.406,-26.23
07.421,-30.0
07.437,-34.72
07.453,-41.36
07.468,-50.02
07.484,-59.87
07.500,-69.46
07.515,-77.37
07.531,-82.85
07.546,-86.07
07.562,-88.02
07.578,-90.11
07.593,-93.55
07.609,-98.97
07.625,-106.28
07.640,-114.52
07.656,-121.91
07.671,-125.73
07.687,-122.67
07.703,-109.8
07.718,-85.82
07.734,-52.28
07.750,-13.58
07.765,24.12
07.781,54.98
07.796,75.45
07.812,85.09
07.828,86.13
07.843,81.82
07.859,74.96
07.875,67.07
07.890,58.64
07.906,49.88
07.921,41.37
07.937,34.06
07.953,28.77
07.968,25.68
07.984,24.12
08.000,22.95
08.015,21.08
08.031,17.92
08.046,13.57
08.062,8.66
08.078,4.01
08.093,0.18
08.109,-2.69
08.125,-4.93
08.140,-7.11
08.156,-9.81
08.171,-13.41
08.187,-17.99
08.203,-23.43
08.218,-29.51
08.234,-36.08
08.250,-43.01
08.265,-50.09
08.281,-56.9
08.296,-62.62
08.312,-66.26
08.328,-66.84
08.343,-63.71
08.359,-56.88
08.375,-47.01
08.390,-35.23
08.406,-22.81
08.421,-10.77
08.437,0.25
08.453,9.98
08.468,18.32
08.484,25.29
08.500,30.83
08.515,34.93
08.531,37.68
08.546,39.37
08.562,40.4
08.578,41.17
08.593,41.9
08.609,42.57
08.625,42.93
08.640,42.63
08.656,41.49
08.671,39.53
08.687,37.0
08.703,34.22
08.718,31.33
08.734,28.27
08.750,24.88
08.765,21.0
08.781,16.67
08.796,12.11
08.812,7.6
08.828,3.22
08.843,-1.26
08.859,-6.24
08.875,-12.2
08.890,-19.39
08.906,-27.75
08.921,-36.78
08.937,-45.64
08.953,-53.21
08.968,-58.33
08.984,-59.95
09.000,-57.4
09.015,-50.62
09.031,-40.25
09.046,-27.45
09.062,-13.63
09.078,-0.08
09.093,12.38
09.109,23.32
09.125,32.66
09.140,40.42
09.156,46.52
09.171,50.85
09.187,53.32
09.203,54.05
09.218,53.34
09.234,51.63
09.250,49.44
09.265,47.18
09.281,45.11
09.296,43.29
09.312,41.66
09.328,40.07
09.343,38.25
09.359,35.92
09.375,32.82
09.390,28.81
09.406,23.88
09.421,18.24
09.437,12.13
09.453,5.84
09.468,-0.46
09.484,-6.76
09.500,-13.22
09.515,-20.04
09.531,-27.48
09.546,-35.6
09.562,-44.23
09.578,-52.79
09.593,-60.39
09.609,-65.86
09.625,-68.03
09.640,-66.09
09.656,-59.76
09.671,-49.51
09.687,-36.38
09.703,-21.77
09.718,-7.0
09.734,6.87
09.750,19.18
09.765,29.56
09.781,37.83
09.796,43.96
09.812,48.01
09.828,50.2
09.843,50.91
09.859,50.58
09.875,49.56
09.890,48.04
09.906,46.07
09.921,43.61
09.937,40.72
09.953,37.55
09.968,34.31
09.984,31.1
10.000,27.88
10.015,24.44
10.031,20.54
10.046,16.05
10.062,10.92
10.078,5.24
10.093,-0.88
10.109,-7.33
10.125,-14.05
10.140,-21.0
10.156,-28.26
10.171,-35.98
10.187,-44.37
10.203,-53.6
10.218,-63.56
10.234,-73.75
10.250,-83.17
10.265,-90.48
10.281,-94.27
10.296,-93.53
10.312,-87.85
10.328,-77.65
10.343,-63.99
10.359,-48.29
10.375,-31.93
10.390,-15.97
10.406,-1.09
10.421,12.3
10.437,23.85
10.453,33.27
10.468,40.29
10.484,44.84
10.500,47.19
10.515,47.94
10.531,47.87
10.546,47.67
10.562,47.72
10.578,48.0
10.593,48.2
10.609,47.95
10.625,46.96
10.640,45.24
10.656,42.94
10.671,40.21
10.687,37.08
10.703,33.33
10.718,28.69
10.734,22.94
10.750,16.1
10.765,8.48
10.781,0.57
10.796,-7.13
10.812,-14.34
10.828,-21.05
10.843,-27.6
10.859,-34.53
10.875,-42.44
10.890,-51.66
10.906,-62.02
10.921,-72.62
10.937,-81.89
10.953,-87.93
10.968,-89.03
10.984,-84.24
11.000,-73.73
11.015,-58.69
11.031,-40.96
11.046,-22.35
11.062,-4.23
11.078,12.67
11.093,28.17
11.109,42.22
11.125,54.63
11.140,64.98
11.156,72.75
11.171,77.62
11.187,79.71
11.203,79.65
11.218,78.3
11.234,76.51
11.250,74.73
11.265,73.03
11.281,71.1
11.296,68.67
11.312,65.68
11.328,62.39
11.343,59.19
11.359,56.28
11.375,53.51
11.390,50.27
11.406,45.82
11.421,39.64
11.437,31.75
11.453,22.73
11.468,13.48
11.484,4.88
11.500,-2.64
11.515,-9.14
11.531,-15.19
11.546,-21.47
11.562,-28.62
11.578,-37.06
11.593,-46.87
11.609,-57.89
11.625,-69.46
11.640,-80.46
11.656,-89.24
11.671,-93.99
11.687,-93.21
11.703,-86.32
11.718,-73.92
11.734,-57.6
11.750,-39.39
11.765,-21.12
11.781,-3.95
11.796,11.67
11.812,25.69
11.828,38.04
11.843,48.49
11.859,56.65
11.875,62.21
11.890,65.26
11.906,66.3
11.921,66.08
11.937,65.41
11.953,64.79
11.968,64.36
11.984,63.98
12.000,63.28
12.015,61.99
12.031,60.02
12.046,57.56
12.062,54.91
12.078,52.36
12.093,49.99
12.109,47.58
12.125,44.75
12.140,41.07
12.156,36.23
12.171,30.21
12.187,23.21
12.203,15.63
12.218,7.85
12.234,0.18
12.250,-7.26
12.265,-14.51
12.281,-21.77
12.296,-29.35
12.312,-37.61
12.328,-46.84
12.343,-57.09
12.359,-68.02
12.375,-78.73
12.390,-87.88
12.406,-93.87
12.421,-95.2
12.437,-90.96
12.453,-81.14
12.468,-66.68
12.484,-49.23
12.500,-30.62
12.515,-12.43
12.531,4.31
12.546,19.17
12.562,32.02
12.578,42.9
12.593,51.75
12.609,58.53
12.625,63.28
12.640,66.29
12.656,68.04
12.671,69.11
12.687,70.0
12.703,70.98
12.718,72.05
12.734,73.12
12.750,74.07
12.765,74.86
12.781,75.54
12.796,76.13
12.812,76.58
12.828,76.71
12.843,76.27
12.859,74.98
12.875,72.76
12.890,69.73
12.906,66.17
12.921,62.53
12.937,59.17
12.953,56.32
12.968,54.01
12.984,52.04
13.000,50.12
13.015,47.99
13.031,45.5
13.046,42.64
13.062,39.52
13.078,36.31
13.093,33.19
13.109,30.26
13.125,27.57
13.140,25.08
13.156,22.71
13.171,20.31
13.187,17.78
13.203,15.07
13.218,12.2
13.234,9.27
13.250,6.38
13.265,3.6
13.281,0.97
13.296,-1.5
13.312,-3.78
13.328,-5.86
13.343,-7.72
13.359,-9.43
13.375,-11.13
13.390,-12.99
13.406,-15.16
13.421,-17.62
13.437,-20.23
13.453,-22.75
13.468,-24.98
13.484,-26.85
13.500,-28.52
13.515,-30.28
13.531,-32.46
13.546,-35.21
13.562,-38.5
13.578,-42.01
13.593,-45.41
13.609,-48.37
13.625,-50.8
13.640,-52.86
13.656,-54.92
13.671,-57.44
13.687,-60.8
13.703,-65.12
13.718,-70.23
13.734,-75.74
13.750,-81.21
13.765,-86.31
13.781,-90.94
13.796,-95.27
13.812,-99.72
13.828,-104.76
13.843,-110.81
13.859,-118.03
13.875,-126.22
13.890,-134.64
13.906,-142.0
13.921,-146.61
13.937,-146.76
13.953,-141.25
13.968,-129.82
13.984,-113.35
14.000,-93.6
14.015,-72.65
14.031,-52.32
14.046,-33.8
14.062,-17.58
14.078,-3.67
14.093,8.04
14.109,17.64
14.125,25.14
14.140,30.64
14.156,34.36
14.171,36.74
14.187,38.32
14.203,39.58
14.218,40.78
14.234,41.95
14.250,42.93
14.265,43.49
14.281,43.55
14.296,43.19
14.312,42.64
14.328,42.15
14.343,41.82
14.359,41.46
14.375,40.67
14.390,38.93
14.406,35.91
14.421,31.51
14.437,26.04
14.453,20.0
14.468,13.9
14.484,8.12
14.500,2.74
14.515,-2.38
14.531,-7.6
14.546,-13.3
14.562,-19.86
14.578,-27.51
14.593,-36.23
14.609,-45.63
14.625,-54.81
14.640,-62.43
14.656,-67.0
14.671,-67.3
14.687,-62.8
14.703,-53.86
14.718,-41.65
14.734,-27.75
14.750,-13.63
14.765,-0.25
14.781,11.91
14.796,22.71
14.812,31.98
14.828,39.44
14.843,44.67
14.859,47.55
14.875,48.32
14.890,47.65
14.906,46.41
14.921,45.29
14.937,44.53
14.953,43.95
14.968,43.15
14.984,41.73
15.000,39.59
15.015,36.92
15.031,34.07
15.046,31.33
15.062,28.84
15.078,26.46
15.093,23.92
15.109,20.93
15.125,17.24
15.140,12.77
15.156,7.6
15.171,1.99
15.187,-3.8
15.203,-9.55
15.218,-15.19
15.234,-20.83
15.250,-26.73
15.265,-33.21
15.281,-40.52
15.296,-48.79
15.312,-57.95
15.328,-67.61
15.343,-76.94
15.359,-84.66
15.375,-89.23
15.390,-89.27
15.406,-84.06
15.421,-73.87
15.437,-59.97
15.453,-44.16
15.468,-28.17
15.484,-13.22
15.500,0.19
15.515,11.98
15.531,22.15
15.546,30.45
15.562,36.53
15.578,40.15
15.593,41.49
15.609,41.2
15.625,40.18
15.640,39.21
15.656,38.66
15.671,38.4
15.687,37.99
15.703,36.98
15.718,35.18
15.734,32.72
15.750,29.98
15.765,27.31
15.781,24.85
15.796,22.44
15.812,19.65
15.828,15.98
15.843,11.12
15.859,5.07
15.875,-1.79
15.890,-8.81
15.906,-15.41
15.921,-21.2
15.937,-26.18
15.953,-30.72
15.968,-35.41
15.984,-40.89
16.000,-47.63
16.015,-55.81
16.031,-65.08
16.046,-74.54
16.062,-82.79
16.078,-88.23
16.093,-89.4
16.109,-85.5
16.125,-76.61
16.140,-63.71
16.156,-48.4
16.171,-32.33
16.187,-16.84
16.203,-2.72
16.218,9.69
16.234,20.32
16.250,29.09
16.265,35.88
16.281,40.6
16.296,43.33
16.312,44.45
16.328,44.55
16.343,44.25
16.359,43.97
16.375,43.77
16.390,43.39
16.406,42.52
16.421,41.0
16.437,38.97
16.453,36.83
16.468,34.97
16.484,33.5
16.500,32.14
16.515,30.36
16.531,27.58
16.546,23.49
16.562,18.19
16.578,12.09
16.593,5.77
16.609,-0.34
16.625,-6.1
16.640,-11.68
16.656,-17.46
16.671,-23.89
16.687,-31.34
16.703,-39.97
16.718,-49.57
16.734,-59.44
16.750,-68.39
16.765,-74.81
16.781,-77.07
16.796,-74.04
16.812,-65.46
16.828,-52.16
16.843,-35.81
16.859,-18.41
16.875,-1.72
16.890,13.2
16.906,25.96
16.921,36.66
16.937,45.56
16.953,52.83
16.968,58.47
16.984,62.4
17.000,64.59
17.015,65.15
17.031,64.33
17.046,62.47
17.062,59.97
17.078,57.25
17.093,54.71
17.109,52.65
17.125,51.17
17.140,50.07
17.156,48.91
17.171,47.13
17.187,44.25
17.203,40.08
17.218,34.87
17.234,29.32
17.250,24.31
17.265,20.49
17.281,18.02
17.296,16.26
17.312,14.13
17.328,10.57
17.343,5.15
17.359,-1.57
17.375,-8.29
17.390,-13.57
17.406,-16.5
17.421,-17.12
17.437,-16.13
17.453,-14.2
17.468,-11.3
17.484,-6.37
17.500,2.33
17.515,16.44
17.531,36.44
17.546,61.14
17.562,87.5
17.578,111.11
17.593,126.94
17.609,130.28
17.625,117.83
17.640,88.69
17.656,45.06
17.671,-7.48
17.687,-60.96
17.703,-107.14
17.718,-140.11
17.734,-158.94
17.750,-168.71
17.765,-179.01
17.781,-200.14
17.796,-238.6
17.812,-293.81
17.828,-358.01
17.843,-419.18
17.859,-465.58
17.875,-489.57
17.890,-489.18
17.906,-466.92
17.921,-427.43
17.937,-375.29
17.953,-314.11
17.968,-247.04
17.984,-177.41
18.000,-108.91
18.015,-45.04
18.031,11.68
18.046,60.21
18.062,100.63
18.078,133.54
18.093,159.18
18.109,177.09
18.125,186.38
18.140,186.38
18.156,177.43
18.171,161.75
18.187,143.48
18.203,127.94
18.218,120.29
18.234,123.78
18.250,138.5
18.265,161.3
18.281,186.88
18.296,209.9
18.312,227.05
18.328,238.26
18.343,246.34
18.359,255.28
18.375,267.92
18.390,283.73
18.406,298.31
18.421,304.15
18.437,293.05
18.453,258.71
18.468,198.93
18.484,116.55
18.500,19.23
18.515,-82.01
18.531,-174.98
18.546,-248.9
18.562,-296.72
18.578,-316.43
18.593,-311.12
18.609,-287.49
18.625,-253.56
18.640,-216.35
18.656,-180.52
18.671,-148.35
18.687,-120.45
18.703,-96.88
18.718,-77.54
18.734,-62.21
18.750,-50.26
18.765,-40.68
18.781,-32.48
18.796,-25.21
18.812,-19.21
18.828,-15.15
18.843,-13.42
18.859,-13.39
18.875,-13.23
18.890,-10.43
18.906,-2.81
18.921,10.56
18.937,28.92
18.953,50.14
18.968,71.58
18.984,91.09
19.000,107.63
19.015,121.24
19.031,132.51
19.046,142.05
19.062,150.0
19.078,156.13
19.093,160.02
19.109,161.38
19.125,160.18
19.140,156.6
19.156,150.87
19.171,143.14
19.187,133.55
19.203,122.3
19.218,109.87
19.234,97.02
19.250,84.61
19.265,73.39
19.281,63.71
19.296,55.45
19.312,48.04
19.328,40.76
19.343,33.15
19.359,25.08
19.375,16.84
19.390,8.86
19.406,1.39
19.421,-5.66
19.437,-12.7
19.453,-20.33
19.468,-29.16
19.484,-39.55
19.500,-51.48
19.515,-64.36
19.531,-76.95
19.546,-87.44
19.562,-93.79
19.578,-94.21
19.593,-87.85
19.609,-75.05
19.625,-57.37
19.640,-37.02
19.656,-16.14
19.671,3.79
19.687,22.29
19.703,39.72
19.718,56.86
19.734,74.22
19.750,91.51
19.765,107.47
19.781,120.15
19.796,127.51
19.812,128.23
19.828,122.26
19.843,110.94
19.859,96.65
19.875,82.05
19.890,69.4
19.906,60.06
19.921,54.4
19.937,52.06
19.953,52.14
19.968,53.59
19.984,55.28
20.000,56.24
20.015,55.77
20.031,53.49
20.046,49.43
20.062,43.87
20.078,37.15
20.093,29.53
20.109,21.02
20.125,11.47
20.140,0.73
20.156,-11.07
20.171,-23.27
20.187,-34.57
20.203,-43.25
20.218,-47.65
20.234,-46.6
20.250,-39.94
20.265,-28.63
20.281,-14.47
20.296,0.41
20.312,14.14
20.328,25.52
20.343,34.05
20.359,39.81
20.375,43.18
20.390,44.69
20.406,44.83
20.421,44.03
20.437,42.57
20.453,40.5
20.468,37.6
20.484,33.51
20.500,27.82
20.515,20.44
20.531,11.67
20.546,2.22
20.562,-7.0
20.578,-15.21
20.593,-21.98
20.609,-27.31
20.625,-31.61
20.640,-35.43
20.656,-39.3
20.671,-43.59
20.687,-48.44
20.703,-53.81
20.718,-59.54
20.734,-65.49
20.750,-71.57
20.765,-77.92
20.781,-84.73
20.796,-92.16
20.812,-99.97
20.828,-107.39
20.843,-113.09
20.859,-115.46
20.875,-113.16
20.890,-105.52
20.906,-92.77
20.921,-75.85
20.937,-56.01
20.953,-34.4
20.968,-11.93
20.984,10.66
21.000,32.55
21.015,52.72
21.031,70.07
21.046,83.67
21.062,93.04
21.078,98.23
21.093,99.69
21.109,98.12
21.125,94.27
21.140,88.89
21.156,82.77
21.171,76.68
21.187,71.32
21.203,67.14
21.218,64.28
21.234,62.43
21.250,61.02
21.265,59.32
21.281,56.63
21.296,52.46
21.312,46.59
21.328,39.07
21.343,30.16
21.359,20.24
21.375,9.61
21.390,-1.47
21.406,-12.96
21.421,-24.91
21.437,-37.31
21.453,-49.83
21.468,-61.64
21.484,-71.34
21.500,-77.23
21.515,-77.84
21.531,-72.54
21.546,-61.86
21.562,-47.52
21.578,-31.83
21.593,-17.1
21.609,-5.07
21.625,3.4
21.640,8.11
21.656,9.31
21.671,7.43
21.687,2.98
21.703,-3.47
21.718,-11.2
21.734,-19.42
21.750,-27.35
21.765,-34.32
21.781,-39.93
21.796,-43.96
21.812,-46.32
21.828,-47.05
21.843,-46.34
21.859,-44.52
21.875,-42.13
21.890,-39.82
21.906,-38.17
21.921,-37.57
21.937,-37.98
21.953,-39.05
21.968,-40.22
21.984,-41.07
22.000,-41.51
22.015,-41.87
22.031,-42.77
22.046,-44.76
22.062,-48.02
22.078,-52.1
22.093,-55.93
22.109,-58.07
22.125,-57.13
22.140,-52.1
22.156,-42.77
22.171,-29.74
22.187,-14.32
22.203,1.84
22.218,17.1
22.234,30.25
22.250,40.57
22.265,47.86
22.281,52.28
22.296,54.14
22.312,53.82
22.328,51.75
22.343,48.35
22.359,44.12
22.375,39.51
22.390,34.89
22.406,30.44
22.421,26.16
22.437,21.91
22.453,17.5
22.468,12.81
22.484,7.83
22.500,2.67
22.515,-2.53
22.531,-7.63
22.546,-12.55
22.562,-17.34
22.578,-22.13
22.593,-27.16
22.609,-32.66
22.625,-38.92
22.640,-46.11
22.656,-54.32
22.671,-63.35
22.687,-72.65
22.703,-81.27
22.718,-88.01
22.734,-91.64
22.750,-91.2
22.765,-86.33
22.781,-77.29
22.796,-64.96
22.812,-50.56
22.828,-35.43
22.843,-20.75
22.859,-7.42
22.875,3.98
22.890,13.19
22.906,20.23
22.921,25.26
22.937,28.53
22.953,30.28
22.968,30.76
22.984,30.26
23.000,29.14
23.015,27.79
23.031,26.54
23.046,25.53
23.062,24.65
23.078,23.64
23.093,22.24
23.109,20.36
23.125,18.09
23.140,15.61
23.156,13.1
23.171,10.59
23.187,7.97
23.203,5.11
23.218,1.94
23.234,-1.55
23.250,-5.37
23.265,-9.6
23.281,-14.4
23.296,-19.84
23.312,-25.68
23.328,-31.23
23.343,-35.3
23.359,-36.51
23.375,-33.72
23.390,-26.48
23.406,-15.31
23.421,-1.59
23.437,12.81
23.453,26.06
23.468,36.82
23.484,44.41
23.500,48.87
23.515,50.58
23.531,50.08
23.546,47.86
23.562,44.3
23.578,39.69
23.593,34.22
23.609,27.97
23.625,20.95
23.640,13.08
23.656,4.39
23.671,-4.88
23.687,-14.19
23.703,-22.76
23.718,-29.85
23.734,-35.0
23.750,-38.23
23.765,-39.95
23.781,-40.76
23.796,-41.12
23.812,-41.23
23.828,-41.02
23.843,-40.45
23.859,-39.69
23.875,-39.17
23.890,-39.43
23.906,-40.77
23.921,-42.96
23.937,-45.22
23.953,-46.36
23.968,-45.25
23.984,-41.12
24.000,-33.7
24.015,-23.19
24.031,-10.11
24.046,4.92
24.062,21.28
24.078,38.24
24.093,54.92
24.109,70.22
24.125,82.94
24.140,92.04
24.156,97.02
24.171,98.11
24.187,96.26
24.203,92.95
24.218,89.63
24.234,87.3
24.250,86.27
24.265,86.24
24.281,86.54
24.296,86.18
24.312,83.9
24.328,78.43
24.343,69.1
24.359,56.65
24.375,43.52
24.390,33.18
24.406,28.47
24.421,29.82
24.437,34.45
24.453,37.32
24.468,33.45
24.484,20.4
24.500,-0.57
24.515,-25.15
24.531,-48.18
24.546,-65.76
24.562,-76.31
24.578,-80.14
24.593,-78.32
24.609,-71.66
24.625,-60.55
24.640,-45.54
24.656,-27.75
24.671,-8.88
24.687,9.18
24.703,24.87
24.718,37.4
24.734,46.66
24.750,52.93
24.765,56.64
24.781,58.16
24.796,57.87
24.812,56.24
24.828,53.84
24.843,51.27
24.859,49.1
24.875,47.79
24.890,47.6
24.906,48.53
24.921,50.16
24.937,51.8
24.953,52.54
24.968,51.6
24.984,48.63
25.000,43.96
25.015,38.43
25.031,33.11
25.046,28.9
25.062,26.24
25.078,25.12
25.093,25.26
25.109,26.41
25.125,28.56
25.140,32.06
25.156,37.51
25.171,45.55
25.187,56.67
25.203,70.89
25.218,87.65
25.234,105.7
25.250,123.38
25.265,139.07
25.281,151.68
25.296,160.94
25.312,167.29
25.328,171.5
25.343,174.17
25.359,175.55
25.375,175.68
25.390,174.74
25.406,173.21
25.421,171.7
25.437,170.59
25.453,169.69
25.468,168.41
25.484,166.19
25.500,163.01
25.515,159.39
25.531,156.11
25.546,153.56
25.562,151.47
25.578,149.08
25.593,145.75
25.609,141.44
25.625,136.77
25.640,132.53
25.656,128.95
25.671,125.39
25.687,120.43
25.703,112.55
25.718,100.85
25.734,85.38
25.750,67.11
25.765,47.27
25.781,26.89
25.796,6.29
25.812,-15.05
25.828,-38.28
25.843,-64.59
25.859,-94.52
25.875,-127.23
25.890,-160.39
25.906,-190.47
25.921,-213.71
25.937,-227.24
25.953,-229.92
25.968,-222.86
25.984,-209.15
26.000,-193.07
26.015,-179.0
26.031,-170.32
26.046,-168.51
26.062,-172.8
26.078,-180.5
26.093,-187.97
26.109,-192.03
26.125,-191.17
26.140,-186.16
26.156,-179.67
26.171,-175.15
26.187,-175.38
26.203,-181.56
26.218,-193.16
26.234,-208.43
26.250,-225.15
26.265,-241.06
26.281,-254.04
26.296,-262.07
26.312,-263.32
26.328,-256.57
26.343,-241.75
26.359,-220.16
26.375,-194.2
26.390,-166.52
26.406,-139.15
26.421,-113.17
26.437,-89.11
26.453,-67.35
26.468,-48.53
26.484,-33.33
26.500,-22.18
26.515,-15.0
26.531,-11.47
26.546,-11.6
26.562,-16.02
26.578,-25.8
26.593,-41.4
26.609,-61.68
26.625,-83.33
26.640,-101.59
26.656,-111.8
26.671,-111.13
26.687,-99.66
26.703,-80.04
26.718,-56.14
26.734,-31.34
26.750,-7.54
26.765,14.85
26.781,35.98
26.796,55.41
26.812,71.56
26.828,82.22
26.843,85.74
26.859,82.24
26.875,73.92
26.890,64.12
26.906,55.77
26.921,50.09
26.937,46.06
26.953,41.32
26.968,33.62
26.984,22.18
27.000,8.21
27.015,-5.72
27.031,-16.74
27.046,-22.67
27.062,-22.54
27.078,-16.43
27.093,-5.1
27.109,10.42
27.125,28.87
27.140,48.87
27.156,68.92
27.171,87.65
27.187,104.26
27.203,118.63
27.218,131.26
27.234,142.95
27.250,154.19
27.265,164.93
27.281,174.63
27.296,182.48
27.312,187.63
27.328,189.23
27.343,186.25
27.359,177.51
27.375,162.13
27.390,140.33
27.406,114.15
27.421,87.35
27.437,64.26
27.453,48.02
27.468,39.04
27.484,34.59
27.500,29.94
27.515,20.5
27.531,3.96
27.546,-18.8
27.562,-44.18
27.578,-67.71
27.593,-86.07
27.609,-98.12
27.625,-104.89
27.640,-108.38
27.656,-110.32
27.671,-111.56
27.687,-112.25
27.703,-112.47
27.718,-112.66
27.734,-113.49
27.750,-115.24
27.765,-117.19
27.781,-117.6
27.796,-114.32
27.812,-105.75
27.828,-91.58
27.843,-72.89
27.859,-51.7
27.875,-30.17
27.890,-10.09
27.906,7.33
27.921,21.28
27.937,31.17
27.953,36.67
27.968,37.8
27.984,35.08
28.000,29.57
28.015,22.6
28.031,15.26
28.046,8.0
28.062,0.41
28.078,-8.53
28.093,-19.77
28.109,-33.55
28.125,-49.0
28.140,-64.32
28.156,-77.42
28.171,-86.79
28.187,-92.04
28.203,-94.08
28.218,-94.58
28.234,-95.27
28.250,-97.34
28.265,-101.11
28.281,-106.21
28.296,-112.03
28.312,-118.26
28.328,-125.17
28.343,-133.46
28.359,-143.77
28.375,-156.15
28.390,-169.75
28.406,-182.98
28.421,-193.93
28.437,-200.85
28.453,-202.36
28.468,-197.51
28.484,-185.88
28.500,-167.92
28.515,-145.32
28.531,-121.17
28.546,-99.29
28.562,-83.1
28.578,-74.32
28.593,-72.35
28.609,-74.58
28.625,-77.54
28.640,-78.19
28.656,-74.83
28.671,-67.2
28.687,-56.09
28.703,-42.76
28.718,-28.45
28.734,-14.1
28.750,-0.4
28.765,12.37
28.781,24.3
28.796,35.9
28.812,47.9
28.828,60.9
28.843,75.05
28.859,89.89
28.875,104.38
28.890,117.18
28.906,127.11
28.921,133.31
28.937,135.51
28.953,133.92
28.968,129.06
28.984,121.55
29.000,111.96
29.015,100.8
29.031,88.56
29.046,75.71
29.062,62.72
29.078,49.97
29.093,37.82
29.109,26.49
29.125,16.03
29.140,6.28
29.156,-3.3
29.171,-13.56
29.187,-25.41
29.203,-39.28
29.218,-54.7
29.234,-70.02
29.250,-82.84
29.265,-90.64
29.281,-91.73
29.296,-85.81
29.312,-73.88
29.328,-57.82
29.343,-39.69
29.359,-21.28
29.375,-3.89
29.390,11.54
29.406,24.37
29.421,34.28
29.437,41.31
29.453,45.93
29.468,48.93
29.484,51.15
29.500,53.24
29.515,55.47
29.531,57.81
29.546,59.96
29.562,61.63
29.578,62.61
29.593,62.85
29.609,62.46
29.625,61.65
29.640,60.65
29.656,59.47
29.671,57.91
29.687,55.54
29.703,51.95
29.718,46.99
29.734,40.87
29.750,34.06
29.765,26.99
29.781,19.72
29.796,11.76
29.812,2.3
29.828,-9.46
29.843,-23.96
29.859,-40.88
29.875,-59.11
29.890,-76.95
29.906,-92.48
29.921,-104.07
29.937,-110.79
29.953,-112.63
29.968,-110.34
29.984,-105.0
30.000,-97.35
30.015,-87.45
30.031,-74.64
30.046,-58.03
30.062,-37.3
30.078,-13.08
30.093,13.04
30.109,39.02
30.125,63.0
30.140,83.73
30.156,100.37
30.171,112.18
30.187,118.4
30.203,118.44
30.218,112.56
30.234,102.27
30.250,90.22
30.265,79.34
30.281,71.86
30.296,68.46
30.312,68.3
30.328,69.75
30.343,71.26
30.359,71.95
30.375,71.51
30.390,69.82
30.406,66.55
30.421,61.28
30.437,53.87
30.453,44.99
30.468,36.08
30.484,28.75
30.500,24.05
30.515,21.75
30.531,20.36
30.546,17.75
30.562,12.08
30.578,2.64
30.593,-9.79
30.609,-23.28
30.625,-35.44
30.640,-44.16
30.656,-48.18
30.671,-47.21
30.687,-41.71
30.703,-32.72
30.718,-21.46
30.734,-9.12
30.750,3.34
30.765,15.4
30.781,27.14
30.796,39.16
30.812,52.12
30.828,66.16
30.843,80.43
30.859,93.04
30.875,101.78
30.890,105.08
30.906,102.74
30.921,96.21
30.937,87.81
30.953,79.76
30.968,73.24
30.984,68.1
31.000,63.28
31.015,57.58
31.031,50.34
31.046,41.61
31.062,31.92
31.078,21.81
31.093,11.58
31.109,1.29
31.125,-9.01
31.140,-18.99
31.156,-28.11
31.171,-35.81
31.187,-41.81
31.203,-46.45
31.218,-50.58
31.234,-55.31
31.250,-61.5
31.265,-69.38
31.281,-78.37
31.296,-87.16
31.312,-94.15
31.328,-97.85
31.343,-97.3
31.359,-92.22
31.375,-82.96
31.390,-70.31
31.406,-55.14
31.421,-38.16
31.437,-19.94
31.453,-0.86
31.468,18.52
31.484,37.3
31.500,54.34
31.515,68.47
31.531,78.96
31.546,85.76
31.562,89.52
31.578,91.27
31.593,91.95
31.609,92.06
31.625,91.52
31.640,89.93
31.656,86.93
31.671,82.44
31.687,76.79
31.703,70.56
31.718,64.21
31.734,57.94
31.750,51.58
31.765,44.68
31.781,36.8
31.796,27.67
31.812,17.24
31.828,5.67
31.843,-6.8
31.859,-19.98
31.875,-33.71
31.890,-47.8
31.906,-62.0
31.921,-75.88
31.937,-88.88
31.953,-100.35
31.968,-109.55
31.984,-115.77
32.000,-118.31
32.015,-116.65
32.031,-110.56
32.046,-100.23
32.062,-86.3
32.078,-69.73
32.093,-51.51
32.109,-32.35
32.125,-12.62
32.140,7.62
32.156,28.29
32.171,48.95
32.187,68.62
32.203,85.92
32.218,99.49
32.234,108.56
32.250,113.22
32.265,114.48
32.281,113.82
32.296,112.63
32.312,111.69
32.328,111.04
32.343,110.23
32.359,108.64
32.375,105.92
32.390,102.02
32.406,97.14
32.421,91.46
32.437,85.08
32.453,78.09
32.468,70.65
32.484,63.09
32.500,55.74
32.515,48.73
32.531,41.77
32.546,34.15
32.562,24.99
32.578,13.57
32.593,-0.34
32.609,-16.34
32.625,-33.52
32.640,-50.56
32.656,-66.05
32.671,-78.6
32.687,-87.01
32.703,-90.34
32.718,-88.16
32.734,-80.65
32.750,-68.78
32.765,-54.13
32.781,-38.66
32.796,-24.15
32.812,-11.97
32.828,-2.82
32.843,3.18
32.859,6.39
32.875,7.46
32.890,7.29
32.906,6.8
32.921,6.78
32.937,7.51
32.953,8.75
32.968,9.9
32.984,10.38
33.000,10.18
33.015,9.94
33.031,10.71
33.046,13.29
33.062,17.66
33.078,22.79
33.093,27.0
33.109,28.78
33.125,27.4
33.140,23.19
33.156,17.27
33.171,10.91
33.187,5.09
33.203,0.36
33.218,-3.04
33.234,-5.09
33.250,-5.92
33.265,-6.14
33.281,-6.89
33.296,-9.52
33.312,-14.96
33.328,-22.87
33.343,-31.38
33.359,-37.63
33.375,-39.08
33.390,-34.69
33.406,-25.54
33.421,-14.26
33.437,-3.75
33.453,4.11
33.468,9.0
33.484,11.78
33.500,13.35
33.515,13.8
33.531,12.23
33.546,7.27
33.562,-2.03
33.578,-15.41
33.593,-31.48
33.609,-48.12
33.625,-63.36
33.640,-75.92
33.656,-85.41
33.671,-92.03
33.687,-96.06
33.703,-97.55
33.718,-96.11
33.734,-91.36
33.750,-83.31
33.765,-72.65
33.781,-60.79
33.796,-49.42
33.812,-39.99
33.828,-33.26
33.843,-29.24
33.859,-27.47
33.875,-27.56
33.890,-29.58
33.906,-33.92
33.921,-40.95
33.937,-50.49
33.953,-61.45
33.968,-72.0
33.984,-80.05
34.000,-83.91
34.015,-82.79
34.031,-76.93
34.046,-67.38
34.062,-55.49
34.078,-42.51
34.093,-29.27
34.109,-16.25
34.125,-3.7
34.140,8.23
34.156,19.35
34.171,29.44
34.187,38.24
34.203,45.45
34.218,50.74
34.234,53.87
34.250,54.73
34.265,53.53
34.281,50.74
34.296,47.13
34.312,43.5
34.328,40.43
34.343,38.1
34.359,36.25
34.375,34.36
34.390,31.95
34.406,28.9
34.421,25.62
34.437,22.99
34.453,22.0
34.468,23.3
34.484,26.84
34.500,31.71
34.515,36.34
34.531,38.83
34.546,37.5
34.562,31.28
34.578,20.05
34.593,4.95
34.609,-11.75
34.625,-26.86
34.640,-37.04
34.656,-39.88
34.671,-34.78
34.687,-23.35
34.703,-8.92
34.718,4.6
34.734,14.3
34.750,19.08
34.765,19.82
34.781,18.52
34.796,17.12
34.812,16.74
34.828,17.43
34.843,18.62
34.859,19.74
34.875,20.62
34.890,21.4
34.906,22.19
34.921,22.74
34.937,22.37
34.953,20.42
34.968,16.57
34.984,11.23
35.000,5.35
35.015,0.08
35.031,-3.74
35.046,-5.97
35.062,-7.17
35.078,-8.45
35.093,-10.88
35.109,-15.13
35.125,-21.09
35.140,-27.95
35.156,-34.5
35.171,-39.66
35.187,-42.9
35.203,-44.46
35.218,-45.14
35.234,-45.81
35.250,-46.89
35.265,-48.02
35.281,-48.19
35.296,-46.11
35.312,-40.76
35.328,-31.67
35.343,-19.04
35.359,-3.64
35.375,13.36
35.390,30.54
35.406,46.47
35.421,59.79
35.437,69.52
35.453,75.25
35.468,77.16
35.484,75.88
35.500,72.11
35.515,66.25
35.531,58.33
35.546,48.19
35.562,35.86
35.578,21.73
35.593,6.63
35.609,-8.62
35.625,-23.41
35.640,-37.56
35.656,-51.09
35.671,-63.91
35.687,-75.51
35.703,-85.04
35.718,-91.65
35.734,-94.94
35.750,-95.26
35.765,-93.62
35.781,-91.32
35.796,-89.43
35.812,-88.63
35.828,-88.98
35.843,-90.05
35.859,-91.08
35.875,-91.0
35.890,-88.72
35.906,-83.23
35.921,-73.9
35.937,-60.68
35.953,-44.15
35.968,-25.47
35.984,-6.14
36.000,12.33
36.015,28.68
36.031,42.06
36.046,52.09
36.062,58.87
36.078,62.8
36.093,64.49
36.109,64.55
36.125,63.42
36.140,61.27
36.156,58.08
36.171,53.75
36.187,48.29
36.203,41.99
36.218,35.45
36.234,29.5
36.250,24.86
36.265,21.84
36.281,20.03
36.296,18.44
36.312,15.87
36.328,11.53
36.343,5.55
36.359,-0.93
36.375,-6.23
36.390,-8.81
36.406,-8.0
36.421,-4.25
36.437,1.09
36.453,6.42
36.468,10.54
36.484,13.14
36.500,14.86
36.515,16.92
36.531,20.77
36.546,27.54
36.562,37.86
36.578,51.66
36.593,68.24
36.609,86.35
36.625,104.36
36.640,120.45
36.656,132.89
36.671,140.37
36.687,142.29
36.703,138.9
36.718,131.22
36.734,120.7
36.750,108.83
36.765,96.82
36.781,85.41
36.796,74.74
36.812,64.42
36.828,53.57
36.843,41.13
36.859,26.31
36.875,9.04
36.890,-9.81
36.906,-28.6
36.921,-45.48
36.937,-59.08
36.953,-68.78
36.968,-74.83
36.984,-77.87
37.000,-78.54
37.015,-77.26
37.031,-74.36
37.046,-70.27
37.062,-65.61
37.078,-60.98
37.093,-56.72
37.109,-52.71
37.125,-48.53
37.140,-43.64
37.156,-37.85
37.171,-31.32
37.187,-24.54
37.203,-18.05
37.218,-12.27
37.234,-7.36
37.250,-3.37
37.265,-0.39
37.281,1.35
37.296,1.47
37.312,-0.31
37.328,-3.98
37.343,-9.01
37.359,-14.53
37.375,-19.56
37.390,-23.35
37.406,-25.67
37.421,-26.79
37.437,-27.23
37.453,-27.55
37.468,-28.11
37.484,-29.03
37.500,-30.26
37.515,-31.63
37.531,-32.92
37.546,-33.82
37.562,-33.97
37.578,-33.1
37.593,-31.3
37.609,-29.09
37.625,-27.37
37.640,-27.08
37.656,-28.82
37.671,-32.59
37.687,-37.83
37.703,-43.63
37.718,-49.0
37.734,-53.08
37.750,-55.18
37.765,-54.81
37.781,-51.63
37.796,-45.5
37.812,-36.55
37.828,-25.38
37.843,-12.94
37.859,-0.49
37.875,10.71
37.890,19.75
37.906,26.28
37.921,30.51
37.937,33.14
37.953,34.96
37.968,36.6
37.984,38.31
38.000,40.05
38.015,41.67
38.031,43.1
38.046,44.48
38.062,45.97
38.078,47.72
38.093,49.66
38.109,51.67
38.125,53.6
38.140,55.38
38.156,56.98
38.171,58.23
38.187,58.76
38.203,57.99
38.218,55.37
38.234,50.66
38.250,44.16
38.265,36.72
38.281,29.49
38.296,23.65
38.312,20.09
38.328,19.32
38.343,21.56
38.359,26.84
38.375,35.08
38.390,46.03
38.406,59.22
38.421,73.76
38.437,88.42
38.453,101.68
38.468,112.09
38.484,118.51
38.500,120.35
38.515,117.6
38.531,110.64
38.546,100.07
38.562,86.45
38.578,70.4
38.593,52.57
38.609,33.87
38.625,15.42
38.640,-1.64
38.656,-16.45
38.671,-28.63
38.687,-38.37
38.703,-46.16
38.718,-52.41
38.734,-57.16
38.750,-60.11
38.765,-60.76
38.781,-58.85
38.796,-54.53
38.812,-48.55
38.828,-42.04
38.843,-36.39
38.859,-32.88
38.875,-32.49
38.890,-35.73
38.906,-42.47
38.921,-51.88
38.937,-62.54
38.953,-72.64
38.968,-80.27
38.984,-83.89
39.000,-82.59
39.015,-76.33
39.031,-65.91
39.046,-52.83
39.062,-39.02
39.078,-26.43
39.093,-16.7
39.109,-10.86
39.125,-9.23
39.140,-11.38
39.156,-16.31
39.171,-22.7
39.187,-29.19
39.203,-34.65
39.218,-38.34
39.234,-40.04
39.250,-39.95
39.265,-38.63
39.281,-36.69
39.296,-34.72
39.312,-33.14
39.328,-32.13
39.343,-31.7
39.359,-31.8
39.375,-32.31
39.390,-33.14
39.406,-34.21
39.421,-35.48
39.437,-36.92
39.453,-38.52
39.468,-40.29
39.484,-42.26
39.500,-44.38
39.515,-46.43
39.531,-47.97
39.546,-48.43
39.562,-47.15
39.578,-43.65
39.593,-37.71
39.609,-29.48
39.625,-19.52
39.640,-8.6
39.656,2.49
39.671,13.0
39.687,22.31
39.703,30.04
39.718,35.94
39.734,39.91
39.750,42.13
39.765,42.92
39.781,42.8
39.796,42.29
39.812,41.86
39.828,41.74
39.843,42.03
39.859,42.61
39.875,43.27
39.890,43.77
39.906,43.94
39.921,43.61
39.937,42.71
39.953,41.26
39.968,39.34
39.984,37.1
40.000,34.64
40.015,31.98
40.031,29.05
40.046,25.68
40.062,21.7
40.078,17.01
40.093,11.74
40.109,6.26
40.125,1.17
40.140,-2.91
40.156,-5.42
40.171,-6.11
40.187,-5.08
40.203,-2.75
40.218,0.29
40.234,3.44
40.250,6.17
40.265,8.09
40.281,8.95
40.296,8.61
40.312,7.02
40.328,4.24
40.343,0.48
40.359,-3.91
40.375,-8.39
40.390,-12.43
40.406,-15.54
40.421,-17.46
40.437,-18.26
40.453,-18.23
40.468,-17.84
40.484,-17.46
40.500,-17.34
40.515,-17.5
40.531,-17.8
40.546,-18.16
40.562,-18.51
40.578,-18.93
40.593,-19.5
40.609,-20.33
40.625,-21.44
40.640,-22.84
40.656,-24.42
40.671,-25.98
40.687,-27.16
40.703,-27.43
40.718,-26.26
40.734,-23.23
40.750,-18.33
40.765,-11.9
40.781,-4.63
40.796,2.7
40.812,9.41
40.828,15.13
40.843,19.73
40.859,23.21
40.875,25.65
40.890,27.07
40.906,27.54
40.921,27.17
40.937,26.26
40.953,25.18
40.968,24.33
40.984,23.98
41.000,24.16
41.015,24.7
41.031,25.28
41.046,25.6
41.062,25.55
41.078,25.19
41.093,24.76
41.109,24.45
41.125,24.28
41.140,24.11
41.156,23.67
41.171,22.77
41.187,21.36
41.203,19.55
41.218,17.45
41.234,15.17
41.250,12.72
41.265,10.24
41.281,8.03
41.296,6.62
41.312,6.57
41.328,8.26
41.343,11.64
41.359,16.18
41.375,21.12
41.390,25.65
41.406,29.28
41.421,31.92
41.437,33.65
41.453,34.66
41.468,35.0
41.484,34.61
41.500,33.45
41.515,31.62
41.531,29.41
41.546,27.21
41.562,25.4
41.578,24.18
41.593,23.53
41.609,23.26
41.625,23.07
41.640,22.72
41.656,22.0
41.671,20.79
41.687,19.03
41.703,16.77
41.718,14.11
41.734,11.26
41.750,8.44
41.765,5.79
41.781,3.32
41.796,0.92
41.812,-1.7
41.828,-4.84
41.843,-8.72
41.859,-13.26
41.875,-18.05
41.890,-22.38
41.906,-25.55
41.921,-27.03
41.937,-26.79
41.953,-25.21
41.968,-22.87
41.984,-20.3
42.000,-17.82
42.015,-15.51
42.031,-13.4
42.046,-11.6
42.062,-10.36
42.078,-9.92
42.093,-10.4
42.109,-11.67
42.125,-13.42
42.140,-15.28
42.156,-16.95
42.171,-18.25
42.187,-19.13
42.203,-19.59
42.218,-19.65
42.234,-19.44
42.250,-19.11
42.265,-18.86
42.281,-18.81
42.296,-18.99
42.312,-19.3
42.328,-19.57
42.343,-19.65
42.359,-19.5
42.375,-19.25
42.390,-19.09
42.406,-19.25
42.421,-19.85
42.437,-20.88
42.453,-22.21
42.468,-23.57
42.484,-24.68
42.500,-25.21
42.515,-24.92
42.531,-23.67
42.546,-21.4
42.562,-18.23
42.578,-14.4
42.593,-10.2
42.609,-6.03
42.625,-2.21
42.640,1.01
42.656,3.51
42.671,5.32
42.687,6.55
42.703,7.38
42.718,7.97
42.734,8.41
42.750,8.73
42.765,8.83
42.781,8.68
42.796,8.33
42.812,7.94
42.828,7.7
42.843,7.77
42.859,8.16
42.875,8.71
42.890,9.19
42.906,9.38
42.921,9.22
42.937,8.79
42.953,8.21
42.968,7.63
42.984,7.04
43.000,6.37
43.015,5.5
43.031,4.4
43.046,3.13
43.062,1.79
43.078,0.45
43.093,-0.88
43.109,-2.2
43.125,-3.54
43.140,-4.77
43.156,-5.62
43.171,-5.75
43.187,-4.84
43.203,-2.77
43.218,0.31
43.234,3.96
43.250,7.65
43.265,10.83
43.281,13.19
43.296,14.61
43.312,15.22
43.328,15.26
43.343,14.91
43.359,14.34
43.375,13.59
43.390,12.74
43.406,11.93
43.421,11.34
43.437,11.16
43.453,11.45
43.468,12.15
43.484,12.99
43.500,13.71
43.515,14.05
43.531,13.93
43.546,13.4
43.562,12.61
43.578,11.71
43.593,10.79
43.609,9.84
43.625,8.78
43.640,7.55
43.656,6.15
43.671,4.69
43.687,3.3
43.703,2.11
43.718,1.11
43.734,0.17
43.750,-0.92
43.765,-2.33
43.781,-4.06
43.796,-5.93
43.812,-7.6
43.828,-8.64
43.843,-8.73
43.859,-7.72
43.875,-5.68
43.890,-2.83
43.906,0.48
43.921,3.91
43.937,7.12
43.953,9.81
43.968,11.77
43.984,12.87
44.000,13.11
44.015,12.6
44.031,11.56
44.046,10.28
44.062,9.01
44.078,7.99
44.093,7.34
44.109,7.08
44.125,7.14
44.140,7.39
44.156,7.63
44.171,7.74
44.187,7.64
44.203,7.37
44.218,7.03
44.234,6.69
44.250,6.35
44.265,5.95
44.281,5.38
44.296,4.58
44.312,3.57
44.328,2.48
44.343,1.44
44.359,0.56
44.375,-0.17
44.390,-0.83
44.406,-1.51
44.421,-2.31
44.437,-3.24
44.453,-4.28
44.468,-5.33
44.484,-6.34
44.500,-7.13
44.515,-7.55
44.531,-7.41
44.546,-6.53
44.562,-4.86
44.578,-2.46
44.593,0.42
44.609,3.46
44.625,6.33
44.640,8.83
44.656,10.87
44.671,12.41
44.687,13.48
44.703,14.1
44.718,14.33
44.734,14.23
44.750,13.96
44.765,13.68
44.781,13.53
44.796,13.55
44.812,13.69
44.828,13.82
44.843,13.76
44.859,13.35
44.875,12.51
44.890,11.23
44.906,9.55
44.921,7.64
44.937,5.63
44.953,3.66
44.968,1.81
44.984,0.05
45.000,-1.67
45.015,-3.4
45.031,-5.13
45.046,-6.77
45.062,-8.17
45.078,-9.21
45.093,-9.78
45.109,-9.85
45.125,-9.45
45.140,-8.64
45.156,-7.48
45.171,-5.91
45.187,-3.79
45.203,-0.85
45.218,3.15
45.234,8.23
45.250,14.15
45.265,20.31
45.281,26.0
45.296,30.58
45.312,33.71
45.328,35.41
45.343,35.97
45.359,35.72
45.375,34.84
45.390,33.31
45.406,30.96
45.421,27.67
45.437,23.54
45.453,18.86
45.468,14.09
45.484,9.66
45.500,5.88
45.515,2.87
45.531,0.66
45.546,-0.81
45.562,-1.52
45.578,-1.46
45.593,-0.65
45.609,0.8
45.625,2.66
45.640,4.59
45.656,6.23
45.671,7.36
45.687,7.85
45.703,7.72
45.718,7.1
45.734,6.18
45.750,5.16
45.765,4.26
45.781,3.57
45.796,3.09
45.812,2.68
45.828,2.05
45.843,0.93
45.859,-0.84
45.875,-3.2
45.890,-5.82
45.906,-8.28
45.921,-10.25
45.937,-11.56
45.953,-12.22
45.968,-12.37
45.984,-12.11
46.000,-11.48
46.015,-10.43
46.031,-8.9
46.046,-6.92
46.062,-4.61
46.078,-2.2
46.093,0.12
46.109,2.2
46.125,4.01
46.140,5.6
46.156,7.03
46.171,8.36
46.187,9.67
46.203,11.0
46.218,12.39
46.234,13.87
46.250,15.4
46.265,16.97
46.281,18.49
46.296,19.9
46.312,21.15
46.328,22.26
46.343,23.31
46.359,24.36
46.375,25.5
46.390,26.86
46.406,28.56
46.421,30.72
46.437,33.34
46.453,36.28
46.468,39.25
46.484,41.9
46.500,43.9
46.515,45.06
46.531,45.29
46.546,44.54
46.562,42.75
46.578,39.79
46.593,35.53
46.609,29.92
46.625,23.1
46.640,15.38
46.656,7.18
46.671,-1.12
46.687,-9.24
46.703,-16.97
46.718,-24.09
46.734,-30.27
46.750,-35.12
46.765,-38.27
46.781,-39.49
46.796,-38.84
46.812,-36.72
46.828,-33.71
46.843,-30.42
46.859,-27.35
46.875,-24.78
46.890,-22.81
46.906,-21.47
46.921,-20.65
46.937,-20.2
46.953,-19.89
46.968,-19.45
46.984,-18.61
47.000,-17.15
47.015,-14.91
47.031,-11.85
47.046,-8.04
47.062,-3.68
47.078,0.9
47.093,5.26
47.109,8.95
47.125,11.53
47.140,12.64
47.156,12.01
47.171,9.53
47.187,5.33
47.203,-0.05
47.218,-5.7
47.234,-10.45
47.250,-13.15
47.265,-13.11
47.281,-10.32
47.296,-5.43
47.312,0.48
47.328,6.33
47.343,11.28
47.359,14.73
47.375,16.31
47.390,15.77
47.406,12.96
47.421,8.01
47.437,1.46
47.453,-5.69
47.468,-12.16
47.484,-16.67
47.500,-18.3
47.515,-16.65
47.531,-11.87
47.546,-4.58
47.562,4.28
47.578,13.72
47.593,22.89
47.609,31.22
47.625,38.54
47.640,44.99
47.656,50.95
47.671,56.91
47.687,63.37
47.703,70.73
47.718,79.15
47.734,88.41
47.750,97.88
47.765,106.71
47.781,114.17
47.796,120.15
47.812,125.41
47.828,131.41
47.843,139.81
47.859,151.74
47.875,167.34
47.890,185.71
47.906,205.37
47.921,224.8
47.937,242.81
47.953,258.41
47.968,270.49
47.984,277.56
48.000,277.87
48.015,270.0
48.031,253.55
48.046,229.58
48.062,200.46
48.078,169.21
48.093,138.59
48.109,110.39
48.125,85.1
48.140,62.14
48.156,40.32
48.171,18.4
48.187,-4.52
48.203,-28.76
48.218,-54.08
48.234,-79.92
48.250,-105.61
48.265,-130.72
48.281,-155.22
48.296,-179.49
48.312,-204.17
48.328,-230.14
48.343,-258.47
48.359,-290.27
48.375,-326.14
48.390,-365.33
48.406,-404.99
48.421,-440.2
48.437,-465.03
48.453,-474.54
48.468,-466.66
48.484,-443.05
48.500,-408.44
48.515,-368.61
48.531,-328.4
48.546,-290.37
48.562,-255.07
48.578,-222.18
48.593,-191.68
48.609,-164.32
48.625,-141.17
48.640,-122.76
48.656,-108.51
48.671,-96.96
48.687,-86.45
48.703,-76.02
48.718,-65.65
48.734,-56.25
48.750,-48.88
48.765,-44.2
48.781,-41.97
48.796,-41.2
48.812,-40.56
48.828,-38.92
48.843,-35.88
48.859,-31.91
48.875,-28.13
48.890,-25.8
48.906,-25.77
48.921,-28.14
48.937,-32.21
48.953,-36.81
48.968,-40.74
48.984,-43.23
49.000,-44.03
49.015,-43.32
49.031,-41.5
49.046,-38.8
49.062,-35.19
49.078,-30.41
49.093,-24.21
49.109,-16.5
49.125,-7.62
49.140,1.72
49.156,10.54
49.171,17.93
49.187,23.25
49.203,26.31
49.218,27.26
49.234,26.47
49.250,24.43
49.265,21.65
49.281,18.68
49.296,16.1
49.312,14.37
49.328,13.67
49.343,13.76
49.359,14.07
49.375,13.9
49.390,12.81
49.406,10.77
49.421,8.21
49.437,5.7
49.453,3.64
49.468,1.89
49.484,-0.18
49.500,-3.53
49.515,-8.88
49.531,-16.25
49.546,-24.58
49.562,-31.65
49.578,-34.5
49.593,-30.31
49.609,-17.43
49.625,3.89
49.640,31.35
49.656,61.26
49.671,89.8
49.687,114.32
49.703,133.97
49.718,149.56
49.734,162.55
49.750,174.05
49.765,184.09
49.781,191.76
49.796,195.74
49.812,194.97
49.828,189.04
49.843,178.22
49.859,163.32
49.875,145.6
49.890,126.9
49.906,109.5
49.921,95.66
49.937,86.73
49.953,82.49
49.968,80.97
49.984,79.16
50.000,74.3
50.015,65.09
50.031,52.23
50.046,37.92
50.062,24.75
50.078,14.48
50.093,7.64
50.109,3.64
50.125,1.52
50.140,0.49
50.156,0.27
50.171,0.98
50.187,2.89
50.203,6.27
50.218,11.18
50.234,17.49
50.250,24.81
50.265,32.41
50.281,39.29
50.296,44.37
50.312,46.86
50.328,46.46
50.343,43.62
50.359,39.4
50.375,35.15
50.390,32.14
50.406,31.22
50.421,32.55
50.437,35.54
50.453,38.94
50.468,41.27
50.484,41.3
50.500,38.63
50.515,33.91
50.531,28.7
50.546,24.85
50.562,23.76
50.578,25.7
50.593,29.51
50.609,32.98
50.625,33.5
50.640,28.96
50.656,18.43
50.671,2.54
50.687,-16.76
50.703,-36.69
50.718,-54.25
50.734,-66.98
50.750,-73.22
50.765,-72.36
50.781,-64.74
50.796,-51.55
50.812,-34.74
50.828,-16.85
50.843,-0.67
50.859,11.24
50.875,17.04
50.890,15.94
50.906,8.35
50.921,-4.39
50.937,-20.41
50.953,-37.77
50.968,-54.79
50.984,-70.35
51.000,-83.88
51.015,-95.36
51.031,-105.12
51.046,-113.57
51.062,-120.98
51.078,-127.39
51.093,-132.71
51.109,-136.89
51.125,-140.2
51.140,-143.23
51.156,-146.8
51.171,-151.62
51.187,-158.09
51.203,-166.03
51.218,-174.77
51.234,-183.22
51.250,-190.13
51.265,-194.3
51.281,-194.79
51.296,-191.13
51.312,-183.29
51.328,-171.66
51.343,-156.91
51.359,-139.79
51.375,-121.02
51.390,-101.41
51.406,-81.83
51.421,-63.18
51.437,-46.24
51.453,-31.48
51.468,-18.92
51.484,-8.22
51.500,1.05
51.515,9.23
51.531,16.32
51.546,22.04
51.562,26.05
51.578,28.1
51.593,28.2
51.609,26.63
51.625,23.87
51.640,20.43
51.656,16.8
51.671,13.38
51.687,10.42
51.703,7.97
51.718,5.89
51.734,3.85
51.750,1.54
51.765,-1.28
51.781,-4.6
51.796,-8.05
51.812,-10.98
51.828,-12.55
51.843,-11.98
51.859,-8.84
51.875,-3.27
51.890,4.01
51.906,11.87
51.921,19.14
51.937,24.98
51.953,29.09
51.968,31.75
51.984,33.72
52.000,35.76
52.015,38.49
52.031,42.06
52.046,46.14
52.062,50.1
52.078,53.26
52.093,55.11
52.109,55.47
52.125,54.47
52.140,52.37
52.156,49.51
52.171,46.13
52.187,42.42
52.203,38.55
52.218,34.63
52.234,30.68
52.250,26.56
52.265,22.05
52.281,16.96
52.296,11.28
52.312,5.24
52.328,-0.76
52.343,-6.25
52.359,-10.84
52.375,-14.23
52.390,-16.13
52.406,-16.26
52.421,-14.43
52.437,-10.69
52.453,-5.52
52.468,0.22
52.484,5.5
52.500,9.45
52.515,11.71
52.531,12.49
52.546,12.3
52.562,11.62
52.578,10.59
52.593,9.02
52.609,6.68
52.625,3.53
52.640,-0.02
52.656,-3.2
52.671,-5.29
52.687,-5.87
52.703,-5.08
52.718,-3.54
52.734,-1.98
52.750,-1.02
52.765,-0.85
52.781,-1.35
52.796,-2.15
52.812,-2.85
52.828,-3.24
52.843,-3.31
52.859,-3.16
52.875,-2.93
52.890,-2.72
52.906,-2.53
52.921,-2.36
52.937,-2.29
52.953,-2.42
52.968,-2.88
52.984,-3.56
53.000,-4.12
53.015,-3.92
53.031,-2.24
53.046,1.48
53.062,7.39
53.078,15.2
53.093,24.23
53.109,33.61
53.125,42.55
53.140,50.5
53.156,57.18
53.171,62.54
53.187,66.69
53.203,69.76
53.218,71.86
53.234,73.09
53.250,73.51
53.265,73.16
53.281,72.04
53.296,70.1
53.312,67.24
53.328,63.37
53.343,58.44
53.359,52.54
53.375,45.93
53.390,38.97
53.406,32.01
53.421,25.32
53.437,19.05
53.453,13.21
53.468,7.82
53.484,2.85
53.500,-1.77
53.515,-6.13
53.531,-10.4
53.546,-14.68
53.562,-18.91
53.578,-22.94
53.593,-26.39
53.609,-28.85
53.625,-30.0
53.640,-29.71
53.656,-27.98
53.671,-25.03
53.687,-21.17
53.703,-16.74
53.718,-12.11
53.734,-7.58
53.750,-3.39
53.765,0.28
53.781,3.34
53.796,5.67
53.812,7.22
53.828,7.99
53.843,8.11
53.859,7.88
53.875,7.65
53.890,7.75
53.906,8.3
53.921,9.11
53.937,9.72
53.953,9.54
53.968,8.07
53.984,5.02
54.000,0.41
54.015,-5.44
54.031,-11.9
54.046,-18.18
54.062,-23.39
54.078,-26.75
54.093,-27.87
54.109,-26.88
54.125,-24.43
54.140,-21.43
54.156,-18.67
54.171,-16.44
54.187,-14.42
54.203,-11.78
54.218,-7.56
54.234,-1.13
54.250,7.58
54.265,17.97
54.281,28.96
54.296,39.29
54.312,47.85
54.328,53.93
54.343,57.44
54.359,58.92
54.375,59.36
54.390,59.87
54.406,61.36
54.421,64.2
54.437,68.15
54.453,72.56
54.468,76.61
54.484,79.64
54.500,81.29
54.515,81.49
54.531,80.36
54.546,77.96
54.562,74.13
54.578,68.47
54.593,60.45
54.609,49.55
54.625,35.57
54.640,18.8
54.656,0.03
54.671,-19.45
54.687,-38.18
54.703,-54.82
54.718,-68.35
54.734,-78.22
54.750,-84.37
54.765,-87.09
54.781,-86.83
54.796,-84.11
54.812,-79.33
54.828,-72.8
54.843,-64.77
54.859,-55.5
54.875,-45.36
54.890,-34.8
54.906,-24.28
54.921,-14.08
54.937,-4.36
54.953,4.91
54.968,13.74
54.984,22.06
55.000,29.75
55.015,36.63
55.031,42.61
55.046,47.63
55.062,51.69
55.078,54.68
55.093,56.42
55.109,56.68
55.125,55.41
55.140,52.82
55.156,49.47
55.171,46.1
55.187,43.54
55.203,42.5
55.218,43.45
55.234,46.59
55.250,51.85
55.265,58.89
55.281,67.14
55.296,75.86
55.312,84.21
55.328,91.34
55.343,96.55
55.359,99.35
55.375,99.5
55.390,96.85
55.406,91.32
55.421,82.81
55.437,71.28
55.453,56.91
55.468,40.2
55.484,21.96
55.500,3.34
55.515,-14.38
55.531,-30.0
55.546,-42.59
55.562,-51.69
55.578,-57.37
55.593,-60.12
55.609,-60.74
55.625,-60.0
55.640,-58.41
55.656,-56.05
55.671,-52.66
55.687,-47.95
55.703,-41.93
55.718,-35.15
55.734,-28.71
55.750,-24.09
55.765,-22.77
55.781,-25.83
55.796,-33.55
55.812,-45.14
55.828,-58.69
55.843,-71.59
55.859,-81.11
55.875,-85.34
55.890,-83.84
55.906,-77.79
55.921,-69.61
55.937,-62.01
55.953,-57.01
55.968,-55.32
55.984,-56.26
56.000,-58.36
56.015,-59.98
56.031,-59.99
56.046,-57.99
56.062,-54.21
56.078,-49.31
56.093,-44.03
56.109,-38.98
56.125,-34.46
56.140,-30.55
56.156,-27.18
56.171,-24.2
56.187,-21.52
56.203,-19.09
56.218,-16.92
56.234,-14.99
56.250,-13.26
56.265,-11.68
56.281,-10.25
56.296,-9.06
56.312,-8.23
56.328,-7.74
56.343,-7.4
56.359,-6.84
56.375,-5.62
56.390,-3.52
56.406,-0.69
56.421,2.36
56.437,4.92
56.453,6.39
56.468,6.49
56.484,5.47
56.500,3.87
56.515,2.41
56.531,1.6
56.546,1.66
56.562,2.52
56.578,4.04
56.593,6.15
56.609,8.92
56.625,12.52
56.640,17.03
56.656,22.35
56.671,28.11
56.687,33.74
56.703,38.6
56.718,42.04
56.734,43.57
56.750,42.88
56.765,39.96
56.781,35.16
56.796,29.22
56.812,23.16
56.828,18.0
56.843,14.66
56.859,13.59
56.875,14.85
56.890,18.11
56.906,22.79
56.921,28.3
56.937,34.05
56.953,39.62
56.968,44.72
56.984,49.28
57.000,53.33
57.015,56.96
57.031,60.18
57.046,62.78
57.062,64.42
57.078,64.74
57.093,63.58
57.109,61.16
57.125,58.1
57.140,55.18
57.156,52.97
57.171,51.56
57.187,50.48
57.203,48.9
57.218,45.93
57.234,40.99
57.250,33.92
57.265,25.0
57.281,14.8
57.296,4.02
57.312,-6.54
57.328,-16.14
57.343,-24.12
57.359,-30.12
57.375,-34.22
57.390,-37.01
57.406,-39.36
57.421,-42.05
57.437,-45.45
57.453,-49.19
57.468,-52.45
57.484,-54.23
57.500,-53.88
57.515,-51.31
57.531,-47.02
57.546,-41.82
57.562,-36.48
57.578,-31.49
57.593,-27.02
57.609,-22.99
57.625,-19.21
57.640,-15.5
57.656,-11.69
57.671,-7.68
57.687,-3.4
57.703,1.15
57.718,5.88
57.734,10.68
57.750,15.4
57.765,19.97
57.781,24.47
57.796,29.13
57.812,34.31
57.828,40.4
57.843,47.68
57.859,56.09
57.875,65.2
57.890,74.18
57.906,82.11
57.921,88.13
57.937,91.67
57.953,92.42
57.968,90.25
57.984,85.03
58.000,76.59
58.015,64.79
58.031,49.64
58.046,31.42
58.062,10.77
58.078,-11.23
58.093,-33.25
58.109,-53.84
58.125,-71.71
58.140,-86.02
58.156,-96.5
58.171,-103.45
58.187,-107.5
58.203,-109.27
58.218,-109.14
58.234,-107.17
58.250,-103.26
58.265,-97.43
58.281,-90.1
58.296,-82.06
58.312,-74.33
58.328,-67.89
58.343,-63.36
58.359,-60.77
58.375,-59.54
58.390,-58.64
58.406,-56.93
58.421,-53.48
58.437,-47.78
58.453,-39.9
58.468,-30.38
58.484,-20.13
58.500,-10.13
58.515,-1.19
58.531,6.27
58.546,12.26
58.562,17.14
58.578,21.38
58.593,25.24
58.609,28.59
58.625,30.99
58.640,31.96
58.656,31.23
58.671,28.92
58.687,25.43
58.703,21.11
58.718,16.0
58.734,9.86
58.750,2.4
58.765,-6.24
58.781,-15.31
58.796,-23.62
58.812,-29.92
58.828,-33.47
58.843,-34.31
58.859,-33.14
58.875,-30.99
58.890,-28.71
58.906,-26.75
58.921,-25.11
58.937,-23.7
58.953,-22.46
58.968,-21.5
58.984,-20.94
59.000,-20.78
59.015,-20.76
59.031,-20.46
59.046,-19.44
59.062,-17.54
59.078,-14.91
59.093,-11.98
59.109,-9.19
59.125,-6.87
59.140,-4.96
59.156,-3.16
59.171,-1.04
59.187,1.64
59.203,4.76
59.218,7.88
59.234,10.43
59.250,11.95
59.265,12.27
59.281,11.55
59.296,10.12
59.312,8.44
59.328,6.89
59.343,5.7
59.359,4.92
59.375,4.39
59.390,3.78
59.406,2.69
59.421,0.93
59.437,-1.39
59.453,-3.82
59.468,-5.75
59.484,-6.68
59.500,-6.45
59.515,-5.24
59.531,-3.46
59.546,-1.67
59.562,-0.39
59.578,-0.17
59.593,-1.38
59.609,-4.02
59.625,-7.45
59.640,-10.36
59.656,-11.07
59.671,-8.28
59.687,-1.77
59.703,7.28
59.718,16.61
59.734,23.81
59.750,27.34
59.765,27.1
59.781,24.31
59.796,20.77
59.812,17.97
59.828,16.55
59.843,16.29
59.859,16.65
59.875,17.21
59.890,17.98
59.906,19.1
59.921,20.44
59.937,21.28
59.953,20.5
59.968,17.19
59.984,11.32
