timestamp,value
00.000,139.5
00.015,163.84
00.031,186.76
00.046,207.98
00.062,227.15
00.078,243.82
00.093,257.58
00.109,268.08
00.125,275.19
00.140,278.91
00.156,279.32
00.171,276.48
00.187,270.18
00.203,259.93
00.218,245.0
00.234,224.67
00.250,198.71
00.265,167.66
00.281,132.93
00.296,96.62
00.312,61.12
00.328,28.58
00.343,0.62
00.359,-21.9
00.375,-38.84
00.390,-50.68
00.406,-58.35
00.421,-63.11
00.437,-66.26
00.453,-69.04
00.468,-72.43
00.484,-77.08
00.500,-83.27
00.515,-91.04
00.531,-100.31
00.546,-110.91
00.562,-122.78
00.578,-135.79
00.593,-149.72
00.609,-163.96
00.625,-177.49
00.640,-188.83
00.656,-196.47
00.671,-199.2
00.687,-196.61
00.703,-189.18
00.718,-178.11
00.734,-164.96
00.750,-151.15
00.765,-137.7
00.781,-125.15
00.796,-113.82
00.812,-103.98
00.828,-96.03
00.843,-90.53
00.859,-87.82
00.875,-87.93
00.890,-90.33
00.906,-94.06
00.921,-97.98
00.937,-101.21
00.953,-103.3
00.968,-104.33
00.984,-104.7
01.000,-104.77
01.015,-104.62
01.031,-103.98
01.046,-102.38
01.062,-99.41
01.078,-95.0
01.093,-89.48
01.109,-83.52
01.125,-77.87
01.140,-73.13
01.156,-69.6
01.171,-67.22
01.187,-65.68
01.203,-64.56
01.218,-63.58
01.234,-62.67
01.250,-61.99
01.265,-61.84
01.281,-62.59
01.296,-64.54
01.312,-67.95
01.328,-72.91
01.343,-79.33
01.359,-86.72
01.375,-94.11
01.390,-100.0
01.406,-102.67
01.421,-100.67
01.437,-93.24
01.453,-80.72
01.468,-64.3
01.484,-45.74
01.500,-26.78
01.515,-8.75
01.531,7.61
01.546,22.0
01.562,34.36
01.578,44.73
01.593,53.08
01.609,59.36
01.625,63.63
01.640,66.08
01.656,67.12
01.671,67.24
01.687,67.01
01.703,66.79
01.718,66.78
01.734,66.96
01.750,67.21
01.765,67.45
01.781,67.66
01.796,67.88
01.812,67.95
01.828,67.46
01.843,65.78
01.859,62.3
01.875,56.71
01.890,49.24
01.906,40.58
01.921,31.68
01.937,23.37
01.953,16.03
01.968,9.42
01.984,2.86
02.000,-4.58
02.015,-13.8
02.031,-25.38
02.046,-39.38
02.062,-55.34
02.078,-72.19
02.093,-88.33
02.109,-101.81
02.125,-110.64
02.140,-113.24
02.156,-108.92
02.171,-98.06
02.187,-82.12
02.203,-63.21
02.218,-43.54
02.234,-24.92
02.250,-8.39
02.265,5.75
02.281,17.62
02.296,27.41
02.312,35.22
02.328,41.06
02.343,45.0
02.359,47.37
02.375,48.79
02.390,49.91
02.406,51.21
02.421,52.77
02.437,54.27
02.453,55.27
02.468,55.46
02.484,54.91
02.500,54.03
02.515,53.36
02.531,53.22
02.546,53.59
02.562,53.99
02.578,53.72
02.593,52.03
02.609,48.44
02.625,42.87
02.640,35.69
02.656,27.61
02.671,19.53
02.687,12.28
02.703,6.32
02.718,1.61
02.734,-2.43
02.750,-6.68
02.765,-12.02
02.781,-19.01
02.796,-27.58
02.812,-36.81
02.828,-45.09
02.843,-50.38
02.859,-50.71
02.875,-44.76
02.890,-32.28
02.906,-14.25
02.921,7.29
02.937,29.72
02.953,50.49
02.968,67.69
02.984,80.34
03.000,88.39
03.015,92.3
03.031,92.7
03.046,90.13
03.062,85.08
03.078,78.19
03.093,70.37
03.109,62.72
03.125,56.26
03.140,51.55
03.156,48.45
03.171,46.32
03.187,44.32
03.203,41.88
03.218,38.86
03.234,35.48
03.250,32.04
03.265,28.64
03.281,25.16
03.296,21.26
03.312,16.65
03.328,11.19
03.343,4.92
03.359,-1.89
03.375,-8.97
03.390,-15.98
03.406,-22.75
03.421,-29.18
03.437,-35.41
03.453,-41.65
03.468,-48.13
03.484,-54.96
03.500,-62.07
03.515,-69.26
03.531,-76.29
03.546,-82.98
03.562,-89.19
03.578,-94.74
03.593,-99.23
03.609,-102.1
03.625,-102.79
03.640,-100.89
03.656,-96.42
03.671,-89.8
03.687,-81.7
03.703,-72.81
03.718,-63.73
03.734,-54.82
03.750,-46.27
03.765,-38.29
03.781,-31.09
03.796,-24.87
03.812,-19.76
03.828,-15.72
03.843,-12.53
03.859,-9.81
03.875,-7.17
03.890,-4.28
03.906,-1.0
03.921,2.53
03.937,5.91
03.953,8.61
03.968,10.18
03.984,10.43
04.000,9.55
04.015,8.0
04.031,6.33
04.046,4.99
04.062,4.19
04.078,3.9
04.093,3.92
04.109,3.95
04.125,3.7
04.140,2.88
04.156,1.23
04.171,-1.39
04.187,-5.02
04.203,-9.56
04.218,-14.93
04.234,-21.3
04.250,-29.11
04.265,-38.96
04.281,-51.23
04.296,-65.56
04.312,-80.45
04.328,-93.4
04.343,-101.47
04.359,-102.24
04.375,-94.6
04.390,-79.17
04.406,-58.12
04.421,-34.38
04.437,-10.85
04.453,10.26
04.468,27.67
04.484,40.92
04.500,50.01
04.515,55.22
04.531,57.01
04.546,55.96
04.562,52.89
04.578,48.86
04.593,44.93
04.609,41.94
04.625,40.3
04.640,39.94
04.656,40.39
04.671,41.06
04.687,41.48
04.703,41.49
04.718,41.23
04.734,40.97
04.750,40.78
04.765,40.46
04.781,39.5
04.796,37.3
04.812,33.45
04.828,27.94
04.843,21.25
04.859,14.13
04.875,7.34
04.890,1.32
04.906,-4.02
04.921,-9.21
04.937,-14.98
04.953,-22.03
04.968,-30.69
04.984,-40.78
05.000,-51.62
05.015,-61.91
05.031,-69.97
05.046,-73.94
05.062,-72.2
05.078,-63.87
05.093,-49.17
05.109,-29.48
05.125,-7.0
05.140,15.83
05.156,37.03
05.171,55.4
05.187,70.54
05.203,82.55
05.218,91.62
05.234,97.83
05.250,101.22
05.265,102.03
05.281,100.75
05.296,98.12
05.312,94.92
05.328,91.69
05.343,88.65
05.359,85.71
05.375,82.71
05.390,79.48
05.406,76.0
05.421,72.25
05.437,68.16
05.453,63.5
05.468,57.96
05.484,51.32
05.500,43.55
05.515,34.98
05.531,26.18
05.546,17.77
05.562,10.11
05.578,3.0
05.593,-4.42
05.609,-13.43
05.625,-25.27
05.640,-40.63
05.656,-59.28
05.671,-80.01
05.687,-100.84
05.703,-119.4
05.718,-133.39
05.734,-140.88
05.750,-140.69
05.765,-132.64
05.781,-117.58
05.796,-97.33
05.812,-74.24
05.828,-50.64
05.843,-28.32
05.859,-8.28
05.875,9.2
05.890,24.15
05.906,36.52
05.921,46.07
05.937,52.51
05.953,55.76
05.968,56.17
05.984,54.54
06.000,51.86
06.015,49.02
06.031,46.5
06.046,44.37
06.062,42.47
06.078,40.66
06.093,38.93
06.109,37.44
06.125,36.28
06.140,35.21
06.156,33.71
06.171,31.0
06.187,26.48
06.203,19.92
06.218,11.7
06.234,2.62
06.250,-6.39
06.265,-14.68
06.281,-22.07
06.296,-28.91
06.312,-35.88
06.328,-43.82
06.343,-53.47
06.359,-65.22
06.375,-78.87
06.390,-93.4
06.406,-106.99
06.421,-117.25
06.437,-121.72
06.453,-118.6
06.468,-107.36
06.484,-88.89
06.500,-65.32
06.515,-39.37
06.531,-13.56
06.546,10.22
06.562,30.93
06.578,48.24
06.593,62.18
06.609,72.82
06.625,80.26
06.640,84.54
06.656,85.91
06.671,84.87
06.687,82.12
06.703,78.49
06.718,74.61
06.734,70.83
06.750,67.1
06.765,63.21
06.781,58.92
06.796,54.26
06.812,49.55
06.828,45.21
06.843,41.55
06.859,38.45
06.875,35.41
06.890,31.66
06.906,26.56
06.921,19.85
06.937,11.77
06.953,2.94
06.968,-5.9
06.984,-14.18
07.000,-21.61
07.015,-28.18
07.031,-34.1
07.046,-39.73
07.062,-45.54
07.078,-52.12
07.093,-60.04
07.109,-69.54
07.125,-80.23
07.140,-90.92
07.156,-99.6
07.171,-103.93
07.187,-101.86
07.203,-92.27
07.218,-75.41
07.234,-52.76
07.250,-26.66
07.265,0.43
07.281,26.45
07.296,50.02
07.312,70.38
07.328,87.09
07.343,99.87
07.359,108.48
07.375,112.85
07.390,113.3
07.406,110.59
07.421,105.79
07.437,100.03
07.453,94.28
07.468,89.12
07.484,84.68
07.500,80.72
07.515,76.83
07.531,72.58
07.546,67.67
07.562,61.94
07.578,55.43
07.593,48.33
07.609,40.95
07.625,33.6
07.640,26.5
07.656,19.74
07.671,13.13
07.687,6.4
07.703,-0.85
07.718,-8.86
07.734,-17.67
07.750,-27.05
07.765,-36.63
07.781,-45.98
07.796,-54.78
07.812,-62.93
07.828,-70.56
07.843,-78.02
07.859,-85.69
07.875,-93.9
07.890,-102.66
07.906,-111.49
07.921,-119.26
07.937,-124.3
07.953,-124.69
07.968,-118.86
07.984,-106.07
08.000,-86.75
08.015,-62.44
08.031,-35.34
08.046,-7.78
08.062,18.35
08.078,41.72
08.093,61.53
08.109,77.29
08.125,88.67
08.140,95.51
08.156,98.06
08.171,97.03
08.187,93.54
08.203,88.93
08.218,84.31
08.234,80.39
08.250,77.39
08.265,75.13
08.281,73.27
08.296,71.46
08.312,69.48
08.328,67.11
08.343,64.17
08.359,60.48
08.375,55.86
08.390,50.31
08.406,43.99
08.421,37.22
08.437,30.35
08.453,23.68
08.468,17.21
08.484,10.76
08.500,3.93
08.515,-3.72
08.531,-12.37
08.546,-21.93
08.562,-31.89
08.578,-41.53
08.593,-50.16
08.609,-57.37
08.625,-63.25
08.640,-68.42
08.656,-73.88
08.671,-80.65
08.687,-89.42
08.703,-100.04
08.718,-111.32
08.734,-121.09
08.750,-126.64
08.765,-125.5
08.781,-116.2
08.796,-98.83
08.812,-74.92
08.828,-47.04
08.843,-17.97
08.859,9.95
08.875,35.18
08.890,56.82
08.906,74.43
08.921,87.62
08.937,96.14
08.953,100.14
08.968,100.26
08.984,97.79
09.000,94.24
09.015,90.96
09.031,88.68
09.046,87.33
09.062,86.2
09.078,84.4
09.093,81.28
09.109,76.75
09.125,71.23
09.140,65.41
09.156,59.89
09.171,54.97
09.187,50.58
09.203,46.38
09.218,41.9
09.234,36.82
09.250,31.04
09.265,24.66
09.281,17.85
09.296,10.75
09.312,3.29
09.328,-4.69
09.343,-13.38
09.359,-22.78
09.375,-32.56
09.390,-42.1
09.406,-50.66
09.421,-57.73
09.437,-63.21
09.453,-67.56
09.468,-71.57
09.484,-76.16
09.500,-82.16
09.515,-90.01
09.531,-99.83
09.546,-111.1
09.562,-122.65
09.578,-132.59
09.593,-138.57
09.609,-138.3
09.625,-130.28
09.640,-114.37
09.656,-91.94
09.671,-65.54
09.687,-38.08
09.703,-12.03
09.718,11.13
09.734,30.95
09.750,47.66
09.765,61.72
09.781,73.43
09.796,82.79
09.812,89.6
09.828,93.77
09.843,95.4
09.859,94.86
09.875,92.68
09.890,89.36
09.906,85.29
09.921,80.67
09.937,75.69
09.953,70.59
09.968,65.72
09.984,61.55
10.000,58.45
10.015,56.5
10.031,55.42
10.046,54.6
10.062,53.25
10.078,50.59
10.093,46.03
10.109,39.42
10.125,31.01
10.140,21.49
10.156,11.82
10.171,2.93
10.187,-4.56
10.203,-10.55
10.218,-15.47
10.234,-20.06
10.250,-25.07
10.265,-31.0
10.281,-37.97
10.296,-45.69
10.312,-53.72
10.328,-61.54
10.343,-68.84
10.359,-75.5
10.375,-81.67
10.390,-87.68
10.406,-94.0
10.421,-101.03
10.437,-108.82
10.453,-116.88
10.468,-124.02
10.484,-128.45
10.500,-128.22
10.515,-121.78
10.531,-108.53
10.546,-89.14
10.562,-65.34
10.578,-39.46
10.593,-13.84
10.609,9.77
10.625,30.36
10.640,47.57
10.656,61.33
10.671,71.66
10.687,78.52
10.703,82.03
10.718,82.66
10.734,81.26
10.750,78.94
10.765,76.71
10.781,75.15
10.796,74.27
10.812,73.59
10.828,72.5
10.843,70.58
10.859,67.76
10.875,64.31
10.890,60.64
10.906,57.12
10.921,53.89
10.937,50.95
10.953,48.21
10.968,45.56
10.984,42.85
11.000,39.86
11.015,36.31
11.031,31.91
11.046,26.41
11.062,19.76
11.078,12.24
11.093,4.38
11.109,-3.16
11.125,-9.83
11.140,-15.38
11.156,-20.01
11.171,-24.24
11.187,-28.75
11.203,-34.08
11.218,-40.45
11.234,-47.69
11.250,-55.36
11.265,-62.94
11.281,-70.09
11.296,-76.73
11.312,-83.11
11.328,-89.66
11.343,-96.78
11.359,-104.61
11.375,-112.83
11.390,-120.51
11.406,-126.18
11.421,-128.17
11.437,-125.0
11.453,-115.9
11.468,-101.02
11.484,-81.43
11.500,-58.82
11.515,-35.1
11.531,-11.96
11.546,9.34
11.562,27.99
11.578,43.5
11.593,55.65
11.609,64.31
11.625,69.55
11.640,71.7
11.656,71.3
11.671,69.17
11.687,66.18
11.703,63.15
11.718,60.61
11.734,58.76
11.750,57.46
11.765,56.36
11.781,55.12
11.796,53.54
11.812,51.71
11.828,49.88
11.843,48.33
11.859,47.21
11.875,46.39
11.890,45.45
11.906,43.89
11.921,41.26
11.937,37.34
11.953,32.15
11.968,25.94
11.984,18.98
12.000,11.56
12.015,3.95
12.031,-3.65
12.046,-10.97
12.062,-17.79
12.078,-23.92
12.093,-29.33
12.109,-34.13
12.125,-38.58
12.140,-43.03
12.156,-47.88
12.171,-53.47
12.187,-60.04
12.203,-67.7
12.218,-76.46
12.234,-86.21
12.250,-96.58
12.265,-106.85
12.281,-115.82
12.296,-121.88
12.312,-123.3
12.328,-118.72
12.343,-107.66
12.359,-90.82
12.375,-69.95
12.390,-47.39
12.406,-25.37
12.421,-5.49
12.437,11.62
12.453,26.05
12.468,38.3
12.484,48.82
12.500,57.79
12.515,65.09
12.531,70.49
12.546,73.86
12.562,75.26
12.578,75.03
12.593,73.6
12.609,71.41
12.625,68.81
12.640,66.03
12.656,63.21
12.671,60.46
12.687,57.9
12.703,55.6
12.718,53.64
12.734,51.88
12.750,50.16
12.765,48.18
12.781,45.64
12.796,42.36
12.812,38.29
12.828,33.62
12.843,28.67
12.859,23.78
12.875,19.16
12.890,14.81
12.906,10.42
12.921,5.48
12.937,-0.61
12.953,-8.22
12.968,-17.38
12.984,-27.66
13.000,-38.2
13.015,-48.04
13.031,-56.36
13.046,-62.8
13.062,-67.57
13.078,-71.33
13.093,-75.03
13.109,-79.65
13.125,-85.93
13.140,-94.27
13.156,-104.45
13.171,-115.47
13.187,-125.57
13.203,-132.33
13.218,-133.3
13.234,-126.72
13.250,-112.12
13.265,-90.64
13.281,-64.73
13.296,-37.44
13.312,-11.59
13.328,10.91
13.343,29.25
13.359,43.54
13.375,54.4
13.390,62.58
13.406,68.68
13.421,73.12
13.437,76.14
13.453,77.96
13.468,78.83
13.484,79.0
13.500,78.62
13.515,77.69
13.531,76.06
13.546,73.59
13.562,70.31
13.578,66.62
13.593,63.18
13.609,60.69
13.625,59.55
13.640,59.67
13.656,60.36
13.671,60.75
13.687,60.05
13.703,57.78
13.718,53.81
13.734,48.22
13.750,41.25
13.765,33.18
13.781,24.52
13.796,15.95
13.812,8.23
13.828,1.95
13.843,-2.76
13.859,-6.36
13.875,-9.71
13.890,-13.77
13.906,-19.29
13.921,-26.48
13.937,-35.09
13.953,-44.55
13.968,-54.1
13.984,-63.05
14.000,-70.91
14.015,-77.64
14.031,-83.61
14.046,-89.62
14.062,-96.54
14.078,-104.82
14.093,-114.14
14.109,-123.16
14.125,-129.83
14.140,-131.92
14.156,-127.79
14.171,-116.84
14.187,-99.7
14.203,-77.97
14.218,-53.72
14.234,-29.02
14.250,-5.52
14.265,15.71
14.281,34.03
14.296,49.13
14.312,60.75
14.328,68.73
14.343,72.99
14.359,73.75
14.375,71.67
14.390,67.9
14.406,63.77
14.421,60.41
14.437,58.51
14.453,58.06
14.468,58.55
14.484,59.32
14.500,59.78
14.515,59.67
14.531,58.99
14.546,57.79
14.562,56.03
14.578,53.55
14.593,50.18
14.609,45.85
14.625,40.84
14.640,35.56
14.656,30.54
14.671,26.09
14.687,22.25
14.703,18.62
14.718,14.55
14.734,9.39
14.750,2.64
14.765,-5.62
14.781,-14.91
14.796,-24.34
14.812,-32.95
14.828,-40.04
14.843,-45.42
14.859,-49.42
14.875,-52.9
14.890,-56.97
14.906,-62.63
14.921,-70.58
14.937,-80.79
14.953,-92.37
14.968,-103.55
14.984,-111.96
15.000,-115.17
15.015,-111.36
15.031,-99.93
15.046,-81.69
15.062,-58.76
15.078,-33.92
15.093,-9.86
15.109,11.38
15.125,28.67
15.140,41.86
15.156,51.41
15.171,58.01
15.187,62.42
15.203,65.24
15.218,66.96
15.234,67.95
15.250,68.5
15.265,68.72
15.281,68.56
15.296,67.76
15.312,66.01
15.328,63.2
15.343,59.5
15.359,55.5
15.375,51.95
15.390,49.55
15.406,48.52
15.421,48.54
15.437,48.77
15.453,48.17
15.468,45.84
15.484,41.35
15.500,34.81
15.515,26.76
15.531,17.97
15.546,9.25
15.562,1.15
15.578,-6.08
15.593,-12.52
15.609,-18.42
15.625,-24.07
15.640,-29.65
15.656,-35.23
15.671,-40.81
15.687,-46.46
15.703,-52.46
15.718,-59.24
15.734,-67.27
15.750,-76.82
15.765,-87.78
15.781,-99.46
15.796,-110.56
15.812,-119.27
15.828,-123.66
15.843,-122.11
15.859,-113.82
15.875,-99.14
15.890,-79.48
15.906,-56.99
15.921,-33.93
15.937,-12.08
15.953,7.52
15.968,24.61
15.984,39.37
16.000,52.09
16.015,62.85
16.031,71.43
16.046,77.52
16.062,80.84
16.078,81.39
16.093,79.55
16.109,76.03
16.125,71.81
16.140,67.82
16.156,64.8
16.171,63.09
16.187,62.61
16.203,62.98
16.218,63.71
16.234,64.33
16.250,64.44
16.265,63.67
16.281,61.64
16.296,57.94
16.312,52.38
16.328,45.19
16.343,37.08
16.359,29.09
16.375,22.24
16.390,17.12
16.406,13.62
16.421,10.95
16.437,7.92
16.453,3.35
16.468,-3.54
16.484,-12.94
16.500,-24.39
16.515,-36.84
16.531,-48.89
16.546,-59.24
16.562,-67.02
16.578,-72.16
16.593,-75.42
16.609,-78.13
16.625,-81.77
16.640,-87.47
16.656,-95.56
16.671,-105.37
16.687,-115.26
16.703,-122.82
16.718,-125.47
16.734,-121.15
16.750,-108.96
16.765,-89.56
16.781,-65.03
16.796,-38.22
16.812,-11.98
16.828,11.59
16.843,31.36
16.859,47.04
16.875,58.76
16.890,66.76
16.906,71.37
16.921,73.14
16.937,72.88
16.953,71.65
16.968,70.53
16.984,70.23
17.000,70.85
17.015,72.07
17.031,73.13
17.046,73.31
17.062,72.13
17.078,69.47
17.093,65.67
17.109,61.35
17.125,57.24
17.140,53.84
17.156,51.31
17.171,49.37
17.187,47.47
17.203,45.04
17.218,41.7
17.234,37.37
17.250,32.18
17.265,26.27
17.281,19.6
17.296,12.04
17.312,3.47
17.328,-6.0
17.343,-15.83
17.359,-25.26
17.375,-33.53
17.390,-40.17
17.406,-45.27
17.421,-49.45
17.437,-53.59
17.453,-58.66
17.468,-65.36
17.484,-73.96
17.500,-84.33
17.515,-95.8
17.531,-107.19
17.546,-116.79
17.562,-122.62
17.578,-122.81
17.593,-116.18
17.609,-102.7
17.625,-83.63
17.640,-61.28
17.656,-38.31
17.671,-16.96
17.687,1.45
17.703,16.68
17.718,29.25
17.734,39.89
17.750,49.14
17.765,57.14
17.781,63.63
17.796,68.25
17.812,70.71
17.828,70.99
17.843,69.34
17.859,66.28
17.875,62.43
17.890,58.48
17.906,55.03
17.921,52.52
17.937,51.25
17.953,51.28
17.968,52.45
17.984,54.29
18.000,56.05
18.015,56.75
18.031,55.37
18.046,51.22
18.062,44.29
18.078,35.32
18.093,25.67
18.109,16.81
18.125,9.73
18.140,4.67
18.156,0.99
18.171,-2.33
18.187,-6.22
18.203,-11.2
18.218,-17.23
18.234,-24.0
18.250,-31.21
18.265,-38.75
18.281,-46.66
18.296,-55.03
18.312,-63.81
18.328,-72.84
18.343,-81.89
18.359,-90.61
18.375,-98.41
18.390,-104.29
18.406,-106.93
18.421,-104.97
18.437,-97.55
18.453,-84.75
18.468,-67.57
18.484,-47.75
18.500,-27.13
18.515,-7.14
18.531,11.42
18.546,28.14
18.562,42.92
18.578,55.51
18.593,65.52
18.609,72.55
18.625,76.26
18.640,76.68
18.656,74.25
18.671,69.89
18.687,64.84
18.703,60.32
18.718,57.25
18.734,55.96
18.750,56.21
18.765,57.34
18.781,58.62
18.796,59.43
18.812,59.35
18.828,58.04
18.843,55.2
18.859,50.67
18.875,44.49
18.890,37.1
18.906,29.26
18.921,21.88
18.937,15.71
18.953,11.04
18.968,7.56
18.984,4.46
19.000,0.68
19.015,-4.82
19.031,-12.64
19.046,-22.71
19.062,-34.21
19.078,-45.76
19.093,-55.94
19.109,-63.81
19.125,-69.28
19.140,-73.18
19.156,-76.93
19.171,-81.92
19.187,-88.92
19.203,-97.81
19.218,-107.39
19.234,-115.67
19.250,-120.37
19.265,-119.41
19.281,-111.58
19.296,-96.85
19.312,-76.47
19.328,-52.56
19.343,-27.61
19.359,-3.79
19.375,17.43
19.390,35.28
19.406,49.61
19.421,60.46
19.437,68.08
19.453,72.83
19.468,75.22
19.484,75.99
19.500,75.86
19.515,75.5
19.531,75.24
19.546,75.2
19.562,75.16
19.578,74.76
19.593,73.64
19.609,71.49
19.625,68.26
19.640,64.21
19.656,59.89
19.671,55.9
19.687,52.72
19.703,50.45
19.718,48.74
19.734,46.92
19.750,44.32
19.765,40.49
19.781,35.33
19.796,29.04
19.812,21.87
19.828,14.07
19.843,5.78
19.859,-2.87
19.875,-11.63
19.890,-20.16
19.906,-28.02
19.921,-34.88
19.937,-40.62
19.953,-45.46
19.968,-49.97
19.984,-54.88
20.000,-61.07
20.015,-69.17
20.031,-79.48
20.046,-91.7
20.062,-104.9
20.078,-117.54
20.093,-127.69
20.109,-133.26
20.125,-132.54
20.140,-124.58
20.156,-109.59
20.171,-89.0
20.187,-65.19
20.203,-40.93
20.218,-18.6
20.234,0.37
20.250,15.76
20.265,28.22
20.281,38.76
20.296,48.17
20.312,56.67
20.328,64.04
20.343,69.8
20.359,73.6
20.375,75.35
20.390,75.2
20.406,73.38
20.421,70.17
20.437,65.94
20.453,61.23
20.468,56.79
20.484,53.47
20.500,51.92
20.515,52.29
20.531,54.08
20.546,56.22
20.562,57.32
20.578,56.2
20.593,52.16
20.609,45.31
20.625,36.41
20.640,26.69
20.656,17.43
20.671,9.45
20.687,3.02
20.703,-2.26
20.718,-7.07
20.734,-12.08
20.750,-17.64
20.765,-23.79
20.781,-30.4
20.796,-37.41
20.812,-44.88
20.828,-52.92
20.843,-61.57
20.859,-70.66
20.875,-79.82
20.890,-88.55
20.906,-96.18
20.921,-101.85
20.937,-104.44
20.953,-102.74
20.968,-95.85
20.984,-83.65
21.000,-67.02
21.015,-47.72
21.031,-27.8
21.046,-8.93
21.062,8.04
21.078,23.04
21.093,36.42
21.109,48.44
21.125,58.94
21.140,67.41
21.156,73.24
21.171,75.99
21.187,75.66
21.203,72.72
21.218,68.0
21.234,62.56
21.250,57.44
21.265,53.48
21.281,51.13
21.296,50.44
21.312,51.02
21.328,52.26
21.343,53.41
21.359,53.72
21.375,52.49
21.390,49.15
21.406,43.52
21.421,35.87
21.437,27.01
21.453,18.14
21.468,10.41
21.484,4.5
21.500,0.37
21.515,-2.71
21.531,-5.79
21.546,-9.91
21.562,-15.7
21.578,-23.33
21.593,-32.46
21.609,-42.39
21.625,-52.31
21.640,-61.54
21.656,-69.69
21.671,-76.89
21.687,-83.68
21.703,-90.64
21.718,-97.92
21.734,-104.89
21.750,-110.13
21.765,-111.84
21.781,-108.53
21.796,-99.55
21.812,-85.29
21.828,-66.99
21.843,-46.21
21.859,-24.51
21.875,-3.09
21.890,17.12
21.906,35.36
21.921,50.97
21.937,63.39
21.953,72.26
21.968,77.48
21.984,79.28
22.000,78.2
22.015,75.07
22.031,70.96
22.046,66.88
22.062,63.73
22.078,61.96
22.093,61.54
22.109,62.07
22.125,63.03
22.140,63.87
22.156,64.13
22.171,63.42
22.187,61.33
22.203,57.58
22.218,52.12
22.234,45.27
22.250,37.71
22.265,30.33
22.281,23.87
22.296,18.7
22.312,14.71
22.328,11.34
22.343,7.79
22.359,3.16
22.375,-3.27
22.390,-11.84
22.406,-22.31
22.421,-33.8
22.437,-45.02
22.453,-54.66
22.468,-61.86
22.484,-66.6
22.500,-69.68
22.515,-72.55
22.531,-76.72
22.546,-83.32
22.562,-92.59
22.578,-103.64
22.593,-114.46
22.609,-122.33
22.625,-124.47
22.640,-118.85
22.656,-104.95
22.671,-83.95
22.687,-58.51
22.703,-31.83
22.718,-6.78
22.734,14.79
22.750,32.2
22.765,45.52
22.781,55.17
22.796,61.56
22.812,65.11
22.828,66.4
22.843,66.33
22.859,65.96
22.875,66.21
22.890,67.48
22.906,69.56
22.921,71.7
22.937,73.01
22.953,72.82
22.968,70.86
22.984,67.34
23.000,62.83
23.015,58.02
23.031,53.55
23.046,49.79
23.062,46.76
23.078,44.15
23.093,41.53
23.109,38.47
23.125,34.79
23.140,30.5
23.156,25.65
23.171,20.13
23.187,13.67
23.203,5.97
23.218,-2.99
23.234,-12.81
23.250,-22.63
23.265,-31.45
23.281,-38.55
23.296,-43.77
23.312,-47.52
23.328,-50.62
23.343,-54.08
23.359,-58.88
23.375,-65.75
23.390,-75.04
23.406,-86.39
23.421,-98.53
23.437,-109.37
23.453,-116.33
23.468,-117.06
23.484,-110.22
23.500,-95.89
23.515,-75.65
23.531,-52.05
23.546,-27.86
23.562,-5.52
23.578,13.37
23.593,28.17
23.609,39.02
23.625,46.59
23.640,51.75
23.656,55.3
23.671,57.8
23.687,59.6
23.703,60.82
23.718,61.5
23.734,61.64
23.750,61.19
23.765,60.12
23.781,58.38
23.796,56.08
23.812,53.47
23.828,51.05
23.843,49.33
23.859,48.67
23.875,49.02
23.890,49.88
23.906,50.36
23.921,49.51
23.937,46.57
23.953,41.3
23.968,33.98
23.984,25.38
24.000,16.49
24.015,8.14
24.031,0.72
24.046,-5.81
24.062,-11.85
24.078,-17.81
24.093,-23.89
24.109,-30.0
24.125,-35.95
24.140,-41.66
24.156,-47.37
24.171,-53.65
24.187,-61.08
24.203,-69.97
24.218,-80.11
24.234,-90.63
24.250,-100.09
24.265,-106.79
24.281,-109.02
24.296,-105.56
24.312,-96.1
24.328,-81.3
24.343,-62.8
24.359,-42.76
24.375,-23.19
24.390,-5.4
24.406,10.2
24.421,23.91
24.437,36.29
24.453,47.63
24.468,57.72
24.484,65.95
24.500,71.69
24.515,74.61
24.531,74.84
24.546,72.96
24.562,69.65
24.578,65.68
24.593,61.66
24.609,58.15
24.625,55.61
24.640,54.36
24.656,54.5
24.671,55.75
24.687,57.47
24.703,58.82
24.718,58.88
24.734,56.9
24.750,52.36
24.765,45.24
24.781,36.02
24.796,25.73
24.812,15.64
24.828,6.97
24.843,0.4
24.859,-4.13
24.875,-7.47
24.890,-10.8
24.906,-15.18
24.921,-21.19
24.937,-28.85
24.953,-37.73
24.968,-47.17
24.984,-56.51
25.000,-65.24
25.015,-73.14
25.031,-80.32
25.046,-87.12
25.062,-93.96
25.078,-100.96
25.093,-107.55
25.109,-112.47
25.125,-114.02
25.140,-110.74
25.156,-101.98
25.171,-88.15
25.187,-70.53
25.203,-50.76
25.218,-30.31
25.234,-10.19
25.250,8.97
25.265,26.66
25.281,42.32
25.296,55.34
25.312,65.13
25.328,71.38
25.343,74.16
25.359,73.97
25.375,71.72
25.390,68.55
25.406,65.54
25.421,63.56
25.437,62.96
25.453,63.51
25.468,64.63
25.484,65.54
25.500,65.64
25.515,64.61
25.531,62.32
25.546,58.77
25.562,53.98
25.578,48.03
25.593,41.18
25.609,33.94
25.625,27.08
25.640,21.37
25.656,17.28
25.671,14.67
25.687,12.78
25.703,10.44
25.718,6.47
25.734,0.11
25.750,-8.58
25.765,-18.83
25.781,-29.43
25.796,-39.2
25.812,-47.44
25.828,-54.1
25.843,-59.6
25.859,-64.74
25.875,-70.28
25.890,-76.83
25.906,-84.7
25.921,-93.76
25.937,-103.14
25.953,-111.27
25.968,-116.02
25.984,-115.26
26.000,-107.6
26.015,-92.99
26.031,-72.83
26.046,-49.65
26.062,-26.34
26.078,-5.29
26.093,12.05
26.109,25.3
26.125,34.82
26.140,41.32
26.156,45.59
26.171,48.28
26.187,49.91
26.203,50.85
26.218,51.47
26.234,52.21
26.250,53.48
26.265,55.59
26.281,58.51
26.296,61.8
26.312,64.68
26.328,66.29
26.343,66.11
26.359,64.22
26.375,61.21
26.390,57.89
26.406,54.81
26.421,52.0
26.437,49.03
26.453,45.32
26.468,40.5
26.484,34.56
26.500,27.8
26.515,20.56
26.531,13.06
26.546,5.33
26.562,-2.59
26.578,-10.67
26.593,-18.64
26.609,-26.06
26.625,-32.45
26.640,-37.46
26.656,-41.21
26.671,-44.42
26.687,-48.32
26.703,-54.32
26.718,-63.23
26.734,-74.63
26.750,-86.49
26.765,-95.71
26.781,-98.99
26.796,-94.18
26.812,-80.96
26.828,-61.02
26.843,-37.32
26.859,-13.09
26.875,9.05
26.890,27.5
26.906,41.59
26.921,51.36
26.937,57.17
26.953,59.61
26.968,59.46
26.984,57.62
27.000,54.98
27.015,52.32
27.031,50.06
27.046,48.2
27.062,46.35
27.078,43.84
27.093,40.02
27.109,34.53
27.125,27.51
27.140,19.6
27.156,11.85
27.171,5.3
27.187,0.75
27.203,-1.57
27.218,-1.99
27.234,-1.28
27.250,-0.45
27.265,-0.53
27.281,-2.29
27.296,-6.12
27.312,-11.89
27.328,-19.02
27.343,-26.65
27.359,-33.88
27.375,-39.99
27.390,-44.61
27.406,-47.78
27.421,-49.89
27.437,-51.69
27.453,-54.2
27.468,-58.41
27.484,-64.98
27.500,-73.73
27.515,-83.39
27.531,-91.69
27.546,-95.92
27.562,-93.9
27.578,-84.71
27.593,-69.03
27.609,-48.87
27.625,-26.85
27.640,-5.43
27.656,13.61
27.671,29.33
27.687,41.46
27.703,50.24
27.718,56.14
27.734,59.77
27.750,61.76
27.765,62.75
27.781,63.28
27.796,63.67
27.812,64.0
27.828,64.12
27.843,63.77
27.859,62.65
27.875,60.55
27.890,57.53
27.906,53.92
27.921,50.25
27.937,47.04
27.953,44.56
27.968,42.71
27.984,41.04
28.000,38.89
28.015,35.72
28.031,31.22
28.046,25.49
28.062,18.94
28.078,12.22
28.093,5.92
28.109,0.35
28.125,-4.55
28.140,-9.16
28.156,-13.95
28.171,-19.25
28.187,-25.07
28.203,-31.18
28.218,-37.31
28.234,-43.35
28.250,-49.5
28.265,-56.14
28.281,-63.61
28.296,-72.06
28.312,-81.29
28.328,-90.76
28.343,-99.55
28.359,-106.45
28.375,-109.98
28.390,-108.73
28.406,-101.83
28.421,-89.35
28.437,-72.47
28.453,-53.17
28.468,-33.58
28.484,-15.27
28.500,1.12
28.515,15.8
28.531,29.31
28.546,41.92
28.562,53.38
28.578,63.04
28.593,70.15
28.609,74.27
28.625,75.43
28.640,74.04
28.656,70.83
28.671,66.58
28.687,62.1
28.703,58.1
28.718,55.16
28.734,53.59
28.750,53.43
28.765,54.43
28.781,56.01
28.796,57.4
28.812,57.68
28.828,55.95
28.843,51.6
28.859,44.58
28.875,35.55
28.890,25.87
28.906,17.12
28.921,10.63
28.937,6.95
28.953,5.67
28.968,5.63
28.984,5.3
29.000,3.42
29.015,-0.78
29.031,-7.34
29.046,-15.78
29.062,-25.23
29.078,-34.65
29.093,-43.18
29.109,-50.21
29.125,-55.68
29.140,-60.04
29.156,-64.12
29.171,-68.8
29.187,-74.57
29.203,-81.16
29.218,-87.44
29.234,-91.71
29.250,-92.09
29.265,-87.23
29.281,-76.72
29.296,-61.26
29.312,-42.43
29.328,-22.27
29.343,-2.67
29.359,15.02
29.375,30.04
29.390,42.09
29.406,51.1
29.421,57.02
29.437,59.84
29.453,59.77
29.468,57.44
29.484,53.91
29.500,50.49
29.515,48.29
29.531,47.89
29.546,49.14
29.562,51.4
29.578,53.75
29.593,55.41
29.609,55.86
29.625,54.92
29.640,52.67
29.656,49.31
29.671,45.18
29.687,40.68
29.703,36.29
29.718,32.38
29.734,29.13
29.750,26.39
29.765,23.68
29.781,20.33
29.796,15.62
29.812,9.13
29.828,0.86
29.843,-8.65
29.859,-18.45
29.875,-27.43
29.890,-34.67
29.906,-39.77
29.921,-43.06
29.937,-45.48
29.953,-48.4
29.968,-53.1
29.984,-60.33
30.000,-69.87
30.015,-80.46
30.031,-89.96
30.046,-95.88
30.062,-96.04
30.078,-89.26
30.093,-75.73
30.109,-56.99
30.125,-35.39
30.140,-13.53
30.156,6.43
30.171,23.11
30.187,35.87
30.203,44.7
30.218,49.94
30.234,52.17
30.250,52.17
30.265,50.89
30.281,49.35
30.296,48.41
30.312,48.55
30.328,49.69
30.343,51.34
30.359,52.77
30.375,53.24
30.390,52.26
30.406,49.62
30.421,45.47
30.437,40.31
30.453,34.87
30.468,29.83
30.484,25.65
30.500,22.45
30.515,19.94
30.531,17.59
30.546,14.81
30.562,11.11
30.578,6.15
30.593,-0.21
30.609,-7.94
30.625,-16.73
30.640,-26.0
30.656,-34.91
30.671,-42.61
30.687,-48.55
30.703,-52.67
30.718,-55.54
30.734,-58.13
30.750,-61.61
30.765,-67.03
30.781,-74.96
30.796,-85.19
30.812,-96.47
30.828,-106.6
30.843,-112.87
30.859,-112.8
30.875,-105.04
30.890,-89.81
30.906,-68.96
30.921,-45.35
30.937,-21.97
30.953,-1.14
30.968,15.87
30.984,28.82
31.000,38.16
31.015,44.71
31.031,49.35
31.046,52.87
31.062,55.92
31.078,58.9
31.093,61.91
31.109,64.79
31.125,67.16
31.140,68.49
31.156,68.33
31.171,66.41
31.187,62.76
31.203,57.8
31.218,52.34
31.234,47.38
31.250,43.78
31.265,41.95
31.281,41.68
31.296,42.15
31.312,42.25
31.328,41.0
31.343,37.9
31.359,32.99
31.375,26.73
31.390,19.58
31.406,11.97
31.421,4.11
31.437,-3.87
31.453,-11.71
31.468,-19.08
31.484,-25.55
31.500,-30.85
31.515,-34.99
31.531,-38.35
31.546,-41.59
31.562,-45.53
31.578,-50.93
31.593,-58.37
31.609,-68.01
31.625,-79.55
31.640,-92.02
31.656,-103.83
31.671,-112.91
31.687,-117.12
31.703,-114.85
31.718,-105.61
31.734,-90.2
31.750,-70.62
31.765,-49.5
31.781,-29.25
31.796,-11.42
31.812,3.53
31.828,16.11
31.843,27.23
31.859,37.58
31.875,47.41
31.890,56.38
31.906,63.93
31.921,69.54
31.937,72.86
31.953,73.87
31.968,72.68
31.984,69.7
32.000,65.47
32.015,60.82
32.031,56.67
32.046,53.84
32.062,52.88
32.078,53.77
32.093,55.94
32.109,58.39
32.125,59.94
32.140,59.52
32.156,56.4
32.171,50.38
32.187,41.84
32.203,31.85
32.218,21.77
32.234,12.93
32.250,6.22
32.265,1.75
32.281,-1.15
32.296,-3.57
32.312,-6.73
32.328,-11.51
32.343,-18.19
32.359,-26.54
32.375,-35.93
32.390,-45.47
32.406,-54.33
32.421,-61.92
32.437,-68.09
32.453,-73.17
32.468,-77.87
32.484,-82.8
32.500,-88.14
32.515,-93.31
32.531,-97.06
32.546,-97.91
32.562,-94.62
32.578,-86.65
32.593,-74.3
32.609,-58.57
32.625,-40.78
32.640,-22.28
32.656,-4.11
32.671,12.97
32.687,28.31
32.703,41.38
32.718,51.61
32.734,58.51
32.750,61.79
32.765,61.63
32.781,58.76
32.796,54.38
32.812,49.87
32.828,46.35
32.843,44.42
32.859,44.13
32.875,45.1
32.890,46.81
32.906,48.68
32.921,50.19
32.937,50.7
32.953,49.63
32.968,46.52
32.984,41.36
33.000,34.71
33.015,27.57
33.031,21.08
33.046,16.04
33.062,12.68
33.078,10.53
33.093,8.72
33.109,6.25
33.125,2.31
33.140,-3.47
33.156,-11.05
33.171,-19.87
33.187,-29.1
33.203,-37.79
33.218,-45.2
33.234,-51.03
33.250,-55.59
33.265,-59.64
33.281,-64.06
33.296,-69.48
33.312,-75.81
33.328,-82.13
33.343,-86.82
33.359,-88.06
33.375,-84.36
33.390,-75.08
33.406,-60.68
33.421,-42.54
33.437,-22.61
33.453,-2.79
33.468,15.39
33.484,31.01
33.500,43.58
33.515,52.88
33.531,58.8
33.546,61.4
33.562,61.07
33.578,58.62
33.593,55.22
33.609,52.09
33.625,50.13
33.640,49.71
33.656,50.58
33.671,52.09
33.687,53.47
33.703,54.03
33.718,53.28
33.734,50.96
33.750,47.11
33.765,42.04
33.781,36.29
33.796,30.59
33.812,25.58
33.828,21.61
33.843,18.73
33.859,16.55
33.875,14.47
33.890,11.77
33.906,7.77
33.921,1.93
33.937,-5.94
33.953,-15.53
33.968,-26.06
33.984,-36.35
34.000,-45.22
34.015,-51.9
34.031,-56.37
34.046,-59.4
34.062,-62.35
34.078,-66.6
34.093,-73.14
34.109,-82.06
34.125,-92.42
34.140,-102.32
34.156,-109.29
34.171,-110.93
34.187,-105.58
34.203,-92.86
34.218,-73.88
34.234,-50.94
34.250,-26.8
34.265,-3.97
34.281,15.9
34.296,32.04
34.312,44.34
34.328,53.04
34.343,58.47
34.359,61.09
34.375,61.64
34.390,61.14
34.406,60.71
34.421,61.18
34.437,62.79
34.453,65.16
34.468,67.39
34.484,68.55
34.500,67.94
34.515,65.34
34.531,61.02
34.546,55.64
34.562,50.05
34.578,45.04
34.593,41.12
34.609,38.4
34.625,36.58
34.640,35.12
34.656,33.4
34.671,30.97
34.687,27.54
34.703,22.89
34.718,16.78
34.734,9.06
34.750,-0.22
34.765,-10.51
34.781,-20.82
34.796,-29.93
34.812,-36.85
34.828,-41.28
34.843,-43.76
34.859,-45.45
34.875,-47.75
34.890,-51.9
34.906,-58.72
34.921,-68.5
34.937,-80.79
34.953,-94.37
34.968,-107.16
34.984,-116.51
35.000,-119.8
35.015,-115.21
35.031,-102.44
35.046,-82.87
35.062,-59.26
35.078,-34.85
35.093,-12.5
35.109,6.02
35.125,20.21
35.140,30.58
35.156,38.16
35.171,44.07
35.187,49.19
35.203,53.95
35.218,58.47
35.234,62.65
35.250,66.27
35.265,69.14
35.281,70.97
35.296,71.42
35.312,70.16
35.328,67.02
35.343,62.25
35.359,56.57
35.375,51.1
35.390,46.97
35.406,44.89
35.421,44.84
35.437,46.06
35.453,47.29
35.468,47.31
35.484,45.2
35.500,40.67
35.515,33.99
35.531,25.87
35.546,17.21
35.562,8.82
35.578,1.28
35.593,-5.26
35.609,-10.99
35.625,-16.27
35.640,-21.48
35.656,-26.85
35.671,-32.54
35.687,-38.65
35.703,-45.36
35.718,-52.88
35.734,-61.38
35.750,-70.79
35.765,-80.79
35.781,-90.86
35.796,-100.33
35.812,-108.5
35.828,-114.5
35.843,-117.29
35.859,-115.84
35.875,-109.53
35.890,-98.44
35.906,-83.53
35.921,-66.39
35.937,-48.61
35.953,-31.4
35.968,-15.23
35.984,-0.05
36.000,14.32
36.015,27.76
36.031,39.82
36.046,49.8
36.062,57.08
36.078,61.39
36.093,62.85
36.109,61.9
36.125,59.23
36.140,55.68
36.156,52.06
36.171,49.09
36.187,47.28
36.203,46.73
36.218,47.23
36.234,48.31
36.250,49.36
36.265,49.9
36.281,49.5
36.296,47.89
36.312,44.92
36.328,40.76
36.343,35.94
36.359,31.35
36.375,27.9
36.390,26.07
36.406,25.65
36.421,25.62
36.437,24.69
36.453,21.72
36.468,16.19
36.484,8.29
36.500,-1.3
36.515,-11.72
36.531,-22.24
36.546,-32.28
36.562,-41.49
36.578,-49.68
36.593,-56.86
36.609,-63.15
36.625,-68.6
36.640,-72.93
36.656,-75.42
36.671,-75.18
36.687,-71.49
36.703,-64.29
36.718,-54.26
36.734,-42.47
36.750,-29.86
36.765,-16.9
36.781,-3.57
36.796,10.26
36.812,24.32
36.828,37.86
36.843,49.73
36.859,58.76
36.875,64.2
36.890,65.86
36.906,64.1
36.921,59.91
36.937,54.7
36.953,50.17
36.968,47.89
36.984,48.86
37.000,53.09
37.015,59.5
37.031,66.3
37.046,71.54
37.062,73.83
37.078,72.61
37.093,68.17
37.109,61.3
37.125,53.02
37.140,44.37
37.156,36.17
37.171,28.94
37.187,22.72
37.203,16.99
37.218,10.97
37.234,3.84
37.250,-4.83
37.265,-14.99
37.281,-26.21
37.296,-38.12
37.312,-50.55
37.328,-63.61
37.343,-77.39
37.359,-91.64
37.375,-105.55
37.390,-117.85
37.406,-127.11
37.421,-132.08
37.437,-131.96
37.453,-126.54
37.468,-116.25
37.484,-102.13
37.500,-85.57
37.515,-68.12
37.531,-51.07
37.546,-35.31
37.562,-21.3
37.578,-9.13
37.593,1.25
37.609,9.96
37.625,17.08
37.640,22.77
37.656,27.12
37.671,30.09
37.687,31.5
37.703,31.06
37.718,28.73
37.734,24.96
37.750,20.75
37.765,17.32
37.781,15.8
37.796,16.64
37.812,19.52
37.828,23.44
37.843,27.11
37.859,29.4
37.875,29.58
37.890,27.43
37.906,23.22
37.921,17.66
37.937,11.74
37.953,6.57
37.968,3.06
37.984,1.63
38.000,2.04
38.015,3.41
38.031,4.42
38.046,3.79
38.062,0.59
38.078,-5.43
38.093,-13.89
38.109,-23.89
38.125,-34.5
38.140,-44.99
38.156,-55.12
38.171,-64.94
38.187,-74.36
38.203,-82.77
38.218,-88.91
38.234,-91.17
38.250,-88.18
38.265,-79.59
38.281,-66.07
38.296,-49.17
38.312,-30.57
38.328,-11.5
38.343,7.37
38.359,25.72
38.375,43.26
38.390,59.43
38.406,73.36
38.421,84.32
38.437,91.81
38.453,95.75
38.468,96.39
38.484,94.21
38.500,89.88
38.515,84.35
38.531,78.72
38.546,74.02
38.562,70.88
38.578,69.32
38.593,68.74
38.609,68.25
38.625,66.98
38.640,64.43
38.656,60.41
38.671,54.98
38.687,48.36
38.703,40.92
38.718,33.25
38.734,26.14
38.750,20.37
38.765,16.47
38.781,14.37
38.796,13.42
38.812,12.58
38.828,10.85
38.843,7.54
38.859,2.39
38.875,-4.49
38.890,-12.67
38.906,-21.57
38.921,-30.45
38.937,-38.6
38.953,-45.58
38.968,-51.3
38.984,-55.99
39.000,-59.88
39.015,-62.78
39.031,-63.81
39.046,-61.66
39.062,-55.14
39.078,-43.73
39.093,-28.04
39.109,-9.41
39.125,10.52
39.140,30.34
39.156,48.88
39.171,64.96
39.187,77.17
39.203,84.02
39.218,84.56
39.234,79.0
39.250,68.98
39.265,57.05
39.281,45.79
39.296,36.97
39.312,31.22
39.328,28.27
39.343,27.44
39.359,28.15
39.375,29.89
39.390,32.15
39.406,34.15
39.421,34.93
39.437,33.56
39.453,29.38
39.468,22.19
39.484,12.27
39.500,0.47
39.515,-11.91
39.531,-23.18
39.546,-31.93
39.562,-37.51
39.578,-40.35
39.593,-41.87
39.609,-43.77
39.625,-47.27
39.640,-52.57
39.656,-59.02
39.671,-65.65
39.687,-71.82
39.703,-77.46
39.718,-83.0
39.734,-88.85
39.750,-95.07
39.765,-101.16
39.781,-106.12
39.796,-108.75
39.812,-107.89
39.828,-102.82
39.843,-93.52
39.859,-80.72
39.875,-65.73
39.890,-50.03
39.906,-34.62
39.921,-19.82
39.937,-5.38
39.953,9.12
39.968,23.74
39.984,37.87
40.000,50.52
40.015,60.66
40.031,67.63
40.046,71.28
40.062,71.91
40.078,70.07
40.093,66.52
40.109,62.14
40.125,57.91
40.140,54.7
40.156,53.02
40.171,52.79
40.187,53.31
40.203,53.5
40.218,52.34
40.234,49.23
40.250,44.09
40.265,37.39
40.281,29.81
40.296,22.12
40.312,14.99
40.328,8.94
40.343,4.18
40.359,0.66
40.375,-2.0
40.390,-4.42
40.406,-7.25
40.421,-11.08
40.437,-16.29
40.453,-23.05
40.468,-31.33
40.484,-40.93
40.500,-51.46
40.515,-62.39
40.531,-73.06
40.546,-82.78
40.562,-90.8
40.578,-96.23
40.593,-98.08
40.609,-95.44
40.625,-87.72
40.640,-75.15
40.656,-58.8
40.671,-40.41
40.687,-21.83
40.703,-4.32
40.718,11.71
40.734,26.67
40.750,41.11
40.765,55.27
40.781,68.75
40.796,80.64
40.812,89.88
40.828,95.73
40.843,97.98
40.859,96.91
40.875,93.26
40.890,87.91
40.906,81.89
40.921,76.09
40.937,71.24
40.953,67.71
40.968,65.4
40.984,63.79
41.000,61.96
41.015,58.97
41.031,53.99
41.046,46.63
41.062,37.04
41.078,25.98
41.093,14.66
41.109,4.34
41.125,-4.05
41.140,-10.36
41.156,-15.28
41.171,-20.15
41.187,-26.53
41.203,-35.46
41.218,-46.98
41.234,-60.06
41.250,-72.92
41.265,-83.62
41.281,-90.87
41.296,-94.36
41.312,-94.92
41.328,-94.21
41.343,-94.06
41.359,-95.83
41.375,-99.81
41.390,-105.0
41.406,-109.45
41.421,-110.87
41.437,-107.41
41.453,-98.28
41.468,-83.86
41.484,-65.41
41.500,-44.42
41.515,-22.2
41.531,0.35
41.546,22.63
41.562,43.92
41.578,63.23
41.593,79.32
41.609,90.97
41.625,97.39
41.640,98.43
41.656,94.75
41.671,87.76
41.687,79.35
41.703,71.55
41.718,65.99
41.734,63.53
41.750,64.02
41.765,66.46
41.781,69.4
41.796,71.41
41.812,71.36
41.828,68.61
41.843,62.86
41.859,54.36
41.875,43.75
41.890,32.14
41.906,20.9
41.921,11.25
41.937,3.92
41.953,-1.22
41.968,-5.14
41.984,-9.37
42.000,-15.52
42.015,-24.81
42.031,-37.72
42.046,-53.83
42.062,-71.96
42.078,-90.49
42.093,-107.71
42.109,-122.34
42.125,-133.81
42.140,-142.29
42.156,-148.35
42.171,-152.54
42.187,-154.94
42.203,-155.14
42.218,-152.39
42.234,-145.96
42.250,-135.45
42.265,-120.92
42.281,-102.85
42.296,-82.05
42.312,-59.45
42.328,-36.07
42.343,-12.94
42.359,8.99
42.375,28.87
42.390,45.98
42.406,59.7
42.421,69.51
42.437,75.14
42.453,76.74
42.468,75.09
42.484,71.54
42.500,67.77
42.515,65.2
42.531,64.55
42.546,65.69
42.562,67.69
42.578,69.36
42.593,69.68
42.609,68.07
42.625,64.4
42.640,58.94
42.656,52.22
42.671,44.9
42.687,37.69
42.703,31.08
42.718,25.24
42.734,20.02
42.750,15.03
42.765,9.94
42.781,4.61
42.796,-0.96
42.812,-6.79
42.828,-13.05
42.843,-19.95
42.859,-27.42
42.875,-35.11
42.890,-42.43
42.906,-48.76
42.921,-54.02
42.937,-58.34
42.953,-61.82
42.968,-64.05
42.984,-63.91
43.000,-59.93
43.015,-50.83
43.031,-36.19
43.046,-16.55
43.062,6.72
43.078,31.83
43.093,56.95
43.109,80.29
43.125,100.14
43.140,114.88
43.156,123.34
43.171,125.07
43.187,120.68
43.203,111.66
43.218,100.04
43.234,87.88
43.250,76.81
43.265,67.94
43.281,61.79
43.296,58.23
43.312,56.61
43.328,55.81
43.343,54.57
43.359,51.83
43.375,47.02
43.390,40.1
43.406,31.71
43.421,22.76
43.437,14.28
43.453,7.26
43.468,2.44
43.484,0.24
43.500,0.56
43.515,2.69
43.531,5.33
43.546,6.95
43.562,6.18
43.578,2.1
43.593,-5.4
43.609,-15.83
43.625,-28.22
43.640,-41.44
43.656,-54.19
43.671,-65.19
43.687,-73.3
43.703,-77.67
43.718,-77.83
43.734,-73.78
43.750,-65.93
43.765,-54.89
43.781,-41.43
43.796,-26.44
43.812,-11.01
43.828,3.62
43.843,16.23
43.859,25.96
43.875,32.63
43.890,36.83
43.906,39.68
43.921,42.3
43.937,45.22
43.953,48.08
43.968,49.7
43.984,48.59
44.000,43.78
44.015,35.17
44.031,23.79
44.046,11.39
44.062,-0.14
44.078,-9.46
44.093,-16.03
44.109,-20.19
44.125,-22.79
44.140,-24.77
44.156,-26.74
44.171,-28.75
44.187,-30.4
44.203,-31.14
44.218,-30.47
44.234,-28.14
44.250,-24.18
44.265,-18.8
44.281,-12.26
44.296,-4.79
44.312,3.35
44.328,11.85
44.343,20.26
44.359,27.94
44.375,34.21
44.390,38.54
44.406,40.71
44.421,41.05
44.437,40.23
44.453,39.15
44.468,38.54
44.484,38.64
44.500,39.11
44.515,39.15
44.531,37.89
44.546,34.78
44.562,29.85
44.578,23.63
44.593,17.01
44.609,10.98
44.625,6.4
44.640,3.83
44.656,3.36
44.671,4.67
44.687,7.01
44.703,9.36
44.718,10.84
44.734,10.86
44.750,9.26
44.765,6.28
44.781,2.33
44.796,-2.15
44.812,-6.66
44.828,-10.75
44.843,-13.89
44.859,-15.58
44.875,-15.63
44.890,-14.31
44.906,-12.39
44.921,-10.89
44.937,-10.76
44.953,-12.46
44.968,-16.05
44.984,-21.18
45.000,-27.4
45.015,-34.39
45.031,-41.95
45.046,-49.84
45.062,-57.69
45.078,-65.02
45.093,-71.29
45.109,-76.24
45.125,-79.96
45.140,-83.02
45.156,-86.49
45.171,-91.59
45.187,-99.38
45.203,-110.18
45.218,-123.15
45.234,-136.1
45.250,-145.9
45.265,-149.28
45.281,-143.89
45.296,-129.16
45.312,-106.54
45.328,-79.0
45.343,-50.16
45.359,-23.2
45.375,-0.21
45.390,17.98
45.406,31.47
45.421,40.87
45.437,46.72
45.453,49.43
45.468,49.23
45.484,46.32
45.500,41.09
45.515,34.15
45.531,26.13
45.546,17.61
45.562,9.04
45.578,0.75
45.593,-6.9
45.609,-13.48
45.625,-18.5
45.640,-21.5
45.656,-22.31
45.671,-21.21
45.687,-18.94
45.703,-16.61
45.718,-15.39
45.734,-16.25
45.750,-19.55
45.765,-24.84
45.781,-30.88
45.796,-36.02
45.812,-38.7
45.828,-38.09
45.843,-34.53
45.859,-29.49
45.875,-25.11
45.890,-23.42
45.906,-25.62
45.921,-31.71
45.937,-40.54
45.953,-50.19
45.968,-58.42
45.984,-63.18
46.000,-62.86
46.015,-56.55
46.031,-44.16
46.046,-26.57
46.062,-5.59
46.078,16.34
46.093,36.72
46.109,53.68
46.125,66.3
46.140,74.63
46.156,79.22
46.171,80.72
46.187,79.6
46.203,76.26
46.218,71.27
46.234,65.5
46.250,60.0
46.265,55.68
46.281,52.99
46.296,51.73
46.312,51.36
46.328,51.22
46.343,50.91
46.359,50.33
46.375,49.56
46.390,48.55
46.406,46.89
46.421,43.89
46.437,38.86
46.453,31.4
46.468,21.66
46.484,10.34
46.500,-1.66
46.515,-13.58
46.531,-25.15
46.546,-36.67
46.562,-48.79
46.578,-62.01
46.593,-76.39
46.609,-91.27
46.625,-105.34
46.640,-116.82
46.656,-123.98
46.671,-125.45
46.687,-120.65
46.703,-109.97
46.718,-94.7
46.734,-76.72
46.750,-57.92
46.765,-39.73
46.781,-22.71
46.796,-6.79
46.812,8.5
46.828,23.44
46.843,37.81
46.859,50.91
46.875,61.75
46.890,69.56
46.906,73.98
46.921,75.16
46.937,73.58
46.953,69.93
46.968,64.96
46.984,59.46
47.000,54.25
47.015,50.09
47.031,47.51
47.046,46.62
47.062,46.93
47.078,47.48
47.093,47.04
47.109,44.39
47.125,38.68
47.140,29.7
47.156,18.02
47.171,4.85
47.187,-8.18
47.203,-19.59
47.218,-28.5
47.234,-34.94
47.250,-39.86
47.265,-44.8
47.281,-51.39
47.296,-60.76
47.312,-73.1
47.328,-87.36
47.343,-101.39
47.359,-112.22
47.375,-116.87
47.390,-113.16
47.406,-100.42
47.421,-79.71
47.437,-53.56
47.453,-25.02
47.468,3.14
47.484,29.08
47.500,51.9
47.515,71.31
47.531,87.18
47.546,99.31
47.562,107.59
47.578,112.23
47.593,114.03
47.609,114.2
47.625,114.01
47.640,114.28
47.656,115.18
47.671,116.27
47.687,116.87
47.703,116.33
47.718,114.37
47.734,111.07
47.750,106.9
47.765,102.48
47.781,98.44
47.796,95.22
47.812,92.97
47.828,91.52
47.843,90.46
47.859,89.33
47.875,87.7
47.890,85.35
47.906,82.14
47.921,78.03
47.937,72.95
47.953,66.93
47.968,60.17
47.984,53.15
48.000,46.57
48.015,41.15
48.031,37.33
48.046,35.1
48.062,33.97
48.078,33.14
48.093,31.76
48.109,29.19
48.125,25.2
48.140,20.05
48.156,14.33
48.171,8.85
48.187,4.39
48.203,1.46
48.218,0.21
48.234,0.31
48.250,1.07
48.265,1.6
48.281,1.08
48.296,-1.12
48.312,-5.16
48.328,-10.8
48.343,-17.4
48.359,-24.17
48.375,-30.47
48.390,-35.91
48.406,-40.48
48.421,-44.4
48.437,-47.91
48.453,-51.21
48.468,-54.35
48.484,-57.37
48.500,-60.38
48.515,-63.6
48.531,-67.15
48.546,-71.11
48.562,-75.56
48.578,-80.44
48.593,-85.66
48.609,-90.84
48.625,-95.53
48.640,-99.38
48.656,-102.35
48.671,-104.81
48.687,-107.67
48.703,-112.3
48.718,-119.98
48.734,-131.31
48.750,-145.37
48.765,-159.69
48.781,-170.6
48.796,-174.2
48.812,-167.34
48.828,-148.97
48.843,-120.9
48.859,-87.33
48.875,-53.68
48.890,-24.37
48.906,-1.83
48.921,13.86
48.937,24.47
48.953,33.05
48.968,41.76
48.984,50.72
49.000,58.1
49.015,61.14
49.031,58.88
49.046,52.1
49.062,42.75
49.078,33.13
49.093,26.22
49.109,23.14
49.125,22.48
49.140,20.99
49.156,14.71
49.171,2.8
49.187,-14.2
49.203,-35.47
49.218,-59.51
49.234,-81.7
49.250,-96.53
49.265,-99.85
49.281,-90.59
49.296,-72.39
49.312,-49.03
49.328,-25.77
49.343,-7.65
49.359,3.7
49.375,14.0
49.390,31.68
49.406,62.57
49.421,106.48
49.437,156.05
49.453,204.91
49.468,247.08
49.484,278.48
49.500,278.59
49.515,236.23
49.531,158.14
49.546,65.72
49.562,-8.7
49.578,-66.16
49.593,-112.23
49.609,-150.58
49.625,-184.35
49.640,-211.81
49.656,-227.35
49.671,-226.53
49.687,-209.28
49.703,-180.34
49.718,-148.36
49.734,-117.79
49.750,-91.09
49.765,-69.21
49.781,-51.37
49.796,-33.63
49.812,-12.11
49.828,14.92
49.843,46.82
49.859,80.87
49.875,117.42
49.890,156.4
49.906,195.1
49.921,227.96
49.937,248.72
49.953,251.99
49.968,235.53
49.984,202.28
50.000,159.75
50.015,119.9
50.031,93.05
50.046,83.75
50.062,90.34
50.078,107.32
50.093,127.8
50.109,145.46
50.125,155.41
50.140,153.61
50.156,137.69
50.171,106.37
50.187,60.09
50.203,1.94
50.218,-62.32
50.234,-125.82
50.250,-182.64
50.265,-229.34
50.281,-265.16
50.296,-290.63
50.312,-306.64
50.328,-313.7
50.343,-311.82
50.359,-300.94
50.375,-281.42
50.390,-254.4
50.406,-221.83
50.421,-186.22
50.437,-150.31
50.453,-116.51
50.468,-86.59
50.484,-61.21
50.500,-39.86
50.515,-21.37
50.531,-4.77
50.546,9.46
50.562,18.74
50.578,18.45
50.593,3.31
50.609,-30.35
50.625,-82.08
50.640,-145.99
50.656,-211.55
50.671,-266.45
50.687,-300.67
50.703,-309.89
50.718,-296.78
50.734,-269.3
50.750,-237.14
50.765,-207.83
50.781,-184.49
50.796,-165.92
50.812,-148.65
50.828,-129.43
50.843,-106.84
50.859,-81.29
50.875,-53.98
50.890,-25.78
50.906,3.24
50.921,33.22
50.937,63.57
50.953,92.44
50.968,116.95
50.984,134.59
51.000,144.53
51.015,148.39
51.031,149.72
51.046,152.55
51.062,159.81
51.078,172.2
51.093,188.34
51.109,205.57
51.125,221.35
51.140,234.19
51.156,244.04
51.171,251.95
51.187,259.14
51.203,266.26
51.218,272.86
51.234,277.57
51.250,278.92
51.265,276.19
51.281,269.92
51.296,261.63
51.312,252.98
51.328,244.79
51.343,236.7
51.359,227.52
51.375,215.96
51.390,201.28
51.406,183.29
51.421,162.04
51.437,137.51
51.453,109.86
51.468,80.12
51.484,50.84
51.500,25.86
51.515,8.99
51.531,2.45
51.546,5.68
51.562,15.71
51.578,28.76
51.593,41.9
51.609,54.1
51.625,65.94
51.640,78.3
51.656,91.07
51.671,102.69
51.687,110.75
51.703,113.0
51.718,108.33
51.734,96.89
51.750,79.79
51.765,58.56
51.781,34.79
51.796,10.1
51.812,-13.82
51.828,-35.33
51.843,-53.14
51.859,-66.34
51.875,-74.45
51.890,-77.2
51.906,-74.39
51.921,-66.11
51.937,-53.11
51.953,-36.98
51.968,-19.97
51.984,-4.34
52.000,8.63
52.015,19.01
52.031,28.19
52.046,37.99
52.062,49.61
52.078,63.02
52.093,76.89
52.109,89.39
52.125,99.05
52.140,105.54
52.156,109.78
52.171,113.52
52.187,118.79
52.203,127.24
52.218,139.63
52.234,155.47
52.250,172.6
52.265,187.3
52.281,194.93
52.296,191.2
52.312,173.55
52.328,142.11
52.343,99.71
52.359,50.83
52.375,-0.05
52.390,-49.84
52.406,-97.51
52.421,-143.91
52.437,-190.94
52.453,-240.46
52.468,-293.0
52.484,-346.85
52.500,-397.8
52.515,-439.91
52.531,-467.43
52.546,-476.93
52.562,-469.04
52.578,-448.47
52.593,-422.31
52.609,-397.38
52.625,-378.08
52.640,-365.69
52.656,-359.19
52.671,-356.77
52.687,-356.95
52.703,-358.73
52.718,-360.94
52.734,-361.64
52.750,-358.28
52.765,-348.39
52.781,-330.74
52.796,-305.74
52.812,-275.3
52.828,-242.24
52.843,-209.18
52.859,-177.8
52.875,-148.55
52.890,-120.67
52.906,-92.77
52.921,-63.42
52.937,-31.68
52.953,2.57
52.968,38.73
52.984,75.77
53.000,112.6
53.015,148.28
53.031,182.02
53.046,213.07
53.062,240.5
53.078,263.36
53.093,280.75
53.109,292.12
53.125,297.43
53.140,297.23
53.156,292.61
53.171,285.03
53.187,276.09
53.203,267.22
53.218,259.52
53.234,253.55
53.250,249.28
53.265,246.23
53.281,243.63
53.296,240.68
53.312,236.64
53.328,230.97
53.343,223.26
53.359,213.3
53.375,200.97
53.390,186.28
53.406,169.41
53.421,150.63
53.437,130.36
53.453,108.93
53.468,86.72
53.484,64.07
53.500,41.55
53.515,20.11
53.531,1.13
53.546,-13.68
53.562,-22.76
53.578,-25.16
53.593,-20.96
53.609,-11.3
53.625,1.89
53.640,16.42
53.656,30.3
53.671,41.97
53.687,50.47
53.703,55.28
53.718,56.3
53.734,53.84
53.750,48.51
53.765,41.05
53.781,32.01
53.796,21.58
53.812,9.46
53.828,-4.75
53.843,-21.28
53.859,-39.85
53.875,-59.69
53.890,-79.74
53.906,-98.77
53.921,-115.58
53.937,-129.22
53.953,-139.05
53.968,-145.11
53.984,-148.1
54.000,-149.23
54.015,-149.68
54.031,-150.18
54.046,-150.79
54.062,-151.17
54.078,-151.19
54.093,-151.34
54.109,-152.85
54.125,-157.13
54.140,-165.1
54.156,-176.54
54.171,-190.01
54.187,-203.1
54.203,-213.04
54.218,-217.19
54.234,-213.57
54.250,-201.21
54.265,-180.38
54.281,-152.58
54.296,-120.25
54.312,-86.18
54.328,-52.78
54.343,-21.56
54.359,7.26
54.375,34.63
54.390,62.23
54.406,91.9
54.421,125.04
54.437,162.17
54.453,202.77
54.468,245.16
54.484,286.59
54.500,323.39
54.515,351.47
54.531,366.95
54.546,367.21
54.562,351.83
54.578,323.14
54.593,285.85
54.609,246.09
54.625,209.99
54.640,182.39
54.656,166.16
54.671,161.94
54.687,168.29
54.703,181.81
54.718,197.45
54.734,209.21
54.750,211.23
54.765,199.18
54.781,171.56
54.796,130.1
54.812,79.23
54.828,24.8
54.843,-27.47
54.859,-72.94
54.875,-108.48
54.890,-132.27
54.906,-143.63
54.921,-142.97
54.937,-132.0
54.953,-113.82
54.968,-92.55
54.984,-72.54
55.000,-57.13
55.015,-47.81
55.031,-43.95
55.046,-43.34
55.062,-43.37
55.078,-42.13
55.093,-39.11
55.109,-35.1
55.125,-31.59
55.140,-29.81
55.156,-30.2
55.171,-32.33
55.187,-35.28
55.203,-38.2
55.218,-40.78
55.234,-43.25
55.250,-46.24
55.265,-50.29
55.281,-55.5
55.296,-61.46
55.312,-67.43
55.328,-72.73
55.343,-76.99
55.359,-80.35
55.375,-83.31
55.390,-86.46
55.406,-90.24
55.421,-94.74
55.437,-99.82
55.453,-105.33
55.468,-111.2
55.484,-117.42
55.500,-123.73
55.515,-129.25
55.531,-132.42
55.546,-131.31
55.562,-124.23
55.578,-110.51
55.593,-90.8
55.609,-66.93
55.625,-41.17
55.640,-15.54
55.656,8.86
55.671,31.76
55.687,53.3
55.703,73.44
55.718,91.57
55.734,106.71
55.750,117.91
55.765,124.69
55.781,127.36
55.796,126.88
55.812,124.47
55.828,121.1
55.843,117.19
55.859,112.59
55.875,106.83
55.890,99.3
55.906,89.46
55.921,76.93
55.937,61.54
55.953,43.38
55.968,22.87
55.984,0.76
56.000,-21.86
56.015,-43.78
56.031,-63.9
56.046,-81.52
56.062,-96.54
56.078,-109.35
56.093,-120.68
56.109,-131.05
56.125,-140.22
56.140,-147.03
56.156,-149.42
56.171,-145.15
56.187,-132.54
56.203,-111.33
56.218,-82.86
56.234,-49.84
56.250,-15.54
56.265,16.91
56.281,45.23
56.296,68.09
56.312,85.01
56.328,96.08
56.343,101.72
56.359,102.53
56.375,99.33
56.390,93.07
56.406,84.78
56.421,75.4
56.437,65.65
56.453,55.99
56.468,46.72
56.484,37.98
56.500,29.92
56.515,22.81
56.531,17.05
56.546,13.05
56.562,11.05
56.578,10.97
56.593,12.17
56.609,13.52
56.625,13.56
56.640,10.79
56.656,4.1
56.671,-7.0
56.687,-22.33
56.703,-41.08
56.718,-61.94
56.734,-83.29
56.750,-103.31
56.765,-120.16
56.781,-132.07
56.796,-137.56
56.812,-135.66
56.828,-126.19
56.843,-109.9
56.859,-88.41
56.875,-63.93
56.890,-38.77
56.906,-14.96
56.921,6.16
56.937,23.94
56.953,38.35
56.968,49.69
56.984,58.34
57.000,64.64
57.015,68.77
57.031,70.85
57.046,70.93
57.062,68.97
57.078,65.0
57.093,59.14
57.109,51.67
57.125,43.2
57.140,34.52
57.156,26.51
57.171,19.93
57.187,15.32
57.203,12.78
57.218,12.04
57.234,12.39
57.250,12.96
57.265,12.91
57.281,11.74
57.296,9.39
57.312,6.29
57.328,3.12
57.343,0.47
57.359,-1.43
57.375,-2.87
57.390,-4.54
57.406,-7.31
57.421,-11.78
57.437,-18.13
57.453,-25.9
57.468,-34.02
57.484,-41.07
57.500,-45.56
57.515,-46.28
57.531,-42.59
57.546,-34.55
57.562,-22.93
57.578,-8.95
57.593,5.92
57.609,20.24
57.625,32.72
57.640,42.41
57.656,48.69
57.671,51.26
57.687,50.16
57.703,45.7
57.718,38.44
57.734,29.16
57.750,18.68
57.765,7.78
57.781,-2.96
57.796,-13.22
57.812,-22.96
57.828,-32.3
57.843,-41.52
57.859,-50.8
57.875,-60.05
57.890,-68.93
57.906,-76.79
57.921,-82.9
57.937,-86.65
57.953,-87.82
57.968,-86.65
57.984,-83.79
58.000,-80.12
58.015,-76.47
58.031,-73.5
58.046,-71.66
58.062,-71.21
58.078,-72.18
58.093,-74.33
58.109,-76.95
58.125,-78.81
58.140,-78.34
58.156,-74.01
58.171,-64.89
58.187,-50.98
58.203,-33.34
58.218,-13.78
58.234,5.53
58.250,22.75
58.265,36.68
58.281,46.99
58.296,53.97
58.312,58.19
58.328,60.16
58.343,60.15
58.359,58.26
58.375,54.69
58.390,49.98
58.406,45.03
58.421,40.87
58.437,38.3
58.453,37.59
58.468,38.4
58.484,40.05
58.500,41.82
58.515,43.39
58.531,44.83
58.546,46.47
58.562,48.54
58.578,51.0
58.593,53.41
58.609,55.15
58.625,55.72
58.640,54.99
58.656,53.25
58.671,51.02
58.687,48.71
58.703,46.3
58.718,43.31
58.734,38.87
58.750,32.17
58.765,22.81
58.781,11.02
58.796,-2.21
58.812,-15.32
58.828,-26.39
58.843,-33.51
58.859,-35.09
58.875,-30.33
58.890,-19.44
58.906,-3.8
58.921,14.33
58.937,32.37
58.953,48.12
58.968,60.24
58.984,68.35
59.000,72.84
59.015,74.28
59.031,73.21
59.046,69.96
59.062,64.84
59.078,58.39
59.093,51.41
59.109,44.84
59.125,39.47
59.140,35.64
59.156,33.22
59.171,31.76
59.187,30.79
59.203,30.02
59.218,29.43
59.234,29.1
59.250,29.05
59.265,29.17
59.281,29.01
59.296,28.04
59.312,25.75
59.328,21.88
59.343,16.53
59.359,10.22
59.375,3.63
59.390,-2.55
59.406,-7.9
59.421,-12.48
59.437,-16.72
59.453,-21.28
59.468,-26.71
59.484,-33.21
59.500,-40.38
59.515,-47.42
59.531,-53.21
59.546,-56.68
59.562,-56.98
59.578,-53.66
59.593,-46.69
59.609,-36.42
59.625,-23.58
59.640,-8.98
59.656,6.45
59.671,21.97
59.687,37.03
59.703,51.2
59.718,64.04
59.734,74.92
59.750,82.98
59.765,87.28
59.781,87.24
59.796,82.95
59.812,75.43
59.828,66.42
59.843,57.89
59.859,51.41
59.875,47.78
59.890,46.91
59.906,48.14
59.921,50.68
59.937,53.8
59.953,56.99
59.968,59.68
59.984,61.11
