timestamp,value
00.000,164.7
00.015,163.52
00.031,161.31
00.046,158.26
00.062,154.46
00.078,149.99
00.093,144.99
00.109,139.67
00.125,134.27
00.140,129.08
00.156,124.36
00.171,120.21
00.187,116.41
00.203,112.41
00.218,107.48
00.234,101.19
00.250,93.63
00.265,85.38
00.281,76.94
00.296,68.04
00.312,57.31
00.328,42.59
00.343,21.95
00.359,-5.06
00.375,-36.59
00.390,-68.74
00.406,-96.8
00.421,-116.87
00.437,-127.19
00.453,-128.61
00.468,-123.96
00.484,-116.86
00.500,-110.48
00.515,-106.77
00.531,-106.14
00.546,-107.83
00.562,-110.41
00.578,-112.41
00.593,-112.87
00.609,-111.59
00.625,-109.25
00.640,-107.12
00.656,-106.63
00.671,-108.84
00.687,-114.05
00.703,-121.64
00.718,-130.3
00.734,-138.49
00.750,-144.88
00.765,-148.66
00.781,-149.53
00.796,-147.58
00.812,-143.22
00.828,-137.02
00.843,-129.74
00.859,-122.28
00.875,-115.37
00.890,-109.4
00.906,-104.25
00.921,-99.44
00.937,-94.47
00.953,-89.27
00.968,-84.51
00.984,-81.47
01.000,-81.58
01.015,-85.67
01.031,-93.27
01.046,-102.47
01.062,-110.26
01.078,-113.47
01.093,-109.78
01.109,-98.47
01.125,-80.6
01.140,-58.55
01.156,-35.24
01.171,-13.28
01.187,5.54
01.203,20.36
01.218,31.09
01.234,38.07
01.250,41.96
01.265,43.66
01.281,44.25
01.296,44.93
01.312,46.69
01.328,50.13
01.343,55.19
01.359,61.26
01.375,67.42
01.390,72.81
01.406,76.89
01.421,79.5
01.437,80.7
01.453,80.5
01.468,78.73
01.484,75.06
01.500,69.22
01.515,61.32
01.531,52.01
01.546,42.43
01.562,33.92
01.578,27.48
01.593,23.45
01.609,21.34
01.625,19.99
01.640,18.04
01.656,14.36
01.671,8.43
01.687,0.45
01.703,-8.71
01.718,-17.57
01.734,-24.24
01.750,-26.58
01.765,-22.47
01.781,-10.39
01.796,10.22
01.812,38.51
01.828,72.39
01.843,108.86
01.859,144.7
01.875,177.07
01.890,203.87
01.906,223.99
01.921,237.18
01.937,244.03
01.953,245.82
01.968,244.49
01.984,242.36
02.000,241.76
02.015,244.33
02.031,250.18
02.046,257.41
02.062,262.34
02.078,260.57
02.093,248.74
02.109,226.11
02.125,195.33
02.140,161.88
02.156,132.21
02.171,111.39
02.187,101.31
02.203,100.19
02.218,103.68
02.234,106.73
02.250,105.48
02.265,98.2
02.281,85.14
02.296,67.42
02.312,45.8
02.328,19.97
02.343,-11.0
02.359,-47.63
02.375,-88.88
02.390,-131.66
02.406,-171.41
02.421,-203.31
02.437,-223.58
02.453,-230.42
02.468,-224.38
02.484,-208.15
02.500,-185.94
02.515,-162.31
02.531,-141.15
02.546,-124.51
02.562,-112.19
02.578,-101.9
02.593,-90.2
02.609,-73.91
02.625,-51.39
02.640,-23.21
02.656,8.06
02.671,38.72
02.687,65.03
02.703,84.14
02.718,94.79
02.734,97.49
02.750,94.16
02.765,87.28
02.781,78.73
02.796,69.11
02.812,57.71
02.828,43.24
02.843,24.99
02.859,3.53
02.875,-19.23
02.890,-40.79
02.906,-58.99
02.921,-72.78
02.937,-82.41
02.953,-88.9
02.968,-93.39
02.984,-96.57
03.000,-98.56
03.015,-99.3
03.031,-99.11
03.046,-99.03
03.062,-100.92
03.078,-106.98
03.093,-118.89
03.109,-137.0
03.125,-159.89
03.140,-184.6
03.156,-207.47
03.171,-225.22
03.187,-235.68
03.203,-238.02
03.218,-232.47
03.234,-219.77
03.250,-200.87
03.265,-176.9
03.281,-149.45
03.296,-120.68
03.312,-93.17
03.328,-69.18
03.343,-50.0
03.359,-35.35
03.375,-23.41
03.390,-11.54
03.406,2.82
03.421,21.15
03.437,43.45
03.453,68.28
03.468,93.5
03.484,116.89
03.500,136.66
03.515,151.83
03.531,162.11
03.546,168.02
03.562,170.7
03.578,171.52
03.593,171.46
03.609,170.45
03.625,167.04
03.640,158.98
03.656,144.31
03.671,122.69
03.687,95.99
03.703,67.71
03.718,41.56
03.734,19.77
03.750,2.37
03.765,-12.42
03.781,-26.84
03.796,-42.25
03.812,-58.38
03.828,-73.64
03.843,-85.9
03.859,-93.34
03.875,-94.86
03.890,-90.16
03.906,-79.52
03.921,-63.56
03.937,-42.98
03.953,-18.64
03.968,8.28
03.984,36.12
04.000,62.7
04.015,85.4
04.031,101.56
04.046,108.94
04.062,106.25
04.078,93.53
04.093,72.18
04.109,44.75
04.125,14.35
04.140,-16.06
04.156,-44.17
04.171,-68.62
04.187,-88.81
04.203,-104.41
04.218,-114.87
04.234,-119.42
04.250,-117.43
04.265,-109.12
04.281,-95.84
04.296,-79.79
04.312,-63.35
04.328,-48.36
04.343,-35.98
04.359,-27.16
04.375,-22.96
04.390,-24.58
04.406,-32.69
04.421,-46.72
04.437,-64.55
04.453,-83.04
04.468,-99.31
04.484,-111.82
04.500,-120.85
04.515,-128.07
04.531,-135.49
04.546,-144.44
04.562,-154.8
04.578,-164.83
04.593,-171.4
04.609,-170.73
04.625,-159.44
04.640,-135.63
04.656,-99.67
04.671,-54.36
04.687,-4.22
04.703,45.63
04.718,90.68
04.734,127.95
04.750,156.4
04.765,176.61
04.781,190.22
04.796,199.12
04.812,204.7
04.828,207.58
04.843,207.59
04.859,204.3
04.875,197.49
04.890,187.46
04.906,174.84
04.921,160.07
04.937,142.94
04.953,122.74
04.968,98.87
04.984,71.62
05.000,42.69
05.015,15.06
05.031,-7.75
05.046,-22.77
05.062,-28.35
05.078,-24.51
05.093,-12.84
05.109,4.0
05.125,22.82
05.140,40.46
05.156,54.05
05.171,61.22
05.187,60.14
05.203,49.6
05.218,29.16
05.234,-0.64
05.250,-38.04
05.265,-80.2
05.281,-123.63
05.296,-164.88
05.312,-201.12
05.328,-230.31
05.343,-250.99
05.359,-261.86
05.375,-261.77
05.390,-250.08
05.406,-227.32
05.421,-195.63
05.437,-158.7
05.453,-120.95
05.468,-86.29
05.484,-57.19
05.500,-34.32
05.515,-16.96
05.531,-3.92
05.546,5.67
05.562,11.97
05.578,14.67
05.593,13.61
05.609,9.4
05.625,3.53
05.640,-1.85
05.656,-4.73
05.671,-3.79
05.687,1.1
05.703,9.13
05.718,18.91
05.734,29.13
05.750,38.88
05.765,47.64
05.781,55.0
05.796,60.33
05.812,62.68
05.828,61.08
05.843,54.99
05.859,44.79
05.875,31.78
05.890,17.87
05.906,4.89
05.921,-6.01
05.937,-14.69
05.953,-21.92
05.968,-28.99
05.984,-37.23
06.000,-47.64
06.015,-60.56
06.031,-75.61
06.046,-91.47
06.062,-106.03
06.078,-116.63
06.093,-120.78
06.109,-116.75
06.125,-104.31
06.140,-84.78
06.156,-60.63
06.171,-34.73
06.187,-9.59
06.203,13.06
06.218,32.33
06.234,47.84
06.250,59.44
06.265,67.09
06.281,71.02
06.296,71.86
06.312,70.75
06.328,69.15
06.343,68.47
06.359,69.63
06.375,72.83
06.390,77.53
06.406,82.66
06.421,86.96
06.437,89.33
06.453,89.01
06.468,85.64
06.484,79.13
06.500,69.56
06.515,57.08
06.531,41.89
06.546,24.42
06.562,5.42
06.578,-13.98
06.593,-32.35
06.609,-48.33
06.625,-60.97
06.640,-70.12
06.656,-76.45
06.671,-81.32
06.687,-86.3
06.703,-92.78
06.718,-101.56
06.734,-112.66
06.750,-125.27
06.765,-137.8
06.781,-148.22
06.796,-154.49
06.812,-155.0
06.828,-149.09
06.843,-137.19
06.859,-120.62
06.875,-101.18
06.890,-80.51
06.906,-59.77
06.921,-39.59
06.937,-20.3
06.953,-2.24
06.968,14.03
06.984,27.86
07.000,38.78
07.015,46.71
07.031,52.14
07.046,55.89
07.062,58.88
07.078,61.8
07.093,64.99
07.109,68.45
07.125,72.08
07.140,75.77
07.156,79.59
07.171,83.6
07.187,87.74
07.203,91.65
07.218,94.63
07.234,95.78
07.250,94.23
07.265,89.44
07.281,81.46
07.296,70.9
07.312,58.84
07.328,46.44
07.343,34.66
07.359,23.88
07.375,13.77
07.390,3.45
07.406,-8.17
07.421,-21.88
07.437,-37.62
07.453,-54.14
07.468,-69.17
07.484,-79.89
07.500,-83.74
07.515,-79.23
07.531,-66.38
07.546,-46.71
07.562,-22.76
07.578,2.64
07.593,26.95
07.609,48.37
07.625,65.8
07.640,78.75
07.656,87.11
07.671,91.23
07.687,91.78
07.703,89.92
07.718,87.07
07.734,84.67
07.750,83.8
07.765,84.86
07.781,87.52
07.796,90.87
07.812,93.85
07.828,95.58
07.843,95.72
07.859,94.42
07.875,92.15
07.890,89.35
07.906,86.12
07.921,82.22
07.937,77.14
07.953,70.46
07.968,61.95
07.984,51.79
08.000,40.41
08.015,28.27
08.031,15.65
08.046,2.56
08.062,-11.28
08.078,-26.26
08.093,-42.7
08.109,-60.54
08.125,-79.16
08.140,-97.12
08.156,-112.3
08.171,-122.22
08.187,-124.66
08.203,-118.45
08.218,-103.92
08.234,-82.87
08.250,-58.01
08.265,-32.18
08.281,-7.55
08.296,14.71
08.312,34.28
08.328,51.25
08.343,65.65
08.359,77.26
08.375,85.76
08.390,91.05
08.406,93.46
08.421,93.75
08.437,92.88
08.453,91.74
08.468,90.85
08.484,90.36
08.500,90.2
08.515,90.29
08.531,90.68
08.546,91.59
08.562,93.18
08.578,95.46
08.593,98.07
08.609,100.37
08.625,101.63
08.640,101.2
08.656,98.83
08.671,94.67
08.687,89.22
08.703,83.1
08.718,76.86
08.734,70.86
08.750,65.2
08.765,59.9
08.781,54.93
08.796,50.41
08.812,46.47
08.828,43.18
08.843,40.41
08.859,37.81
08.875,34.93
08.890,31.43
08.906,27.22
08.921,22.5
08.937,17.66
08.953,13.1
08.968,8.97
08.984,5.18
09.000,1.51
09.015,-2.23
09.031,-6.01
09.046,-9.55
09.062,-12.44
09.078,-14.39
09.093,-15.42
09.109,-15.86
09.125,-16.31
09.140,-17.33
09.156,-19.21
09.171,-21.93
09.187,-25.13
09.203,-28.49
09.218,-31.87
09.234,-35.41
09.250,-39.5
09.265,-44.52
09.281,-50.6
09.296,-57.53
09.312,-64.82
09.328,-71.86
09.343,-78.15
09.359,-83.47
09.375,-87.87
09.390,-91.69
09.406,-95.48
09.421,-99.91
09.437,-105.66
09.453,-113.16
09.468,-122.23
09.484,-131.79
09.500,-139.81
09.515,-143.63
09.531,-140.69
09.546,-129.4
09.562,-109.76
09.578,-83.52
09.593,-53.68
09.609,-23.76
09.625,3.16
09.640,24.98
09.656,40.74
09.671,50.4
09.687,54.55
09.703,54.1
09.718,50.12
09.734,43.79
09.750,36.36
09.765,29.02
09.781,22.73
09.796,18.09
09.812,15.29
09.828,14.12
09.843,14.16
09.859,14.91
09.875,15.92
09.890,16.77
09.906,17.18
09.921,16.85
09.937,15.64
09.953,13.47
09.968,10.38
09.984,6.54
10.000,2.15
10.015,-2.6
10.031,-7.55
10.046,-12.67
10.062,-18.09
10.078,-24.13
10.093,-31.09
10.109,-39.01
10.125,-47.25
10.140,-54.34
10.156,-58.1
10.171,-56.31
10.187,-47.51
10.203,-31.72
10.218,-10.48
10.234,13.46
10.250,37.14
10.265,58.23
10.281,75.48
10.296,88.74
10.312,98.5
10.328,105.36
10.343,109.74
10.359,111.8
10.375,111.67
10.390,109.66
10.406,106.42
10.421,102.8
10.437,99.62
10.453,97.3
10.468,95.77
10.484,94.45
10.500,92.59
10.515,89.55
10.531,85.15
10.546,79.62
10.562,73.47
10.578,67.13
10.593,60.74
10.609,54.06
10.625,46.61
10.640,37.84
10.656,27.31
10.671,14.8
10.687,0.3
10.703,-15.92
10.718,-33.08
10.734,-49.76
10.750,-63.96
10.765,-73.32
10.781,-75.79
10.796,-70.26
10.812,-56.96
10.828,-37.44
10.843,-14.08
10.859,10.56
10.875,34.28
10.890,55.35
10.906,72.34
10.921,83.87
10.937,88.6
10.953,85.57
10.968,74.64
10.984,56.81
11.000,34.18
11.015,9.46
11.031,-14.64
11.046,-36.03
11.062,-53.49
11.078,-66.69
11.093,-75.91
11.109,-81.82
11.125,-85.3
11.140,-87.27
11.156,-88.61
11.171,-89.95
11.187,-91.51
11.203,-93.11
11.218,-94.18
11.234,-94.01
11.250,-92.08
11.265,-88.29
11.281,-83.09
11.296,-77.4
11.312,-72.29
11.328,-68.56
11.343,-66.35
11.359,-64.93
11.375,-62.86
11.390,-58.48
11.406,-50.56
11.421,-38.74
11.437,-23.73
11.453,-7.13
11.468,9.09
11.484,23.05
11.500,33.45
11.515,39.64
11.531,41.67
11.546,40.1
11.562,35.85
11.578,29.99
11.593,23.56
11.609,17.46
11.625,12.34
11.640,8.6
11.656,6.41
11.671,5.79
11.687,6.55
11.703,8.36
11.718,10.64
11.734,12.58
11.750,13.3
11.765,12.1
11.781,8.71
11.796,3.41
11.812,-3.01
11.828,-9.54
11.843,-15.29
11.859,-19.84
11.875,-23.3
11.890,-26.25
11.906,-29.51
11.921,-33.84
11.937,-39.85
11.953,-47.82
11.968,-57.49
11.984,-67.92
12.000,-77.43
12.015,-83.8
12.031,-84.88
12.046,-79.31
12.062,-67.05
12.078,-49.53
12.093,-29.16
12.109,-8.62
12.125,9.93
12.140,25.21
12.156,36.93
12.171,45.43
12.187,51.36
12.203,55.36
12.218,57.97
12.234,59.5
12.250,60.04
12.265,59.45
12.281,57.44
12.296,53.78
12.312,48.52
12.328,42.06
12.343,35.1
12.359,28.42
12.375,22.56
12.390,17.63
12.406,13.3
12.421,8.94
12.437,3.97
12.453,-1.9
12.468,-8.58
12.484,-15.62
12.500,-22.53
12.515,-28.92
12.531,-34.68
12.546,-40.0
12.562,-45.29
12.578,-50.98
12.593,-57.29
12.609,-64.03
12.625,-70.4
12.640,-74.96
12.656,-75.93
12.671,-71.56
12.687,-60.81
12.703,-43.76
12.718,-21.8
12.734,2.76
12.750,27.28
12.765,49.48
12.781,67.86
12.796,81.68
12.812,90.73
12.828,95.19
12.843,95.39
12.859,91.95
12.875,85.8
12.890,78.13
12.906,70.09
12.921,62.48
12.937,55.47
12.953,48.85
12.968,42.22
12.984,35.47
13.000,28.86
13.015,22.99
13.031,18.36
13.046,15.03
13.062,12.52
13.078,9.92
13.093,6.32
13.109,1.2
13.125,-5.42
13.140,-12.9
13.156,-20.22
13.171,-26.32
13.187,-30.45
13.203,-32.39
13.218,-32.57
13.234,-32.03
13.250,-32.19
13.265,-34.41
13.281,-39.34
13.296,-46.56
13.312,-54.32
13.328,-59.9
13.343,-60.56
13.359,-54.52
13.375,-41.83
13.390,-24.37
13.406,-5.2
13.421,12.7
13.437,27.45
13.453,38.75
13.468,47.52
13.484,55.04
13.500,62.1
13.515,68.71
13.531,74.39
13.546,78.81
13.562,82.21
13.578,85.4
13.593,89.18
13.609,93.77
13.625,98.38
13.640,101.43
13.656,101.17
13.671,96.48
13.687,87.43
13.703,75.24
13.718,61.75
13.734,48.6
13.750,36.54
13.765,25.28
13.781,13.84
13.796,1.21
13.812,-12.99
13.828,-28.3
13.843,-43.59
13.859,-57.59
13.875,-69.46
13.890,-78.97
13.906,-86.49
13.921,-92.72
13.937,-98.42
13.953,-104.31
13.968,-110.86
13.984,-118.26
14.000,-126.14
14.015,-133.4
14.031,-138.29
14.046,-138.85
14.062,-133.68
14.078,-122.55
14.093,-106.66
14.109,-88.27
14.125,-69.96
14.140,-53.73
14.156,-40.54
14.171,-30.43
14.187,-22.91
14.203,-17.55
14.218,-14.22
14.234,-13.03
14.250,-14.15
14.265,-17.6
14.281,-23.14
14.296,-30.25
14.312,-38.21
14.328,-46.12
14.343,-53.05
14.359,-58.14
14.375,-60.89
14.390,-61.17
14.406,-59.33
14.421,-55.88
14.437,-51.37
14.453,-46.32
14.468,-41.2
14.484,-36.6
14.500,-33.24
14.515,-31.8
14.531,-32.6
14.546,-35.4
14.562,-39.41
14.578,-43.61
14.593,-47.12
14.609,-49.51
14.625,-50.94
14.640,-51.94
14.656,-53.2
14.671,-55.32
14.687,-58.57
14.703,-62.86
14.718,-67.55
14.734,-71.43
14.750,-72.78
14.765,-69.7
14.781,-60.63
14.796,-44.86
14.812,-22.9
14.828,3.65
14.843,32.5
14.859,61.39
14.875,88.51
14.890,112.76
14.906,133.66
14.921,151.04
14.937,165.0
14.953,175.92
14.968,184.65
14.984,192.46
15.000,200.78
15.015,210.41
15.031,220.92
15.046,230.41
15.062,236.0
15.078,234.94
15.093,225.75
15.109,208.9
15.125,186.65
15.140,162.14
15.156,138.27
15.171,116.93
15.187,98.81
15.203,83.8
15.218,71.45
15.234,61.28
15.250,52.86
15.265,45.67
15.281,39.07
15.296,32.53
15.312,25.74
15.328,18.56
15.343,10.69
15.359,1.27
15.375,-11.25
15.390,-28.75
15.406,-52.6
15.421,-82.66
15.437,-116.67
15.453,-150.37
15.468,-178.51
15.484,-196.28
15.500,-200.7
15.515,-191.4
15.531,-170.5
15.546,-141.69
15.562,-109.14
15.578,-76.48
15.593,-46.26
15.609,-19.78
15.625,2.83
15.640,22.43
15.656,40.44
15.671,58.13
15.687,75.81
15.703,92.17
15.718,104.39
15.734,109.02
15.750,103.49
15.765,87.44
15.781,63.2
15.796,35.05
15.812,7.67
15.828,-15.34
15.843,-32.26
15.859,-43.09
15.875,-48.65
15.890,-49.85
15.906,-47.38
15.921,-41.82
15.937,-34.1
15.953,-25.62
15.968,-18.04
15.984,-12.81
16.000,-10.7
16.015,-11.56
16.031,-14.57
16.046,-18.62
16.062,-22.81
16.078,-26.79
16.093,-30.82
16.109,-35.5
16.125,-41.53
16.140,-49.33
16.156,-58.92
16.171,-69.8
16.187,-80.98
16.203,-91.04
16.218,-98.25
16.234,-100.84
16.250,-97.39
16.265,-87.25
16.281,-70.78
16.296,-49.38
16.312,-25.09
16.328,-0.07
16.343,23.88
16.359,45.51
16.375,64.09
16.390,79.14
16.406,90.29
16.421,97.24
16.437,99.95
16.453,98.82
16.468,94.75
16.484,89.0
16.500,82.93
16.515,77.7
16.531,73.99
16.546,71.96
16.562,71.34
16.578,71.6
16.593,72.22
16.609,72.83
16.625,73.29
16.640,73.64
16.656,74.02
16.671,74.47
16.687,74.83
16.703,74.81
16.718,73.97
16.734,72.03
16.750,69.0
16.765,65.36
16.781,61.88
16.796,59.43
16.812,58.56
16.828,59.18
16.843,60.54
16.859,61.37
16.875,60.38
16.890,56.67
16.906,49.99
16.921,40.87
16.937,30.34
16.953,19.78
16.968,10.58
16.984,3.98
17.000,0.81
17.015,1.46
17.031,5.67
17.046,12.63
17.062,21.14
17.078,30.07
17.093,38.77
17.109,47.31
17.125,56.19
17.140,65.55
17.156,74.49
17.171,80.84
17.187,81.91
17.203,75.91
17.218,63.13
17.234,46.36
17.250,29.91
17.265,17.77
17.281,11.82
17.296,11.09
17.312,12.38
17.328,12.0
17.343,7.7
17.359,-0.44
17.375,-10.38
17.390,-19.52
17.406,-26.29
17.421,-30.67
17.437,-33.84
17.453,-37.03
17.468,-40.65
17.484,-43.99
17.500,-46.0
17.515,-46.32
17.531,-45.86
17.546,-46.59
17.562,-50.46
17.578,-58.3
17.593,-69.26
17.609,-81.32
17.625,-92.44
17.640,-101.56
17.656,-108.95
17.671,-115.56
17.687,-122.12
17.703,-128.45
17.718,-133.75
17.734,-137.43
17.750,-139.74
17.765,-141.63
17.781,-143.67
17.796,-144.83
17.812,-142.2
17.828,-132.26
17.843,-113.12
17.859,-86.45
17.875,-57.68
17.890,-34.18
17.906,-22.21
17.921,-24.51
17.937,-39.64
17.953,-63.29
17.968,-90.47
17.984,-117.06
18.000,-140.18
18.015,-157.78
18.031,-168.21
18.046,-170.66
18.062,-166.01
18.078,-157.24
18.093,-148.67
18.109,-144.32
18.125,-146.1
18.140,-153.01
18.156,-161.84
18.171,-168.9
18.187,-171.67
18.203,-169.51
18.218,-163.15
18.234,-153.55
18.250,-141.2
18.265,-126.09
18.281,-108.41
18.296,-89.25
18.312,-70.87
18.328,-55.99
18.343,-46.81
18.359,-44.05
18.375,-46.6
18.390,-51.84
18.406,-56.47
18.421,-57.43
18.437,-52.7
18.453,-41.59
18.468,-24.92
18.484,-4.57
18.500,17.02
18.515,37.51
18.531,55.19
18.546,69.25
18.562,79.77
18.578,87.32
18.593,92.59
18.609,96.09
18.625,98.09
18.640,98.78
18.656,98.44
18.671,97.59
18.687,96.82
18.703,96.65
18.718,97.2
18.734,98.07
18.750,98.46
18.765,97.46
18.781,94.45
18.796,89.35
18.812,82.61
18.828,74.96
18.843,67.07
18.859,59.19
18.875,51.14
18.890,42.48
18.906,32.84
18.921,22.22
18.937,11.13
18.953,0.44
18.968,-8.91
18.984,-16.24
19.000,-21.44
19.015,-25.02
19.031,-28.02
19.046,-31.81
19.062,-37.64
19.078,-46.26
19.093,-57.45
19.109,-69.89
19.125,-81.28
19.140,-88.92
19.156,-90.48
19.171,-84.73
19.187,-71.94
19.203,-53.71
19.218,-32.4
19.234,-10.49
19.250,9.96
19.265,27.61
19.281,41.79
19.296,52.48
19.312,60.15
19.328,65.58
19.343,69.62
19.359,72.93
19.375,75.79
19.390,78.13
19.406,79.72
19.421,80.44
19.437,80.54
19.453,80.53
19.468,81.03
19.484,82.38
19.500,84.55
19.515,87.04
19.531,89.17
19.546,90.21
19.562,89.62
19.578,87.1
19.593,82.7
19.609,76.71
19.625,69.71
19.640,62.42
19.656,55.61
19.671,49.95
19.687,45.92
19.703,43.6
19.718,42.71
19.734,42.7
19.750,42.84
19.765,42.54
19.781,41.45
19.796,39.54
19.812,37.03
19.828,34.28
19.843,31.6
19.859,29.21
19.875,27.13
19.890,25.26
19.906,23.4
19.921,21.35
19.937,19.0
19.953,16.36
19.968,13.59
19.984,10.92
20.000,8.53
20.015,6.49
20.031,4.67
20.046,2.79
20.062,0.58
20.078,-2.13
20.093,-5.34
20.109,-8.84
20.125,-12.32
20.140,-15.46
20.156,-17.95
20.171,-19.68
20.187,-20.69
20.203,-21.18
20.218,-21.53
20.234,-22.14
20.250,-23.3
20.265,-25.03
20.281,-27.09
20.296,-28.99
20.312,-30.34
20.328,-30.97
20.343,-31.22
20.359,-31.86
20.375,-33.96
20.390,-38.47
20.406,-45.74
20.421,-55.16
20.437,-64.92
20.453,-72.18
20.468,-73.61
20.484,-66.38
20.500,-49.05
20.515,-22.22
20.531,11.33
20.546,47.35
20.562,81.25
20.578,109.35
20.593,129.78
20.609,142.59
20.625,149.2
20.640,151.5
20.656,151.06
20.671,148.76
20.687,144.94
20.703,139.84
20.718,133.87
20.734,127.59
20.750,121.4
20.765,115.2
20.781,108.33
20.796,99.83
20.812,89.1
20.828,76.19
20.843,61.99
20.859,47.87
20.875,35.03
20.890,24.1
20.906,14.9
20.921,6.67
20.937,-1.6
20.953,-10.84
20.968,-21.6
20.984,-34.23
21.000,-48.89
21.015,-65.72
21.031,-84.74
21.046,-105.68
21.062,-127.72
21.078,-149.33
21.093,-168.41
21.109,-182.6
21.125,-189.8
21.140,-188.66
21.156,-178.92
21.171,-161.5
21.187,-138.38
21.203,-112.24
21.218,-85.98
21.234,-62.23
21.250,-42.96
21.265,-29.15
21.281,-20.86
21.296,-17.33
21.312,-17.34
21.328,-19.55
21.343,-22.76
21.359,-25.96
21.375,-28.43
21.390,-29.62
21.406,-29.18
21.421,-26.98
21.437,-23.09
21.453,-17.81
21.468,-11.62
21.484,-5.09
21.500,1.14
21.515,6.48
21.531,10.52
21.546,13.09
21.562,14.41
21.578,14.98
21.593,15.42
21.609,16.11
21.625,16.83
21.640,16.62
21.656,14.17
21.671,8.48
21.687,-0.25
21.703,-10.08
21.718,-17.51
21.734,-18.36
21.750,-9.22
21.765,11.5
21.781,42.79
21.796,81.12
21.812,121.0
21.828,155.91
21.843,179.39
21.859,186.33
21.875,173.97
21.890,142.89
21.906,97.09
21.921,43.26
21.937,-10.82
21.953,-58.23
21.968,-94.49
21.984,-118.06
22.000,-129.96
22.015,-132.65
22.031,-128.91
22.046,-121.18
22.062,-111.52
22.078,-101.71
22.093,-93.4
22.109,-87.86
22.125,-85.67
22.140,-86.46
22.156,-88.98
22.171,-91.65
22.187,-93.26
22.203,-93.52
22.218,-93.21
22.234,-93.77
22.250,-96.81
22.265,-103.32
22.281,-113.24
22.296,-125.3
22.312,-137.14
22.328,-145.85
22.343,-148.65
22.359,-143.67
22.375,-130.48
22.390,-110.2
22.406,-85.05
22.421,-57.73
22.437,-30.58
22.453,-5.24
22.468,17.4
22.484,36.89
22.500,52.88
22.515,64.99
22.531,72.92
22.546,76.68
22.562,76.71
22.578,73.95
22.593,69.49
22.609,64.36
22.625,59.34
22.640,54.9
22.656,51.25
22.671,48.56
22.687,46.94
22.703,46.41
22.718,46.73
22.734,47.33
22.750,47.33
22.765,45.79
22.781,42.04
22.796,35.93
22.812,27.91
22.828,18.86
22.843,9.76
22.859,1.28
22.875,-6.45
22.890,-13.9
22.906,-22.01
22.921,-31.85
22.937,-44.15
22.953,-58.9
22.968,-74.93
22.984,-89.91
23.000,-100.77
23.015,-104.45
23.031,-98.92
23.046,-83.8
23.062,-60.61
23.078,-32.21
23.093,-2.06
23.109,26.78
23.125,52.1
23.140,72.73
23.156,88.25
23.171,98.76
23.187,104.7
23.203,106.87
23.218,106.4
23.234,104.6
23.250,102.69
23.265,101.48
23.281,101.17
23.296,101.39
23.312,101.51
23.328,100.97
23.343,99.52
23.359,97.26
23.375,94.49
23.390,91.49
23.406,88.33
23.421,84.87
23.437,80.85
23.453,76.15
23.468,70.82
23.484,65.13
23.500,59.38
23.515,53.74
23.531,48.12
23.546,42.15
23.562,35.32
23.578,26.99
23.593,16.67
23.609,4.0
23.625,-10.92
23.640,-27.32
23.656,-43.56
23.671,-57.25
23.687,-65.7
23.703,-66.65
23.718,-58.99
23.734,-43.22
23.750,-21.35
23.765,3.74
23.781,29.11
23.796,52.47
23.812,72.54
23.828,88.93
23.843,101.81
23.859,111.64
23.875,118.88
23.890,124.07
23.906,127.81
23.921,130.67
23.937,133.06
23.953,134.95
23.968,135.88
23.984,135.19
24.000,132.33
24.015,127.2
24.031,120.31
24.046,112.62
24.062,105.23
24.078,98.95
24.093,94.08
24.109,90.31
24.125,86.87
24.140,82.92
24.156,77.86
24.171,71.84
24.187,65.9
24.203,61.84
24.218,61.61
24.234,66.3
24.250,75.34
24.265,86.16
24.281,94.82
24.296,97.3
24.312,90.91
24.328,75.24
24.343,52.13
24.359,24.84
24.375,-2.97
24.390,-27.95
24.406,-47.29
24.421,-58.76
24.437,-60.8
24.453,-53.12
24.468,-37.2
24.484,-16.38
24.500,4.94
24.515,22.43
24.531,32.98
24.546,35.16
24.562,29.21
24.578,16.56
24.593,-0.5
24.609,-19.14
24.625,-36.39
24.640,-49.73
24.656,-58.05
24.671,-62.02
24.687,-63.96
24.703,-66.69
24.718,-72.18
24.734,-80.74
24.750,-91.26
24.765,-102.31
24.781,-113.3
24.796,-124.94
24.812,-138.67
24.828,-155.5
24.843,-174.94
24.859,-194.73
24.875,-211.61
24.890,-222.3
24.906,-224.76
24.921,-218.86
24.937,-206.31
24.953,-190.11
24.968,-173.63
24.984,-159.78
25.000,-150.2
25.015,-144.98
25.031,-142.61
25.046,-140.56
25.062,-135.98
25.078,-126.62
25.093,-111.39
25.109,-90.56
25.125,-65.56
25.140,-38.55
25.156,-11.98
25.171,11.95
25.187,31.55
25.203,45.93
25.218,54.96
25.234,59.13
25.250,59.28
25.265,56.36
25.281,51.4
25.296,45.54
25.312,40.17
25.328,36.69
25.343,36.05
25.359,38.34
25.375,42.65
25.390,47.41
25.406,51.22
25.421,53.63
25.437,55.26
25.453,57.53
25.468,61.77
25.484,68.49
25.500,77.01
25.515,85.67
25.531,92.52
25.546,95.98
25.562,95.3
25.578,90.53
25.593,82.24
25.609,71.12
25.625,57.72
25.640,42.64
25.656,26.83
25.671,12.16
25.687,1.35
25.703,-2.58
25.718,2.55
25.734,16.99
25.750,38.48
25.765,62.83
25.781,85.24
25.796,101.94
25.812,111.55
25.828,115.05
25.843,114.74
25.859,112.45
25.875,108.09
25.890,99.4
25.906,83.21
25.921,57.64
25.937,23.84
25.953,-13.51
25.968,-47.71
25.984,-72.69
26.000,-85.49
26.015,-87.23
26.031,-82.33
26.046,-76.23
26.062,-73.33
26.078,-75.93
26.093,-84.39
26.109,-97.96
26.125,-115.26
26.140,-134.21
26.156,-151.84
26.171,-164.48
26.187,-168.71
26.203,-162.88
26.218,-148.16
26.234,-128.51
26.250,-109.3
26.265,-95.28
26.281,-88.96
26.296,-90.01
26.312,-96.0
26.328,-103.63
26.343,-109.82
26.359,-112.17
26.375,-108.87
26.390,-98.72
26.406,-81.31
26.421,-57.49
26.437,-29.56
26.453,-0.84
26.468,25.41
26.484,47.13
26.500,64.08
26.515,77.59
26.531,89.49
26.546,100.92
26.562,111.69
26.578,120.38
26.593,125.24
26.609,125.12
26.625,120.21
26.640,112.08
26.656,103.14
26.671,95.62
26.687,90.75
26.703,88.2
26.718,86.38
26.734,83.18
26.750,77.0
26.765,67.39
26.781,55.1
26.796,41.51
26.812,27.74
26.828,14.23
26.843,0.75
26.859,-12.95
26.875,-26.55
26.890,-38.79
26.906,-47.91
26.921,-52.38
26.937,-51.75
26.953,-47.01
26.968,-40.33
26.984,-34.25
27.000,-30.77
27.015,-30.6
27.031,-32.9
27.046,-35.58
27.062,-35.8
27.078,-30.71
27.093,-18.21
27.109,2.46
27.125,30.13
27.140,61.5
27.156,91.47
27.171,114.22
27.187,124.7
27.203,120.39
27.218,102.29
27.234,74.77
27.250,44.12
27.265,16.39
27.281,-4.39
27.296,-16.86
27.312,-21.63
27.328,-19.94
27.343,-12.58
27.359,0.02
27.375,16.96
27.390,36.02
27.406,53.62
27.421,66.22
27.437,72.22
27.453,73.23
27.468,73.54
27.484,78.01
27.500,89.27
27.515,106.1
27.531,123.8
27.546,136.23
27.562,138.52
27.578,128.86
27.593,108.37
27.609,79.73
27.625,45.46
27.640,6.9
27.656,-35.51
27.671,-81.25
27.687,-128.75
27.703,-175.14
27.718,-216.6
27.734,-249.18
27.750,-269.55
27.765,-275.59
27.781,-266.8
27.796,-244.61
27.812,-212.36
27.828,-174.81
27.843,-137.01
27.859,-103.12
27.875,-75.43
27.890,-54.13
27.906,-38.0
27.921,-25.58
27.937,-16.09
27.953,-9.78
27.968,-7.34
27.984,-9.12
28.000,-14.54
28.015,-22.09
28.031,-29.78
28.046,-35.81
28.062,-39.12
28.078,-39.33
28.093,-36.52
28.109,-30.73
28.125,-21.85
28.140,-9.6
28.156,6.04
28.171,24.49
28.187,44.38
28.203,63.76
28.218,80.6
28.234,93.36
28.250,101.41
28.265,105.1
28.281,105.48
28.296,103.93
28.312,101.66
28.328,99.4
28.343,97.35
28.359,95.27
28.375,92.75
28.390,89.42
28.406,85.23
28.421,80.41
28.437,75.45
28.453,70.84
28.468,66.86
28.484,63.48
28.500,60.3
28.515,56.74
28.531,52.31
28.546,46.89
28.562,40.73
28.578,34.4
28.593,28.47
28.609,23.23
28.625,18.55
28.640,13.97
28.656,8.91
28.671,3.02
28.687,-3.71
28.703,-11.01
28.718,-18.49
28.734,-25.89
28.750,-33.09
28.765,-40.05
28.781,-46.6
28.796,-52.39
28.812,-56.94
28.828,-59.9
28.843,-61.25
28.859,-61.45
28.875,-61.33
28.890,-61.82
28.906,-63.57
28.921,-66.69
28.937,-70.68
28.953,-74.65
28.968,-77.74
28.984,-79.52
29.000,-80.22
29.015,-80.71
29.031,-82.23
29.046,-86.04
29.062,-93.1
29.078,-103.81
29.093,-117.6
29.109,-132.83
29.125,-146.74
29.140,-155.87
29.156,-156.93
29.171,-147.79
29.187,-128.35
29.203,-100.62
29.218,-68.12
29.234,-34.78
29.250,-3.78
29.265,23.0
29.281,44.98
29.296,62.34
29.312,75.53
29.328,84.96
29.343,91.06
29.359,94.33
29.375,95.5
29.390,95.34
29.406,94.53
29.421,93.57
29.437,92.92
29.453,93.03
29.468,94.38
29.484,97.25
29.500,101.29
29.515,105.19
29.531,106.72
29.546,103.29
29.562,92.75
29.578,74.25
29.593,48.64
29.609,18.35
29.625,-13.29
29.640,-42.92
29.656,-67.84
29.671,-86.47
29.687,-98.45
29.703,-104.64
29.718,-106.92
29.734,-107.74
29.750,-109.48
29.765,-113.48
29.781,-119.4
29.796,-125.11
29.812,-127.4
29.828,-123.24
29.843,-111.12
29.859,-91.73
29.875,-67.75
29.890,-42.91
29.906,-20.65
29.921,-3.36
29.937,7.98
29.953,13.42
29.968,13.64
29.984,9.48
30.000,2.01
30.015,-7.42
30.031,-17.19
30.046,-25.56
30.062,-31.17
30.078,-33.41
30.093,-32.61
30.109,-29.84
30.125,-26.43
30.140,-23.49
30.156,-21.63
30.171,-21.0
30.187,-21.58
30.203,-23.39
30.218,-26.63
30.234,-31.48
30.250,-37.95
30.265,-45.83
30.281,-54.86
30.296,-65.02
30.312,-76.75
30.328,-90.8
30.343,-107.65
30.359,-126.86
30.375,-146.56
30.390,-163.62
30.406,-174.46
30.421,-176.2
30.437,-167.74
30.453,-150.12
30.468,-126.35
30.484,-100.31
30.500,-75.65
30.515,-54.8
30.531,-38.52
30.546,-26.18
30.562,-16.34
30.578,-7.51
30.593,1.37
30.609,10.67
30.625,20.18
30.640,29.3
30.656,37.35
30.671,43.75
30.687,48.08
30.703,50.17
30.718,50.08
30.734,48.05
30.750,44.5
30.765,39.88
30.781,34.74
30.796,29.59
30.812,24.98
30.828,21.35
30.843,18.91
30.859,17.57
30.875,16.83
30.890,16.02
30.906,14.34
30.921,11.15
30.937,5.88
30.953,-1.81
30.968,-12.18
30.984,-25.09
31.000,-39.73
31.015,-54.45
31.031,-66.77
31.046,-73.96
31.062,-73.76
31.078,-65.19
31.093,-48.9
31.109,-26.97
31.125,-2.33
31.140,22.07
31.156,43.99
31.171,62.13
31.187,76.17
31.203,86.39
31.218,93.33
31.234,97.45
31.250,99.14
31.265,98.75
31.281,96.71
31.296,93.57
31.312,89.94
31.328,86.32
31.343,83.04
31.359,80.18
31.375,77.67
31.390,75.39
31.406,73.16
31.421,70.78
31.437,67.93
31.453,64.26
31.468,59.42
31.484,53.22
31.500,45.69
31.515,37.13
31.531,27.91
31.546,18.32
31.562,8.43
31.578,-1.97
31.593,-13.33
31.609,-26.15
31.625,-40.63
31.640,-56.33
31.656,-71.86
31.671,-84.9
31.687,-92.65
31.703,-92.64
31.718,-83.52
31.734,-65.66
31.750,-41.1
31.765,-12.92
31.781,15.64
31.796,42.07
31.812,64.98
31.828,84.0
31.843,99.36
31.859,111.51
31.875,120.84
31.890,127.75
31.906,132.77
31.921,136.52
31.937,139.56
31.953,142.04
31.968,143.49
31.984,142.97
32.000,139.43
32.015,132.27
32.031,121.73
32.046,108.89
32.062,95.19
32.078,81.82
32.093,69.16
32.109,56.77
32.125,43.67
32.140,28.86
32.156,11.94
32.171,-6.78
32.187,-26.35
32.203,-45.64
32.218,-63.65
32.234,-79.91
32.250,-94.53
32.265,-108.05
32.281,-121.2
32.296,-134.51
32.312,-147.98
32.328,-160.91
32.343,-171.79
32.359,-178.55
32.375,-179.04
32.390,-171.6
32.406,-155.64
32.421,-131.97
32.437,-102.67
32.453,-70.6
32.468,-38.64
32.484,-9.04
32.500,16.96
32.515,39.07
32.531,57.63
32.546,73.12
32.562,85.85
32.578,95.97
32.593,103.6
32.609,109.04
32.625,112.87
32.640,115.79
32.656,118.43
32.671,121.12
32.687,123.89
32.703,126.6
32.718,129.27
32.734,132.11
32.750,135.52
32.765,139.86
32.781,145.19
32.796,151.2
32.812,157.29
32.828,162.89
32.843,167.66
32.859,171.76
32.875,175.67
32.890,179.96
32.906,184.92
32.921,190.37
32.937,195.63
32.953,199.79
32.968,202.01
32.984,201.91
33.000,199.62
33.015,195.72
33.031,190.93
33.046,185.93
33.062,181.02
33.078,176.02
33.093,170.11
33.109,161.82
33.125,149.23
33.140,130.38
33.156,103.95
33.171,69.95
33.187,30.22
33.203,-11.9
33.218,-52.21
33.234,-86.76
33.250,-112.83
33.265,-129.43
33.281,-137.09
33.296,-137.34
33.312,-131.85
33.328,-121.9
33.343,-108.28
33.359,-91.46
33.375,-72.02
33.390,-50.93
33.406,-29.62
33.421,-9.67
33.437,7.55
33.453,21.17
33.468,30.95
33.484,37.04
33.500,39.72
33.515,39.01
33.531,34.71
33.546,26.54
33.562,14.53
33.578,-0.7
33.593,-17.85
33.609,-35.23
33.625,-51.19
33.640,-64.63
33.656,-75.21
33.671,-83.38
33.687,-90.02
33.703,-96.16
33.718,-102.75
33.734,-110.53
33.750,-119.93
33.765,-130.79
33.781,-142.12
33.796,-151.92
33.812,-157.48
33.828,-156.02
33.843,-145.71
33.859,-126.41
33.875,-99.87
33.890,-69.23
33.906,-38.07
33.921,-9.48
33.937,14.58
33.953,33.26
33.968,46.56
33.984,54.87
34.000,58.79
34.015,59.05
34.031,56.54
34.046,52.35
34.062,47.61
34.078,43.23
34.093,39.68
34.109,36.93
34.125,34.59
34.140,32.2
34.156,29.5
34.171,26.43
34.187,23.07
34.203,19.4
34.218,15.12
34.234,9.72
34.250,2.66
34.265,-6.31
34.281,-16.96
34.296,-28.67
34.312,-40.63
34.328,-52.12
34.343,-62.79
34.359,-72.67
34.375,-82.16
34.390,-91.75
34.406,-101.79
34.421,-112.25
34.437,-122.45
34.453,-131.05
34.468,-136.25
34.484,-136.23
34.500,-129.7
34.515,-116.42
34.531,-97.36
34.546,-74.57
34.562,-50.58
34.578,-27.8
34.593,-7.96
34.609,8.05
34.625,20.11
34.640,28.54
34.656,33.84
34.671,36.52
34.687,37.09
34.703,36.07
34.718,34.03
34.734,31.6
34.750,29.3
34.765,27.57
34.781,26.68
34.796,26.72
34.812,27.61
34.828,29.13
34.843,30.91
34.859,32.5
34.875,33.34
34.890,32.89
34.906,30.7
34.921,26.54
34.937,20.45
34.953,12.77
34.968,4.12
34.984,-4.88
35.000,-13.73
35.015,-22.29
35.031,-30.91
35.046,-40.34
35.062,-51.48
35.078,-64.98
35.093,-80.82
35.109,-97.92
35.125,-114.19
35.140,-126.82
35.156,-133.04
35.171,-130.92
35.187,-119.9
35.203,-100.98
35.218,-76.36
35.234,-48.8
35.250,-20.92
35.265,5.31
35.281,28.67
35.296,48.64
35.312,65.11
35.328,78.13
35.343,87.85
35.359,94.47
35.375,98.26
35.390,99.61
35.406,98.96
35.421,96.76
35.437,93.33
35.453,88.93
35.468,83.76
35.484,78.12
35.500,72.5
35.515,67.52
35.531,63.74
35.546,61.32
35.562,59.8
35.578,58.03
35.593,54.42
35.609,47.54
35.625,36.57
35.640,21.66
35.656,3.72
35.671,-15.95
35.687,-36.18
35.703,-56.26
35.718,-75.93
35.734,-95.28
35.750,-114.32
35.765,-132.77
35.781,-149.69
35.796,-163.51
35.812,-172.0
35.828,-172.77
35.843,-163.93
35.859,-144.92
35.875,-117.09
35.890,-83.64
35.906,-49.03
35.921,-17.67
35.937,7.15
35.953,24.01
35.968,33.23
35.984,36.32
36.000,35.05
36.015,30.9
36.031,24.7
36.046,16.73
36.062,7.03
36.078,-4.38
36.093,-17.28
36.109,-31.3
36.125,-46.04
36.140,-61.32
36.156,-77.16
36.171,-93.6
36.187,-110.39
36.203,-126.68
36.218,-140.99
36.234,-151.65
36.250,-157.44
36.265,-158.08
36.281,-154.39
36.296,-147.87
36.312,-140.12
36.328,-132.32
36.343,-124.95
36.359,-118.13
36.375,-111.96
36.390,-106.85
36.406,-103.57
36.421,-102.98
36.437,-105.56
36.453,-111.0
36.468,-117.94
36.484,-123.99
36.500,-126.17
36.515,-121.62
36.531,-108.6
36.546,-87.1
36.562,-58.94
36.578,-27.26
36.593,4.54
36.609,33.75
36.625,59.04
36.640,80.33
36.656,98.32
36.671,113.82
36.687,127.25
36.703,138.58
36.718,147.6
36.734,154.18
36.750,158.59
36.765,161.56
36.781,164.09
36.796,167.26
36.812,171.87
36.828,178.19
36.843,185.84
36.859,193.91
36.875,201.32
36.890,207.21
36.906,211.34
36.921,214.09
36.937,216.3
36.953,218.74
36.968,221.86
36.984,225.74
37.000,230.3
37.015,235.4
37.031,240.63
37.046,244.91
37.062,246.0
37.078,240.84
37.093,226.35
37.109,200.64
37.125,163.83
37.140,118.09
37.156,66.43
37.171,11.27
37.187,-46.52
37.203,-107.12
37.218,-170.07
37.234,-232.51
37.250,-288.64
37.265,-331.02
37.281,-353.4
37.296,-353.42
37.312,-333.73
37.328,-300.97
37.343,-263.07
37.359,-226.42
37.375,-194.26
37.390,-166.87
37.406,-143.04
37.421,-121.66
37.437,-102.53
37.453,-85.98
37.468,-72.08
37.484,-59.97
37.500,-48.04
37.515,-34.63
37.531,-18.87
37.546,-1.12
37.562,17.15
37.578,33.97
37.593,47.77
37.609,57.84
37.625,64.52
37.640,68.9
37.656,72.27
37.671,75.55
37.687,79.07
37.703,82.5
37.718,85.21
37.734,86.61
37.750,86.45
37.765,84.97
37.781,82.78
37.796,80.59
37.812,78.98
37.828,78.22
37.843,78.25
37.859,78.84
37.875,79.8
37.890,81.04
37.906,82.62
37.921,84.52
37.937,86.52
37.953,88.11
37.968,88.59
37.984,87.38
38.000,84.19
38.015,79.24
38.031,73.12
38.046,66.53
38.062,60.05
38.078,53.96
38.093,48.21
38.109,42.67
38.125,37.22
38.140,31.89
38.156,26.86
38.171,22.41
38.187,18.71
38.203,15.76
38.218,13.31
38.234,10.95
38.250,8.26
38.265,5.02
38.281,1.26
38.296,-2.7
38.312,-6.42
38.328,-9.58
38.343,-12.12
38.359,-14.39
38.375,-17.01
38.390,-20.6
38.406,-25.54
38.421,-31.72
38.437,-38.52
38.453,-44.99
38.468,-50.23
38.484,-53.65
38.500,-55.29
38.515,-55.88
38.531,-56.67
38.546,-59.07
38.562,-64.16
38.578,-72.17
38.593,-82.09
38.609,-91.66
38.625,-97.64
38.640,-96.51
38.656,-85.39
38.671,-63.02
38.687,-30.57
38.703,8.11
38.718,47.05
38.734,79.44
38.750,99.46
38.765,103.83
38.781,92.66
38.796,69.19
38.812,38.54
38.828,6.08
38.843,-23.81
38.859,-48.31
38.875,-65.99
38.890,-76.35
38.906,-79.54
38.921,-76.32
38.937,-68.17
38.953,-57.15
38.968,-45.44
38.984,-34.72
39.000,-25.69
39.015,-18.14
39.031,-11.31
39.046,-4.62
39.062,1.91
39.078,7.58
39.093,11.34
39.109,12.25
39.125,9.91
39.140,4.63
39.156,-2.77
39.171,-11.19
39.187,-19.64
39.203,-27.56
39.218,-34.84
39.234,-41.8
39.250,-48.74
39.265,-55.57
39.281,-61.47
39.296,-64.92
39.312,-64.16
39.328,-57.82
39.343,-45.63
39.359,-28.56
39.375,-8.53
39.390,12.19
39.406,31.68
39.421,48.71
39.437,62.78
39.453,73.86
39.468,82.07
39.484,87.54
39.500,90.38
39.515,90.72
39.531,88.8
39.546,85.01
39.562,79.92
39.578,74.3
39.593,69.07
39.609,65.17
39.625,63.27
39.640,63.61
39.656,65.8
39.671,68.94
39.687,71.86
39.703,73.41
39.718,72.76
39.734,69.47
39.750,63.56
39.765,55.41
39.781,45.63
39.796,34.89
39.812,23.71
39.828,12.42
39.843,1.03
39.859,-10.63
39.875,-22.67
39.890,-34.88
39.906,-46.44
39.921,-55.89
39.937,-61.32
39.953,-60.9
39.968,-53.37
39.984,-38.53
40.000,-17.48
40.015,7.53
40.031,33.41
40.046,56.99
40.062,75.67
40.078,88.05
40.093,94.01
40.109,94.47
40.125,90.88
40.140,84.63
40.156,76.89
40.171,68.58
40.187,60.55
40.203,53.64
40.218,48.53
40.234,45.38
40.250,43.69
40.265,42.21
40.281,39.2
40.296,32.79
40.312,21.49
40.328,4.76
40.343,-16.59
40.359,-40.22
40.375,-62.67
40.390,-80.36
40.406,-90.93
40.421,-94.27
40.437,-92.64
40.453,-89.83
40.468,-89.69
40.484,-94.76
40.500,-105.75
40.515,-121.66
40.531,-140.55
40.546,-160.06
40.562,-177.7
40.578,-190.75
40.593,-196.46
40.609,-192.46
40.625,-177.58
40.640,-152.55
40.656,-120.16
40.671,-84.69
40.687,-50.86
40.703,-22.47
40.718,-1.6
40.734,11.71
40.750,18.98
40.765,22.31
40.781,23.56
40.796,23.76
40.812,23.11
40.828,21.42
40.843,18.66
40.859,15.2
40.875,11.77
40.890,9.12
40.906,7.65
40.921,7.3
40.937,7.6
40.953,8.04
40.968,8.28
40.984,8.34
41.000,8.45
41.015,8.87
41.031,9.67
41.046,10.59
41.062,11.11
41.078,10.64
41.093,8.71
41.109,5.18
41.125,0.3
41.140,-5.54
41.156,-12.05
41.171,-19.15
41.187,-26.84
41.203,-34.76
41.218,-41.81
41.234,-46.01
41.250,-44.88
41.265,-36.22
41.281,-18.97
41.296,6.47
41.312,38.42
41.328,74.48
41.343,112.3
41.359,149.84
41.375,185.36
41.390,217.16
41.406,243.54
41.421,263.09
41.437,275.14
41.453,280.08
41.468,279.31
41.484,274.87
41.500,268.73
41.515,262.31
41.531,255.96
41.546,249.05
41.562,240.24
41.578,228.12
41.593,211.88
41.609,191.79
41.625,169.36
41.640,146.71
41.656,125.68
41.671,106.83
41.687,89.0
41.703,69.8
41.718,46.66
41.734,17.91
41.750,-16.58
41.765,-55.44
41.781,-96.41
41.796,-137.0
41.812,-175.06
41.828,-209.09
41.843,-238.42
41.859,-263.19
41.875,-284.09
41.890,-301.92
41.906,-316.98
41.921,-328.72
41.937,-335.8
41.953,-336.74
41.968,-330.92
41.984,-319.1
42.000,-303.42
42.015,-286.51
42.031,-270.55
42.046,-256.42
42.062,-243.68
42.078,-231.18
42.093,-217.82
42.109,-203.24
42.125,-187.77
42.140,-172.17
42.156,-156.95
42.171,-142.02
42.187,-126.73
42.203,-110.29
42.218,-92.34
42.234,-73.17
42.250,-53.63
42.265,-34.74
42.281,-17.22
42.296,-1.23
42.312,13.4
42.328,26.84
42.343,38.97
42.359,49.34
42.375,57.37
42.390,62.74
42.406,65.63
42.421,66.74
42.437,67.0
42.453,67.26
42.468,67.89
42.484,68.74
42.500,69.19
42.515,68.34
42.531,65.39
42.546,60.04
42.562,52.74
42.578,44.91
42.593,38.72
42.609,36.5
42.625,39.83
42.640,48.84
42.656,61.8
42.671,75.63
42.687,87.04
42.703,93.71
42.718,95.2
42.734,92.86
42.750,88.92
42.765,85.31
42.781,82.73
42.796,80.6
42.812,77.66
42.828,72.97
42.843,66.56
42.859,59.4
42.875,52.78
42.890,47.5
42.906,43.43
42.921,39.52
42.937,34.48
42.953,27.45
42.968,18.48
42.984,8.45
43.000,-1.28
43.015,-9.47
43.031,-15.36
43.046,-18.75
43.062,-19.95
43.078,-19.68
43.093,-19.12
43.109,-19.76
43.125,-23.37
43.140,-31.41
43.156,-44.53
43.171,-62.18
43.187,-82.71
43.203,-103.96
43.218,-124.17
43.234,-142.55
43.250,-159.16
43.265,-174.28
43.281,-187.41
43.296,-196.84
43.312,-200.04
43.328,-194.7
43.343,-179.9
43.359,-156.64
43.375,-127.55
43.390,-95.74
43.406,-63.7
43.421,-32.8
43.437,-3.45
43.453,24.18
43.468,49.5
43.484,71.43
43.500,88.84
43.515,101.18
43.531,108.95
43.546,113.52
43.562,116.56
43.578,119.41
43.593,122.65
43.609,126.12
43.625,129.26
43.640,131.54
43.656,132.82
43.671,133.3
43.687,133.4
43.703,133.39
43.718,133.28
43.734,132.77
43.750,131.5
43.765,129.29
43.781,126.24
43.796,122.76
43.812,119.35
43.828,116.42
43.843,114.07
43.859,112.12
43.875,110.25
43.890,108.1
43.906,105.58
43.921,102.84
43.937,100.25
43.953,98.24
43.968,97.1
43.984,96.85
44.000,97.17
44.015,97.47
44.031,97.1
44.046,95.63
44.062,93.09
44.078,90.07
44.093,87.73
44.109,87.48
44.125,90.46
44.140,96.89
44.156,105.48
44.171,113.4
44.187,116.92
44.203,112.39
44.218,97.43
44.234,71.63
44.250,36.74
44.265,-3.8
44.281,-45.73
44.296,-84.83
44.312,-117.71
44.328,-142.32
44.343,-158.16
44.359,-166.2
44.375,-168.46
44.390,-167.43
44.406,-165.28
44.421,-163.37
44.437,-162.1
44.453,-161.19
44.468,-160.1
44.484,-158.39
44.500,-155.89
44.515,-152.64
44.531,-148.82
44.546,-144.65
44.562,-140.45
44.578,-136.58
44.593,-133.48
44.609,-131.6
44.625,-131.27
44.640,-132.73
44.656,-136.08
44.671,-141.44
44.687,-148.89
44.703,-158.39
44.718,-169.37
44.734,-180.44
44.750,-189.2
44.765,-192.63
44.781,-187.95
44.796,-173.69
44.812,-150.41
44.828,-120.74
44.843,-88.6
44.859,-57.99
44.875,-31.79
44.890,-11.31
44.906,3.6
44.921,13.84
44.937,20.47
44.953,24.29
44.968,25.95
44.984,26.17
45.000,25.78
45.015,25.68
45.031,26.51
45.046,28.44
45.062,31.21
45.078,34.32
45.093,37.32
45.109,39.97
45.125,42.28
45.140,44.26
45.156,45.74
45.171,46.26
45.187,45.2
45.203,42.03
45.218,36.56
45.234,29.09
45.250,20.36
45.265,11.25
45.281,2.49
45.296,-5.67
45.312,-13.6
45.328,-22.08
45.343,-32.06
45.359,-44.1
45.375,-57.94
45.390,-72.27
45.406,-84.91
45.421,-93.23
45.437,-94.91
45.453,-88.67
45.468,-74.69
45.484,-54.57
45.500,-30.9
45.515,-6.59
45.531,15.86
45.546,34.74
45.562,49.23
45.578,59.33
45.593,65.54
45.609,68.67
45.625,69.63
45.640,69.38
45.656,68.84
45.671,68.74
45.687,69.52
45.703,71.27
45.718,73.75
45.734,76.49
45.750,79.02
45.765,80.97
45.781,82.17
45.796,82.56
45.812,82.08
45.828,80.54
45.843,77.71
45.859,73.46
45.875,67.98
45.890,61.85
45.906,55.95
45.921,51.05
45.937,47.53
45.953,45.0
45.968,42.45
45.984,38.55
46.000,32.06
46.015,22.4
46.031,9.95
46.046,-3.74
46.062,-16.11
46.078,-24.08
46.093,-24.78
46.109,-16.35
46.125,1.45
46.140,27.2
46.156,58.21
46.171,91.32
46.187,123.66
46.203,153.14
46.218,178.56
46.234,199.41
46.250,215.6
46.265,227.21
46.281,234.59
46.296,238.37
46.312,239.4
46.328,238.66
46.343,237.05
46.359,235.17
46.375,233.29
46.390,231.44
46.406,229.57
46.421,227.77
46.437,226.21
46.453,225.06
46.468,224.12
46.484,222.63
46.500,219.22
46.515,212.08
46.531,199.6
46.546,180.82
46.562,155.91
46.578,126.1
46.593,93.33
46.609,59.66
46.625,26.66
46.640,-4.89
46.656,-35.14
46.671,-64.94
46.687,-95.68
46.703,-128.75
46.718,-165.04
46.734,-204.3
46.750,-244.6
46.765,-282.24
46.781,-312.4
46.796,-330.39
46.812,-333.11
46.828,-320.09
46.843,-293.65
46.859,-258.15
46.875,-218.72
46.890,-180.14
46.906,-146.19
46.921,-119.35
46.937,-100.75
46.953,-89.86
46.968,-84.37
46.984,-80.36
47.000,-73.16
47.015,-58.77
47.031,-35.31
47.046,-3.85
47.062,31.68
47.078,65.64
47.093,92.15
47.109,106.62
47.125,106.67
47.140,92.55
47.156,66.95
47.171,34.25
47.187,-0.46
47.203,-32.57
47.218,-58.91
47.234,-78.36
47.250,-91.56
47.265,-100.12
47.281,-105.54
47.296,-108.49
47.312,-108.86
47.328,-106.41
47.343,-101.85
47.359,-97.33
47.375,-96.14
47.390,-101.38
47.406,-114.31
47.421,-133.12
47.437,-152.93
47.453,-167.33
47.468,-170.57
47.484,-159.77
47.500,-135.72
47.515,-102.33
47.531,-64.82
47.546,-27.73
47.562,6.47
47.578,37.51
47.593,66.36
47.609,93.68
47.625,118.66
47.640,138.88
47.656,151.26
47.671,153.78
47.687,146.71
47.703,133.03
47.718,117.2
47.734,103.34
47.750,93.42
47.765,86.76
47.781,80.82
47.796,73.11
47.812,62.84
47.828,51.61
47.843,42.39
47.859,37.71
47.875,37.94
47.890,40.82
47.906,42.61
47.921,39.94
47.937,31.54
47.953,18.67
47.968,4.13
47.984,-9.55
48.000,-21.56
48.015,-33.18
48.031,-46.82
48.046,-64.4
48.062,-86.18
48.078,-110.54
48.093,-134.71
48.109,-156.02
48.125,-172.45
48.140,-182.83
48.156,-186.38
48.171,-182.42
48.187,-170.65
48.203,-151.57
48.218,-126.97
48.234,-99.76
48.250,-73.23
48.265,-49.99
48.281,-31.22
48.296,-16.74
48.312,-5.79
48.328,1.91
48.343,5.67
48.359,4.06
48.375,-4.17
48.390,-19.01
48.406,-38.62
48.421,-59.6
48.437,-77.83
48.453,-89.59
48.468,-92.37
48.484,-85.31
48.500,-69.27
48.515,-46.59
48.531,-20.74
48.546,4.48
48.562,25.83
48.578,41.54
48.593,51.81
48.609,58.41
48.625,63.73
48.640,69.65
48.656,76.83
48.671,84.81
48.687,92.61
48.703,99.4
48.718,104.66
48.734,108.15
48.750,109.53
48.765,108.46
48.781,104.95
48.796,99.82
48.812,94.72
48.828,91.48
48.843,91.19
48.859,93.44
48.875,96.38
48.890,97.61
48.906,95.33
48.921,89.28
48.937,80.86
48.953,72.36
48.968,65.93
48.984,62.87
49.000,63.56
49.015,67.83
49.031,75.31
49.046,85.44
49.062,97.19
49.078,108.93
49.093,118.64
49.109,124.53
49.125,125.77
49.140,122.79
49.156,117.01
49.171,110.01
49.187,102.57
49.203,94.08
49.218,82.65
49.234,65.79
49.250,41.42
49.265,8.83
49.281,-30.82
49.296,-74.61
49.312,-118.54
49.328,-158.5
49.343,-191.29
49.359,-215.34
49.375,-230.7
49.390,-238.52
49.406,-240.45
49.421,-237.97
49.437,-232.33
49.453,-224.69
49.468,-216.06
49.484,-207.26
49.500,-198.52
49.515,-189.26
49.531,-178.23
49.546,-164.07
49.562,-146.03
49.578,-124.47
49.593,-100.86
49.609,-77.19
49.625,-55.1
49.640,-35.27
49.656,-17.22
49.671,0.15
49.687,17.85
49.703,36.09
49.718,54.07
49.734,70.32
49.750,83.31
49.765,92.11
49.781,96.72
49.796,97.97
49.812,97.19
49.828,95.71
49.843,94.56
49.859,94.27
49.875,94.99
49.890,96.55
49.906,98.59
49.921,100.56
49.937,101.91
49.953,102.18
49.968,101.22
49.984,99.18
50.000,96.47
50.015,93.42
50.031,90.1
50.046,86.21
50.062,81.18
50.078,74.51
50.093,65.93
50.109,55.58
50.125,44.04
50.140,32.06
50.156,20.52
50.171,10.23
50.187,1.95
50.203,-3.71
50.218,-6.36
50.234,-6.02
50.250,-3.11
50.265,1.49
50.281,6.67
50.296,11.3
50.312,14.56
50.328,16.11
50.343,16.22
50.359,15.61
50.375,15.07
50.390,15.19
50.406,16.12
50.421,17.58
50.437,19.19
50.453,20.64
50.468,21.84
50.484,22.78
50.500,23.21
50.515,22.5
50.531,19.65
50.546,13.73
50.562,4.29
50.578,-8.35
50.593,-23.12
50.609,-38.64
50.625,-53.8
50.640,-68.11
50.656,-81.77
50.671,-95.24
50.687,-108.7
50.703,-121.69
50.718,-133.1
50.734,-141.58
50.750,-146.15
50.765,-146.66
50.781,-143.91
50.796,-139.44
50.812,-135.04
50.828,-132.25
50.843,-131.89
50.859,-133.77
50.875,-136.53
50.890,-137.75
50.906,-134.27
50.921,-123.02
50.937,-101.93
50.953,-70.86
50.968,-31.94
50.984,10.77
51.000,52.35
51.015,88.39
51.031,116.05
51.046,134.45
51.062,144.4
51.078,147.6
51.093,145.99
51.109,141.49
51.125,135.71
51.140,129.79
51.156,123.88
51.171,116.71
51.187,105.57
51.203,87.16
51.218,59.13
51.234,21.53
51.250,-22.43
51.265,-67.23
51.281,-106.89
51.296,-137.07
51.312,-156.36
51.328,-166.18
51.343,-169.45
51.359,-169.01
51.375,-166.48
51.390,-162.3
51.406,-156.33
51.421,-148.8
51.437,-140.7
51.453,-133.67
51.468,-129.4
51.484,-128.83
51.500,-131.72
51.515,-136.48
51.531,-140.59
51.546,-141.27
51.562,-136.2
51.578,-124.12
51.593,-105.13
51.609,-80.64
51.625,-52.9
51.640,-24.46
51.656,2.41
51.671,26.02
51.687,45.35
51.703,59.92
51.718,69.62
51.734,74.66
51.750,75.44
51.765,72.66
51.781,67.25
51.796,60.27
51.812,52.76
51.828,45.57
51.843,39.21
51.859,33.83
51.875,29.24
51.890,25.03
51.906,20.8
51.921,16.23
51.937,11.19
51.953,5.7
51.968,-0.18
51.984,-6.39
52.000,-12.9
52.015,-19.64
52.031,-26.49
52.046,-33.33
52.062,-40.12
52.078,-47.07
52.093,-54.69
52.109,-63.67
52.125,-74.58
52.140,-87.45
52.156,-101.31
52.171,-114.04
52.187,-122.73
52.203,-124.35
52.218,-116.74
52.234,-99.36
52.250,-73.61
52.265,-42.37
52.281,-9.19
52.296,22.76
52.312,51.3
52.328,75.41
52.343,94.88
52.359,109.87
52.375,120.44
52.390,126.64
52.406,128.53
52.421,126.54
52.437,121.52
52.453,114.63
52.468,107.03
52.484,99.65
52.500,92.93
52.515,86.91
52.531,81.38
52.546,76.04
52.562,70.69
52.578,65.28
52.593,59.84
52.609,54.46
52.625,49.21
52.640,44.18
52.656,39.41
52.671,34.91
52.687,30.61
52.703,26.28
52.718,21.49
52.734,15.67
52.750,8.19
52.765,-1.27
52.781,-12.32
52.796,-23.67
52.812,-33.19
52.828,-38.5
52.843,-37.69
52.859,-30.1
52.875,-16.6
52.890,0.66
52.906,18.93
52.921,35.71
52.937,49.3
52.953,59.03
52.968,64.94
52.984,67.48
53.000,67.19
53.015,64.56
53.031,60.06
53.046,54.19
53.062,47.48
53.078,40.46
53.093,33.57
53.109,27.12
53.125,21.25
53.140,16.02
53.156,11.39
53.171,7.28
53.187,3.57
53.203,0.14
53.218,-3.18
53.234,-6.56
53.250,-10.18
53.265,-14.19
53.281,-18.69
53.296,-23.69
53.312,-29.21
53.328,-35.28
53.343,-42.07
53.359,-49.92
53.375,-59.31
53.390,-70.61
53.406,-83.73
53.421,-97.77
53.437,-110.86
53.453,-120.44
53.468,-123.85
53.484,-119.13
53.500,-105.63
53.515,-84.3
53.531,-57.33
53.546,-27.55
53.562,2.41
53.578,30.68
53.593,56.24
53.609,78.78
53.625,98.34
53.640,115.02
53.656,128.87
53.671,139.99
53.687,148.7
53.703,155.58
53.718,161.35
53.734,166.66
53.750,171.83
53.765,176.81
53.781,181.16
53.796,184.35
53.812,185.95
53.828,185.71
53.843,183.45
53.859,178.98
53.875,172.04
53.890,162.37
53.906,150.0
53.921,135.43
53.937,119.61
53.953,103.73
53.968,88.71
53.984,74.76
54.000,61.29
54.015,47.06
54.031,30.69
54.046,11.39
54.062,-10.6
54.078,-33.81
54.093,-55.76
54.109,-73.63
54.125,-85.02
54.140,-88.59
54.156,-84.41
54.171,-73.92
54.187,-59.43
54.203,-43.54
54.218,-28.5
54.234,-15.93
54.250,-6.74
54.265,-1.26
54.281,0.57
54.296,-0.97
54.312,-5.41
54.328,-12.06
54.343,-20.1
54.359,-28.6
54.375,-36.73
54.390,-43.89
54.406,-49.81
54.421,-54.54
54.437,-58.23
54.453,-61.04
54.468,-62.99
54.484,-64.08
54.500,-64.37
54.515,-64.2
54.531,-64.21
54.546,-65.25
54.562,-68.19
54.578,-73.61
54.593,-81.64
54.609,-91.94
54.625,-103.85
54.640,-116.54
54.656,-129.3
54.671,-141.59
54.687,-153.2
54.703,-164.22
54.718,-174.9
54.734,-185.39
54.750,-195.39
54.765,-203.91
54.781,-209.21
54.796,-209.08
54.812,-201.49
54.828,-185.31
54.843,-160.8
54.859,-129.7
54.875,-94.68
54.890,-58.67
54.906,-24.14
54.921,7.31
54.937,34.87
54.953,58.28
54.968,77.49
54.984,92.52
55.000,103.5
55.015,110.79
55.031,115.0
55.046,116.94
55.062,117.45
55.078,117.25
55.093,116.83
55.109,116.43
55.125,116.12
55.140,115.85
55.156,115.49
55.171,114.93
55.187,114.12
55.203,113.04
55.218,111.72
55.234,110.05
55.250,107.81
55.265,104.66
55.281,100.29
55.296,94.63
55.312,87.96
55.328,80.89
55.343,74.06
55.359,67.88
55.375,62.34
55.390,57.04
55.406,51.35
55.421,44.76
55.437,37.07
55.453,28.51
55.468,19.82
55.484,12.15
55.500,6.86
55.515,5.36
55.531,8.64
55.546,16.96
55.562,29.71
55.578,45.46
55.593,62.33
55.609,78.43
55.625,92.21
55.640,102.71
55.656,109.41
55.671,112.21
55.687,111.28
55.703,107.03
55.718,100.07
55.734,91.18
55.750,81.29
55.765,71.4
55.781,62.43
55.796,55.09
55.812,49.72
55.828,46.24
55.843,44.16
55.859,42.79
55.875,41.53
55.890,40.08
55.906,38.52
55.921,37.09
55.937,35.97
55.953,35.05
55.968,33.92
55.984,32.04
56.000,28.99
56.015,24.68
56.031,19.4
56.046,13.7
56.062,8.14
56.078,3.12
56.093,-1.24
56.109,-5.08
56.125,-8.71
56.140,-12.48
56.156,-16.73
56.171,-21.66
56.187,-27.24
56.203,-33.03
56.218,-38.14
56.234,-41.24
56.250,-40.84
56.265,-35.63
56.281,-24.91
56.296,-8.81
56.312,11.73
56.328,35.21
56.343,59.89
56.359,84.12
56.375,106.57
56.390,126.37
56.406,143.27
56.421,157.81
56.437,171.28
56.453,185.29
56.468,201.03
56.484,218.39
56.500,235.43
56.515,248.72
56.531,254.31
56.546,249.14
56.562,232.12
56.578,204.46
56.593,169.28
56.609,130.69
56.625,92.87
56.640,59.42
56.656,33.04
56.671,15.3
56.687,6.54
56.703,5.97
56.718,11.83
56.734,22.04
56.750,34.95
56.765,49.9
56.781,67.08
56.796,86.64
56.812,107.63
56.828,127.41
56.843,142.08
56.859,147.84
56.875,142.71
56.890,127.47
56.906,105.19
56.921,79.86
56.937,54.48
56.953,30.06
56.968,5.81
56.984,-19.6
57.000,-46.91
57.015,-75.72
57.031,-104.86
57.046,-133.04
57.062,-159.07
57.078,-181.69
57.093,-199.33
57.109,-210.49
57.125,-214.51
57.140,-212.17
57.156,-205.39
57.171,-195.99
57.187,-184.07
57.203,-167.52
57.218,-143.31
57.234,-110.0
57.250,-70.08
57.265,-30.33
57.281,0.34
57.296,14.63
57.312,9.99
57.328,-10.53
57.343,-40.18
57.359,-71.82
57.375,-100.64
57.390,-124.98
57.406,-145.41
57.421,-162.98
57.437,-178.02
57.453,-190.3
57.468,-199.65
57.484,-206.6
57.500,-212.01
57.515,-216.17
57.531,-218.11
57.546,-215.69
57.562,-206.76
57.578,-190.48
57.593,-168.18
57.609,-143.33
57.625,-120.55
57.640,-104.22
57.656,-97.24
57.671,-100.36
57.687,-111.86
57.703,-127.89
57.718,-143.3
57.734,-152.73
57.750,-152.02
57.765,-139.33
57.781,-115.6
57.796,-83.93
57.812,-48.28
57.828,-12.12
57.843,22.45
57.859,54.44
57.875,83.13
57.890,107.28
57.906,124.98
57.921,134.28
57.937,134.33
57.953,126.15
57.968,112.68
57.984,97.94
58.000,85.65
58.015,77.95
58.031,75.0
58.046,75.24
58.062,76.4
58.078,76.49
58.093,74.55
58.109,70.87
58.125,66.58
58.140,62.95
58.156,60.64
58.171,59.17
58.187,57.09
58.203,52.63
58.218,44.5
58.234,32.48
58.250,17.46
58.265,1.03
58.281,-15.27
58.296,-30.45
58.312,-44.46
58.328,-58.17
58.343,-72.95
58.359,-90.03
58.375,-109.64
58.390,-130.51
58.406,-149.83
58.421,-163.99
58.437,-169.73
58.453,-165.33
58.468,-151.45
58.484,-130.89
58.500,-107.66
58.515,-85.72
58.531,-67.93
58.546,-55.69
58.562,-49.1
58.578,-47.27
58.593,-48.68
58.609,-51.59
58.625,-54.38
58.640,-56.3
58.656,-57.7
58.671,-60.1
58.687,-65.35
58.703,-74.67
58.718,-87.79
58.734,-102.96
58.750,-117.63
58.765,-129.56
58.781,-137.66
58.796,-142.07
58.812,-143.62
58.828,-143.12
58.843,-140.97
58.859,-137.29
58.875,-132.24
58.890,-126.39
58.906,-120.66
58.921,-116.04
58.937,-113.28
58.953,-112.65
58.968,-114.05
58.984,-117.16
59.000,-121.62
59.015,-126.92
59.031,-132.27
59.046,-136.39
59.062,-137.52
59.078,-133.71
59.093,-123.25
59.109,-105.26
59.125,-79.97
59.140,-48.67
59.156,-13.33
59.171,23.87
59.187,60.71
59.203,94.84
59.218,123.6
59.234,144.12
59.250,153.82
59.265,151.4
59.281,137.59
59.296,115.25
59.312,88.64
59.328,62.14
59.343,38.93
59.359,20.5
59.375,6.8
59.390,-2.93
59.406,-9.42
59.421,-12.9
59.437,-13.24
59.453,-10.3
59.468,-4.12
59.484,4.91
59.500,16.13
59.515,28.55
59.531,40.84
59.546,51.28
59.562,57.98
59.578,59.2
59.593,53.89
59.609,41.91
59.625,24.12
59.640,2.25
59.656,-21.43
59.671,-44.2
59.687,-63.18
59.703,-75.56
59.718,-79.2
59.734,-73.12
59.750,-58.07
59.765,-36.36
59.781,-11.34
59.796,13.62
59.812,35.99
59.828,54.53
59.843,69.12
59.859,80.17
59.875,88.08
59.890,92.94
59.906,94.57
59.921,92.97
59.937,88.64
59.953,82.58
59.968,76.13
59.984,70.49
