timestamp,value
00.000,43.54
00.015,38.47
00.031,33.57
00.046,29.32
00.062,26.19
00.078,24.53
00.093,24.46
00.109,25.66
00.125,27.38
00.140,28.59
00.156,28.28
00.171,25.78
00.187,20.9
00.203,13.94
00.218,5.56
00.234,-3.37
00.250,-11.82
00.265,-18.83
00.281,-23.7
00.296,-26.29
00.312,-27.11
00.328,-27.22
00.343,-27.94
00.359,-30.31
00.375,-34.92
00.390,-41.67
00.406,-49.95
00.421,-58.67
00.437,-66.48
00.453,-71.79
00.468,-73.07
00.484,-69.16
00.500,-59.77
00.515,-45.66
00.531,-28.61
00.546,-10.83
00.562,5.64
00.578,19.42
00.593,29.88
00.609,36.99
00.625,40.94
00.640,42.06
00.656,40.88
00.671,38.27
00.687,35.41
00.703,33.47
00.718,33.19
00.734,34.5
00.750,36.64
00.765,38.37
00.781,38.57
00.796,36.63
00.812,32.56
00.828,26.86
00.843,20.31
00.859,13.73
00.875,7.88
00.890,3.42
00.906,0.75
00.921,-0.2
00.937,0.04
00.953,0.45
00.968,-0.06
00.984,-2.28
01.000,-6.49
01.015,-12.41
01.031,-19.41
01.046,-26.84
01.062,-34.22
01.078,-41.19
01.093,-47.47
01.109,-52.77
01.125,-56.87
01.140,-59.75
01.156,-61.61
01.171,-62.63
01.187,-62.76
01.203,-61.57
01.218,-58.37
01.234,-52.63
01.250,-44.29
01.265,-33.95
01.281,-22.62
01.296,-11.23
01.312,-0.33
01.328,9.99
01.343,19.79
01.359,28.91
01.375,36.74
01.390,42.4
01.406,45.14
01.421,44.72
01.437,41.62
01.453,36.94
01.468,32.02
01.484,28.02
01.500,25.65
01.515,25.03
01.531,25.78
01.546,27.25
01.562,28.68
01.578,29.42
01.593,28.96
01.609,27.01
01.625,23.42
01.640,18.23
01.656,11.72
01.671,4.47
01.687,-2.64
01.703,-8.62
01.718,-12.78
01.734,-14.91
01.750,-15.5
01.765,-15.52
01.781,-16.11
01.796,-18.14
01.812,-22.09
01.828,-27.94
01.843,-35.23
01.859,-43.2
01.875,-50.74
01.890,-56.44
01.906,-58.82
01.921,-56.68
01.937,-49.57
01.953,-37.99
01.968,-23.36
01.984,-7.52
02.000,7.73
02.015,21.14
02.031,32.03
02.046,40.21
02.062,45.7
02.078,48.71
02.093,49.67
02.109,49.32
02.125,48.57
02.140,48.23
02.156,48.67
02.171,49.6
02.187,50.27
02.203,49.77
02.218,47.47
02.234,43.22
02.250,37.35
02.265,30.53
02.281,23.5
02.296,17.12
02.312,12.15
02.328,9.18
02.343,8.34
02.359,9.17
02.375,10.59
02.390,11.18
02.406,9.76
02.421,5.8
02.437,-0.54
02.453,-8.46
02.468,-17.06
02.484,-25.54
02.500,-33.39
02.515,-40.25
02.531,-45.83
02.546,-49.93
02.562,-52.53
02.578,-53.87
02.593,-54.28
02.609,-54.01
02.625,-52.93
02.640,-50.58
02.656,-46.44
02.671,-40.26
02.687,-32.3
02.703,-23.16
02.718,-13.51
02.734,-3.67
02.750,6.41
02.765,16.85
02.781,27.42
02.796,37.41
02.812,45.63
02.828,51.01
02.843,53.0
02.859,51.72
02.875,47.95
02.890,42.71
02.906,37.03
02.921,31.84
02.937,27.93
02.953,25.87
02.968,25.83
02.984,27.47
03.000,29.88
03.015,31.89
03.031,32.43
03.046,30.82
03.062,26.92
03.078,20.94
03.093,13.29
03.109,4.51
03.125,-4.62
03.140,-13.1
03.156,-19.85
03.171,-24.1
03.187,-25.8
03.203,-25.74
03.218,-25.36
03.234,-26.23
03.250,-29.49
03.265,-35.56
03.281,-44.12
03.296,-54.23
03.312,-64.45
03.328,-73.06
03.343,-78.21
03.359,-78.3
03.375,-72.5
03.390,-61.09
03.406,-45.44
03.421,-27.72
03.437,-10.17
03.453,5.44
03.468,18.1
03.484,27.51
03.500,33.77
03.515,37.17
03.531,38.21
03.546,37.67
03.562,36.48
03.578,35.54
03.593,35.36
03.609,35.84
03.625,36.36
03.640,36.09
03.656,34.44
03.671,31.29
03.687,26.92
03.703,21.83
03.718,16.52
03.734,11.43
03.750,6.97
03.765,3.63
03.781,1.75
03.796,1.4
03.812,2.14
03.828,3.13
03.843,3.3
03.859,1.79
03.875,-1.77
03.890,-7.28
03.906,-14.19
03.921,-21.78
03.937,-29.27
03.953,-35.98
03.968,-41.38
03.984,-45.27
04.000,-47.87
04.015,-49.73
04.031,-51.55
04.046,-53.82
04.062,-56.52
04.078,-59.04
04.093,-60.37
04.109,-59.47
04.125,-55.64
04.140,-48.69
04.156,-38.93
04.171,-26.97
04.187,-13.54
04.203,0.57
04.218,14.49
04.234,27.24
04.250,37.78
04.265,45.22
04.281,49.06
04.296,49.44
04.312,47.1
04.328,43.25
04.343,39.24
04.359,36.17
04.375,34.58
04.390,34.36
04.406,34.87
04.421,35.28
04.437,34.81
04.453,33.01
04.468,29.81
04.484,25.41
04.500,20.22
04.515,14.7
04.531,9.38
04.546,4.8
04.562,1.41
04.578,-0.62
04.593,-1.52
04.609,-1.9
04.625,-2.65
04.640,-4.55
04.656,-8.01
04.671,-12.98
04.687,-19.03
04.703,-25.63
04.718,-32.33
04.734,-38.8
04.750,-44.76
04.765,-49.81
04.781,-53.36
04.796,-54.74
04.812,-53.39
04.828,-49.02
04.843,-41.74
04.859,-32.06
04.875,-20.74
04.890,-8.71
04.906,3.15
04.921,14.14
04.937,23.85
04.953,32.2
04.968,39.4
04.984,45.64
05.000,50.94
05.015,55.03
05.031,57.45
05.046,57.75
05.062,55.77
05.078,51.77
05.093,46.36
05.109,40.35
05.125,34.53
05.140,29.55
05.156,25.89
05.171,23.81
05.187,23.25
05.203,23.83
05.218,24.83
05.234,25.36
05.250,24.61
05.265,22.04
05.281,17.5
05.296,11.19
05.312,3.59
05.328,-4.59
05.343,-12.49
05.359,-19.19
05.375,-23.98
05.390,-26.54
05.406,-27.24
05.421,-27.02
05.437,-27.16
05.453,-28.95
05.468,-33.18
05.484,-40.04
05.500,-48.96
05.515,-58.72
05.531,-67.49
05.546,-73.15
05.562,-73.69
05.578,-67.79
05.593,-55.3
05.609,-37.54
05.625,-16.95
05.640,3.5
05.656,21.2
05.671,34.65
05.687,43.62
05.703,48.92
05.718,51.87
05.734,53.71
05.750,55.27
05.765,56.93
05.781,58.74
05.796,60.56
05.812,62.26
05.828,63.72
05.843,64.97
05.859,66.31
05.875,68.3
05.890,71.67
05.906,76.73
05.921,82.93
05.937,88.41
05.953,90.24
05.968,85.41
05.984,72.07
06.000,50.65
06.015,23.97
06.031,-3.56
06.046,-27.56
06.062,-45.06
06.078,-55.15
06.093,-58.74
06.109,-57.48
06.125,-52.87
06.140,-45.78
06.156,-36.71
06.171,-26.28
06.187,-15.6
06.203,-6.19
06.218,0.83
06.234,5.22
06.250,7.99
06.265,11.01
06.281,16.07
06.296,24.08
06.312,34.58
06.328,46.28
06.343,58.03
06.359,69.48
06.375,80.88
06.390,92.09
06.406,101.72
06.421,107.2
06.437,106.04
06.453,97.43
06.468,83.0
06.484,66.06
06.500,49.53
06.515,34.22
06.531,18.47
06.546,-0.41
06.562,-23.73
06.578,-49.89
06.593,-74.74
06.609,-93.54
06.625,-103.56
06.640,-105.36
06.656,-102.24
06.671,-98.3
06.687,-96.49
06.703,-97.66
06.718,-100.71
06.734,-103.83
06.750,-105.65
06.765,-105.79
06.781,-104.71
06.796,-102.87
06.812,-99.96
06.828,-94.65
06.843,-85.14
06.859,-70.16
06.875,-49.83
06.890,-25.98
06.906,-1.56
06.921,20.39
06.937,37.95
06.953,50.71
06.968,59.67
06.984,66.56
07.000,72.99
07.015,80.02
07.031,88.06
07.046,97.08
07.062,106.95
07.078,117.64
07.093,129.23
07.109,141.84
07.125,155.36
07.140,169.35
07.156,182.98
07.171,195.11
07.187,204.64
07.203,210.77
07.218,213.2
07.234,212.04
07.250,207.55
07.265,199.84
07.281,188.84
07.296,174.34
07.312,156.39
07.328,135.53
07.343,112.97
07.359,90.36
07.375,69.48
07.390,51.67
07.406,37.84
07.421,28.25
07.437,22.64
07.453,20.31
07.468,20.03
07.484,20.23
07.500,19.24
07.515,15.85
07.531,9.87
07.546,2.3
07.562,-4.92
07.578,-9.87
07.593,-11.4
07.609,-9.78
07.625,-6.74
07.640,-4.73
07.656,-6.1
07.671,-12.17
07.687,-23.02
07.703,-37.73
07.718,-55.06
07.734,-74.04
07.750,-94.54
07.765,-117.32
07.781,-143.04
07.796,-170.96
07.812,-197.96
07.828,-219.04
07.843,-229.36
07.859,-226.92
07.875,-214.19
07.890,-197.41
07.906,-183.74
07.921,-177.51
07.937,-178.27
07.953,-181.42
07.968,-181.25
07.984,-174.32
08.000,-161.18
08.015,-145.37
08.031,-130.78
08.046,-119.2
08.062,-109.5
08.078,-98.98
08.093,-85.59
08.109,-69.36
08.125,-52.3
08.140,-37.37
08.156,-26.94
08.171,-21.77
08.187,-21.01
08.203,-22.84
08.218,-25.38
08.234,-27.58
08.250,-29.31
08.265,-31.1
08.281,-33.76
08.296,-37.86
08.312,-43.49
08.328,-50.27
08.343,-57.45
08.359,-64.04
08.375,-68.88
08.390,-70.79
08.406,-68.63
08.421,-61.66
08.437,-49.72
08.453,-33.29
08.468,-13.69
08.484,7.15
08.500,26.96
08.515,43.6
08.531,55.57
08.546,62.35
08.562,64.4
08.578,63.01
08.593,59.87
08.609,56.62
08.625,54.58
08.640,54.47
08.656,56.14
08.671,58.54
08.687,59.73
08.703,57.4
08.718,49.62
08.734,35.71
08.750,16.71
08.765,-4.94
08.781,-26.31
08.796,-45.11
08.812,-60.34
08.828,-72.24
08.843,-81.63
08.859,-89.14
08.875,-94.98
08.890,-99.08
08.906,-101.46
08.921,-102.4
08.937,-102.2
08.953,-100.82
08.968,-97.91
08.984,-93.19
09.000,-87.01
09.015,-80.53
09.031,-75.26
09.046,-72.19
09.062,-71.05
09.078,-70.25
09.093,-67.73
09.109,-62.1
09.125,-53.51
09.140,-43.54
09.156,-34.3
09.171,-27.28
09.187,-22.72
09.203,-19.79
09.218,-17.33
09.234,-14.67
09.250,-11.91
09.265,-9.66
09.281,-8.52
09.296,-8.68
09.312,-9.9
09.328,-11.81
09.343,-14.18
09.359,-17.03
09.375,-20.38
09.390,-24.02
09.406,-27.34
09.421,-29.5
09.437,-29.76
09.453,-27.84
09.468,-23.97
09.484,-18.94
09.500,-13.66
09.515,-9.02
09.531,-5.63
09.546,-3.69
09.562,-3.02
09.578,-3.09
09.593,-3.26
09.609,-2.96
09.625,-2.01
09.640,-0.68
09.656,0.32
09.671,0.12
09.687,-1.77
09.703,-5.14
09.718,-8.9
09.734,-11.24
09.750,-10.11
09.765,-3.92
09.781,7.91
09.796,24.65
09.812,44.34
09.828,64.26
09.843,81.7
09.859,94.5
09.875,101.53
09.890,102.66
09.906,98.49
09.921,89.98
09.937,78.15
09.953,63.94
09.968,48.25
09.984,32.0
10.000,16.17
10.015,1.73
10.031,-10.51
10.046,-20.05
10.062,-26.68
10.078,-30.45
10.093,-31.57
10.109,-30.25
10.125,-26.75
10.140,-21.36
10.156,-14.5
10.171,-6.85
10.187,0.75
10.203,7.52
10.218,12.94
10.234,16.95
10.250,20.03
10.265,22.88
10.281,26.05
10.296,29.57
10.312,32.92
10.328,35.26
10.343,35.92
10.359,34.9
10.375,32.97
10.390,31.65
10.406,32.76
10.421,37.94
10.437,48.43
10.453,64.69
10.468,86.19
10.484,111.19
10.500,136.94
10.515,160.04
10.531,177.39
10.546,186.88
10.562,188.1
10.578,182.22
10.593,171.49
10.609,158.38
10.625,144.94
10.640,132.51
10.656,121.71
10.671,112.73
10.687,105.33
10.703,98.91
10.718,92.53
10.734,85.2
10.750,76.17
10.765,65.31
10.781,53.1
10.796,40.34
10.812,27.73
10.828,15.57
10.843,3.57
10.859,-9.01
10.875,-23.11
10.890,-39.61
10.906,-59.01
10.921,-81.24
10.937,-105.48
10.953,-130.23
10.968,-153.68
10.984,-174.24
11.000,-191.13
11.015,-204.66
11.031,-216.06
11.046,-226.86
11.062,-238.13
11.078,-250.07
11.093,-261.76
11.109,-271.59
11.125,-277.76
11.140,-278.87
11.156,-274.33
11.171,-264.53
11.187,-250.67
11.203,-234.48
11.218,-217.87
11.234,-202.41
11.250,-189.1
11.265,-178.25
11.281,-169.5
11.296,-162.13
11.312,-155.31
11.328,-148.2
11.343,-140.11
11.359,-130.51
11.375,-119.03
11.390,-105.53
11.406,-90.16
11.421,-73.35
11.437,-55.75
11.453,-37.97
11.468,-20.4
11.484,-3.08
11.500,14.21
11.515,31.67
11.531,49.16
11.546,66.07
11.562,81.33
11.578,93.82
11.593,102.74
11.609,107.9
11.625,109.72
11.640,109.06
11.656,106.8
11.671,103.58
11.687,99.65
11.703,94.88
11.718,89.0
11.734,81.77
11.750,73.19
11.765,63.67
11.781,54.11
11.796,45.82
11.812,40.31
11.828,38.96
11.843,42.51
11.859,50.86
11.875,63.03
11.890,77.49
11.906,92.61
11.921,107.13
11.937,120.27
11.953,131.67
11.968,141.12
11.984,148.38
12.000,153.11
12.015,155.07
12.031,154.32
12.046,151.22
12.062,146.25
12.078,139.88
12.093,132.39
12.109,123.95
12.125,114.79
12.140,105.34
12.156,96.23
12.171,88.12
12.187,81.38
12.203,75.91
12.218,71.16
12.234,66.25
12.250,60.26
12.265,52.51
12.281,42.67
12.296,30.89
12.312,17.62
12.328,3.58
12.343,-10.47
12.359,-23.92
12.375,-36.38
12.390,-47.72
12.406,-58.07
12.421,-67.63
12.437,-76.72
12.453,-85.5
12.468,-93.88
12.484,-101.36
12.500,-106.91
12.515,-109.2
12.531,-106.88
12.546,-99.11
12.562,-85.9
12.578,-68.21
12.593,-47.65
12.609,-26.0
12.625,-4.82
12.640,14.76
12.656,32.04
12.671,46.62
12.687,58.38
12.703,67.45
12.718,74.32
12.734,79.65
12.750,84.15
12.765,88.18
12.781,91.59
12.796,93.97
12.812,94.9
12.828,94.42
12.843,93.11
12.859,91.97
12.875,91.98
12.890,93.71
12.906,97.12
12.921,101.54
12.937,105.95
12.953,109.28
12.968,110.74
12.984,109.9
13.000,106.77
13.015,101.67
13.031,95.06
13.046,87.25
13.062,78.05
13.078,66.74
13.093,52.05
13.109,32.8
13.125,8.83
13.140,-18.11
13.156,-44.13
13.171,-63.93
13.187,-72.47
13.203,-66.93
13.218,-47.72
13.234,-18.54
13.250,14.76
13.265,45.93
13.281,69.96
13.296,84.27
13.312,88.95
13.328,86.33
13.343,79.93
13.359,73.13
13.375,67.95
13.390,64.35
13.406,60.53
13.421,53.84
13.437,42.31
13.453,25.66
13.468,5.39
13.484,-16.38
13.500,-38.08
13.515,-59.38
13.531,-80.76
13.546,-102.13
13.562,-122.15
13.578,-137.83
13.593,-145.88
13.609,-144.46
13.625,-134.53
13.640,-119.94
13.656,-105.83
13.671,-96.27
13.687,-92.4
13.703,-92.32
13.718,-92.52
13.734,-90.28
13.750,-85.31
13.765,-79.78
13.781,-76.86
13.796,-78.57
13.812,-84.47
13.828,-91.89
13.843,-97.63
13.859,-99.64
13.875,-98.0
13.890,-94.5
13.906,-91.0
13.921,-88.01
13.937,-84.23
13.953,-77.23
13.968,-64.58
13.984,-45.43
14.000,-20.94
14.015,6.06
14.031,31.95
14.046,53.64
14.062,69.35
14.078,78.83
14.093,83.01
14.109,83.45
14.125,81.75
14.140,79.21
14.156,76.77
14.171,74.98
14.187,74.14
14.203,74.23
14.218,74.82
14.234,75.07
14.250,73.83
14.265,69.9
14.281,62.47
14.296,51.53
14.312,37.99
14.328,23.55
14.343,10.08
14.359,-0.94
14.375,-8.88
14.390,-14.05
14.406,-17.35
14.421,-19.78
14.437,-22.07
14.453,-24.46
14.468,-26.72
14.484,-28.48
14.500,-29.42
14.515,-29.32
14.531,-28.12
14.546,-25.92
14.562,-22.95
14.578,-19.56
14.593,-16.15
14.609,-12.93
14.625,-9.71
14.640,-5.9
14.656,-0.58
14.671,7.14
14.687,17.66
14.703,30.69
14.718,45.27
14.734,60.04
14.750,73.74
14.765,85.48
14.781,94.79
14.796,101.46
14.812,105.37
14.828,106.44
14.843,104.68
14.859,100.35
14.875,93.95
14.890,86.12
14.906,77.44
14.921,68.23
14.937,58.45
14.953,47.77
14.968,35.81
14.984,22.29
15.000,7.23
15.015,-8.96
15.031,-25.6
15.046,-41.78
15.062,-56.54
15.078,-69.12
15.093,-79.14
15.109,-86.66
15.125,-92.08
15.140,-95.97
15.156,-98.79
15.171,-100.77
15.187,-101.99
15.203,-102.56
15.218,-102.8
15.234,-103.16
15.250,-104.15
15.265,-105.9
15.281,-107.94
15.296,-109.16
15.312,-108.07
15.328,-103.32
15.343,-94.16
15.359,-80.74
15.375,-64.03
15.390,-45.46
15.406,-26.53
15.421,-8.41
15.437,8.15
15.453,22.74
15.468,35.13
15.484,45.1
15.500,52.37
15.515,56.8
15.531,58.47
15.546,57.87
15.562,55.8
15.578,53.19
15.593,50.76
15.609,48.79
15.625,47.16
15.640,45.49
15.656,43.48
15.671,41.09
15.687,38.48
15.703,35.83
15.718,33.15
15.734,30.12
15.750,26.26
15.765,21.23
15.781,15.02
15.796,8.02
15.812,0.87
15.828,-5.86
15.843,-11.83
15.859,-17.12
15.875,-22.24
15.890,-27.88
15.906,-34.7
15.921,-43.07
15.937,-52.84
15.953,-63.25
15.968,-72.98
15.984,-80.41
16.000,-83.94
16.015,-82.41
16.031,-75.37
16.046,-63.2
16.062,-46.99
16.078,-28.31
16.093,-8.85
16.109,9.93
16.125,26.99
16.140,41.77
16.156,54.04
16.171,63.77
16.187,70.96
16.203,75.54
16.218,77.54
16.234,77.23
16.250,75.07
16.265,71.75
16.281,67.96
16.296,64.19
16.312,60.69
16.328,57.41
16.343,54.24
16.359,51.08
16.375,47.93
16.390,44.79
16.406,41.6
16.421,38.23
16.437,34.41
16.453,29.86
16.468,24.44
16.484,18.21
16.500,11.5
16.515,4.75
16.531,-1.65
16.546,-7.54
16.562,-13.11
16.578,-18.81
16.593,-25.2
16.609,-32.66
16.625,-41.31
16.640,-50.88
16.656,-60.82
16.671,-70.26
16.687,-78.02
16.703,-82.75
16.718,-83.12
16.734,-78.25
16.750,-68.04
16.765,-53.41
16.781,-36.13
16.796,-18.28
16.812,-1.65
16.828,12.74
16.843,24.66
16.859,34.36
16.875,42.08
16.890,47.87
16.906,51.5
16.921,52.81
16.937,51.98
16.953,49.54
16.968,46.36
16.984,43.2
17.000,40.49
17.015,38.19
17.031,35.94
17.046,33.31
17.062,30.03
17.078,26.16
17.093,21.95
17.109,17.71
17.125,13.53
17.140,9.26
17.156,4.55
17.171,-0.85
17.187,-6.94
17.203,-13.25
17.218,-19.05
17.234,-23.64
17.250,-26.63
17.265,-28.17
17.281,-28.89
17.296,-29.7
17.312,-31.49
17.328,-34.92
17.343,-40.18
17.359,-46.99
17.375,-54.53
17.390,-61.49
17.406,-66.34
17.421,-67.66
17.437,-64.54
17.453,-56.85
17.468,-45.42
17.484,-31.67
17.500,-17.29
17.515,-3.78
17.531,7.9
17.546,17.28
17.562,24.34
17.578,29.22
17.593,32.14
17.609,33.38
17.625,33.28
17.640,32.26
17.656,30.8
17.671,29.36
17.687,28.2
17.703,27.42
17.718,26.96
17.734,26.6
17.750,26.22
17.765,25.73
17.781,25.15
17.796,24.5
17.812,23.75
17.828,22.71
17.843,21.03
17.859,18.35
17.875,14.39
17.890,9.06
17.906,2.56
17.921,-4.76
17.937,-12.48
17.953,-20.26
17.968,-27.96
17.984,-35.61
18.000,-43.37
18.015,-51.37
18.031,-59.58
18.046,-67.69
18.062,-74.96
18.078,-80.32
18.093,-82.54
18.109,-80.51
18.125,-73.65
18.140,-62.12
18.156,-46.82
18.171,-29.21
18.187,-10.94
18.203,6.55
18.218,22.19
18.234,35.31
18.250,45.59
18.265,52.95
18.281,57.47
18.296,59.47
18.312,59.45
18.328,58.12
18.343,56.21
18.359,54.21
18.375,52.28
18.390,50.22
18.406,47.67
18.421,44.23
18.437,39.76
18.453,34.36
18.468,28.43
18.484,22.41
18.500,16.76
18.515,11.8
18.531,7.78
18.546,4.81
18.562,2.85
18.578,1.75
18.593,1.22
18.609,0.91
18.625,0.47
18.640,-0.31
18.656,-1.55
18.671,-3.22
18.687,-5.24
18.703,-7.69
18.718,-10.7
18.734,-14.56
18.750,-19.52
18.765,-25.53
18.781,-32.08
18.796,-38.14
18.812,-42.33
18.828,-43.46
18.843,-40.9
18.859,-34.82
18.875,-26.15
18.890,-16.17
18.906,-6.04
18.921,3.38
18.937,11.65
18.953,18.53
18.968,23.84
18.984,27.38
19.000,29.1
19.015,29.18
19.031,28.12
19.046,26.56
19.062,25.05
19.078,23.87
19.093,22.97
19.109,22.12
19.125,21.08
19.140,19.76
19.156,18.23
19.171,16.7
19.187,15.35
19.203,14.23
19.218,13.21
19.234,11.99
19.250,10.2
19.265,7.49
19.281,3.72
19.296,-1.02
19.312,-6.38
19.328,-11.89
19.343,-17.13
19.359,-21.82
19.375,-25.98
19.390,-29.8
19.406,-33.65
19.421,-37.91
19.437,-42.95
19.453,-48.89
19.468,-55.5
19.484,-62.06
19.500,-67.43
19.515,-70.29
19.531,-69.48
19.546,-64.43
19.562,-55.33
19.578,-43.15
19.593,-29.32
19.609,-15.29
19.625,-2.21
19.640,9.18
19.656,18.58
19.671,25.95
19.687,31.32
19.703,34.78
19.718,36.46
19.734,36.61
19.750,35.61
19.765,34.0
19.781,32.29
19.796,30.8
19.812,29.63
19.828,28.63
19.843,27.51
19.859,25.98
19.875,23.92
19.890,21.43
19.906,18.66
19.921,15.83
19.937,13.02
19.953,10.21
19.968,7.22
19.984,3.91
20.000,0.18
20.015,-3.96
20.031,-8.37
20.046,-12.87
20.062,-17.31
20.078,-21.56
20.093,-25.69
20.109,-29.84
20.125,-34.26
20.140,-39.18
20.156,-44.71
20.171,-50.7
20.187,-56.68
20.203,-61.86
20.218,-65.2
20.234,-65.71
20.250,-62.71
20.265,-56.04
20.281,-46.18
20.296,-34.19
20.312,-21.31
20.328,-8.79
20.343,2.51
20.359,12.07
20.375,19.73
20.390,25.53
20.406,29.63
20.421,32.32
20.437,34.03
20.453,35.35
20.468,36.8
20.484,38.77
20.500,41.29
20.515,44.1
20.531,46.72
20.546,48.67
20.562,49.68
20.578,49.7
20.593,48.84
20.609,47.23
20.625,44.95
20.640,41.89
20.656,37.9
20.671,32.8
20.687,26.58
20.703,19.47
20.718,11.89
20.734,4.42
20.750,-2.4
20.765,-8.17
20.781,-12.76
20.796,-16.25
20.812,-18.96
20.828,-21.31
20.843,-23.81
20.859,-26.96
20.875,-31.06
20.890,-36.02
20.906,-41.13
20.921,-45.18
20.937,-46.7
20.953,-44.5
20.968,-38.07
20.984,-27.84
21.000,-15.1
21.015,-1.54
21.031,11.23
21.046,22.12
21.062,30.6
21.078,36.69
21.093,40.56
21.109,42.41
21.125,42.4
21.140,40.74
21.156,37.79
21.171,34.16
21.187,30.57
21.203,27.66
21.218,25.83
21.234,25.09
21.250,25.21
21.265,25.82
21.281,26.61
21.296,27.42
21.312,28.22
21.328,28.99
21.343,29.67
21.359,30.16
21.375,30.37
21.390,30.25
21.406,29.92
21.421,29.56
21.437,29.41
21.453,29.64
21.468,30.23
21.484,30.96
21.500,31.49
21.515,31.44
21.531,30.57
21.546,28.88
21.562,26.58
21.578,24.04
21.593,21.63
21.609,19.54
21.625,17.86
21.640,16.48
21.656,15.28
21.671,14.22
21.687,13.32
21.703,12.71
21.718,12.48
21.734,12.59
21.750,12.84
21.765,12.93
21.781,12.55
21.796,11.55
21.812,10.02
21.828,8.3
21.843,6.79
21.859,5.87
21.875,5.69
21.890,6.09
21.906,6.69
21.921,7.05
21.937,6.8
21.953,5.85
21.968,4.44
21.984,3.04
22.000,2.17
22.015,2.07
22.031,2.6
22.046,3.28
22.062,3.58
22.078,3.12
22.093,1.91
22.109,0.26
22.125,-1.31
22.140,-2.29
22.156,-2.34
22.171,-1.38
22.187,0.39
22.203,2.2
22.218,2.67
22.234,-0.1
22.250,-7.92
22.265,-21.63
22.281,-40.36
22.296,-61.37
22.312,-80.74
22.328,-94.54
22.343,-100.24
22.359,-97.42
22.375,-87.66
22.390,-73.77
22.406,-58.65
22.421,-44.45
22.437,-32.27
22.453,-22.36
22.468,-14.47
22.484,-8.32
22.500,-3.59
22.515,-0.05
22.531,2.59
22.546,4.63
22.562,6.36
22.578,7.93
22.593,9.25
22.609,9.96
22.625,9.58
22.640,7.77
22.656,4.55
22.671,0.31
22.687,-4.33
22.703,-8.87
22.718,-13.08
22.734,-17.11
22.750,-21.32
22.765,-25.94
22.781,-30.91
22.796,-35.85
22.812,-40.21
22.828,-43.58
22.843,-45.86
22.859,-47.27
22.875,-48.33
22.890,-49.59
22.906,-51.48
22.921,-54.11
22.937,-57.16
22.953,-59.87
22.968,-61.17
22.984,-59.97
23.000,-55.46
23.015,-47.46
23.031,-36.48
23.046,-23.56
23.062,-9.98
23.078,3.06
23.093,14.69
23.109,24.46
23.125,32.2
23.140,37.97
23.156,41.93
23.171,44.26
23.187,45.24
23.203,45.23
23.218,44.68
23.234,44.02
23.250,43.6
23.265,43.54
23.281,43.76
23.296,43.99
23.312,43.95
23.328,43.47
23.343,42.49
23.359,41.1
23.375,39.39
23.390,37.46
23.406,35.27
23.421,32.78
23.437,29.95
23.453,26.88
23.468,23.73
23.484,20.72
23.500,18.07
23.515,15.87
23.531,14.12
23.546,12.77
23.562,11.73
23.578,10.9
23.593,10.23
23.609,9.61
23.625,8.94
23.640,8.13
23.656,7.18
23.671,6.1
23.687,5.03
23.703,4.1
23.718,3.4
23.734,2.93
23.750,2.59
23.765,2.21
23.781,1.62
23.796,0.66
23.812,-0.7
23.828,-2.43
23.843,-4.38
23.859,-6.43
23.875,-8.48
23.890,-10.54
23.906,-12.66
23.921,-14.86
23.937,-17.1
23.953,-19.22
23.968,-21.06
23.984,-22.49
24.000,-23.54
24.015,-24.38
24.031,-25.29
24.046,-26.53
24.062,-28.25
24.078,-30.44
24.093,-32.92
24.109,-35.48
24.125,-37.91
24.140,-40.13
24.156,-42.14
24.171,-44.03
24.187,-45.98
24.203,-48.21
24.218,-50.95
24.234,-54.32
24.250,-58.11
24.265,-61.68
24.281,-63.98
24.296,-63.81
24.312,-60.19
24.328,-52.79
24.343,-42.03
24.359,-29.05
24.375,-15.3
24.390,-2.17
24.406,9.31
24.421,18.53
24.437,25.26
24.453,29.47
24.468,31.31
24.484,31.08
24.500,29.25
24.515,26.45
24.531,23.38
24.546,20.69
24.562,18.83
24.578,17.98
24.593,18.0
24.609,18.54
24.625,19.14
24.640,19.37
24.656,18.86
24.671,17.46
24.687,15.14
24.703,12.03
24.718,8.37
24.734,4.46
24.750,0.62
24.765,-2.93
24.781,-6.06
24.796,-8.83
24.812,-11.38
24.828,-13.99
24.843,-16.99
24.859,-20.62
24.875,-24.98
24.890,-29.76
24.906,-34.29
24.921,-37.54
24.937,-38.36
24.953,-35.89
24.968,-29.85
24.984,-20.71
25.000,-9.51
25.015,2.41
25.031,13.87
25.046,24.03
25.062,32.49
25.078,39.11
25.093,43.91
25.109,46.82
25.125,47.87
25.140,47.26
25.156,45.35
25.171,42.82
25.187,40.39
25.203,38.69
25.218,37.99
25.234,38.2
25.250,38.83
25.265,39.23
25.281,38.75
25.296,36.91
25.312,33.52
25.328,28.67
25.343,22.75
25.359,16.35
25.375,10.05
25.390,4.38
25.406,-0.35
25.421,-4.06
25.437,-6.98
25.453,-9.56
25.468,-12.43
25.484,-16.23
25.500,-21.38
25.515,-27.83
25.531,-34.9
25.546,-41.32
25.562,-45.52
25.578,-46.19
25.593,-42.67
25.609,-35.17
25.625,-24.65
25.640,-12.45
25.656,0.1
25.671,11.95
25.687,22.39
25.703,30.98
25.718,37.4
25.734,41.57
25.750,43.55
25.765,43.68
25.781,42.51
25.796,40.68
25.812,38.82
25.828,37.34
25.843,36.41
25.859,35.94
25.875,35.68
25.890,35.22
25.906,34.15
25.921,32.11
25.937,28.87
25.953,24.43
25.968,18.98
25.984,12.9
26.000,6.69
26.015,0.86
26.031,-4.19
26.046,-8.25
26.062,-11.35
26.078,-13.8
26.093,-16.1
26.109,-18.85
26.125,-22.64
26.140,-27.94
26.156,-34.85
26.171,-43.04
26.187,-51.62
26.203,-59.26
26.218,-64.47
26.234,-65.91
26.250,-62.81
26.265,-55.2
26.281,-43.95
26.296,-30.47
26.312,-16.39
26.328,-3.07
26.343,8.56
26.359,18.11
26.375,25.64
26.390,31.43
26.406,35.88
26.421,39.38
26.437,42.26
26.453,44.78
26.468,47.11
26.484,49.3
26.500,51.3
26.515,52.96
26.531,54.03
26.546,54.26
26.562,53.52
26.578,51.83
26.593,49.44
26.609,46.79
26.625,44.4
26.640,42.63
26.656,41.65
26.671,41.36
26.687,41.5
26.703,41.76
26.718,41.84
26.734,41.51
26.750,40.63
26.765,39.05
26.781,36.66
26.796,33.52
26.812,29.78
26.828,25.83
26.843,22.21
26.859,19.39
26.875,17.7
26.890,17.16
26.906,17.5
26.921,18.21
26.937,18.76
26.953,18.71
26.968,17.88
26.984,16.35
27.000,14.41
27.015,12.44
27.031,10.78
27.046,9.69
27.062,9.27
27.078,9.47
27.093,10.06
27.109,10.66
27.125,10.86
27.140,10.19
27.156,8.37
27.171,5.32
27.187,1.37
27.203,-2.87
27.218,-6.62
27.234,-9.21
27.250,-10.26
27.265,-9.82
27.281,-8.37
27.296,-6.59
27.312,-5.21
27.328,-4.82
27.343,-5.74
27.359,-7.97
27.375,-11.27
27.390,-15.26
27.406,-19.45
27.421,-23.42
27.437,-26.85
27.453,-29.59
27.468,-31.62
27.484,-33.11
27.500,-34.33
27.515,-35.65
27.531,-37.53
27.546,-40.35
27.562,-44.36
27.578,-49.59
27.593,-55.87
27.609,-62.82
27.625,-69.81
27.640,-75.94
27.656,-80.03
27.671,-80.93
27.687,-77.71
27.703,-70.11
27.718,-58.74
27.734,-44.97
27.750,-30.61
27.765,-17.25
27.781,-5.92
27.796,3.12
27.812,10.21
27.828,15.92
27.843,20.79
27.859,25.12
27.875,29.02
27.890,32.49
27.906,35.55
27.921,38.18
27.937,40.3
27.953,41.69
27.968,42.11
27.984,41.32
28.000,39.22
28.015,36.01
28.031,32.15
28.046,28.32
28.062,25.18
28.078,23.2
28.093,22.44
28.109,22.6
28.125,22.96
28.140,22.69
28.156,21.14
28.171,17.95
28.187,13.2
28.203,7.28
28.218,0.73
28.234,-5.88
28.250,-12.1
28.265,-17.62
28.281,-22.26
28.296,-26.04
28.312,-29.17
28.328,-32.01
28.343,-34.93
28.359,-38.06
28.375,-41.15
28.390,-43.57
28.406,-44.62
28.421,-43.66
28.437,-40.48
28.453,-35.25
28.468,-28.41
28.484,-20.38
28.500,-11.47
28.515,-1.91
28.531,8.07
28.546,18.0
28.562,27.24
28.578,35.01
28.593,40.62
28.609,43.71
28.625,44.32
28.640,42.91
28.656,40.2
28.671,37.02
28.687,34.18
28.703,32.21
28.718,31.33
28.734,31.43
28.750,32.08
28.765,32.7
28.781,32.74
28.796,31.78
28.812,29.59
28.828,26.19
28.843,21.78
28.859,16.68
28.875,11.3
28.890,6.09
28.906,1.41
28.921,-2.46
28.937,-5.5
28.953,-7.88
28.968,-9.98
28.984,-12.3
29.000,-15.29
29.015,-19.26
29.031,-24.31
29.046,-30.35
29.062,-37.07
29.078,-44.02
29.093,-50.63
29.109,-56.18
29.125,-59.99
29.140,-61.42
29.156,-60.06
29.171,-55.87
29.187,-49.25
29.203,-40.99
29.218,-32.06
29.234,-23.37
29.250,-15.55
29.265,-8.85
29.281,-3.11
29.296,2.09
29.312,7.25
29.328,12.74
29.343,18.7
29.359,24.96
29.375,31.07
29.390,36.4
29.406,40.3
29.421,42.27
29.437,42.1
29.453,39.99
29.468,36.47
29.484,32.3
29.500,28.25
29.515,24.92
29.531,22.65
29.546,21.49
29.562,21.2
29.578,21.32
29.593,21.29
29.609,20.58
29.625,18.77
29.640,15.67
29.656,11.31
29.671,5.96
29.687,0.02
29.703,-6.04
29.718,-11.8
29.734,-16.87
29.750,-20.97
29.765,-23.98
29.781,-26.01
29.796,-27.43
29.812,-28.86
29.828,-30.98
29.843,-34.31
29.859,-39.09
29.875,-45.18
29.890,-52.09
29.906,-59.05
29.921,-65.13
29.937,-69.32
29.953,-70.73
29.968,-68.71
29.984,-63.2
30.000,-54.77
30.015,-44.59
30.031,-34.08
30.046,-24.41
30.062,-16.24
30.078,-9.55
30.093,-3.88
30.109,1.34
30.125,6.54
30.140,11.82
30.156,17.02
30.171,21.88
30.187,26.15
30.203,29.64
30.218,32.22
30.234,33.69
30.250,33.89
30.265,32.74
30.281,30.37
30.296,27.14
30.312,23.6
30.328,20.42
30.343,18.13
30.359,17.01
30.375,16.96
30.390,17.57
30.406,18.26
30.421,18.49
30.437,17.95
30.453,16.53
30.468,14.35
30.484,11.53
30.500,8.1
30.515,4.04
30.531,-0.63
30.546,-5.68
30.562,-10.64
30.578,-14.82
30.593,-17.71
30.609,-19.11
30.625,-19.37
30.640,-19.29
30.656,-19.84
30.671,-21.83
30.687,-25.71
30.703,-31.37
30.718,-38.17
30.734,-45.18
30.750,-51.17
30.765,-54.99
30.781,-55.71
30.796,-52.84
30.812,-46.53
30.828,-37.52
30.843,-26.97
30.859,-16.16
30.875,-6.17
30.890,2.38
30.906,9.3
30.921,14.79
30.937,19.24
30.953,23.04
30.968,26.54
30.984,29.96
31.000,33.45
31.015,36.99
31.031,40.42
31.046,43.36
31.062,45.43
31.078,46.28
31.093,45.8
31.109,44.14
31.125,41.69
31.140,38.9
31.156,36.18
31.171,33.85
31.187,32.04
31.203,30.8
31.218,30.06
31.234,29.64
31.250,29.27
31.265,28.6
31.281,27.24
31.296,24.9
31.312,21.45
31.328,16.96
31.343,11.77
31.359,6.34
31.375,1.25
31.390,-2.96
31.406,-5.9
31.421,-7.44
31.437,-7.77
31.453,-7.36
31.468,-6.91
31.484,-7.17
31.500,-8.7
31.515,-11.71
31.531,-15.85
31.546,-20.22
31.562,-23.52
31.578,-24.3
31.593,-21.45
31.609,-14.52
31.625,-3.92
31.640,9.25
31.656,23.53
31.671,37.57
31.687,50.47
31.703,61.9
31.718,71.99
31.734,81.12
31.750,89.65
31.765,97.82
31.781,105.7
31.796,113.28
31.812,120.47
31.828,127.17
31.843,133.28
31.859,138.66
31.875,143.18
31.890,146.63
31.906,148.65
31.921,148.72
31.937,146.22
31.953,140.58
31.968,131.46
31.984,118.95
32.000,103.57
32.015,86.24
32.031,68.13
32.046,50.26
32.062,33.28
32.078,17.29
32.093,1.9
32.109,-13.44
32.125,-28.96
32.140,-44.21
32.156,-58.03
32.171,-68.83
32.187,-75.18
32.203,-76.49
32.218,-73.38
32.234,-67.79
32.250,-62.67
32.265,-61.25
32.281,-66.3
32.296,-79.2
32.312,-99.37
32.328,-124.09
32.343,-149.17
32.359,-170.01
32.375,-183.1
32.390,-187.04
32.406,-182.74
32.421,-172.81
32.437,-160.36
32.453,-147.89
32.468,-136.86
32.484,-127.69
32.500,-120.28
32.515,-114.41
32.531,-109.8
32.546,-106.02
32.562,-102.31
32.578,-97.71
32.593,-91.26
32.609,-82.5
32.625,-71.68
32.640,-59.71
32.656,-47.76
32.671,-36.94
32.687,-27.75
32.703,-20.0
32.718,-12.95
32.734,-5.66
32.750,2.56
32.765,11.9
32.781,22.02
32.796,32.32
32.812,42.32
32.828,51.94
32.843,61.47
32.859,71.44
32.875,82.22
32.890,93.91
32.906,106.3
32.921,119.06
32.937,131.97
32.953,144.91
32.968,157.67
32.984,169.79
33.000,180.38
33.015,188.28
33.031,192.45
33.046,192.42
33.062,188.63
33.078,182.39
33.093,175.62
33.109,170.26
33.125,167.85
33.140,169.01
33.156,173.31
33.171,179.22
33.187,184.41
33.203,186.4
33.218,183.32
33.234,174.66
33.250,161.6
33.265,146.75
33.281,133.23
33.296,123.64
33.312,119.04
33.328,118.71
33.343,120.34
33.359,120.79
33.375,117.03
33.390,106.85
33.406,89.42
33.421,65.37
33.437,36.65
33.453,5.95
33.468,-24.11
33.484,-51.88
33.500,-77.01
33.515,-100.27
33.531,-122.76
33.546,-144.94
33.562,-165.95
33.578,-183.87
33.593,-196.55
33.609,-202.77
33.625,-203.04
33.640,-199.49
33.656,-195.08
33.671,-192.29
33.687,-192.16
33.703,-194.07
33.718,-196.3
33.734,-197.05
33.750,-195.41
33.765,-191.67
33.781,-186.95
33.796,-182.55
33.812,-179.21
33.828,-176.92
33.843,-175.16
33.859,-173.41
33.875,-171.46
33.890,-169.33
33.906,-166.99
33.921,-163.88
33.937,-159.0
33.953,-151.21
33.968,-139.96
33.984,-125.67
34.000,-109.67
34.015,-93.72
34.031,-79.25
34.046,-66.96
34.062,-56.72
34.078,-48.01
34.093,-40.31
34.109,-33.33
34.125,-27.06
34.140,-21.58
34.156,-16.91
34.171,-12.99
34.187,-9.72
34.203,-7.06
34.218,-5.01
34.234,-3.52
34.250,-2.37
34.265,-1.25
34.281,0.21
34.296,2.15
34.312,4.42
34.328,6.63
34.343,8.27
34.359,8.89
34.375,8.24
34.390,6.32
34.406,3.28
34.421,-0.59
34.437,-4.96
34.453,-9.49
34.468,-13.82
34.484,-17.73
34.500,-21.19
34.515,-24.43
34.531,-27.81
34.546,-31.8
34.562,-36.69
34.578,-42.55
34.593,-49.11
34.609,-55.72
34.625,-61.49
34.640,-65.44
34.656,-66.61
34.671,-64.41
34.687,-58.71
34.703,-49.93
34.718,-38.86
34.734,-26.58
34.750,-14.14
34.765,-2.39
34.781,8.09
34.796,16.96
34.812,24.08
34.828,29.44
34.843,33.16
34.859,35.49
34.875,36.77
34.890,37.41
34.906,37.84
34.921,38.4
34.937,39.21
34.953,40.16
34.968,40.93
34.984,41.08
35.000,40.24
35.015,38.24
35.031,35.2
35.046,31.5
35.062,27.62
35.078,23.95
35.093,20.67
35.109,17.74
35.125,14.99
35.140,12.12
35.156,8.89
35.171,5.14
35.187,0.75
35.203,-4.28
35.218,-9.87
35.234,-15.89
35.250,-22.21
35.265,-28.73
35.281,-35.4
35.296,-42.22
35.312,-49.17
35.328,-56.15
35.343,-62.9
35.359,-68.91
35.375,-73.45
35.390,-75.71
35.406,-74.98
35.421,-70.85
35.437,-63.48
35.453,-53.55
35.468,-42.13
35.484,-30.37
35.500,-19.18
35.515,-9.01
35.531,0.01
35.546,7.98
35.562,14.97
35.578,20.91
35.593,25.62
35.609,28.97
35.625,31.0
35.640,32.02
35.656,32.52
35.671,33.01
35.687,33.84
35.703,35.11
35.718,36.68
35.734,38.28
35.750,39.64
35.765,40.67
35.781,41.39
35.796,41.77
35.812,41.6
35.828,40.45
35.843,37.84
35.859,33.52
35.875,27.69
35.890,21.01
35.906,14.32
35.921,8.44
35.937,3.83
35.953,0.57
35.968,-1.61
35.984,-3.19
36.000,-4.73
36.015,-6.75
36.031,-9.75
36.046,-14.14
36.062,-20.16
36.078,-27.68
36.093,-36.06
36.109,-44.09
36.125,-50.24
36.140,-53.03
36.156,-51.4
36.171,-45.2
36.187,-35.23
36.203,-22.99
36.218,-10.17
36.234,1.81
36.250,12.21
36.265,20.82
36.281,27.71
36.296,33.0
36.312,36.72
36.328,38.89
36.343,39.64
36.359,39.3
36.375,38.33
36.390,37.22
36.406,36.26
36.421,35.52
36.437,34.84
36.453,33.95
36.468,32.62
36.484,30.81
36.500,28.72
36.515,26.73
36.531,25.25
36.546,24.52
36.562,24.53
36.578,24.97
36.593,25.37
36.609,25.25
36.625,24.38
36.640,22.75
36.656,20.7
36.671,18.71
36.687,17.29
36.703,16.83
36.718,17.5
36.734,19.09
36.750,21.13
36.765,22.88
36.781,23.59
36.796,22.78
36.812,20.46
36.828,17.21
36.843,14.08
36.859,12.3
36.875,12.78
36.890,15.93
36.906,21.45
36.921,28.54
36.937,36.18
36.953,43.43
36.968,49.61
36.984,54.33
37.000,57.38
37.015,58.64
37.031,58.0
37.046,55.49
37.062,51.34
37.078,46.09
37.093,40.49
37.109,35.31
37.125,30.99
37.140,27.52
37.156,24.46
37.171,21.24
37.187,17.53
37.203,13.41
37.218,9.33
37.234,5.79
37.250,2.99
37.265,0.67
37.281,-1.8
37.296,-5.18
37.312,-9.98
37.328,-16.37
37.343,-24.06
37.359,-32.47
37.375,-40.83
37.390,-48.38
37.406,-54.56
37.421,-59.2
37.437,-62.7
37.453,-65.92
37.468,-69.85
37.484,-75.12
37.500,-81.51
37.515,-87.8
37.531,-92.18
37.546,-92.85
37.562,-88.66
37.578,-79.56
37.593,-66.64
37.609,-51.64
37.625,-36.49
37.640,-22.86
37.656,-11.85
37.671,-3.94
37.687,0.96
37.703,3.36
37.718,4.12
37.734,4.21
37.750,4.54
37.765,5.6
37.781,7.4
37.796,9.42
37.812,10.89
37.828,11.09
37.843,9.72
37.859,7.0
37.875,3.57
37.890,0.31
37.906,-2.06
37.921,-3.11
37.937,-2.86
37.953,-1.66
37.968,0.01
37.984,1.62
38.000,2.73
38.015,3.02
38.031,2.32
38.046,0.58
38.062,-2.09
38.078,-5.46
38.093,-9.24
38.109,-13.26
38.125,-17.57
38.140,-22.48
38.156,-28.36
38.171,-35.28
38.187,-42.75
38.203,-49.63
38.218,-54.49
38.234,-56.05
38.250,-53.7
38.265,-47.68
38.281,-38.95
38.296,-28.75
38.312,-18.19
38.328,-8.02
38.343,1.41
38.359,9.96
38.375,17.58
38.390,24.26
38.406,30.04
38.421,34.99
38.437,39.27
38.453,43.06
38.468,46.56
38.484,50.1
38.500,54.01
38.515,58.36
38.531,62.84
38.546,66.56
38.562,68.39
38.578,67.43
38.593,63.55
38.609,57.53
38.625,50.89
38.640,45.15
38.656,41.2
38.671,38.96
38.687,37.5
38.703,35.64
38.718,32.42
38.734,27.54
38.750,21.35
38.765,14.62
38.781,8.08
38.796,2.25
38.812,-2.7
38.828,-6.98
38.843,-11.0
38.859,-15.24
38.875,-20.04
38.890,-25.43
38.906,-30.98
38.921,-35.92
38.937,-39.29
38.953,-40.17
38.968,-38.09
38.984,-32.99
39.000,-25.32
39.015,-15.85
39.031,-5.41
39.046,5.34
39.062,15.82
39.078,25.58
39.093,34.09
39.109,40.72
39.125,44.87
39.140,46.2
39.156,44.74
39.171,40.96
39.187,35.62
39.203,29.54
39.218,23.34
39.234,17.39
39.250,11.76
39.265,6.51
39.281,1.83
39.296,-1.9
39.312,-4.36
39.328,-5.45
39.343,-5.54
39.359,-5.33
39.375,-5.68
39.390,-7.14
39.406,-9.82
39.421,-13.29
39.437,-16.92
39.453,-20.21
39.468,-23.01
39.484,-25.59
39.500,-28.39
39.515,-31.85
39.531,-36.2
39.546,-41.48
39.562,-47.64
39.578,-54.53
39.593,-61.82
39.609,-68.88
39.625,-74.73
39.640,-78.05
39.656,-77.6
39.671,-72.62
39.687,-63.12
39.703,-50.04
39.718,-34.94
39.734,-19.54
39.750,-5.16
39.765,7.53
39.781,18.49
39.796,28.02
39.812,36.41
39.828,43.63
39.843,49.45
39.859,53.58
39.875,55.97
39.890,56.93
39.906,57.02
39.921,56.75
39.937,56.41
39.953,55.89
39.968,54.87
39.984,53.04
40.000,50.3
40.015,46.88
40.031,43.22
40.046,39.85
40.062,37.05
40.078,34.81
40.093,32.82
40.109,30.51
40.125,27.36
40.140,22.99
40.156,17.35
40.171,10.7
40.187,3.51
40.203,-3.62
40.218,-10.26
40.234,-16.2
40.250,-21.52
40.265,-26.55
40.281,-31.72
40.296,-37.45
40.312,-43.95
40.328,-51.12
40.343,-58.36
40.359,-64.7
40.375,-68.89
40.390,-69.69
40.406,-66.27
40.421,-58.47
40.437,-46.91
40.453,-32.84
40.468,-17.76
40.484,-3.07
40.500,10.28
40.515,21.83
40.531,31.49
40.546,39.31
40.562,45.29
40.578,49.34
40.593,51.43
40.609,51.71
40.625,50.64
40.640,48.86
40.656,47.08
40.671,45.79
40.687,45.05
40.703,44.66
40.718,44.18
40.734,43.24
40.750,41.67
40.765,39.47
40.781,36.79
40.796,33.72
40.812,30.32
40.828,26.57
40.843,22.52
40.859,18.28
40.875,13.99
40.890,9.77
40.906,5.67
40.921,1.6
40.937,-2.59
40.953,-7.04
40.968,-11.83
40.984,-16.96
41.000,-22.41
41.015,-28.18
41.031,-34.34
41.046,-40.94
41.062,-48.0
41.078,-55.37
41.093,-62.63
41.109,-69.06
41.125,-73.64
41.140,-75.31
41.156,-73.23
41.171,-67.09
41.187,-57.26
41.203,-44.78
41.218,-31.04
41.234,-17.36
41.250,-4.7
41.265,6.49
41.281,16.22
41.296,24.63
41.312,31.78
41.328,37.54
41.343,41.65
41.359,43.96
41.375,44.58
41.390,43.82
41.406,42.19
41.421,40.18
41.437,38.13
41.453,36.18
41.468,34.38
41.484,32.71
41.500,31.23
41.515,30.01
41.531,29.08
41.546,28.36
41.562,27.68
41.578,26.7
41.593,25.06
41.609,22.41
41.625,18.59
41.640,13.6
41.656,7.76
41.671,1.59
41.687,-4.31
41.703,-9.46
41.718,-13.63
41.734,-16.98
41.750,-19.91
41.765,-22.99
41.781,-26.78
41.796,-31.67
41.812,-37.87
41.828,-45.26
41.843,-53.47
41.859,-61.74
41.875,-68.86
41.890,-73.44
41.906,-74.13
41.921,-70.1
41.937,-61.31
41.953,-48.6
41.968,-33.44
41.984,-17.53
42.000,-2.4
42.015,10.91
42.031,21.87
42.046,30.35
42.062,36.48
42.078,40.5
42.093,42.71
42.109,43.49
42.125,43.36
42.140,42.86
42.156,42.48
42.171,42.48
42.187,42.82
42.203,43.19
42.218,43.11
42.234,42.14
42.250,40.11
42.265,37.16
42.281,33.71
42.296,30.26
42.312,27.22
42.328,24.74
42.343,22.74
42.359,20.93
42.375,18.97
42.390,16.53
42.406,13.39
42.421,9.45
42.437,4.77
42.453,-0.46
42.468,-5.96
42.484,-11.4
42.500,-16.53
42.515,-21.33
42.531,-25.98
42.546,-30.88
42.562,-36.39
42.578,-42.66
42.593,-49.34
42.609,-55.6
42.625,-60.16
42.640,-61.73
42.656,-59.37
42.671,-52.78
42.687,-42.41
42.703,-29.24
42.718,-14.54
42.734,0.47
42.750,14.79
42.765,27.71
42.781,38.75
42.796,47.56
42.812,53.96
42.828,57.88
42.843,59.48
42.859,59.17
42.875,57.57
42.890,55.43
42.906,53.43
42.921,52.06
42.937,51.49
42.953,51.64
42.968,52.23
42.984,52.99
43.000,53.71
43.015,54.26
43.031,54.54
43.046,54.39
43.062,53.62
43.078,52.11
43.093,49.87
43.109,47.14
43.125,44.25
43.140,41.57
43.156,39.35
43.171,37.62
43.187,36.24
43.203,34.98
43.218,33.59
43.234,31.83
43.250,29.6
43.265,26.88
43.281,23.87
43.296,20.86
43.312,18.25
43.328,16.38
43.343,15.35
43.359,15.09
43.375,15.23
43.390,15.4
43.406,15.27
43.421,14.69
43.437,13.67
43.453,12.31
43.468,10.71
43.484,8.88
43.500,6.89
43.515,4.85
43.531,2.91
43.546,1.24
43.562,-0.05
43.578,-1.03
43.593,-1.89
43.609,-2.87
43.625,-4.19
43.640,-5.9
43.656,-7.94
43.671,-10.21
43.687,-12.66
43.703,-15.32
43.718,-18.27
43.734,-21.52
43.750,-24.96
43.765,-28.41
43.781,-31.65
43.796,-34.54
43.812,-37.07
43.828,-39.35
43.843,-41.66
43.859,-44.32
43.875,-47.68
43.890,-51.98
43.906,-57.27
43.921,-63.3
43.937,-69.59
43.953,-75.52
43.968,-80.53
43.984,-84.4
44.000,-87.33
44.015,-89.96
44.031,-93.17
44.046,-97.76
44.062,-104.03
44.078,-111.49
44.093,-118.83
44.109,-124.08
44.125,-125.18
44.140,-120.58
44.156,-109.83
44.171,-93.72
44.187,-74.05
44.203,-53.12
44.218,-33.01
44.234,-15.1
44.250,-0.06
44.265,12.0
44.281,21.23
44.296,27.75
44.312,31.76
44.328,33.64
44.343,33.99
44.359,33.66
44.375,33.51
44.390,34.0
44.406,35.16
44.421,36.55
44.437,37.57
44.453,37.78
44.468,37.1
44.484,35.72
44.500,33.98
44.515,32.1
44.531,30.12
44.546,27.9
44.562,25.26
44.578,22.05
44.593,18.23
44.609,13.89
44.625,9.13
44.640,4.14
44.656,-0.88
44.671,-5.81
44.687,-10.6
44.703,-15.42
44.718,-20.63
44.734,-26.6
44.750,-33.61
44.765,-41.73
44.781,-50.54
44.796,-59.25
44.812,-66.64
44.828,-71.3
44.843,-71.97
44.859,-67.94
44.875,-59.33
44.890,-47.18
44.906,-33.14
44.921,-18.97
44.937,-6.03
44.953,4.97
44.968,14.02
44.984,21.39
45.000,27.39
45.015,32.13
45.031,35.51
45.046,37.42
45.062,37.89
45.078,37.12
45.093,35.43
45.109,33.15
45.125,30.5
45.140,27.66
45.156,24.79
45.171,22.09
45.187,19.81
45.203,18.17
45.218,17.19
45.234,16.57
45.250,15.82
45.265,14.3
45.281,11.51
45.296,7.26
45.312,1.72
45.328,-4.64
45.343,-11.26
45.359,-17.62
45.375,-23.43
45.390,-28.65
45.406,-33.47
45.421,-38.22
45.437,-43.26
45.453,-48.77
45.468,-54.51
45.484,-59.74
45.500,-63.25
45.515,-63.74
45.531,-60.22
45.546,-52.35
45.562,-40.7
45.578,-26.47
45.593,-11.1
45.609,4.04
45.625,18.05
45.640,30.35
45.656,40.69
45.671,48.88
45.687,54.78
45.703,58.23
45.718,59.28
45.734,58.18
45.750,55.47
45.765,51.9
45.781,48.18
45.796,44.97
45.812,42.57
45.828,40.96
45.843,39.86
45.859,38.87
45.875,37.71
45.890,36.14
45.906,34.01
45.921,31.07
45.937,27.02
45.953,21.57
45.968,14.69
45.984,6.72
46.000,-1.61
46.015,-9.43
46.031,-16.11
46.046,-21.49
46.062,-25.98
46.078,-30.36
46.093,-35.51
46.109,-42.05
46.125,-50.1
46.140,-59.13
46.156,-67.95
46.171,-74.93
46.187,-78.33
46.203,-76.77
46.218,-69.66
46.234,-57.47
46.250,-41.64
46.265,-24.15
46.281,-6.96
46.296,8.5
46.312,21.5
46.328,31.89
46.343,39.83
46.359,45.48
46.375,48.96
46.390,50.34
46.406,49.95
46.421,48.3
46.437,46.11
46.453,43.99
46.468,42.3
46.484,40.95
46.500,39.58
46.515,37.77
46.531,35.33
46.546,32.35
46.562,29.16
46.578,26.13
46.593,23.41
46.609,20.84
46.625,17.98
46.640,14.32
46.656,9.59
46.671,3.94
46.687,-2.07
46.703,-7.68
46.718,-12.21
46.734,-15.41
46.750,-17.55
46.765,-19.35
46.781,-21.67
46.796,-25.19
46.812,-30.07
46.828,-35.86
46.843,-41.53
46.859,-45.79
46.875,-47.29
46.890,-45.09
46.906,-38.85
46.921,-29.0
46.937,-16.64
46.953,-3.21
46.968,9.87
46.984,21.51
47.000,31.14
47.015,38.61
47.031,44.0
47.046,47.46
47.062,49.1
47.078,49.13
47.093,47.91
47.109,45.93
47.125,43.77
47.140,41.83
47.156,40.19
47.171,38.63
47.187,36.8
47.203,34.44
47.218,31.63
47.234,28.67
47.250,25.95
47.265,23.81
47.281,22.32
47.296,21.35
47.312,20.56
47.328,19.56
47.343,17.93
47.359,15.32
47.375,11.56
47.390,6.74
47.406,1.25
47.421,-4.29
47.437,-9.25
47.453,-13.33
47.468,-16.63
47.484,-19.68
47.500,-23.24
47.515,-27.93
47.531,-34.1
47.546,-41.53
47.562,-49.5
47.578,-56.78
47.593,-61.71
47.609,-62.6
47.625,-58.23
47.640,-48.39
47.656,-34.13
47.671,-17.57
47.687,-1.15
47.703,13.22
47.718,24.76
47.734,33.86
47.750,41.45
47.765,48.22
47.781,54.13
47.796,58.46
47.812,60.33
47.828,59.32
47.843,55.76
47.859,50.63
47.875,45.03
47.890,39.76
47.906,35.05
47.921,30.77
47.937,26.67
47.953,22.62
47.968,18.72
47.984,15.1
48.000,11.84
48.015,8.8
48.031,5.69
48.046,2.15
48.062,-2.05
48.078,-6.97
48.093,-12.41
48.109,-18.07
48.125,-23.52
48.140,-28.43
48.156,-32.61
48.171,-36.08
48.187,-39.14
48.203,-42.22
48.218,-45.83
48.234,-50.32
48.250,-55.84
48.265,-62.17
48.281,-68.8
48.296,-74.9
48.312,-79.41
48.328,-81.19
48.343,-79.2
48.359,-72.85
48.375,-62.18
48.390,-47.99
48.406,-31.68
48.421,-14.89
48.437,1.03
48.453,15.3
48.468,27.72
48.484,38.5
48.500,47.9
48.515,55.97
48.531,62.58
48.546,67.47
48.562,70.42
48.578,71.51
48.593,71.03
48.609,69.43
48.625,67.15
48.640,64.57
48.656,61.92
48.671,59.34
48.687,56.92
48.703,54.72
48.718,52.77
48.734,51.05
48.750,49.41
48.765,47.61
48.781,45.33
48.796,42.24
48.812,38.16
48.828,33.1
48.843,27.21
48.859,20.81
48.875,14.2
48.890,7.61
48.906,1.25
48.921,-4.74
48.937,-10.37
48.953,-15.6
48.968,-20.59
48.984,-25.57
49.000,-30.86
49.015,-36.91
49.031,-44.05
49.046,-52.44
49.062,-61.78
49.078,-71.19
49.093,-79.26
49.109,-84.25
49.125,-84.66
49.140,-79.66
49.156,-69.49
49.171,-55.34
49.187,-38.97
49.203,-22.2
49.218,-6.34
49.234,7.95
49.250,20.48
49.265,31.33
49.281,40.56
49.296,48.1
49.312,53.82
49.328,57.76
49.343,60.1
49.359,61.17
49.375,61.38
49.390,61.01
49.406,60.16
49.421,58.84
49.437,57.01
49.453,54.72
49.468,52.14
49.484,49.52
49.500,47.09
49.515,44.99
49.531,43.11
49.546,41.16
49.562,38.81
49.578,35.79
49.593,32.02
49.609,27.61
49.625,22.77
49.640,17.7
49.656,12.46
49.671,7.02
49.687,1.27
49.703,-4.79
49.718,-11.02
49.734,-17.13
49.750,-22.82
49.765,-27.91
49.781,-32.38
49.796,-36.47
49.812,-40.55
49.828,-45.06
49.843,-50.44
49.859,-56.98
49.875,-64.71
49.890,-73.23
49.906,-81.64
49.921,-88.55
49.937,-92.44
49.953,-92.02
49.968,-86.73
49.984,-76.93
50.000,-63.8
50.015,-48.94
50.031,-33.87
50.046,-19.67
50.062,-6.9
50.078,4.31
50.093,14.05
50.109,22.37
50.125,29.31
50.140,34.84
50.156,39.0
50.171,41.93
50.187,43.86
50.203,45.01
50.218,45.52
50.234,45.43
50.250,44.71
50.265,43.32
50.281,41.35
50.296,39.03
50.312,36.75
50.328,34.86
50.343,33.6
50.359,32.93
50.375,32.5
50.390,31.83
50.406,30.46
50.421,28.15
50.437,24.97
50.453,21.17
50.468,17.02
50.484,12.67
50.500,8.1
50.515,3.17
50.531,-2.2
50.546,-7.96
50.562,-13.83
50.578,-19.43
50.593,-24.43
50.609,-28.66
50.625,-32.27
50.640,-35.64
50.656,-39.32
50.671,-43.89
50.687,-49.72
50.703,-56.81
50.718,-64.69
50.734,-72.37
50.750,-78.49
50.765,-81.66
50.781,-80.78
50.796,-75.37
50.812,-65.77
50.828,-53.05
50.843,-38.74
50.859,-24.42
50.875,-11.32
50.890,-0.08
50.906,9.23
50.921,16.89
50.937,23.33
50.953,28.88
50.968,33.64
50.984,37.57
51.000,40.6
51.015,42.72
51.031,44.07
51.046,44.83
51.062,45.16
51.078,45.12
51.093,44.7
51.109,43.94
51.125,42.86
51.140,41.6
51.156,40.32
51.171,39.12
51.187,37.95
51.203,36.66
51.218,35.04
51.234,32.92
51.250,30.24
51.265,26.99
51.281,23.18
51.296,18.73
51.312,13.55
51.328,7.63
51.343,1.24
51.359,-5.16
51.375,-11.04
51.390,-16.04
51.406,-20.14
51.421,-23.69
51.437,-27.24
51.453,-31.35
51.468,-36.46
51.484,-42.73
51.500,-50.07
51.515,-58.0
51.531,-65.6
51.546,-71.49
51.562,-74.11
51.578,-72.16
51.593,-65.12
51.609,-53.54
51.625,-38.9
51.640,-23.15
51.656,-8.03
51.671,5.31
51.687,16.51
51.703,25.67
51.718,33.14
51.734,39.14
51.750,43.75
51.765,46.93
51.781,48.76
51.796,49.52
51.812,49.56
51.828,49.29
51.843,48.95
51.859,48.57
51.875,48.04
51.890,47.21
51.906,45.97
51.921,44.33
51.937,42.37
51.953,40.2
51.968,37.87
51.984,35.38
52.000,32.69
52.015,29.79
52.031,26.67
52.046,23.4
52.062,19.96
52.078,16.28
52.093,12.24
52.109,7.67
52.125,2.46
52.140,-3.43
52.156,-9.85
52.171,-16.46
52.187,-22.82
52.203,-28.49
52.218,-33.25
52.234,-37.19
52.250,-40.75
52.265,-44.65
52.281,-49.68
52.296,-56.35
52.312,-64.71
52.328,-74.08
52.343,-83.13
52.359,-90.1
52.375,-93.26
52.390,-91.46
52.406,-84.4
52.421,-72.8
52.437,-58.08
52.453,-41.98
52.468,-26.02
52.484,-11.27
52.500,1.74
52.515,12.86
52.531,22.16
52.546,29.76
52.562,35.71
52.578,40.12
52.593,43.11
52.609,44.92
52.625,45.84
52.640,46.19
52.656,46.12
52.671,45.69
52.687,44.79
52.703,43.35
52.718,41.44
52.734,39.32
52.750,37.35
52.765,35.88
52.781,34.99
52.796,34.45
52.812,33.82
52.828,32.61
52.843,30.48
52.859,27.42
52.875,23.59
52.890,19.3
52.906,14.75
52.921,10.0
52.937,4.94
52.953,-0.57
52.968,-6.54
52.984,-12.83
53.000,-19.11
53.015,-25.05
53.031,-30.44
53.046,-35.25
53.062,-39.71
53.078,-44.19
53.093,-49.08
53.109,-54.72
53.125,-61.34
53.140,-68.88
53.156,-77.02
53.171,-84.98
53.187,-91.63
53.203,-95.61
53.218,-95.58
53.234,-90.78
53.250,-81.21
53.265,-67.82
53.281,-52.17
53.296,-36.07
53.312,-21.03
53.328,-7.98
53.343,2.82
53.359,11.64
53.375,18.93
53.390,25.11
53.406,30.39
53.421,34.77
53.437,38.18
53.453,40.56
53.468,41.99
53.484,42.66
53.500,42.8
53.515,42.56
53.531,41.97
53.546,40.98
53.562,39.65
53.578,38.09
53.593,36.53
53.609,35.11
53.625,33.84
53.640,32.5
53.656,30.79
53.671,28.46
53.687,25.46
53.703,21.93
53.718,18.04
53.734,13.93
53.750,9.52
53.765,4.74
53.781,-0.5
53.796,-6.08
53.812,-11.71
53.828,-17.04
53.843,-21.82
53.859,-26.0
53.875,-29.72
53.890,-33.34
53.906,-37.28
53.921,-41.99
53.937,-47.84
53.953,-54.97
53.968,-63.17
53.984,-71.64
54.000,-79.05
54.015,-83.76
54.031,-84.28
54.046,-79.78
54.062,-70.37
54.078,-57.09
54.093,-41.55
54.109,-25.51
54.125,-10.35
54.140,3.13
54.156,14.59
54.171,24.06
54.187,31.72
54.203,37.79
54.218,42.47
54.234,46.02
54.250,48.63
54.265,50.53
54.281,51.84
54.296,52.63
54.312,52.92
54.328,52.68
54.343,51.92
54.359,50.68
54.375,49.09
54.390,47.31
54.406,45.5
54.421,43.77
54.437,42.14
54.453,40.5
54.468,38.64
54.484,36.33
54.500,33.38
54.515,29.69
54.531,25.23
54.546,20.0
54.562,14.01
54.578,7.36
54.593,0.27
54.609,-6.92
54.625,-13.83
54.640,-20.14
54.656,-25.71
54.671,-30.65
54.687,-35.27
54.703,-40.1
54.718,-45.7
54.734,-52.59
54.750,-60.96
54.765,-70.43
54.781,-79.87
54.796,-87.52
54.812,-91.42
54.828,-90.07
54.843,-83.03
54.859,-71.07
54.875,-55.99
54.890,-39.96
54.906,-24.89
54.921,-11.91
54.937,-1.38
54.953,6.9
54.968,13.42
54.984,18.62
55.000,22.87
55.015,26.42
55.031,29.49
55.046,32.26
55.062,34.88
55.078,37.41
55.093,39.91
55.109,42.42
55.125,44.95
55.140,47.49
55.156,49.95
55.171,52.22
55.187,54.13
55.203,55.59
55.218,56.58
55.234,57.16
55.250,57.43
55.265,57.45
55.281,57.19
55.296,56.51
55.312,55.23
55.328,53.08
55.343,49.9
55.359,45.58
55.375,40.17
55.390,33.93
55.406,27.33
55.421,21.04
55.437,15.81
55.453,12.17
55.468,10.16
55.484,9.15
55.500,7.83
55.515,4.63
55.531,-1.7
55.546,-11.55
55.562,-24.1
55.578,-37.47
55.593,-49.28
55.609,-57.32
55.625,-60.16
55.640,-57.47
55.656,-49.93
55.671,-38.94
55.687,-26.14
55.703,-13.09
55.718,-1.04
55.734,9.23
55.750,17.44
55.765,23.7
55.781,28.47
55.796,32.25
55.812,35.47
55.828,38.21
55.843,40.25
55.859,41.19
55.875,40.67
55.890,38.61
55.906,35.36
55.921,31.53
55.937,27.76
55.953,24.45
55.968,21.62
55.984,18.98
56.000,16.14
56.015,12.82
56.031,9.0
56.046,4.88
56.062,0.79
56.078,-2.9
56.093,-5.9
56.109,-8.16
56.125,-9.83
56.140,-11.33
56.156,-13.24
56.171,-16.02
56.187,-19.96
56.203,-24.98
56.218,-30.73
56.234,-36.74
56.250,-42.68
56.265,-48.45
56.281,-54.23
56.296,-60.44
56.312,-67.43
56.328,-75.3
56.343,-83.72
56.359,-91.73
56.375,-97.88
56.390,-100.63
56.406,-98.72
56.421,-91.72
56.437,-80.21
56.453,-65.62
56.468,-49.84
56.484,-34.57
56.500,-20.96
56.515,-9.53
56.531,-0.32
56.546,6.83
56.562,12.1
56.578,15.61
56.593,17.54
56.609,18.24
56.625,18.3
56.640,18.35
56.656,18.93
56.671,20.23
56.687,22.09
56.703,24.05
56.718,25.58
56.734,26.27
56.750,25.97
56.765,24.86
56.781,23.23
56.796,21.4
56.812,19.51
56.828,17.56
56.843,15.38
56.859,12.81
56.875,9.74
56.890,6.14
56.906,2.14
56.921,-2.1
56.937,-6.34
56.953,-10.49
56.968,-14.55
56.984,-18.76
57.000,-23.46
57.015,-28.98
57.031,-35.55
57.046,-43.07
57.062,-51.14
57.078,-58.98
57.093,-65.54
57.109,-69.64
57.125,-70.21
57.140,-66.56
57.156,-58.55
57.171,-46.82
57.187,-32.57
57.203,-17.4
57.218,-2.74
57.234,10.39
57.250,21.5
57.265,30.7
57.281,38.26
57.296,44.49
57.312,49.52
57.328,53.28
57.343,55.61
57.359,56.44
57.375,55.92
57.390,54.37
57.406,52.28
57.421,50.09
57.437,48.07
57.453,46.28
57.468,44.69
57.484,43.17
57.500,41.66
57.515,40.17
57.531,38.65
57.546,36.94
57.562,34.71
57.578,31.54
57.593,27.17
57.609,21.57
57.625,15.08
57.640,8.22
57.656,1.55
57.671,-4.61
57.687,-10.17
57.703,-15.25
57.718,-19.97
57.734,-24.49
57.750,-29.02
57.765,-33.87
57.781,-39.55
57.796,-46.52
57.812,-54.8
57.828,-63.69
57.843,-71.71
57.859,-76.93
57.875,-77.48
57.890,-72.11
57.906,-60.59
57.921,-43.75
57.937,-23.28
57.953,-1.37
57.968,19.73
57.984,38.08
58.000,52.37
58.015,62.12
58.031,67.65
58.046,69.87
58.062,69.98
58.078,69.09
58.093,67.95
58.109,66.82
58.125,65.66
58.140,64.19
58.156,62.21
58.171,59.65
58.187,56.62
58.203,53.29
58.218,49.82
58.234,46.29
58.250,42.63
58.265,38.79
58.281,34.77
58.296,30.61
58.312,26.39
58.328,22.06
58.343,17.4
58.359,12.08
58.375,5.83
58.390,-1.43
58.406,-9.45
58.421,-17.75
58.437,-25.73
58.453,-32.88
58.468,-38.91
58.484,-43.86
58.500,-48.15
58.515,-52.4
58.531,-57.31
58.546,-63.44
58.562,-70.98
58.578,-79.58
58.593,-88.24
58.609,-95.41
58.625,-99.31
58.640,-98.46
58.656,-92.09
58.671,-80.55
58.687,-65.13
58.703,-47.73
58.718,-30.26
58.734,-14.14
58.750,-0.14
58.765,11.57
58.781,21.09
58.796,28.52
58.812,33.88
58.828,37.19
58.843,38.6
58.859,38.55
58.875,37.69
58.890,36.74
58.906,36.24
58.921,36.34
58.937,36.85
58.953,37.33
58.968,37.37
58.984,36.75
59.000,35.47
59.015,33.64
59.031,31.42
59.046,28.9
59.062,26.1
59.078,23.05
59.093,19.74
59.109,16.23
59.125,12.54
59.140,8.65
59.156,4.49
59.171,0.05
59.187,-4.68
59.203,-9.56
59.218,-14.49
59.234,-19.42
59.250,-24.41
59.265,-29.6
59.281,-35.15
59.296,-41.21
59.312,-47.82
59.328,-54.83
59.343,-61.84
59.359,-68.01
59.375,-72.2
59.390,-73.14
59.406,-69.87
59.421,-62.07
59.437,-50.28
59.453,-35.7
59.468,-19.88
59.484,-4.22
59.500,10.29
59.515,23.12
59.531,34.06
59.546,42.95
59.562,49.69
59.578,54.24
59.593,56.74
59.609,57.53
59.625,57.16
59.640,56.27
59.656,55.42
59.671,55.07
59.687,55.41
59.703,56.45
59.718,58.02
59.734,59.92
59.750,61.91
59.765,63.8
59.781,65.44
59.796,66.61
59.812,67.1
59.828,66.67
59.843,65.23
59.859,62.9
59.875,60.05
59.890,57.2
59.906,54.82
59.921,53.17
59.937,52.14
59.953,51.42
59.968,50.57
59.984,49.29
