timestamp,value
00.000,110.23
00.015,111.03
00.031,110.62
00.046,108.39
00.062,103.32
00.078,94.18
00.093,79.98
00.109,60.52
00.125,36.77
00.140,10.8
00.156,-14.65
00.171,-37.07
00.187,-54.89
00.203,-67.88
00.218,-77.07
00.234,-84.08
00.250,-90.3
00.265,-96.21
00.281,-101.24
00.296,-104.09
00.312,-103.43
00.328,-98.61
00.343,-89.92
00.359,-78.55
00.375,-66.18
00.390,-54.37
00.406,-44.2
00.421,-36.11
00.437,-30.01
00.453,-25.49
00.468,-22.05
00.484,-19.23
00.500,-16.74
00.515,-14.41
00.531,-12.17
00.546,-9.94
00.562,-7.61
00.578,-5.04
00.593,-2.17
00.609,0.93
00.625,3.99
00.640,6.66
00.656,8.53
00.671,9.28
00.687,8.7
00.703,6.77
00.718,3.61
00.734,-0.51
00.750,-5.24
00.765,-10.16
00.781,-14.87
00.796,-18.98
00.812,-22.32
00.828,-24.93
00.843,-27.06
00.859,-29.12
00.875,-31.59
00.890,-34.89
00.906,-39.34
00.921,-45.15
00.937,-52.27
00.953,-60.39
00.968,-68.87
00.984,-76.74
01.000,-82.84
01.015,-86.09
01.031,-85.77
01.046,-81.75
01.062,-74.6
01.078,-65.41
01.093,-55.48
01.109,-45.95
01.125,-37.53
01.140,-30.47
01.156,-24.61
01.171,-19.68
01.187,-15.41
01.203,-11.6
01.218,-8.11
01.234,-4.73
01.250,-1.15
01.265,2.91
01.281,7.59
01.296,12.74
01.312,17.93
01.328,22.57
01.343,26.21
01.359,28.68
01.375,30.16
01.390,30.98
01.406,31.47
01.421,31.74
01.437,31.61
01.453,30.8
01.468,29.06
01.484,26.36
01.500,22.97
01.515,19.33
01.531,15.93
01.546,13.08
01.562,10.9
01.578,9.23
01.593,7.77
01.609,6.13
01.625,3.97
01.640,1.15
01.656,-2.24
01.671,-5.78
01.687,-8.84
01.703,-10.7
01.718,-10.84
01.734,-9.1
01.750,-5.74
01.765,-1.37
01.781,3.35
01.796,7.9
01.812,12.08
01.828,15.89
01.843,19.47
01.859,22.88
01.875,26.15
01.890,29.26
01.906,32.2
01.921,35.02
01.937,37.75
01.953,40.38
01.968,42.76
01.984,44.71
02.000,46.06
02.015,46.75
02.031,46.85
02.046,46.54
02.062,45.99
02.078,45.35
02.093,44.63
02.109,43.75
02.125,42.57
02.140,40.92
02.156,38.67
02.171,35.79
02.187,32.37
02.203,28.58
02.218,24.7
02.234,20.96
02.250,17.53
02.265,14.42
02.281,11.38
02.296,8.02
02.312,3.95
02.328,-1.02
02.343,-6.68
02.359,-12.34
02.375,-17.02
02.390,-19.65
02.406,-19.41
02.421,-16.11
02.437,-10.17
02.453,-2.58
02.468,5.43
02.484,12.78
02.500,18.81
02.515,23.36
02.531,26.64
02.546,28.97
02.562,30.51
02.578,31.17
02.593,30.58
02.609,28.3
02.625,24.06
02.640,17.92
02.656,10.41
02.671,2.46
02.687,-4.8
02.703,-10.29
02.718,-13.3
02.734,-13.68
02.750,-11.82
02.765,-8.46
02.781,-4.43
02.796,-0.45
02.812,3.01
02.828,5.72
02.843,7.59
02.859,8.66
02.875,9.07
02.890,9.13
02.906,9.3
02.921,10.09
02.937,11.88
02.953,14.76
02.968,18.38
02.984,22.06
03.000,24.99
03.015,26.51
03.031,26.26
03.046,24.25
03.062,20.67
03.078,15.78
03.093,9.77
03.109,2.76
03.125,-5.13
03.140,-13.74
03.156,-22.84
03.171,-32.03
03.187,-40.72
03.203,-48.05
03.218,-53.0
03.234,-54.56
03.250,-52.1
03.265,-45.68
03.281,-36.13
03.296,-24.88
03.312,-13.48
03.328,-3.16
03.343,5.53
03.359,12.67
03.375,18.75
03.390,24.3
03.406,29.6
03.421,34.55
03.437,38.66
03.453,41.16
03.468,41.16
03.484,37.96
03.500,31.38
03.515,22.01
03.531,11.16
03.546,0.66
03.562,-7.83
03.578,-13.36
03.593,-16.1
03.609,-17.25
03.625,-18.6
03.640,-21.74
03.656,-27.53
03.671,-35.77
03.687,-45.3
03.703,-54.52
03.718,-61.89
03.734,-66.39
03.750,-67.71
03.765,-66.14
03.781,-62.32
03.796,-56.87
03.812,-50.21
03.828,-42.5
03.843,-33.79
03.859,-24.22
03.875,-14.14
03.890,-4.16
03.906,5.01
03.921,12.72
03.937,18.44
03.953,21.88
03.968,22.97
03.984,21.84
04.000,18.86
04.015,14.6
04.031,9.84
04.046,5.44
04.062,2.18
04.078,0.64
04.093,1.0
04.109,3.1
04.125,6.36
04.140,10.0
04.156,13.2
04.171,15.33
04.187,16.0
04.203,15.2
04.218,13.13
04.234,10.11
04.250,6.47
04.265,2.37
04.281,-2.12
04.296,-7.05
04.312,-12.37
04.328,-17.9
04.343,-23.19
04.359,-27.65
04.375,-30.62
04.390,-31.6
04.406,-30.51
04.421,-27.65
04.437,-23.66
04.453,-19.29
04.468,-15.11
04.484,-11.29
04.500,-7.59
04.515,-3.48
04.531,1.61
04.546,7.95
04.562,15.42
04.578,23.45
04.593,31.22
04.609,37.92
04.625,43.03
04.640,46.43
04.656,48.33
04.671,49.13
04.687,49.25
04.703,48.96
04.718,48.42
04.734,47.68
04.750,46.75
04.765,45.58
04.781,44.16
04.796,42.37
04.812,40.14
04.828,37.43
04.843,34.33
04.859,31.08
04.875,28.04
04.890,25.55
04.906,23.82
04.921,22.79
04.937,22.14
04.953,21.4
04.968,20.17
04.984,18.23
05.000,15.67
05.015,12.76
05.031,9.88
05.046,7.21
05.062,4.73
05.078,2.15
05.093,-0.85
05.109,-4.33
05.125,-7.87
05.140,-10.43
05.156,-10.71
05.171,-7.58
05.187,-0.75
05.203,8.91
05.218,19.47
05.234,28.46
05.250,33.8
05.265,34.36
05.281,30.29
05.296,22.67
05.312,13.12
05.328,3.38
05.343,-4.8
05.359,-9.8
05.375,-10.31
05.390,-5.79
05.406,2.86
05.421,13.09
05.437,21.06
05.453,22.74
05.468,15.33
05.484,-1.68
05.500,-26.2
05.515,-54.24
05.531,-81.21
05.546,-103.26
05.562,-118.18
05.578,-125.59
05.593,-126.59
05.609,-123.07
05.625,-117.0
05.640,-110.0
05.656,-103.13
05.671,-96.99
05.687,-91.85
05.703,-87.71
05.718,-84.29
05.734,-80.98
05.750,-76.84
05.765,-70.93
05.781,-62.56
05.796,-51.7
05.812,-39.01
05.828,-25.58
05.843,-12.5
05.859,-0.4
05.875,10.76
05.890,21.47
05.906,32.31
05.921,43.63
05.937,55.34
05.953,67.03
05.968,78.25
05.984,88.67
06.000,98.25
06.015,107.23
06.031,116.07
06.046,125.27
06.062,135.24
06.078,146.12
06.093,157.78
06.109,169.84
06.125,181.89
06.140,193.73
06.156,205.49
06.171,217.58
06.187,230.34
06.203,243.67
06.218,256.67
06.234,267.73
06.250,274.99
06.265,276.99
06.281,273.15
06.296,263.83
06.312,249.95
06.328,232.35
06.343,211.41
06.359,186.97
06.375,158.72
06.390,126.7
06.406,91.52
06.421,54.36
06.437,16.88
06.453,-18.95
06.468,-50.97
06.484,-77.2
06.500,-96.36
06.515,-108.35
06.531,-114.37
06.546,-116.4
06.562,-116.35
06.578,-115.15
06.593,-112.39
06.609,-106.68
06.625,-96.51
06.640,-80.95
06.656,-60.0
06.671,-34.41
06.687,-5.23
06.703,26.52
06.718,59.89
06.734,93.87
06.750,127.2
06.765,158.43
06.781,186.07
06.796,208.7
06.812,225.21
06.828,235.04
06.843,238.29
06.859,235.69
06.875,228.43
06.890,217.75
06.906,204.57
06.921,189.41
06.937,172.51
06.953,154.26
06.968,135.32
06.984,116.7
07.000,99.46
07.015,84.33
07.031,71.47
07.046,60.5
07.062,50.79
07.078,41.82
07.093,33.44
07.109,25.93
07.125,19.8
07.140,15.46
07.156,12.99
07.171,11.94
07.187,11.48
07.203,10.63
07.218,8.64
07.234,5.22
07.250,0.59
07.265,-4.66
07.281,-10.02
07.296,-15.42
07.312,-21.38
07.328,-29.0
07.343,-39.6
07.359,-54.26
07.375,-73.43
07.390,-96.9
07.406,-123.93
07.421,-153.53
07.437,-184.95
07.453,-217.76
07.468,-251.99
07.484,-288.03
07.500,-326.66
07.515,-368.65
07.531,-414.25
07.546,-462.44
07.562,-510.29
07.578,-553.09
07.593,-585.26
07.609,-602.03
07.625,-600.99
07.640,-583.03
07.656,-551.94
07.671,-513.05
07.687,-471.48
07.703,-430.79
07.718,-392.65
07.734,-357.19
07.750,-323.83
07.765,-291.99
07.781,-261.41
07.796,-232.11
07.812,-204.28
07.828,-178.15
07.843,-154.1
07.859,-132.59
07.875,-114.2
07.890,-99.49
07.906,-88.72
07.921,-81.7
07.937,-77.62
07.953,-75.21
07.968,-72.95
07.984,-69.55
08.000,-64.25
08.015,-57.09
08.031,-48.76
08.046,-40.38
08.062,-33.01
08.078,-27.39
08.093,-23.81
08.109,-22.04
08.125,-21.58
08.140,-21.79
08.156,-22.04
08.171,-21.75
08.187,-20.48
08.203,-17.88
08.218,-13.83
08.234,-8.46
08.250,-2.12
08.265,4.7
08.281,11.55
08.296,18.1
08.312,24.19
08.328,29.75
08.343,34.7
08.359,38.82
08.375,41.81
08.390,43.37
08.406,43.36
08.421,41.95
08.437,39.57
08.453,36.84
08.468,34.42
08.484,32.79
08.500,32.21
08.515,32.65
08.531,33.8
08.546,35.26
08.562,36.6
08.578,37.45
08.593,37.63
08.609,37.11
08.625,35.99
08.640,34.38
08.656,32.36
08.671,29.85
08.687,26.74
08.703,23.04
08.718,18.94
08.734,14.98
08.750,11.98
08.765,10.82
08.781,12.22
08.796,16.54
08.812,23.63
08.828,32.98
08.843,43.91
08.859,55.75
08.875,68.02
08.890,80.32
08.906,92.29
08.921,103.51
08.937,113.47
08.953,121.7
08.968,127.95
08.984,132.26
09.000,135.07
09.015,136.99
09.031,138.66
09.046,140.59
09.062,142.98
09.078,145.8
09.093,148.8
09.109,151.7
09.125,154.28
09.140,156.53
09.156,158.64
09.171,161.13
09.187,164.74
09.203,170.31
09.218,178.36
09.234,188.67
09.250,199.93
09.265,209.72
09.281,214.97
09.296,212.86
09.312,201.87
09.328,182.34
09.343,156.34
09.359,126.94
09.375,97.17
09.390,69.34
09.406,44.81
09.421,24.25
09.437,8.0
09.453,-3.81
09.468,-11.39
09.484,-15.43
09.500,-16.97
09.515,-17.16
09.531,-16.81
09.546,-16.35
09.562,-15.95
09.578,-16.0
09.593,-17.38
09.609,-21.27
09.625,-28.67
09.640,-39.73
09.656,-53.51
09.671,-68.13
09.687,-81.41
09.703,-91.42
09.718,-97.02
09.734,-98.02
09.750,-95.08
09.765,-89.38
09.781,-82.28
09.796,-75.04
09.812,-68.62
09.828,-63.65
09.843,-60.47
09.859,-59.28
09.875,-60.2
09.890,-63.35
09.906,-68.72
09.921,-76.06
09.937,-84.74
09.953,-93.7
09.968,-101.42
09.984,-106.15
10.000,-106.3
10.015,-100.86
10.031,-89.84
10.046,-74.38
10.062,-56.52
10.078,-38.72
10.093,-23.1
10.109,-10.93
10.125,-2.36
10.140,3.3
10.156,7.29
10.171,10.88
10.187,15.11
10.203,20.67
10.218,27.97
10.234,37.07
10.250,47.66
10.265,59.08
10.281,70.31
10.296,80.29
10.312,88.17
10.328,93.68
10.343,97.08
10.359,98.93
10.375,99.66
10.390,99.14
10.406,96.63
10.421,91.09
10.437,81.64
10.453,67.99
10.468,50.58
10.484,30.46
10.500,8.88
10.515,-13.08
10.531,-34.71
10.546,-55.6
10.562,-75.49
10.578,-93.97
10.593,-110.37
10.609,-123.78
10.625,-133.17
10.640,-137.81
10.656,-137.46
10.671,-132.56
10.687,-124.16
10.703,-113.62
10.718,-102.19
10.734,-90.76
10.750,-79.76
10.765,-69.34
10.781,-59.67
10.796,-51.1
10.812,-44.17
10.828,-39.44
10.843,-37.21
10.859,-37.34
10.875,-39.3
10.890,-42.29
10.906,-45.54
10.921,-48.63
10.937,-51.53
10.953,-54.57
10.968,-58.22
10.984,-62.89
11.000,-68.71
11.015,-75.59
11.031,-83.29
11.046,-91.53
11.062,-100.08
11.078,-108.63
11.093,-116.74
11.109,-123.93
11.125,-129.8
11.140,-134.31
11.156,-137.93
11.171,-141.45
11.187,-145.56
11.203,-150.34
11.218,-154.93
11.234,-157.63
11.250,-156.49
11.265,-150.08
11.281,-138.03
11.296,-121.22
11.312,-101.39
11.328,-80.47
11.343,-60.04
11.359,-41.02
11.375,-23.77
11.390,-8.45
11.406,4.75
11.421,15.55
11.437,23.75
11.453,29.47
11.468,33.27
11.484,35.98
11.500,38.39
11.515,40.92
11.531,43.49
11.546,45.7
11.562,47.18
11.578,48.01
11.593,48.84
11.609,50.69
11.625,54.56
11.640,60.85
11.656,69.2
11.671,78.52
11.687,87.58
11.703,95.41
11.718,101.74
11.734,106.81
11.750,110.99
11.765,114.26
11.781,116.09
11.796,115.67
11.812,112.53
11.828,107.23
11.843,101.46
11.859,97.73
11.875,98.53
11.890,105.41
11.906,118.55
11.921,136.9
11.937,158.81
11.953,182.44
11.968,206.07
11.984,227.64
12.000,244.61
12.015,254.33
12.031,255.15
12.046,247.94
12.062,236.74
12.078,227.83
12.093,227.25
12.109,237.91
12.125,257.8
12.140,280.57
12.156,298.13
12.171,303.8
12.187,294.37
12.203,270.39
12.218,234.79
12.234,191.1
12.250,142.56
12.265,91.95
12.281,42.09
12.296,-3.95
12.312,-43.47
12.328,-75.21
12.343,-100.2
12.359,-121.66
12.375,-143.53
12.390,-168.36
12.406,-195.46
12.421,-220.4
12.437,-236.44
12.453,-237.37
12.468,-220.36
12.484,-187.58
12.500,-145.55
12.515,-102.56
12.531,-65.49
12.546,-37.71
12.562,-18.87
12.578,-6.53
12.593,1.62
12.609,6.42
12.625,7.29
12.640,3.33
12.656,-5.23
12.671,-16.67
12.687,-28.24
12.703,-37.42
12.718,-42.99
12.734,-45.49
12.750,-46.7
12.765,-48.53
12.781,-52.0
12.796,-56.81
12.812,-61.66
12.828,-65.07
12.843,-66.45
12.859,-66.55
12.875,-67.28
12.890,-70.94
12.906,-79.19
12.921,-92.23
12.937,-108.55
12.953,-125.22
12.968,-138.73
12.984,-145.92
13.000,-144.96
13.015,-135.6
13.031,-119.12
13.046,-97.76
13.062,-73.98
13.078,-49.92
13.093,-27.17
13.109,-6.79
13.125,10.37
13.140,23.57
13.156,32.25
13.171,36.28
13.187,36.14
13.203,32.94
13.218,28.12
13.234,23.07
13.250,18.68
13.265,15.26
13.281,12.68
13.296,10.62
13.312,8.86
13.328,7.36
13.343,6.15
13.359,5.15
13.375,4.09
13.390,2.47
13.406,-0.22
13.421,-4.34
13.437,-10.02
13.453,-17.14
13.468,-25.52
13.484,-34.87
13.500,-44.89
13.515,-55.08
13.531,-64.56
13.546,-72.11
13.562,-76.26
13.578,-75.79
13.593,-70.05
13.609,-59.29
13.625,-44.65
13.640,-27.9
13.656,-10.9
13.671,4.77
13.687,18.2
13.703,29.11
13.718,37.64
13.734,44.1
13.750,48.72
13.765,51.73
13.781,53.41
13.796,54.33
13.812,55.19
13.828,56.57
13.843,58.58
13.859,60.5
13.875,60.97
13.890,58.54
13.906,52.38
13.921,42.87
13.937,31.53
13.953,20.45
13.968,11.32
13.984,4.65
14.000,-0.4
14.015,-5.55
14.031,-12.56
14.046,-22.5
14.062,-35.37
14.078,-50.23
14.093,-65.59
14.109,-79.76
14.125,-91.17
14.140,-98.48
14.156,-100.82
14.171,-98.0
14.187,-90.66
14.203,-80.18
14.218,-68.33
14.234,-56.68
14.250,-46.19
14.265,-37.1
14.281,-29.22
14.296,-22.33
14.312,-16.49
14.328,-12.09
14.343,-9.51
14.359,-8.8
14.375,-9.37
14.390,-10.1
14.406,-9.61
14.421,-6.86
14.437,-1.61
14.453,5.34
14.468,12.28
14.484,17.19
14.500,18.41
14.515,15.31
14.531,8.45
14.546,-0.67
14.562,-10.33
14.578,-19.33
14.593,-27.4
14.609,-35.14
14.625,-43.47
14.640,-53.01
14.656,-63.58
14.671,-74.07
14.687,-82.82
14.703,-88.19
14.718,-89.12
14.734,-85.37
14.750,-77.5
14.765,-66.54
14.781,-53.63
14.796,-39.81
14.812,-25.93
14.828,-12.74
14.843,-1.01
14.859,8.47
14.875,15.1
14.890,18.68
14.906,19.66
14.921,19.05
14.937,18.14
14.953,18.13
14.968,19.68
14.984,22.84
15.000,27.12
15.015,31.82
15.031,36.33
15.046,40.27
15.062,43.42
15.078,45.4
15.093,45.61
15.109,43.25
15.125,37.62
15.140,28.57
15.156,16.79
15.171,3.79
15.187,-8.31
15.203,-17.29
15.218,-21.35
15.234,-19.44
15.250,-11.4
15.265,2.02
15.281,19.36
15.296,38.78
15.312,58.36
15.328,76.4
15.343,91.69
15.359,103.52
15.375,111.57
15.390,115.8
15.406,116.23
15.421,113.05
15.437,106.73
15.453,98.05
15.468,88.14
15.484,78.18
15.500,68.99
15.515,60.75
15.531,52.91
15.546,44.38
15.562,34.14
15.578,21.65
15.593,7.2
15.609,-8.12
15.625,-22.71
15.640,-34.98
15.656,-43.71
15.671,-48.31
15.687,-48.97
15.703,-46.67
15.718,-42.87
15.734,-39.19
15.750,-36.84
15.765,-36.19
15.781,-36.64
15.796,-36.93
15.812,-35.71
15.828,-32.3
15.843,-26.89
15.859,-20.52
15.875,-14.52
15.890,-9.87
15.906,-6.93
15.921,-5.49
15.937,-5.12
15.953,-5.5
15.968,-6.59
15.984,-8.45
16.000,-10.99
16.015,-13.92
16.031,-16.79
16.046,-19.18
16.062,-20.97
16.078,-22.31
16.093,-23.53
16.109,-24.86
16.125,-26.21
16.140,-27.13
16.156,-27.06
16.171,-25.66
16.187,-22.99
16.203,-19.65
16.218,-16.53
16.234,-14.45
16.250,-13.85
16.265,-14.63
16.281,-16.25
16.296,-18.0
16.312,-19.17
16.328,-19.22
16.343,-17.6
16.359,-13.71
16.375,-6.89
16.390,3.34
16.406,16.94
16.421,33.09
16.437,50.18
16.453,66.26
16.468,79.49
16.484,88.76
16.500,93.91
16.515,95.59
16.531,94.87
16.546,92.76
16.562,89.88
16.578,86.4
16.593,82.19
16.609,77.07
16.625,71.07
16.640,64.4
16.656,57.46
16.671,50.54
16.687,43.73
16.703,36.82
16.718,29.43
16.734,21.11
16.750,11.54
16.765,0.64
16.781,-11.29
16.796,-23.53
16.812,-34.96
16.828,-44.11
16.843,-49.49
16.859,-49.83
16.875,-44.51
16.890,-33.87
16.906,-19.07
16.921,-1.94
16.937,15.6
16.953,31.98
16.968,46.22
16.984,57.89
17.000,66.87
17.015,73.06
17.031,76.23
17.046,76.11
17.062,72.58
17.078,65.89
17.093,56.74
17.109,46.09
17.125,34.97
17.140,24.21
17.156,14.24
17.171,5.2
17.187,-2.96
17.203,-10.37
17.218,-17.1
17.234,-23.19
17.250,-28.7
17.265,-33.76
17.281,-38.61
17.296,-43.47
17.312,-48.47
17.328,-53.43
17.343,-57.88
17.359,-61.03
17.375,-61.98
17.390,-59.98
17.406,-54.65
17.421,-46.09
17.437,-34.85
17.453,-21.76
17.468,-7.77
17.484,6.15
17.500,19.07
17.515,30.21
17.531,39.0
17.546,45.22
17.562,49.13
17.578,51.35
17.593,52.7
17.609,53.89
17.625,55.28
17.640,56.83
17.656,58.28
17.671,59.3
17.687,59.74
17.703,59.58
17.718,58.95
17.734,57.87
17.750,56.27
17.765,53.98
17.781,50.89
17.796,47.0
17.812,42.45
17.828,37.46
17.843,32.21
17.859,26.81
17.875,21.35
17.890,16.07
17.906,11.43
17.921,8.06
17.937,6.62
17.953,7.56
17.968,11.06
17.984,16.99
18.000,25.07
18.015,35.0
18.031,46.46
18.046,58.94
18.062,71.55
18.078,82.92
18.093,91.33
18.109,95.17
18.125,93.54
18.140,86.61
18.156,75.71
18.171,62.83
18.187,49.85
18.203,37.88
18.218,26.98
18.234,16.43
18.250,5.48
18.265,-6.05
18.281,-17.42
18.296,-27.23
18.312,-34.13
18.328,-37.43
18.343,-37.43
18.359,-35.26
18.375,-32.39
18.390,-29.95
18.406,-28.32
18.421,-27.09
18.437,-25.26
18.453,-21.62
18.468,-15.15
18.484,-5.28
18.500,8.0
18.515,24.16
18.531,42.31
18.546,61.51
18.562,81.01
18.578,100.43
18.593,119.74
18.609,139.05
18.625,158.45
18.640,177.79
18.656,196.77
18.671,215.04
18.687,232.34
18.703,248.61
18.718,263.85
18.734,278.11
18.750,291.62
18.765,304.9
18.781,318.8
18.796,334.1
18.812,350.73
18.828,367.23
18.843,380.65
18.859,387.47
18.875,384.99
18.890,372.54
18.906,351.98
18.921,326.86
18.937,301.13
18.953,277.62
18.968,257.56
18.984,240.77
19.000,226.63
19.015,214.62
19.031,204.6
19.046,196.47
19.062,189.79
19.078,183.61
19.093,176.77
19.109,168.37
19.125,158.16
19.140,146.64
19.156,134.81
19.171,123.75
19.187,114.08
19.203,105.85
19.218,98.53
19.234,91.35
19.250,83.67
19.265,75.19
19.281,66.1
19.296,56.84
19.312,47.91
19.328,39.54
19.343,31.56
19.359,23.5
19.375,14.76
19.390,4.88
19.406,-6.23
19.421,-18.3
19.437,-30.73
19.453,-42.87
19.468,-54.22
19.484,-64.69
19.500,-74.46
19.515,-83.96
19.531,-93.58
19.546,-103.51
19.562,-113.6
19.578,-123.47
19.593,-132.71
19.609,-141.09
19.625,-148.75
19.640,-156.21
19.656,-164.24
19.671,-173.49
19.687,-184.28
19.703,-196.43
19.718,-209.36
19.734,-222.32
19.750,-234.74
19.765,-246.43
19.781,-257.63
19.796,-268.9
19.812,-280.96
19.828,-294.49
19.843,-310.08
19.859,-327.84
19.875,-347.25
19.890,-366.86
19.906,-384.36
19.921,-397.16
19.937,-403.12
19.953,-401.43
19.968,-392.93
19.984,-379.75
20.000,-364.38
20.015,-348.68
20.031,-333.24
20.046,-317.49
20.062,-300.33
20.078,-280.89
20.093,-259.07
20.109,-235.48
20.125,-211.1
20.140,-186.81
20.156,-163.25
20.171,-140.88
20.187,-120.16
20.203,-101.81
20.218,-86.67
20.234,-75.46
20.250,-68.45
20.265,-65.24
20.281,-64.76
20.296,-65.59
20.312,-66.36
20.328,-66.19
20.343,-64.85
20.359,-62.79
20.375,-60.73
20.390,-59.33
20.406,-58.87
20.421,-59.13
20.437,-59.63
20.453,-59.93
20.468,-60.05
20.484,-60.56
20.500,-62.43
20.515,-66.56
20.531,-73.27
20.546,-81.95
20.562,-91.11
20.578,-98.81
20.593,-103.27
20.609,-103.55
20.625,-99.69
20.640,-92.61
20.656,-83.66
20.671,-74.08
20.687,-64.68
20.703,-55.81
20.718,-47.58
20.734,-40.12
20.750,-33.69
20.765,-28.6
20.781,-25.1
20.796,-23.09
20.812,-22.2
20.828,-21.9
20.843,-21.74
20.859,-21.42
20.875,-20.81
20.890,-19.8
20.906,-18.25
20.921,-16.03
20.937,-13.15
20.953,-9.89
20.968,-6.81
20.984,-4.62
21.000,-3.99
21.015,-5.38
21.031,-9.01
21.046,-14.95
21.062,-23.08
21.078,-33.05
21.093,-44.08
21.109,-54.95
21.125,-64.03
21.140,-69.8
21.156,-71.17
21.171,-67.96
21.187,-60.85
21.203,-51.18
21.218,-40.45
21.234,-29.91
21.250,-20.31
21.265,-11.95
21.281,-4.94
21.296,0.63
21.312,4.65
21.328,7.06
21.343,8.07
21.359,8.19
21.375,8.16
21.390,8.58
21.406,9.69
21.421,11.18
21.437,12.37
21.453,12.51
21.468,11.14
21.484,8.28
21.500,4.37
21.515,0.06
21.531,-4.08
21.546,-7.75
21.562,-10.96
21.578,-14.0
21.593,-17.31
21.609,-21.35
21.625,-26.52
21.640,-32.92
21.656,-40.3
21.671,-47.95
21.687,-54.82
21.703,-59.79
21.718,-61.99
21.734,-61.04
21.750,-57.09
21.765,-50.75
21.781,-42.78
21.796,-33.88
21.812,-24.62
21.828,-15.41
21.843,-6.61
21.859,1.46
21.875,8.54
21.890,14.51
21.906,19.44
21.921,23.54
21.937,27.06
21.953,30.2
21.968,33.0
21.984,35.4
22.000,37.37
22.015,38.97
22.031,40.38
22.046,41.82
22.062,43.4
22.078,44.97
22.093,46.11
22.109,46.22
22.125,44.8
22.140,41.6
22.156,36.76
22.171,30.88
22.187,24.91
22.203,19.99
22.218,17.14
22.234,17.05
22.250,19.95
22.265,25.47
22.281,32.86
22.296,41.11
22.312,49.28
22.328,56.59
22.343,62.41
22.359,66.25
22.375,67.58
22.390,65.84
22.406,60.68
22.421,52.15
22.437,40.95
22.453,28.43
22.468,16.35
22.484,6.31
22.500,-0.66
22.515,-4.4
22.531,-5.48
22.546,-4.8
22.562,-3.21
22.578,-1.16
22.593,1.21
22.609,3.83
22.625,6.53
22.640,8.92
22.656,10.51
22.671,10.96
22.687,10.23
22.703,8.72
22.718,7.18
22.734,6.46
22.750,7.27
22.765,9.97
22.781,14.56
22.796,20.68
22.812,27.91
22.828,35.87
22.843,44.45
22.859,53.7
22.875,63.78
22.890,74.79
22.906,86.64
22.921,99.02
22.937,111.3
22.953,122.33
22.968,130.32
22.984,133.04
23.000,128.3
23.015,114.78
23.031,92.76
23.046,64.45
23.062,33.66
23.078,4.93
23.093,-17.6
23.109,-31.21
23.125,-35.05
23.140,-30.11
23.156,-18.58
23.171,-3.16
23.187,13.62
23.203,29.77
23.218,43.98
23.234,55.44
23.250,63.86
23.265,69.42
23.281,72.9
23.296,75.83
23.312,80.26
23.328,88.41
23.343,101.96
23.359,121.58
23.375,146.67
23.390,175.78
23.406,207.01
23.421,238.69
23.437,269.83
23.453,300.16
23.468,329.94
23.484,359.44
23.500,388.29
23.515,414.95
23.531,436.64
23.546,449.94
23.562,451.81
23.578,440.92
23.593,418.23
23.609,386.92
23.625,351.33
23.640,315.53
23.656,282.19
23.671,252.18
23.687,225.03
23.703,199.73
23.718,175.58
23.734,152.42
23.750,130.51
23.765,110.16
23.781,91.38
23.796,73.8
23.812,56.81
23.828,39.76
23.843,22.22
23.859,3.91
23.875,-15.49
23.890,-36.52
23.906,-59.75
23.921,-85.24
23.937,-111.75
23.953,-136.46
23.968,-155.43
23.984,-164.95
24.000,-163.12
24.015,-150.88
24.031,-131.77
24.046,-110.71
24.062,-92.14
24.078,-78.82
24.093,-71.43
24.109,-69.27
24.125,-71.11
24.140,-75.78
24.156,-82.3
24.171,-89.65
24.187,-96.66
24.203,-102.35
24.218,-106.22
24.234,-108.5
24.250,-109.91
24.265,-111.22
24.281,-112.85
24.296,-114.66
24.312,-116.12
24.328,-116.51
24.343,-115.31
24.359,-112.32
24.375,-107.84
24.390,-102.66
24.406,-98.0
24.421,-95.12
24.437,-94.84
24.453,-96.97
24.468,-100.15
24.484,-102.08
24.500,-100.45
24.515,-93.83
24.531,-82.28
24.546,-67.34
24.562,-51.36
24.578,-36.57
24.593,-24.39
24.609,-15.31
24.625,-9.2
24.640,-5.91
24.656,-5.63
24.671,-8.86
24.687,-16.01
24.703,-26.98
24.718,-40.91
24.734,-56.43
24.750,-72.28
24.765,-87.79
24.781,-103.22
24.796,-119.49
24.812,-137.64
24.828,-158.14
24.843,-180.46
24.859,-202.93
24.875,-223.16
24.890,-238.55
24.906,-246.99
24.921,-247.43
24.937,-240.09
24.953,-226.41
24.968,-208.7
24.984,-189.61
25.000,-171.52
25.015,-156.11
25.031,-144.02
25.046,-134.8
25.062,-127.11
25.078,-119.07
25.093,-108.83
25.109,-95.07
25.125,-77.42
25.140,-56.52
25.156,-33.84
25.171,-11.2
25.187,9.53
25.203,26.8
25.218,39.45
25.234,46.77
25.250,48.61
25.265,45.52
25.281,38.73
25.296,29.99
25.312,21.07
25.328,13.24
25.343,6.96
25.359,1.93
25.375,-2.73
25.390,-8.06
25.406,-14.99
25.421,-24.12
25.437,-35.68
25.453,-49.46
25.468,-64.88
25.484,-81.04
25.500,-96.93
25.515,-111.77
25.531,-125.1
25.546,-136.94
25.562,-147.58
25.578,-157.36
25.593,-166.31
25.609,-173.92
25.625,-179.15
25.640,-180.61
25.656,-176.99
25.671,-167.43
25.687,-151.92
25.703,-131.42
25.718,-107.64
25.734,-82.61
25.750,-58.26
25.765,-36.15
25.781,-17.37
25.796,-2.68
25.812,7.45
25.828,12.89
25.843,13.94
25.859,11.51
25.875,6.94
25.890,1.73
25.906,-2.85
25.921,-6.11
25.937,-7.97
25.953,-8.91
25.968,-9.47
25.984,-10.03
26.000,-10.56
26.015,-10.8
26.031,-10.56
26.046,-10.01
26.062,-9.9
26.078,-11.29
26.093,-15.33
26.109,-22.86
26.125,-34.27
26.140,-49.47
26.156,-67.98
26.171,-88.91
26.187,-110.79
26.203,-131.49
26.218,-148.42
26.234,-159.05
26.250,-161.55
26.265,-155.36
26.281,-141.2
26.296,-120.69
26.312,-95.82
26.328,-68.43
26.343,-40.11
26.359,-12.29
26.375,13.67
26.390,36.55
26.406,55.48
26.421,70.19
26.437,81.09
26.453,88.96
26.468,94.64
26.484,98.59
26.500,100.79
26.515,100.79
26.531,98.04
26.546,92.19
26.562,83.42
26.578,72.49
26.593,60.65
26.609,49.25
26.625,39.39
26.640,31.58
26.656,25.69
26.671,21.06
26.687,16.72
26.703,11.79
26.718,5.75
26.734,-1.32
26.750,-8.56
26.765,-14.47
26.781,-17.2
26.796,-15.12
26.812,-7.45
26.828,5.43
26.843,22.01
26.859,40.18
26.875,57.9
26.890,73.75
26.906,87.1
26.921,97.89
26.937,106.26
26.953,112.23
26.968,115.66
26.984,116.56
27.000,115.27
27.015,112.61
27.031,109.66
27.046,107.44
27.062,106.52
27.078,106.82
27.093,107.73
27.109,108.38
27.125,108.06
27.140,106.36
27.156,103.18
27.171,98.49
27.187,92.11
27.203,83.64
27.218,72.55
27.234,58.38
27.250,40.92
27.265,20.24
27.281,-3.42
27.296,-29.6
27.312,-57.37
27.328,-85.15
27.343,-110.55
27.359,-130.75
27.375,-143.19
27.390,-146.47
27.406,-140.75
27.421,-127.78
27.437,-110.12
27.453,-90.33
27.468,-70.38
27.484,-51.49
27.500,-34.44
27.515,-19.95
27.531,-8.83
27.546,-1.71
27.562,1.32
27.578,0.95
27.593,-1.41
27.609,-4.12
27.625,-5.9
27.640,-6.19
27.656,-5.37
27.671,-4.39
27.687,-4.42
27.703,-6.28
27.718,-10.22
27.734,-15.8
27.750,-22.08
27.765,-27.88
27.781,-32.07
27.796,-33.76
27.812,-32.53
27.828,-28.53
27.843,-22.65
27.859,-16.31
27.875,-11.07
27.890,-8.03
27.906,-7.2
27.921,-7.31
27.937,-6.15
27.953,-1.46
27.968,7.98
27.984,21.77
28.000,37.98
28.015,54.09
28.031,68.06
28.046,79.11
28.062,87.72
28.078,94.9
28.093,101.42
28.109,107.21
28.125,111.48
28.140,113.35
28.156,112.32
28.171,108.64
28.187,103.1
28.203,96.68
28.218,90.18
28.234,84.08
28.250,78.59
28.265,73.81
28.281,69.85
28.296,66.72
28.312,64.44
28.328,62.9
28.343,61.89
28.359,61.08
28.375,59.93
28.390,57.71
28.406,53.53
28.421,46.5
28.437,35.87
28.453,21.18
28.468,2.48
28.484,-19.46
28.500,-42.98
28.515,-65.45
28.531,-83.64
28.546,-94.37
28.562,-95.43
28.578,-86.29
28.593,-68.28
28.609,-44.12
28.625,-16.97
28.640,10.49
28.656,36.61
28.671,60.7
28.687,82.66
28.703,102.39
28.718,119.6
28.734,133.85
28.750,144.84
28.765,152.63
28.781,157.72
28.796,160.79
28.812,162.47
28.828,163.08
28.843,162.57
28.859,160.71
28.875,157.31
28.890,152.31
28.906,145.75
28.921,137.73
28.937,128.15
28.953,116.8
28.968,103.46
28.984,88.14
29.000,71.27
29.015,53.69
29.031,36.42
29.046,20.26
29.062,5.48
29.078,-8.31
29.093,-21.8
29.109,-35.42
29.125,-48.78
29.140,-60.42
29.156,-68.19
29.171,-69.94
29.187,-64.39
29.203,-51.62
29.218,-32.96
29.234,-10.51
29.250,13.7
29.265,38.02
29.281,61.34
29.296,82.78
29.312,101.45
29.328,116.48
29.343,127.25
29.359,133.76
29.375,136.66
29.390,137.09
29.406,136.13
29.421,134.34
29.437,131.58
29.453,127.09
29.468,119.93
29.484,109.46
29.500,95.68
29.515,79.34
29.531,61.73
29.546,44.21
29.562,27.93
29.578,13.41
29.593,0.52
29.609,-11.4
29.625,-23.3
29.640,-36.1
29.656,-50.44
29.671,-66.54
29.687,-84.23
29.703,-102.92
29.718,-121.69
29.734,-139.37
29.750,-154.6
29.765,-166.11
29.781,-172.87
29.796,-174.42
29.812,-170.83
29.828,-162.8
29.843,-151.4
29.859,-137.95
29.875,-123.82
29.890,-110.28
29.906,-98.4
29.921,-88.89
29.937,-82.08
29.953,-77.88
29.968,-75.93
29.984,-75.76
30.000,-76.85
30.015,-78.78
30.031,-81.16
30.046,-83.54
30.062,-85.44
30.078,-86.43
30.093,-86.27
30.109,-85.2
30.125,-83.96
30.140,-83.73
30.156,-85.94
30.171,-91.83
30.187,-102.13
30.203,-116.79
30.218,-134.81
30.234,-154.3
30.250,-172.81
30.265,-187.77
30.281,-196.98
30.296,-199.07
30.312,-193.76
30.328,-181.74
30.343,-164.4
30.359,-143.35
30.375,-119.99
30.390,-95.27
30.406,-69.71
30.421,-43.55
30.437,-17.07
30.453,9.18
30.468,34.26
30.484,56.83
30.500,75.44
30.515,88.94
30.531,96.82
30.546,99.51
30.562,98.33
30.578,95.07
30.593,91.55
30.609,88.98
30.625,87.72
30.640,87.32
30.656,86.9
30.671,85.5
30.687,82.52
30.703,77.82
30.718,71.61
30.734,64.3
30.750,56.26
30.765,47.81
30.781,39.28
30.796,31.12
30.812,24.16
30.828,19.49
30.843,18.29
30.859,21.51
30.875,29.52
30.890,41.91
30.906,57.73
30.921,75.79
30.937,95.05
30.953,114.94
30.968,135.25
30.984,155.93
31.000,176.74
31.015,197.19
31.031,216.6
31.046,234.25
31.062,249.54
31.078,261.89
31.093,270.74
31.109,275.46
31.125,275.47
31.140,270.44
31.156,260.54
31.171,246.4
31.187,229.05
31.203,209.59
31.218,189.0
31.234,167.93
31.250,146.75
31.265,125.63
31.281,104.68
31.296,83.92
31.312,63.35
31.328,42.86
31.343,22.24
31.359,1.21
31.375,-20.42
31.390,-42.69
31.406,-65.36
31.421,-87.96
31.437,-109.9
31.453,-130.62
31.468,-149.62
31.484,-166.35
31.500,-180.05
31.515,-189.69
31.531,-194.18
31.546,-192.72
31.562,-185.26
31.578,-172.67
31.593,-156.56
31.609,-138.81
31.625,-121.05
31.640,-104.38
31.656,-89.34
31.671,-76.23
31.687,-65.29
31.703,-56.81
31.718,-50.9
31.734,-47.33
31.750,-45.51
31.765,-44.77
31.781,-44.73
31.796,-45.63
31.812,-48.23
31.828,-53.45
31.843,-61.82
31.859,-73.03
31.875,-85.94
31.890,-98.85
31.906,-110.08
31.921,-118.52
31.937,-123.84
31.953,-126.5
31.968,-127.47
31.984,-128.07
32.000,-129.64
32.015,-133.37
32.031,-139.76
32.046,-148.38
32.062,-157.69
32.078,-165.37
32.093,-168.98
32.109,-166.79
32.125,-158.34
32.140,-144.39
32.156,-126.52
32.171,-106.34
32.187,-85.14
32.203,-63.77
32.218,-42.88
32.234,-23.24
32.250,-5.63
32.265,9.35
32.281,21.68
32.296,31.94
32.312,41.11
32.328,49.95
32.343,58.7
32.359,66.78
32.375,73.06
32.390,76.32
32.406,75.69
32.421,70.92
32.437,62.45
32.453,51.2
32.468,38.41
32.484,25.34
32.500,13.24
32.515,3.12
32.531,-4.36
32.546,-9.18
32.562,-12.0
32.578,-14.04
32.593,-16.74
32.609,-21.04
32.625,-26.97
32.640,-33.33
32.656,-38.02
32.671,-38.7
32.687,-33.59
32.703,-22.07
32.718,-4.79
32.734,16.51
32.750,39.7
32.765,62.67
32.781,83.79
32.796,101.84
32.812,116.0
32.828,125.63
32.843,130.3
32.859,129.81
32.875,124.34
32.890,114.55
32.906,101.6
32.921,87.05
32.937,72.6
32.953,59.75
32.968,49.32
32.984,41.25
33.000,34.5
33.015,27.4
33.031,18.32
33.046,6.26
33.062,-8.63
33.078,-25.04
33.093,-40.95
33.109,-54.36
33.125,-64.02
33.140,-69.89
33.156,-73.04
33.171,-75.09
33.187,-77.4
33.203,-80.42
33.218,-83.31
33.234,-84.19
33.250,-80.86
33.265,-71.63
33.281,-55.93
33.296,-34.49
33.312,-8.9
33.328,18.94
33.343,47.39
33.359,75.35
33.375,102.23
33.390,127.7
33.406,151.49
33.421,173.39
33.437,193.12
33.453,210.49
33.468,225.21
33.484,236.79
33.500,244.36
33.515,246.86
33.531,243.28
33.546,233.1
33.562,216.69
33.578,195.28
33.593,170.72
33.609,145.01
33.625,119.86
33.640,96.42
33.656,75.27
33.671,56.62
33.687,40.66
33.703,27.63
33.718,17.77
33.734,10.98
33.750,6.61
33.765,3.35
33.781,-0.31
33.796,-5.57
33.812,-12.65
33.828,-20.48
33.843,-27.0
33.859,-30.06
33.875,-28.63
33.890,-23.5
33.906,-17.33
33.921,-13.72
33.937,-15.83
33.953,-25.11
33.968,-40.94
33.984,-60.92
34.000,-82.02
34.015,-101.58
34.031,-117.82
34.046,-129.92
34.062,-137.66
34.078,-141.12
34.093,-140.75
34.109,-137.61
34.125,-133.51
34.140,-130.71
34.156,-131.29
34.171,-136.3
34.187,-145.31
34.203,-156.56
34.218,-167.64
34.234,-176.4
34.250,-181.46
34.265,-182.41
34.281,-179.5
34.296,-173.25
34.312,-164.23
34.328,-153.12
34.343,-140.78
34.359,-128.04
34.375,-115.37
34.390,-102.39
34.406,-87.76
34.421,-69.53
34.437,-45.99
34.453,-16.43
34.468,18.44
34.484,56.75
34.500,96.12
34.515,134.36
34.531,169.92
34.546,201.79
34.562,229.37
34.578,252.12
34.593,269.55
34.609,281.3
34.625,287.19
34.640,287.31
34.656,281.8
34.671,270.78
34.687,254.33
34.703,232.55
34.718,205.85
34.734,175.08
34.750,141.54
34.765,106.83
34.781,72.58
34.796,40.23
34.812,10.94
34.828,-14.5
34.843,-35.62
34.859,-52.37
34.875,-65.32
34.890,-75.84
34.906,-86.01
34.921,-98.23
34.937,-114.32
34.953,-134.61
34.968,-157.55
34.984,-179.87
35.000,-197.65
35.015,-207.58
35.031,-208.0
35.046,-199.24
35.062,-183.1
35.078,-162.04
35.093,-138.38
35.109,-113.93
35.125,-90.17
35.140,-68.69
35.156,-51.32
35.171,-39.91
35.187,-35.67
35.203,-38.67
35.218,-47.51
35.234,-59.71
35.250,-72.46
35.265,-83.52
35.281,-91.83
35.296,-97.57
35.312,-101.69
35.328,-105.17
35.343,-108.53
35.359,-111.62
35.375,-113.85
35.390,-114.72
35.406,-114.09
35.421,-112.23
35.437,-109.54
35.453,-106.24
35.468,-102.3
35.484,-97.56
35.500,-91.92
35.515,-85.46
35.531,-78.26
35.546,-70.15
35.562,-60.55
35.578,-48.61
35.593,-33.59
35.609,-15.23
35.625,5.93
35.640,28.61
35.656,51.05
35.671,71.32
35.687,87.67
35.703,98.67
35.718,103.44
35.734,101.86
35.750,94.63
35.765,83.22
35.781,69.62
35.796,55.94
35.812,44.0
35.828,34.97
35.843,29.26
35.859,26.49
35.875,25.82
35.890,26.31
35.906,27.21
35.921,28.23
35.937,29.55
35.953,31.54
35.968,34.51
35.984,38.46
36.000,43.02
36.015,47.44
36.031,50.94
36.046,52.88
36.062,53.13
36.078,52.17
36.093,51.12
36.109,51.41
36.125,54.37
36.140,60.58
36.156,69.48
36.171,79.35
36.187,87.8
36.203,92.51
36.218,92.0
36.234,86.03
36.250,75.45
36.265,61.78
36.281,46.55
36.296,30.94
36.312,15.7
36.328,1.3
36.343,-11.77
36.359,-22.98
36.375,-31.82
36.390,-37.95
36.406,-41.38
36.421,-42.44
36.437,-41.64
36.453,-39.46
36.468,-36.24
36.484,-32.15
36.500,-27.23
36.515,-21.56
36.531,-15.34
36.546,-8.92
36.562,-2.83
36.578,2.29
36.593,5.69
36.609,6.75
36.625,5.17
36.640,1.33
36.656,-3.6
36.671,-7.8
36.687,-9.2
36.703,-6.19
36.718,1.83
36.734,14.18
36.750,29.13
36.765,44.44
36.781,58.08
36.796,68.71
36.812,75.77
36.828,79.23
36.843,79.24
36.859,75.86
36.875,69.02
36.890,58.77
36.906,45.51
36.921,30.1
36.937,13.82
36.953,-1.95
36.968,-15.98
36.984,-27.33
37.000,-35.34
37.015,-39.58
37.031,-39.83
37.046,-36.1
37.062,-28.73
37.078,-18.45
37.093,-6.37
37.109,6.23
37.125,18.06
37.140,28.05
37.156,35.53
37.171,40.28
37.187,42.6
37.203,43.32
37.218,43.59
37.234,44.6
37.250,47.28
37.265,51.94
37.281,58.11
37.296,64.68
37.312,70.24
37.328,73.49
37.343,73.61
37.359,70.35
37.375,63.91
37.390,54.67
37.406,42.91
37.421,28.79
37.437,12.44
37.453,-5.72
37.468,-24.81
37.484,-43.49
37.500,-60.12
37.515,-73.13
37.531,-81.34
37.546,-84.27
37.562,-82.16
37.578,-75.89
37.593,-66.74
37.609,-56.12
37.625,-45.3
37.640,-35.26
37.656,-26.59
37.671,-19.52
37.687,-13.93
37.703,-9.51
37.718,-5.74
37.734,-2.08
37.750,1.87
37.765,6.3
37.781,11.13
37.796,16.12
37.812,21.14
37.828,26.33
37.843,32.17
37.859,39.27
37.875,48.04
37.890,58.38
37.906,69.48
37.921,79.81
37.937,87.35
37.953,90.08
37.968,86.46
37.984,76.04
38.000,59.69
38.015,39.64
38.031,19.05
38.046,1.33
38.062,-10.69
38.078,-15.39
38.093,-12.66
38.109,-3.7
38.125,9.51
38.140,24.8
38.156,40.32
38.171,54.87
38.187,67.86
38.203,79.11
38.218,88.66
38.234,96.63
38.250,103.1
38.265,108.22
38.281,112.24
38.296,115.53
38.312,118.57
38.328,121.82
38.343,125.6
38.359,129.94
38.375,134.5
38.390,138.55
38.406,141.04
38.421,140.79
38.437,136.77
38.453,128.25
38.468,114.87
38.484,96.76
38.500,74.31
38.515,48.23
38.531,19.43
38.546,-10.98
38.562,-41.56
38.578,-70.68
38.593,-96.61
38.609,-117.78
38.625,-133.01
38.640,-141.8
38.656,-144.26
38.671,-141.07
38.687,-133.25
38.703,-121.94
38.718,-108.3
38.734,-93.39
38.750,-78.18
38.765,-63.34
38.781,-49.2
38.796,-35.64
38.812,-22.3
38.828,-8.9
38.843,4.34
38.859,16.61
38.875,26.72
38.890,33.65
38.906,37.1
38.921,37.7
38.937,36.79
38.953,35.82
38.968,35.82
38.984,37.08
39.000,39.14
39.015,41.06
39.031,41.64
39.046,39.51
39.062,33.23
39.078,21.68
39.093,4.37
39.109,-18.11
39.125,-44.02
39.140,-70.79
39.156,-95.68
39.171,-116.36
39.187,-131.33
39.203,-139.87
39.218,-141.86
39.234,-137.66
39.250,-128.1
39.265,-114.51
39.281,-98.6
39.296,-82.06
39.312,-66.17
39.328,-51.46
39.343,-37.79
39.359,-24.67
39.375,-11.7
39.390,1.12
39.406,13.48
39.421,24.96
39.437,35.26
39.453,44.36
39.468,52.5
39.484,60.0
39.500,67.23
39.515,74.41
39.531,81.61
39.546,88.59
39.562,94.81
39.578,99.43
39.593,101.45
39.609,99.89
39.625,94.01
39.640,83.4
39.656,67.99
39.671,48.02
39.687,24.15
39.703,-2.55
39.718,-30.39
39.734,-57.22
39.750,-80.67
39.765,-98.62
39.781,-109.69
39.796,-113.36
39.812,-110.13
39.828,-101.13
39.843,-87.86
39.859,-71.8
39.875,-54.15
39.890,-35.76
39.906,-17.16
39.921,1.22
39.937,18.91
39.953,35.24
39.968,49.4
39.984,60.72
40.000,69.07
40.015,75.04
40.031,79.94
40.046,85.39
40.062,92.67
40.078,102.21
40.093,113.5
40.109,125.28
40.125,136.15
40.140,145.08
40.156,151.61
40.171,155.74
40.187,157.57
40.203,156.98
40.218,153.61
40.234,147.06
40.250,137.23
40.265,124.72
40.281,110.89
40.296,97.76
40.312,87.53
40.328,82.09
40.343,82.53
40.359,88.78
40.375,99.61
40.390,112.92
40.406,126.26
40.421,137.56
40.437,145.69
40.453,150.82
40.468,154.25
40.484,157.95
40.500,163.75
40.515,172.47
40.531,183.48
40.546,194.66
40.562,203.16
40.578,206.38
40.593,202.97
40.609,193.23
40.625,178.85
40.640,162.09
40.656,144.94
40.671,128.63
40.687,113.6
40.703,100.02
40.718,88.08
40.734,78.22
40.750,70.85
40.765,65.99
40.781,63.12
40.796,61.26
40.812,59.35
40.828,56.68
40.843,53.12
40.859,49.1
40.875,45.32
40.890,42.36
40.906,40.35
40.921,38.86
40.937,37.0
40.953,33.79
40.968,28.45
40.984,20.75
41.000,11.04
41.015,0.12
41.031,-11.16
41.046,-22.13
41.062,-32.71
41.078,-43.36
41.093,-54.92
41.109,-68.24
41.125,-83.78
41.140,-101.39
41.156,-120.28
41.171,-139.46
41.187,-157.98
41.203,-175.35
41.218,-191.68
41.234,-207.53
41.250,-223.72
41.265,-241.13
41.281,-260.63
41.296,-282.83
41.312,-307.63
41.328,-333.72
41.343,-358.29
41.359,-377.5
41.375,-387.57
41.390,-386.24
41.406,-373.79
41.421,-353.07
41.437,-328.44
41.453,-304.05
41.468,-282.56
41.484,-264.5
41.500,-248.93
41.515,-234.38
41.531,-219.9
41.546,-205.24
41.562,-190.63
41.578,-176.2
41.593,-161.71
41.609,-146.7
41.625,-130.91
41.640,-114.61
41.656,-98.52
41.671,-83.73
41.687,-71.0
41.703,-60.45
41.718,-51.53
41.734,-43.26
41.750,-34.85
41.765,-26.03
41.781,-17.22
41.796,-9.22
41.812,-2.92
41.828,1.19
41.843,3.02
41.859,2.78
41.875,0.8
41.890,-2.66
41.906,-7.29
41.921,-12.68
41.937,-18.17
41.953,-23.02
41.968,-26.58
41.984,-28.58
42.000,-29.22
42.015,-29.03
42.031,-28.62
42.046,-28.37
42.062,-28.39
42.078,-28.52
42.093,-28.57
42.109,-28.45
42.125,-28.16
42.140,-27.83
42.156,-27.53
42.171,-27.3
42.187,-27.11
42.203,-26.95
42.218,-26.86
42.234,-26.91
42.250,-27.18
42.265,-27.63
42.281,-28.24
42.296,-28.91
42.312,-29.71
42.328,-30.84
42.343,-32.63
42.359,-35.21
42.375,-38.3
42.390,-41.05
42.406,-42.17
42.421,-40.48
42.437,-35.37
42.453,-27.18
42.468,-17.25
42.484,-7.37
42.500,0.79
42.515,6.19
42.531,8.55
42.546,8.2
42.562,5.62
42.578,1.24
42.593,-4.64
42.609,-11.72
42.625,-19.54
42.640,-27.43
42.656,-34.61
42.671,-40.33
42.687,-44.07
42.703,-45.6
42.718,-45.07
42.734,-42.92
42.750,-39.76
42.765,-36.24
42.781,-32.77
42.796,-29.5
42.812,-26.32
42.828,-23.13
42.843,-20.07
42.859,-17.63
42.875,-16.59
42.890,-17.74
42.906,-21.58
42.921,-27.93
42.937,-35.8
42.953,-43.54
42.968,-49.1
42.984,-50.75
43.000,-47.48
43.015,-39.45
43.031,-27.82
43.046,-14.4
43.062,-1.07
43.078,10.67
43.093,19.92
43.109,26.28
43.125,29.62
43.140,29.96
43.156,27.45
43.171,22.53
43.187,15.9
43.203,8.5
43.218,1.29
43.234,-5.03
43.250,-10.03
43.265,-13.61
43.281,-15.94
43.296,-17.29
43.312,-18.02
43.328,-18.46
43.343,-18.85
43.359,-19.3
43.375,-19.72
43.390,-19.92
43.406,-19.8
43.421,-19.42
43.437,-19.2
43.453,-19.98
43.468,-22.83
43.484,-28.81
43.500,-38.58
43.515,-52.02
43.531,-68.06
43.546,-84.86
43.562,-100.17
43.578,-111.89
43.593,-118.59
43.609,-119.66
43.625,-115.31
43.640,-106.2
43.656,-93.16
43.671,-77.06
43.687,-58.85
43.703,-39.69
43.718,-21.08
43.734,-4.68
43.750,8.03
43.765,16.04
43.781,19.19
43.796,18.08
43.812,13.9
43.828,7.94
43.843,1.24
43.859,-5.62
43.875,-12.52
43.890,-19.48
43.906,-26.49
43.921,-33.45
43.937,-40.15
43.953,-46.51
43.968,-52.73
43.984,-59.25
44.000,-66.68
44.015,-75.7
44.031,-86.96
44.046,-100.97
44.062,-117.83
44.078,-136.9
44.093,-156.47
44.109,-173.81
44.125,-185.68
44.140,-189.23
44.156,-182.9
44.171,-166.97
44.187,-143.39
44.203,-115.06
44.218,-84.97
44.234,-55.5
44.250,-28.32
44.265,-4.46
44.281,15.39
44.296,30.75
44.312,41.49
44.328,48.08
44.343,51.66
44.359,53.86
44.375,56.37
44.390,60.34
44.406,65.92
44.421,72.25
44.437,77.69
44.453,80.6
44.468,80.13
44.484,76.54
44.500,71.22
44.515,66.0
44.531,62.32
44.546,60.6
44.562,60.05
44.578,58.93
44.593,55.26
44.609,47.45
44.625,34.76
44.640,17.6
44.656,-2.5
44.671,-23.1
44.687,-41.29
44.703,-54.34
44.718,-60.33
44.734,-58.63
44.750,-50.0
44.765,-36.24
44.781,-19.61
44.796,-2.23
44.812,14.26
44.828,28.79
44.843,40.69
44.859,49.53
44.875,55.15
44.890,57.65
44.906,57.62
44.921,56.13
44.937,54.52
44.953,54.01
44.968,55.25
44.984,58.05
45.000,61.46
45.015,64.24
45.031,65.43
45.046,64.79
45.062,62.89
45.078,60.63
45.093,58.61
45.109,56.63
45.125,53.59
45.140,47.8
45.156,37.67
45.171,22.37
45.187,2.24
45.203,-21.11
45.218,-45.06
45.234,-66.52
45.250,-82.49
45.265,-90.76
45.281,-90.36
45.296,-81.71
45.312,-66.33
45.328,-46.43
45.343,-24.3
45.359,-1.94
45.375,19.01
45.390,37.39
45.406,52.36
45.421,63.51
45.437,70.9
45.453,75.12
45.468,77.25
45.484,78.65
45.500,80.7
45.515,84.43
45.531,90.18
45.546,97.43
45.562,104.79
45.578,110.37
45.593,112.37
45.609,109.77
45.625,102.7
45.640,92.42
45.656,80.76
45.671,69.44
45.687,59.34
45.703,50.31
45.718,41.37
45.734,31.17
45.750,18.6
45.765,3.2
45.781,-14.57
45.796,-33.35
45.812,-51.01
45.828,-65.09
45.843,-73.43
45.859,-74.75
45.875,-69.07
45.890,-57.69
45.906,-42.78
45.921,-26.66
45.937,-11.26
45.953,2.27
45.968,13.54
45.984,22.83
46.000,31.02
46.015,39.49
46.031,49.92
46.046,63.77
46.062,81.57
46.078,102.31
46.093,123.46
46.109,141.57
46.125,153.44
46.140,157.3
46.156,153.34
46.171,143.47
46.187,130.5
46.203,117.06
46.218,104.89
46.234,94.62
46.250,86.06
46.265,78.55
46.281,71.35
46.296,63.6
46.312,54.29
46.328,42.25
46.343,26.43
46.359,6.3
46.375,-17.47
46.390,-42.86
46.406,-66.69
46.421,-85.41
46.437,-96.06
46.453,-97.1
46.468,-88.65
46.484,-72.24
46.500,-50.26
46.515,-25.27
46.531,0.45
46.546,25.15
46.562,47.9
46.578,68.41
46.593,87.05
46.609,104.43
46.625,120.95
46.640,136.44
46.656,150.08
46.671,160.76
46.687,167.55
46.703,170.29
46.718,169.58
46.734,166.63
46.750,162.66
46.765,158.48
46.781,154.34
46.796,149.97
46.812,144.75
46.828,137.83
46.843,128.13
46.859,114.35
46.875,95.12
46.890,69.48
46.906,37.42
46.921,0.36
46.937,-38.88
46.953,-76.56
46.968,-109.03
46.984,-133.63
47.000,-149.37
47.015,-156.87
47.031,-157.8
47.046,-154.04
47.062,-146.93
47.078,-136.83
47.093,-123.27
47.109,-105.31
47.125,-82.2
47.140,-53.96
47.156,-21.76
47.171,12.15
47.187,44.92
47.203,73.83
47.218,97.05
47.234,114.03
47.250,125.3
47.265,131.95
47.281,134.92
47.296,134.75
47.312,131.67
47.328,126.02
47.343,118.53
47.359,110.18
47.375,101.59
47.390,92.45
47.406,81.31
47.421,65.97
47.437,44.43
47.453,15.82
47.468,-19.04
47.484,-57.77
47.500,-96.95
47.515,-132.97
47.531,-162.6
47.546,-183.38
47.562,-193.8
47.578,-193.49
47.593,-183.23
47.609,-164.86
47.625,-140.81
47.640,-113.33
47.656,-83.84
47.671,-52.64
47.687,-19.33
47.703,16.43
47.718,53.98
47.734,91.41
47.750,125.95
47.765,154.91
47.781,176.61
47.796,190.77
47.812,198.19
47.828,200.04
47.843,197.13
47.859,189.55
47.875,176.85
47.890,158.54
47.906,134.49
47.921,105.19
47.937,71.69
47.953,35.34
47.968,-2.47
47.984,-40.53
48.000,-78.01
48.015,-114.45
48.031,-149.66
48.046,-183.46
48.062,-215.32
48.078,-244.03
48.093,-267.76
48.109,-284.35
48.125,-291.91
48.140,-289.38
48.156,-276.78
48.171,-255.11
48.187,-226.04
48.203,-191.52
48.218,-153.48
48.234,-113.86
48.250,-74.48
48.265,-36.96
48.281,-2.59
48.296,27.81
48.312,53.78
48.328,75.07
48.343,91.55
48.359,103.26
48.375,110.48
48.390,113.88
48.406,114.36
48.421,112.76
48.437,109.5
48.453,104.43
48.468,96.96
48.484,86.39
48.500,72.27
48.515,54.58
48.531,33.69
48.546,10.31
48.562,-14.54
48.578,-39.38
48.593,-62.35
48.609,-81.38
48.625,-94.82
48.640,-102.0
48.656,-103.51
48.671,-100.96
48.687,-96.2
48.703,-90.47
48.718,-83.81
48.734,-75.15
48.750,-62.9
48.765,-45.77
48.781,-23.42
48.796,3.36
48.812,32.86
48.828,63.01
48.843,91.74
48.859,117.3
48.875,138.46
48.890,154.62
48.906,165.82
48.921,172.72
48.937,176.43
48.953,178.14
48.968,178.77
48.984,178.63
49.000,177.38
49.015,174.24
49.031,168.3
49.046,158.87
49.062,145.6
49.078,128.46
49.093,107.52
49.109,82.82
49.125,54.45
49.140,22.74
49.156,-11.34
49.171,-46.14
49.187,-79.51
49.203,-109.3
49.218,-133.9
49.234,-152.51
49.250,-165.01
49.265,-171.45
49.281,-171.6
49.296,-164.84
49.312,-150.44
49.328,-128.06
49.343,-98.34
49.359,-63.03
49.375,-24.79
49.390,13.41
49.406,48.96
49.421,80.08
49.437,105.95
49.453,126.52
49.468,142.17
49.484,153.43
49.500,160.88
49.515,165.06
49.531,166.36
49.546,164.91
49.562,160.31
49.578,151.55
49.593,137.14
49.609,115.68
49.625,86.48
49.640,50.13
49.656,8.6
49.671,-35.12
49.687,-77.69
49.703,-116.09
49.718,-147.95
49.734,-171.73
49.750,-186.65
49.765,-192.71
49.781,-190.75
49.796,-182.47
49.812,-170.13
49.828,-155.89
49.843,-141.16
49.859,-126.01
49.875,-109.31
49.890,-89.33
49.906,-64.75
49.921,-35.43
49.937,-2.68
49.953,31.19
49.968,63.7
49.984,92.98
50.000,118.27
50.015,139.78
50.031,158.28
50.046,174.5
50.062,188.72
50.078,200.66
50.093,209.57
50.109,214.52
50.125,214.77
50.140,209.99
50.156,200.28
50.171,185.99
50.187,167.33
50.203,144.07
50.218,115.52
50.234,80.88
50.250,39.84
50.265,-6.84
50.281,-56.96
50.296,-107.17
50.312,-153.57
50.328,-192.72
50.343,-222.45
50.359,-242.42
50.375,-253.97
50.390,-259.4
50.406,-260.83
50.421,-259.2
50.437,-253.9
50.453,-243.13
50.468,-225.08
50.484,-198.97
50.500,-165.74
50.515,-127.88
50.531,-88.5
50.546,-50.28
50.562,-14.83
50.578,17.35
50.593,46.45
50.609,72.66
50.625,95.81
50.640,115.29
50.656,130.14
50.671,139.16
50.687,141.06
50.703,134.8
50.718,119.88
50.734,96.79
50.750,67.23
50.765,34.01
50.781,0.67
50.796,-29.3
50.812,-53.13
50.828,-69.4
50.843,-78.18
50.859,-80.98
50.875,-80.29
50.890,-78.94
50.906,-79.26
50.921,-82.47
50.937,-88.29
50.953,-95.04
50.968,-100.2
50.984,-101.18
51.000,-96.16
51.015,-84.48
51.031,-66.66
51.046,-44.06
51.062,-18.36
51.078,8.78
51.093,36.02
51.109,62.41
51.125,87.39
51.140,110.75
51.156,132.61
51.171,153.14
51.187,172.23
51.203,189.09
51.218,202.18
51.234,209.38
51.250,208.7
51.265,198.88
51.281,179.91
51.296,153.07
51.312,120.5
51.328,84.63
51.343,47.81
51.359,12.11
51.375,-20.57
51.390,-48.48
51.406,-70.17
51.421,-84.7
51.437,-92.0
51.453,-92.94
51.468,-89.14
51.484,-82.57
51.500,-74.94
51.515,-67.3
51.531,-59.72
51.546,-51.47
51.562,-41.31
51.578,-27.96
51.593,-10.42
51.609,11.76
51.625,38.44
51.640,68.83
51.656,101.41
51.671,133.95
51.687,163.59
51.703,187.24
51.718,202.18
51.734,206.55
51.750,199.76
51.765,182.35
51.781,155.66
51.796,121.39
51.812,81.19
51.828,36.64
51.843,-10.74
51.859,-59.37
51.875,-107.52
51.890,-153.3
51.906,-194.63
51.921,-229.32
51.937,-255.31
51.953,-271.02
51.968,-275.81
51.984,-270.23
52.000,-255.99
52.015,-235.65
52.031,-212.04
52.046,-187.75
52.062,-164.81
52.078,-144.45
52.093,-127.14
52.109,-112.45
52.125,-99.28
52.140,-86.0
52.156,-70.93
52.171,-52.75
52.187,-30.94
52.203,-6.0
52.218,20.77
52.234,47.6
52.250,72.72
52.265,94.56
52.281,111.89
52.296,123.69
52.312,129.14
52.328,127.64
52.343,118.91
52.359,103.23
52.375,81.45
52.390,54.96
52.406,25.52
52.421,-4.89
52.437,-34.19
52.453,-60.3
52.468,-81.27
52.484,-95.65
52.500,-102.84
52.515,-103.36
52.531,-98.79
52.546,-91.2
52.562,-82.46
52.578,-73.61
52.593,-64.79
52.609,-55.54
52.625,-45.54
52.640,-35.02
52.656,-24.9
52.671,-16.29
52.687,-9.91
52.703,-5.68
52.718,-2.66
52.734,0.54
52.750,5.32
52.765,12.64
52.781,22.95
52.796,36.14
52.812,51.48
52.828,67.56
52.843,82.27
52.859,93.08
52.875,97.6
52.890,94.25
52.906,82.85
52.921,64.72
52.937,42.42
52.953,19.09
52.968,-2.17
52.984,-18.9
53.000,-29.64
53.015,-34.14
53.031,-33.34
53.046,-29.0
53.062,-23.25
53.078,-17.86
53.093,-13.8
53.109,-11.05
53.125,-8.85
53.140,-6.26
53.156,-2.62
53.171,2.29
53.187,8.42
53.203,15.78
53.218,24.68
53.234,35.71
53.250,49.36
53.265,65.77
53.281,84.47
53.296,104.59
53.312,125.08
53.328,145.03
53.343,163.76
53.359,180.68
53.375,195.04
53.390,205.67
53.406,211.01
53.421,209.32
53.437,199.06
53.453,179.43
53.468,150.62
53.484,114.02
53.500,72.04
53.515,27.67
53.531,-16.03
53.546,-56.46
53.562,-91.75
53.578,-120.66
53.593,-142.24
53.609,-155.7
53.625,-160.45
53.640,-156.47
53.656,-144.73
53.671,-127.24
53.687,-106.69
53.703,-85.73
53.718,-66.36
53.734,-49.58
53.750,-35.53
53.765,-23.79
53.781,-13.7
53.796,-4.5
53.812,4.68
53.828,14.73
53.843,26.28
53.859,39.32
53.875,53.14
53.890,66.34
53.906,77.41
53.921,85.15
53.937,88.92
53.953,88.55
53.968,83.98
53.984,74.86
54.000,60.45
54.015,39.85
54.031,12.51
54.046,-21.27
54.062,-60.07
54.078,-101.43
54.093,-142.26
54.109,-179.45
54.125,-210.32
54.140,-232.99
54.156,-246.48
54.171,-250.66
54.187,-246.28
54.203,-234.8
54.218,-218.36
54.234,-199.42
54.250,-180.4
54.265,-163.12
54.281,-148.48
54.296,-136.27
54.312,-125.33
54.328,-113.99
54.343,-100.62
54.359,-84.12
54.375,-64.13
54.390,-41.07
54.406,-15.89
54.421,10.23
54.437,36.14
54.453,60.98
54.468,84.22
54.484,105.58
54.500,124.75
54.515,141.12
54.531,153.6
54.546,160.65
54.562,160.76
54.578,152.92
54.593,137.06
54.609,114.18
54.625,86.15
54.640,55.23
54.656,23.66
54.671,-6.63
54.687,-34.02
54.703,-57.01
54.718,-74.25
54.734,-84.63
54.750,-87.64
54.765,-83.66
54.781,-74.02
54.796,-60.73
54.812,-45.97
54.828,-31.58
54.843,-18.6
54.859,-7.15
54.875,3.41
54.890,14.18
54.906,26.26
54.921,40.41
54.937,56.82
54.953,75.11
54.968,94.39
54.984,113.64
55.000,131.98
55.015,148.93
55.031,164.46
55.046,178.57
55.062,190.82
55.078,199.86
55.093,203.37
55.109,198.48
55.125,182.66
55.140,154.51
55.156,114.4
55.171,64.58
55.187,8.83
55.203,-48.13
55.218,-101.4
55.234,-146.54
55.250,-180.17
55.265,-200.33
55.281,-206.79
55.296,-201.0
55.312,-185.9
55.328,-165.27
55.343,-143.04
55.359,-122.51
55.375,-105.73
55.390,-93.17
55.406,-83.84
55.421,-75.7
55.437,-66.34
55.453,-53.75
55.468,-36.81
55.484,-15.54
55.500,9.13
55.515,35.73
55.531,62.87
55.546,89.49
55.562,114.91
55.578,138.43
55.593,158.94
55.609,174.7
55.625,183.45
55.640,183.05
55.656,172.15
55.671,150.79
55.687,120.45
55.703,83.76
55.718,43.75
55.734,3.34
55.750,-35.04
55.765,-69.5
55.781,-98.55
55.796,-121.04
55.812,-136.26
55.828,-144.07
55.843,-145.02
55.859,-140.34
55.875,-131.62
55.890,-120.46
55.906,-108.21
55.921,-95.75
55.937,-83.51
55.953,-71.46
55.968,-59.25
55.984,-46.17
56.000,-31.31
56.015,-13.87
56.031,6.55
56.046,29.66
56.062,54.32
56.078,78.91
56.093,101.66
56.109,121.15
56.125,136.55
56.140,147.58
56.156,154.24
56.171,156.48
56.187,154.11
56.203,146.81
56.218,134.26
56.234,116.34
56.250,93.11
56.265,64.88
56.281,32.33
56.296,-3.39
56.312,-40.53
56.328,-76.75
56.343,-109.34
56.359,-135.72
56.375,-153.92
56.390,-163.04
56.406,-163.32
56.421,-156.1
56.437,-143.48
56.453,-127.9
56.468,-111.79
56.484,-96.98
56.500,-84.28
56.515,-73.23
56.531,-62.3
56.546,-49.43
56.562,-32.91
56.578,-12.0
56.593,12.73
56.609,39.68
56.625,66.83
56.640,92.36
56.656,114.98
56.671,133.85
56.687,148.42
56.703,158.11
56.718,162.3
56.734,160.4
56.750,152.06
56.765,137.24
56.781,116.22
56.796,89.56
56.812,58.04
56.828,22.86
56.843,-14.3
56.859,-51.15
56.875,-84.97
56.890,-113.03
56.906,-133.13
56.921,-144.14
56.937,-146.2
56.953,-140.61
56.968,-129.45
56.984,-114.96
57.000,-99.12
57.015,-83.33
57.031,-68.26
57.046,-53.98
57.062,-40.06
57.078,-25.9
57.093,-11.02
57.109,4.64
57.125,20.63
57.140,36.16
57.156,50.42
57.171,62.98
57.187,73.92
57.203,83.75
57.218,92.95
57.234,101.53
57.250,108.66
57.265,112.85
57.281,112.23
57.296,105.22
57.312,91.0
57.328,69.73
57.343,42.6
57.359,11.5
57.375,-21.22
57.390,-53.06
57.406,-81.63
57.421,-104.91
57.437,-121.47
57.453,-130.72
57.468,-133.0
57.484,-129.49
57.500,-122.06
57.515,-112.89
57.531,-104.04
57.546,-96.94
57.562,-92.08
57.578,-88.87
57.593,-85.77
57.609,-80.89
57.625,-72.52
57.640,-59.76
57.656,-42.66
57.671,-22.08
57.687,0.74
57.703,24.55
57.718,48.34
57.734,71.16
57.750,91.94
57.765,109.37
57.781,122.1
57.796,129.02
57.812,129.67
57.828,124.3
57.843,113.81
57.859,99.35
57.875,81.97
57.890,62.47
57.906,41.45
57.921,19.65
57.937,-1.9
57.953,-21.75
57.968,-38.37
57.984,-50.45
58.000,-57.38
58.015,-59.36
58.031,-57.27
58.046,-52.31
58.062,-45.6
58.078,-37.93
58.093,-29.62
58.109,-20.67
58.125,-10.84
58.140,0.24
58.156,13.02
58.171,27.95
58.187,45.24
58.203,64.58
58.218,84.99
58.234,104.82
58.250,122.14
58.265,135.31
58.281,143.49
58.296,146.78
58.312,145.96
58.328,141.89
58.343,134.94
58.359,124.8
58.375,110.64
58.390,91.55
58.406,67.07
58.421,37.37
58.437,3.34
58.453,-33.65
58.468,-71.8
58.484,-109.09
58.500,-143.36
58.515,-172.52
58.531,-194.86
58.546,-209.43
58.562,-216.07
58.578,-215.49
58.593,-208.95
58.609,-198.01
58.625,-184.4
58.640,-169.72
58.656,-155.32
58.671,-141.93
58.687,-129.48
58.703,-117.13
58.718,-103.57
58.734,-87.6
58.750,-68.65
58.765,-47.07
58.781,-23.99
58.796,-0.74
58.812,21.57
58.828,42.36
58.843,61.5
58.859,78.91
58.875,94.19
58.890,106.46
58.906,114.46
58.921,116.79
58.937,112.35
58.953,100.59
58.968,81.72
58.984,56.91
59.000,28.32
59.015,-1.1
59.031,-27.92
59.046,-48.99
59.062,-62.11
59.078,-66.63
59.093,-63.53
59.109,-54.98
59.125,-43.49
59.140,-31.08
59.156,-18.84
59.171,-7.09
59.187,4.23
59.203,15.07
59.218,25.24
59.234,34.72
59.250,43.96
59.265,54.1
59.281,66.55
59.296,82.35
59.312,101.58
59.328,123.12
59.343,145.01
59.359,165.05
59.375,181.4
59.390,192.79
59.406,198.35
59.421,197.3
59.437,188.86
59.453,172.46
59.468,148.16
59.484,116.98
59.500,80.9
59.515,42.49
59.531,4.41
59.546,-31.02
59.562,-61.96
59.578,-86.92
59.593,-104.66
59.609,-114.21
59.625,-115.26
59.640,-108.37
59.656,-95.08
59.671,-77.53
59.687,-57.98
59.703,-38.22
59.718,-19.22
59.734,-1.22
59.750,16.19
59.765,33.63
59.781,51.68
59.796,70.62
59.812,90.29
59.828,110.06
59.843,129.18
59.859,147.14
59.875,163.94
59.890,180.13
59.906,196.33
59.921,212.63
59.937,228.17
59.953,241.02
59.968,248.61
59.984,248.49
