timestamp,value
00.000,61.31
00.015,67.32
00.031,72.13
00.046,75.69
00.062,77.99
00.078,79.06
00.093,79.12
00.109,78.48
00.125,77.54
00.140,76.66
00.156,76.09
00.171,75.97
00.187,76.43
00.203,77.53
00.218,79.32
00.234,81.71
00.250,84.41
00.265,86.85
00.281,88.24
00.296,87.86
00.312,85.26
00.328,80.41
00.343,73.82
00.359,66.33
00.375,58.88
00.390,52.23
00.406,46.74
00.421,42.28
00.437,38.35
00.453,34.36
00.468,29.8
00.484,24.57
00.500,18.93
00.515,13.35
00.531,8.27
00.546,3.99
00.562,0.42
00.578,-2.74
00.593,-5.92
00.609,-9.58
00.625,-13.95
00.640,-18.99
00.656,-24.23
00.671,-28.68
00.687,-30.99
00.703,-29.72
00.718,-23.83
00.734,-13.06
00.750,1.86
00.765,19.41
00.781,37.68
00.796,54.83
00.812,69.53
00.828,81.01
00.843,88.99
00.859,93.61
00.875,95.24
00.890,94.54
00.906,92.32
00.921,89.45
00.937,86.69
00.953,84.57
00.968,83.21
00.984,82.48
01.000,81.96
01.015,81.14
01.031,79.59
01.046,77.07
01.062,73.62
01.078,69.58
01.093,65.46
01.109,61.75
01.125,58.82
01.140,56.8
01.156,55.57
01.171,54.96
01.187,54.8
01.203,55.02
01.218,55.58
01.234,56.44
01.250,57.37
01.265,57.98
01.281,57.76
01.296,56.21
01.312,53.14
01.328,48.76
01.343,43.78
01.359,39.19
01.375,35.84
01.390,34.04
01.406,33.45
01.421,33.03
01.437,31.5
01.453,27.73
01.468,21.14
01.484,11.92
01.500,1.07
01.515,-9.82
01.531,-18.82
01.546,-24.19
01.562,-24.86
01.578,-20.87
01.593,-13.49
01.609,-4.9
01.625,2.46
01.640,6.74
01.656,7.17
01.671,4.24
01.687,-0.73
01.703,-6.19
01.718,-11.0
01.734,-14.67
01.750,-17.31
01.765,-19.26
01.781,-20.76
01.796,-21.8
01.812,-22.19
01.828,-21.77
01.843,-20.65
01.859,-19.19
01.875,-17.79
01.890,-16.67
01.906,-15.7
01.921,-14.47
01.937,-12.63
01.953,-10.05
01.968,-7.06
01.984,-4.26
02.000,-2.32
02.015,-1.67
02.031,-2.39
02.046,-4.24
02.062,-6.82
02.078,-9.69
02.093,-12.56
02.109,-15.31
02.125,-18.01
02.140,-20.93
02.156,-24.44
02.171,-28.95
02.187,-34.81
02.203,-42.09
02.218,-50.63
02.234,-60.07
02.250,-70.06
02.265,-80.39
02.281,-90.94
02.296,-101.49
02.312,-111.47
02.328,-119.76
02.343,-124.88
02.359,-125.4
02.375,-120.46
02.390,-110.18
02.406,-95.68
02.421,-78.69
02.437,-61.05
02.453,-44.2
02.468,-29.0
02.484,-15.77
02.500,-4.55
02.515,4.7
02.531,12.0
02.546,17.41
02.562,21.12
02.578,23.53
02.593,25.16
02.609,26.52
02.625,27.95
02.640,29.5
02.656,31.03
02.671,32.37
02.687,33.49
02.703,34.57
02.718,36.0
02.734,38.08
02.750,40.96
02.765,44.43
02.781,48.03
02.796,51.25
02.812,53.76
02.828,55.45
02.843,56.54
02.859,57.33
02.875,58.04
02.890,58.7
02.906,59.11
02.921,58.96
02.937,58.04
02.953,56.4
02.968,54.41
02.984,52.75
03.000,52.13
03.015,52.96
03.031,55.12
03.046,57.86
03.062,59.94
03.078,60.25
03.093,58.2
03.109,54.22
03.125,49.61
03.140,46.09
03.156,45.02
03.171,46.83
03.187,50.94
03.203,56.09
03.218,60.96
03.234,64.68
03.250,66.96
03.265,68.01
03.281,68.24
03.296,68.32
03.312,69.16
03.328,71.8
03.343,76.86
03.359,83.73
03.375,90.21
03.390,92.98
03.406,89.02
03.421,77.23
03.437,59.37
03.453,39.58
03.468,22.41
03.484,10.81
03.500,4.59
03.515,0.76
03.531,-4.85
03.546,-15.45
03.562,-31.79
03.578,-52.0
03.593,-72.66
03.609,-90.49
03.625,-103.54
03.640,-111.61
03.656,-115.86
03.671,-117.83
03.687,-118.57
03.703,-118.16
03.718,-115.79
03.734,-110.3
03.750,-101.07
03.765,-88.53
03.781,-74.26
03.796,-60.5
03.812,-49.3
03.828,-41.85
03.843,-38.16
03.859,-37.45
03.875,-38.71
03.890,-41.17
03.906,-44.4
03.921,-48.27
03.937,-52.57
03.953,-56.94
03.968,-60.89
03.984,-63.94
04.000,-65.74
04.015,-66.09
04.031,-64.87
04.046,-61.86
04.062,-56.83
04.078,-49.6
04.093,-40.24
04.109,-29.13
04.125,-17.02
04.140,-4.83
04.156,6.41
04.171,15.76
04.187,22.61
04.203,26.76
04.218,28.54
04.234,28.63
04.250,27.85
04.265,26.88
04.281,26.18
04.296,25.85
04.312,25.92
04.328,26.47
04.343,27.83
04.359,30.5
04.375,34.98
04.390,41.22
04.406,48.34
04.421,54.56
04.437,57.74
04.453,56.27
04.468,49.83
04.484,39.61
04.500,27.85
04.515,16.78
04.531,7.75
04.546,0.84
04.562,-4.8
04.578,-10.34
04.593,-16.83
04.609,-25.23
04.625,-36.51
04.640,-51.75
04.656,-71.73
04.671,-96.31
04.687,-123.9
04.703,-151.59
04.718,-175.88
04.734,-193.8
04.750,-203.6
04.765,-204.87
04.781,-198.07
04.796,-184.02
04.812,-163.69
04.828,-138.34
04.843,-109.8
04.859,-80.42
04.875,-52.6
04.890,-28.05
04.906,-7.3
04.921,10.27
04.937,26.08
04.953,41.49
04.968,57.36
04.984,73.68
05.000,89.83
05.015,105.06
05.031,118.75
05.046,130.64
05.062,140.65
05.078,148.59
05.093,153.97
05.109,156.08
05.125,154.29
05.140,148.45
05.156,139.16
05.171,127.65
05.187,115.45
05.203,103.79
05.218,93.32
05.234,83.92
05.250,74.9
05.265,65.52
05.281,55.24
05.296,44.13
05.312,32.81
05.328,22.31
05.343,13.66
05.359,7.52
05.375,3.86
05.390,1.87
05.406,0.24
05.421,-2.5
05.437,-7.32
05.453,-14.43
05.468,-23.08
05.484,-31.84
05.500,-39.02
05.515,-43.28
05.531,-43.84
05.546,-40.64
05.562,-34.11
05.578,-24.89
05.593,-13.68
05.609,-1.11
05.625,12.11
05.640,25.2
05.656,37.3
05.671,47.66
05.687,55.65
05.703,60.66
05.718,62.04
05.734,58.9
05.750,50.53
05.765,37.12
05.781,20.37
05.796,3.81
05.812,-8.08
05.828,-11.35
05.843,-4.3
05.859,11.65
05.875,32.51
05.890,53.52
05.906,71.29
05.921,84.9
05.937,95.37
05.953,103.98
05.968,110.61
05.984,113.2
06.000,108.99
06.015,96.41
06.031,76.34
06.046,51.96
06.062,27.19
06.078,5.09
06.093,-12.9
06.109,-26.52
06.125,-35.91
06.140,-41.07
06.156,-42.31
06.171,-40.97
06.187,-39.64
06.203,-41.41
06.218,-48.46
06.234,-61.02
06.250,-77.1
06.265,-93.34
06.281,-105.93
06.296,-111.56
06.312,-107.98
06.328,-94.53
06.343,-72.67
06.359,-46.09
06.375,-20.09
06.390,-0.03
06.406,10.41
06.421,10.51
06.437,2.4
06.453,-9.83
06.468,-21.53
06.484,-28.57
06.500,-28.27
06.515,-20.02
06.531,-5.72
06.546,10.42
06.562,22.97
06.578,27.17
06.593,20.72
06.609,4.71
06.625,-16.96
06.640,-39.19
06.656,-57.37
06.671,-68.67
06.687,-72.54
06.703,-70.64
06.718,-66.37
06.734,-64.02
06.750,-67.56
06.765,-79.32
06.781,-99.09
06.796,-124.13
06.812,-150.22
06.828,-173.3
06.843,-190.79
06.859,-202.18
06.875,-208.71
06.890,-212.73
06.906,-216.88
06.921,-223.53
06.937,-234.13
06.953,-248.74
06.968,-265.67
06.984,-281.76
07.000,-293.2
07.015,-296.48
07.031,-289.26
07.046,-270.59
07.062,-241.12
07.078,-202.8
07.093,-158.83
07.109,-113.19
07.125,-70.02
07.140,-32.69
07.156,-3.02
07.171,18.97
07.187,34.76
07.203,46.47
07.218,56.0
07.234,64.4
07.250,71.94
07.265,78.41
07.281,83.54
07.296,87.36
07.312,90.15
07.328,92.32
07.343,94.14
07.359,95.63
07.375,96.66
07.390,97.02
07.406,96.54
07.421,95.19
07.437,92.91
07.453,89.52
07.468,84.68
07.484,78.0
07.500,69.26
07.515,58.67
07.531,46.95
07.546,35.17
07.562,24.41
07.578,15.37
07.593,8.05
07.609,1.84
07.625,-4.26
07.640,-11.23
07.656,-19.6
07.671,-29.08
07.687,-38.6
07.703,-46.4
07.718,-50.42
07.734,-48.86
07.750,-40.65
07.765,-25.87
07.781,-5.8
07.796,17.35
07.812,40.98
07.828,62.74
07.843,81.02
07.859,95.1
07.875,105.08
07.890,111.53
07.906,115.22
07.921,117.01
07.937,117.85
07.953,118.75
07.968,120.69
07.984,124.4
08.000,130.09
08.015,137.31
08.031,145.16
08.046,152.69
08.062,159.13
08.078,164.16
08.093,167.77
08.109,169.94
08.125,170.54
08.140,169.19
08.156,165.43
08.171,158.87
08.187,149.35
08.203,136.91
08.218,121.8
08.234,104.56
08.250,86.07
08.265,67.53
08.281,50.29
08.296,35.42
08.312,23.28
08.328,13.25
08.343,3.91
08.359,-6.45
08.375,-19.12
08.390,-34.34
08.406,-51.12
08.421,-67.56
08.437,-81.37
08.453,-90.6
08.468,-94.11
08.484,-91.8
08.500,-84.49
08.515,-73.58
08.531,-60.75
08.546,-47.64
08.562,-35.71
08.578,-26.08
08.593,-19.49
08.609,-16.3
08.625,-16.41
08.640,-19.29
08.656,-24.14
08.671,-29.96
08.687,-35.92
08.703,-41.41
08.718,-46.17
08.734,-50.19
08.750,-53.58
08.765,-56.33
08.781,-58.31
08.796,-59.3
08.812,-59.15
08.828,-57.78
08.843,-55.23
08.859,-51.62
08.875,-47.04
08.890,-41.67
08.906,-35.78
08.921,-29.71
08.937,-23.79
08.953,-18.21
08.968,-12.83
08.984,-7.28
09.000,-1.12
09.015,5.91
09.031,13.73
09.046,21.92
09.062,29.8
09.078,36.67
09.093,41.96
09.109,45.3
09.125,46.59
09.140,45.99
09.156,43.97
09.171,41.33
09.187,39.04
09.203,38.14
09.218,39.43
09.234,43.23
09.250,49.4
09.265,57.36
09.281,66.36
09.296,75.74
09.312,84.99
09.328,93.83
09.343,101.98
09.359,109.15
09.375,114.95
09.390,119.05
09.406,121.46
09.421,122.5
09.437,122.87
09.453,123.4
09.468,124.78
09.484,127.3
09.500,130.72
09.515,134.25
09.531,136.71
09.546,136.78
09.562,133.26
09.578,125.38
09.593,112.88
09.609,96.15
09.625,76.14
09.640,54.09
09.656,31.27
09.671,8.77
09.687,-12.59
09.703,-32.31
09.718,-50.01
09.734,-65.39
09.750,-78.2
09.765,-88.27
09.781,-95.62
09.796,-100.61
09.812,-103.88
09.828,-106.17
09.843,-108.18
09.859,-110.14
09.875,-111.64
09.890,-111.69
09.906,-108.87
09.921,-101.96
09.937,-90.44
09.953,-74.89
09.968,-57.02
09.984,-39.21
10.000,-23.74
10.015,-12.13
10.031,-4.73
10.046,-0.85
10.062,0.83
10.078,1.6
10.093,2.33
10.109,3.38
10.125,4.68
10.140,6.04
10.156,7.25
10.171,8.19
10.187,8.73
10.203,8.74
10.218,8.09
10.234,6.74
10.250,4.79
10.265,2.5
10.281,0.19
10.296,-1.92
10.312,-3.74
10.328,-5.41
10.343,-7.21
10.359,-9.47
10.375,-12.47
10.390,-16.39
10.406,-21.23
10.421,-26.88
10.437,-33.1
10.453,-39.62
10.468,-46.18
10.484,-52.6
10.500,-58.73
10.515,-64.47
10.531,-69.72
10.546,-74.45
10.562,-78.71
10.578,-82.74
10.593,-86.89
10.609,-91.53
10.625,-96.74
10.640,-102.07
10.656,-106.47
10.671,-108.43
10.687,-106.45
10.703,-99.64
10.718,-88.1
10.734,-72.95
10.750,-56.01
10.765,-39.11
10.781,-23.68
10.796,-10.43
10.812,0.48
10.828,9.14
10.843,15.64
10.859,20.05
10.875,22.52
10.890,23.47
10.906,23.55
10.921,23.4
10.937,23.48
10.953,23.9
10.968,24.4
10.984,24.64
11.000,24.35
11.015,23.53
11.031,22.46
11.046,21.55
11.062,21.21
11.078,21.6
11.093,22.57
11.109,23.65
11.125,24.27
11.140,23.89
11.156,22.36
11.171,19.83
11.187,16.69
11.203,13.39
11.218,10.12
11.234,6.79
11.250,3.15
11.265,-1.07
11.281,-5.92
11.296,-11.26
11.312,-16.76
11.328,-22.05
11.343,-26.94
11.359,-31.38
11.375,-35.52
11.390,-39.68
11.406,-44.2
11.421,-49.41
11.437,-55.34
11.453,-61.5
11.468,-66.9
11.484,-70.08
11.500,-69.51
11.515,-64.15
11.531,-53.72
11.546,-38.95
11.562,-21.34
11.578,-2.68
11.593,15.34
11.609,31.52
11.625,45.22
11.640,56.29
11.656,64.91
11.671,71.4
11.687,76.08
11.703,79.18
11.718,80.64
11.734,80.08
11.750,76.8
11.765,70.08
11.781,59.54
11.796,45.45
11.812,28.71
11.828,10.5
11.843,-8.1
11.859,-26.45
11.875,-44.31
11.890,-61.42
11.906,-77.27
11.921,-91.05
11.937,-101.93
11.953,-109.55
11.968,-114.22
11.984,-116.78
12.000,-118.14
12.015,-118.79
12.031,-118.73
12.046,-117.66
12.062,-115.4
12.078,-112.08
12.093,-108.17
12.109,-104.11
12.125,-100.08
12.140,-96.02
12.156,-91.8
12.171,-87.54
12.187,-83.79
12.203,-81.49
12.218,-81.65
12.234,-84.98
12.250,-91.4
12.265,-99.94
12.281,-108.74
12.296,-115.4
12.312,-117.57
12.328,-113.62
12.343,-103.09
12.359,-86.85
12.375,-66.79
12.390,-45.24
12.406,-24.31
12.421,-5.53
12.437,10.39
12.453,23.31
12.468,33.42
12.484,41.0
12.500,46.41
12.515,50.01
12.531,52.3
12.546,53.72
12.562,54.6
12.578,55.05
12.593,54.96
12.609,54.16
12.625,52.55
12.640,50.33
12.656,47.92
12.671,45.84
12.687,44.44
12.703,43.77
12.718,43.57
12.734,43.33
12.750,42.62
12.765,41.13
12.781,38.86
12.796,35.97
12.812,32.66
12.828,29.05
12.843,25.02
12.859,20.39
12.875,14.94
12.890,8.6
12.906,1.57
12.921,-5.7
12.937,-12.65
12.953,-18.75
12.968,-23.74
12.984,-27.71
13.000,-31.1
13.015,-34.68
13.031,-39.26
13.046,-45.57
13.062,-53.89
13.078,-63.86
13.093,-74.27
13.109,-83.27
13.125,-88.68
13.140,-88.64
13.156,-82.25
13.171,-69.84
13.187,-52.98
13.203,-33.91
13.218,-14.96
13.234,2.11
13.250,16.37
13.265,27.66
13.281,36.31
13.296,42.82
13.312,47.67
13.328,51.29
13.343,54.07
13.359,56.43
13.375,58.77
13.390,61.34
13.406,64.14
13.421,66.86
13.437,69.05
13.453,70.3
13.468,70.43
13.484,69.66
13.500,68.5
13.515,67.54
13.531,67.29
13.546,67.87
13.562,69.04
13.578,70.26
13.593,71.06
13.609,71.19
13.625,70.77
13.640,70.22
13.656,70.05
13.671,70.53
13.687,71.55
13.703,72.69
13.718,73.39
13.734,73.45
13.750,73.09
13.765,73.11
13.781,74.52
13.796,78.0
13.812,83.62
13.828,90.56
13.843,97.33
13.859,102.26
13.875,104.07
13.890,102.3
13.906,97.58
13.921,91.51
13.937,86.28
13.953,84.12
13.968,86.73
13.984,94.86
14.000,108.22
14.015,125.83
14.031,146.45
14.046,169.07
14.062,192.99
14.078,217.63
14.093,242.12
14.109,265.0
14.125,284.04
14.140,296.57
14.156,300.02
14.171,292.59
14.187,273.89
14.203,245.23
14.218,209.29
14.234,169.52
14.250,128.87
14.265,88.93
14.281,49.26
14.296,7.83
14.312,-37.79
14.328,-88.72
14.343,-143.35
14.359,-197.05
14.375,-242.89
14.390,-273.56
14.406,-283.53
14.421,-271.06
14.437,-239.24
14.453,-195.75
14.468,-151.09
14.484,-115.78
14.500,-97.4
14.515,-98.49
14.531,-116.19
14.546,-143.76
14.562,-173.23
14.578,-197.93
14.593,-214.03
14.609,-220.4
14.625,-217.59
14.640,-206.76
14.656,-189.25
14.671,-166.85
14.687,-142.39
14.703,-119.46
14.718,-101.68
14.734,-91.29
14.750,-88.25
14.765,-90.19
14.781,-93.25
14.796,-93.57
14.812,-88.57
14.828,-77.55
14.843,-61.53
14.859,-42.59
14.875,-22.94
14.890,-4.25
14.906,12.66
14.921,27.8
14.937,41.6
14.953,54.48
14.968,66.54
14.984,77.44
15.000,86.49
15.015,92.9
15.031,96.08
15.046,95.78
15.062,92.21
15.078,85.92
15.093,77.72
15.109,68.5
15.125,59.12
15.140,50.26
15.156,42.48
15.171,36.15
15.187,31.46
15.203,28.42
15.218,26.83
15.234,26.33
15.250,26.45
15.265,26.83
15.281,27.31
15.296,28.1
15.312,29.7
15.328,32.66
15.343,37.18
15.359,42.76
15.375,48.1
15.390,51.37
15.406,50.78
15.421,45.2
15.437,34.6
15.453,20.02
15.468,3.24
15.484,-13.84
15.500,-29.74
15.515,-43.64
15.531,-55.32
15.546,-64.95
15.562,-72.86
15.578,-79.22
15.593,-83.84
15.609,-86.06
15.625,-84.75
15.640,-78.58
15.656,-66.47
15.671,-48.05
15.687,-24.01
15.703,4.05
15.718,33.94
15.734,63.44
15.750,90.68
15.765,114.32
15.781,133.45
15.796,147.46
15.812,155.99
15.828,159.15
15.843,157.46
15.859,151.91
15.875,143.67
15.890,133.73
15.906,122.74
15.921,111.09
15.937,99.27
15.953,88.14
15.968,79.11
15.984,73.86
16.000,73.75
16.015,79.03
16.031,88.25
16.046,98.32
16.062,105.24
16.078,105.52
16.093,97.48
16.109,81.98
16.125,62.0
16.140,41.43
16.156,23.51
16.171,9.77
16.187,0.05
16.203,-6.65
16.218,-11.18
16.234,-13.52
16.250,-13.0
16.265,-9.12
16.281,-2.29
16.296,5.87
16.312,12.94
16.328,16.51
16.343,14.93
16.359,7.78
16.375,-4.04
16.390,-18.55
16.406,-33.32
16.421,-46.15
16.437,-55.82
16.453,-62.53
16.468,-67.84
16.484,-73.94
16.500,-82.62
16.515,-94.14
16.531,-106.92
16.546,-117.92
16.562,-123.97
16.578,-123.08
16.593,-115.38
16.609,-103.19
16.625,-90.35
16.640,-81.06
16.656,-78.79
16.671,-85.66
16.687,-101.98
16.703,-126.2
16.718,-154.97
16.734,-183.63
16.750,-206.79
16.765,-219.55
16.781,-218.59
16.796,-203.13
16.812,-175.25
16.828,-139.36
16.843,-100.96
16.859,-65.36
16.875,-36.48
16.890,-16.28
16.906,-4.93
16.921,-1.23
16.937,-3.08
16.953,-7.89
16.968,-12.84
16.984,-15.25
17.000,-13.12
17.015,-5.77
17.031,5.65
17.046,18.21
17.062,27.98
17.078,31.34
17.093,26.23
17.109,12.93
17.125,-6.27
17.140,-27.89
17.156,-48.49
17.171,-65.41
17.187,-76.98
17.203,-82.32
17.218,-81.08
17.234,-73.4
17.250,-59.98
17.265,-42.22
17.281,-22.01
17.296,-1.28
17.312,18.52
17.328,36.66
17.343,52.99
17.359,67.37
17.375,79.1
17.390,86.9
17.406,89.35
17.421,85.72
17.437,76.77
17.453,64.95
17.468,53.89
17.484,47.23
17.500,47.41
17.515,54.65
17.531,66.77
17.546,79.97
17.562,90.16
17.578,94.48
17.593,92.31
17.609,85.31
17.625,76.58
17.640,69.49
17.656,66.54
17.671,68.8
17.687,76.0
17.703,87.0
17.718,100.27
17.734,114.21
17.750,127.22
17.765,137.62
17.781,143.76
17.796,144.35
17.812,138.78
17.828,127.51
17.843,111.95
17.859,94.13
17.875,76.01
17.890,58.93
17.906,43.25
17.921,28.62
17.937,14.51
17.953,0.99
17.968,-10.88
17.984,-19.25
18.000,-22.29
18.015,-19.17
18.031,-10.58
18.046,1.31
18.062,13.75
18.078,24.42
18.093,32.15
18.109,37.17
18.125,40.66
18.140,44.15
18.156,48.91
18.171,55.67
18.187,64.59
18.203,75.3
18.218,86.83
18.234,97.54
18.250,105.28
18.265,107.93
18.281,104.18
18.296,94.2
18.312,79.87
18.328,64.36
18.343,51.04
18.359,42.26
18.375,38.31
18.390,37.32
18.406,35.91
18.421,30.55
18.437,18.99
18.453,1.19
18.468,-20.8
18.484,-43.62
18.500,-63.9
18.515,-79.44
18.531,-89.75
18.546,-95.89
18.562,-99.67
18.578,-102.74
18.593,-106.09
18.609,-110.09
18.625,-114.96
18.640,-121.01
18.656,-128.62
18.671,-137.56
18.687,-146.47
18.703,-152.69
18.718,-153.03
18.734,-144.91
18.750,-127.54
18.765,-102.25
18.781,-71.99
18.796,-40.38
18.812,-10.77
18.828,14.13
18.843,32.49
18.859,43.27
18.875,46.53
18.890,43.64
18.906,37.23
18.921,30.54
18.937,26.31
18.953,25.66
18.968,27.76
18.984,30.38
19.000,31.04
19.015,28.14
19.031,21.61
19.046,12.6
19.062,2.81
19.078,-6.13
19.093,-13.29
19.109,-18.45
19.125,-22.06
19.140,-24.87
19.156,-27.81
19.171,-31.64
19.187,-36.88
19.203,-43.77
19.218,-52.15
19.234,-61.55
19.250,-71.23
19.265,-80.39
19.281,-88.4
19.296,-95.09
19.312,-100.86
19.328,-106.53
19.343,-113.19
19.359,-121.89
19.375,-133.24
19.390,-147.23
19.406,-162.91
19.421,-178.39
19.437,-191.16
19.453,-198.65
19.468,-199.13
19.484,-192.33
19.500,-179.62
19.515,-163.67
19.531,-147.4
19.546,-133.11
19.562,-121.76
19.578,-112.91
19.593,-105.3
19.609,-97.49
19.625,-88.48
19.640,-78.03
19.656,-66.58
19.671,-55.14
19.687,-44.89
19.703,-36.92
19.718,-31.83
19.734,-29.57
19.750,-29.37
19.765,-29.94
19.781,-29.78
19.796,-27.53
19.812,-22.16
19.828,-13.1
19.843,-0.29
19.859,15.73
19.875,33.82
19.890,52.34
19.906,69.47
19.921,83.61
19.937,93.88
19.953,100.29
19.968,103.62
19.984,105.11
20.000,105.95
20.015,106.95
20.031,108.44
20.046,110.32
20.062,112.3
20.078,114.12
20.093,115.61
20.109,116.77
20.125,117.73
20.140,118.65
20.156,119.65
20.171,120.75
20.187,121.77
20.203,122.29
20.218,121.78
20.234,119.66
20.250,115.5
20.265,109.14
20.281,100.78
20.296,90.94
20.312,80.38
20.328,69.86
20.343,60.07
20.359,51.5
20.375,44.49
20.390,39.17
20.406,35.49
20.421,33.23
20.437,32.05
20.453,31.64
20.468,31.92
20.484,33.04
20.500,35.41
20.515,39.47
20.531,45.34
20.546,52.68
20.562,60.72
20.578,68.57
20.593,75.62
20.609,81.87
20.625,87.9
20.640,94.41
20.656,101.76
20.671,109.5
20.687,116.47
20.703,121.19
20.718,122.5
20.734,120.04
20.750,114.36
20.765,106.71
20.781,98.74
20.796,92.33
20.812,89.34
20.828,91.1
20.843,97.61
20.859,106.83
20.875,114.5
20.890,115.08
20.906,103.71
20.921,78.32
20.937,40.96
20.953,-2.69
20.968,-45.02
20.984,-78.9
21.000,-99.42
21.015,-104.73
21.031,-95.99
21.046,-76.67
21.062,-51.74
21.078,-26.61
21.093,-5.95
21.109,7.49
21.125,13.67
21.140,15.04
21.156,15.47
21.171,18.73
21.187,27.21
21.203,41.22
21.218,59.01
21.234,77.17
21.250,91.46
21.265,97.66
21.281,92.71
21.296,75.69
21.312,48.4
21.328,15.11
21.343,-18.3
21.359,-45.7
21.375,-62.15
21.390,-65.23
21.406,-56.06
21.421,-39.39
21.437,-22.39
21.453,-12.43
21.468,-14.32
21.484,-28.4
21.500,-50.44
21.515,-73.82
21.531,-92.59
21.546,-104.15
21.562,-109.8
21.578,-113.22
21.593,-118.15
21.609,-126.4
21.625,-137.58
21.640,-149.8
21.656,-160.66
21.671,-167.89
21.687,-169.49
21.703,-163.99
21.718,-151.11
21.734,-132.23
21.750,-110.37
21.765,-89.3
21.781,-72.11
21.796,-60.1
21.812,-52.79
21.828,-48.72
21.843,-46.75
21.859,-46.71
21.875,-49.23
21.890,-54.9
21.906,-63.38
21.921,-73.03
21.937,-81.2
21.953,-85.33
21.968,-84.01
21.984,-78.07
22.000,-70.64
22.015,-66.29
22.031,-69.29
22.046,-81.53
22.062,-101.4
22.078,-124.12
22.093,-143.84
22.109,-156.02
22.125,-159.26
22.140,-155.17
22.156,-146.85
22.171,-136.8
22.187,-125.63
22.203,-112.32
22.218,-95.51
22.234,-74.9
22.250,-51.86
22.265,-29.05
22.281,-9.25
22.296,5.66
22.312,15.26
22.328,20.54
22.343,23.31
22.359,25.55
22.375,29.06
22.390,35.2
22.406,44.78
22.421,57.96
22.437,73.95
22.453,90.82
22.468,105.54
22.484,114.52
22.500,114.69
22.515,104.6
22.531,85.04
22.546,58.94
22.562,30.47
22.578,3.81
22.593,-17.92
22.609,-33.06
22.625,-41.36
22.640,-43.38
22.656,-40.15
22.671,-32.91
22.687,-23.05
22.703,-12.07
22.718,-1.41
22.734,7.83
22.750,15.25
22.765,21.16
22.781,26.44
22.796,32.12
22.812,38.91
22.828,46.88
22.843,55.49
22.859,63.85
22.875,71.18
22.890,77.14
22.906,81.96
22.921,86.23
22.937,90.56
22.953,95.23
22.968,99.99
22.984,104.2
23.000,107.15
23.015,108.43
23.031,108.08
23.046,106.75
23.062,105.52
23.078,105.69
23.093,108.22
23.109,113.06
23.125,118.52
23.140,121.17
23.156,116.43
23.171,99.78
23.187,68.22
23.203,21.48
23.218,-37.39
23.234,-102.41
23.250,-165.87
23.265,-219.96
23.281,-258.43
23.296,-277.73
23.312,-277.53
23.328,-260.37
23.343,-230.87
23.359,-194.53
23.375,-156.65
23.390,-121.5
23.406,-91.82
23.421,-68.84
23.437,-52.37
23.453,-41.09
23.468,-33.0
23.484,-25.93
23.500,-18.15
23.515,-8.84
23.531,1.87
23.546,13.26
23.562,24.42
23.578,34.81
23.593,44.46
23.609,53.77
23.625,63.15
23.640,72.54
23.656,81.24
23.671,88.09
23.687,91.89
23.703,92.01
23.718,88.61
23.734,82.57
23.750,75.01
23.765,66.8
23.781,58.23
23.796,49.25
23.812,39.69
23.828,29.6
23.843,19.3
23.859,9.19
23.875,-0.21
23.890,-8.2
23.906,-13.76
23.921,-15.66
23.937,-13.01
23.953,-6.08
23.968,3.29
23.984,11.99
24.000,16.81
24.015,15.88
24.031,9.4
24.046,-0.36
24.062,-10.32
24.078,-17.9
24.093,-21.83
24.109,-22.13
24.125,-19.44
24.140,-14.33
24.156,-7.01
24.171,2.26
24.187,12.77
24.203,23.17
24.218,31.82
24.234,37.32
24.250,39.15
24.265,37.85
24.281,34.95
24.296,32.67
24.312,33.43
24.328,39.31
24.343,51.36
24.359,68.86
24.375,88.89
24.390,106.69
24.406,116.96
24.421,115.7
24.437,101.87
24.453,77.94
24.468,49.01
24.484,20.8
24.500,-2.43
24.515,-19.01
24.531,-29.49
24.546,-35.38
24.562,-37.74
24.578,-36.61
24.593,-31.46
24.609,-22.19
24.625,-9.87
24.640,3.17
24.656,14.23
24.671,21.32
24.687,23.9
24.703,22.84
24.718,19.87
24.734,16.6
24.750,13.87
24.765,11.61
24.781,9.18
24.796,5.94
24.812,1.85
24.828,-2.43
24.843,-5.7
24.859,-6.77
24.875,-5.02
24.890,-0.68
24.906,5.23
24.921,11.34
24.937,16.48
24.953,20.03
24.968,22.02
24.984,22.87
25.000,23.04
25.015,22.82
25.031,22.17
25.046,20.99
25.062,19.23
25.078,17.1
25.093,14.98
25.109,13.22
25.125,11.95
25.140,11.03
25.156,9.99
25.171,8.26
25.187,5.44
25.203,1.43
25.218,-3.46
25.234,-8.62
25.250,-13.42
25.265,-17.46
25.281,-20.78
25.296,-23.78
25.312,-27.04
25.328,-31.0
25.343,-35.65
25.359,-40.64
25.375,-45.46
25.390,-49.8
25.406,-53.9
25.421,-58.42
25.437,-64.08
25.453,-71.1
25.468,-78.66
25.484,-84.85
25.500,-87.09
25.515,-82.94
25.531,-70.76
25.546,-50.14
25.562,-21.87
25.578,12.14
25.593,48.97
25.609,84.61
25.625,114.2
25.640,132.9
25.656,137.08
25.671,125.79
25.687,101.29
25.703,68.76
25.718,34.62
25.734,4.66
25.750,-17.5
25.765,-30.74
25.781,-35.94
25.796,-34.93
25.812,-29.69
25.828,-21.98
25.843,-13.37
25.859,-5.24
25.875,1.34
25.890,5.87
25.906,8.46
25.921,9.75
25.937,10.52
25.953,11.38
25.968,12.56
25.984,13.92
26.000,14.93
26.015,14.93
26.031,13.38
26.046,10.32
26.062,6.72
26.078,4.33
26.093,4.77
26.109,8.18
26.125,12.21
26.140,12.18
26.156,2.77
26.171,-19.47
26.187,-54.05
26.203,-96.1
26.218,-137.98
26.234,-172.07
26.250,-193.47
26.265,-201.16
26.281,-197.32
26.296,-185.63
26.312,-169.35
26.328,-150.5
26.343,-129.84
26.359,-107.64
26.375,-84.27
26.390,-60.53
26.406,-37.45
26.421,-15.98
26.437,3.29
26.453,20.13
26.468,34.56
26.484,46.55
26.500,55.96
26.515,62.7
26.531,67.04
26.546,70.13
26.562,74.17
26.578,81.76
26.593,94.6
26.609,112.04
26.625,130.29
26.640,143.11
26.656,143.94
26.671,128.55
26.687,96.96
26.703,53.61
26.718,5.67
26.734,-39.54
26.750,-76.84
26.765,-104.05
26.781,-121.43
26.796,-130.48
26.812,-132.97
26.828,-130.5
26.843,-124.83
26.859,-118.04
26.875,-112.23
26.890,-108.81
26.906,-107.79
26.921,-107.71
26.937,-106.1
26.953,-100.53
26.968,-89.73
26.984,-73.99
27.000,-55.05
27.015,-35.27
27.031,-16.8
27.046,-0.9
27.062,12.27
27.078,23.25
27.093,32.89
27.109,41.68
27.125,49.7
27.140,56.53
27.156,61.66
27.171,64.84
27.187,66.32
27.203,66.82
27.218,67.33
27.234,68.7
27.250,71.46
27.265,75.62
27.281,80.78
27.296,86.33
27.312,91.45
27.328,95.3
27.343,96.96
27.359,95.64
27.375,90.73
27.390,82.03
27.406,69.87
27.421,55.02
27.437,38.52
27.453,21.47
27.468,4.84
27.484,-10.67
27.500,-24.62
27.515,-36.86
27.531,-47.51
27.546,-56.95
27.562,-65.64
27.578,-73.99
27.593,-82.09
27.609,-89.52
27.625,-95.29
27.640,-98.09
27.656,-96.6
27.671,-89.92
27.687,-77.89
27.703,-61.15
27.718,-41.09
27.734,-19.45
27.750,1.9
27.765,21.38
27.781,37.88
27.796,50.86
27.812,60.35
27.828,66.87
27.843,71.34
27.859,74.98
27.875,79.13
27.890,84.91
27.906,92.86
27.921,102.53
27.937,112.36
27.953,119.91
27.968,122.59
27.984,118.6
28.000,107.57
28.015,90.81
28.031,70.85
28.046,50.54
28.062,32.21
28.078,17.11
28.093,5.41
28.109,-3.43
28.125,-10.18
28.140,-15.43
28.156,-19.57
28.171,-22.75
28.187,-25.23
28.203,-27.44
28.218,-29.98
28.234,-33.27
28.250,-37.26
28.265,-41.51
28.281,-45.6
28.296,-49.94
28.312,-56.15
28.328,-66.75
28.343,-83.99
28.359,-108.36
28.375,-137.6
28.390,-166.94
28.406,-190.68
28.421,-204.29
28.437,-205.96
28.453,-196.91
28.468,-180.4
28.484,-160.08
28.500,-138.66
28.515,-117.51
28.531,-97.02
28.546,-77.35
28.562,-58.92
28.578,-42.5
28.593,-28.76
28.609,-17.92
28.625,-9.5
28.640,-2.55
28.656,4.0
28.671,10.79
28.687,17.9
28.703,24.87
28.718,31.07
28.734,36.13
28.750,40.1
28.765,43.51
28.781,47.13
28.796,51.65
28.812,57.48
28.828,64.76
28.843,73.41
28.859,83.26
28.875,94.11
28.890,105.74
28.906,117.82
28.921,129.89
28.937,141.37
28.953,151.64
28.968,160.05
28.984,165.93
29.000,168.73
29.015,168.1
29.031,163.95
29.046,156.62
29.062,146.77
29.078,135.14
29.093,122.28
29.109,108.54
29.125,94.08
29.140,79.26
29.156,64.77
29.171,51.68
29.187,41.05
29.203,33.35
29.218,28.04
29.234,23.57
29.250,17.87
29.265,9.13
29.281,-3.42
29.296,-19.19
29.312,-36.4
29.328,-52.67
29.343,-65.76
29.359,-74.12
29.375,-77.17
29.390,-75.34
29.406,-69.75
29.421,-61.79
29.437,-52.69
29.453,-43.23
29.468,-33.63
29.484,-23.71
29.500,-13.29
29.515,-2.36
29.531,8.69
29.546,19.28
29.562,28.84
29.578,36.8
29.593,42.66
29.609,46.06
29.625,47.1
29.640,46.74
29.656,46.9
29.671,50.0
29.687,57.6
29.703,69.16
29.718,81.5
29.734,89.67
29.750,88.84
29.765,76.52
29.781,53.61
29.796,23.87
29.812,-7.8
29.828,-37.34
29.843,-62.59
29.859,-83.19
29.875,-99.55
29.890,-111.87
29.906,-119.97
29.921,-123.54
29.937,-122.91
29.953,-119.35
29.968,-114.84
29.984,-111.43
30.000,-110.5
30.015,-112.17
30.031,-115.2
30.046,-117.49
30.062,-116.7
30.078,-111.18
30.093,-100.57
30.109,-85.92
30.125,-69.21
30.140,-52.57
30.156,-37.43
30.171,-24.14
30.187,-12.14
30.203,-0.54
30.218,11.15
30.234,22.76
30.250,33.54
30.265,42.66
30.281,49.81
30.296,55.29
30.312,59.89
30.328,64.4
30.343,69.16
30.359,73.94
30.375,78.1
30.390,81.1
30.406,82.85
30.421,83.89
30.437,85.18
30.453,87.66
30.468,91.86
30.484,97.6
30.500,104.11
30.515,110.31
30.531,115.31
30.546,118.88
30.562,121.64
30.578,124.96
30.593,130.54
30.609,139.78
30.625,153.12
30.640,169.71
30.656,187.4
30.671,203.26
30.687,214.18
30.703,217.71
30.718,212.62
30.734,199.28
30.750,179.53
30.765,156.25
30.781,132.55
30.796,111.06
30.812,93.27
30.828,79.44
30.843,68.89
30.859,60.66
30.875,54.16
30.890,49.64
30.906,48.21
30.921,51.25
30.937,59.34
30.953,71.3
30.968,83.73
30.984,91.5
31.000,89.29
31.015,73.34
31.031,42.89
31.046,0.51
31.062,-48.59
31.078,-97.84
31.093,-140.74
31.109,-172.06
31.125,-189.0
31.140,-192.05
31.156,-185.48
31.171,-176.5
31.187,-173.19
31.203,-181.5
31.218,-202.72
31.234,-232.77
31.250,-263.8
31.265,-287.39
31.281,-297.74
31.296,-293.22
31.312,-275.88
31.328,-249.72
31.343,-218.66
31.359,-185.69
31.375,-152.93
31.390,-122.33
31.406,-95.89
31.421,-75.3
31.437,-61.3
31.453,-53.19
31.468,-48.91
31.484,-45.86
31.500,-41.85
31.515,-35.93
31.531,-28.54
31.546,-21.15
31.562,-15.37
31.578,-12.23
31.593,-11.75
31.609,-13.12
31.625,-15.14
31.640,-16.79
31.656,-17.61
31.671,-17.67
31.687,-17.42
31.703,-17.3
31.718,-17.58
31.734,-18.32
31.750,-19.5
31.765,-21.23
31.781,-23.93
31.796,-28.19
31.812,-34.57
31.828,-43.14
31.843,-53.2
31.859,-63.15
31.875,-70.78
31.890,-73.89
31.906,-71.02
31.921,-62.0
31.937,-48.0
31.953,-31.22
31.968,-14.2
31.984,0.79
32.000,12.02
32.015,18.38
32.031,19.31
32.046,14.84
32.062,5.61
32.078,-7.1
32.093,-21.75
32.109,-37.14
32.125,-53.05
32.140,-70.23
32.156,-89.51
32.171,-110.66
32.187,-131.76
32.203,-149.69
32.218,-161.56
32.234,-166.17
32.250,-164.46
32.265,-158.69
32.281,-150.8
32.296,-141.14
32.312,-128.42
32.328,-110.84
32.343,-87.6
32.359,-59.62
32.375,-29.17
32.390,1.32
32.406,30.24
32.421,57.01
32.437,81.38
32.453,102.5
32.468,118.61
32.484,127.56
32.500,127.87
32.515,119.49
32.531,104.15
32.546,84.82
32.562,64.76
32.578,46.77
32.593,32.78
32.609,23.88
32.625,20.49
32.640,22.46
32.656,28.92
32.671,38.12
32.687,47.51
32.703,54.27
32.718,56.05
32.734,51.67
32.750,41.59
32.765,27.72
32.781,12.86
32.796,-0.03
32.812,-8.56
32.828,-11.32
32.843,-8.13
32.859,0.01
32.875,11.2
32.890,23.25
32.906,34.2
32.921,42.73
32.937,48.37
32.953,51.3
32.968,52.12
32.984,51.49
33.000,50.02
33.015,48.2
33.031,46.41
33.046,44.91
33.062,43.91
33.078,43.65
33.093,44.49
33.109,46.92
33.125,51.38
33.140,57.98
33.156,66.25
33.171,75.15
33.187,83.38
33.203,89.77
33.218,93.63
33.234,94.86
33.250,93.81
33.265,90.99
33.281,86.84
33.296,81.69
33.312,75.81
33.328,69.52
33.343,63.15
33.359,56.95
33.375,51.0
33.390,45.08
33.406,38.8
33.421,31.72
33.437,23.76
33.453,15.28
33.468,7.17
33.484,0.48
33.500,-4.1
33.515,-6.73
33.531,-8.55
33.546,-11.17
33.562,-15.92
33.578,-23.15
33.593,-32.07
33.609,-41.12
33.625,-48.86
33.640,-54.42
33.656,-57.65
33.671,-58.64
33.687,-57.17
33.703,-52.49
33.718,-43.64
33.734,-30.09
33.750,-12.29
33.765,8.18
33.781,29.04
33.796,48.01
33.812,63.43
33.828,74.6
33.843,81.6
33.859,85.05
33.875,85.7
33.890,84.24
33.906,81.19
33.921,76.95
33.937,71.96
33.953,66.72
33.968,61.82
33.984,57.84
34.000,55.18
34.015,53.93
34.031,53.84
34.046,54.33
34.062,54.68
34.078,54.29
34.093,52.85
34.109,50.5
34.125,47.72
34.140,45.07
34.156,42.96
34.171,41.47
34.187,40.41
34.203,39.38
34.218,37.94
34.234,35.5
34.250,31.4
34.265,24.91
34.281,15.59
34.296,3.69
34.312,-9.65
34.328,-22.53
34.343,-33.03
34.359,-39.94
34.375,-43.45
34.390,-45.0
34.406,-46.71
34.421,-50.26
34.437,-56.19
34.453,-63.6
34.468,-70.61
34.484,-75.17
34.500,-75.88
34.515,-72.36
34.531,-65.3
34.546,-55.94
34.562,-45.55
34.578,-35.01
34.593,-24.65
34.609,-14.44
34.625,-4.3
34.640,5.67
34.656,15.07
34.671,23.33
34.687,29.94
34.703,34.66
34.718,37.5
34.734,38.46
34.750,37.28
34.765,33.3
34.781,25.85
34.796,14.73
34.812,0.77
34.828,-14.07
34.843,-27.25
34.859,-36.45
34.875,-40.46
34.890,-39.41
34.906,-34.45
34.921,-27.0
34.937,-18.26
34.953,-9.04
34.968,0.08
34.984,8.5
35.000,15.66
35.015,21.43
35.031,26.35
35.046,31.64
35.062,38.68
35.078,48.32
35.093,60.37
35.109,73.65
35.125,86.43
35.140,97.17
35.156,105.06
35.171,110.08
35.187,112.76
35.203,113.64
35.218,113.0
35.234,110.83
35.250,107.09
35.265,102.11
35.281,96.8
35.296,92.68
35.312,91.3
35.328,93.59
35.343,99.35
35.359,107.18
35.375,115.09
35.390,121.43
35.406,125.71
35.421,128.71
35.437,131.88
35.453,136.23
35.468,141.47
35.484,145.81
35.500,146.45
35.515,140.54
35.531,125.97
35.546,101.86
35.562,68.69
35.578,28.25
35.593,-16.56
35.609,-62.05
35.625,-104.23
35.640,-139.63
35.656,-166.01
35.671,-182.69
35.687,-190.33
35.703,-190.4
35.718,-184.62
35.734,-174.72
35.750,-162.46
35.765,-149.76
35.781,-138.5
35.796,-129.91
35.812,-124.08
35.828,-119.9
35.843,-115.48
35.859,-109.11
35.875,-100.09
35.890,-88.96
35.906,-77.28
35.921,-66.95
35.937,-59.73
35.953,-56.91
35.968,-59.1
35.984,-66.0
36.000,-76.09
36.015,-86.53
36.031,-93.67
36.046,-94.04
36.062,-85.68
36.078,-69.01
36.093,-46.82
36.109,-23.16
36.125,-1.77
36.140,15.14
36.156,27.22
36.171,35.47
36.187,41.24
36.203,45.57
36.218,48.96
36.234,51.67
36.250,53.97
36.265,56.26
36.281,58.83
36.296,61.56
36.312,63.82
36.328,64.58
36.343,62.83
36.359,58.04
36.375,50.41
36.390,40.78
36.406,30.13
36.421,19.08
36.437,7.38
36.453,-5.87
36.468,-21.76
36.484,-40.62
36.500,-61.4
36.515,-81.77
36.531,-98.78
36.546,-109.96
36.562,-114.26
36.578,-112.25
36.593,-105.7
36.609,-96.66
36.625,-86.71
36.640,-76.69
36.656,-66.87
36.671,-57.39
36.687,-48.65
36.703,-41.3
36.718,-36.1
36.734,-33.46
36.750,-33.21
36.765,-34.58
36.781,-36.36
36.796,-37.21
36.812,-35.96
36.828,-31.81
36.843,-24.36
36.859,-13.59
36.875,0.15
36.890,16.11
36.906,33.35
36.921,50.97
36.937,68.43
36.953,85.72
36.968,103.21
36.984,121.07
37.000,138.74
37.015,154.65
37.031,166.51
37.046,172.19
37.062,170.55
37.078,161.88
37.093,147.76
37.109,130.2
37.125,111.05
37.140,91.53
37.156,72.46
37.171,54.63
37.187,39.19
37.203,27.49
37.218,20.69
37.234,19.17
37.250,22.3
37.265,28.55
37.281,35.9
37.296,42.47
37.312,46.91
37.328,48.67
37.343,47.93
37.359,45.3
37.375,41.63
37.390,37.58
37.406,33.59
37.421,29.91
37.437,26.79
37.453,24.71
37.468,24.43
37.484,26.73
37.500,32.2
37.515,41.0
37.531,52.97
37.546,67.82
37.562,85.28
37.578,104.83
37.593,125.34
37.609,144.72
37.625,160.19
37.640,169.21
37.656,170.62
37.671,165.15
37.687,154.87
37.703,141.81
37.718,126.69
37.734,108.85
37.750,87.38
37.765,62.89
37.781,38.43
37.796,18.77
37.812,8.28
37.828,8.53
37.843,17.39
37.859,29.79
37.875,40.17
37.890,44.73
37.906,42.56
37.921,34.96
37.937,23.77
37.953,9.9
37.968,-6.91
37.984,-27.19
38.000,-50.47
38.015,-74.6
38.031,-96.23
38.046,-112.3
38.062,-121.51
38.078,-124.82
38.093,-124.87
38.109,-124.28
38.125,-124.25
38.140,-123.95
38.156,-121.31
38.171,-114.36
38.187,-102.58
38.203,-87.19
38.218,-70.48
38.234,-54.53
38.250,-40.26
38.265,-27.2
38.281,-14.15
38.296,-0.09
38.312,14.97
38.328,29.72
38.343,41.93
38.359,49.12
38.375,49.22
38.390,41.19
38.406,25.26
38.421,2.93
38.437,-23.34
38.453,-50.55
38.468,-75.76
38.484,-96.67
38.500,-112.01
38.515,-121.73
38.531,-126.86
38.546,-129.07
38.562,-130.11
38.578,-131.37
38.593,-133.55
38.609,-136.59
38.625,-139.84
38.640,-142.26
38.656,-142.63
38.671,-139.73
38.687,-132.62
38.703,-120.82
38.718,-104.57
38.734,-85.02
38.750,-64.17
38.765,-44.55
38.781,-28.58
38.796,-17.98
38.812,-13.29
38.828,-13.8
38.843,-17.83
38.859,-23.3
38.875,-28.31
38.890,-31.61
38.906,-32.79
38.921,-32.26
38.937,-31.1
38.953,-30.68
38.968,-32.28
38.984,-36.78
39.000,-44.39
39.015,-54.6
39.031,-66.28
39.046,-77.99
39.062,-88.18
39.078,-95.6
39.093,-99.4
39.109,-99.29
39.125,-95.56
39.140,-88.96
39.156,-80.54
39.171,-71.36
39.187,-62.31
39.203,-53.9
39.218,-46.31
39.234,-39.46
39.250,-33.15
39.265,-27.12
39.281,-21.11
39.296,-14.9
39.312,-8.33
39.328,-1.39
39.343,5.73
39.359,12.69
39.375,19.15
39.390,24.91
39.406,30.05
39.421,34.85
39.437,39.69
39.453,44.81
39.468,50.2
39.484,55.61
39.500,60.62
39.515,64.78
39.531,67.65
39.546,68.82
39.562,67.96
39.578,64.91
39.593,59.79
39.609,53.07
39.625,45.49
39.640,37.8
39.656,30.42
39.671,23.24
39.687,15.64
39.703,6.8
39.718,-3.95
39.734,-16.68
39.750,-30.78
39.765,-44.95
39.781,-57.62
39.796,-67.36
39.812,-73.33
39.828,-75.5
39.843,-74.47
39.859,-71.14
39.875,-66.32
39.890,-60.36
39.906,-53.18
39.921,-44.45
39.937,-34.0
39.953,-22.08
39.968,-9.41
39.984,2.98
40.000,14.0
40.015,22.75
40.031,28.7
40.046,31.69
40.062,31.86
40.078,29.52
40.093,25.0
40.109,18.58
40.125,10.44
40.140,0.73
40.156,-10.29
40.171,-22.04
40.187,-33.57
40.203,-43.68
40.218,-51.15
40.234,-55.12
40.250,-55.34
40.265,-52.31
40.281,-47.15
40.296,-41.14
40.312,-35.35
40.328,-30.27
40.343,-25.77
40.359,-21.42
40.375,-16.86
40.390,-12.11
40.406,-7.67
40.421,-4.23
40.437,-2.34
40.453,-2.08
40.468,-2.83
40.484,-3.51
40.500,-2.7
40.515,0.93
40.531,8.34
40.546,19.96
40.562,35.49
40.578,54.03
40.593,74.29
40.609,95.03
40.625,115.48
40.640,135.48
40.656,155.45
40.671,175.99
40.687,197.37
40.703,218.97
40.718,239.17
40.734,255.39
40.750,264.73
40.765,264.69
40.781,254.06
40.796,233.31
40.812,204.61
40.828,171.22
40.843,136.58
40.859,103.46
40.875,73.53
40.890,47.41
40.906,25.04
40.921,6.2
40.937,-9.35
40.953,-21.84
40.968,-31.79
40.984,-40.06
41.000,-47.69
41.015,-55.65
41.031,-64.47
41.046,-74.07
41.062,-83.93
41.078,-93.44
41.093,-102.4
41.109,-111.18
41.125,-120.56
41.140,-131.23
41.156,-143.31
41.171,-156.16
41.187,-168.52
41.203,-179.08
41.218,-186.92
41.234,-191.71
41.250,-193.49
41.265,-192.32
41.281,-188.01
41.296,-180.16
41.312,-168.53
41.328,-153.38
41.343,-135.51
41.359,-116.17
41.375,-96.58
41.390,-77.61
41.406,-59.64
41.421,-42.66
41.437,-26.53
41.453,-11.17
41.468,3.2
41.484,16.07
41.500,26.74
41.515,34.6
41.531,39.48
41.546,41.81
41.562,42.74
41.578,43.76
41.593,46.33
41.609,51.33
41.625,58.68
41.640,67.4
41.656,75.96
41.671,82.78
41.687,86.68
41.703,87.11
41.718,84.2
41.734,78.68
41.750,71.88
41.765,65.52
41.781,61.23
41.796,59.75
41.812,60.18
41.828,59.9
41.843,55.37
41.859,43.93
41.875,25.35
41.890,2.47
41.906,-19.83
41.921,-36.86
41.937,-46.46
41.953,-50.15
41.968,-52.21
41.984,-57.39
42.000,-68.24
42.015,-83.68
42.031,-99.34
42.046,-109.48
42.062,-109.43
42.078,-97.41
42.093,-75.0
42.109,-46.3
42.125,-16.44
42.140,9.97
42.156,29.74
42.171,41.43
42.187,45.05
42.203,41.79
42.218,33.7
42.234,23.41
42.250,13.75
42.265,7.18
42.281,5.14
42.296,7.47
42.312,12.39
42.328,16.93
42.343,18.04
42.359,13.71
42.375,3.86
42.390,-9.61
42.406,-23.54
42.421,-34.62
42.437,-40.73
42.453,-41.53
42.468,-38.48
42.484,-34.23
42.500,-31.52
42.515,-32.22
42.531,-36.81
42.546,-44.5
42.562,-53.65
42.578,-62.47
42.593,-69.62
42.609,-74.57
42.625,-77.67
42.640,-80.04
42.656,-83.12
42.671,-88.13
42.687,-95.45
42.703,-104.28
42.718,-112.68
42.734,-118.08
42.750,-118.24
42.765,-111.96
42.781,-99.59
42.796,-82.67
42.812,-63.41
42.828,-43.8
42.843,-25.2
42.859,-8.37
42.875,6.35
42.890,18.67
42.906,28.26
42.921,34.85
42.937,38.27
42.953,38.54
42.968,35.85
42.984,30.63
43.000,23.53
43.015,15.61
43.031,8.19
43.046,2.72
43.062,0.39
43.078,2.04
43.093,8.07
43.109,18.39
43.125,32.53
43.140,49.41
43.156,67.54
43.171,85.09
43.187,100.38
43.203,112.32
43.218,120.65
43.234,125.86
43.250,128.8
43.265,130.31
43.281,130.96
43.296,131.24
43.312,131.6
43.328,132.61
43.343,134.73
43.359,138.18
43.375,142.76
43.390,147.92
43.406,153.03
43.421,157.53
43.437,160.94
43.453,162.9
43.468,163.1
43.484,161.4
43.500,157.89
43.515,152.88
43.531,146.49
43.546,138.28
43.562,126.93
43.578,110.54
43.593,87.54
43.609,57.75
43.625,22.9
43.640,-13.67
43.656,-48.35
43.671,-78.66
43.687,-104.04
43.703,-125.74
43.718,-145.76
43.734,-165.71
43.750,-186.1
43.765,-206.42
43.781,-225.62
43.796,-242.76
43.812,-257.21
43.828,-268.47
43.843,-275.94
43.859,-278.78
43.875,-276.11
43.890,-267.35
43.906,-252.49
43.921,-232.24
43.937,-208.0
43.953,-181.7
43.968,-155.43
43.984,-131.12
44.000,-109.97
44.015,-92.23
44.031,-77.26
44.046,-63.99
44.062,-51.43
44.078,-39.02
44.093,-26.75
44.109,-14.91
44.125,-3.89
44.140,5.81
44.156,13.48
44.171,18.0
44.187,17.99
44.203,12.21
44.218,0.22
44.234,-17.04
44.250,-37.23
44.265,-56.96
44.281,-72.73
44.296,-81.92
44.312,-83.4
44.328,-77.7
44.343,-66.53
44.359,-52.13
44.375,-36.51
44.390,-21.22
44.406,-7.25
44.421,4.69
44.437,13.98
44.453,20.06
44.468,22.67
44.484,22.02
44.500,18.92
44.515,14.58
44.531,10.23
44.546,6.85
44.562,4.99
44.578,4.79
44.593,6.21
44.609,9.22
44.625,13.77
44.640,19.67
44.656,26.47
44.671,33.34
44.687,39.37
44.703,43.84
44.718,46.47
44.734,47.55
44.750,47.64
44.765,47.28
44.781,46.74
44.796,45.97
44.812,44.77
44.828,43.03
44.843,40.91
44.859,38.76
44.875,36.87
44.890,35.29
44.906,33.73
44.921,31.75
44.937,29.15
44.953,26.3
44.968,24.34
44.984,24.79
45.000,29.08
45.015,37.82
45.031,50.53
45.046,65.78
45.062,81.78
45.078,96.92
45.093,109.99
45.109,120.11
45.125,126.24
45.140,127.34
45.156,122.71
45.171,112.7
45.187,99.1
45.203,84.93
45.218,73.34
45.234,66.51
45.250,64.88
45.265,67.3
45.281,71.88
45.296,77.02
45.312,81.79
45.328,85.56
45.343,87.24
45.359,84.84
45.375,76.04
45.390,59.39
45.406,35.61
45.421,8.05
45.437,-18.22
45.453,-38.19
45.468,-48.77
45.484,-49.66
45.500,-42.95
45.515,-31.61
45.531,-18.08
45.546,-3.49
45.562,12.04
45.578,28.55
45.593,45.48
45.609,61.63
45.625,75.62
45.640,86.63
45.656,94.79
45.671,100.98
45.687,106.24
45.703,111.2
45.718,115.74
45.734,119.21
45.750,120.81
45.765,120.0
45.781,116.61
45.796,110.84
45.812,103.13
45.828,94.11
45.843,84.53
45.859,75.18
45.875,66.71
45.890,59.28
45.906,52.46
45.921,45.39
45.937,37.24
45.953,27.79
45.968,17.83
45.984,9.02
46.000,3.35
46.015,2.28
46.031,6.08
46.046,13.6
46.062,22.55
46.078,30.19
46.093,34.05
46.109,32.66
46.125,25.84
46.140,14.68
46.156,1.19
46.171,-12.34
46.187,-23.96
46.203,-32.7
46.218,-38.94
46.234,-44.38
46.250,-51.62
46.265,-63.13
46.281,-80.07
46.296,-101.4
46.312,-123.77
46.328,-142.49
46.343,-153.14
46.359,-153.15
46.375,-142.5
46.390,-123.67
46.406,-100.85
46.421,-78.82
46.437,-61.98
46.453,-53.52
46.468,-54.72
46.484,-64.54
46.500,-79.85
46.515,-96.29
46.531,-109.66
46.546,-117.05
46.562,-117.2
46.578,-110.12
46.593,-96.58
46.609,-78.0
46.625,-56.84
46.640,-37.01
46.656,-23.31
46.671,-19.84
46.687,-28.2
46.703,-46.5
46.718,-69.9
46.734,-92.5
46.750,-109.68
46.765,-119.44
46.781,-122.64
46.796,-122.09
46.812,-121.3
46.828,-123.37
46.843,-130.22
46.859,-142.22
46.875,-158.0
46.890,-174.94
46.906,-190.0
46.921,-200.7
46.937,-205.75
46.953,-205.12
46.968,-199.42
46.984,-189.45
47.000,-175.91
47.015,-159.65
47.031,-141.91
47.046,-124.32
47.062,-108.26
47.078,-94.27
47.093,-81.64
47.109,-68.69
47.125,-53.61
47.140,-35.34
47.156,-14.2
47.171,8.24
47.187,29.86
47.203,48.78
47.218,64.07
47.234,75.7
47.250,84.23
47.265,90.22
47.281,93.82
47.296,94.75
47.312,92.57
47.328,87.13
47.343,78.88
47.359,68.86
47.375,58.5
47.390,49.17
47.406,41.85
47.421,36.97
47.437,34.46
47.453,33.78
47.468,34.29
47.484,35.2
47.500,35.84
47.515,35.6
47.531,34.05
47.546,30.97
47.562,26.37
47.578,20.45
47.593,13.59
47.609,6.13
47.625,-1.71
47.640,-9.99
47.656,-18.98
47.671,-29.15
47.687,-40.81
47.703,-53.8
47.718,-67.24
47.734,-79.49
47.750,-88.49
47.765,-92.32
47.781,-89.83
47.796,-80.94
47.812,-66.64
47.828,-48.51
47.843,-28.23
47.859,-7.09
47.875,14.01
47.890,34.47
47.906,53.67
47.921,70.9
47.937,85.46
47.953,96.82
47.968,104.84
47.984,109.79
48.000,112.26
48.015,112.98
48.031,112.73
48.046,112.15
48.062,111.84
48.078,112.28
48.093,113.76
48.109,116.38
48.125,119.88
48.140,123.73
48.156,127.21
48.171,129.61
48.187,130.47
48.203,129.7
48.218,127.52
48.234,124.35
48.250,120.61
48.265,116.59
48.281,112.41
48.296,108.07
48.312,103.49
48.328,98.53
48.343,92.94
48.359,86.49
48.375,78.9
48.390,70.03
48.406,59.84
48.421,48.4
48.437,35.86
48.453,22.27
48.468,7.72
48.484,-7.59
48.500,-23.14
48.515,-38.03
48.531,-50.99
48.546,-60.69
48.562,-66.05
48.578,-66.57
48.593,-62.48
48.609,-54.6
48.625,-44.02
48.640,-31.8
48.656,-18.78
48.671,-5.49
48.687,7.61
48.703,20.0
48.718,30.94
48.734,39.62
48.750,45.32
48.765,47.69
48.781,46.91
48.796,43.64
48.812,38.87
48.828,33.66
48.843,28.95
48.859,25.42
48.875,23.47
48.890,23.18
48.906,24.39
48.921,26.64
48.937,29.35
48.953,31.91
48.968,33.81
48.984,34.74
49.000,34.58
49.015,33.29
49.031,30.86
49.046,27.25
49.062,22.51
49.078,16.82
49.093,10.63
49.109,4.52
49.125,-0.88
49.140,-5.17
49.156,-8.31
49.171,-10.71
49.187,-13.05
49.203,-15.96
49.218,-19.84
49.234,-24.61
49.250,-29.84
49.265,-34.95
49.281,-39.53
49.296,-43.52
49.312,-47.25
49.328,-51.25
49.343,-56.12
49.359,-62.2
49.375,-69.44
49.390,-77.15
49.406,-83.93
49.421,-87.69
49.437,-85.97
49.453,-76.45
49.468,-57.78
49.484,-30.2
49.500,4.12
49.515,41.39
49.531,77.04
49.546,107.05
49.562,128.88
49.578,141.99
49.593,147.41
49.609,146.91
49.625,142.12
49.640,134.09
49.656,123.42
49.671,110.72
49.687,96.99
49.703,83.5
49.718,71.5
49.734,61.58
49.750,53.62
49.765,46.95
49.781,40.93
49.796,35.3
49.812,30.21
49.828,25.88
49.843,22.24
49.859,18.72
49.875,14.41
49.890,8.45
49.906,0.29
49.921,-10.04
49.937,-22.0
49.953,-34.71
49.968,-47.14
49.984,-58.36
50.000,-67.61
50.015,-74.48
50.031,-78.99
50.046,-81.57
50.062,-82.99
50.078,-84.14
50.093,-85.76
50.109,-88.19
50.125,-91.28
50.140,-94.57
50.156,-97.44
50.171,-99.5
50.187,-100.64
50.203,-101.08
50.218,-101.22
50.234,-101.49
50.250,-102.27
50.265,-103.79
50.281,-106.15
50.296,-109.09
50.312,-112.02
50.328,-113.84
50.343,-113.24
50.359,-108.96
50.375,-100.26
50.390,-87.19
50.406,-70.57
50.421,-51.69
50.437,-31.84
50.453,-11.97
50.468,7.42
50.484,26.04
50.500,43.58
50.515,59.44
50.531,72.8
50.546,82.89
50.562,89.3
50.578,92.23
50.593,92.47
50.609,91.2
50.625,89.51
50.640,88.16
50.656,87.36
50.671,86.92
50.687,86.48
50.703,85.75
50.718,84.7
50.734,83.46
50.750,82.2
50.765,80.93
50.781,79.38
50.796,77.13
50.812,73.78
50.828,69.16
50.843,63.32
50.859,56.48
50.875,48.77
50.890,40.15
50.906,30.45
50.921,19.46
50.937,7.15
50.953,-6.18
50.968,-19.98
50.984,-33.6
51.000,-46.52
51.015,-58.45
51.031,-69.3
51.046,-79.03
51.062,-87.48
51.078,-94.35
51.093,-99.29
51.109,-102.08
51.125,-102.89
51.140,-102.35
51.156,-101.41
51.171,-101.09
51.187,-102.02
51.203,-104.2
51.218,-106.74
51.234,-108.2
51.250,-106.9
51.265,-101.48
51.281,-91.34
51.296,-76.8
51.312,-59.0
51.328,-39.49
51.343,-19.79
51.359,-1.06
51.375,16.06
51.390,31.27
51.406,44.51
51.421,55.73
51.437,64.91
51.453,72.03
51.468,77.26
51.484,80.94
51.500,83.56
51.515,85.72
51.531,87.95
51.546,90.65
51.562,94.0
51.578,98.06
51.593,102.68
51.609,107.64
51.625,112.75
51.640,117.87
51.656,122.97
51.671,128.22
51.687,133.89
51.703,140.37
51.718,148.03
51.734,157.0
51.750,166.92
51.765,176.71
51.781,184.7
51.796,188.94
51.812,187.81
51.828,180.56
51.843,167.58
51.859,150.32
51.875,130.79
51.890,110.98
51.906,92.38
51.921,75.8
51.937,61.48
51.953,49.36
51.968,39.37
51.984,31.5
52.000,25.76
52.015,21.98
52.031,19.73
52.046,18.25
52.062,16.55
52.078,13.7
52.093,8.91
52.109,1.76
52.125,-7.61
52.140,-18.55
52.156,-29.89
52.171,-40.25
52.187,-48.33
52.203,-53.35
52.218,-55.21
52.234,-54.38
52.250,-51.76
52.265,-48.17
52.281,-44.24
52.296,-40.32
52.312,-36.7
52.328,-33.72
52.343,-31.84
52.359,-31.33
52.375,-32.02
52.390,-33.07
52.406,-33.13
52.421,-30.68
52.437,-24.63
52.453,-14.83
52.468,-2.12
52.484,11.84
52.500,25.35
52.515,37.32
52.531,47.71
52.546,57.42
52.562,67.7
52.578,79.71
52.593,94.24
52.609,111.59
52.625,131.52
52.640,152.8
52.656,172.77
52.671,187.35
52.687,192.1
52.703,184.09
52.718,163.65
52.734,134.84
52.750,104.05
52.765,77.17
52.781,57.04
52.796,42.28
52.812,28.5
52.828,10.94
52.843,-13.01
52.859,-42.61
52.875,-74.49
52.890,-104.37
52.906,-128.9
52.921,-146.43
52.937,-156.9
52.953,-161.3
52.968,-160.99
52.984,-157.59
53.000,-153.0
53.015,-149.47
53.031,-149.26
53.046,-153.89
53.062,-163.24
53.078,-174.85
53.093,-184.26
53.109,-186.46
53.125,-178.11
53.140,-159.27
53.156,-133.79
53.171,-107.79
53.187,-87.05
53.203,-74.49
53.218,-69.27
53.234,-67.7
53.250,-65.58
53.265,-60.5
53.281,-52.69
53.296,-44.42
53.312,-38.34
53.328,-36.01
53.343,-37.12
53.359,-39.77
53.375,-41.2
53.390,-38.68
53.406,-30.53
53.421,-16.95
53.437,-0.23
53.453,15.62
53.468,26.3
53.484,28.91
53.500,23.2
53.515,11.8
53.531,-0.98
53.546,-10.93
53.562,-15.82
53.578,-16.03
53.593,-14.06
53.609,-13.28
53.625,-16.26
53.640,-23.84
53.656,-34.49
53.671,-44.75
53.687,-50.14
53.703,-46.91
53.718,-33.87
53.734,-13.44
53.750,8.64
53.765,25.48
53.781,31.89
53.796,26.71
53.812,13.12
53.828,-3.2
53.843,-17.06
53.859,-26.26
53.875,-32.21
53.890,-38.53
53.906,-48.68
53.921,-63.97
53.937,-83.04
53.953,-102.54
53.968,-118.73
53.984,-128.49
54.000,-130.23
54.015,-124.02
54.031,-111.53
54.046,-95.65
54.062,-79.68
54.078,-66.46
54.093,-57.42
54.109,-52.29
54.125,-49.4
54.140,-46.6
54.156,-42.02
54.171,-34.64
54.187,-24.18
54.203,-10.94
54.218,4.34
54.234,20.5
54.250,35.93
54.265,49.12
54.281,59.25
54.296,66.57
54.312,71.98
54.328,76.09
54.343,78.1
54.359,75.52
54.375,65.15
54.390,44.74
54.406,14.53
54.421,-22.31
54.437,-60.68
54.453,-95.43
54.468,-123.16
54.484,-142.97
54.500,-155.92
54.515,-163.84
54.531,-167.91
54.546,-168.38
54.562,-164.79
54.578,-156.92
54.593,-145.54
54.609,-132.45
54.625,-119.94
54.640,-109.81
54.656,-102.54
54.671,-97.23
54.687,-92.17
54.703,-85.96
54.718,-78.4
54.734,-70.7
54.750,-64.91
54.765,-62.8
54.781,-64.9
54.796,-70.18
54.812,-76.56
54.828,-81.88
54.843,-84.77
54.859,-85.14
54.875,-83.94
54.890,-82.49
54.906,-81.63
54.921,-81.25
54.937,-80.23
54.953,-76.8
54.968,-69.26
54.984,-56.61
55.000,-38.87
55.015,-17.08
55.031,7.17
55.046,32.15
55.062,56.48
55.078,79.25
55.093,99.97
55.109,118.39
55.125,134.47
55.140,148.29
55.156,160.19
55.171,170.71
55.187,180.53
55.203,190.34
55.218,200.66
55.234,211.72
55.250,223.49
55.265,235.85
55.281,248.62
55.296,261.69
55.312,275.06
55.328,288.77
55.343,302.79
55.359,316.63
55.375,328.95
55.390,337.29
55.406,338.31
55.421,328.58
55.437,305.75
55.453,269.49
55.468,221.76
55.484,165.97
55.500,105.7
55.515,43.56
55.531,-18.77
55.546,-79.71
55.562,-136.75
55.578,-186.02
55.593,-223.28
55.609,-245.53
55.625,-252.44
55.640,-246.59
55.656,-232.26
55.671,-213.62
55.687,-193.36
55.703,-172.58
55.718,-151.64
55.734,-131.52
55.750,-114.35
55.765,-102.84
55.781,-98.87
55.796,-102.21
55.812,-110.08
55.828,-118.03
55.843,-121.6
55.859,-117.84
55.875,-106.22
55.890,-88.44
55.906,-67.37
55.921,-45.88
55.937,-25.87
55.953,-8.13
55.968,7.26
55.984,20.33
56.000,30.89
56.015,38.44
56.031,42.61
56.046,43.42
56.062,41.53
56.078,38.05
56.093,34.21
56.109,30.93
56.125,28.7
56.140,27.56
56.156,27.31
56.171,27.7
56.187,28.54
56.203,29.59
56.218,30.54
56.234,31.0
56.250,30.51
56.265,28.77
56.281,25.71
56.296,21.5
56.312,16.51
56.328,11.24
56.343,6.13
56.359,1.46
56.375,-2.69
56.390,-6.48
56.406,-10.2
56.421,-14.15
56.437,-18.52
56.453,-23.22
56.468,-27.98
56.484,-32.37
56.500,-36.01
56.515,-38.71
56.531,-40.57
56.546,-42.02
56.562,-43.71
56.578,-46.41
56.593,-50.72
56.609,-56.9
56.625,-64.64
56.640,-72.9
56.656,-80.11
56.671,-84.46
56.687,-84.33
56.703,-78.83
56.718,-68.11
56.734,-53.4
56.750,-36.62
56.765,-19.82
56.781,-4.42
56.796,9.14
56.812,21.35
56.828,33.27
56.843,45.77
56.859,58.94
56.875,71.95
56.890,83.35
56.906,91.78
56.921,96.63
56.937,98.35
56.953,98.2
56.968,97.71
56.984,97.95
57.000,99.28
57.015,101.5
57.031,104.34
57.046,107.87
57.062,112.49
57.078,118.49
57.093,125.59
57.109,132.97
57.125,139.67
57.140,145.34
57.156,150.27
57.171,154.68
57.187,157.51
57.203,155.82
57.218,145.37
57.234,122.55
57.250,86.58
57.265,40.67
57.281,-8.71
57.296,-54.19
57.312,-90.2
57.328,-114.59
57.343,-128.52
57.359,-134.91
57.375,-136.64
57.390,-135.57
57.406,-132.59
57.421,-128.23
57.437,-123.16
57.453,-118.1
57.468,-113.3
57.484,-108.07
57.500,-100.84
57.515,-89.71
57.531,-73.29
57.546,-51.55
57.562,-25.9
57.578,1.08
57.593,26.51
57.609,48.09
57.625,64.72
57.640,76.66
57.656,85.12
57.671,91.66
57.687,97.51
57.703,103.18
57.718,108.44
57.734,112.65
57.750,115.2
57.765,115.78
57.781,114.46
57.796,111.61
57.812,107.65
57.828,102.97
57.843,97.91
57.859,92.8
57.875,88.06
57.890,84.16
57.906,81.5
57.921,80.29
57.937,80.4
57.953,81.36
57.968,82.44
57.984,82.83
58.000,81.92
58.015,79.38
58.031,75.21
58.046,69.56
58.062,62.57
58.078,54.24
58.093,44.47
58.109,33.24
58.125,20.89
58.140,8.13
58.156,-4.03
58.171,-14.71
58.187,-23.49
58.203,-30.55
58.218,-36.6
58.234,-42.5
58.250,-48.89
58.265,-55.88
58.281,-63.02
58.296,-69.4
58.312,-73.82
58.328,-75.11
58.343,-72.34
58.359,-65.12
58.375,-53.66
58.390,-38.89
58.406,-22.22
58.421,-5.21
58.437,10.82
58.453,25.05
58.468,37.25
58.484,47.68
58.500,56.82
58.515,64.97
58.531,72.03
58.546,77.31
58.562,79.75
58.578,78.31
58.593,72.42
58.609,62.47
58.625,49.68
58.640,35.92
58.656,23.06
58.671,12.52
58.687,4.96
58.703,0.24
58.718,-2.32
58.734,-3.75
58.750,-5.16
58.765,-7.64
58.781,-11.96
58.796,-18.4
58.812,-26.46
58.828,-34.93
58.843,-42.19
58.859,-46.76
58.875,-47.95
58.890,-46.26
58.906,-43.28
58.921,-41.14
58.937,-41.72
58.953,-45.85
58.968,-53.07
58.984,-61.93
59.000,-70.63
59.015,-77.88
59.031,-83.28
59.046,-87.44
59.062,-91.53
59.078,-96.76
59.093,-103.97
59.109,-113.44
59.125,-124.9
59.140,-137.59
59.156,-150.33
59.171,-161.61
59.187,-169.74
59.203,-173.25
59.218,-171.24
59.234,-163.68
59.250,-151.34
59.265,-135.47
59.281,-117.37
59.296,-98.06
59.312,-78.1
59.328,-57.81
59.343,-37.51
59.359,-17.76
59.375,0.58
59.390,16.53
59.406,29.27
59.421,38.41
59.437,44.1
59.453,46.99
59.468,48.02
59.484,48.2
59.500,48.32
59.515,48.87
59.531,50.05
59.546,51.85
59.562,54.2
59.578,56.95
59.593,59.95
59.609,62.97
59.625,65.66
59.640,67.65
59.656,68.61
59.671,68.35
59.687,66.87
59.703,64.35
59.718,61.07
59.734,57.2
59.750,52.79
59.765,47.75
59.781,41.99
59.796,35.49
59.812,28.42
59.828,21.12
59.843,13.91
59.859,7.06
59.875,0.71
59.890,-5.13
59.906,-10.49
59.921,-15.39
59.937,-19.77
59.953,-23.42
59.968,-25.99
59.984,-26.9
