timestamp,value
00.000,40.08
00.015,42.01
00.031,42.62
00.046,42.27
00.062,41.52
00.078,40.91
00.093,40.75
00.109,41.11
00.125,41.83
00.140,42.69
00.156,43.45
00.171,43.96
00.187,44.08
00.203,43.72
00.218,42.9
00.234,41.61
00.250,39.86
00.265,37.66
00.281,34.94
00.296,31.72
00.312,28.03
00.328,24.05
00.343,20.08
00.359,16.4
00.375,13.13
00.390,10.13
00.406,7.07
00.421,3.56
00.437,-0.59
00.453,-5.29
00.468,-10.2
00.484,-14.8
00.500,-18.63
00.515,-21.54
00.531,-23.73
00.546,-25.71
00.562,-28.14
00.578,-31.5
00.593,-35.93
00.609,-41.13
00.625,-46.45
00.640,-50.98
00.656,-53.8
00.671,-54.1
00.687,-51.36
00.703,-45.51
00.718,-36.94
00.734,-26.37
00.750,-14.78
00.765,-3.17
00.781,7.55
00.796,16.74
00.812,24.07
00.828,29.48
00.843,33.11
00.859,35.22
00.875,36.12
00.890,36.1
00.906,35.45
00.921,34.48
00.937,33.48
00.953,32.74
00.968,32.44
00.984,32.62
01.000,33.18
01.015,33.94
01.031,34.6
01.046,35.02
01.062,35.14
01.078,34.97
01.093,34.51
01.109,33.71
01.125,32.38
01.140,30.33
01.156,27.45
01.171,23.81
01.187,19.72
01.203,15.51
01.218,11.37
01.234,7.16
01.250,2.41
01.265,-3.34
01.281,-10.35
01.296,-18.33
01.312,-26.59
01.328,-34.24
01.343,-40.65
01.359,-45.7
01.375,-49.74
01.390,-53.41
01.406,-57.27
01.421,-61.52
01.437,-65.97
01.453,-70.07
01.468,-73.07
01.484,-74.13
01.500,-72.53
01.515,-67.72
01.531,-59.68
01.546,-48.87
01.562,-36.36
01.578,-23.48
01.593,-11.6
01.609,-1.71
01.625,5.77
01.640,10.91
01.656,14.09
01.671,15.64
01.687,15.8
01.703,14.68
01.718,12.42
01.734,9.32
01.750,5.85
01.765,2.6
01.781,0.12
01.796,-1.22
01.812,-1.4
01.828,-0.68
01.843,0.52
01.859,1.7
01.875,2.55
01.890,2.93
01.906,2.98
01.921,2.99
01.937,3.27
01.953,3.96
01.968,5.0
01.984,6.09
02.000,6.82
02.015,6.87
02.031,6.12
02.046,4.6
02.062,2.46
02.078,-0.19
02.093,-3.41
02.109,-7.31
02.125,-12.03
02.140,-17.52
02.156,-23.6
02.171,-29.96
02.187,-36.36
02.203,-42.67
02.218,-48.77
02.234,-54.37
02.250,-58.83
02.265,-61.16
02.281,-60.32
02.296,-55.67
02.312,-47.25
02.328,-35.89
02.343,-22.97
02.359,-9.93
02.375,2.19
02.390,12.89
02.406,22.16
02.421,30.1
02.437,36.71
02.453,41.79
02.468,45.14
02.484,46.77
02.500,46.96
02.515,46.28
02.531,45.24
02.546,44.18
02.562,43.21
02.578,42.33
02.593,41.57
02.609,41.03
02.625,40.86
02.640,41.02
02.656,41.29
02.671,41.31
02.687,40.76
02.703,39.52
02.718,37.65
02.734,35.39
02.750,32.91
02.765,30.26
02.781,27.42
02.796,24.28
02.812,20.68
02.828,16.49
02.843,11.56
02.859,5.83
02.875,-0.45
02.890,-6.83
02.906,-12.59
02.921,-17.14
02.937,-20.2
02.953,-22.07
02.968,-23.56
02.984,-25.66
03.000,-29.14
03.015,-34.07
03.031,-39.76
03.046,-44.86
03.062,-47.85
03.078,-47.49
03.093,-43.2
03.109,-35.23
03.125,-24.44
03.140,-12.01
03.156,0.93
03.171,13.45
03.187,24.99
03.203,35.08
03.218,43.31
03.234,49.24
03.250,52.5
03.265,52.93
03.281,50.78
03.296,46.73
03.312,41.79
03.328,36.93
03.343,32.8
03.359,29.44
03.375,26.38
03.390,22.83
03.406,18.18
03.421,12.29
03.437,5.48
03.453,-1.49
03.468,-7.78
03.484,-12.89
03.500,-16.74
03.515,-19.53
03.531,-21.65
03.546,-23.26
03.562,-24.3
03.578,-24.55
03.593,-23.8
03.609,-22.09
03.625,-19.68
03.640,-17.06
03.656,-14.69
03.671,-12.88
03.687,-11.58
03.703,-10.51
03.718,-9.43
03.734,-8.28
03.750,-7.31
03.765,-6.89
03.781,-7.47
03.796,-9.31
03.812,-12.46
03.828,-16.68
03.843,-21.51
03.859,-26.24
03.875,-29.9
03.890,-31.44
03.906,-29.98
03.921,-25.07
03.937,-16.91
03.953,-6.36
03.968,5.44
03.984,17.27
04.000,28.19
04.015,37.65
04.031,45.42
04.046,51.44
04.062,55.71
04.078,58.31
04.093,59.37
04.109,59.08
04.125,57.8
04.140,55.94
04.156,53.92
04.171,52.07
04.187,50.5
04.203,49.13
04.218,47.77
04.234,46.19
04.250,44.27
04.265,42.06
04.281,39.6
04.296,36.88
04.312,33.76
04.328,29.96
04.343,25.34
04.359,19.97
04.375,14.17
04.390,8.41
04.406,3.06
04.421,-1.77
04.437,-6.22
04.453,-10.56
04.468,-15.01
04.484,-19.66
04.500,-24.44
04.515,-29.32
04.531,-34.2
04.546,-38.97
04.562,-43.45
04.578,-47.29
04.593,-50.26
04.609,-52.3
04.625,-53.55
04.640,-54.19
04.656,-54.16
04.671,-52.95
04.687,-49.71
04.703,-43.67
04.718,-34.55
04.734,-22.95
04.750,-10.23
04.765,2.04
04.781,12.54
04.796,20.59
04.812,26.18
04.828,29.71
04.843,31.62
04.859,32.29
04.875,31.96
04.890,30.89
04.906,29.41
04.921,27.89
04.937,26.61
04.953,25.74
04.968,25.25
04.984,24.9
05.000,24.43
05.015,23.53
05.031,21.92
05.046,19.52
05.062,16.39
05.078,12.77
05.093,9.0
05.109,5.36
05.125,1.99
05.140,-1.13
05.156,-4.25
05.171,-7.63
05.187,-11.46
05.203,-15.8
05.218,-20.42
05.234,-24.99
05.250,-29.18
05.265,-32.81
05.281,-35.89
05.296,-38.75
05.312,-41.94
05.328,-45.91
05.343,-51.03
05.359,-57.33
05.375,-64.52
05.390,-72.1
05.406,-79.34
05.421,-85.43
05.437,-89.54
05.453,-90.96
05.468,-89.26
05.484,-84.43
05.500,-76.93
05.515,-67.6
05.531,-57.53
05.546,-47.65
05.562,-38.57
05.578,-30.49
05.593,-23.28
05.609,-16.67
05.625,-10.48
05.640,-4.69
05.656,0.63
05.671,5.42
05.687,9.79
05.703,14.0
05.718,18.42
05.734,23.35
05.750,28.86
05.765,34.77
05.781,40.77
05.796,46.55
05.812,51.88
05.828,56.64
05.843,60.7
05.859,63.81
05.875,65.63
05.890,65.82
05.906,64.29
05.921,61.32
05.937,57.46
05.953,53.36
05.968,49.53
05.984,46.14
06.000,42.94
06.015,39.63
06.031,35.83
06.046,31.43
06.062,26.55
06.078,21.42
06.093,16.25
06.109,11.1
06.125,5.77
06.140,-0.14
06.156,-7.01
06.171,-15.04
06.187,-23.9
06.203,-32.67
06.218,-40.02
06.234,-44.56
06.250,-45.38
06.265,-42.31
06.281,-36.05
06.296,-27.82
06.312,-19.04
06.328,-10.83
06.343,-3.8
06.359,1.95
06.375,6.61
06.390,10.48
06.406,13.77
06.421,16.49
06.437,18.58
06.453,19.92
06.468,20.58
06.484,20.84
06.500,21.11
06.515,21.75
06.531,22.84
06.546,24.18
06.562,25.38
06.578,26.12
06.593,26.34
06.609,26.28
06.625,26.3
06.640,26.56
06.656,26.84
06.671,26.58
06.687,25.13
06.703,22.05
06.718,17.41
06.734,11.66
06.750,5.5
06.765,-0.4
06.781,-5.77
06.796,-10.64
06.812,-15.38
06.828,-20.39
06.843,-25.97
06.859,-32.08
06.875,-38.39
06.890,-44.5
06.906,-49.97
06.921,-54.59
06.937,-58.36
06.953,-61.49
06.968,-64.38
06.984,-67.45
07.000,-71.01
07.015,-75.03
07.031,-79.12
07.046,-82.49
07.062,-84.19
07.078,-83.46
07.093,-79.9
07.109,-73.66
07.125,-65.32
07.140,-55.71
07.156,-45.65
07.171,-35.86
07.187,-26.84
07.203,-18.95
07.218,-12.32
07.234,-6.95
07.250,-2.67
07.265,0.73
07.281,3.49
07.296,5.76
07.312,7.64
07.328,9.22
07.343,10.48
07.359,11.37
07.375,11.79
07.390,11.72
07.406,11.24
07.421,10.64
07.437,10.29
07.453,10.57
07.468,11.66
07.484,13.46
07.500,15.58
07.515,17.57
07.531,19.02
07.546,19.78
07.562,19.97
07.578,19.84
07.593,19.75
07.609,20.0
07.625,20.75
07.640,22.0
07.656,23.59
07.671,25.27
07.687,26.81
07.703,28.07
07.718,29.01
07.734,29.65
07.750,30.06
07.765,30.33
07.781,30.47
07.796,30.42
07.812,30.01
07.828,29.06
07.843,27.4
07.859,25.06
07.875,22.31
07.890,19.77
07.906,18.2
07.921,18.23
07.937,20.18
07.953,23.85
07.968,28.68
07.984,33.86
08.000,38.72
08.015,42.85
08.031,46.13
08.046,48.6
08.062,50.35
08.078,51.38
08.093,51.57
08.109,50.88
08.125,49.31
08.140,47.0
08.156,44.18
08.171,41.11
08.187,37.92
08.203,34.63
08.218,31.28
08.234,27.96
08.250,24.86
08.265,22.29
08.281,20.47
08.296,19.4
08.312,18.82
08.328,18.26
08.343,17.16
08.359,15.23
08.375,12.36
08.390,8.74
08.406,4.72
08.421,0.58
08.437,-3.54
08.453,-7.72
08.468,-12.1
08.484,-16.99
08.500,-22.57
08.515,-28.98
08.531,-36.13
08.546,-43.73
08.562,-51.24
08.578,-58.07
08.593,-63.8
08.609,-68.24
08.625,-71.64
08.640,-74.43
08.656,-77.15
08.671,-80.09
08.687,-83.13
08.703,-85.66
08.718,-86.83
08.734,-85.81
08.750,-81.99
08.765,-75.25
08.781,-65.91
08.796,-54.78
08.812,-42.86
08.828,-31.2
08.843,-20.58
08.859,-11.42
08.875,-3.75
08.890,2.68
08.906,8.08
08.921,12.54
08.937,15.94
08.953,18.11
08.968,19.05
08.984,19.08
09.000,18.71
09.015,18.46
09.031,18.65
09.046,19.15
09.062,19.66
09.078,19.79
09.093,19.38
09.109,18.48
09.125,17.28
09.140,15.92
09.156,14.37
09.171,12.58
09.187,10.41
09.203,7.93
09.218,5.3
09.234,2.68
09.250,0.16
09.265,-2.34
09.281,-4.96
09.296,-7.81
09.312,-10.82
09.328,-13.78
09.343,-16.45
09.359,-18.64
09.375,-20.34
09.390,-21.68
09.406,-22.93
09.421,-24.41
09.437,-26.45
09.453,-29.27
09.468,-32.85
09.484,-36.85
09.500,-40.48
09.515,-42.63
09.531,-42.27
09.546,-38.78
09.562,-32.19
09.578,-23.2
09.593,-12.91
09.609,-2.46
09.625,7.35
09.640,16.11
09.656,23.72
09.671,30.23
09.687,35.64
09.703,39.82
09.718,42.59
09.734,43.89
09.750,43.82
09.765,42.78
09.781,41.24
09.796,39.64
09.812,38.24
09.828,37.07
09.843,35.95
09.859,34.71
09.875,33.27
09.890,31.7
09.906,30.14
09.921,28.76
09.937,27.59
09.953,26.64
09.968,25.89
09.984,25.36
10.000,25.03
10.015,24.88
10.031,24.78
10.046,24.56
10.062,24.03
10.078,23.01
10.093,21.4
10.109,19.05
10.125,15.92
10.140,12.03
10.156,7.55
10.171,2.69
10.187,-2.39
10.203,-7.67
10.218,-13.36
10.234,-19.75
10.250,-27.0
10.265,-34.97
10.281,-43.01
10.296,-50.04
10.312,-54.83
10.328,-56.34
10.343,-54.05
10.359,-48.2
10.375,-39.63
10.390,-29.6
10.406,-19.37
10.421,-9.92
10.437,-1.78
10.453,4.95
10.468,10.39
10.484,14.73
10.500,18.03
10.515,20.29
10.531,21.49
10.546,21.67
10.562,20.97
10.578,19.67
10.593,18.02
10.609,16.26
10.625,14.49
10.640,12.71
10.656,10.92
10.671,9.17
10.687,7.6
10.703,6.42
10.718,5.73
10.734,5.4
10.750,5.07
10.765,4.36
10.781,2.92
10.796,0.71
10.812,-2.1
10.828,-5.24
10.843,-8.38
10.859,-11.38
10.875,-14.22
10.890,-16.99
10.906,-19.78
10.921,-22.73
10.937,-25.9
10.953,-29.34
10.968,-33.0
10.984,-36.75
11.000,-40.44
11.015,-44.02
11.031,-47.56
11.046,-51.25
11.062,-55.36
11.078,-59.98
11.093,-65.01
11.109,-69.97
11.125,-74.07
11.140,-76.35
11.156,-75.89
11.171,-71.98
11.187,-64.42
11.203,-53.59
11.218,-40.36
11.234,-25.91
11.250,-11.42
11.265,2.19
11.281,14.41
11.296,25.08
11.312,34.27
11.328,42.03
11.343,48.35
11.359,53.15
11.375,56.49
11.390,58.59
11.406,59.95
11.421,61.19
11.437,62.89
11.453,65.41
11.468,68.75
11.484,72.59
11.500,76.42
11.515,79.64
11.531,81.69
11.546,82.21
11.562,81.02
11.578,78.21
11.593,73.94
11.609,68.48
11.625,62.09
11.640,55.12
11.656,47.89
11.671,40.74
11.687,33.87
11.703,27.32
11.718,20.95
11.734,14.53
11.750,7.82
11.765,0.81
11.781,-6.28
11.796,-13.07
11.812,-19.19
11.828,-24.49
11.843,-29.12
11.859,-33.47
11.875,-38.01
11.890,-43.13
11.906,-48.95
11.921,-55.23
11.937,-61.36
11.953,-66.35
11.968,-69.15
11.984,-68.85
12.000,-65.03
12.015,-57.91
12.031,-48.3
12.046,-37.41
12.062,-26.61
12.078,-16.93
12.093,-8.93
12.109,-2.57
12.125,2.51
12.140,6.78
12.156,10.53
12.171,13.75
12.187,16.24
12.203,17.75
12.218,18.19
12.234,17.78
12.250,16.93
12.265,16.05
12.281,15.43
12.296,15.11
12.312,14.98
12.328,14.92
12.343,14.88
12.359,14.85
12.375,14.83
12.390,14.75
12.406,14.44
12.421,13.71
12.437,12.38
12.453,10.36
12.468,7.6
12.484,4.14
12.500,0.06
12.515,-4.45
12.531,-9.15
12.546,-13.81
12.562,-18.24
12.578,-22.35
12.593,-26.09
12.609,-29.48
12.625,-32.65
12.640,-35.81
12.656,-39.26
12.671,-43.31
12.687,-48.07
12.703,-53.22
12.718,-58.01
12.734,-61.3
12.750,-61.98
12.765,-59.27
12.781,-53.04
12.796,-43.76
12.812,-32.44
12.828,-20.24
12.843,-8.18
12.859,2.91
12.875,12.58
12.890,20.64
12.906,27.09
12.921,31.99
12.937,35.38
12.953,37.34
12.968,38.01
12.984,37.64
13.000,36.58
13.015,35.18
13.031,33.74
13.046,32.39
13.062,31.1
13.078,29.81
13.093,28.47
13.109,27.11
13.125,25.85
13.140,24.72
13.156,23.64
13.171,22.43
13.187,20.84
13.203,18.66
13.218,15.86
13.234,12.57
13.250,9.0
13.265,5.36
13.281,1.75
13.296,-1.86
13.312,-5.56
13.328,-9.47
13.343,-13.57
13.359,-17.64
13.375,-21.4
13.390,-24.64
13.406,-27.37
13.421,-29.88
13.437,-32.74
13.453,-36.45
13.468,-41.26
13.484,-46.94
13.500,-52.74
13.515,-57.57
13.531,-60.36
13.546,-60.34
13.562,-57.19
13.578,-51.17
13.593,-42.95
13.609,-33.41
13.625,-23.48
13.640,-13.89
13.656,-5.15
13.671,2.48
13.687,8.97
13.703,14.37
13.718,18.81
13.734,22.37
13.750,25.07
13.765,26.9
13.781,27.86
13.796,28.0
13.812,27.49
13.828,26.59
13.843,25.54
13.859,24.6
13.875,23.91
13.890,23.51
13.906,23.35
13.921,23.34
13.937,23.34
13.953,23.2
13.968,22.79
13.984,21.97
14.000,20.71
14.015,19.02
14.031,16.98
14.046,14.62
14.062,11.97
14.078,8.96
14.093,5.58
14.109,1.85
14.125,-2.19
14.140,-6.44
14.156,-10.93
14.171,-15.64
14.187,-20.52
14.203,-25.44
14.218,-30.14
14.234,-34.46
14.250,-38.44
14.265,-42.41
14.281,-46.82
14.296,-51.97
14.312,-57.63
14.328,-62.96
14.343,-66.67
14.359,-67.42
14.375,-64.42
14.390,-57.69
14.406,-48.06
14.421,-36.82
14.437,-25.35
14.453,-14.61
14.468,-5.08
14.484,3.2
14.500,10.37
14.515,16.59
14.531,21.85
14.546,26.08
14.562,29.23
14.578,31.39
14.593,32.83
14.609,33.86
14.625,34.81
14.640,35.85
14.656,36.94
14.671,37.97
14.687,38.77
14.703,39.28
14.718,39.58
14.734,39.77
14.750,39.97
14.765,40.1
14.781,40.0
14.796,39.35
14.812,37.89
14.828,35.56
14.843,32.47
14.859,28.93
14.875,25.27
14.890,21.67
14.906,18.06
14.921,14.21
14.937,9.9
14.953,5.07
14.968,-0.09
14.984,-5.24
15.000,-9.97
15.015,-14.08
15.031,-17.63
15.046,-20.95
15.062,-24.51
15.078,-28.82
15.093,-34.14
15.109,-40.41
15.125,-47.1
15.140,-53.18
15.156,-57.41
15.171,-58.63
15.187,-56.11
15.203,-49.88
15.218,-40.69
15.234,-29.79
15.250,-18.45
15.265,-7.65
15.281,2.17
15.296,10.95
15.312,18.75
15.328,25.63
15.343,31.45
15.359,35.96
15.375,38.97
15.390,40.5
15.406,40.78
15.421,40.32
15.437,39.65
15.453,39.23
15.468,39.29
15.484,39.79
15.500,40.52
15.515,41.17
15.531,41.47
15.546,41.22
15.562,40.35
15.578,38.83
15.593,36.63
15.609,33.79
15.625,30.42
15.640,26.74
15.656,23.14
15.671,19.98
15.687,17.45
15.703,15.51
15.718,13.82
15.734,11.84
15.750,9.1
15.765,5.4
15.781,0.88
15.796,-4.02
15.812,-8.78
15.828,-13.1
15.843,-17.03
15.859,-20.93
15.875,-25.24
15.890,-30.26
15.906,-36.04
15.921,-42.34
15.937,-48.73
15.953,-54.61
15.968,-59.23
15.984,-61.7
16.000,-61.18
16.015,-57.15
16.031,-49.64
16.046,-39.39
16.062,-27.61
16.078,-15.65
16.093,-4.55
16.109,5.14
16.125,13.36
16.140,20.26
16.156,25.98
16.171,30.56
16.187,33.87
16.203,35.92
16.218,36.81
16.234,36.88
16.250,36.5
16.265,36.08
16.281,35.82
16.296,35.74
16.312,35.71
16.328,35.52
16.343,35.13
16.359,34.53
16.375,33.84
16.390,33.15
16.406,32.46
16.421,31.71
16.437,30.83
16.453,29.79
16.468,28.57
16.484,27.17
16.500,25.51
16.515,23.4
16.531,20.7
16.546,17.37
16.562,13.58
16.578,9.59
16.593,5.64
16.609,1.8
16.625,-2.04
16.640,-6.07
16.656,-10.53
16.671,-15.52
16.687,-21.05
16.703,-27.01
16.718,-33.17
16.734,-39.15
16.750,-44.33
16.765,-47.89
16.781,-48.93
16.796,-46.74
16.812,-41.15
16.828,-32.6
16.843,-22.08
16.859,-10.78
16.875,0.19
16.890,10.06
16.906,18.43
16.921,25.26
16.937,30.53
16.953,34.3
16.968,36.57
16.984,37.48
17.000,37.32
17.015,36.51
17.031,35.46
17.046,34.5
17.062,33.75
17.078,33.22
17.093,32.84
17.109,32.58
17.125,32.33
17.140,32.04
17.156,31.56
17.171,30.75
17.187,29.44
17.203,27.59
17.218,25.19
17.234,22.38
17.250,19.29
17.265,16.0
17.281,12.54
17.296,8.86
17.312,4.87
17.328,0.51
17.343,-4.19
17.359,-9.03
17.375,-13.77
17.390,-18.1
17.406,-21.95
17.421,-25.37
17.437,-28.62
17.453,-31.99
17.468,-35.76
17.484,-40.07
17.500,-44.87
17.515,-49.95
17.531,-54.77
17.546,-58.53
17.562,-60.2
17.578,-58.86
17.593,-53.95
17.609,-45.6
17.625,-34.69
17.640,-22.55
17.656,-10.66
17.671,-0.06
17.687,8.74
17.703,15.77
17.718,21.35
17.734,25.83
17.750,29.41
17.765,32.07
17.781,33.7
17.796,34.24
17.812,33.83
17.828,32.72
17.843,31.3
17.859,29.85
17.875,28.56
17.890,27.46
17.906,26.45
17.921,25.53
17.937,24.67
17.953,23.94
17.968,23.33
17.984,22.71
18.000,21.81
18.015,20.33
18.031,18.11
18.046,15.18
18.062,11.82
18.078,8.35
18.093,5.09
18.109,2.18
18.125,-0.48
18.140,-3.14
18.156,-6.08
18.171,-9.53
18.187,-13.56
18.203,-18.03
18.218,-22.71
18.234,-27.3
18.250,-31.57
18.265,-35.52
18.281,-39.41
18.296,-43.62
18.312,-48.49
18.328,-54.01
18.343,-59.69
18.359,-64.61
18.375,-67.6
18.390,-67.6
18.406,-64.03
18.421,-56.92
18.437,-46.87
18.453,-34.99
18.468,-22.47
18.484,-10.38
18.500,0.52
18.515,9.83
18.531,17.46
18.546,23.54
18.562,28.22
18.578,31.66
18.593,33.92
18.609,35.09
18.625,35.35
18.640,34.93
18.656,34.14
18.671,33.23
18.687,32.36
18.703,31.58
18.718,30.85
18.734,30.12
18.750,29.38
18.765,28.72
18.781,28.25
18.796,27.99
18.812,27.83
18.828,27.53
18.843,26.71
18.859,25.07
18.875,22.47
18.890,19.06
18.906,15.22
18.921,11.38
18.937,7.93
18.953,4.96
18.968,2.28
18.984,-0.43
19.000,-3.5
19.015,-7.0
19.031,-10.84
19.046,-14.74
19.062,-18.56
19.078,-22.26
19.093,-26.01
19.109,-30.07
19.125,-34.63
19.140,-39.77
19.156,-45.36
19.171,-51.06
19.187,-56.26
19.203,-60.12
19.218,-61.74
19.234,-60.31
19.250,-55.45
19.265,-47.35
19.281,-36.77
19.296,-24.94
19.312,-13.12
19.328,-2.35
19.343,6.8
19.359,14.22
19.375,20.06
19.390,24.59
19.406,28.08
19.421,30.71
19.437,32.62
19.453,33.95
19.468,34.83
19.484,35.44
19.500,35.92
19.515,36.34
19.531,36.74
19.546,37.06
19.562,37.19
19.578,37.08
19.593,36.73
19.609,36.22
19.625,35.62
19.640,35.04
19.656,34.39
19.671,33.54
19.687,32.25
19.703,30.38
19.718,27.94
19.734,25.13
19.750,22.21
19.765,19.28
19.781,16.3
19.796,13.01
19.812,9.22
19.828,4.94
19.843,0.47
19.859,-3.78
19.875,-7.42
19.890,-10.42
19.906,-13.06
19.921,-15.78
19.937,-19.02
19.953,-22.99
19.968,-27.69
19.984,-32.95
20.000,-38.46
20.015,-43.77
20.031,-48.27
20.046,-51.18
20.062,-51.77
20.078,-49.53
20.093,-44.49
20.109,-37.17
20.125,-28.44
20.140,-19.19
20.156,-10.13
20.171,-1.66
20.187,6.1
20.203,13.07
20.218,19.15
20.234,24.11
20.250,27.77
20.265,30.05
20.281,31.09
20.296,31.22
20.312,30.84
20.328,30.34
20.343,29.98
20.359,29.91
20.375,30.13
20.390,30.63
20.406,31.31
20.421,32.11
20.437,32.91
20.453,33.52
20.468,33.76
20.484,33.51
20.500,32.73
20.515,31.52
20.531,30.0
20.546,28.29
20.562,26.41
20.578,24.34
20.593,22.04
20.609,19.57
20.625,17.05
20.640,14.66
20.656,12.5
20.671,10.43
20.687,8.26
20.703,5.69
20.718,2.6
20.734,-0.96
20.750,-4.79
20.765,-8.68
20.781,-12.55
20.796,-16.42
20.812,-20.26
20.828,-23.76
20.843,-26.22
20.859,-26.71
20.875,-24.52
20.890,-19.44
20.906,-12.13
20.921,-3.75
20.937,4.36
20.953,11.23
20.968,16.46
20.984,20.11
21.000,22.46
21.015,23.66
21.031,23.78
21.046,22.83
21.062,21.05
21.078,18.81
21.093,16.54
21.109,14.5
21.125,12.71
21.140,11.04
21.156,9.34
21.171,7.56
21.187,5.77
21.203,4.08
21.218,2.48
21.234,0.89
21.250,-0.8
21.265,-2.69
21.281,-4.78
21.296,-7.09
21.312,-9.58
21.328,-12.26
21.343,-15.16
21.359,-18.26
21.375,-21.57
21.390,-25.02
21.406,-28.53
21.421,-31.94
21.437,-35.06
21.453,-37.73
21.468,-39.91
21.484,-41.77
21.500,-43.69
21.515,-46.17
21.531,-49.56
21.546,-53.88
21.562,-58.71
21.578,-63.2
21.593,-66.33
21.609,-67.21
21.625,-65.31
21.640,-60.6
21.656,-53.51
21.671,-44.79
21.687,-35.31
21.703,-25.84
21.718,-16.96
21.734,-9.0
21.750,-2.08
21.765,3.73
21.781,8.44
21.796,12.02
21.812,14.45
21.828,15.76
21.843,16.11
21.859,15.82
21.875,15.28
21.890,14.81
21.906,14.54
21.921,14.4
21.937,14.18
21.953,13.66
21.968,12.71
21.984,11.31
22.000,9.61
22.015,7.8
22.031,6.11
22.046,4.69
22.062,3.53
22.078,2.44
22.093,1.04
22.109,-1.07
22.125,-4.2
22.140,-8.36
22.156,-13.29
22.171,-18.43
22.187,-23.24
22.203,-27.35
22.218,-30.77
22.234,-33.79
22.250,-36.91
22.265,-40.6
22.281,-45.02
22.296,-50.01
22.312,-55.04
22.328,-59.42
22.343,-62.34
22.359,-63.12
22.375,-61.24
22.390,-56.47
22.406,-49.02
22.421,-39.47
22.437,-28.73
22.453,-17.87
22.468,-7.82
22.484,0.82
22.500,7.88
22.515,13.51
22.531,18.03
22.546,21.69
22.562,24.68
22.578,27.09
22.593,28.92
22.609,30.22
22.625,31.07
22.640,31.58
22.656,31.82
22.671,31.87
22.687,31.76
22.703,31.52
22.718,31.19
22.734,30.79
22.750,30.31
22.765,29.75
22.781,29.01
22.796,27.96
22.812,26.46
22.828,24.35
22.843,21.56
22.859,18.14
22.875,14.33
22.890,10.43
22.906,6.63
22.921,2.97
22.937,-0.66
22.953,-4.48
22.968,-8.6
22.984,-12.99
23.000,-17.42
23.015,-21.66
23.031,-25.59
23.046,-29.33
23.062,-33.21
23.078,-37.56
23.093,-42.58
23.109,-48.1
23.125,-53.61
23.140,-58.22
23.156,-60.86
23.171,-60.65
23.187,-57.02
23.203,-50.13
23.218,-40.64
23.234,-29.65
23.250,-18.29
23.265,-7.45
23.281,2.39
23.296,11.09
23.312,18.68
23.328,25.15
23.343,30.32
23.359,34.02
23.375,36.2
23.390,37.07
23.406,37.08
23.421,36.77
23.437,36.53
23.453,36.43
23.468,36.33
23.484,35.95
23.500,35.18
23.515,34.19
23.531,33.33
23.546,32.97
23.562,33.21
23.578,33.84
23.593,34.41
23.609,34.37
23.625,33.33
23.640,31.11
23.656,27.78
23.671,23.65
23.687,19.18
23.703,14.78
23.718,10.8
23.734,7.32
23.750,4.15
23.765,0.93
23.781,-2.67
23.796,-6.75
23.812,-11.11
23.828,-15.33
23.843,-19.09
23.859,-22.32
23.875,-25.29
23.890,-28.44
23.906,-32.16
23.921,-36.69
23.937,-42.04
23.953,-47.94
23.968,-53.89
23.984,-59.09
24.000,-62.57
24.015,-63.32
24.031,-60.56
24.046,-54.14
24.062,-44.56
24.078,-32.94
24.093,-20.63
24.109,-8.82
24.125,1.71
24.140,10.65
24.156,17.96
24.171,23.74
24.187,28.14
24.203,31.39
24.218,33.85
24.234,35.91
24.250,37.84
24.265,39.64
24.281,41.08
24.296,41.87
24.312,41.88
24.328,41.2
24.343,40.18
24.359,39.18
24.375,38.43
24.390,37.89
24.406,37.47
24.421,37.03
24.437,36.52
24.453,35.91
24.468,35.08
24.484,33.86
24.500,32.05
24.515,29.57
24.531,26.53
24.546,23.14
24.562,19.63
24.578,16.14
24.593,12.64
24.609,9.0
24.625,5.09
24.640,0.8
24.656,-3.84
24.671,-8.68
24.687,-13.47
24.703,-17.89
24.718,-21.69
24.734,-24.81
24.750,-27.46
24.765,-30.05
24.781,-33.13
24.796,-37.13
24.812,-42.28
24.828,-48.36
24.843,-54.79
24.859,-60.57
24.875,-64.48
24.890,-65.34
24.906,-62.38
24.921,-55.5
24.937,-45.41
24.953,-33.44
24.968,-21.08
24.984,-9.6
25.000,0.38
25.015,8.76
25.031,15.79
25.046,21.74
25.062,26.7
25.078,30.61
25.093,33.36
25.109,34.97
25.125,35.67
25.140,35.83
25.156,35.79
25.171,35.79
25.187,35.9
25.203,36.03
25.218,36.12
25.234,36.06
25.250,35.85
25.265,35.5
25.281,35.08
25.296,34.63
25.312,34.1
25.328,33.37
25.343,32.28
25.359,30.63
25.375,28.37
25.390,25.58
25.406,22.51
25.421,19.41
25.437,16.49
25.453,13.75
25.468,11.11
25.484,8.39
25.500,5.47
25.515,2.31
25.531,-1.07
25.546,-4.58
25.562,-8.07
25.578,-11.39
25.593,-14.43
25.609,-17.12
25.625,-19.51
25.640,-21.85
25.656,-24.5
25.671,-27.93
25.687,-32.37
25.703,-37.74
25.718,-43.4
25.734,-48.33
25.750,-51.37
25.765,-51.65
25.781,-48.8
25.796,-43.1
25.812,-35.28
25.828,-26.22
25.843,-16.69
25.859,-7.26
25.875,1.66
25.890,9.74
25.906,16.69
25.921,22.31
25.937,26.55
25.953,29.49
25.968,31.28
25.984,32.08
26.000,32.07
26.015,31.47
26.031,30.58
26.046,29.77
26.062,29.27
26.078,29.12
26.093,29.14
26.109,29.08
26.125,28.8
26.140,28.34
26.156,27.87
26.171,27.51
26.187,27.14
26.203,26.48
26.218,25.17
26.234,23.0
26.250,20.04
26.265,16.59
26.281,13.03
26.296,9.66
26.312,6.57
26.328,3.64
26.343,0.68
26.359,-2.5
26.375,-5.98
26.390,-9.72
26.406,-13.53
26.421,-17.23
26.437,-20.71
26.453,-24.02
26.468,-27.35
26.484,-30.93
26.500,-34.97
26.515,-39.47
26.531,-44.25
26.546,-48.84
26.562,-52.62
26.578,-54.85
26.593,-54.85
26.609,-52.16
26.625,-46.63
26.640,-38.62
26.656,-28.83
26.671,-18.25
26.687,-7.83
26.703,1.67
26.718,9.81
26.734,16.37
26.750,21.33
26.765,24.73
26.781,26.71
26.796,27.52
26.812,27.42
26.828,26.71
26.843,25.67
26.859,24.45
26.875,23.24
26.890,22.19
26.906,21.5
26.921,21.24
26.937,21.42
26.953,21.76
26.968,21.9
26.984,21.48
27.000,20.33
27.015,18.5
27.031,16.25
27.046,13.86
27.062,11.51
27.078,9.26
27.093,7.04
27.109,4.73
27.125,2.24
27.140,-0.51
27.156,-3.5
27.171,-6.74
27.187,-10.16
27.203,-13.74
27.218,-17.37
27.234,-21.03
27.250,-24.7
27.265,-28.51
27.281,-32.62
27.296,-37.23
27.312,-42.43
27.328,-48.11
27.343,-53.81
27.359,-58.75
27.375,-62.0
27.390,-62.62
27.406,-59.93
27.421,-53.8
27.437,-44.68
27.453,-33.52
27.468,-21.57
27.484,-10.03
27.500,0.24
27.515,8.78
27.531,15.61
27.546,20.98
27.562,25.13
27.578,28.18
27.593,30.18
27.609,31.14
27.625,31.2
27.640,30.69
27.656,30.03
27.671,29.59
27.687,29.54
27.703,29.75
27.718,29.95
27.734,29.86
27.750,29.34
27.765,28.42
27.781,27.23
27.796,25.82
27.812,24.13
27.828,22.02
27.843,19.35
27.859,16.18
27.875,12.78
27.890,9.44
27.906,6.4
27.921,3.63
27.937,0.87
27.953,-2.19
27.968,-5.8
27.984,-9.95
28.000,-14.38
28.015,-18.7
28.031,-22.61
28.046,-25.99
28.062,-28.92
28.078,-31.68
28.093,-34.6
28.109,-37.98
28.125,-41.97
28.140,-46.53
28.156,-51.45
28.171,-56.29
28.187,-60.44
28.203,-63.06
28.218,-63.34
28.234,-60.59
28.250,-54.62
28.265,-45.83
28.281,-35.14
28.296,-23.76
28.312,-12.8
28.328,-2.98
28.343,5.42
28.359,12.42
28.375,18.19
28.390,22.89
28.406,26.53
28.421,29.16
28.437,30.83
28.453,31.68
28.468,31.93
28.484,31.84
28.500,31.62
28.515,31.43
28.531,31.4
28.546,31.49
28.562,31.62
28.578,31.71
28.593,31.7
28.609,31.59
28.625,31.39
28.640,31.07
28.656,30.46
28.671,29.4
28.687,27.65
28.703,25.19
28.718,22.14
28.734,18.7
28.750,15.14
28.765,11.62
28.781,8.25
28.796,4.99
28.812,1.8
28.828,-1.45
28.843,-4.86
28.859,-8.56
28.875,-12.57
28.890,-16.78
28.906,-21.04
28.921,-25.22
28.937,-29.3
28.953,-33.44
28.968,-37.9
28.984,-42.91
29.000,-48.56
29.015,-54.67
29.031,-60.73
29.046,-65.98
29.062,-69.53
29.078,-70.45
29.093,-68.1
29.109,-62.35
29.125,-53.58
29.140,-42.72
29.156,-30.84
29.171,-18.88
29.187,-7.46
29.203,3.11
29.218,12.7
29.234,21.11
29.250,28.02
29.265,33.11
29.281,36.29
29.296,37.77
29.312,38.03
29.328,37.63
29.343,37.0
29.359,36.39
29.375,35.88
29.390,35.47
29.406,35.19
29.421,35.04
29.437,35.04
29.453,35.16
29.468,35.35
29.484,35.56
29.500,35.7
29.515,35.6
29.531,35.0
29.546,33.6
29.562,31.18
29.578,27.82
29.593,23.88
29.609,19.91
29.625,16.39
29.640,13.5
29.656,10.99
29.671,8.34
29.687,5.01
29.703,0.75
29.718,-4.26
29.734,-9.52
29.750,-14.46
29.765,-18.7
29.781,-22.19
29.796,-25.12
29.812,-27.88
29.828,-30.86
29.843,-34.42
29.859,-38.77
29.875,-43.87
29.890,-49.34
29.906,-54.41
29.921,-58.02
29.937,-59.08
29.953,-56.8
29.968,-51.04
29.984,-42.36
30.000,-31.79
30.015,-20.52
30.031,-9.59
30.046,0.4
30.062,9.12
30.078,16.52
30.093,22.64
30.109,27.49
30.125,31.11
30.140,33.55
30.156,34.98
30.171,35.61
30.187,35.76
30.203,35.65
30.218,35.45
30.234,35.26
30.250,35.11
30.265,35.01
30.281,35.01
30.296,35.08
30.312,35.19
30.328,35.2
30.343,34.9
30.359,34.06
30.375,32.57
30.390,30.41
30.406,27.72
30.421,24.73
30.437,21.58
30.453,18.36
30.468,15.09
30.484,11.79
30.500,8.53
30.515,5.38
30.531,2.3
30.546,-0.83
30.562,-4.17
30.578,-7.83
30.593,-11.73
30.609,-15.59
30.625,-19.12
30.640,-22.2
30.656,-25.05
30.671,-28.17
30.687,-32.12
30.703,-37.21
30.718,-43.27
30.734,-49.51
30.750,-54.74
30.765,-57.69
30.781,-57.31
30.796,-53.12
30.812,-45.33
30.828,-34.86
30.843,-23.0
30.859,-11.18
30.875,-0.44
30.890,8.66
30.906,16.02
30.921,21.87
30.937,26.51
30.953,30.13
30.968,32.79
30.984,34.53
31.000,35.42
31.015,35.66
31.031,35.44
31.046,34.95
31.062,34.27
31.078,33.46
31.093,32.49
31.109,31.44
31.125,30.36
31.140,29.38
31.156,28.54
31.171,27.81
31.187,26.95
31.203,25.69
31.218,23.75
31.234,20.99
31.250,17.58
31.265,13.89
31.281,10.29
31.296,7.05
31.312,4.16
31.328,1.41
31.343,-1.5
31.359,-4.8
31.375,-8.54
31.390,-12.61
31.406,-16.8
31.421,-20.86
31.437,-24.57
31.453,-27.82
31.468,-30.64
31.484,-33.24
31.500,-35.94
31.515,-39.08
31.531,-42.81
31.546,-47.0
31.562,-51.14
31.578,-54.34
31.593,-55.59
31.609,-53.92
31.625,-48.72
31.640,-39.94
31.656,-28.23
31.671,-14.76
31.687,-0.89
31.703,12.11
31.718,23.44
31.734,32.74
31.750,40.0
31.765,45.42
31.781,49.18
31.796,51.41
31.812,52.19
31.828,51.69
31.843,50.22
31.859,48.18
31.875,46.0
31.890,44.01
31.906,42.37
31.921,41.03
31.937,39.82
31.953,38.48
31.968,36.86
31.984,34.96
32.000,32.82
32.015,30.51
32.031,27.94
32.046,24.91
32.062,21.17
32.078,16.57
32.093,11.17
32.109,5.32
32.125,-0.57
32.140,-6.11
32.156,-11.12
32.171,-15.75
32.187,-20.29
32.203,-25.08
32.218,-30.3
32.234,-35.88
32.250,-41.52
32.265,-46.85
32.281,-51.59
32.296,-55.61
32.312,-59.1
32.328,-62.34
32.343,-65.7
32.359,-69.5
32.375,-73.84
32.390,-78.55
32.406,-83.02
32.421,-86.27
32.437,-87.08
32.453,-84.41
32.468,-77.72
32.484,-67.26
32.500,-54.03
32.515,-39.45
32.531,-24.93
32.546,-11.48
32.562,0.42
32.578,10.71
32.593,19.53
32.609,26.98
32.625,33.06
32.640,37.67
32.656,40.83
32.671,42.61
32.687,43.27
32.703,43.11
32.718,42.45
32.734,41.48
32.750,40.22
32.765,38.63
32.781,36.71
32.796,34.61
32.812,32.61
32.828,31.0
32.843,29.86
32.859,29.07
32.875,28.22
32.890,26.84
32.906,24.68
32.921,21.74
32.937,18.4
32.953,15.11
32.968,12.24
32.984,9.88
33.000,7.85
33.015,5.78
33.031,3.28
33.046,0.19
33.062,-3.46
33.078,-7.41
33.093,-11.32
33.109,-14.97
33.125,-18.23
33.140,-21.15
33.156,-23.87
33.171,-26.64
33.187,-29.67
33.203,-33.2
33.218,-37.36
33.234,-41.98
33.250,-46.56
33.265,-50.23
33.281,-51.95
33.296,-50.82
33.312,-46.51
33.328,-39.3
33.343,-30.07
33.359,-19.91
33.375,-9.77
33.390,-0.3
33.406,8.19
33.421,15.52
33.437,21.57
33.453,26.17
33.468,29.22
33.484,30.8
33.500,31.23
33.515,30.97
33.531,30.49
33.546,30.18
33.562,30.27
33.578,30.84
33.593,31.89
33.609,33.27
33.625,34.78
33.640,36.17
33.656,37.26
33.671,37.92
33.687,38.16
33.703,38.03
33.718,37.55
33.734,36.67
33.750,35.3
33.765,33.37
33.781,30.84
33.796,27.85
33.812,24.54
33.828,21.08
33.843,17.54
33.859,13.93
33.875,10.24
33.890,6.51
33.906,2.78
33.921,-0.94
33.937,-4.67
33.953,-8.58
33.968,-12.93
33.984,-17.96
34.000,-23.84
34.015,-30.4
34.031,-37.12
34.046,-42.99
34.062,-46.81
34.078,-47.46
34.093,-44.29
34.109,-37.37
34.125,-27.54
34.140,-16.09
34.156,-4.32
34.171,6.77
34.187,16.68
34.203,25.25
34.218,32.5
34.234,38.35
34.250,42.73
34.265,45.58
34.281,46.96
34.296,47.14
34.312,46.5
34.328,45.37
34.343,44.01
34.359,42.49
34.375,40.75
34.390,38.74
34.406,36.41
34.421,33.78
34.437,30.96
34.453,28.09
34.468,25.28
34.484,22.5
34.500,19.61
34.515,16.35
34.531,12.46
34.546,7.89
34.562,2.77
34.578,-2.52
34.593,-7.68
34.609,-12.52
34.625,-17.08
34.640,-21.54
34.656,-26.06
34.671,-30.72
34.687,-35.39
34.703,-39.96
34.718,-44.32
34.734,-48.44
34.750,-52.35
34.765,-56.08
34.781,-59.64
34.796,-63.13
34.812,-66.79
34.828,-70.88
34.843,-75.53
34.859,-80.45
34.875,-84.84
34.890,-87.42
34.906,-86.91
34.921,-82.46
34.937,-73.98
34.953,-62.22
34.968,-48.46
34.984,-34.13
35.000,-20.38
35.015,-7.92
35.031,2.92
35.046,12.12
35.062,19.72
35.078,25.8
35.093,30.43
35.109,33.74
35.125,35.85
35.140,37.06
35.156,37.68
35.171,38.02
35.187,38.28
35.203,38.55
35.218,38.78
35.234,38.86
35.250,38.77
35.265,38.52
35.281,38.21
35.296,37.9
35.312,37.49
35.328,36.69
35.343,35.19
35.359,32.74
35.375,29.36
35.390,25.32
35.406,21.06
35.421,16.96
35.437,13.34
35.453,10.21
35.468,7.44
35.484,4.8
35.500,1.98
35.515,-1.25
35.531,-5.1
35.546,-9.59
35.562,-14.56
35.578,-19.64
35.593,-24.5
35.609,-28.85
35.625,-32.71
35.640,-36.32
35.656,-40.1
35.671,-44.46
35.687,-49.61
35.703,-55.42
35.718,-61.38
35.734,-66.67
35.750,-70.23
35.765,-71.03
35.781,-68.36
35.796,-61.99
35.812,-52.42
35.828,-40.72
35.843,-28.21
35.859,-16.13
35.875,-5.28
35.890,4.06
35.906,12.04
35.921,18.94
35.937,25.05
35.953,30.49
35.968,35.23
35.984,39.17
36.000,42.14
36.015,44.08
36.031,44.88
36.046,44.63
36.062,43.52
36.078,41.92
36.093,40.26
36.109,38.87
36.125,37.89
36.140,37.25
36.156,36.75
36.171,36.15
36.187,35.28
36.203,34.01
36.218,32.3
36.234,30.12
36.250,27.46
36.265,24.42
36.281,21.16
36.296,17.96
36.312,14.96
36.328,12.15
36.343,9.37
36.359,6.34
36.375,2.94
36.390,-0.84
36.406,-4.74
36.421,-8.5
36.437,-11.92
36.453,-14.99
36.468,-17.91
36.484,-21.0
36.500,-24.57
36.515,-28.84
36.531,-33.87
36.546,-39.4
36.562,-44.84
36.578,-49.26
36.593,-51.61
36.609,-50.99
36.625,-46.98
36.640,-39.82
36.656,-30.34
36.671,-19.7
36.687,-9.0
36.703,0.94
36.718,9.76
36.734,17.41
36.750,23.92
36.765,29.29
36.781,33.41
36.796,36.23
36.812,37.78
36.828,38.36
36.843,38.33
36.859,38.02
36.875,37.64
36.890,37.14
36.906,36.46
36.921,35.52
36.937,34.46
36.953,33.43
36.968,32.59
36.984,31.89
37.000,31.16
37.015,30.15
37.031,28.6
37.046,26.44
37.062,23.67
37.078,20.42
37.093,16.87
37.109,13.2
37.125,9.61
37.140,6.2
37.156,3.02
37.171,-0.05
37.187,-3.17
37.203,-6.54
37.218,-10.25
37.234,-14.21
37.250,-18.24
37.265,-22.12
37.281,-25.76
37.296,-29.28
37.312,-32.99
37.328,-37.31
37.343,-42.55
37.359,-48.62
37.375,-54.9
37.390,-60.22
37.406,-63.22
37.421,-62.79
37.437,-58.48
37.453,-50.68
37.468,-40.5
37.484,-29.31
37.500,-18.27
37.515,-8.08
37.531,1.09
37.546,9.4
37.562,17.05
37.578,24.04
37.593,30.13
37.609,34.99
37.625,38.31
37.640,40.08
37.656,40.57
37.671,40.24
37.687,39.59
37.703,39.01
37.718,38.62
37.734,38.4
37.750,38.19
37.765,37.83
37.781,37.24
37.796,36.38
37.812,35.3
37.828,33.97
37.843,32.35
37.859,30.33
37.875,27.82
37.890,24.82
37.906,21.45
37.921,17.92
37.937,14.41
37.953,11.04
37.968,7.78
37.984,4.46
38.000,0.84
38.015,-3.22
38.031,-7.72
38.046,-12.51
38.062,-17.4
38.078,-22.2
38.093,-26.86
38.109,-31.43
38.125,-36.08
38.140,-40.98
38.156,-46.31
38.171,-52.07
38.187,-58.07
38.203,-63.76
38.218,-68.27
38.234,-70.54
38.250,-69.59
38.265,-64.9
38.281,-56.64
38.296,-45.7
38.312,-33.45
38.328,-21.31
38.343,-10.4
38.359,-1.28
38.375,5.93
38.390,11.43
38.406,15.47
38.421,18.34
38.437,20.35
38.453,21.84
38.468,23.21
38.484,24.73
38.500,26.44
38.515,28.11
38.531,29.38
38.546,29.98
38.562,29.92
38.578,29.46
38.593,28.92
38.609,28.49
38.625,28.09
38.640,27.36
38.656,25.99
38.671,23.82
38.687,21.01
38.703,17.94
38.718,15.0
38.734,12.28
38.750,9.6
38.765,6.54
38.781,2.68
38.796,-2.18
38.812,-7.92
38.828,-14.14
38.843,-20.29
38.859,-25.91
38.875,-30.79
38.890,-34.96
38.906,-38.77
38.921,-42.72
38.937,-47.4
38.953,-53.34
38.968,-60.94
38.984,-70.18
39.000,-80.7
39.015,-91.64
39.031,-101.88
39.046,-110.32
39.062,-116.23
39.078,-119.5
39.093,-120.6
39.109,-120.44
39.125,-119.94
39.140,-119.67
39.156,-119.68
39.171,-119.47
39.187,-118.36
39.203,-115.88
39.218,-112.07
39.234,-107.46
39.250,-103.0
39.265,-99.49
39.281,-97.2
39.296,-95.64
39.312,-93.57
39.328,-89.44
39.343,-81.94
39.359,-70.44
39.375,-55.13
39.390,-36.9
39.406,-17.06
39.421,3.08
39.437,22.23
39.453,39.3
39.468,53.39
39.484,63.97
39.500,71.03
39.515,75.24
39.531,77.79
39.546,80.02
39.562,82.94
39.578,86.8
39.593,91.09
39.609,94.74
39.625,96.49
39.640,95.43
39.656,91.28
39.671,84.48
39.687,76.01
39.703,67.09
39.718,58.62
39.734,50.97
39.750,43.91
39.765,36.83
39.781,29.33
39.796,21.63
39.812,14.63
39.828,9.57
39.843,7.51
39.859,8.75
39.875,12.78
39.890,18.59
39.906,25.09
39.921,31.47
39.937,37.31
39.953,42.4
39.968,46.5
39.984,49.27
40.000,50.36
40.015,49.63
40.031,47.32
40.046,44.12
40.062,40.86
40.078,38.31
40.093,36.86
40.109,36.51
40.125,36.9
40.140,37.62
40.156,38.44
40.171,39.41
40.187,40.82
40.203,42.94
40.218,45.79
40.234,49.07
40.250,52.19
40.265,54.54
40.281,55.6
40.296,55.2
40.312,53.43
40.328,50.57
40.343,46.98
40.359,43.03
40.375,39.05
40.390,35.23
40.406,31.66
40.421,28.27
40.437,24.91
40.453,21.34
40.468,17.42
40.484,13.14
40.500,8.73
40.515,4.63
40.531,1.41
40.546,-0.34
40.562,-0.09
40.578,2.57
40.593,7.84
40.609,15.74
40.625,26.07
40.640,38.3
40.656,51.71
40.671,65.5
40.687,78.97
40.703,91.7
40.718,103.49
40.734,114.25
40.750,123.8
40.765,131.72
40.781,137.42
40.796,140.36
40.812,140.21
40.828,136.94
40.843,130.66
40.859,121.52
40.875,109.84
40.890,96.17
40.906,81.47
40.921,67.0
40.937,53.88
40.953,42.53
40.968,32.38
40.984,22.2
41.000,10.87
41.015,-1.74
41.031,-14.46
41.046,-25.23
41.062,-31.93
41.078,-33.39
41.093,-29.8
41.109,-22.59
41.125,-13.71
41.140,-4.82
41.156,3.3
41.171,10.81
41.187,18.69
41.203,28.12
41.218,39.78
41.234,53.18
41.250,66.18
41.265,75.2
41.281,76.06
41.296,65.46
41.312,42.49
41.328,9.3
41.343,-29.4
41.359,-67.82
41.375,-100.83
41.390,-125.18
41.406,-139.75
41.421,-144.94
41.437,-141.79
41.453,-131.33
41.468,-114.61
41.484,-93.05
41.500,-68.96
41.515,-45.59
41.531,-26.81
41.546,-16.32
41.562,-16.79
41.578,-29.22
41.593,-52.43
41.609,-83.2
41.625,-116.65
41.640,-147.3
41.656,-170.32
41.671,-182.79
41.687,-184.05
41.703,-175.65
41.718,-160.39
41.734,-141.36
41.750,-121.31
41.765,-102.23
41.781,-85.49
41.796,-71.94
41.812,-62.09
41.828,-56.0
41.843,-53.42
41.859,-53.69
41.875,-55.88
41.890,-58.94
41.906,-62.02
41.921,-64.7
41.937,-67.1
41.953,-69.77
41.968,-73.45
41.984,-78.58
42.000,-84.86
42.015,-90.98
42.031,-94.87
42.046,-94.52
42.062,-88.96
42.078,-78.78
42.093,-65.87
42.109,-52.58
42.125,-40.77
42.140,-31.24
42.156,-23.79
42.171,-17.59
42.187,-11.56
42.203,-4.72
42.218,3.69
42.234,13.94
42.250,25.58
42.265,37.37
42.281,47.7
42.296,55.22
42.312,59.48
42.328,61.13
42.343,61.54
42.359,62.08
42.375,63.52
42.390,66.03
42.406,69.47
42.421,73.58
42.437,77.95
42.453,81.69
42.468,83.43
42.484,81.86
42.500,76.72
42.515,69.06
42.531,60.96
42.546,54.46
42.562,50.49
42.578,48.53
42.593,47.11
42.609,44.74
42.625,40.56
42.640,34.52
42.656,27.01
42.671,18.4
42.687,8.96
42.703,-1.06
42.718,-11.19
42.734,-20.85
42.750,-29.47
42.765,-36.71
42.781,-42.35
42.796,-46.13
42.812,-47.53
42.828,-45.94
42.843,-41.09
42.859,-33.25
42.875,-23.33
42.890,-12.5
42.906,-1.8
42.921,8.12
42.937,17.09
42.953,25.23
42.968,32.77
42.984,39.73
43.000,46.01
43.015,51.36
43.031,55.53
43.046,58.2
43.062,58.98
43.078,57.42
43.093,53.29
43.109,46.84
43.125,38.97
43.140,31.14
43.156,24.98
43.171,21.84
43.187,22.31
43.203,26.0
43.218,31.78
43.234,38.1
43.250,43.58
43.265,47.2
43.281,48.52
43.296,47.6
43.312,44.66
43.328,40.01
43.343,33.81
43.359,26.06
43.375,16.65
43.390,5.6
43.406,-6.79
43.421,-19.96
43.437,-32.99
43.453,-45.04
43.468,-55.37
43.484,-63.54
43.500,-69.38
43.515,-72.84
43.531,-73.96
43.546,-72.74
43.562,-69.36
43.578,-64.13
43.593,-57.63
43.609,-50.5
43.625,-43.35
43.640,-36.64
43.656,-30.68
43.671,-25.6
43.687,-21.39
43.703,-18.07
43.718,-15.57
43.734,-13.88
43.750,-12.88
43.765,-12.48
43.781,-12.59
43.796,-13.03
43.812,-13.59
43.828,-14.0
43.843,-13.99
43.859,-13.37
43.875,-12.13
43.890,-10.39
43.906,-8.43
43.921,-6.59
43.937,-5.1
43.953,-4.09
43.968,-3.6
43.984,-3.59
44.000,-3.88
44.015,-4.24
44.031,-4.39
44.046,-4.15
44.062,-3.59
44.078,-3.0
44.093,-2.76
44.109,-3.22
44.125,-4.3
44.140,-5.5
44.156,-5.93
44.171,-4.67
44.187,-1.02
44.203,5.32
44.218,14.18
44.234,24.99
44.250,36.89
44.265,48.9
44.281,59.99
44.296,69.24
44.312,75.95
44.328,79.77
44.343,80.72
44.359,79.16
44.375,75.61
44.390,70.61
44.406,64.62
44.421,57.98
44.437,50.9
44.453,43.64
44.468,36.47
44.484,29.7
44.500,23.56
44.515,18.19
44.531,13.54
44.546,9.42
44.562,5.52
44.578,1.54
44.593,-2.7
44.609,-7.22
44.625,-11.85
44.640,-16.34
44.656,-20.43
44.671,-23.89
44.687,-26.7
44.703,-29.02
44.718,-31.14
44.734,-33.38
44.750,-36.03
44.765,-39.15
44.781,-42.56
44.796,-45.75
44.812,-48.0
44.828,-48.58
44.843,-47.01
44.859,-43.25
44.875,-37.69
44.890,-30.96
44.906,-23.68
44.921,-16.24
44.937,-8.84
44.953,-1.61
44.968,5.26
44.984,11.43
45.000,16.42
45.015,19.88
45.031,21.61
45.046,21.56
45.062,19.88
45.078,16.71
45.093,12.23
45.109,6.67
45.125,0.31
45.140,-6.57
45.156,-13.71
45.171,-20.95
45.187,-28.18
45.203,-35.39
45.218,-42.63
45.234,-49.92
45.250,-57.28
45.265,-64.53
45.281,-71.3
45.296,-76.98
45.312,-81.01
45.328,-82.91
45.343,-82.5
45.359,-79.88
45.375,-75.43
45.390,-69.62
45.406,-62.87
45.421,-55.36
45.437,-46.98
45.453,-37.46
45.468,-26.45
45.484,-13.75
45.500,0.51
45.515,15.81
45.531,31.34
45.546,46.26
45.562,59.89
45.578,71.9
45.593,82.22
45.609,90.86
45.625,97.82
45.640,103.04
45.656,106.46
45.671,108.14
45.687,108.23
45.703,106.88
45.718,104.22
45.734,100.31
45.750,95.2
45.765,89.06
45.781,82.26
45.796,75.25
45.812,68.51
45.828,62.3
45.843,56.64
45.859,51.33
45.875,46.11
45.890,40.78
45.906,35.29
45.921,29.75
45.937,24.4
45.953,19.44
45.968,14.98
45.984,10.96
46.000,7.16
46.015,3.3
46.031,-0.91
46.046,-5.57
46.062,-10.53
46.078,-15.28
46.093,-19.06
46.109,-21.02
46.125,-20.54
46.140,-17.41
46.156,-12.05
46.171,-5.44
46.187,1.04
46.203,5.93
46.218,8.17
46.234,7.39
46.250,3.91
46.265,-1.38
46.281,-7.34
46.296,-12.91
46.312,-17.23
46.328,-19.83
46.343,-20.57
46.359,-19.71
46.375,-17.81
46.390,-15.6
46.406,-13.76
46.421,-12.67
46.437,-12.16
46.453,-11.57
46.468,-9.99
46.484,-6.6
46.500,-1.06
46.515,6.23
46.531,14.12
46.546,20.95
46.562,24.82
46.578,24.1
46.593,17.98
46.609,6.72
46.625,-8.22
46.640,-24.67
46.656,-40.47
46.671,-54.03
46.687,-64.7
46.703,-72.54
46.718,-77.96
46.734,-81.18
46.750,-82.24
46.765,-81.07
46.781,-77.82
46.796,-73.12
46.812,-67.86
46.828,-62.89
46.843,-58.59
46.859,-54.66
46.875,-50.42
46.890,-45.17
46.906,-38.6
46.921,-30.91
46.937,-22.71
46.953,-14.54
46.968,-6.5
46.984,1.87
47.000,11.36
47.015,22.56
47.031,35.39
47.046,48.97
47.062,61.96
47.078,73.05
47.093,81.57
47.109,87.71
47.125,92.44
47.140,97.02
47.156,102.42
47.171,108.84
47.187,115.61
47.203,121.33
47.218,124.17
47.234,122.38
47.250,114.79
47.265,101.27
47.281,83.08
47.296,62.71
47.312,43.19
47.328,27.18
47.343,16.11
47.359,9.86
47.375,7.2
47.390,6.69
47.406,7.41
47.421,9.29
47.437,12.65
47.453,17.52
47.468,23.08
47.484,27.86
47.500,30.44
47.515,30.17
47.531,27.5
47.546,23.52
47.562,19.32
47.578,15.41
47.593,11.68
47.609,7.71
47.625,3.25
47.640,-1.46
47.656,-5.83
47.671,-9.18
47.687,-11.01
47.703,-11.16
47.718,-9.69
47.734,-6.86
47.750,-3.03
47.765,1.29
47.781,5.43
47.796,8.71
47.812,10.58
47.828,10.67
47.843,8.93
47.859,5.47
47.875,0.35
47.890,-6.42
47.906,-14.8
47.921,-24.45
47.937,-34.57
47.953,-43.86
47.968,-50.82
47.984,-54.24
48.000,-53.53
48.015,-48.96
48.031,-41.42
48.046,-32.09
48.062,-21.9
48.078,-11.46
48.093,-1.05
48.109,9.18
48.125,18.87
48.140,27.4
48.156,33.98
48.171,37.92
48.187,38.84
48.203,36.81
48.218,32.29
48.234,25.94
48.250,18.51
48.265,10.72
48.281,3.23
48.296,-3.39
48.312,-8.71
48.328,-12.32
48.343,-14.02
48.359,-13.71
48.375,-11.46
48.390,-7.36
48.406,-1.51
48.421,5.99
48.437,14.98
48.453,25.15
48.468,35.93
48.484,46.52
48.500,55.91
48.515,63.04
48.531,66.95
48.546,66.96
48.562,62.92
48.578,55.27
48.593,44.91
48.609,33.03
48.625,20.8
48.640,9.16
48.656,-1.38
48.671,-10.71
48.687,-18.98
48.703,-26.46
48.718,-33.32
48.734,-39.68
48.750,-45.61
48.765,-51.13
48.781,-56.3
48.796,-61.26
48.812,-66.18
48.828,-71.29
48.843,-76.89
48.859,-83.35
48.875,-91.05
48.890,-100.23
48.906,-110.79
48.921,-122.15
48.937,-133.35
48.953,-143.09
48.968,-150.27
48.984,-154.2
49.000,-154.81
49.015,-152.57
49.031,-148.25
49.046,-142.74
49.062,-136.97
49.078,-131.89
49.093,-128.34
49.109,-126.96
49.125,-127.82
49.140,-130.35
49.156,-133.29
49.171,-135.16
49.187,-134.75
49.203,-131.49
49.218,-125.66
49.234,-118.12
49.250,-109.92
49.265,-101.91
49.281,-94.57
49.296,-87.9
49.312,-81.58
49.328,-75.03
49.343,-67.61
49.359,-58.9
49.375,-48.74
49.390,-37.45
49.406,-25.72
49.421,-14.49
49.437,-4.71
49.453,2.87
49.468,7.7
49.484,9.59
49.500,8.58
49.515,5.04
49.531,-0.33
49.546,-6.66
49.562,-13.15
49.578,-19.43
49.593,-25.66
49.609,-32.56
49.625,-41.02
49.640,-51.71
49.656,-64.89
49.671,-80.41
49.687,-97.81
49.703,-116.17
49.718,-134.1
49.734,-149.66
49.750,-160.61
49.765,-165.01
49.781,-161.89
49.796,-151.76
49.812,-136.45
49.828,-118.44
49.843,-99.86
49.859,-81.84
49.875,-64.52
49.890,-47.54
49.906,-30.68
49.921,-14.27
49.937,1.03
49.953,14.69
49.968,26.72
49.984,37.77
50.000,48.83
50.015,60.77
50.031,73.95
50.046,88.1
50.062,102.34
50.078,115.49
50.093,126.31
50.109,133.8
50.125,137.35
50.140,136.84
50.156,132.68
50.171,125.83
50.187,117.6
50.203,109.46
50.218,102.62
50.234,97.67
50.250,94.47
50.265,92.23
50.281,89.92
50.296,86.75
50.312,82.68
50.328,78.62
50.343,76.15
50.359,77.02
50.375,82.37
50.390,92.41
50.406,106.35
50.421,122.81
50.437,140.22
50.453,157.04
50.468,171.82
50.484,183.16
50.500,189.91
50.515,191.46
50.531,188.15
50.546,181.24
50.562,172.6
50.578,164.04
50.593,156.54
50.609,150.01
50.625,143.51
50.640,135.93
50.656,126.6
50.671,115.68
50.687,103.98
50.703,92.51
50.718,82.09
50.734,73.08
50.750,65.5
50.765,59.19
50.781,53.97
50.796,49.61
50.812,45.78
50.828,41.79
50.843,36.67
50.859,29.47
50.875,19.6
50.890,7.16
50.906,-6.96
50.921,-21.33
50.937,-34.58
50.953,-45.82
50.968,-54.96
50.984,-62.49
51.000,-69.02
51.015,-74.91
51.031,-79.94
51.046,-83.55
51.062,-85.26
51.078,-85.02
51.093,-83.35
51.109,-81.1
51.125,-78.84
51.140,-76.6
51.156,-73.72
51.171,-69.24
51.187,-62.47
51.203,-53.58
51.218,-43.56
51.234,-33.98
51.250,-26.28
51.265,-21.33
51.281,-19.37
51.296,-20.3
51.312,-24.1
51.328,-30.98
51.343,-41.36
51.359,-55.3
51.375,-72.05
51.390,-89.96
51.406,-106.76
51.421,-120.15
51.437,-128.42
51.453,-130.63
51.468,-126.55
51.484,-116.29
51.500,-100.05
51.515,-78.18
51.531,-51.39
51.546,-21.13
51.562,10.4
51.578,40.49
51.593,66.43
51.609,86.15
51.625,98.69
51.640,104.39
51.656,104.44
51.671,100.46
51.687,93.96
51.703,86.1
51.718,77.66
51.734,69.15
51.750,61.03
51.765,53.7
51.781,47.55
51.796,42.75
51.812,39.24
51.828,36.79
51.843,35.04
51.859,33.6
51.875,32.02
51.890,29.83
51.906,26.47
51.921,21.47
51.937,14.58
51.953,5.92
51.968,-3.89
51.984,-13.82
52.000,-22.62
52.015,-29.15
52.031,-32.61
52.046,-32.83
52.062,-30.21
52.078,-25.52
52.093,-19.69
52.109,-13.51
52.125,-7.6
52.140,-2.31
52.156,2.06
52.171,5.24
52.187,7.03
52.203,7.38
52.218,6.55
52.234,5.01
52.250,3.47
52.265,2.5
52.281,2.41
52.296,3.21
52.312,4.58
52.328,6.11
52.343,7.47
52.359,8.5
52.375,9.27
52.390,9.97
52.406,10.77
52.421,11.66
52.437,12.43
52.453,12.71
52.468,12.15
52.484,10.52
52.500,7.83
52.515,4.39
52.531,0.81
52.546,-2.08
52.562,-3.44
52.578,-2.48
52.593,1.29
52.609,7.99
52.625,17.37
52.640,28.83
52.656,41.5
52.671,54.35
52.687,66.29
52.703,76.24
52.718,83.22
52.734,86.51
52.750,85.8
52.765,81.31
52.781,73.8
52.796,64.38
52.812,54.26
52.828,44.43
52.843,35.47
52.859,27.47
52.875,20.16
52.890,13.08
52.906,5.94
52.921,-1.31
52.937,-8.4
52.953,-15.01
52.968,-20.94
52.984,-26.27
53.000,-31.28
53.015,-36.36
53.031,-41.7
53.046,-47.24
53.062,-52.64
53.078,-57.31
53.093,-60.63
53.109,-62.05
53.125,-61.24
53.140,-58.05
53.156,-52.6
53.171,-45.24
53.187,-36.56
53.203,-27.19
53.218,-17.64
53.234,-8.22
53.250,0.95
53.265,9.73
53.281,17.94
53.296,25.27
53.312,31.51
53.328,36.6
53.343,40.72
53.359,44.14
53.375,47.11
53.390,49.63
53.406,51.45
53.421,52.21
53.437,51.67
53.453,49.76
53.468,46.55
53.484,42.19
53.500,36.82
53.515,30.55
53.531,23.58
53.546,16.22
53.562,8.76
53.578,1.49
53.593,-5.59
53.609,-12.6
53.625,-19.75
53.640,-27.1
53.656,-34.36
53.671,-40.91
53.687,-45.95
53.703,-48.82
53.718,-49.23
53.734,-47.24
53.750,-43.19
53.765,-37.42
53.781,-30.13
53.796,-21.46
53.812,-11.72
53.828,-1.59
53.843,7.92
53.859,15.65
53.875,20.76
53.890,23.01
53.906,22.87
53.921,21.17
53.937,18.9
53.953,16.73
53.968,14.88
53.984,13.16
54.000,11.22
54.015,8.61
54.031,5.06
54.046,0.55
54.062,-4.74
54.078,-10.33
54.093,-15.67
54.109,-20.29
54.125,-23.9
54.140,-26.49
54.156,-28.37
54.171,-30.01
54.187,-31.86
54.203,-34.35
54.218,-37.75
54.234,-42.05
54.250,-46.94
54.265,-51.82
54.281,-55.82
54.296,-57.94
54.312,-57.33
54.328,-53.51
54.343,-46.55
54.359,-37.0
54.375,-25.76
54.390,-13.8
54.406,-1.9
54.421,9.33
54.437,19.56
54.453,28.59
54.468,36.28
54.484,42.45
54.500,46.98
54.515,49.85
54.531,51.22
54.546,51.43
54.562,50.91
54.578,50.05
54.593,49.11
54.609,48.16
54.625,47.08
54.640,45.76
54.656,44.2
54.671,42.55
54.687,41.12
54.703,40.13
54.718,39.59
54.734,39.24
54.750,38.58
54.765,37.06
54.781,34.27
54.796,30.07
54.812,24.53
54.828,17.92
54.843,10.51
54.859,2.45
54.875,-6.18
54.890,-15.28
54.906,-24.59
54.921,-33.59
54.937,-41.53
54.953,-47.56
54.968,-50.94
54.984,-51.22
55.000,-48.32
55.015,-42.54
55.031,-34.52
55.046,-25.03
55.062,-14.96
55.078,-5.12
55.093,3.81
55.109,11.33
55.125,17.18
55.140,21.25
55.156,23.64
55.171,24.45
55.187,23.9
55.203,22.2
55.218,19.6
55.234,16.42
55.250,12.97
55.265,9.61
55.281,6.67
55.296,4.46
55.312,3.27
55.328,3.33
55.343,4.76
55.359,7.44
55.375,10.93
55.390,14.46
55.406,17.09
55.421,17.96
55.437,16.53
55.453,12.8
55.468,7.25
55.484,0.58
55.500,-6.47
55.515,-13.36
55.531,-19.92
55.546,-26.14
55.562,-32.16
55.578,-38.15
55.593,-44.19
55.609,-50.2
55.625,-55.97
55.640,-60.98
55.656,-64.42
55.671,-65.51
55.687,-63.51
55.703,-58.19
55.718,-49.88
55.734,-39.4
55.750,-27.83
55.765,-16.21
55.781,-5.37
55.796,4.21
55.812,12.29
55.828,18.79
55.843,23.76
55.859,27.33
55.875,29.73
55.890,31.24
55.906,32.16
55.921,32.73
55.937,33.1
55.953,33.32
55.968,33.38
55.984,33.24
56.000,32.83
56.015,32.13
56.031,31.14
56.046,29.88
56.062,28.36
56.078,26.57
56.093,24.41
56.109,21.71
56.125,18.25
56.140,13.79
56.156,8.2
56.171,1.49
56.187,-6.09
56.203,-14.19
56.218,-22.36
56.234,-30.31
56.250,-37.86
56.265,-44.99
56.281,-51.73
56.296,-57.99
56.312,-63.44
56.328,-67.49
56.343,-69.48
56.359,-68.85
56.375,-65.4
56.390,-59.4
56.406,-51.41
56.421,-42.2
56.437,-32.48
56.453,-22.8
56.468,-13.56
56.484,-5.08
56.500,2.31
56.515,8.25
56.531,12.47
56.546,14.9
56.562,15.77
56.578,15.54
56.593,14.77
56.609,13.88
56.625,13.07
56.640,12.3
56.656,11.42
56.671,10.41
56.687,9.45
56.703,8.93
56.718,9.29
56.734,10.77
56.750,13.22
56.765,16.16
56.781,18.93
56.796,20.95
56.812,21.94
56.828,21.9
56.843,21.08
56.859,19.8
56.875,18.24
56.890,16.45
56.906,14.34
56.921,11.79
56.937,8.71
56.953,5.07
56.968,0.96
56.984,-3.31
57.000,-7.2
57.015,-9.86
57.031,-10.28
57.046,-7.55
57.062,-1.32
57.078,8.01
57.093,19.27
57.109,30.85
57.125,41.26
57.140,49.62
57.156,55.75
57.171,59.98
57.187,62.7
57.203,63.96
57.218,63.42
57.234,60.69
57.250,55.5
57.265,48.13
57.281,39.28
57.296,29.91
57.312,20.88
57.328,12.75
57.343,5.68
57.359,-0.51
57.375,-6.22
57.390,-12.0
57.406,-18.32
57.421,-25.44
57.437,-33.24
57.453,-41.18
57.468,-48.53
57.484,-54.5
57.500,-58.6
57.515,-60.79
57.531,-61.38
57.546,-60.85
57.562,-59.63
57.578,-58.06
57.593,-56.24
57.609,-54.25
57.625,-52.13
57.640,-49.95
57.656,-47.87
57.671,-46.09
57.687,-44.71
57.703,-43.6
57.718,-42.47
57.734,-40.76
57.750,-37.86
57.765,-33.27
57.781,-26.82
57.796,-18.65
57.812,-9.3
57.828,0.56
57.843,10.24
57.859,19.11
57.875,26.84
57.890,33.29
57.906,38.52
57.921,42.78
57.937,46.36
57.953,49.61
57.968,52.79
57.984,56.05
58.000,59.49
58.015,63.02
58.031,66.47
58.046,69.59
58.062,72.12
58.078,73.77
58.093,74.24
58.109,73.16
58.125,70.07
58.140,64.64
58.156,56.78
58.171,46.75
58.187,35.15
58.203,22.71
58.218,10.0
58.234,-2.71
58.250,-15.34
58.265,-27.87
58.281,-40.1
58.296,-51.63
58.312,-62.03
58.328,-70.93
58.343,-78.2
58.359,-83.82
58.375,-87.83
58.390,-90.28
58.406,-91.25
58.421,-90.98
58.437,-89.89
58.453,-88.38
58.468,-86.56
58.484,-84.13
58.500,-80.4
58.515,-74.6
58.531,-66.36
58.546,-55.97
58.562,-44.31
58.578,-32.54
58.593,-21.69
58.609,-12.18
58.625,-3.98
58.640,3.25
58.656,9.81
58.671,15.69
58.687,20.69
58.703,24.57
58.718,27.3
58.734,29.1
58.750,30.31
58.765,31.17
58.781,31.75
58.796,31.9
58.812,31.47
58.828,30.44
58.843,28.98
58.859,27.45
58.875,26.15
58.890,25.25
58.906,24.66
58.921,24.14
58.937,23.44
58.953,22.33
58.968,20.82
58.984,19.08
59.000,17.36
59.015,15.89
59.031,14.71
59.046,13.6
59.062,12.2
59.078,10.07
59.093,6.95
59.109,2.77
59.125,-2.28
59.140,-7.89
59.156,-13.67
59.171,-19.33
59.187,-24.57
59.203,-29.07
59.218,-32.53
59.234,-34.58
59.250,-34.98
59.265,-33.7
59.281,-31.02
59.296,-27.39
59.312,-23.3
59.328,-19.05
59.343,-14.67
59.359,-9.99
59.375,-4.92
59.390,0.41
59.406,5.58
59.421,9.91
59.437,12.8
59.453,13.94
59.468,13.34
59.484,11.34
59.500,8.35
59.515,4.68
59.531,0.44
59.546,-4.41
59.562,-9.9
59.578,-15.83
59.593,-21.73
59.609,-26.81
59.625,-30.21
59.640,-31.25
59.656,-29.69
59.671,-25.88
59.687,-20.7
59.703,-15.25
59.718,-10.55
59.734,-7.25
59.750,-5.47
59.765,-4.97
59.781,-5.36
59.796,-6.31
59.812,-7.66
59.828,-9.43
59.843,-11.7
59.859,-14.48
59.875,-17.74
59.890,-21.28
59.906,-24.73
59.921,-27.53
59.937,-28.93
59.953,-28.12
59.968,-24.48
59.984,-17.92
