timestamp,value
00.000,-49.07
00.015,-54.83
00.031,-58.68
00.046,-59.21
00.062,-55.52
00.078,-47.51
00.093,-35.97
00.109,-22.29
00.125,-8.04
00.140,5.42
00.156,17.1
00.171,26.53
00.187,33.57
00.203,38.28
00.218,40.9
00.234,41.77
00.250,41.32
00.265,40.04
00.281,38.42
00.296,36.8
00.312,35.37
00.328,34.13
00.343,32.95
00.359,31.7
00.375,30.25
00.390,28.56
00.406,26.61
00.421,24.33
00.437,21.58
00.453,18.23
00.468,14.22
00.484,9.65
00.500,4.84
00.515,0.17
00.531,-4.04
00.546,-7.71
00.562,-11.03
00.578,-14.49
00.593,-18.67
00.609,-24.03
00.625,-30.75
00.640,-38.41
00.656,-46.07
00.671,-52.3
00.687,-55.55
00.703,-54.61
00.718,-48.98
00.734,-39.06
00.750,-26.03
00.765,-11.46
00.781,3.14
00.796,16.58
00.812,28.17
00.828,37.58
00.843,44.76
00.859,49.72
00.875,52.7
00.890,54.01
00.906,54.14
00.921,53.59
00.937,52.74
00.953,51.71
00.968,50.4
00.984,48.65
01.000,46.35
01.015,43.55
01.031,40.46
01.046,37.29
01.062,34.15
01.078,30.98
01.093,27.52
01.109,23.52
01.125,18.85
01.140,13.51
01.156,7.68
01.171,1.64
01.187,-4.41
01.203,-10.33
01.218,-16.06
01.234,-21.68
01.250,-27.34
01.265,-33.26
01.281,-39.68
01.296,-46.65
01.312,-53.91
01.328,-60.74
01.343,-66.01
01.359,-68.39
01.375,-66.82
01.390,-60.85
01.406,-50.82
01.421,-37.78
01.437,-23.1
01.453,-8.14
01.468,6.1
01.484,19.04
01.500,30.41
01.515,40.09
01.531,47.98
01.546,53.98
01.562,58.02
01.578,60.18
01.593,60.66
01.609,59.76
01.625,57.81
01.640,55.15
01.656,52.01
01.671,48.61
01.687,45.07
01.703,41.5
01.718,38.03
01.734,34.78
01.750,31.84
01.765,29.17
01.781,26.6
01.796,23.75
01.812,20.2
01.828,15.64
01.843,10.07
01.859,3.81
01.875,-2.61
01.890,-8.68
01.906,-14.09
01.921,-18.86
01.937,-23.27
01.953,-27.74
01.968,-32.7
01.984,-38.48
02.000,-45.21
02.015,-52.76
02.031,-60.6
02.046,-67.74
02.062,-72.84
02.078,-74.51
02.093,-71.76
02.109,-64.33
02.125,-52.84
02.140,-38.52
02.156,-22.89
02.171,-7.3
02.187,7.3
02.203,20.34
02.218,31.52
02.234,40.6
02.250,47.42
02.265,51.84
02.281,53.97
02.296,54.13
02.312,52.87
02.328,50.83
02.343,48.58
02.359,46.49
02.375,44.68
02.390,42.96
02.406,41.04
02.421,38.63
02.437,35.55
02.453,31.85
02.468,27.75
02.484,23.51
02.500,19.36
02.515,15.36
02.531,11.44
02.546,7.48
02.562,3.37
02.578,-0.94
02.593,-5.47
02.609,-10.26
02.625,-15.31
02.640,-20.61
02.656,-26.07
02.671,-31.51
02.687,-36.74
02.703,-41.68
02.718,-46.44
02.734,-51.29
02.750,-56.54
02.765,-62.27
02.781,-68.15
02.796,-73.42
02.812,-77.01
02.828,-77.77
02.843,-74.83
02.859,-67.9
02.875,-57.31
02.890,-44.01
02.906,-29.29
02.921,-14.41
02.937,-0.42
02.953,12.08
02.968,22.82
02.984,31.72
03.000,38.72
03.015,43.71
03.031,46.66
03.046,47.67
03.062,47.1
03.078,45.57
03.093,43.7
03.109,42.0
03.125,40.7
03.140,39.72
03.156,38.86
03.171,37.88
03.187,36.68
03.203,35.18
03.218,33.4
03.234,31.27
03.250,28.69
03.265,25.51
03.281,21.66
03.296,17.16
03.312,12.11
03.328,6.7
03.343,1.11
03.359,-4.44
03.375,-9.77
03.390,-14.7
03.406,-19.17
03.421,-23.15
03.437,-26.82
03.453,-30.39
03.468,-34.17
03.484,-38.44
03.500,-43.43
03.515,-49.15
03.531,-55.34
03.546,-61.3
03.562,-65.92
03.578,-67.87
03.593,-66.0
03.609,-59.75
03.625,-49.44
03.640,-36.16
03.656,-21.47
03.671,-6.85
03.687,6.64
03.703,18.53
03.718,28.71
03.734,37.25
03.750,44.16
03.765,49.3
03.781,52.61
03.796,54.21
03.812,54.48
03.828,53.97
03.843,53.19
03.859,52.35
03.875,51.38
03.890,49.99
03.906,47.84
03.921,44.81
03.937,41.09
03.953,37.12
03.968,33.38
03.984,30.25
04.000,27.75
04.015,25.65
04.031,23.51
04.046,20.84
04.062,17.33
04.078,12.89
04.093,7.62
04.109,1.79
04.125,-4.26
04.140,-10.27
04.156,-16.04
04.171,-21.51
04.187,-26.72
04.203,-31.8
04.218,-36.88
04.234,-42.12
04.250,-47.56
04.265,-53.02
04.281,-58.1
04.296,-62.1
04.312,-64.19
04.328,-63.6
04.343,-59.76
04.359,-52.58
04.375,-42.48
04.390,-30.3
04.406,-17.09
04.421,-3.86
04.437,8.66
04.453,20.07
04.468,30.16
04.484,38.8
04.500,45.75
04.515,50.79
04.531,53.75
04.546,54.74
04.562,54.09
04.578,52.39
04.593,50.2
04.609,47.89
04.625,45.68
04.640,43.57
04.656,41.55
04.671,39.55
04.687,37.5
04.703,35.27
04.718,32.67
04.734,29.54
04.750,25.78
04.765,21.46
04.781,16.77
04.796,11.97
04.812,7.18
04.828,2.47
04.843,-2.23
04.859,-6.95
04.875,-11.69
04.890,-16.43
04.906,-21.09
04.921,-25.66
04.937,-30.13
04.953,-34.53
04.968,-38.88
04.984,-43.3
05.000,-47.97
05.015,-53.09
05.031,-58.87
05.046,-65.16
05.062,-71.48
05.078,-76.85
05.093,-80.03
05.109,-79.87
05.125,-75.69
05.140,-67.56
05.156,-56.21
05.171,-42.88
05.187,-28.86
05.203,-15.21
05.218,-2.6
05.234,8.73
05.250,18.7
05.265,27.31
05.281,34.55
05.296,40.37
05.312,44.7
05.328,47.54
05.343,48.98
05.359,49.17
05.375,48.38
05.390,46.78
05.406,44.67
05.421,42.27
05.437,39.83
05.453,37.55
05.468,35.6
05.484,33.96
05.500,32.5
05.515,30.94
05.531,28.92
05.546,26.15
05.562,22.47
05.578,17.97
05.593,12.9
05.609,7.57
05.625,2.25
05.640,-2.97
05.656,-8.11
05.671,-13.25
05.687,-18.39
05.703,-23.49
05.718,-28.44
05.734,-33.15
05.750,-37.66
05.765,-42.04
05.781,-46.44
05.796,-50.94
05.812,-55.64
05.828,-60.58
05.843,-65.75
05.859,-71.01
05.875,-75.91
05.890,-79.7
05.906,-81.36
05.921,-79.89
05.937,-74.69
05.953,-65.81
05.968,-53.94
05.984,-40.29
06.000,-26.16
06.015,-12.65
06.031,-0.44
06.046,10.12
06.062,18.92
06.078,25.95
06.093,31.26
06.109,34.94
06.125,37.17
06.140,38.23
06.156,38.44
06.171,38.14
06.187,37.54
06.203,36.77
06.218,35.85
06.234,34.72
06.250,33.35
06.265,31.74
06.281,29.92
06.296,27.96
06.312,25.89
06.328,23.71
06.343,21.4
06.359,18.92
06.375,16.21
06.390,13.19
06.406,9.82
06.421,6.02
06.437,1.78
06.453,-2.85
06.468,-7.74
06.484,-12.69
06.500,-17.48
06.515,-21.92
06.531,-25.87
06.546,-29.32
06.562,-32.38
06.578,-35.31
06.593,-38.48
06.609,-42.22
06.625,-46.65
06.640,-51.54
06.656,-56.2
06.671,-59.56
06.687,-60.48
06.703,-58.01
06.718,-51.75
06.734,-42.01
06.750,-29.67
06.765,-16.02
06.781,-2.36
06.796,10.31
06.812,21.36
06.828,30.49
06.843,37.68
06.859,42.94
06.875,46.37
06.890,48.14
06.906,48.52
06.921,47.89
06.937,46.73
06.953,45.45
06.968,44.26
06.984,43.23
07.000,42.21
07.015,41.02
07.031,39.48
07.046,37.51
07.062,35.16
07.078,32.61
07.093,30.07
07.109,27.76
07.125,25.76
07.140,24.01
07.156,22.26
07.171,20.14
07.187,17.27
07.203,13.42
07.218,8.57
07.234,2.96
07.250,-3.02
07.265,-8.95
07.281,-14.62
07.296,-19.95
07.312,-25.05
07.328,-30.09
07.343,-35.27
07.359,-40.73
07.375,-46.48
07.390,-52.37
07.406,-57.91
07.421,-62.4
07.437,-64.84
07.453,-64.35
07.468,-60.31
07.484,-52.69
07.500,-42.04
07.515,-29.33
07.531,-15.72
07.546,-2.3
07.562,10.1
07.578,20.98
07.593,30.12
07.609,37.5
07.625,43.18
07.640,47.2
07.656,49.66
07.671,50.67
07.687,50.42
07.703,49.25
07.718,47.61
07.734,45.93
07.750,44.54
07.765,43.54
07.781,42.77
07.796,41.95
07.812,40.77
07.828,39.02
07.843,36.68
07.859,33.75
07.875,30.29
07.890,26.31
07.906,21.87
07.921,17.11
07.937,12.32
07.953,7.85
07.968,3.87
07.984,0.32
08.000,-3.19
08.015,-7.13
08.031,-11.82
08.046,-17.21
08.062,-22.99
08.078,-28.68
08.093,-33.98
08.109,-38.84
08.125,-43.5
08.140,-48.33
08.156,-53.66
08.171,-59.6
08.187,-65.89
08.203,-71.91
08.218,-76.69
08.234,-79.08
08.250,-78.06
08.265,-73.07
08.281,-64.22
08.296,-52.2
08.312,-38.14
08.328,-23.27
08.343,-8.56
08.359,5.28
08.375,17.84
08.390,28.81
08.406,37.95
08.421,45.07
08.437,50.13
08.453,53.27
08.468,54.84
08.484,55.3
08.500,55.03
08.515,54.29
08.531,53.17
08.546,51.65
08.562,49.74
08.578,47.58
08.593,45.36
08.609,43.33
08.625,41.63
08.640,40.21
08.656,38.86
08.671,37.25
08.687,35.12
08.703,32.33
08.718,28.96
08.734,25.27
08.750,21.65
08.765,18.49
08.781,16.07
08.796,14.41
08.812,13.28
08.828,12.24
08.843,10.82
08.859,8.68
08.875,5.75
08.890,2.31
08.906,-1.12
08.921,-3.93
08.937,-5.71
08.953,-6.39
08.968,-6.37
08.984,-6.38
09.000,-7.23
09.015,-9.42
09.031,-12.82
09.046,-16.46
09.062,-18.81
09.078,-18.13
09.093,-13.01
09.109,-2.91
09.125,11.58
09.140,28.77
09.156,46.25
09.171,61.32
09.187,71.74
09.203,76.15
09.218,74.28
09.234,66.88
09.250,55.39
09.265,41.56
09.281,27.07
09.296,13.42
09.312,1.77
09.328,-7.11
09.343,-12.93
09.359,-15.99
09.375,-17.1
09.390,-17.43
09.406,-18.09
09.421,-20.07
09.437,-24.18
09.453,-31.27
09.468,-42.09
09.484,-57.13
09.500,-76.14
09.515,-97.75
09.531,-119.66
09.546,-139.19
09.562,-154.2
09.578,-163.91
09.593,-168.97
09.609,-171.01
09.625,-171.75
09.640,-172.29
09.656,-172.86
09.671,-173.16
09.687,-172.78
09.703,-171.64
09.718,-169.9
09.734,-167.77
09.750,-165.19
09.765,-161.72
09.781,-156.63
09.796,-149.14
09.812,-138.73
09.828,-125.26
09.843,-109.03
09.859,-90.74
09.875,-71.32
09.890,-51.8
09.906,-33.07
09.921,-15.73
09.937,0.01
09.953,14.25
09.968,27.22
09.984,39.03
10.000,49.54
10.015,58.39
10.031,65.11
10.046,69.45
10.062,71.45
10.078,71.5
10.093,70.19
10.109,68.2
10.125,66.07
10.140,64.18
10.156,62.74
10.171,61.84
10.187,61.46
10.203,61.45
10.218,61.64
10.234,61.81
10.250,61.79
10.265,61.54
10.281,61.18
10.296,60.89
10.312,60.79
10.328,60.78
10.343,60.38
10.359,58.76
10.375,54.97
10.390,48.27
10.406,38.43
10.421,26.04
10.437,12.34
10.453,-1.04
10.468,-12.64
10.484,-21.64
10.500,-28.09
10.515,-32.67
10.531,-36.27
10.546,-39.35
10.562,-41.6
10.578,-41.93
10.593,-38.99
10.609,-31.79
10.625,-20.2
10.640,-5.13
10.656,11.74
10.671,28.51
10.687,43.71
10.703,56.45
10.718,66.49
10.734,73.93
10.750,79.01
10.765,81.98
10.781,83.13
10.796,82.77
10.812,81.16
10.828,78.42
10.843,74.33
10.859,68.54
10.875,60.79
10.890,51.32
10.906,41.06
10.921,31.48
10.937,24.21
10.953,20.42
10.968,20.46
10.984,23.8
11.000,29.29
11.015,35.63
11.031,41.71
11.046,46.77
11.062,50.21
11.078,51.33
11.093,49.3
11.109,43.28
11.125,32.93
11.140,18.74
11.156,2.14
11.171,-14.94
11.187,-30.64
11.203,-43.85
11.218,-54.39
11.234,-62.89
11.250,-70.31
11.265,-77.57
11.281,-85.28
11.296,-93.68
11.312,-102.6
11.328,-111.27
11.343,-118.25
11.359,-121.46
11.375,-118.61
11.390,-108.0
11.406,-89.15
11.421,-63.18
11.437,-32.51
11.453,-0.28
11.468,30.59
11.484,57.9
11.500,80.42
11.515,97.74
11.531,110.07
11.546,117.94
11.562,122.07
11.578,123.3
11.593,122.41
11.609,120.11
11.625,116.88
11.640,113.03
11.656,108.72
11.671,104.07
11.687,99.07
11.703,93.64
11.718,87.49
11.734,80.22
11.750,71.39
11.765,60.88
11.781,48.95
11.796,36.41
11.812,24.28
11.828,13.49
11.843,4.58
11.859,-2.5
11.875,-8.3
11.890,-13.59
11.906,-19.03
11.921,-24.91
11.937,-31.12
11.953,-37.25
11.968,-42.85
11.984,-47.54
12.000,-51.22
12.015,-53.97
12.031,-56.03
12.046,-57.71
12.062,-59.42
12.078,-61.56
12.093,-64.45
12.109,-68.19
12.125,-72.36
12.140,-76.17
12.156,-78.45
12.171,-78.13
12.187,-74.56
12.203,-67.7
12.218,-58.08
12.234,-46.45
12.250,-33.54
12.265,-19.8
12.281,-5.6
12.296,8.61
12.312,22.08
12.328,33.77
12.343,42.55
12.359,47.65
12.375,48.96
12.390,47.21
12.406,43.82
12.421,40.48
12.437,38.62
12.453,39.01
12.468,41.66
12.484,45.96
12.500,51.05
12.515,56.21
12.531,61.04
12.546,65.44
12.562,69.49
12.578,73.31
12.593,76.9
12.609,80.1
12.625,82.5
12.640,83.31
12.656,81.45
12.671,75.83
12.687,65.83
12.703,51.75
12.718,34.97
12.734,17.56
12.750,1.73
12.765,-10.95
12.781,-19.89
12.796,-25.45
12.812,-28.48
12.828,-29.74
12.843,-29.54
12.859,-27.83
12.875,-24.4
12.890,-19.29
12.906,-13.02
12.921,-6.43
12.937,-0.53
12.953,3.89
12.968,6.33
12.984,6.78
13.000,5.54
13.015,3.24
13.031,0.55
13.046,-1.91
13.062,-3.76
13.078,-4.98
13.093,-5.82
13.109,-6.72
13.125,-8.04
13.140,-9.82
13.156,-11.78
13.171,-13.32
13.187,-13.84
13.203,-12.87
13.218,-10.36
13.234,-6.61
13.250,-2.18
13.265,2.27
13.281,6.21
13.296,9.37
13.312,11.77
13.328,13.69
13.343,15.64
13.359,18.02
13.375,21.02
13.390,24.24
13.406,26.69
13.421,26.92
13.437,23.43
13.453,15.33
13.468,2.71
13.484,-13.16
13.500,-30.16
13.515,-45.95
13.531,-58.67
13.546,-67.5
13.562,-72.64
13.578,-74.91
13.593,-75.16
13.609,-73.8
13.625,-70.72
13.640,-65.56
13.656,-58.19
13.671,-49.0
13.687,-39.02
13.703,-29.42
13.718,-21.19
13.734,-14.68
13.750,-9.63
13.765,-5.42
13.781,-1.51
13.796,2.31
13.812,5.91
13.828,8.94
13.843,11.09
13.859,12.19
13.875,12.32
13.890,11.71
13.906,10.63
13.921,9.36
13.937,8.17
13.953,7.32
13.968,7.04
13.984,7.48
14.000,8.7
14.015,10.71
14.031,13.46
14.046,16.86
14.062,20.84
14.078,25.27
14.093,30.07
14.109,35.21
14.125,40.73
14.140,46.67
14.156,52.92
14.171,59.1
14.187,64.32
14.203,67.39
14.218,66.98
14.234,62.0
14.250,52.0
14.265,37.35
14.281,19.19
14.296,-0.86
14.312,-21.06
14.328,-39.95
14.343,-56.34
14.359,-69.37
14.375,-78.3
14.390,-82.5
14.406,-81.56
14.421,-75.54
14.437,-65.18
14.453,-51.87
14.468,-37.42
14.484,-23.61
14.500,-11.79
14.515,-2.66
14.531,3.62
14.546,7.24
14.562,8.55
14.578,7.98
14.593,5.96
14.609,3.04
14.625,-0.16
14.640,-2.94
14.656,-4.65
14.671,-4.87
14.687,-3.51
14.703,-0.89
14.718,2.32
14.734,5.22
14.750,6.9
14.765,6.65
14.781,4.15
14.796,-0.46
14.812,-6.49
14.828,-12.92
14.843,-18.6
14.859,-22.55
14.875,-24.32
14.890,-24.06
14.906,-22.52
14.921,-20.71
14.937,-19.54
14.953,-19.46
14.968,-20.36
14.984,-21.78
15.000,-23.07
15.015,-23.71
15.031,-23.4
15.046,-22.17
15.062,-20.43
15.078,-18.89
15.093,-18.54
15.109,-20.31
15.125,-24.79
15.140,-31.8
15.156,-40.21
15.171,-48.19
15.187,-53.71
15.203,-55.24
15.218,-52.18
15.234,-44.94
15.250,-34.67
15.265,-22.77
15.281,-10.47
15.296,1.37
15.312,12.23
15.328,21.76
15.343,29.64
15.359,35.5
15.375,39.07
15.390,40.26
15.406,39.31
15.421,36.78
15.437,33.48
15.453,30.15
15.468,27.39
15.484,25.45
15.500,24.25
15.515,23.53
15.531,23.03
15.546,22.6
15.562,22.26
15.578,22.05
15.593,22.0
15.609,22.06
15.625,22.13
15.640,22.1
15.656,21.92
15.671,21.52
15.687,20.84
15.703,19.68
15.718,17.76
15.734,14.7
15.750,10.08
15.765,3.64
15.781,-4.73
15.796,-14.71
15.812,-25.75
15.828,-36.93
15.843,-47.28
15.859,-55.89
15.875,-62.06
15.890,-65.42
15.906,-65.8
15.921,-63.21
15.937,-57.75
15.953,-49.73
15.968,-39.55
15.984,-27.86
16.000,-15.41
16.015,-2.85
16.031,9.26
16.046,20.58
16.062,30.9
16.078,39.93
16.093,47.29
16.109,52.6
16.125,55.59
16.140,56.31
16.156,55.21
16.171,53.0
16.187,50.44
16.203,48.06
16.218,46.01
16.234,44.12
16.250,42.03
16.265,39.44
16.281,36.18
16.296,32.32
16.312,28.06
16.328,23.62
16.343,19.18
16.359,14.73
16.375,10.23
16.390,5.59
16.406,0.79
16.421,-4.09
16.437,-8.87
16.453,-13.33
16.468,-17.31
16.484,-20.7
16.500,-23.55
16.515,-26.03
16.531,-28.36
16.546,-30.84
16.562,-33.76
16.578,-37.39
16.593,-41.81
16.609,-46.86
16.625,-51.93
16.640,-56.1
16.656,-58.24
16.671,-57.38
16.687,-52.99
16.703,-45.22
16.718,-34.83
16.734,-22.99
16.750,-10.94
16.765,0.42
16.781,10.56
16.796,19.32
16.812,26.73
16.828,32.87
16.843,37.72
16.859,41.21
16.875,43.36
16.890,44.3
16.906,44.32
16.921,43.76
16.937,42.96
16.953,42.11
16.968,41.26
16.984,40.33
17.000,39.15
17.015,37.62
17.031,35.67
17.046,33.38
17.062,30.89
17.078,28.42
17.093,26.17
17.109,24.23
17.125,22.56
17.140,21.0
17.156,19.28
17.171,17.1
17.187,14.29
17.203,10.84
17.218,6.87
17.234,2.64
17.250,-1.5
17.265,-5.22
17.281,-8.24
17.296,-10.49
17.312,-12.1
17.328,-13.42
17.343,-14.85
17.359,-16.67
17.375,-18.78
17.390,-20.59
17.406,-21.04
17.421,-18.92
17.437,-13.27
17.453,-3.76
17.468,9.19
17.484,24.59
17.500,41.25
17.515,58.14
17.531,74.72
17.546,90.9
17.562,106.82
17.578,122.58
17.593,138.01
17.609,152.7
17.625,166.09
17.640,177.77
17.656,187.73
17.671,196.39
17.687,204.51
17.703,213.0
17.718,222.69
17.734,234.13
17.750,247.35
17.765,261.73
17.781,275.81
17.796,287.33
17.812,293.56
17.828,291.93
17.843,280.85
17.859,260.3
17.875,231.94
17.890,198.57
17.906,163.23
17.921,128.23
17.937,94.88
17.953,63.71
17.968,35.1
17.984,9.89
18.000,-10.77
18.015,-25.87
18.031,-35.43
18.046,-40.86
18.062,-44.8
18.078,-50.22
18.093,-59.25
18.109,-72.57
18.125,-89.42
18.140,-108.4
18.156,-128.38
18.171,-148.83
18.187,-169.64
18.203,-190.55
18.218,-210.65
18.234,-228.6
18.250,-243.29
18.265,-254.59
18.281,-263.45
18.296,-271.39
18.312,-279.4
18.328,-287.3
18.343,-293.66
18.359,-296.56
18.375,-294.59
18.390,-287.52
18.406,-276.24
18.421,-262.21
18.437,-246.78
18.453,-230.78
18.468,-214.64
18.484,-198.58
18.500,-183.0
18.515,-168.37
18.531,-155.15
18.546,-143.51
18.562,-133.17
18.578,-123.62
18.593,-114.4
18.609,-105.35
18.625,-96.64
18.640,-88.66
18.656,-81.67
18.671,-75.66
18.687,-70.28
18.703,-65.03
18.718,-59.6
18.734,-53.93
18.750,-48.33
18.765,-43.27
18.781,-39.14
18.796,-36.17
18.812,-34.39
18.828,-33.69
18.843,-33.76
18.859,-34.08
18.875,-33.89
18.890,-32.23
18.906,-28.26
18.921,-21.56
18.937,-12.29
18.953,-1.32
18.968,10.14
18.984,20.99
19.000,30.56
19.015,38.75
19.031,45.78
19.046,51.71
19.062,56.2
19.078,58.58
19.093,58.17
19.109,54.87
19.125,49.39
19.140,43.13
19.156,37.68
19.171,34.19
19.187,32.9
19.203,33.28
19.218,34.41
19.234,35.44
19.250,36.05
19.265,36.35
19.281,36.62
19.296,36.97
19.312,37.12
19.328,36.48
19.343,34.46
19.359,30.79
19.375,25.65
19.390,19.6
19.406,13.3
19.421,7.25
19.437,1.61
19.453,-3.74
19.468,-9.02
19.484,-14.42
19.500,-19.95
19.515,-25.59
19.531,-31.33
19.546,-37.18
19.562,-43.19
19.578,-49.21
19.593,-54.8
19.609,-59.17
19.625,-61.36
19.640,-60.5
19.656,-56.13
19.671,-48.35
19.687,-37.85
19.703,-25.71
19.718,-13.06
19.734,-0.84
19.750,10.39
19.765,20.37
19.781,29.08
19.796,36.51
19.812,42.57
19.828,47.11
19.843,50.06
19.859,51.51
19.875,51.84
19.890,51.56
19.906,51.19
19.921,51.04
19.937,51.14
19.953,51.28
19.968,51.11
19.984,50.38
20.000,48.99
20.015,47.07
20.031,44.83
20.046,42.38
20.062,39.73
20.078,36.68
20.093,33.04
20.109,28.66
20.125,23.56
20.140,17.95
20.156,12.17
20.171,6.58
20.187,1.42
20.203,-3.25
20.218,-7.62
20.234,-12.02
20.250,-16.81
20.265,-22.31
20.281,-28.7
20.296,-35.88
20.312,-43.54
20.328,-51.06
20.343,-57.58
20.359,-62.08
20.375,-63.56
20.390,-61.3
20.406,-55.06
20.421,-45.31
20.437,-33.1
20.453,-19.77
20.468,-6.58
20.484,5.57
20.500,16.31
20.515,25.6
20.531,33.49
20.546,39.96
20.562,44.85
20.578,48.05
20.593,49.67
20.609,50.09
20.625,49.84
20.640,49.41
20.656,49.02
20.671,48.59
20.687,47.93
20.703,46.81
20.718,45.21
20.734,43.24
20.750,41.14
20.765,39.11
20.781,37.23
20.796,35.47
20.812,33.68
20.828,31.75
20.843,29.55
20.859,27.0
20.875,24.01
20.890,20.53
20.906,16.58
20.921,12.26
20.937,7.79
20.953,3.39
20.968,-0.65
20.984,-4.17
21.000,-7.08
21.015,-9.43
21.031,-11.35
21.046,-13.06
21.062,-14.77
21.078,-16.62
21.093,-18.5
21.109,-19.88
21.125,-19.83
21.140,-17.03
21.156,-10.19
21.171,1.44
21.187,17.74
21.203,37.52
21.218,58.87
21.234,79.63
21.250,98.13
21.265,113.59
21.281,126.16
21.296,136.58
21.312,145.67
21.328,153.95
21.343,161.48
21.359,168.0
21.375,172.94
21.390,175.52
21.406,174.62
21.421,168.88
21.437,157.12
21.453,138.89
21.468,115.1
21.484,88.1
21.500,61.22
21.515,37.84
21.531,20.35
21.546,9.51
21.562,4.46
21.578,3.29
21.593,3.8
21.609,4.15
21.625,3.13
21.640,0.21
21.656,-4.68
21.671,-11.29
21.687,-19.19
21.703,-27.85
21.718,-36.73
21.734,-45.41
21.750,-53.78
21.765,-62.16
21.781,-71.31
21.796,-82.13
21.812,-95.18
21.828,-110.21
21.843,-125.99
21.859,-140.44
21.875,-151.33
21.890,-156.93
21.906,-156.64
21.921,-151.17
21.937,-142.16
21.953,-131.64
21.968,-121.26
21.984,-112.01
22.000,-104.06
22.015,-97.07
22.031,-90.49
22.046,-83.9
22.062,-77.06
22.078,-69.91
22.093,-62.46
22.109,-54.71
22.125,-46.74
22.140,-38.65
22.156,-30.65
22.171,-22.96
22.187,-15.71
22.203,-8.94
22.218,-2.56
22.234,3.46
22.250,9.1
22.265,14.32
22.281,19.05
22.296,23.24
22.312,26.8
22.328,29.54
22.343,31.08
22.359,30.97
22.375,28.87
22.390,24.8
22.406,19.27
22.421,13.18
22.437,7.52
22.453,2.94
22.468,-0.36
22.484,-2.75
22.500,-4.9
22.515,-7.48
22.531,-10.91
22.546,-15.21
22.562,-20.0
22.578,-24.52
22.593,-27.75
22.609,-28.49
22.625,-25.61
22.640,-18.38
22.656,-6.75
22.671,8.49
22.687,25.91
22.703,43.84
22.718,61.01
22.734,76.79
22.750,91.26
22.765,104.84
22.781,117.77
22.796,129.68
22.812,139.52
22.828,145.88
22.843,147.54
22.859,144.04
22.875,135.94
22.890,124.68
22.906,112.11
22.921,99.95
22.937,89.3
22.953,80.52
22.968,73.37
22.984,67.38
23.000,62.18
23.015,57.51
23.031,53.19
23.046,48.86
23.062,43.89
23.078,37.55
23.093,29.17
23.109,18.46
23.125,5.68
23.140,-8.39
23.156,-22.78
23.171,-36.61
23.187,-49.37
23.203,-61.01
23.218,-71.72
23.234,-81.81
23.250,-91.58
23.265,-101.36
23.281,-111.52
23.296,-122.36
23.312,-133.78
23.328,-144.79
23.343,-153.46
23.359,-157.2
23.375,-153.75
23.390,-142.24
23.406,-123.81
23.421,-101.36
23.437,-78.61
23.453,-58.67
23.468,-43.09
23.484,-31.67
23.500,-23.11
23.515,-16.0
23.531,-9.65
23.546,-4.3
23.562,-0.8
23.578,0.07
23.593,-1.89
23.609,-6.1
23.625,-11.39
23.640,-16.41
23.656,-20.17
23.671,-22.28
23.687,-22.99
23.703,-23.05
23.718,-23.42
23.734,-25.05
23.750,-28.78
23.765,-35.3
23.781,-45.04
23.796,-57.93
23.812,-73.17
23.828,-88.92
23.843,-102.51
23.859,-111.07
23.875,-112.59
23.890,-106.74
23.906,-95.19
23.921,-80.92
23.937,-67.13
23.953,-56.23
23.968,-49.49
23.984,-47.41
24.000,-50.56
24.015,-59.95
24.031,-76.52
24.046,-99.78
24.062,-126.59
24.078,-150.95
24.093,-165.71
24.109,-165.26
24.125,-148.14
24.140,-118.0
24.156,-82.27
24.171,-49.21
24.187,-24.67
24.203,-10.29
24.218,-3.76
24.234,-0.89
24.250,2.06
24.265,6.85
24.281,13.28
24.296,20.44
24.312,27.9
24.328,36.2
24.343,46.39
24.359,59.01
24.375,73.47
24.390,88.07
24.406,100.82
24.421,110.39
24.437,116.8
24.453,121.36
24.468,125.95
24.484,132.15
24.500,140.51
24.515,150.43
24.531,160.33
24.546,168.17
24.562,171.93
24.578,170.21
24.593,162.54
24.609,149.65
24.625,133.41
24.640,116.42
24.656,101.21
24.671,89.26
24.687,80.41
24.703,72.9
24.718,64.07
24.734,51.56
24.750,34.35
24.765,13.23
24.781,-9.42
24.796,-30.4
24.812,-46.75
24.828,-56.56
24.843,-59.52
24.859,-57.03
24.875,-51.77
24.890,-46.98
24.906,-45.45
24.921,-48.77
24.937,-56.84
24.953,-68.05
24.968,-80.03
24.984,-90.47
25.000,-97.83
25.015,-101.51
25.031,-101.64
25.046,-98.61
25.062,-92.95
25.078,-85.25
25.093,-76.37
25.109,-67.57
25.125,-60.27
25.140,-55.79
25.156,-54.8
25.171,-57.13
25.187,-61.85
25.203,-67.67
25.218,-73.48
25.234,-78.68
25.250,-83.34
25.265,-87.86
25.281,-92.64
25.296,-97.68
25.312,-102.55
25.328,-106.51
25.343,-108.95
25.359,-109.58
25.375,-108.63
25.390,-106.72
25.406,-104.65
25.421,-103.24
25.437,-103.12
25.453,-104.71
25.468,-108.2
25.484,-113.43
25.500,-119.82
25.515,-126.23
25.531,-131.05
25.546,-132.32
25.562,-128.29
25.578,-117.8
25.593,-100.74
25.609,-78.12
25.625,-51.84
25.640,-24.19
25.656,2.69
25.671,27.26
25.687,48.65
25.703,66.61
25.718,81.2
25.734,92.64
25.750,101.24
25.765,107.4
25.781,111.74
25.796,115.0
25.812,117.92
25.828,121.08
25.843,124.72
25.859,128.7
25.875,132.67
25.890,136.25
25.906,139.32
25.921,142.08
25.937,144.94
25.953,148.3
25.968,152.26
25.984,156.53
26.000,160.5
26.015,163.39
26.031,164.58
26.046,163.89
26.062,161.55
26.078,158.06
26.093,153.87
26.109,149.13
26.125,143.55
26.140,136.5
26.156,127.28
26.171,115.34
26.187,100.61
26.203,83.61
26.218,65.33
26.234,47.21
26.250,30.91
26.265,18.03
26.281,9.79
26.296,6.72
26.312,8.5
26.328,14.1
26.343,22.16
26.359,31.32
26.375,40.63
26.390,49.64
26.406,58.12
26.421,65.85
26.437,72.39
26.453,77.05
26.468,79.19
26.484,78.6
26.500,75.66
26.515,71.39
26.531,67.04
26.546,63.74
26.562,62.0
26.578,61.47
26.593,60.9
26.609,58.69
26.625,53.68
26.640,45.67
26.656,35.7
26.671,25.54
26.687,17.0
26.703,11.17
26.718,8.1
26.734,6.96
26.750,6.51
26.765,5.77
26.781,4.25
26.796,1.95
26.812,-0.89
26.828,-4.1
26.843,-7.74
26.859,-12.07
26.875,-17.62
26.890,-25.02
26.906,-34.75
26.921,-46.96
26.937,-60.9
26.953,-74.85
26.968,-86.28
26.984,-92.4
27.000,-90.85
27.015,-80.53
27.031,-62.14
27.046,-38.15
27.062,-12.42
27.078,10.87
27.093,28.2
27.109,37.66
27.125,39.17
27.140,34.15
27.156,24.95
27.171,14.27
27.187,4.99
27.203,-0.11
27.218,1.19
27.234,9.46
27.250,22.63
27.265,35.72
27.281,41.77
27.296,34.11
27.312,8.84
27.328,-33.39
27.343,-87.47
27.359,-145.5
27.375,-199.4
27.390,-242.98
27.406,-272.76
27.421,-287.61
27.437,-287.95
27.453,-275.16
27.468,-251.39
27.484,-219.75
27.500,-184.12
27.515,-148.56
27.531,-116.36
27.546,-89.39
27.562,-68.05
27.578,-51.74
27.593,-39.69
27.609,-31.34
27.625,-26.33
27.640,-23.85
27.656,-22.23
27.671,-19.07
27.687,-12.12
27.703,-0.59
27.718,14.1
27.734,28.52
27.750,38.52
27.765,40.95
27.781,35.01
27.796,22.55
27.812,7.19
27.828,-7.1
27.843,-17.44
27.859,-22.63
27.875,-23.13
27.890,-20.42
27.906,-16.23
27.921,-12.03
27.937,-8.86
27.953,-7.37
27.968,-7.99
27.984,-10.91
28.000,-15.91
28.015,-22.12
28.031,-28.07
28.046,-32.06
28.062,-32.77
28.078,-29.85
28.093,-24.22
28.109,-17.71
28.125,-12.29
28.140,-9.21
28.156,-8.66
28.171,-9.9
28.187,-11.84
28.203,-13.63
28.218,-14.91
28.234,-15.65
28.250,-16.01
28.265,-16.0
28.281,-15.67
28.296,-15.21
28.312,-15.08
28.328,-15.87
28.343,-18.1
28.359,-21.94
28.375,-26.92
28.390,-32.0
28.406,-35.54
28.421,-35.9
28.437,-31.88
28.453,-23.11
28.468,-10.23
28.484,5.38
28.500,21.99
28.515,38.07
28.531,52.58
28.546,65.1
28.562,75.55
28.578,83.97
28.593,90.33
28.609,94.41
28.625,96.0
28.640,95.04
28.656,91.82
28.671,87.01
28.687,81.55
28.703,76.27
28.718,71.65
28.734,67.63
28.750,63.78
28.765,59.62
28.781,54.96
28.796,49.99
28.812,45.14
28.828,40.76
28.843,36.86
28.859,33.07
28.875,28.81
28.890,23.66
28.906,17.56
28.921,10.81
28.937,3.98
28.953,-2.47
28.968,-8.24
28.984,-13.34
29.000,-18.0
29.015,-22.55
29.031,-27.4
29.046,-32.94
29.062,-39.5
29.078,-47.16
29.093,-55.59
29.109,-63.87
29.125,-70.57
29.140,-74.04
29.156,-72.85
29.171,-66.27
29.187,-54.52
29.203,-38.65
29.218,-20.23
29.234,-0.94
29.250,17.85
29.265,35.17
29.281,50.46
29.296,63.43
29.312,73.93
29.328,81.91
29.343,87.42
29.359,90.66
29.375,91.97
29.390,91.85
29.406,90.86
29.421,89.52
29.437,88.18
29.453,86.96
29.468,85.73
29.484,84.2
29.500,82.14
29.515,79.5
29.531,76.41
29.546,73.16
29.562,69.89
29.578,66.51
29.593,62.62
29.609,57.7
29.625,51.34
29.640,43.48
29.656,34.47
29.671,24.95
29.687,15.66
29.703,7.14
29.718,-0.38
29.734,-7.11
29.750,-13.49
29.765,-20.1
29.781,-27.45
29.796,-35.93
29.812,-45.7
29.828,-56.46
29.843,-67.41
29.859,-77.17
29.875,-83.94
29.890,-85.96
29.906,-82.01
29.921,-71.91
29.937,-56.67
29.953,-38.18
29.968,-18.61
29.984,0.26
30.000,17.39
30.015,32.47
30.031,45.56
30.046,56.78
30.062,66.03
30.078,73.09
30.093,77.85
30.109,80.47
30.125,81.39
30.140,81.19
30.156,80.35
30.171,79.08
30.187,77.37
30.203,75.14
30.218,72.36
30.234,69.14
30.250,65.67
30.265,62.16
30.281,58.69
30.296,55.29
30.312,51.86
30.328,48.23
30.343,44.17
30.359,39.41
30.375,33.69
30.390,26.88
30.406,19.09
30.421,10.71
30.437,2.25
30.453,-5.78
30.468,-13.16
30.484,-19.93
30.500,-26.44
30.515,-33.13
30.531,-40.46
30.546,-48.7
30.562,-57.86
30.578,-67.64
30.593,-77.3
30.609,-85.67
30.625,-91.24
30.640,-92.51
30.656,-88.41
30.671,-78.74
30.687,-64.33
30.703,-46.82
30.718,-28.18
30.734,-10.16
30.750,6.12
30.765,20.22
30.781,32.12
30.796,41.89
30.812,49.51
30.828,54.89
30.843,58.01
30.859,59.16
30.875,58.91
30.890,57.92
30.906,56.71
30.921,55.47
30.937,54.13
30.953,52.49
30.968,50.5
30.984,48.27
31.000,46.06
31.015,44.04
31.031,42.21
31.046,40.39
31.062,38.32
31.078,35.84
31.093,32.97
31.109,29.91
31.125,26.8
31.140,23.67
31.156,20.36
31.171,16.57
31.187,12.11
31.203,7.06
31.218,1.81
31.234,-3.09
31.250,-7.08
31.265,-9.95
31.281,-11.85
31.296,-13.32
31.312,-15.1
31.328,-17.71
31.343,-21.16
31.359,-24.82
31.375,-27.33
31.390,-26.99
31.406,-22.21
31.421,-12.06
31.437,3.34
31.453,22.86
31.468,44.64
31.484,66.68
31.500,87.4
31.515,105.98
31.531,122.38
31.546,137.14
31.562,150.9
31.578,163.99
31.593,176.07
31.609,186.04
31.625,192.22
31.640,192.85
31.656,186.77
31.671,173.87
31.687,155.31
31.703,133.14
31.718,109.51
31.734,85.78
31.750,62.09
31.765,37.56
31.781,11.08
31.796,-17.75
31.812,-48.15
31.828,-78.26
31.843,-105.99
31.859,-129.75
31.875,-148.95
31.890,-163.88
31.906,-175.2
31.921,-183.4
31.937,-188.57
31.953,-190.55
31.968,-189.2
31.984,-184.61
32.000,-177.08
32.015,-167.04
32.031,-155.0
32.046,-141.68
32.062,-128.01
32.078,-115.1
32.093,-103.89
32.109,-94.61
32.125,-86.6
32.140,-78.38
32.156,-68.11
32.171,-54.3
32.187,-36.43
32.203,-15.37
32.218,6.54
32.234,25.79
32.250,38.58
32.265,42.02
32.281,35.19
32.296,19.65
32.312,-0.82
32.328,-21.47
32.343,-38.0
32.359,-47.82
32.375,-50.29
32.390,-46.41
32.406,-38.14
32.421,-27.93
32.437,-18.48
32.453,-12.64
32.468,-13.01
32.484,-21.05
32.500,-36.41
32.515,-56.63
32.531,-77.93
32.546,-96.34
32.562,-108.96
32.578,-114.56
32.593,-113.45
32.609,-106.97
32.625,-96.96
32.640,-85.44
32.656,-74.43
32.671,-65.68
32.687,-60.24
32.703,-58.2
32.718,-58.61
32.734,-59.97
32.750,-60.97
32.765,-60.96
32.781,-60.13
32.796,-59.24
32.812,-59.05
32.828,-59.89
32.843,-61.52
32.859,-63.08
32.875,-63.35
32.890,-60.91
32.906,-54.47
32.921,-43.23
32.937,-27.12
32.953,-7.0
32.968,15.46
32.984,38.11
33.000,58.91
33.015,76.51
33.031,90.5
33.046,101.46
33.062,110.44
33.078,118.32
33.093,125.26
33.109,130.47
33.125,132.67
33.140,130.74
33.156,124.29
33.171,113.92
33.187,101.18
33.203,87.86
33.218,75.61
33.234,65.58
33.250,58.49
33.265,54.72
33.281,54.43
33.296,57.31
33.312,62.51
33.328,68.62
33.343,73.94
33.359,76.76
33.375,75.77
33.390,70.35
33.406,60.71
33.421,47.9
33.437,33.31
33.453,18.41
33.468,4.5
33.484,-7.64
33.500,-18.07
33.515,-27.5
33.531,-36.94
33.546,-47.31
33.562,-58.92
33.578,-72.0
33.593,-86.38
33.609,-101.11
33.625,-114.48
33.640,-124.64
33.656,-129.9
33.671,-129.33
33.687,-122.84
33.703,-110.7
33.718,-94.42
33.734,-75.64
33.750,-55.24
33.765,-33.23
33.781,-9.88
33.796,13.73
33.812,35.34
33.828,52.09
33.843,61.98
33.859,62.64
33.875,52.78
33.890,33.18
33.906,6.68
33.921,-23.32
33.937,-53.8
33.953,-83.17
33.968,-111.25
33.984,-138.1
34.000,-165.97
34.015,-197.29
34.031,-232.9
34.046,-265.84
34.062,-286.37
34.078,-286.48
34.093,-264.99
34.109,-234.31
34.125,-199.03
34.140,-161.61
34.156,-123.89
34.171,-87.02
34.187,-54.38
34.203,-30.03
34.218,-16.92
34.234,-15.42
34.250,-22.45
34.265,-30.92
34.281,-34.47
34.296,-28.79
34.312,-12.34
34.328,13.56
34.343,45.52
34.359,79.54
34.375,112.37
34.390,142.16
34.406,168.85
34.421,191.44
34.437,208.41
34.453,218.58
34.468,221.8
34.484,218.81
34.500,210.73
34.515,198.43
34.531,182.45
34.546,163.7
34.562,142.65
34.578,120.13
34.593,97.58
34.609,76.73
34.625,58.96
34.640,45.09
34.656,35.3
34.671,29.48
34.687,27.56
34.703,28.77
34.718,31.84
34.734,35.27
34.750,37.74
34.765,38.5
34.781,37.45
34.796,34.93
34.812,31.46
34.828,27.51
34.843,23.13
34.859,18.09
34.875,12.1
34.890,5.04
34.906,-3.07
34.921,-12.07
34.937,-21.88
34.953,-32.4
34.968,-43.43
34.984,-54.35
35.000,-64.07
35.015,-71.06
35.031,-73.79
35.046,-71.24
35.062,-63.38
35.078,-51.31
35.093,-36.94
35.109,-22.36
35.125,-9.2
35.140,1.84
35.156,10.92
35.171,18.64
35.187,25.6
35.203,32.0
35.218,37.64
35.234,42.08
35.250,45.01
35.265,46.33
35.281,46.25
35.296,45.08
35.312,43.07
35.328,40.38
35.343,37.14
35.359,33.51
35.375,29.83
35.390,26.45
35.406,23.63
35.421,21.39
35.437,19.41
35.453,17.16
35.468,14.03
35.484,9.69
35.500,4.17
35.515,-2.1
35.531,-8.51
35.546,-14.45
35.562,-19.61
35.578,-24.05
35.593,-28.18
35.609,-32.62
35.625,-37.89
35.640,-44.22
35.656,-51.46
35.671,-58.95
35.687,-65.62
35.703,-70.11
35.718,-71.1
35.734,-67.66
35.750,-59.61
35.765,-47.64
35.781,-33.18
35.796,-17.96
35.812,-3.54
35.828,9.05
35.843,19.46
35.859,27.8
35.875,34.42
35.890,39.58
35.906,43.3
35.921,45.55
35.937,46.28
35.953,45.66
35.968,44.0
35.984,41.74
36.000,39.23
36.015,36.67
36.031,34.11
36.046,31.48
36.062,28.84
36.078,26.33
36.093,24.25
36.109,22.78
36.125,21.92
36.140,21.32
36.156,20.38
36.171,18.47
36.187,15.17
36.203,10.45
36.218,4.71
36.234,-1.31
36.250,-6.89
36.265,-11.47
36.281,-14.94
36.296,-17.56
36.312,-19.83
36.328,-22.38
36.343,-25.67
36.359,-29.95
36.375,-35.06
36.390,-40.39
36.406,-44.92
36.421,-47.47
36.437,-46.91
36.453,-42.58
36.468,-34.53
36.484,-23.48
36.500,-10.68
36.515,2.55
36.531,15.08
36.546,26.2
36.562,35.53
36.578,42.91
36.593,48.22
36.609,51.35
36.625,52.38
36.640,51.75
36.656,50.33
36.671,49.23
36.687,49.45
36.703,51.38
36.718,54.49
36.734,57.47
36.750,58.65
36.765,56.71
36.781,51.16
36.796,42.49
36.812,31.94
36.828,21.25
36.843,12.15
36.859,6.2
36.875,4.53
36.890,7.54
36.906,14.74
36.921,24.56
36.937,34.83
36.953,43.42
36.968,49.16
36.984,52.11
37.000,53.24
37.015,53.51
37.031,52.85
37.046,50.08
37.062,43.48
37.078,32.26
37.093,17.6
37.109,2.95
37.125,-7.06
37.140,-8.34
37.156,0.89
37.171,19.29
37.187,42.84
37.203,66.19
37.218,84.43
37.234,94.56
37.250,96.18
37.265,91.18
37.281,82.59
37.296,73.2
37.312,64.38
37.328,55.75
37.343,45.52
37.359,31.48
37.375,12.29
37.390,-11.65
37.406,-37.91
37.421,-62.64
37.437,-81.78
37.453,-92.35
37.468,-93.43
37.484,-86.73
37.500,-76.37
37.515,-67.69
37.531,-65.6
37.546,-72.33
37.562,-86.08
37.578,-100.8
37.593,-107.79
37.609,-98.67
37.625,-68.72
37.640,-19.16
37.656,42.85
37.671,106.72
37.687,162.3
37.703,203.37
37.718,228.93
37.734,241.6
37.750,244.49
37.765,238.52
37.781,221.74
37.796,191.3
37.812,146.29
37.828,89.77
37.843,28.29
37.859,-30.66
37.875,-81.84
37.890,-123.96
37.906,-158.81
37.921,-188.63
37.937,-213.75
37.953,-231.93
37.968,-239.9
37.984,-235.99
38.000,-221.92
38.015,-202.75
38.031,-185.05
38.046,-174.28
38.062,-173.01
38.078,-180.64
38.093,-194.34
38.109,-210.26
38.125,-224.49
38.140,-233.4
38.156,-233.81
38.171,-223.69
38.187,-203.06
38.203,-174.64
38.218,-143.44
38.234,-114.97
38.250,-92.86
38.265,-77.15
38.281,-64.37
38.296,-49.54
38.312,-29.02
38.328,-2.47
38.343,26.96
38.359,54.45
38.375,75.94
38.390,89.75
38.406,96.7
38.421,98.9
38.437,98.18
38.453,95.21
38.468,89.86
38.484,81.99
38.500,72.26
38.515,62.3
38.531,54.12
38.546,49.39
38.562,48.79
38.578,51.86
38.593,57.14
38.609,62.75
38.625,66.87
38.640,68.2
38.656,66.42
38.671,62.15
38.687,56.71
38.703,51.53
38.718,47.6
38.734,45.25
38.750,44.23
38.765,44.1
38.781,44.52
38.796,45.44
38.812,46.79
38.828,48.34
38.843,49.6
38.859,49.93
38.875,48.9
38.890,46.52
38.906,43.19
38.921,39.6
38.937,36.47
38.953,34.38
38.968,33.69
38.984,34.42
39.000,36.24
39.015,38.39
39.031,39.88
39.046,39.78
39.062,37.58
39.078,33.45
39.093,28.1
39.109,22.43
39.125,17.07
39.140,12.22
39.156,7.65
39.171,3.02
39.187,-1.8
39.203,-6.74
39.218,-11.58
39.234,-16.25
39.250,-20.84
39.265,-25.46
39.281,-29.98
39.296,-33.99
39.312,-36.83
39.328,-37.87
39.343,-36.79
39.359,-33.66
39.375,-28.76
39.390,-22.46
39.406,-15.08
39.421,-7.0
39.437,1.1
39.453,8.27
39.468,13.44
39.484,15.85
39.500,15.39
39.515,12.73
39.531,9.02
39.546,5.58
39.562,3.38
39.578,2.95
39.593,4.38
39.609,7.5
39.625,11.74
39.640,16.28
39.656,20.05
39.671,21.96
39.687,21.37
39.703,18.31
39.718,13.54
39.734,8.18
39.750,3.29
39.765,-0.49
39.781,-2.99
39.796,-4.3
39.812,-4.64
39.828,-4.24
39.843,-3.44
39.859,-2.88
39.875,-3.32
39.890,-5.47
39.906,-9.53
39.921,-14.99
39.937,-20.77
39.953,-25.6
39.968,-28.37
39.984,-28.44
40.000,-25.7
40.015,-20.4
40.031,-13.05
40.046,-4.42
40.062,4.6
40.078,12.95
40.093,19.66
40.109,24.2
40.125,26.49
40.140,27.04
40.156,26.61
40.171,26.03
40.187,25.96
40.203,26.77
40.218,28.54
40.234,31.02
40.250,33.59
40.265,35.25
40.281,34.92
40.296,31.82
40.312,25.98
40.328,18.31
40.343,10.43
40.359,4.03
40.375,0.29
40.390,-0.56
40.406,0.8
40.421,3.16
40.437,5.31
40.453,6.33
40.468,5.69
40.484,3.25
40.500,-0.92
40.515,-6.45
40.531,-12.74
40.546,-19.06
40.562,-24.62
40.578,-28.93
40.593,-31.86
40.609,-33.68
40.625,-34.81
40.640,-35.58
40.656,-36.11
40.671,-36.23
40.687,-35.74
40.703,-34.36
40.718,-31.94
40.734,-28.39
40.750,-23.76
40.765,-18.23
40.781,-12.09
40.796,-5.84
40.812,0.15
40.828,5.6
40.843,10.56
40.859,15.21
40.875,19.62
40.890,23.58
40.906,26.53
40.921,27.81
40.937,27.02
40.953,24.3
40.968,20.32
40.984,16.06
41.000,12.39
41.015,9.85
41.031,8.56
41.046,8.36
41.062,9.07
41.078,10.44
41.093,12.14
41.109,13.62
41.125,14.2
41.140,13.28
41.156,10.53
41.171,6.22
41.187,1.04
41.203,-4.05
41.218,-8.24
41.234,-10.99
41.250,-12.23
41.265,-12.19
41.281,-11.3
41.296,-10.15
41.312,-9.41
41.328,-9.75
41.343,-11.7
41.359,-15.38
41.375,-20.44
41.390,-25.99
41.406,-30.85
41.421,-33.88
41.437,-34.21
41.453,-31.43
41.468,-25.73
41.484,-17.81
41.500,-8.69
41.515,0.37
41.531,8.21
41.546,14.05
41.562,17.66
41.578,19.32
41.593,19.73
41.609,19.59
41.625,19.42
41.640,19.43
41.656,19.64
41.671,19.97
41.687,20.52
41.703,21.35
41.718,22.39
41.734,23.36
41.750,23.7
41.765,22.85
41.781,20.61
41.796,17.24
41.812,13.43
41.828,10.0
41.843,7.56
41.859,6.34
41.875,6.2
41.890,6.73
41.906,7.46
41.921,7.96
41.937,7.81
41.953,6.64
41.968,4.28
41.984,0.76
42.000,-3.5
42.015,-7.88
42.031,-11.78
42.046,-14.83
42.062,-17.01
42.078,-18.6
42.093,-19.91
42.109,-21.1
42.125,-22.12
42.140,-22.7
42.156,-22.54
42.171,-21.45
42.187,-19.35
42.203,-16.28
42.218,-12.36
42.234,-7.74
42.250,-2.55
42.265,2.99
42.281,8.61
42.296,14.04
42.312,18.96
42.328,23.12
42.343,26.24
42.359,28.09
42.375,28.4
42.390,27.15
42.406,24.51
42.421,20.95
42.437,17.15
42.453,13.75
42.468,11.25
42.484,9.78
42.500,9.24
42.515,9.36
42.531,9.8
42.546,10.2
42.562,10.22
42.578,9.53
42.593,7.88
42.609,5.27
42.625,1.96
42.640,-1.54
42.656,-4.71
42.671,-7.16
42.687,-8.73
42.703,-9.45
42.718,-9.45
42.734,-8.92
42.750,-8.14
42.765,-7.55
42.781,-7.68
42.796,-9.1
42.812,-12.06
42.828,-16.38
42.843,-21.42
42.859,-26.24
42.875,-29.94
42.890,-31.83
42.906,-31.66
42.921,-29.45
42.937,-25.43
42.953,-19.92
42.968,-13.34
42.984,-6.25
43.000,0.64
43.015,6.69
43.031,11.47
43.046,14.86
43.062,17.1
43.078,18.59
43.093,19.71
43.109,20.73
43.125,21.65
43.140,22.35
43.156,22.66
43.171,22.37
43.187,21.33
43.203,19.44
43.218,16.7
43.234,13.37
43.250,9.82
43.265,6.51
43.281,3.82
43.296,1.91
43.312,0.71
43.328,0.02
43.343,-0.37
43.359,-0.65
43.375,-1.03
43.390,-1.79
43.406,-3.3
43.421,-5.87
43.437,-9.56
43.453,-14.11
43.468,-18.98
43.484,-23.52
43.500,-27.23
43.515,-29.9
43.531,-31.63
43.546,-32.66
43.562,-33.29
43.578,-33.82
43.593,-34.58
43.609,-35.82
43.625,-37.68
43.640,-39.98
43.656,-42.08
43.671,-43.05
43.687,-41.9
43.703,-38.0
43.718,-31.39
43.734,-22.73
43.750,-13.09
43.765,-3.6
43.781,4.86
43.796,11.67
43.812,16.49
43.828,19.1
43.843,19.5
43.859,18.02
43.875,15.3
43.890,12.3
43.906,9.88
43.921,8.58
43.937,8.53
43.953,9.44
43.968,10.88
43.984,12.43
44.000,13.72
44.015,14.35
44.031,13.91
44.046,12.03
44.062,8.65
44.078,4.13
44.093,-0.74
44.109,-5.05
44.125,-8.09
44.140,-9.61
44.156,-9.79
44.171,-9.04
44.187,-7.85
44.203,-6.67
44.218,-5.99
44.234,-6.31
44.250,-8.08
44.265,-11.38
44.281,-15.85
44.296,-20.73
44.312,-25.05
44.328,-28.12
44.343,-29.62
44.359,-29.57
44.375,-28.13
44.390,-25.36
44.406,-21.29
44.421,-16.12
44.437,-10.35
44.453,-4.75
44.468,-0.03
44.484,3.49
44.500,6.04
44.515,8.27
44.531,10.76
44.546,13.72
44.562,16.85
44.578,19.64
44.593,21.67
44.609,22.92
44.625,23.62
44.640,24.04
44.656,24.19
44.671,23.79
44.687,22.45
44.703,19.99
44.718,16.7
44.734,13.3
44.750,10.72
44.765,9.81
44.781,11.02
44.796,14.41
44.812,19.63
44.828,25.98
44.843,32.42
44.859,37.46
44.875,39.41
44.890,36.87
44.906,29.52
44.921,18.76
44.937,7.68
44.953,0.11
44.968,-0.71
44.984,6.52
45.000,20.72
45.015,38.87
45.031,57.27
45.046,72.75
45.062,83.33
45.078,88.15
45.093,87.08
45.109,80.26
45.125,68.15
45.140,51.65
45.156,32.27
45.171,11.9
45.187,-7.64
45.203,-25.1
45.218,-39.9
45.234,-51.91
45.250,-61.16
45.265,-67.53
45.281,-70.91
45.296,-71.38
45.312,-69.46
45.328,-66.07
45.343,-62.29
45.359,-58.97
45.375,-56.38
45.390,-54.22
45.406,-51.8
45.421,-48.32
45.437,-43.27
45.453,-36.65
45.468,-28.95
45.484,-21.12
45.500,-14.25
45.515,-9.21
45.531,-6.48
45.546,-5.91
45.562,-6.78
45.578,-8.19
45.593,-9.25
45.609,-9.39
45.625,-8.43
45.640,-6.46
45.656,-3.88
45.671,-1.27
45.687,0.65
45.703,1.19
45.718,-0.14
45.734,-3.3
45.750,-7.62
45.765,-11.91
45.781,-14.79
45.796,-15.11
45.812,-12.33
45.828,-6.59
45.843,1.34
45.859,10.31
45.875,19.14
45.890,26.79
45.906,32.53
45.921,36.08
45.937,37.57
45.953,37.48
45.968,36.43
45.984,34.99
46.000,33.48
46.015,32.01
46.031,30.57
46.046,29.09
46.062,27.61
46.078,26.07
46.093,24.32
46.109,22.03
46.125,18.91
46.140,14.91
46.156,10.29
46.171,5.65
46.187,1.62
46.203,-1.32
46.218,-3.05
46.234,-3.78
46.250,-3.8
46.265,-3.35
46.281,-2.63
46.296,-1.91
46.312,-1.58
46.328,-2.12
46.343,-3.73
46.359,-6.25
46.375,-9.0
46.390,-11.05
46.406,-11.62
46.421,-10.38
46.437,-7.58
46.453,-3.86
46.468,0.06
46.484,3.66
46.500,6.6
46.515,8.6
46.531,9.42
46.546,8.83
46.562,6.76
46.578,3.47
46.593,-0.44
46.609,-4.22
46.625,-7.22
46.640,-9.09
46.656,-9.82
46.671,-9.59
46.687,-8.68
46.703,-7.38
46.718,-6.01
46.734,-5.0
46.750,-4.82
46.765,-5.8
46.781,-8.0
46.796,-11.05
46.812,-14.34
46.828,-17.18
46.843,-19.07
46.859,-19.79
46.875,-19.42
46.890,-18.17
46.906,-16.38
46.921,-14.46
46.937,-12.88
46.953,-12.16
46.968,-12.65
46.984,-14.45
47.000,-17.24
47.015,-20.44
47.031,-23.39
47.046,-25.65
47.062,-27.1
47.078,-27.85
47.093,-28.12
47.109,-28.01
47.125,-27.42
47.140,-26.13
47.156,-23.99
47.171,-21.0
47.187,-17.34
47.203,-13.25
47.218,-8.89
47.234,-4.35
47.250,0.34
47.265,5.09
47.281,9.72
47.296,13.92
47.312,17.29
47.328,19.44
47.343,19.99
47.359,18.75
47.375,15.72
47.390,11.29
47.406,6.12
47.421,1.07
47.437,-3.05
47.453,-5.75
47.468,-6.87
47.484,-6.68
47.500,-5.6
47.515,-4.19
47.531,-3.04
47.546,-2.72
47.562,-3.78
47.578,-6.48
47.593,-10.72
47.609,-15.87
47.625,-20.98
47.640,-24.97
47.656,-27.1
47.671,-27.08
47.687,-25.19
47.703,-22.07
47.718,-18.5
47.734,-15.25
47.750,-12.95
47.765,-12.04
47.781,-12.66
47.796,-14.53
47.812,-16.9
47.828,-18.6
47.843,-18.41
47.859,-15.39
47.875,-9.27
47.890,-0.51
47.906,9.88
47.921,20.72
47.937,30.83
47.953,39.26
47.968,45.23
47.984,48.27
48.000,48.25
48.015,45.53
48.031,41.0
48.046,35.87
48.062,31.35
48.078,28.23
48.093,26.75
48.109,26.57
48.125,27.15
48.140,27.88
48.156,28.27
48.171,27.93
48.187,26.54
48.203,23.88
48.218,19.94
48.234,15.02
48.250,9.69
48.265,4.66
48.281,0.52
48.296,-2.43
48.312,-4.26
48.328,-5.33
48.343,-6.14
48.359,-7.18
48.375,-8.87
48.390,-11.44
48.406,-14.8
48.421,-18.48
48.437,-21.57
48.453,-23.05
48.468,-22.02
48.484,-18.11
48.500,-11.55
48.515,-3.1
48.531,6.21
48.546,15.38
48.562,23.59
48.578,30.21
48.593,34.71
48.609,36.7
48.625,36.09
48.640,33.22
48.656,28.81
48.671,23.89
48.687,19.41
48.703,15.98
48.718,13.77
48.734,12.53
48.750,11.88
48.765,11.35
48.781,10.57
48.796,9.12
48.812,6.69
48.828,3.1
48.843,-1.49
48.859,-6.63
48.875,-11.62
48.890,-15.73
48.906,-18.46
48.921,-19.61
48.937,-19.3
48.953,-17.91
48.968,-15.98
48.984,-14.23
49.000,-13.39
49.015,-14.15
49.031,-16.79
49.046,-21.05
49.062,-26.01
49.078,-30.35
49.093,-32.76
49.109,-32.37
49.125,-28.95
49.140,-22.89
49.156,-15.01
49.171,-6.26
49.187,2.45
49.203,10.28
49.218,16.6
49.234,21.06
49.250,23.61
49.265,24.55
49.281,24.32
49.296,23.36
49.312,21.89
49.328,19.93
49.343,17.38
49.359,14.25
49.375,10.72
49.390,7.08
49.406,3.62
49.421,0.48
49.437,-2.34
49.453,-4.85
49.468,-6.95
49.484,-8.4
49.500,-8.97
49.515,-8.55
49.531,-7.21
49.546,-5.22
49.562,-2.87
49.578,-0.41
49.593,1.91
49.609,3.77
49.625,4.8
49.640,4.64
49.656,3.15
49.671,0.65
49.687,-2.28
49.703,-4.82
49.718,-6.36
49.734,-6.6
49.750,-5.65
49.765,-3.85
49.781,-1.57
49.796,0.79
49.812,2.89
49.828,4.36
49.843,4.84
49.859,4.15
49.875,2.35
49.890,-0.17
49.906,-2.82
49.921,-4.93
49.937,-6.03
49.953,-5.86
49.968,-4.36
49.984,-1.64
50.000,2.0
50.015,6.0
50.031,9.52
50.046,11.52
50.062,11.16
50.078,8.12
50.093,2.91
50.109,-3.27
50.125,-8.83
50.140,-12.37
50.156,-13.07
50.171,-10.83
50.187,-6.2
50.203,-0.23
50.218,5.74
50.234,10.27
50.250,11.98
50.265,9.94
50.281,4.04
50.296,-4.93
50.312,-15.33
50.328,-25.23
50.343,-32.97
50.359,-37.61
50.375,-39.05
50.390,-37.81
50.406,-34.78
50.421,-31.01
50.437,-27.66
50.453,-25.84
50.468,-26.35
50.484,-29.3
50.500,-33.84
50.515,-38.39
50.531,-41.07
50.546,-40.45
50.562,-35.99
50.578,-28.23
50.593,-18.29
50.609,-7.51
50.625,2.98
50.640,12.34
50.656,19.95
50.671,25.38
50.687,28.37
50.703,29.06
50.718,27.89
50.734,25.6
50.750,22.89
50.765,20.28
50.781,17.97
50.796,15.93
50.812,14.12
50.828,12.51
50.843,11.08
50.859,9.67
50.875,8.06
50.890,5.98
50.906,3.29
50.921,0.18
50.937,-2.9
50.953,-5.38
50.968,-6.84
50.984,-7.14
51.000,-6.54
51.015,-5.5
51.031,-4.54
51.046,-4.05
51.062,-4.24
51.078,-5.21
51.093,-6.99
51.109,-9.57
51.125,-12.82
51.140,-16.48
51.156,-20.03
51.171,-22.78
51.187,-24.06
51.203,-23.25
51.218,-20.15
51.234,-14.93
51.250,-8.19
51.265,-0.81
51.281,6.26
51.296,12.27
51.312,16.84
51.328,20.0
51.343,22.12
51.359,23.63
51.375,24.79
51.390,25.68
51.406,26.26
51.421,26.6
51.437,26.84
51.453,27.18
51.468,27.54
51.484,27.56
51.500,26.62
51.515,24.17
51.531,20.11
51.546,14.98
51.562,9.71
51.578,5.31
51.593,2.51
51.609,1.53
51.625,2.16
51.640,3.86
51.656,5.75
51.671,6.76
51.687,5.67
51.703,1.4
51.718,-6.48
51.734,-17.34
51.750,-29.53
51.765,-40.78
51.781,-48.99
51.796,-53.04
51.812,-52.97
51.828,-49.86
51.843,-45.15
51.859,-40.0
51.875,-34.96
51.890,-30.13
51.906,-25.45
51.921,-20.89
51.937,-16.58
51.953,-12.59
51.968,-8.72
51.984,-4.58
52.000,0.27
52.015,6.14
52.031,12.95
52.046,20.22
52.062,27.29
52.078,33.36
52.093,37.73
52.109,39.86
52.125,39.47
52.140,36.7
52.156,32.14
52.171,26.71
52.187,21.44
52.203,17.1
52.218,14.02
52.234,12.04
52.250,10.76
52.265,9.74
52.281,8.65
52.296,7.26
52.312,5.39
52.328,2.86
52.343,-0.39
52.359,-4.27
52.375,-8.42
52.390,-12.34
52.406,-15.59
52.421,-17.86
52.437,-19.17
52.453,-19.69
52.468,-19.72
52.484,-19.6
52.500,-19.77
52.515,-20.67
52.531,-22.7
52.546,-26.03
52.562,-30.41
52.578,-35.26
52.593,-39.74
52.609,-43.02
52.625,-44.48
52.640,-43.76
52.656,-40.8
52.671,-35.69
52.687,-28.81
52.703,-20.74
52.718,-12.33
52.734,-4.47
52.750,2.14
52.765,7.19
52.781,10.86
52.796,13.68
52.812,16.24
52.828,18.93
52.843,21.83
52.859,24.76
52.875,27.35
52.890,29.25
52.906,30.08
52.921,29.52
52.937,27.37
52.953,23.66
52.968,18.73
52.984,13.33
53.000,8.32
53.015,4.43
53.031,2.14
53.046,1.43
53.062,2.02
53.078,3.47
53.093,5.26
53.109,6.85
53.125,7.72
53.140,7.33
53.156,5.35
53.171,1.93
53.187,-2.41
53.203,-6.77
53.218,-10.3
53.234,-12.43
53.250,-13.12
53.265,-12.66
53.281,-11.57
53.296,-10.3
53.312,-9.13
53.328,-8.42
53.343,-8.51
53.359,-9.78
53.375,-12.38
53.390,-16.08
53.406,-20.06
53.421,-23.2
53.437,-24.29
53.453,-22.51
53.468,-17.71
53.484,-10.38
53.500,-1.44
53.515,8.03
53.531,17.01
53.546,24.67
53.562,30.45
53.578,34.11
53.593,35.78
53.609,35.9
53.625,35.16
53.640,34.26
53.656,33.71
53.671,33.69
53.687,34.1
53.703,34.72
53.718,35.29
53.734,35.61
53.750,35.44
53.765,34.48
53.781,32.43
53.796,29.16
53.812,24.87
53.828,20.11
53.843,15.62
53.859,12.04
53.875,9.66
53.890,8.43
53.906,8.01
53.921,7.95
53.937,7.84
53.953,7.29
53.968,5.95
53.984,3.6
54.000,0.13
54.015,-4.27
54.031,-9.05
54.046,-13.55
54.062,-17.16
54.078,-19.54
54.093,-20.72
54.109,-21.05
54.125,-20.98
54.140,-20.98
54.156,-21.43
54.171,-22.52
54.187,-24.22
54.203,-26.29
54.218,-28.12
54.234,-28.88
54.250,-27.78
54.265,-24.34
54.281,-18.6
54.296,-11.08
54.312,-2.63
54.328,5.93
54.343,13.92
54.359,20.87
54.375,26.39
54.390,30.18
54.406,32.0
54.421,31.88
54.437,30.22
54.453,27.66
54.468,24.97
54.484,22.75
54.500,21.25
54.515,20.45
54.531,20.13
54.546,20.07
54.562,20.05
54.578,19.84
54.593,19.17
54.609,17.77
54.625,15.51
54.640,12.53
54.656,9.25
54.671,6.12
54.687,3.55
54.703,1.61
54.718,0.15
54.734,-1.14
54.750,-2.43
54.765,-3.83
54.781,-5.36
54.796,-7.18
54.812,-9.58
54.828,-12.82
54.843,-16.92
54.859,-21.47
54.875,-25.81
54.890,-29.23
54.906,-31.33
54.921,-32.2
54.937,-32.3
54.953,-32.24
54.968,-32.51
54.984,-33.32
55.000,-34.64
55.015,-36.33
55.031,-38.07
55.046,-39.45
55.062,-39.89
55.078,-38.75
55.093,-35.56
55.109,-30.22
55.125,-23.09
55.140,-14.88
55.156,-6.39
55.171,1.64
55.187,8.71
55.203,14.48
55.218,18.73
55.234,21.3
55.250,22.22
55.265,21.72
55.281,20.3
55.296,18.58
55.312,17.07
55.328,15.99
55.343,15.29
55.359,14.77
55.375,14.29
55.390,13.78
55.406,13.2
55.421,12.45
55.437,11.33
55.453,9.64
55.468,7.35
55.484,4.68
55.500,2.12
55.515,0.09
55.531,-1.13
55.546,-1.58
55.562,-1.51
55.578,-1.22
55.593,-0.95
55.609,-0.86
55.625,-1.14
55.640,-2.02
55.656,-3.7
55.671,-6.26
55.687,-9.43
55.703,-12.73
55.718,-15.53
55.734,-17.37
55.750,-18.1
55.765,-17.91
55.781,-17.33
55.796,-16.91
55.812,-17.15
55.828,-18.26
55.843,-20.16
55.859,-22.48
55.875,-24.58
55.890,-25.72
55.906,-25.2
55.921,-22.59
55.937,-17.86
55.953,-11.4
55.968,-3.91
55.984,3.85
56.000,11.24
56.015,17.85
56.031,23.43
56.046,27.81
56.062,30.78
56.078,32.15
56.093,31.9
56.109,30.32
56.125,27.95
56.140,25.43
56.156,23.37
56.171,22.02
56.187,21.42
56.203,21.38
56.218,21.64
56.234,21.87
56.250,21.66
56.265,20.63
56.281,18.45
56.296,15.12
56.312,10.97
56.328,6.63
56.343,2.8
56.359,-0.01
56.375,-1.62
56.390,-2.18
56.406,-1.97
56.421,-1.33
56.437,-0.58
56.453,-0.13
56.468,-0.44
56.484,-1.95
56.500,-4.82
56.515,-8.78
56.531,-13.16
56.546,-17.09
56.562,-19.91
56.578,-21.39
56.593,-21.79
56.609,-21.66
56.625,-21.56
56.640,-21.81
56.656,-22.4
56.671,-23.09
56.687,-23.52
56.703,-23.32
56.718,-22.16
56.734,-19.77
56.750,-15.93
56.765,-10.62
56.781,-4.07
56.796,3.28
56.812,10.85
56.828,17.99
56.843,24.13
56.859,28.85
56.875,31.79
56.890,32.81
56.906,32.01
56.921,29.75
56.937,26.69
56.953,23.57
56.968,21.0
56.984,19.21
57.000,18.11
57.015,17.38
57.031,16.75
57.046,16.09
57.062,15.4
57.078,14.65
57.093,13.64
57.109,12.06
57.125,9.72
57.140,6.68
57.156,3.33
57.171,0.3
57.187,-1.95
57.203,-3.25
57.218,-3.79
57.234,-3.99
57.250,-4.27
57.265,-4.87
57.281,-5.92
57.296,-7.56
57.312,-9.88
57.328,-12.91
57.343,-16.53
57.359,-20.32
57.375,-23.76
57.390,-26.43
57.406,-28.2
57.421,-29.29
57.437,-30.16
57.453,-31.12
57.468,-32.21
57.484,-33.13
57.500,-33.47
57.515,-32.87
57.531,-31.19
57.546,-28.46
57.562,-24.74
57.578,-20.05
57.593,-14.38
57.609,-7.85
57.625,-0.76
57.640,6.4
57.656,13.07
57.671,18.76
57.687,23.07
57.703,25.77
57.718,26.68
57.734,25.82
57.750,23.45
57.765,20.1
57.781,16.53
57.796,13.47
57.812,11.37
57.828,10.24
57.843,9.76
57.859,9.4
57.875,8.8
57.890,7.72
57.906,6.11
57.921,3.91
57.937,1.1
57.953,-2.28
57.968,-6.03
57.984,-9.7
58.000,-12.77
58.015,-14.83
58.031,-15.74
58.046,-15.69
58.062,-15.1
58.078,-14.41
58.093,-13.96
58.109,-13.91
58.125,-14.3
58.140,-15.07
58.156,-16.14
58.171,-17.34
58.187,-18.47
58.203,-19.34
58.218,-19.88
58.234,-20.09
58.250,-20.12
58.265,-20.18
58.281,-20.46
58.296,-21.05
58.312,-21.97
58.328,-23.12
58.343,-24.35
58.359,-25.34
58.375,-25.64
58.390,-24.69
58.406,-21.97
58.421,-17.26
58.437,-10.79
58.453,-3.18
58.468,4.68
58.484,11.93
58.500,18.01
58.515,22.66
58.531,25.8
58.546,27.45
58.562,27.55
58.578,26.21
58.593,23.69
58.609,20.55
58.625,17.47
58.640,15.1
58.656,13.73
58.671,13.37
58.687,13.81
58.703,14.79
58.718,15.98
58.734,17.05
58.750,17.6
58.765,17.17
58.781,15.5
58.796,12.64
58.812,9.05
58.828,5.49
58.843,2.69
58.859,1.04
58.875,0.5
58.890,0.68
58.906,1.1
58.921,1.34
58.937,1.12
58.953,0.26
58.968,-1.35
58.984,-3.8
59.000,-6.98
59.015,-10.58
59.031,-14.09
59.046,-17.0
59.062,-18.96
59.078,-19.95
59.093,-20.22
59.109,-20.03
59.125,-19.55
59.140,-18.69
59.156,-17.21
59.171,-14.98
59.187,-12.05
59.203,-8.6
59.218,-4.86
59.234,-1.0
59.250,3.03
59.265,7.3
59.281,11.84
59.296,16.59
59.312,21.34
59.328,25.81
59.343,29.74
59.359,32.79
59.375,34.57
59.390,34.67
59.406,32.86
59.421,29.27
59.437,24.58
59.453,19.78
59.468,15.94
59.484,13.74
59.500,13.26
59.515,14.05
59.531,15.35
59.546,16.47
59.562,16.9
59.578,16.39
59.593,14.76
59.609,11.99
59.625,8.18
59.640,3.66
59.656,-0.95
59.671,-4.98
59.687,-7.86
59.703,-9.4
59.718,-9.83
59.734,-9.62
59.750,-9.27
59.765,-9.16
59.781,-9.52
59.796,-10.48
59.812,-12.21
59.828,-14.84
59.843,-18.43
59.859,-22.67
59.875,-26.95
59.890,-30.42
59.906,-32.24
59.921,-31.83
59.937,-29.01
59.953,-24.04
59.968,-17.45
59.984,-9.93
