timestamp,value
00.000,-6.76
00.015,-7.92
00.031,-9.19
00.046,-11.08
00.062,-13.82
00.078,-17.33
00.093,-21.18
00.109,-24.75
00.125,-27.23
00.140,-27.87
00.156,-26.15
00.171,-21.81
00.187,-15.11
00.203,-6.74
00.218,2.26
00.234,10.77
00.250,17.82
00.265,22.91
00.281,25.97
00.296,27.32
00.312,27.44
00.328,26.8
00.343,25.78
00.359,24.63
00.375,23.6
00.390,22.75
00.406,22.03
00.421,21.2
00.437,19.94
00.453,18.05
00.468,15.57
00.484,12.82
00.500,10.33
00.515,8.64
00.531,7.99
00.546,8.36
00.562,9.39
00.578,10.54
00.593,11.24
00.609,11.04
00.625,9.73
00.640,7.35
00.656,4.18
00.671,0.58
00.687,-3.01
00.703,-6.25
00.718,-8.87
00.734,-10.76
00.750,-11.94
00.765,-12.58
00.781,-12.97
00.796,-13.44
00.812,-14.34
00.828,-15.89
00.843,-18.17
00.859,-21.05
00.875,-24.21
00.890,-27.22
00.906,-29.59
00.921,-30.91
00.937,-30.8
00.953,-29.1
00.968,-25.77
00.984,-20.99
01.000,-15.11
01.015,-8.49
01.031,-1.55
01.046,5.34
01.062,11.93
01.078,18.06
01.093,23.6
01.109,28.44
01.125,32.38
01.140,35.16
01.156,36.53
01.171,36.32
01.187,34.57
01.203,31.55
01.218,27.83
01.234,24.05
01.250,20.85
01.265,18.67
01.281,17.66
01.296,17.7
01.312,18.44
01.328,19.34
01.343,19.81
01.359,19.39
01.375,17.78
01.390,15.03
01.406,11.5
01.421,7.73
01.437,4.3
01.453,1.62
01.468,-0.17
01.484,-1.22
01.500,-1.92
01.515,-2.72
01.531,-4.05
01.546,-6.18
01.562,-9.12
01.578,-12.59
01.593,-16.1
01.609,-19.04
01.625,-21.0
01.640,-21.89
01.656,-22.01
01.671,-21.97
01.687,-22.45
01.703,-24.03
01.718,-26.95
01.734,-31.07
01.750,-35.88
01.765,-40.64
01.781,-44.41
01.796,-46.31
01.812,-45.66
01.828,-42.09
01.843,-35.77
01.859,-27.33
01.875,-17.76
01.890,-8.15
01.906,0.52
01.921,7.65
01.937,13.07
01.953,16.98
01.968,19.84
01.984,22.11
02.000,24.09
02.015,25.86
02.031,27.23
02.046,27.89
02.062,27.54
02.078,26.05
02.093,23.43
02.109,20.0
02.125,16.22
02.140,12.67
02.156,9.9
02.171,8.21
02.187,7.62
02.203,7.81
02.218,8.27
02.234,8.39
02.250,7.7
02.265,5.92
02.281,3.06
02.296,-0.62
02.312,-4.7
02.328,-8.64
02.343,-11.9
02.359,-14.13
02.375,-15.27
02.390,-15.57
02.406,-15.64
02.421,-16.11
02.437,-17.55
02.453,-20.16
02.468,-23.76
02.484,-27.89
02.500,-31.96
02.515,-35.53
02.531,-38.39
02.546,-40.54
02.562,-42.19
02.578,-43.57
02.593,-44.84
02.609,-45.98
02.625,-46.8
02.640,-46.89
02.656,-45.76
02.671,-42.97
02.687,-38.22
02.703,-31.56
02.718,-23.45
02.734,-14.67
02.750,-6.17
02.765,1.2
02.781,6.91
02.796,10.86
02.812,13.24
02.828,14.48
02.843,15.03
02.859,15.24
02.875,15.26
02.890,15.17
02.906,14.89
02.921,14.39
02.937,13.56
02.953,12.34
02.968,10.77
02.984,8.96
03.000,7.17
03.015,5.7
03.031,4.89
03.046,4.88
03.062,5.67
03.078,6.96
03.093,8.33
03.109,9.26
03.125,9.34
03.140,8.41
03.156,6.56
03.171,4.16
03.187,1.67
03.203,-0.44
03.218,-1.86
03.234,-2.49
03.250,-2.41
03.265,-1.9
03.281,-1.33
03.296,-1.1
03.312,-1.54
03.328,-2.87
03.343,-5.03
03.359,-7.7
03.375,-10.37
03.390,-12.37
03.406,-13.16
03.421,-12.31
03.437,-9.68
03.453,-5.31
03.468,0.51
03.484,7.33
03.500,14.62
03.515,21.78
03.531,28.36
03.546,34.01
03.562,38.64
03.578,42.3
03.593,45.04
03.609,46.77
03.625,47.21
03.640,45.98
03.656,42.77
03.671,37.55
03.687,30.66
03.703,22.8
03.718,14.79
03.734,7.45
03.750,1.44
03.765,-2.96
03.781,-5.67
03.796,-6.95
03.812,-7.19
03.828,-6.87
03.843,-6.43
03.859,-6.24
03.875,-6.52
03.890,-7.32
03.906,-8.57
03.921,-10.14
03.937,-11.85
03.953,-13.55
03.968,-15.08
03.984,-16.36
04.000,-17.4
04.015,-18.38
04.031,-19.54
04.046,-21.12
04.062,-23.25
04.078,-25.84
04.093,-28.58
04.109,-31.09
04.125,-33.01
04.140,-34.14
04.156,-34.4
04.171,-33.77
04.187,-32.23
04.203,-29.65
04.218,-25.93
04.234,-21.05
04.250,-15.15
04.265,-8.53
04.281,-1.53
04.296,5.46
04.312,12.1
04.328,18.09
04.343,23.18
04.359,27.08
04.375,29.65
04.390,30.84
04.406,30.8
04.421,29.86
04.437,28.43
04.453,26.93
04.468,25.73
04.484,24.99
04.500,24.67
04.515,24.42
04.531,23.72
04.546,21.98
04.562,18.81
04.578,14.18
04.593,8.47
04.609,2.38
04.625,-3.33
04.640,-8.04
04.656,-11.52
04.671,-13.83
04.687,-15.27
04.703,-16.19
04.718,-16.9
04.734,-17.58
04.750,-18.33
04.765,-19.19
04.781,-20.11
04.796,-21.04
04.812,-21.83
04.828,-22.35
04.843,-22.5
04.859,-22.27
04.875,-21.78
04.890,-21.21
04.906,-20.68
04.921,-20.23
04.937,-19.61
04.953,-18.46
04.968,-16.32
04.984,-12.87
05.000,-8.01
05.015,-1.91
05.031,4.94
05.046,11.94
05.062,18.44
05.078,23.92
05.093,27.96
05.109,30.35
05.125,31.03
05.140,30.15
05.156,28.12
05.171,25.48
05.187,22.84
05.203,20.76
05.218,19.59
05.234,19.32
05.250,19.69
05.265,20.18
05.281,20.28
05.296,19.58
05.312,17.96
05.328,15.54
05.343,12.69
05.359,9.9
05.375,7.53
05.390,5.79
05.406,4.65
05.421,3.83
05.437,2.95
05.453,1.63
05.468,-0.37
05.484,-3.12
05.500,-6.49
05.515,-10.21
05.531,-13.89
05.546,-17.07
05.562,-19.43
05.578,-20.84
05.593,-21.46
05.609,-21.72
05.625,-22.22
05.640,-23.5
05.656,-25.75
05.671,-28.66
05.687,-31.47
05.703,-33.14
05.718,-32.7
05.734,-29.53
05.750,-23.55
05.765,-15.28
05.781,-5.72
05.796,3.96
05.812,12.65
05.828,19.54
05.843,24.25
05.859,26.82
05.875,27.6
05.890,27.17
05.906,26.11
05.921,24.95
05.937,24.02
05.953,23.49
05.968,23.21
05.984,22.86
06.000,22.04
06.015,20.37
06.031,17.75
06.046,14.38
06.062,10.77
06.078,7.58
06.093,5.4
06.109,4.47
06.125,4.72
06.140,5.71
06.156,6.85
06.171,7.54
06.187,7.31
06.203,5.9
06.218,3.32
06.234,-0.25
06.250,-4.45
06.265,-8.88
06.281,-13.24
06.296,-17.4
06.312,-21.41
06.328,-25.47
06.343,-29.77
06.359,-34.39
06.375,-39.22
06.390,-44.07
06.406,-48.59
06.421,-52.37
06.437,-54.91
06.453,-55.62
06.468,-53.9
06.484,-49.45
06.500,-42.36
06.515,-33.3
06.531,-23.38
06.546,-13.85
06.562,-5.74
06.578,0.47
06.593,4.87
06.609,7.99
06.625,10.46
06.640,12.76
06.656,15.06
06.671,17.24
06.687,18.98
06.703,19.99
06.718,20.09
06.734,19.29
06.750,17.75
06.765,15.75
06.781,13.66
06.796,11.77
06.812,10.33
06.828,9.52
06.843,9.31
06.859,9.58
06.875,10.1
06.890,10.5
06.906,10.45
06.921,9.67
06.937,8.05
06.953,5.6
06.968,2.65
06.984,-0.42
07.000,-3.17
07.015,-5.29
07.031,-6.63
07.046,-7.34
07.062,-7.7
07.078,-8.07
07.093,-8.77
07.109,-9.96
07.125,-11.65
07.140,-13.7
07.156,-15.8
07.171,-17.45
07.187,-18.17
07.203,-17.46
07.218,-15.05
07.234,-10.93
07.250,-5.41
07.265,1.0
07.281,7.78
07.296,14.45
07.312,20.74
07.328,26.47
07.343,31.56
07.359,35.88
07.375,39.29
07.390,41.62
07.406,42.71
07.421,42.44
07.437,40.85
07.453,38.04
07.468,34.29
07.484,30.11
07.500,26.05
07.515,22.66
07.531,20.34
07.546,19.2
07.562,19.05
07.578,19.44
07.593,19.83
07.609,19.7
07.625,18.77
07.640,16.95
07.656,14.33
07.671,11.21
07.687,7.93
07.703,4.89
07.718,2.42
07.734,0.7
07.750,-0.27
07.765,-0.7
07.781,-1.02
07.796,-1.68
07.812,-3.04
07.828,-5.25
07.843,-8.2
07.859,-11.63
07.875,-15.23
07.890,-18.71
07.906,-21.78
07.921,-24.21
07.937,-25.64
07.953,-25.73
07.968,-24.26
07.984,-21.15
08.000,-16.57
08.015,-10.87
08.031,-4.49
08.046,2.19
08.062,8.82
08.078,15.13
08.093,20.86
08.109,25.75
08.125,29.57
08.140,32.11
08.156,33.17
08.171,32.64
08.187,30.59
08.203,27.28
08.218,23.23
08.234,19.04
08.250,15.32
08.265,12.51
08.281,10.8
08.296,10.1
08.312,10.11
08.328,10.51
08.343,10.92
08.359,11.06
08.375,10.65
08.390,9.48
08.406,7.49
08.421,4.84
08.437,1.91
08.453,-0.81
08.468,-2.89
08.484,-4.13
08.500,-4.62
08.515,-4.77
08.531,-5.1
08.546,-6.09
08.562,-7.98
08.578,-10.71
08.593,-13.99
08.609,-17.37
08.625,-20.47
08.640,-23.04
08.656,-25.05
08.671,-26.63
08.687,-27.98
08.703,-29.18
08.718,-30.14
08.734,-30.56
08.750,-30.04
08.765,-28.21
08.781,-24.88
08.796,-20.04
08.812,-13.87
08.828,-6.72
08.843,0.95
08.859,8.62
08.875,15.72
08.890,21.68
08.906,26.0
08.921,28.41
08.937,28.92
08.953,27.78
08.968,25.45
08.984,22.49
09.000,19.42
09.015,16.62
09.031,14.33
09.046,12.59
09.062,11.38
09.078,10.53
09.093,9.78
09.109,8.88
09.125,7.62
09.140,5.93
09.156,3.86
09.171,1.61
09.187,-0.61
09.203,-2.61
09.218,-4.34
09.234,-5.88
09.250,-7.36
09.265,-8.98
09.281,-10.84
09.296,-13.04
09.312,-15.58
09.328,-18.44
09.343,-21.51
09.359,-24.64
09.375,-27.56
09.390,-30.0
09.406,-31.81
09.421,-33.05
09.437,-34.03
09.453,-35.15
09.468,-36.8
09.484,-39.12
09.500,-41.89
09.515,-44.53
09.531,-46.24
09.546,-46.25
09.562,-43.95
09.578,-39.19
09.593,-32.3
09.609,-23.99
09.625,-15.24
09.640,-7.03
09.656,-0.11
09.671,5.2
09.687,8.89
09.703,11.29
09.718,12.82
09.734,13.76
09.750,14.31
09.765,14.54
09.781,14.46
09.796,14.11
09.812,13.59
09.828,12.92
09.843,12.06
09.859,10.96
09.875,9.58
09.890,8.02
09.906,6.45
09.921,5.13
09.937,4.29
09.953,4.04
09.968,4.29
09.984,4.81
10.000,5.26
10.015,5.29
10.031,4.66
10.046,3.22
10.062,0.99
10.078,-1.82
10.093,-4.85
10.109,-7.64
10.125,-9.75
10.140,-10.9
10.156,-11.03
10.171,-10.32
10.187,-9.24
10.203,-8.28
10.218,-7.96
10.234,-8.6
10.250,-10.31
10.265,-12.81
10.281,-15.49
10.296,-17.53
10.312,-17.99
10.328,-16.15
10.343,-11.76
10.359,-5.14
10.375,2.91
10.390,11.29
10.406,18.99
10.421,25.34
10.437,30.04
10.453,33.24
10.468,35.26
10.484,36.5
10.500,37.24
10.515,37.62
10.531,37.7
10.546,37.44
10.562,36.82
10.578,35.81
10.593,34.39
10.609,32.53
10.625,30.27
10.640,27.74
10.656,25.25
10.671,23.23
10.687,22.07
10.703,21.99
10.718,22.81
10.734,24.01
10.750,24.86
10.765,24.71
10.781,23.27
10.796,20.68
10.812,17.42
10.828,14.1
10.843,11.27
10.859,9.2
10.875,8.03
10.890,7.66
10.906,7.86
10.921,8.36
10.937,8.85
10.953,9.04
10.968,8.71
10.984,7.76
11.000,6.27
11.015,4.47
11.031,2.72
11.046,1.35
11.062,0.62
11.078,0.6
11.093,1.2
11.109,2.16
11.125,3.12
11.140,3.81
11.156,4.02
11.171,3.72
11.187,2.94
11.203,1.86
11.218,0.66
11.234,-0.46
11.250,-1.33
11.265,-1.83
11.281,-1.93
11.296,-1.76
11.312,-1.51
11.328,-1.45
11.343,-1.73
11.359,-2.41
11.375,-3.44
11.390,-4.7
11.406,-6.05
11.421,-7.4
11.437,-8.64
11.453,-9.69
11.468,-10.47
11.484,-10.97
11.500,-11.33
11.515,-11.83
11.531,-12.9
11.546,-14.95
11.562,-18.26
11.578,-22.78
11.593,-28.16
11.609,-33.77
11.625,-38.95
11.640,-43.17
11.656,-46.19
11.671,-48.13
11.687,-49.33
11.703,-50.29
11.718,-51.36
11.734,-52.66
11.750,-53.97
11.765,-54.86
11.781,-54.68
11.796,-52.87
11.812,-48.97
11.828,-42.79
11.843,-34.51
11.859,-24.66
11.875,-14.1
11.890,-3.78
11.906,5.37
11.921,12.72
11.937,17.99
11.953,21.27
11.968,22.89
11.984,23.24
12.000,22.73
12.015,21.67
12.031,20.31
12.046,18.87
12.062,17.48
12.078,16.2
12.093,14.92
12.109,13.49
12.125,11.78
12.140,9.8
12.156,7.7
12.171,5.76
12.187,4.19
12.203,3.06
12.218,2.28
12.234,1.5
12.250,0.35
12.265,-1.47
12.281,-4.07
12.296,-7.37
12.312,-11.1
12.328,-14.93
12.343,-18.58
12.359,-21.76
12.375,-24.4
12.390,-26.47
12.406,-28.1
12.421,-29.51
12.437,-30.9
12.453,-32.4
12.468,-33.92
12.484,-35.24
12.500,-35.92
12.515,-35.46
12.531,-33.44
12.546,-29.66
12.562,-24.17
12.578,-17.32
12.593,-9.75
12.609,-2.19
12.625,4.59
12.640,10.02
12.656,13.77
12.671,15.78
12.687,16.24
12.703,15.44
12.718,13.81
12.734,11.75
12.750,9.65
12.765,7.79
12.781,6.32
12.796,5.22
12.812,4.34
12.828,3.47
12.843,2.47
12.859,1.35
12.875,0.14
12.890,-0.97
12.906,-1.9
12.921,-2.6
12.937,-3.12
12.953,-3.5
12.968,-3.81
12.984,-4.14
13.000,-4.57
13.015,-5.24
13.031,-6.27
13.046,-7.79
13.062,-9.83
13.078,-12.36
13.093,-15.28
13.109,-18.43
13.125,-21.58
13.140,-24.34
13.156,-26.23
13.171,-26.73
13.187,-25.46
13.203,-22.29
13.218,-17.42
13.234,-11.36
13.250,-4.76
13.265,1.77
13.281,7.8
13.296,13.18
13.312,17.88
13.328,21.94
13.343,25.32
13.359,27.91
13.375,29.51
13.390,30.05
13.406,29.53
13.421,28.13
13.437,26.16
13.453,23.99
13.468,21.96
13.484,20.35
13.500,19.27
13.515,18.69
13.531,18.52
13.546,18.56
13.562,18.61
13.578,18.46
13.593,17.88
13.609,16.76
13.625,15.04
13.640,12.85
13.656,10.49
13.671,8.31
13.687,6.59
13.703,5.38
13.718,4.47
13.734,3.41
13.750,1.73
13.765,-0.9
13.781,-4.55
13.796,-9.05
13.812,-13.95
13.828,-18.64
13.843,-22.37
13.859,-24.34
13.875,-23.9
13.890,-20.69
13.906,-14.88
13.921,-7.16
13.937,1.34
13.953,9.53
13.968,16.5
13.984,21.86
14.000,25.63
14.015,28.07
14.031,29.46
14.046,30.02
14.062,29.94
14.078,29.37
14.093,28.5
14.109,27.45
14.125,26.27
14.140,24.82
14.156,22.85
14.171,20.16
14.187,16.76
14.203,12.89
14.218,9.02
14.234,5.68
14.250,3.27
14.265,1.93
14.281,1.45
14.296,1.33
14.312,0.99
14.328,-0.1
14.343,-2.17
14.359,-5.15
14.375,-8.71
14.390,-12.42
14.406,-15.91
14.421,-18.95
14.437,-21.54
14.453,-23.79
14.468,-25.9
14.484,-27.97
14.500,-29.91
14.515,-31.41
14.531,-31.98
14.546,-31.12
14.562,-28.45
14.578,-23.89
14.593,-17.59
14.609,-9.95
14.625,-1.49
14.640,7.24
14.656,15.69
14.671,23.27
14.687,29.43
14.703,33.73
14.718,36.01
14.734,36.36
14.750,35.21
14.765,33.14
14.781,30.69
14.796,28.33
14.812,26.26
14.828,24.56
14.843,23.15
14.859,21.93
14.875,20.65
14.890,19.07
14.906,16.98
14.921,14.24
14.937,10.97
14.953,7.45
14.968,4.13
14.984,1.34
15.000,-0.71
15.015,-2.18
15.031,-3.4
15.046,-4.73
15.062,-6.44
15.078,-8.55
15.093,-10.94
15.109,-13.4
15.125,-15.76
15.140,-18.0
15.156,-20.22
15.171,-22.57
15.187,-25.11
15.203,-27.82
15.218,-30.45
15.234,-32.63
15.250,-33.87
15.265,-33.61
15.281,-31.42
15.296,-26.97
15.312,-20.25
15.328,-11.57
15.343,-1.63
15.359,8.68
15.375,18.36
15.390,26.66
15.406,33.1
15.421,37.49
15.437,39.93
15.453,40.6
15.468,39.82
15.484,37.95
15.500,35.45
15.515,32.79
15.531,30.35
15.546,28.34
15.562,26.6
15.578,24.86
15.593,22.74
15.609,20.07
15.625,16.98
15.640,13.86
15.656,11.24
15.671,9.44
15.687,8.61
15.703,8.52
15.718,8.83
15.734,9.09
15.750,8.95
15.765,8.19
15.781,6.75
15.796,4.76
15.812,2.48
15.828,0.35
15.843,-1.22
15.859,-1.92
15.875,-1.79
15.890,-1.1
15.906,-0.36
15.921,-0.09
15.937,-0.57
15.953,-1.88
15.968,-3.82
15.984,-6.05
16.000,-8.19
16.015,-9.88
16.031,-10.81
16.046,-10.82
16.062,-9.89
16.078,-8.21
16.093,-6.21
16.109,-4.41
16.125,-3.32
16.140,-3.24
16.156,-4.13
16.171,-5.64
16.187,-7.2
16.203,-8.27
16.218,-8.5
16.234,-7.9
16.250,-6.78
16.265,-5.69
16.281,-5.19
16.296,-5.64
16.312,-7.13
16.328,-9.45
16.343,-12.16
16.359,-14.75
16.375,-16.72
16.390,-17.76
16.406,-17.77
16.421,-16.87
16.437,-15.39
16.453,-13.75
16.468,-12.4
16.484,-11.68
16.500,-11.79
16.515,-12.68
16.531,-14.16
16.546,-15.89
16.562,-17.53
16.578,-18.78
16.593,-19.52
16.609,-19.8
16.625,-19.88
16.640,-20.12
16.656,-20.91
16.671,-22.58
16.687,-25.27
16.703,-28.9
16.718,-33.09
16.734,-37.22
16.750,-40.44
16.765,-41.89
16.781,-40.8
16.796,-36.77
16.812,-29.89
16.828,-20.79
16.843,-10.52
16.859,-0.32
16.875,8.74
16.890,16.02
16.906,21.39
16.921,25.09
16.937,27.51
16.953,28.97
16.968,29.6
16.984,29.47
17.000,28.61
17.015,27.16
17.031,25.31
17.046,23.27
17.062,21.14
17.078,18.96
17.093,16.77
17.109,14.73
17.125,13.12
17.140,12.23
17.156,12.26
17.171,13.12
17.187,14.44
17.203,15.71
17.218,16.35
17.234,15.94
17.250,14.32
17.265,11.63
17.281,8.31
17.296,4.92
17.312,2.0
17.328,-0.11
17.343,-1.31
17.359,-1.78
17.375,-1.9
17.390,-2.18
17.406,-3.12
17.421,-5.05
17.437,-8.07
17.453,-11.93
17.468,-16.04
17.484,-19.63
17.500,-21.85
17.515,-22.02
17.531,-19.75
17.546,-15.15
17.562,-8.7
17.578,-1.23
17.593,6.38
17.609,13.29
17.625,18.96
17.640,23.19
17.656,26.02
17.671,27.66
17.687,28.35
17.703,28.26
17.718,27.48
17.734,26.12
17.750,24.22
17.765,21.84
17.781,19.03
17.796,15.74
17.812,12.07
17.828,8.25
17.843,4.69
17.859,1.9
17.875,0.35
17.890,0.22
17.906,1.33
17.921,3.19
17.937,4.99
17.953,5.97
17.968,5.55
17.984,3.52
18.000,0.06
18.015,-4.31
18.031,-8.91
18.046,-13.07
18.062,-16.26
18.078,-18.3
18.093,-19.36
18.109,-19.87
18.125,-20.44
18.140,-21.58
18.156,-23.59
18.171,-26.41
18.187,-29.59
18.203,-32.36
18.218,-33.86
18.234,-33.27
18.250,-30.1
18.265,-24.26
18.281,-16.13
18.296,-6.54
18.312,3.38
18.328,12.46
18.343,19.75
18.359,24.74
18.375,27.49
18.390,28.43
18.406,28.14
18.421,27.23
18.437,26.05
18.453,24.79
18.468,23.51
18.484,22.2
18.500,20.8
18.515,19.21
18.531,17.33
18.546,15.09
18.562,12.53
18.578,9.89
18.593,7.51
18.609,5.8
18.625,4.99
18.640,5.12
18.656,5.9
18.671,6.86
18.687,7.47
18.703,7.36
18.718,6.34
18.734,4.45
18.750,1.84
18.765,-1.36
18.781,-4.93
18.796,-8.63
18.812,-12.16
18.828,-15.25
18.843,-17.71
18.859,-19.51
18.875,-20.91
18.890,-22.31
18.906,-24.22
18.921,-26.99
18.937,-30.65
18.953,-34.84
18.968,-38.82
18.984,-41.62
19.000,-42.31
19.015,-40.22
19.031,-35.18
19.046,-27.59
19.062,-18.25
19.078,-8.2
19.093,1.55
19.109,10.15
19.125,17.08
19.140,22.1
19.156,25.25
19.171,26.84
19.187,27.32
19.203,27.25
19.218,27.01
19.234,26.81
19.250,26.59
19.265,26.07
19.281,24.92
19.296,22.88
19.312,19.93
19.328,16.26
19.343,12.3
19.359,8.51
19.375,5.32
19.390,3.05
19.406,1.78
19.421,1.34
19.437,1.37
19.453,1.37
19.468,0.92
19.484,-0.24
19.500,-2.12
19.515,-4.58
19.531,-7.32
19.546,-10.1
19.562,-12.75
19.578,-15.17
19.593,-17.32
19.609,-19.19
19.625,-20.76
19.640,-22.11
19.656,-23.34
19.671,-24.59
19.687,-26.09
19.703,-27.95
19.718,-30.18
19.734,-32.73
19.750,-35.45
19.765,-38.19
19.781,-40.75
19.796,-42.8
19.812,-43.89
19.828,-43.53
19.843,-41.27
19.859,-36.86
19.875,-30.49
19.890,-22.74
19.906,-14.4
19.921,-6.26
19.937,1.15
19.953,7.64
19.968,13.25
19.984,18.08
20.000,22.22
20.015,25.54
20.031,27.92
20.046,29.24
20.062,29.4
20.078,28.44
20.093,26.46
20.109,23.66
20.125,20.36
20.140,16.97
20.156,13.93
20.171,11.65
20.187,10.38
20.203,10.15
20.218,10.76
20.234,11.88
20.250,13.07
20.265,13.91
20.281,14.03
20.296,13.25
20.312,11.59
20.328,9.35
20.343,6.96
20.359,4.86
20.375,3.36
20.390,2.48
20.406,2.03
20.421,1.65
20.437,1.04
20.453,0.01
20.468,-1.46
20.484,-3.29
20.500,-5.36
20.515,-7.55
20.531,-9.79
20.546,-12.0
20.562,-14.13
20.578,-16.04
20.593,-17.51
20.609,-18.22
20.625,-17.84
20.640,-16.07
20.656,-12.81
20.671,-8.22
20.687,-2.65
20.703,3.48
20.718,9.69
20.734,15.69
20.750,21.29
20.765,26.31
20.781,30.6
20.796,33.98
20.812,36.24
20.828,37.24
20.843,36.93
20.859,35.35
20.875,32.73
20.890,29.4
20.906,25.79
20.921,22.32
20.937,19.37
20.953,17.19
20.968,15.9
20.984,15.44
21.000,15.68
21.015,16.33
21.031,17.06
21.046,17.4
21.062,16.98
21.078,15.55
21.093,13.14
21.109,10.05
21.125,6.73
21.140,3.62
21.156,0.97
21.171,-1.13
21.187,-2.86
21.203,-4.41
21.218,-5.99
21.234,-7.76
21.250,-9.79
21.265,-12.05
21.281,-14.48
21.296,-16.95
21.312,-19.3
21.328,-21.47
21.343,-23.48
21.359,-25.43
21.375,-27.44
21.390,-29.44
21.406,-31.16
21.421,-32.13
21.437,-31.81
21.453,-29.75
21.468,-25.76
21.484,-20.0
21.500,-12.88
21.515,-5.04
21.531,2.9
21.546,10.41
21.562,17.07
21.578,22.6
21.593,26.78
21.609,29.44
21.625,30.52
21.640,30.11
21.656,28.46
21.671,26.01
21.687,23.21
21.703,20.52
21.718,18.2
21.734,16.36
21.750,14.93
21.765,13.79
21.781,12.87
21.796,12.14
21.812,11.58
21.828,11.11
21.843,10.56
21.859,9.68
21.875,8.28
21.890,6.32
21.906,3.99
21.921,1.64
21.937,-0.41
21.953,-1.96
21.968,-3.06
21.984,-3.89
22.000,-4.74
22.015,-5.84
22.031,-7.33
22.046,-9.26
22.062,-11.56
22.078,-14.07
22.093,-16.57
22.109,-18.88
22.125,-20.84
22.140,-22.42
22.156,-23.76
22.171,-25.1
22.187,-26.74
22.203,-28.83
22.218,-31.36
22.234,-34.02
22.250,-36.3
22.265,-37.5
22.281,-36.96
22.296,-34.18
22.312,-29.01
22.328,-21.7
22.343,-12.84
22.359,-3.27
22.375,6.07
22.390,14.35
22.406,20.96
22.421,25.61
22.437,28.33
22.453,29.41
22.468,29.31
22.484,28.51
22.500,27.41
22.515,26.27
22.531,25.23
22.546,24.31
22.562,23.47
22.578,22.65
22.593,21.76
22.609,20.72
22.625,19.4
22.640,17.8
22.656,15.94
22.671,14.02
22.687,12.18
22.703,10.63
22.718,9.43
22.734,8.56
22.750,7.86
22.765,7.08
22.781,6.01
22.796,4.49
22.812,2.5
22.828,0.05
22.843,-2.67
22.859,-5.47
22.875,-8.2
22.890,-10.72
22.906,-13.03
22.921,-15.12
22.937,-17.04
22.953,-18.81
22.968,-20.52
22.984,-22.22
23.000,-23.98
23.015,-25.92
23.031,-28.11
23.046,-30.57
23.062,-33.23
23.078,-35.93
23.093,-38.49
23.109,-40.69
23.125,-42.3
23.140,-43.0
23.156,-42.42
23.171,-40.15
23.187,-35.97
23.203,-29.94
23.218,-22.5
23.234,-14.38
23.250,-6.35
23.265,0.92
23.281,7.15
23.296,12.25
23.312,16.38
23.328,19.63
23.343,22.04
23.359,23.54
23.375,24.06
23.390,23.6
23.406,22.21
23.421,20.02
23.437,17.26
23.453,14.24
23.468,11.26
23.484,8.63
23.500,6.56
23.515,5.08
23.531,4.15
23.546,3.6
23.562,3.24
23.578,2.87
23.593,2.33
23.609,1.53
23.625,0.49
23.640,-0.67
23.656,-1.77
23.671,-2.61
23.687,-3.08
23.703,-3.21
23.718,-3.19
23.734,-3.25
23.750,-3.68
23.765,-4.66
23.781,-6.32
23.796,-8.69
23.812,-11.67
23.828,-15.01
23.843,-18.35
23.859,-21.28
23.875,-23.44
23.890,-24.64
23.906,-24.91
23.921,-24.51
23.937,-23.82
23.953,-23.22
23.968,-22.97
23.984,-23.13
24.000,-23.53
24.015,-23.79
24.031,-23.35
24.046,-21.62
24.062,-18.16
24.078,-12.85
24.093,-6.03
24.109,1.61
24.125,9.21
24.140,15.96
24.156,21.36
24.171,25.24
24.187,27.66
24.203,28.83
24.218,28.93
24.234,28.13
24.250,26.63
24.265,24.75
24.281,22.87
24.296,21.36
24.312,20.46
24.328,20.2
24.343,20.46
24.359,21.04
24.375,21.7
24.390,22.27
24.406,22.6
24.421,22.58
24.437,22.12
24.453,21.21
24.468,19.89
24.484,18.31
24.500,16.7
24.515,15.24
24.531,14.06
24.546,13.04
24.562,11.94
24.578,10.43
24.593,8.29
24.609,5.45
24.625,2.06
24.640,-1.57
24.656,-5.1
24.671,-8.27
24.687,-10.98
24.703,-13.2
24.718,-15.04
24.734,-16.63
24.750,-18.25
24.765,-20.13
24.781,-22.46
24.796,-25.16
24.812,-27.82
24.828,-29.71
24.843,-29.92
24.859,-27.78
24.875,-23.03
24.890,-15.97
24.906,-7.42
24.921,1.57
24.937,9.94
24.953,16.96
24.968,22.23
24.984,25.68
25.000,27.42
25.015,27.66
25.031,26.71
25.046,24.99
25.062,22.96
25.078,21.03
25.093,19.46
25.109,18.28
25.125,17.3
25.140,16.22
25.156,14.86
25.171,13.14
25.187,11.15
25.203,9.12
25.218,7.28
25.234,5.81
25.250,4.78
25.265,4.18
25.281,3.9
25.296,3.83
25.312,3.78
25.328,3.58
25.343,3.08
25.359,2.16
25.375,0.71
25.390,-1.31
25.406,-3.86
25.421,-6.8
25.437,-9.93
25.453,-12.95
25.468,-15.6
25.484,-17.75
25.500,-19.41
25.515,-20.79
25.531,-22.25
25.546,-24.16
25.562,-26.72
25.578,-29.89
25.593,-33.28
25.609,-36.21
25.625,-37.87
25.640,-37.53
25.656,-34.74
25.671,-29.42
25.687,-21.93
25.703,-12.95
25.718,-3.36
25.734,5.93
25.750,14.12
25.765,20.64
25.781,25.17
25.796,27.67
25.812,28.36
25.828,27.69
25.843,26.23
25.859,24.54
25.875,23.09
25.890,22.02
25.906,21.27
25.921,20.59
25.937,19.73
25.953,18.51
25.968,17.0
25.984,15.32
26.000,13.67
26.015,12.17
26.031,10.91
26.046,9.83
26.062,8.88
26.078,7.97
26.093,6.98
26.109,5.86
26.125,4.59
26.140,3.23
26.156,1.8
26.171,0.31
26.187,-1.26
26.203,-2.93
26.218,-4.72
26.234,-6.6
26.250,-8.46
26.265,-10.2
26.281,-11.74
26.296,-13.02
26.312,-14.0
26.328,-14.7
26.343,-15.18
26.359,-15.62
26.375,-16.25
26.390,-17.25
26.406,-18.64
26.421,-20.09
26.437,-20.95
26.453,-20.43
26.468,-17.78
26.484,-12.57
26.500,-4.72
26.515,5.4
26.531,17.12
26.546,29.55
26.562,41.72
26.578,52.83
26.593,62.39
26.609,70.34
26.625,77.0
26.640,82.99
26.656,88.87
26.671,95.04
26.687,101.65
26.703,108.66
26.718,115.96
26.734,123.5
26.750,131.24
26.765,139.21
26.781,147.51
26.796,156.26
26.812,165.68
26.828,175.97
26.843,187.17
26.859,199.14
26.875,211.46
26.890,223.62
26.906,235.16
26.921,245.81
26.937,255.59
26.953,264.72
26.968,273.43
26.984,281.56
27.000,288.34
27.015,292.32
27.031,291.62
27.046,284.65
27.062,270.77
27.078,250.83
27.093,227.01
27.109,201.95
27.125,177.66
27.140,154.74
27.156,132.26
27.171,108.61
27.187,82.54
27.203,54.03
27.218,24.42
27.234,-4.26
27.250,-30.27
27.265,-53.09
27.281,-73.54
27.296,-93.41
27.312,-114.47
27.328,-137.95
27.343,-164.2
27.359,-192.82
27.375,-222.77
27.390,-252.37
27.406,-279.2
27.421,-300.15
27.437,-312.15
27.453,-313.48
27.468,-305.21
27.484,-291.72
27.500,-279.39
27.515,-273.92
27.531,-277.66
27.546,-288.33
27.562,-300.18
27.578,-306.91
27.593,-304.71
27.609,-293.55
27.625,-276.31
27.640,-256.39
27.656,-235.56
27.671,-213.48
27.687,-188.68
27.703,-160.33
27.718,-129.35
27.734,-98.17
27.750,-69.26
27.765,-43.85
27.781,-21.38
27.796,-0.29
27.812,20.76
27.828,41.86
27.843,61.71
27.859,78.17
27.875,89.41
27.890,94.75
27.906,94.92
27.921,91.54
27.937,86.23
27.953,79.87
27.968,72.32
27.984,62.87
28.000,50.92
28.015,36.78
28.031,21.89
28.046,8.65
28.062,-0.25
28.078,-2.54
28.093,3.19
28.109,17.11
28.125,38.18
28.140,64.34
28.156,92.93
28.171,121.15
28.187,146.44
28.203,166.72
28.218,180.37
28.234,186.28
28.250,183.75
28.265,172.72
28.281,153.96
28.296,129.22
28.312,101.21
28.328,73.05
28.343,47.76
28.359,27.59
28.375,13.51
28.390,5.09
28.406,0.62
28.421,-2.35
28.437,-6.35
28.453,-13.28
28.468,-23.71
28.484,-36.64
28.500,-49.87
28.515,-61.05
28.531,-69.04
28.546,-74.86
28.562,-81.66
28.578,-93.59
28.593,-113.94
28.609,-143.26
28.625,-178.69
28.640,-214.84
28.656,-245.81
28.671,-267.39
28.687,-278.16
28.703,-279.15
28.718,-272.46
28.734,-259.65
28.750,-241.08
28.765,-216.48
28.781,-186.1
28.796,-151.57
28.812,-115.92
28.828,-82.6
28.843,-54.32
28.859,-32.29
28.875,-16.32
28.890,-5.72
28.906,-0.21
28.921,-0.18
28.937,-6.24
28.953,-18.44
28.968,-35.56
28.984,-55.21
29.000,-74.38
29.015,-90.41
29.031,-101.73
29.046,-108.18
29.062,-110.65
29.078,-110.38
29.093,-108.33
29.109,-104.85
29.125,-99.63
29.140,-92.19
29.156,-82.25
29.171,-70.07
29.187,-56.56
29.203,-42.92
29.218,-30.32
29.234,-19.59
29.250,-10.96
29.265,-4.06
29.281,1.72
29.296,7.09
29.312,12.5
29.328,18.06
29.343,23.6
29.359,28.77
29.375,33.16
29.390,36.54
29.406,38.95
29.421,40.84
29.437,43.04
29.453,46.7
29.468,52.95
29.484,62.42
29.500,74.96
29.515,89.31
29.531,103.54
29.546,115.76
29.562,124.79
29.578,130.74
29.593,134.94
29.609,139.18
29.625,144.96
29.640,152.81
29.656,162.31
29.671,172.43
29.687,182.23
29.703,190.94
29.718,198.02
29.734,202.71
29.750,203.89
29.765,200.32
29.781,191.15
29.796,176.46
29.812,157.33
29.828,135.62
29.843,113.26
29.859,91.71
29.875,71.82
29.890,53.78
29.906,37.52
29.921,22.82
29.937,9.39
29.953,-3.08
29.968,-14.87
29.984,-26.23
30.000,-37.35
30.015,-48.51
30.031,-60.45
30.046,-74.23
30.062,-91.11
30.078,-111.8
30.093,-135.83
30.109,-161.23
30.125,-184.87
30.140,-203.28
30.156,-213.52
30.171,-214.15
30.187,-205.25
30.203,-188.35
30.218,-165.67
30.234,-139.58
30.250,-112.11
30.265,-84.82
30.281,-58.88
30.296,-35.1
30.312,-14.22
30.328,3.16
30.343,16.67
30.359,26.09
30.375,31.44
30.390,32.8
30.406,30.45
30.421,25.07
30.437,18.02
30.453,11.39
30.468,7.57
30.484,8.41
30.500,14.14
30.515,23.16
30.531,32.54
30.546,39.25
30.562,41.37
30.578,38.67
30.593,32.02
30.609,22.41
30.625,9.91
30.640,-6.46
30.656,-27.88
30.671,-54.6
30.687,-85.07
30.703,-116.1
30.718,-143.91
30.734,-165.41
30.750,-179.22
30.765,-185.67
30.781,-186.12
30.796,-181.78
30.812,-173.0
30.828,-159.02
30.843,-138.69
30.859,-111.46
30.875,-78.39
30.890,-42.62
30.906,-9.11
30.921,16.3
30.937,28.1
30.953,22.44
30.968,-1.84
30.984,-42.64
31.000,-94.59
31.015,-149.9
31.031,-199.68
31.046,-235.84
31.062,-252.95
31.078,-249.39
31.093,-227.52
31.109,-192.71
31.125,-151.47
31.140,-109.76
31.156,-71.67
31.171,-39.05
31.187,-12.05
31.203,10.23
31.218,28.97
31.234,45.37
31.250,60.51
31.265,75.29
31.281,90.28
31.296,105.52
31.312,120.43
31.328,133.88
31.343,144.68
31.359,151.98
31.375,155.83
31.390,157.07
31.406,157.03
31.421,156.94
31.437,157.37
31.453,157.99
31.468,157.73
31.484,155.28
31.500,149.48
31.515,139.78
31.531,126.19
31.546,109.29
31.562,90.12
31.578,69.92
31.593,50.13
31.609,32.02
31.625,16.54
31.640,4.09
31.656,-5.47
31.671,-12.58
31.687,-17.8
31.703,-21.49
31.718,-23.84
31.734,-24.95
31.750,-24.94
31.765,-24.09
31.781,-22.91
31.796,-22.04
31.812,-22.23
31.828,-24.15
31.843,-28.28
31.859,-34.81
31.875,-43.5
31.890,-53.66
31.906,-64.12
31.921,-73.46
31.937,-80.1
31.953,-82.66
31.968,-80.19
31.984,-72.33
32.000,-59.49
32.015,-42.82
32.031,-23.96
32.046,-4.8
32.062,12.9
32.078,27.79
32.093,39.1
32.109,46.65
32.125,50.73
32.140,51.94
32.156,51.01
32.171,48.73
32.187,45.82
32.203,42.87
32.218,40.24
32.234,37.96
32.250,35.73
32.265,33.16
32.281,29.92
32.296,26.1
32.312,22.25
32.328,19.19
32.343,17.75
32.359,18.34
32.375,20.68
32.390,23.91
32.406,26.95
32.421,28.85
32.437,29.19
32.453,28.11
32.468,26.02
32.484,23.39
32.500,20.42
32.515,16.93
32.531,12.6
32.546,7.23
32.562,0.93
32.578,-5.89
32.593,-12.69
32.609,-19.06
32.625,-24.93
32.640,-30.5
32.656,-36.18
32.671,-42.28
32.687,-48.93
32.703,-56.0
32.718,-63.02
32.734,-69.2
32.750,-73.44
32.765,-74.43
32.781,-70.94
32.796,-62.27
32.812,-48.46
32.828,-30.45
32.843,-9.82
32.859,11.66
32.875,32.53
32.890,51.82
32.906,69.13
32.921,84.4
32.937,97.76
32.953,109.43
32.968,119.75
32.984,129.09
33.000,137.76
33.015,145.77
33.031,152.68
33.046,157.63
33.062,159.57
33.078,157.77
33.093,152.17
33.109,143.49
33.125,132.94
33.140,121.76
33.156,110.72
33.171,100.1
33.187,89.92
33.203,80.34
33.218,71.79
33.234,64.77
33.250,59.33
33.265,54.66
33.281,49.03
33.296,40.28
33.312,26.58
33.328,7.2
33.343,-17.29
33.359,-45.18
33.375,-74.16
33.390,-101.84
33.406,-126.17
33.421,-145.71
33.437,-159.86
33.453,-169.02
33.468,-174.41
33.484,-177.8
33.500,-180.72
33.515,-183.71
33.531,-186.05
33.546,-186.08
33.562,-182.28
33.578,-174.35
33.593,-163.75
33.609,-153.13
33.625,-145.2
33.640,-141.32
33.656,-140.97
33.671,-142.0
33.687,-141.8
33.703,-138.5
33.718,-131.63
33.734,-121.99
33.750,-111.01
33.765,-99.92
33.781,-89.42
33.796,-79.58
33.812,-70.2
33.828,-60.92
33.843,-51.46
33.859,-41.48
33.875,-30.41
33.890,-17.49
33.906,-1.91
33.921,16.82
33.937,38.57
33.953,62.38
33.968,86.6
33.984,109.33
34.000,128.94
34.015,144.52
34.031,155.95
34.046,163.69
34.062,168.41
34.078,170.76
34.093,171.11
34.109,169.62
34.125,166.3
34.140,161.05
34.156,153.7
34.171,144.02
34.187,131.93
34.203,117.64
34.218,101.67
34.234,84.85
34.250,67.93
34.265,51.38
34.281,35.31
34.296,19.49
34.312,3.62
34.328,-12.3
34.343,-27.9
34.359,-42.53
34.375,-55.32
34.390,-65.45
34.406,-72.31
34.421,-75.45
34.437,-74.76
34.453,-70.49
34.468,-63.35
34.484,-54.51
34.500,-45.45
34.515,-37.55
34.531,-31.72
34.546,-28.21
34.562,-26.76
34.578,-27.0
34.593,-28.75
34.609,-32.07
34.625,-36.96
34.640,-43.06
34.656,-49.36
34.671,-54.49
34.687,-57.23
34.703,-57.06
34.718,-54.42
34.734,-50.44
34.750,-46.36
34.765,-42.95
34.781,-40.25
34.796,-37.68
34.812,-34.51
34.828,-30.28
34.843,-24.97
34.859,-18.94
34.875,-12.65
34.890,-6.32
34.906,0.08
34.921,6.84
34.937,14.32
34.953,22.75
34.968,32.08
34.984,41.96
35.000,51.83
35.015,61.12
35.031,69.4
35.046,76.43
35.062,82.21
35.078,87.04
35.093,91.43
35.109,96.29
35.125,102.86
35.140,112.46
35.156,126.31
35.171,144.95
35.187,168.14
35.203,194.76
35.218,223.17
35.234,251.7
35.250,279.21
35.265,305.27
35.281,330.08
35.296,354.15
35.312,377.63
35.328,399.94
35.343,419.43
35.359,433.59
35.375,439.59
35.390,435.19
35.406,419.44
35.421,392.96
35.437,357.74
35.453,316.44
35.468,271.82
35.484,226.2
35.500,181.46
35.515,139.05
35.531,100.22
35.546,65.9
35.562,36.38
35.578,11.24
35.593,-10.81
35.609,-31.56
35.625,-52.54
35.640,-74.47
35.656,-96.73
35.671,-117.58
35.687,-134.66
35.703,-146.08
35.718,-151.17
35.734,-150.97
35.750,-147.72
35.765,-144.02
35.781,-142.01
35.796,-142.95
35.812,-147.73
35.828,-157.19
35.843,-172.23
35.859,-193.19
35.875,-218.88
35.890,-246.3
35.906,-271.11
35.921,-289.26
35.937,-298.53
35.953,-299.41
35.968,-294.42
35.984,-286.82
36.000,-278.98
36.015,-271.85
36.031,-265.37
36.046,-259.44
36.062,-254.74
36.078,-252.6
36.093,-254.19
36.109,-259.63
36.125,-267.63
36.140,-275.95
36.156,-282.28
36.171,-285.43
36.187,-285.9
36.203,-285.72
36.218,-287.66
36.234,-294.09
36.250,-306.12
36.265,-323.38
36.281,-344.34
36.296,-367.11
36.312,-390.09
36.328,-412.12
36.343,-432.03
36.359,-447.98
36.375,-457.23
36.390,-456.6
36.406,-443.63
36.421,-417.66
36.437,-380.2
36.453,-334.53
36.468,-284.42
36.484,-233.07
36.500,-182.63
36.515,-134.47
36.531,-89.84
36.546,-50.28
36.562,-17.37
36.578,7.83
36.593,25.48
36.609,37.21
36.625,45.68
36.640,53.66
36.656,63.27
36.671,75.53
36.687,90.38
36.703,107.09
36.718,124.69
36.734,142.2
36.750,158.91
36.765,174.33
36.781,188.05
36.796,199.66
36.812,208.59
36.828,214.3
36.843,216.44
36.859,215.17
36.875,211.24
36.890,205.91
36.906,200.48
36.921,195.88
36.937,192.37
36.953,189.51
36.968,186.52
36.984,182.65
37.000,177.58
37.015,171.46
37.031,164.77
37.046,158.04
37.062,151.6
37.078,145.51
37.093,139.71
37.109,134.01
37.125,128.22
37.140,122.1
37.156,115.45
37.171,108.13
37.187,100.19
37.203,91.83
37.218,83.35
37.234,74.99
37.250,66.76
37.265,58.46
37.281,49.69
37.296,40.12
37.312,29.56
37.328,18.15
37.343,6.42
37.359,-4.73
37.375,-14.05
37.390,-20.26
37.406,-22.15
37.421,-19.03
37.437,-10.81
37.453,1.82
37.468,17.55
37.484,34.71
37.500,51.59
37.515,66.8
37.531,79.47
37.546,89.36
37.562,96.68
37.578,101.89
37.593,105.38
37.609,107.37
37.625,107.95
37.640,107.27
37.656,105.7
37.671,103.81
37.687,102.22
37.703,101.32
37.718,101.16
37.734,101.53
37.750,102.0
37.765,102.22
37.781,101.91
37.796,100.95
37.812,99.22
37.828,96.71
37.843,93.43
37.859,89.45
37.875,85.05
37.890,80.56
37.906,76.34
37.921,72.57
37.937,69.28
37.953,66.2
37.968,62.99
37.984,59.27
38.000,54.83
38.015,49.86
38.031,44.88
38.046,40.63
38.062,37.75
38.078,36.59
38.093,36.84
38.109,37.77
38.125,38.32
38.140,37.57
38.156,35.11
38.171,31.4
38.187,27.71
38.203,25.92
38.218,28.03
38.234,35.55
38.250,49.23
38.265,68.78
38.281,93.0
38.296,120.0
38.312,147.64
38.328,174.08
38.343,198.15
38.359,219.71
38.375,239.5
38.390,258.63
38.406,277.85
38.421,296.77
38.437,313.74
38.453,326.28
38.468,332.18
38.484,330.35
38.500,321.24
38.515,306.4
38.531,287.63
38.546,266.21
38.562,242.78
38.578,217.8
38.593,192.07
38.609,167.26
38.625,145.45
38.640,128.57
38.656,117.53
38.671,111.87
38.687,109.9
38.703,109.23
38.718,107.27
38.734,101.8
38.750,91.33
38.765,75.26
38.781,53.9
38.796,28.18
38.812,-0.73
38.828,-31.84
38.843,-64.47
38.859,-98.2
38.875,-132.65
38.890,-167.36
38.906,-201.88
38.921,-235.81
38.937,-269.15
38.953,-302.14
38.968,-335.14
38.984,-368.55
39.000,-402.64
39.015,-437.96
39.031,-475.45
39.046,-516.05
39.062,-559.72
39.078,-604.15
39.093,-644.22
39.109,-672.71
39.125,-682.51
39.140,-669.23
39.156,-633.02
39.171,-578.59
39.187,-513.4
39.203,-444.9
39.218,-378.36
39.234,-316.04
39.250,-257.96
39.265,-203.24
39.281,-151.12
39.296,-101.26
39.312,-53.42
39.328,-7.3
39.343,37.26
39.359,79.81
39.375,119.0
39.390,152.84
39.406,179.37
39.421,197.52
39.437,207.57
39.453,211.03
39.468,210.09
39.484,206.91
39.500,203.04
39.515,199.2
39.531,195.4
39.546,191.14
39.562,185.81
39.578,178.9
39.593,170.16
39.609,159.71
39.625,147.98
39.640,135.57
39.656,123.1
39.671,111.13
39.687,99.98
39.703,89.77
39.718,80.33
39.734,71.28
39.750,62.29
39.765,53.21
39.781,44.27
39.796,35.98
39.812,28.78
39.828,22.61
39.843,16.74
39.859,10.08
39.875,1.64
39.890,-8.74
39.906,-20.16
39.921,-30.97
39.937,-39.27
39.953,-43.64
39.968,-43.42
39.984,-38.65
40.000,-29.89
40.015,-18.01
40.031,-4.2
40.046,10.09
40.062,23.31
40.078,34.07
40.093,41.56
40.109,45.69
40.125,46.97
40.140,46.21
40.156,44.13
40.171,41.21
40.187,37.76
40.203,34.07
40.218,30.48
40.234,27.34
40.250,24.93
40.265,23.3
40.281,22.32
40.296,21.66
40.312,20.86
40.328,19.48
40.343,17.15
40.359,13.75
40.375,9.39
40.390,4.32
40.406,-1.11
40.421,-6.62
40.437,-11.98
40.453,-17.02
40.468,-21.49
40.484,-25.17
40.500,-27.78
40.515,-29.25
40.531,-29.7
40.546,-29.56
40.562,-29.48
40.578,-30.12
40.593,-32.04
40.609,-35.51
40.625,-40.52
40.640,-46.69
40.656,-53.29
40.671,-59.3
40.687,-63.65
40.703,-65.39
40.718,-63.95
40.734,-59.31
40.750,-51.91
40.765,-42.5
40.781,-31.88
40.796,-20.66
40.812,-9.28
40.828,1.9
40.843,12.5
40.859,22.01
40.875,29.93
40.890,35.89
40.906,39.8
40.921,41.88
40.937,42.65
40.953,42.71
40.968,42.56
40.984,42.51
41.000,42.64
41.015,42.8
41.031,42.8
41.046,42.43
41.062,41.58
41.078,40.24
41.093,38.46
41.109,36.33
41.125,33.93
41.140,31.27
41.156,28.27
41.171,24.81
41.187,20.74
41.203,15.93
41.218,10.32
41.234,3.9
41.250,-3.24
41.265,-10.89
41.281,-18.82
41.296,-26.73
41.312,-34.41
41.328,-41.69
41.343,-48.56
41.359,-55.1
41.375,-61.51
41.390,-67.87
41.406,-73.98
41.421,-79.29
41.437,-82.88
41.453,-83.76
41.468,-81.06
41.484,-74.44
41.500,-64.14
41.515,-50.99
41.531,-36.06
41.546,-20.41
41.562,-4.95
41.578,9.72
41.593,23.09
41.609,34.76
41.625,44.32
41.640,51.47
41.656,56.1
41.671,58.38
41.687,58.78
41.703,57.87
41.718,56.28
41.734,54.43
41.750,52.57
41.765,50.8
41.781,49.17
41.796,47.84
41.812,46.96
41.828,46.74
41.843,47.18
41.859,48.14
41.875,49.31
41.890,50.34
41.906,50.92
41.921,50.9
41.937,50.31
41.953,49.22
41.968,47.74
41.984,45.96
42.000,43.96
42.015,41.81
42.031,39.56
42.046,37.27
42.062,35.0
42.078,32.85
42.093,30.9
42.109,29.24
42.125,27.82
42.140,26.49
42.156,25.06
42.171,23.33
42.187,21.32
42.203,19.17
42.218,17.22
42.234,15.73
42.250,14.85
42.265,14.5
42.281,14.44
42.296,14.33
42.312,13.72
42.328,12.2
42.343,9.48
42.359,5.53
42.375,0.64
42.390,-4.47
42.406,-8.91
42.421,-11.85
42.437,-12.93
42.453,-12.37
42.468,-10.87
42.484,-9.26
42.500,-8.08
42.515,-7.53
42.531,-7.41
42.546,-7.55
42.562,-8.05
42.578,-9.37
42.593,-12.15
42.609,-16.77
42.625,-23.02
42.640,-30.03
42.656,-36.5
42.671,-41.3
42.687,-43.95
42.703,-44.78
42.718,-44.68
42.734,-44.66
42.750,-45.27
42.765,-46.49
42.781,-47.91
42.796,-49.06
42.812,-49.94
42.828,-51.05
42.843,-53.24
42.859,-57.21
42.875,-63.27
42.890,-71.17
42.906,-80.14
42.921,-89.15
42.937,-97.01
42.953,-102.51
42.968,-104.54
42.984,-102.3
43.000,-95.49
43.015,-84.5
43.031,-70.25
43.046,-54.04
43.062,-37.2
43.078,-20.79
43.093,-5.55
43.109,8.03
43.125,19.59
43.140,28.81
43.156,35.5
43.171,39.76
43.187,41.96
43.203,42.7
43.218,42.65
43.234,42.29
43.250,41.85
43.265,41.25
43.281,40.3
43.296,38.83
43.312,36.94
43.328,34.88
43.343,32.98
43.359,31.47
43.375,30.29
43.390,29.1
43.406,27.45
43.421,24.94
43.437,21.43
43.453,17.19
43.468,12.65
43.484,8.29
43.500,4.48
43.515,1.35
43.531,-1.27
43.546,-3.67
43.562,-6.29
43.578,-9.59
43.593,-13.92
43.609,-19.44
43.625,-25.99
43.640,-32.94
43.656,-39.31
43.671,-43.92
43.687,-45.62
43.703,-43.76
43.718,-38.26
43.734,-29.76
43.750,-19.22
43.765,-7.79
43.781,3.67
43.796,14.51
43.812,24.29
43.828,32.65
43.843,39.23
43.859,43.7
43.875,45.88
43.890,45.91
43.906,44.16
43.921,41.23
43.937,37.71
43.953,34.04
43.968,30.51
43.984,27.22
44.000,24.24
44.015,21.59
44.031,19.34
44.046,17.49
44.062,16.01
44.078,14.77
44.093,13.5
44.109,11.91
44.125,9.64
44.140,6.5
44.156,2.48
44.171,-2.13
44.187,-6.93
44.203,-11.48
44.218,-15.46
44.234,-18.94
44.250,-22.24
44.265,-25.93
44.281,-30.55
44.296,-36.36
44.312,-43.2
44.328,-50.42
44.343,-57.02
44.359,-61.82
44.375,-63.79
44.390,-62.22
44.406,-56.98
44.421,-48.4
44.437,-37.24
44.453,-24.51
44.468,-11.25
44.484,1.65
44.500,13.46
44.515,23.63
44.531,31.83
44.546,37.87
44.562,41.78
44.578,43.75
44.593,44.1
44.609,43.19
44.625,41.32
44.640,38.79
44.656,35.78
44.671,32.55
44.687,29.4
44.703,26.65
44.718,24.51
44.734,23.02
44.750,22.03
44.765,21.17
44.781,20.01
44.796,18.13
44.812,15.24
44.828,11.25
44.843,6.36
44.859,0.97
44.875,-4.41
44.890,-9.33
44.906,-13.58
44.921,-17.29
44.937,-20.82
44.953,-24.64
44.968,-29.24
44.984,-34.82
45.000,-41.28
45.015,-48.05
45.031,-54.15
45.046,-58.35
45.062,-59.48
45.078,-56.78
45.093,-50.15
45.109,-40.27
45.125,-28.34
45.140,-15.65
45.156,-3.32
45.171,8.02
45.187,18.16
45.203,27.06
45.218,34.66
45.234,40.79
45.250,45.13
45.265,47.49
45.281,47.9
45.296,46.73
45.312,44.57
45.328,42.04
45.343,39.59
45.359,37.34
45.375,35.19
45.390,32.91
45.406,30.38
45.421,27.66
45.437,24.97
45.453,22.58
45.468,20.65
45.484,18.97
45.500,17.2
45.515,14.87
45.531,11.59
45.546,7.29
45.562,2.22
45.578,-3.15
45.593,-8.31
45.609,-12.99
45.625,-17.25
45.640,-21.32
45.656,-25.54
45.671,-30.15
45.687,-35.21
45.703,-40.68
45.718,-46.44
45.734,-52.28
45.750,-57.82
45.765,-62.42
45.781,-65.14
45.796,-64.96
45.812,-61.12
45.828,-53.46
45.843,-42.54
45.859,-29.55
45.875,-15.89
45.890,-2.82
45.906,8.84
45.921,18.76
45.937,27.03
45.953,33.87
45.968,39.52
45.984,44.1
46.000,47.57
46.015,49.83
46.031,50.83
46.046,50.63
46.062,49.43
46.078,47.56
46.093,45.33
46.109,43.0
46.125,40.71
46.140,38.44
46.156,36.16
46.171,33.87
46.187,31.59
46.203,29.35
46.218,27.15
46.234,24.84
46.250,22.21
46.265,19.12
46.281,15.44
46.296,11.26
46.312,6.71
46.328,1.97
46.343,-2.79
46.359,-7.37
46.375,-11.73
46.390,-15.78
46.406,-19.53
46.421,-23.09
46.437,-26.62
46.453,-30.39
46.468,-34.62
46.484,-39.46
46.500,-44.74
46.515,-50.02
46.531,-54.49
46.546,-57.12
46.562,-57.02
46.578,-53.56
46.593,-46.73
46.609,-37.14
46.625,-25.83
46.640,-13.96
46.656,-2.49
46.671,8.09
46.687,17.68
46.703,26.31
46.718,33.97
46.734,40.43
46.750,45.33
46.765,48.36
46.781,49.46
46.796,48.91
46.812,47.22
46.828,44.94
46.843,42.41
46.859,39.81
46.875,37.13
46.890,34.44
46.906,31.81
46.921,29.39
46.937,27.28
46.953,25.39
46.968,23.5
46.984,21.26
47.000,18.44
47.015,14.95
47.031,10.89
47.046,6.41
47.062,1.63
47.078,-3.4
47.093,-8.71
47.109,-14.33
47.125,-20.15
47.140,-25.96
47.156,-31.5
47.171,-36.58
47.187,-41.15
47.203,-45.32
47.218,-49.31
47.234,-53.32
47.250,-57.51
47.265,-61.89
47.281,-66.34
47.296,-70.51
47.312,-73.83
47.328,-75.5
47.343,-74.62
47.359,-70.45
47.375,-62.65
47.390,-51.41
47.406,-37.44
47.421,-21.76
47.437,-5.43
47.453,10.69
47.468,26.01
47.484,40.24
47.500,53.12
47.515,64.46
47.531,74.07
47.546,81.78
47.562,87.66
47.578,91.91
47.593,94.95
47.609,97.24
47.625,99.19
47.640,101.03
47.656,102.82
47.671,104.56
47.687,106.11
47.703,107.44
47.718,108.57
47.734,109.54
47.750,110.4
47.765,111.12
47.781,111.63
47.796,111.74
47.812,111.3
47.828,110.18
47.843,108.42
47.859,106.2
47.875,103.77
47.890,101.4
47.906,99.12
47.921,96.9
47.937,94.71
47.953,92.7
47.968,91.2
47.984,90.7
48.000,91.57
48.015,93.74
48.031,96.74
48.046,99.63
48.062,101.46
48.078,101.54
48.093,99.71
48.109,96.38
48.125,92.36
48.140,88.61
48.156,85.94
48.171,85.0
48.187,86.1
48.203,89.35
48.218,94.58
48.234,101.43
48.250,109.4
48.265,118.04
48.281,127.01
48.296,136.29
48.312,146.04
48.328,156.39
48.343,167.01
48.359,177.04
48.375,185.25
48.390,190.49
48.406,192.31
48.421,191.1
48.437,188.08
48.453,184.63
48.468,181.75
48.484,179.51
48.500,177.14
48.515,173.19
48.531,166.11
48.546,154.63
48.562,138.08
48.578,116.73
48.593,91.59
48.609,64.35
48.625,36.9
48.640,10.88
48.656,-12.76
48.671,-33.84
48.687,-52.83
48.703,-70.37
48.718,-86.9
48.734,-102.54
48.750,-117.19
48.765,-130.69
48.781,-143.07
48.796,-154.64
48.812,-165.92
48.828,-177.64
48.843,-190.59
48.859,-205.44
48.875,-222.37
48.890,-240.63
48.906,-258.19
48.921,-272.17
48.937,-279.49
48.953,-278.07
48.968,-267.65
48.984,-249.91
49.000,-227.93
49.015,-205.09
49.031,-184.0
49.046,-165.86
49.062,-150.65
49.078,-137.45
49.093,-125.07
49.109,-112.52
49.125,-99.24
49.140,-85.07
49.156,-70.23
49.171,-55.28
49.187,-40.99
49.203,-28.24
49.218,-17.8
49.234,-10.25
49.250,-5.95
49.265,-5.07
49.281,-7.66
49.296,-13.7
49.312,-23.11
49.328,-35.68
49.343,-51.0
49.359,-68.31
49.375,-86.63
49.390,-104.88
49.406,-122.15
49.421,-137.91
49.437,-152.05
49.453,-164.8
49.468,-176.46
49.484,-187.26
49.500,-197.06
49.515,-205.51
49.531,-212.08
49.546,-216.28
49.562,-217.88
49.578,-216.93
49.593,-213.83
49.609,-209.25
49.625,-204.06
49.640,-199.12
49.656,-195.09
49.671,-192.1
49.687,-189.6
49.703,-186.24
49.718,-180.28
49.734,-170.09
49.750,-154.85
49.765,-134.93
49.781,-111.78
49.796,-87.54
49.812,-64.23
49.828,-43.22
49.843,-25.07
49.859,-9.62
49.875,3.55
49.890,14.84
49.906,24.49
49.921,32.59
49.937,39.21
49.953,44.43
49.968,48.45
49.984,51.41
50.000,53.51
50.015,54.81
50.031,55.44
50.046,55.54
50.062,55.23
50.078,54.62
50.093,53.74
50.109,52.49
50.125,50.7
50.140,48.18
50.156,44.73
50.171,40.28
50.187,34.91
50.203,28.82
50.218,22.34
50.234,15.81
50.250,9.48
50.265,3.49
50.281,-2.18
50.296,-7.6
50.312,-12.86
50.328,-18.03
50.343,-23.12
50.359,-28.12
50.375,-33.05
50.390,-38.04
50.406,-43.34
50.421,-49.31
50.437,-56.12
50.453,-63.58
50.468,-70.94
50.484,-77.01
50.500,-80.29
50.515,-79.57
50.531,-74.28
50.546,-64.65
50.562,-51.68
50.578,-36.74
50.593,-21.19
50.609,-6.04
50.625,8.03
50.640,20.7
50.656,31.82
50.671,41.21
50.687,48.77
50.703,54.42
50.718,58.18
50.734,60.25
50.750,61.03
50.765,61.02
50.781,60.74
50.796,60.66
50.812,61.0
50.828,61.81
50.843,62.87
50.859,63.8
50.875,64.2
50.890,63.74
50.906,62.27
50.921,59.82
50.937,56.57
50.953,52.76
50.968,48.6
50.984,44.29
51.000,40.0
51.015,35.92
51.031,32.14
51.046,28.64
51.062,25.21
51.078,21.45
51.093,16.97
51.109,11.48
51.125,5.04
51.140,-2.05
51.156,-9.31
51.171,-16.31
51.187,-22.91
51.203,-29.3
51.218,-35.9
51.234,-43.13
51.250,-50.99
51.265,-58.89
51.281,-65.67
51.296,-69.8
51.312,-69.9
51.328,-65.15
51.343,-55.65
51.359,-42.39
51.375,-26.9
51.390,-10.83
51.406,4.54
51.421,18.37
51.437,30.27
51.453,40.12
51.468,47.87
51.484,53.52
51.500,57.11
51.515,58.81
51.531,58.98
51.546,58.13
51.562,56.74
51.578,55.18
51.593,53.68
51.609,52.33
51.625,51.17
51.640,50.12
51.656,49.01
51.671,47.65
51.687,45.85
51.703,43.52
51.718,40.73
51.734,37.65
51.750,34.47
51.765,31.37
51.781,28.25
51.796,24.88
51.812,20.97
51.828,16.25
51.843,10.65
51.859,4.3
51.875,-2.46
51.890,-9.27
51.906,-15.76
51.921,-21.77
51.937,-27.34
51.953,-32.7
51.968,-38.19
51.984,-44.18
52.000,-50.83
52.015,-58.01
52.031,-65.19
52.046,-71.35
52.062,-75.14
52.078,-75.21
52.093,-70.66
52.109,-61.39
52.125,-48.17
52.140,-32.54
52.156,-16.3
52.171,-1.09
52.187,12.07
52.203,22.85
52.218,31.5
52.234,38.47
52.250,44.13
52.265,48.63
52.281,51.94
52.296,53.98
52.312,54.8
52.328,54.69
52.343,54.04
52.359,53.27
52.375,52.64
52.390,52.17
52.406,51.67
52.421,50.89
52.437,49.66
52.453,47.93
52.468,45.78
52.484,43.33
52.500,40.5
52.515,37.13
52.531,32.94
52.546,27.71
52.562,21.4
52.578,14.22
52.593,6.58
52.609,-1.09
52.625,-8.43
52.640,-15.31
52.656,-21.82
52.671,-28.13
52.687,-34.5
52.703,-41.18
52.718,-48.33
52.734,-56.12
52.750,-64.56
52.765,-73.42
52.781,-82.08
52.796,-89.41
52.812,-93.93
52.828,-94.18
52.843,-89.15
52.859,-78.67
52.875,-63.65
52.890,-45.79
52.906,-27.07
52.921,-9.35
52.937,6.26
52.953,19.35
52.968,30.07
52.984,38.88
53.000,46.17
53.015,52.09
53.031,56.64
53.046,59.8
53.062,61.64
53.078,62.41
53.093,62.43
53.109,61.99
53.125,61.25
53.140,60.28
53.156,59.02
53.171,57.58
53.187,56.01
53.203,54.37
53.218,52.56
53.234,50.43
53.250,47.68
53.265,44.18
53.281,39.9
53.296,34.93
53.312,29.42
53.328,23.52
53.343,17.34
53.359,11.07
53.375,4.96
53.390,-0.73
53.406,-5.75
53.421,-10.05
53.437,-13.78
53.453,-17.25
53.468,-20.9
53.484,-25.12
53.500,-30.18
53.515,-36.2
53.531,-43.08
53.546,-50.38
53.562,-57.33
53.578,-62.8
53.593,-65.51
53.609,-64.4
53.625,-58.9
53.640,-49.22
53.656,-36.35
53.671,-21.72
53.687,-6.84
53.703,7.08
53.718,19.38
53.734,29.86
53.750,38.61
53.765,45.84
53.781,51.71
53.796,56.21
53.812,59.28
53.828,60.82
53.843,60.85
53.859,59.57
53.875,57.41
53.890,54.87
53.906,52.46
53.921,50.52
53.937,49.15
53.953,48.26
53.968,47.64
53.984,46.98
54.000,45.97
54.015,44.37
54.031,41.94
54.046,38.55
54.062,34.22
54.078,29.11
54.093,23.49
54.109,17.64
54.125,11.83
54.140,6.2
54.156,0.9
54.171,-4.06
54.187,-8.67
54.203,-12.99
54.218,-17.15
54.234,-21.35
54.250,-25.78
54.265,-30.69
54.281,-36.28
54.296,-42.64
54.312,-49.69
54.328,-57.03
54.343,-63.86
54.359,-69.05
54.375,-71.38
54.390,-69.84
54.406,-64.02
54.421,-54.26
54.437,-41.63
54.453,-27.58
54.468,-13.56
54.484,-0.6
54.500,10.82
54.515,20.69
54.531,29.28
54.546,36.77
54.562,43.15
54.578,48.23
54.593,51.71
54.609,53.4
54.625,53.39
54.640,51.99
54.656,49.67
54.671,46.97
54.687,44.28
54.703,41.88
54.718,39.97
54.734,38.56
54.750,37.57
54.765,36.83
54.781,36.02
54.796,34.78
54.812,32.89
54.828,30.15
54.843,26.58
54.859,22.3
54.875,17.49
54.890,12.36
54.906,7.12
54.921,2.03
54.937,-2.73
54.953,-6.95
54.968,-10.6
54.984,-13.84
55.000,-16.91
55.015,-20.18
55.031,-23.96
55.046,-28.47
55.062,-33.78
55.078,-39.81
55.093,-46.2
55.109,-52.34
55.125,-57.33
55.140,-60.05
55.156,-59.45
55.171,-54.9
55.187,-46.48
55.203,-35.05
55.218,-22.08
55.234,-9.11
55.250,2.53
55.265,12.13
55.281,19.54
55.296,24.98
55.312,28.74
55.328,31.03
55.343,31.91
55.359,31.42
55.375,29.79
55.390,27.35
55.406,24.61
55.421,21.98
55.437,19.69
55.453,17.74
55.468,15.94
55.484,14.05
55.500,11.89
55.515,9.48
55.531,6.95
55.546,4.57
55.562,2.61
55.578,1.28
55.593,0.67
55.609,0.72
55.625,1.14
55.640,1.47
55.656,1.27
55.671,0.21
55.687,-1.74
55.703,-4.35
55.718,-7.26
55.734,-10.14
55.750,-12.94
55.765,-15.82
55.781,-19.24
55.796,-23.71
55.812,-29.69
55.828,-37.3
55.843,-46.29
55.859,-55.86
55.875,-64.63
55.890,-70.93
55.906,-73.07
55.921,-69.87
55.937,-60.98
55.953,-47.01
55.968,-29.32
55.984,-9.71
56.000,10.04
56.015,28.45
56.031,44.44
56.046,57.33
56.062,66.81
56.078,72.81
56.093,75.45
56.109,75.09
56.125,72.3
56.140,67.73
56.156,62.16
56.171,56.26
56.187,50.47
56.203,44.97
56.218,39.63
56.234,34.23
56.250,28.65
56.265,23.02
56.281,17.62
56.296,12.86
56.312,8.9
56.328,5.66
56.343,2.75
56.359,-0.25
56.375,-3.63
56.390,-7.47
56.406,-11.6
56.421,-15.81
56.437,-19.88
56.453,-23.74
56.468,-27.37
56.484,-30.83
56.500,-34.23
56.515,-37.74
56.531,-41.64
56.546,-46.25
56.562,-51.75
56.578,-57.95
56.593,-64.15
56.609,-69.17
56.625,-71.61
56.640,-70.35
56.656,-64.86
56.671,-55.46
56.687,-43.14
56.703,-29.3
56.718,-15.34
56.734,-2.46
56.750,8.56
56.765,17.4
56.781,23.97
56.796,28.44
56.812,31.04
56.828,32.15
56.843,32.14
56.859,31.43
56.875,30.29
56.890,28.94
56.906,27.51
56.921,26.02
56.937,24.48
56.953,22.81
56.968,20.96
56.984,18.84
57.000,16.5
57.015,14.02
57.031,11.49
57.046,9.04
57.062,6.63
57.078,4.13
57.093,1.3
57.109,-2.07
57.125,-5.97
57.140,-10.19
57.156,-14.33
57.171,-18.02
57.187,-21.05
57.203,-23.48
57.218,-25.63
57.234,-27.95
57.250,-30.89
57.265,-34.77
57.281,-39.65
57.296,-45.17
57.312,-50.59
57.328,-54.82
57.343,-56.71
57.359,-55.28
57.375,-50.14
57.390,-41.6
57.406,-30.6
57.421,-18.4
57.437,-6.23
57.453,4.92
57.468,14.46
57.484,22.08
57.500,27.68
57.515,31.29
57.531,33.01
57.546,33.05
57.562,31.78
57.578,29.69
57.593,27.28
57.609,25.02
57.625,23.24
57.640,22.04
57.656,21.33
57.671,20.84
57.687,20.34
57.703,19.68
57.718,18.9
57.734,18.11
57.750,17.38
57.765,16.63
57.781,15.61
57.796,14.0
57.812,11.55
57.828,8.26
57.843,4.38
57.859,0.34
57.875,-3.45
57.890,-6.74
57.906,-9.55
57.921,-12.1
57.937,-14.72
57.953,-17.74
57.968,-21.35
57.984,-25.55
58.000,-30.0
58.015,-34.12
58.031,-37.04
58.046,-37.84
58.062,-35.71
58.078,-30.28
58.093,-21.8
58.109,-11.16
58.125,0.41
58.140,11.66
58.156,21.61
58.171,29.77
58.187,36.07
58.203,40.6
58.218,43.5
58.234,44.81
58.250,44.62
58.265,43.11
58.281,40.73
58.296,38.08
58.312,35.73
58.328,34.08
58.343,33.2
58.359,32.85
58.375,32.67
58.390,32.32
58.406,31.61
58.421,30.53
58.437,29.18
58.453,27.65
58.468,25.9
58.484,23.78
58.500,21.05
58.515,17.55
58.531,13.29
58.546,8.45
58.562,3.32
58.578,-1.76
58.593,-6.51
58.609,-10.79
58.625,-14.62
58.640,-18.19
58.656,-21.84
58.671,-25.93
58.687,-30.73
58.703,-36.26
58.718,-42.11
58.734,-47.5
58.750,-51.33
58.765,-52.59
58.781,-50.59
58.796,-45.15
58.812,-36.66
58.828,-25.99
58.843,-14.19
58.859,-2.29
58.875,8.86
58.890,18.73
58.906,27.09
58.921,33.91
58.937,39.27
58.953,43.3
58.968,46.05
58.984,47.61
59.000,48.05
59.015,47.51
59.031,46.25
59.046,44.6
59.062,42.89
59.078,41.36
59.093,40.14
59.109,39.16
59.125,38.28
59.140,37.27
59.156,36.05
59.171,34.62
59.187,33.09
59.203,31.5
59.218,29.8
59.234,27.8
59.250,25.26
59.265,22.07
59.281,18.26
59.296,14.04
59.312,9.7
59.328,5.42
59.343,1.23
59.359,-2.99
59.375,-7.36
59.390,-11.91
59.406,-16.54
59.421,-21.13
59.437,-25.59
59.453,-29.9
59.468,-34.04
59.484,-37.8
59.500,-40.78
59.515,-42.28
59.531,-41.6
59.546,-38.21
59.562,-31.94
59.578,-23.08
59.593,-12.26
59.609,-0.38
59.625,11.47
59.640,22.1
59.656,30.36
59.671,35.33
59.687,36.59
59.703,34.4
59.718,29.68
59.734,23.73
59.750,17.82
59.765,12.83
59.781,9.1
59.796,6.59
59.812,5.05
59.828,4.27
59.843,4.17
59.859,4.68
59.875,5.64
59.890,6.71
59.906,7.52
59.921,7.7
59.937,7.1
59.953,5.8
59.968,4.01
59.984,1.96
