timestamp,value
00.000,-184.21
00.015,-195.79
00.031,-202.75
00.046,-205.31
00.062,-203.87
00.078,-199.15
00.093,-192.26
00.109,-184.56
00.125,-177.17
00.140,-170.65
00.156,-164.71
00.171,-158.25
00.187,-149.73
00.203,-137.59
00.218,-120.94
00.234,-99.89
00.250,-75.56
00.265,-49.62
00.281,-23.82
00.296,0.56
00.312,22.87
00.328,42.83
00.343,60.29
00.359,74.97
00.375,86.66
00.390,95.39
00.406,101.54
00.421,105.66
00.437,108.18
00.453,109.27
00.468,108.89
00.484,107.11
00.500,104.22
00.515,100.69
00.531,96.89
00.546,92.82
00.562,88.05
00.578,81.98
00.593,74.23
00.609,64.84
00.625,54.22
00.640,42.85
00.656,31.04
00.671,18.88
00.687,6.4
00.703,-6.08
00.718,-17.98
00.734,-28.62
00.750,-37.51
00.765,-44.62
00.781,-50.45
00.796,-56.05
00.812,-62.46
00.828,-70.34
00.843,-79.46
00.859,-88.46
00.875,-95.05
00.890,-96.61
00.906,-91.11
00.921,-77.81
00.937,-57.65
00.953,-32.98
00.968,-6.8
00.984,18.15
01.000,40.01
01.015,58.03
01.031,72.31
01.046,83.25
01.062,91.17
01.078,96.18
01.093,98.3
01.109,97.75
01.125,95.23
01.140,91.81
01.156,88.65
01.171,86.66
01.187,86.16
01.203,86.83
01.218,87.94
01.234,88.64
01.250,88.39
01.265,87.1
01.281,85.06
01.296,82.75
01.312,80.57
01.328,78.75
01.343,77.24
01.359,75.72
01.375,73.83
01.390,71.26
01.406,67.86
01.421,63.83
01.437,59.6
01.453,55.77
01.468,52.93
01.484,51.5
01.500,51.67
01.515,53.37
01.531,56.4
01.546,60.55
01.562,65.7
01.578,71.77
01.593,78.79
01.609,86.68
01.625,95.22
01.640,104.02
01.656,112.37
01.671,119.36
01.687,124.05
01.703,125.72
01.718,124.05
01.734,119.18
01.750,111.65
01.765,102.22
01.781,91.79
01.796,81.17
01.812,70.92
01.828,61.04
01.843,50.95
01.859,39.62
01.875,26.08
01.890,9.65
01.906,-10.04
01.921,-33.3
01.937,-60.66
01.953,-92.61
01.968,-128.93
01.984,-167.91
02.000,-206.19
02.015,-239.51
02.031,-264.23
02.046,-278.77
02.062,-284.15
02.078,-283.41
02.093,-280.17
02.109,-277.22
02.125,-275.8
02.140,-275.56
02.156,-274.96
02.171,-271.73
02.187,-263.23
02.203,-247.18
02.218,-222.48
02.234,-190.1
02.250,-153.3
02.265,-116.95
02.281,-86.02
02.296,-63.9
02.312,-51.38
02.328,-46.61
02.343,-46.2
02.359,-46.53
02.375,-44.99
02.390,-40.34
02.406,-32.55
02.421,-22.14
02.437,-9.75
02.453,4.1
02.468,18.84
02.484,33.75
02.500,47.91
02.515,60.45
02.531,70.76
02.546,78.77
02.562,84.96
02.578,90.1
02.593,94.8
02.609,99.09
02.625,102.24
02.640,103.05
02.656,100.5
02.671,94.27
02.687,85.16
02.703,74.63
02.718,64.08
02.734,53.94
02.750,43.34
02.765,30.56
02.781,14.07
02.796,-6.22
02.812,-28.48
02.828,-49.36
02.843,-65.3
02.859,-73.8
02.875,-74.19
02.890,-67.33
02.906,-54.79
02.921,-37.97
02.937,-17.97
02.953,3.96
02.968,25.85
02.984,45.05
03.000,58.84
03.015,65.55
03.031,65.19
03.046,59.27
03.062,49.81
03.078,38.38
03.093,25.61
03.109,11.45
03.125,-3.96
03.140,-19.79
03.156,-34.25
03.171,-45.27
03.187,-51.15
03.203,-51.43
03.218,-47.2
03.234,-40.98
03.250,-36.22
03.265,-36.41
03.281,-44.11
03.296,-60.06
03.312,-82.81
03.328,-109.13
03.343,-135.12
03.359,-157.46
03.375,-174.26
03.390,-185.22
03.406,-190.86
03.421,-191.67
03.437,-187.41
03.453,-177.03
03.468,-159.29
03.484,-133.58
03.500,-100.52
03.515,-62.12
03.531,-21.35
03.546,18.67
03.562,55.32
03.578,87.04
03.593,113.28
03.609,134.29
03.625,150.72
03.640,163.16
03.656,172.05
03.671,177.57
03.687,179.73
03.703,178.53
03.718,174.08
03.734,166.67
03.750,156.88
03.765,145.55
03.781,133.8
03.796,122.93
03.812,114.28
03.828,108.72
03.843,106.33
03.859,105.99
03.875,105.38
03.890,101.51
03.906,91.6
03.921,74.07
03.937,49.17
03.953,19.1
03.968,-12.66
03.984,-42.29
04.000,-66.91
04.015,-85.48
04.031,-98.99
04.046,-109.84
04.062,-120.43
04.078,-131.79
04.093,-142.76
04.109,-150.35
04.125,-151.12
04.140,-142.99
04.156,-126.38
04.171,-104.08
04.187,-80.01
04.203,-57.57
04.218,-38.67
04.234,-23.7
04.250,-12.48
04.265,-5.08
04.281,-2.23
04.296,-4.75
04.312,-12.63
04.328,-24.61
04.343,-38.33
04.359,-51.24
04.375,-61.47
04.390,-68.47
04.406,-72.71
04.421,-75.17
04.437,-76.64
04.453,-77.27
04.468,-76.74
04.484,-74.66
04.500,-71.03
04.515,-66.45
04.531,-62.03
04.546,-58.9
04.562,-57.78
04.578,-58.69
04.593,-61.05
04.609,-64.0
04.625,-66.88
04.640,-69.53
04.656,-72.36
04.671,-76.21
04.687,-81.96
04.703,-90.01
04.718,-99.95
04.734,-110.24
04.750,-118.41
04.765,-121.57
04.781,-117.3
04.796,-104.46
04.812,-83.66
04.828,-57.18
04.843,-28.24
04.859,-0.07
04.875,24.85
04.890,45.22
04.906,60.7
04.921,71.58
04.937,78.38
04.953,81.66
04.968,82.08
04.984,80.49
05.000,77.86
05.015,75.12
05.031,72.99
05.046,71.71
05.062,71.19
05.078,71.03
05.093,70.81
05.109,70.27
05.125,69.28
05.140,67.82
05.156,65.74
05.171,62.84
05.187,58.81
05.203,53.47
05.218,46.88
05.234,39.44
05.250,31.78
05.265,24.57
05.281,18.36
05.296,13.35
05.312,9.43
05.328,6.07
05.343,2.51
05.359,-2.12
05.375,-8.36
05.390,-15.96
05.406,-23.53
05.421,-28.63
05.437,-28.27
05.453,-19.88
05.468,-2.37
05.484,23.43
05.500,54.79
05.515,88.05
05.531,119.74
05.546,147.47
05.562,170.33
05.578,188.52
05.593,202.74
05.609,213.47
05.625,220.78
05.640,224.44
05.656,224.26
05.671,220.42
05.687,213.49
05.703,204.23
05.718,193.36
05.734,181.33
05.750,168.39
05.765,154.74
05.781,140.72
05.796,126.91
05.812,113.94
05.828,102.28
05.843,92.1
05.859,83.19
05.875,75.21
05.890,67.88
05.906,61.23
05.921,55.54
05.937,51.21
05.953,48.49
05.968,47.23
05.984,46.92
06.000,46.81
06.015,46.17
06.031,44.43
06.046,41.28
06.062,36.56
06.078,30.24
06.093,22.29
06.109,12.76
06.125,1.84
06.140,-10.0
06.156,-21.98
06.171,-33.08
06.187,-42.12
06.203,-48.07
06.218,-50.25
06.234,-48.58
06.250,-43.6
06.265,-36.32
06.281,-28.02
06.296,-19.81
06.312,-12.51
06.328,-6.46
06.343,-1.63
06.359,2.14
06.375,5.01
06.390,6.98
06.406,7.91
06.421,7.54
06.437,5.78
06.453,2.68
06.468,-1.41
06.484,-5.96
06.500,-10.43
06.515,-14.42
06.531,-17.86
06.546,-20.98
06.562,-24.17
06.578,-27.68
06.593,-31.53
06.609,-35.4
06.625,-38.77
06.640,-41.18
06.656,-42.48
06.671,-42.95
06.687,-43.24
06.703,-44.26
06.718,-46.82
06.734,-51.56
06.750,-58.57
06.765,-67.18
06.781,-75.85
06.796,-82.21
06.812,-83.48
06.828,-77.34
06.843,-62.69
06.859,-40.14
06.875,-11.96
06.890,18.68
06.906,48.54
06.921,75.21
06.937,97.45
06.953,115.06
06.968,128.45
06.984,138.19
07.000,144.87
07.015,148.99
07.031,151.09
07.046,151.71
07.062,151.3
07.078,150.15
07.093,148.29
07.109,145.58
07.125,141.85
07.140,136.98
07.156,130.85
07.171,123.28
07.187,113.79
07.203,101.68
07.218,86.26
07.234,67.13
07.250,44.47
07.265,19.11
07.281,-7.7
07.296,-34.53
07.312,-59.98
07.328,-82.78
07.343,-101.88
07.359,-116.49
07.375,-126.23
07.390,-131.22
07.406,-132.12
07.421,-129.83
07.437,-125.18
07.453,-118.48
07.468,-109.45
07.484,-97.44
07.500,-81.85
07.515,-62.64
07.531,-40.43
07.546,-16.49
07.562,7.55
07.578,29.92
07.593,48.78
07.609,62.23
07.625,68.34
07.640,65.59
07.656,53.47
07.671,33.18
07.687,7.95
07.703,-17.59
07.718,-38.67
07.734,-52.18
07.750,-57.71
07.765,-57.61
07.781,-55.78
07.796,-56.02
07.812,-60.51
07.828,-69.34
07.843,-80.75
07.859,-92.22
07.875,-101.42
07.890,-106.97
07.906,-108.59
07.921,-106.79
07.937,-102.39
07.953,-95.97
07.968,-87.51
07.984,-76.45
08.000,-62.07
08.015,-44.17
08.031,-23.56
08.046,-2.21
08.062,17.09
08.078,31.56
08.093,39.21
08.109,39.51
08.125,33.37
08.140,23.0
08.156,11.2
08.171,0.67
08.187,-6.73
08.203,-10.29
08.218,-10.27
08.234,-7.41
08.250,-2.14
08.265,5.55
08.281,16.01
08.296,29.34
08.312,45.02
08.328,61.84
08.343,78.34
08.359,93.23
08.375,105.54
08.390,114.51
08.406,119.28
08.421,118.9
08.437,112.72
08.453,100.95
08.468,84.95
08.484,66.84
08.500,48.7
08.515,31.52
08.531,14.65
08.546,-3.83
08.562,-26.03
08.578,-52.95
08.593,-83.53
08.609,-114.54
08.625,-141.61
08.640,-160.71
08.656,-169.63
08.671,-168.8
08.687,-161.08
08.703,-150.68
08.718,-141.84
08.734,-137.66
08.750,-139.4
08.765,-146.42
08.781,-156.35
08.796,-165.8
08.812,-171.11
08.828,-169.37
08.843,-159.42
08.859,-142.36
08.875,-121.4
08.890,-100.81
08.906,-84.48
08.921,-74.55
08.937,-70.91
08.953,-71.42
08.968,-72.99
08.984,-72.83
09.000,-69.35
09.015,-62.4
09.031,-52.88
09.046,-42.13
09.062,-31.15
09.078,-20.3
09.093,-9.27
09.109,2.53
09.125,15.64
09.140,30.1
09.156,45.37
09.171,60.54
09.187,74.53
09.203,86.43
09.218,95.66
09.234,102.03
09.250,105.71
09.265,107.2
09.281,107.23
09.296,106.62
09.312,106.03
09.328,105.49
09.343,103.97
09.359,99.36
09.375,88.98
09.390,70.83
09.406,44.65
09.421,12.73
09.437,-20.58
09.453,-50.13
09.468,-71.71
09.484,-83.23
09.500,-85.05
09.515,-79.27
09.531,-68.51
09.546,-55.02
09.562,-40.24
09.578,-25.15
09.593,-10.75
09.609,1.6
09.625,10.3
09.640,14.01
09.656,12.25
09.671,5.77
09.687,-3.61
09.703,-13.3
09.718,-20.74
09.734,-23.91
09.750,-21.75
09.765,-14.32
09.781,-2.77
09.796,10.79
09.812,23.71
09.828,33.24
09.843,37.29
09.859,34.93
09.875,26.75
09.890,14.58
09.906,0.96
09.921,-11.74
09.937,-21.89
09.953,-28.77
09.968,-32.31
09.984,-32.54
10.000,-29.12
10.015,-21.31
10.031,-8.35
10.046,9.8
10.062,31.99
10.078,55.79
10.093,78.07
10.109,96.0
10.125,108.01
10.140,114.25
10.156,116.63
10.171,118.18
10.187,122.12
10.203,130.8
10.218,144.68
10.234,161.64
10.250,177.05
10.265,184.76
10.281,178.84
10.296,155.66
10.312,115.38
10.328,62.15
10.343,3.29
10.359,-52.68
10.375,-98.16
10.390,-128.3
10.406,-141.91
10.421,-141.69
10.437,-133.21
10.453,-123.23
10.468,-117.67
10.484,-119.94
10.500,-130.13
10.515,-145.49
10.531,-161.89
10.546,-175.49
10.562,-184.03
10.578,-187.19
10.593,-186.12
10.609,-182.56
10.625,-177.94
10.640,-172.87
10.656,-167.1
10.671,-159.75
10.687,-149.95
10.703,-137.3
10.718,-122.1
10.734,-105.33
10.750,-88.36
10.765,-72.55
10.781,-59.26
10.796,-49.71
10.812,-44.93
10.828,-45.55
10.843,-51.35
10.859,-60.96
10.875,-71.96
10.890,-81.43
10.906,-86.67
10.921,-86.05
10.937,-79.25
10.953,-67.27
10.968,-51.88
10.984,-35.06
11.000,-18.56
11.015,-3.65
11.031,8.97
11.046,19.06
11.062,26.69
11.078,32.13
11.093,35.82
11.109,38.26
11.125,39.94
11.140,41.37
11.156,42.8
11.171,44.24
11.187,45.36
11.203,45.48
11.218,43.8
11.234,39.84
11.250,33.79
11.265,26.89
11.281,21.4
11.296,20.13
11.312,25.58
11.328,39.23
11.343,60.74
11.359,87.94
11.375,117.34
11.390,144.94
11.406,167.25
11.421,182.2
11.437,189.44
11.453,190.18
11.468,186.7
11.484,181.47
11.500,176.63
11.515,173.67
11.531,173.18
11.546,174.92
11.562,177.74
11.578,179.84
11.593,179.07
11.609,173.61
11.625,162.42
11.640,145.64
11.656,124.51
11.671,100.86
11.687,76.58
11.703,53.2
11.718,31.67
11.734,12.49
11.750,-4.12
11.765,-18.26
11.781,-30.2
11.796,-40.28
11.812,-48.9
11.828,-56.28
11.843,-62.54
11.859,-67.82
11.875,-72.27
11.890,-75.95
11.906,-78.38
11.921,-78.29
11.937,-73.51
11.953,-61.75
11.968,-41.56
11.984,-13.48
12.000,19.61
12.015,52.94
12.031,81.34
12.046,100.94
12.062,110.29
12.078,110.63
12.093,104.82
12.109,95.93
12.125,85.91
12.140,75.18
12.156,63.05
12.171,48.89
12.187,33.3
12.203,18.59
12.218,8.42
12.234,6.53
12.250,15.16
12.265,33.73
12.281,58.47
12.296,83.27
12.312,101.67
12.328,109.13
12.343,104.56
12.359,90.59
12.375,72.15
12.390,54.38
12.406,40.61
12.421,31.52
12.437,25.62
12.453,20.71
12.468,15.23
12.484,8.8
12.500,1.86
12.515,-5.16
12.531,-12.62
12.546,-21.75
12.562,-34.29
12.578,-51.75
12.593,-74.72
12.609,-102.41
12.625,-132.66
12.640,-162.14
12.656,-187.1
12.671,-204.33
12.687,-212.16
12.703,-211.1
12.718,-203.62
12.734,-193.21
12.750,-182.78
12.765,-173.49
12.781,-164.46
12.796,-153.51
12.812,-138.65
12.828,-119.24
12.843,-96.39
12.859,-72.45
12.875,-49.95
12.890,-30.67
12.906,-15.15
12.921,-2.92
12.937,6.97
12.953,15.37
12.968,22.66
12.984,28.67
13.000,32.76
13.015,34.07
13.031,31.88
13.046,25.96
13.062,16.7
13.078,5.21
13.093,-7.13
13.109,-18.99
13.125,-29.46
13.140,-38.02
13.156,-44.37
13.171,-48.16
13.187,-48.97
13.203,-46.61
13.218,-41.39
13.234,-34.33
13.250,-27.02
13.265,-21.05
13.281,-17.56
13.296,-16.81
13.312,-18.24
13.328,-20.85
13.343,-23.67
13.359,-26.27
13.375,-28.84
13.390,-32.12
13.406,-36.8
13.421,-43.08
13.437,-50.28
13.453,-56.83
13.468,-60.66
13.484,-59.89
13.500,-53.5
13.515,-41.68
13.531,-25.77
13.546,-7.74
13.562,10.46
13.578,27.3
13.593,41.84
13.609,53.61
13.625,62.27
13.640,67.55
13.656,69.26
13.671,67.51
13.687,62.93
13.703,56.57
13.718,49.67
13.734,43.26
13.750,37.77
13.765,32.96
13.781,28.06
13.796,22.14
13.812,14.66
13.828,5.65
13.843,-4.25
13.859,-14.15
13.875,-23.25
13.890,-31.31
13.906,-38.85
13.921,-47.08
13.937,-57.48
13.953,-71.36
13.968,-89.21
13.984,-110.37
14.000,-132.9
14.015,-153.82
14.031,-169.88
14.046,-178.3
14.062,-177.67
14.078,-168.47
14.093,-152.89
14.109,-134.15
14.125,-115.45
14.140,-99.0
14.156,-85.52
14.171,-74.53
14.187,-64.98
14.203,-56.08
14.218,-47.64
14.234,-39.98
14.250,-33.24
14.265,-26.87
14.281,-19.47
14.296,-9.23
14.312,5.43
14.328,25.03
14.343,48.89
14.359,75.27
14.375,102.06
14.390,127.47
14.406,150.34
14.421,170.27
14.437,187.28
14.453,201.42
14.468,212.6
14.484,220.61
14.500,225.28
14.515,226.87
14.531,226.15
14.546,224.15
14.562,221.97
14.578,220.41
14.593,219.77
14.609,219.92
14.625,220.35
14.640,220.3
14.656,218.74
14.671,214.67
14.687,207.35
14.703,196.64
14.718,183.17
14.734,168.14
14.750,152.95
14.765,138.81
14.781,126.41
14.796,115.84
14.812,106.93
14.828,99.27
14.843,92.45
14.859,86.02
14.875,79.39
14.890,72.04
14.906,63.58
14.921,53.98
14.937,43.55
14.953,32.82
14.968,22.18
14.984,11.84
15.000,1.74
15.015,-8.27
15.031,-18.04
15.046,-27.15
15.062,-34.7
15.078,-39.68
15.093,-41.13
15.109,-38.67
15.125,-32.55
15.140,-23.67
15.156,-13.37
15.171,-3.07
15.187,6.06
15.203,13.28
15.218,18.27
15.234,21.03
15.250,21.72
15.265,20.58
15.281,17.94
15.296,14.2
15.312,9.89
15.328,5.59
15.343,1.85
15.359,-0.96
15.375,-2.67
15.390,-3.42
15.406,-3.45
15.421,-3.04
15.437,-2.41
15.453,-1.65
15.468,-0.78
15.484,0.11
15.500,0.84
15.515,1.1
15.531,0.51
15.546,-1.26
15.562,-4.32
15.578,-8.58
15.593,-13.65
15.609,-19.03
15.625,-24.23
15.640,-28.95
15.656,-33.13
15.671,-36.97
15.687,-40.8
15.703,-44.95
15.718,-49.69
15.734,-55.11
15.750,-61.04
15.765,-67.03
15.781,-72.29
15.796,-75.74
15.812,-76.32
15.828,-73.21
15.843,-66.27
15.859,-56.07
15.875,-43.84
15.890,-31.1
15.906,-19.2
15.921,-8.99
15.937,-0.66
15.953,6.12
15.968,11.96
15.984,17.46
16.000,22.99
16.015,28.76
16.031,34.79
16.046,41.04
16.062,47.45
16.078,53.98
16.093,60.46
16.109,66.61
16.125,72.07
16.140,76.46
16.156,79.57
16.171,81.4
16.187,82.21
16.203,82.37
16.218,82.35
16.234,82.44
16.250,82.82
16.265,83.53
16.281,84.49
16.296,85.59
16.312,86.65
16.328,87.49
16.343,87.96
16.359,87.86
16.375,86.98
16.390,85.03
16.406,81.77
16.421,77.03
16.437,70.86
16.453,63.64
16.468,55.92
16.484,48.4
16.500,41.58
16.515,35.63
16.531,30.2
16.546,24.69
16.562,18.39
16.578,10.93
16.593,2.5
16.609,-6.19
16.625,-14.13
16.640,-20.35
16.656,-24.2
16.671,-25.37
16.687,-23.71
16.703,-19.21
16.718,-11.91
16.734,-2.08
16.750,9.59
16.765,21.99
16.781,33.81
16.796,43.91
16.812,51.52
16.828,56.34
16.843,58.21
16.859,56.93
16.875,52.21
16.890,43.77
16.906,31.8
16.921,17.11
16.937,1.19
16.953,-14.26
16.968,-27.76
16.984,-38.57
17.000,-46.71
17.015,-52.88
17.031,-57.98
17.046,-62.88
17.062,-68.15
17.078,-74.03
17.093,-80.66
17.109,-88.11
17.125,-96.49
17.140,-105.93
17.156,-116.49
17.171,-128.02
17.187,-140.2
17.203,-152.4
17.218,-163.7
17.234,-173.02
17.250,-179.11
17.265,-180.92
17.281,-177.78
17.296,-169.68
17.312,-157.31
17.328,-141.74
17.343,-124.21
17.359,-105.78
17.375,-87.17
17.390,-68.87
17.406,-51.25
17.421,-34.67
17.437,-19.59
17.453,-6.47
17.468,4.36
17.484,12.81
17.500,18.99
17.515,23.21
17.531,25.85
17.546,27.29
17.562,27.81
17.578,27.62
17.593,26.89
17.609,25.81
17.625,24.69
17.640,23.88
17.656,23.62
17.671,23.96
17.687,24.59
17.703,24.98
17.718,24.64
17.734,23.29
17.750,20.99
17.765,18.09
17.781,15.06
17.796,12.18
17.812,9.52
17.828,6.9
17.843,4.07
17.859,0.92
17.875,-2.43
17.890,-5.73
17.906,-8.69
17.921,-11.1
17.937,-12.84
17.953,-13.82
17.968,-13.93
17.984,-13.09
18.000,-11.36
18.015,-9.24
18.031,-7.67
18.046,-7.78
18.062,-10.47
18.078,-15.88
18.093,-23.21
18.109,-30.89
18.125,-37.28
18.140,-41.27
18.156,-42.78
18.171,-42.67
18.187,-42.25
18.203,-42.64
18.218,-44.24
18.234,-46.64
18.250,-48.87
18.265,-49.9
18.281,-49.03
18.296,-46.04
18.312,-41.04
18.328,-34.35
18.343,-26.48
18.359,-18.13
18.375,-10.22
18.390,-3.62
18.406,1.06
18.421,3.76
18.437,4.95
18.453,5.44
18.468,5.96
18.484,6.94
18.500,8.43
18.515,10.19
18.531,11.95
18.546,13.42
18.562,14.22
18.578,14.02
18.593,12.6
18.609,10.17
18.625,7.58
18.640,6.19
18.656,7.38
18.671,12.14
18.687,20.71
18.703,32.62
18.718,46.92
18.734,62.44
18.750,78.06
18.765,92.85
18.781,106.06
18.796,117.12
18.812,125.68
18.828,131.41
18.843,134.05
18.859,133.27
18.875,128.59
18.890,119.55
18.906,105.73
18.921,87.12
18.937,64.35
18.953,38.95
18.968,13.18
18.984,-10.25
19.000,-28.89
19.015,-41.31
19.031,-47.5
19.046,-48.83
19.062,-47.54
19.078,-45.84
19.093,-45.43
19.109,-47.09
19.125,-50.73
19.140,-55.71
19.156,-61.11
19.171,-66.04
19.187,-69.95
19.203,-72.99
19.218,-75.98
19.234,-80.05
19.250,-85.98
19.265,-93.35
19.281,-100.36
19.296,-104.25
19.312,-102.28
19.328,-92.85
19.343,-76.11
19.359,-53.78
19.375,-28.34
19.390,-2.28
19.406,22.48
19.421,44.54
19.437,62.79
19.453,76.22
19.468,84.07
19.484,86.32
19.500,84.09
19.515,79.48
19.531,74.89
19.546,72.16
19.562,71.67
19.578,72.4
19.593,72.44
19.609,70.05
19.625,64.64
19.640,57.09
19.656,49.3
19.671,43.18
19.687,39.9
19.703,39.57
19.718,41.56
19.734,45.28
19.750,50.47
19.765,57.19
19.781,65.27
19.796,73.71
19.812,80.44
19.828,82.73
19.843,78.01
19.859,64.64
19.875,42.45
19.890,12.61
19.906,-22.6
19.921,-60.63
19.937,-98.94
19.953,-135.55
19.968,-169.29
19.984,-199.93
20.000,-228.31
20.015,-256.23
20.031,-286.11
20.046,-320.1
20.062,-358.53
20.078,-398.42
20.093,-432.96
20.109,-452.45
20.125,-447.11
20.140,-410.51
20.156,-342.48
20.171,-250.16
20.187,-146.51
20.203,-46.62
20.218,36.39
20.234,94.67
20.250,126.73
20.265,136.4
20.281,130.37
20.296,115.6
20.312,97.45
20.328,79.09
20.343,61.96
20.359,46.81
20.375,34.39
20.390,25.7
20.406,21.4
20.421,21.01
20.437,22.79
20.453,24.26
20.468,23.41
20.484,19.71
20.500,14.37
20.515,9.51
20.531,7.1
20.546,7.68
20.562,10.2
20.578,12.84
20.593,14.13
20.609,13.89
20.625,13.31
20.640,14.2
20.656,18.02
20.671,25.26
20.687,35.29
20.703,46.68
20.718,57.66
20.734,66.29
20.750,70.82
20.765,70.14
20.781,64.54
20.796,55.83
20.812,46.77
20.828,39.88
20.843,35.94
20.859,33.77
20.875,30.96
20.890,25.53
20.906,17.22
20.921,7.72
20.937,-0.5
20.953,-5.81
20.968,-8.29
20.984,-9.45
21.000,-10.88
21.015,-13.07
21.031,-15.09
21.046,-15.46
21.062,-13.53
21.078,-10.19
21.093,-7.59
21.109,-8.06
21.125,-12.91
21.140,-21.82
21.156,-33.14
21.171,-44.68
21.187,-54.56
21.203,-61.63
21.218,-65.34
21.234,-65.44
21.250,-61.66
21.265,-53.87
21.281,-42.24
21.296,-27.5
21.312,-11.07
21.328,5.36
21.343,20.22
21.359,32.56
21.375,42.18
21.390,49.4
21.406,54.72
21.421,58.48
21.437,60.81
21.453,61.57
21.468,60.68
21.484,58.26
21.500,54.76
21.515,50.91
21.531,47.51
21.546,45.17
21.562,44.1
21.578,43.98
21.593,43.96
21.609,43.11
21.625,40.68
21.640,36.39
21.656,30.53
21.671,23.71
21.687,16.61
21.703,9.66
21.718,3.01
21.734,-3.39
21.750,-9.6
21.765,-15.66
21.781,-21.52
21.796,-27.07
21.812,-32.14
21.828,-36.27
21.843,-38.83
21.859,-38.98
21.875,-36.0
21.890,-29.62
21.906,-20.33
21.921,-9.36
21.937,1.7
21.953,11.35
21.968,18.67
21.984,23.48
22.000,26.17
22.015,27.22
22.031,26.97
22.046,25.38
22.062,22.32
22.078,17.96
22.093,12.96
22.109,8.28
22.125,4.77
22.140,2.84
22.156,2.19
22.171,2.0
22.187,1.33
22.203,-0.31
22.218,-2.71
22.234,-5.2
22.250,-7.28
22.265,-8.92
22.281,-10.67
22.296,-13.33
22.312,-17.51
22.328,-23.45
22.343,-30.96
22.359,-39.62
22.375,-48.91
22.390,-58.54
22.406,-68.0
22.421,-76.38
22.437,-82.41
22.453,-84.82
22.468,-82.86
22.484,-76.44
22.500,-65.99
22.515,-52.18
22.531,-36.65
22.546,-21.14
22.562,-7.03
22.578,4.96
22.593,14.82
22.609,22.85
22.625,29.65
22.640,35.81
22.656,41.61
22.671,45.1
22.687,44.08
22.703,37.52
22.718,26.68
22.734,14.68
22.750,4.83
22.765,-0.49
22.781,-0.39
22.796,4.49
22.812,9.48
22.828,9.55
22.843,1.54
22.859,-14.57
22.875,-36.47
22.890,-61.29
22.906,-86.19
22.921,-108.15
22.937,-124.2
22.953,-136.02
22.968,-147.39
22.984,-162.84
23.000,-185.79
23.015,-217.97
23.031,-259.33
23.046,-307.74
23.062,-358.75
23.078,-384.56
23.093,-363.99
23.109,-292.5
23.125,-187.37
23.140,-75.16
23.156,24.75
23.171,105.34
23.187,168.25
23.203,218.02
23.218,258.69
23.234,288.72
23.250,305.77
23.265,309.58
23.281,303.44
23.296,293.05
23.312,283.57
23.328,277.87
23.343,276.62
23.359,279.59
23.375,281.43
23.390,277.37
23.406,265.3
23.421,246.26
23.437,223.82
23.453,201.92
23.468,183.56
23.484,170.31
23.500,162.49
23.515,157.12
23.531,151.14
23.546,142.75
23.562,130.65
23.578,115.08
23.593,97.12
23.609,77.94
23.625,57.78
23.640,39.41
23.656,22.32
23.671,5.37
23.687,-12.49
23.703,-33.7
23.718,-59.34
23.734,-88.43
23.750,-117.95
23.765,-144.1
23.781,-163.44
23.796,-174.8
23.812,-178.27
23.828,-175.15
23.843,-170.4
23.859,-168.61
23.875,-172.33
23.890,-181.64
23.906,-195.42
23.921,-213.04
23.937,-235.64
23.953,-265.34
23.968,-285.71
23.984,-286.78
24.000,-268.3
24.015,-239.95
24.031,-213.1
24.046,-193.95
24.062,-182.25
24.078,-173.6
24.093,-161.0
24.109,-137.36
24.125,-101.54
24.140,-56.77
24.156,-9.81
24.171,31.5
24.187,60.77
24.203,75.28
24.218,76.36
24.234,68.54
24.250,57.37
24.265,44.49
24.281,29.99
24.296,13.84
24.312,-2.51
24.328,-17.4
24.343,-27.09
24.359,-29.36
24.375,-23.9
24.390,-12.19
24.406,1.88
24.421,14.89
24.437,25.02
24.453,32.25
24.468,37.6
24.484,42.35
24.500,46.9
24.515,51.11
24.531,54.57
24.546,56.05
24.562,55.31
24.578,52.77
24.593,49.55
24.609,47.01
24.625,46.54
24.640,48.98
24.656,55.19
24.671,66.43
24.687,80.05
24.703,95.33
24.718,112.35
24.734,131.76
24.750,154.1
24.765,179.01
24.781,204.19
24.796,225.67
24.812,238.79
24.828,239.75
24.843,227.79
24.859,204.93
24.875,175.39
24.890,143.93
24.906,114.33
24.921,88.42
24.937,66.36
24.953,47.6
24.968,31.49
24.984,18.1
25.000,7.25
25.015,-1.81
25.031,-10.44
25.046,-20.04
25.062,-31.49
25.078,-44.58
25.093,-57.99
25.109,-69.66
25.125,-77.13
25.140,-78.68
25.156,-73.83
25.171,-63.48
25.187,-49.73
25.203,-35.2
25.218,-22.1
25.234,-11.52
25.250,-3.2
25.265,4.18
25.281,11.91
25.296,20.44
25.312,28.99
25.328,36.05
25.343,40.21
25.359,40.98
25.375,39.03
25.390,35.72
25.406,32.32
25.421,29.34
25.437,26.37
25.453,22.56
25.468,17.37
25.484,10.95
25.500,4.14
25.515,-1.93
25.531,-6.53
25.546,-9.57
25.562,-11.65
25.578,-13.7
25.593,-16.41
25.609,-19.95
25.625,-23.96
25.640,-27.87
25.656,-31.33
25.671,-34.54
25.687,-38.09
25.703,-42.8
25.718,-49.1
25.734,-56.97
25.750,-65.86
25.765,-75.11
25.781,-84.15
25.796,-92.52
25.812,-99.65
25.828,-104.46
25.843,-105.5
25.859,-101.27
25.875,-90.88
25.890,-74.51
25.906,-53.45
25.921,-29.7
25.937,-5.39
25.953,17.57
25.968,37.82
25.984,54.37
26.000,66.56
26.015,73.98
26.031,76.72
26.046,75.36
26.062,71.02
26.078,65.03
26.093,58.46
26.109,51.86
26.125,45.16
26.140,38.01
26.156,30.21
26.171,22.01
26.187,14.19
26.203,7.75
26.218,3.5
26.234,1.63
26.250,1.68
26.265,2.63
26.281,3.43
26.296,3.2
26.312,1.43
26.328,-2.08
26.343,-7.3
26.359,-14.05
26.375,-22.03
26.390,-30.93
26.406,-40.52
26.421,-50.76
26.437,-61.87
26.453,-74.08
26.468,-87.44
26.484,-101.5
26.500,-115.18
26.515,-127.03
26.531,-135.7
26.546,-140.29
26.562,-140.45
26.578,-136.31
26.593,-127.91
26.609,-115.14
26.625,-97.95
26.640,-76.95
26.656,-53.89
26.671,-31.32
26.687,-11.67
26.703,4.24
26.718,17.85
26.734,32.36
26.750,51.28
26.765,76.84
26.781,109.37
26.796,147.43
26.812,188.53
26.828,229.28
26.843,265.14
26.859,290.09
26.875,297.43
26.890,281.39
26.906,239.6
26.921,174.87
26.937,95.09
26.953,11.36
26.968,-65.27
26.984,-126.59
27.000,-168.48
27.015,-190.37
27.031,-193.92
27.046,-181.89
27.062,-157.42
27.078,-124.24
27.093,-86.78
27.109,-49.75
27.125,-16.97
27.140,9.93
27.156,32.02
27.171,52.26
27.187,73.07
27.203,94.12
27.218,111.27
27.234,117.68
27.250,106.65
27.265,74.92
27.281,24.54
27.296,-37.36
27.312,-100.46
27.328,-154.16
27.343,-189.99
27.359,-203.02
27.375,-192.14
27.390,-159.85
27.406,-111.62
27.421,-55.2
27.437,0.3
27.453,45.7
27.468,73.59
27.484,80.14
27.500,66.67
27.515,39.86
27.531,10.53
27.546,-9.59
27.562,-11.6
27.578,7.68
27.593,44.92
27.609,92.18
27.625,140.23
27.640,182.06
27.656,214.96
27.671,240.51
27.687,262.95
27.703,286.77
27.718,314.25
27.734,344.19
27.750,371.89
27.765,390.71
27.781,394.51
27.796,380.15
27.812,348.79
27.828,305.48
27.843,257.23
27.859,210.4
27.875,169.03
27.890,134.47
27.906,106.22
27.921,83.3
27.937,64.93
27.953,50.45
27.968,38.87
27.984,28.54
28.000,17.48
28.015,4.22
28.031,-11.52
28.046,-28.92
28.062,-46.45
28.078,-62.7
28.093,-77.41
28.109,-91.83
28.125,-108.49
28.140,-129.92
28.156,-156.8
28.171,-186.62
28.187,-213.69
28.203,-230.69
28.218,-231.72
28.234,-215.2
28.250,-185.0
28.265,-149.14
28.281,-116.74
28.296,-94.59
28.312,-85.25
28.328,-87.46
28.343,-97.75
28.359,-112.31
28.375,-128.01
28.390,-142.24
28.406,-152.39
28.421,-155.98
28.437,-151.35
28.453,-138.56
28.468,-119.66
28.484,-98.04
28.500,-77.25
28.515,-60.03
28.531,-47.81
28.546,-40.87
28.562,-38.81
28.578,-40.76
28.593,-45.48
28.609,-51.54
28.625,-57.62
28.640,-63.15
28.656,-68.51
28.671,-74.82
28.687,-82.96
28.703,-92.79
28.718,-102.71
28.734,-110.16
28.750,-112.67
28.765,-109.02
28.781,-99.96
28.796,-87.73
28.812,-75.12
28.828,-63.98
28.843,-54.72
28.859,-46.26
28.875,-37.1
28.890,-26.7
28.906,-15.97
28.921,-6.98
28.937,-1.85
28.953,-1.76
28.968,-6.58
28.984,-15.55
29.000,-27.96
29.015,-44.05
29.031,-64.4
29.046,-89.09
29.062,-116.94
29.078,-145.5
29.093,-172.0
29.109,-194.46
29.125,-212.33
29.140,-226.37
29.156,-237.64
29.171,-246.59
29.187,-252.61
29.203,-254.02
29.218,-248.85
29.234,-235.6
29.250,-213.91
29.265,-184.67
29.281,-150.19
29.296,-113.32
29.312,-76.65
29.328,-41.5
29.343,-8.05
29.359,23.88
29.375,53.15
29.390,76.35
29.406,88.47
29.421,85.04
29.437,64.93
29.453,31.5
29.468,-8.74
29.484,-49.56
29.500,-87.87
29.515,-124.66
29.531,-162.48
29.546,-201.53
29.562,-237.2
29.578,-260.67
29.593,-263.09
29.609,-240.34
29.625,-195.74
29.640,-138.68
29.656,-80.45
29.671,-29.45
29.687,11.31
29.703,43.5
29.718,70.91
29.734,96.3
29.750,120.21
29.765,141.47
29.781,158.77
29.796,171.78
29.812,181.25
29.828,188.62
29.843,194.95
29.859,200.76
29.875,205.88
29.890,210.1
29.906,213.41
29.921,216.17
29.937,218.94
29.953,222.03
29.968,225.37
29.984,227.94
30.000,227.67
30.015,221.56
30.031,206.46
30.046,180.33
30.062,143.65
30.078,100.35
30.093,57.15
30.109,21.65
30.125,-0.41
30.140,-7.24
30.156,-1.4
30.171,11.83
30.187,27.07
30.203,40.87
30.218,52.26
30.234,61.53
30.250,68.59
30.265,72.2
30.281,70.58
30.296,62.88
30.312,50.16
30.328,35.47
30.343,22.37
30.359,13.29
30.375,8.54
30.390,6.86
30.406,6.77
30.421,7.85
30.437,11.15
30.453,18.05
30.468,29.05
30.484,42.91
30.500,56.86
30.515,67.77
30.531,73.59
30.546,74.09
30.562,70.64
30.578,65.47
30.593,60.6
30.609,57.2
30.625,55.34
30.640,54.14
30.656,52.16
30.671,47.85
30.687,40.24
30.703,29.36
30.718,16.53
30.734,3.95
30.750,-6.09
30.765,-12.1
30.781,-13.85
30.796,-11.95
30.812,-7.29
30.828,-0.41
30.843,8.54
30.859,19.33
30.875,31.08
30.890,41.98
30.906,49.92
30.921,53.31
30.937,51.94
30.953,47.12
30.968,41.1
30.984,36.07
31.000,33.32
31.015,33.04
31.031,34.39
31.046,36.12
31.062,36.79
31.078,35.06
31.093,29.77
31.109,20.12
31.125,6.15
31.140,-10.68
31.156,-27.32
31.171,-39.76
31.187,-44.2
31.203,-38.81
31.218,-24.92
31.234,-6.97
31.250,8.77
31.265,16.48
31.281,12.81
31.296,-1.99
31.312,-24.35
31.328,-48.7
31.343,-69.24
31.359,-81.4
31.375,-82.72
31.390,-73.06
31.406,-54.41
31.421,-30.24
31.437,-4.71
31.453,18.33
31.468,36.05
31.484,47.16
31.500,51.88
31.515,51.58
31.531,48.06
31.546,42.99
31.562,37.5
31.578,32.12
31.593,26.74
31.609,20.97
31.625,14.39
31.640,7.08
31.656,-0.26
31.671,-6.32
31.687,-9.57
31.703,-8.87
31.718,-3.89
31.734,4.7
31.750,15.52
31.765,26.89
31.781,37.32
31.796,45.55
31.812,50.65
31.828,51.81
31.843,48.34
31.859,39.84
31.875,26.36
31.890,8.87
31.906,-10.69
31.921,-29.4
31.937,-43.91
31.953,-51.21
31.968,-49.58
31.984,-39.23
32.000,-22.25
32.015,-2.07
32.031,17.76
32.046,34.56
32.062,47.11
32.078,55.44
32.093,60.15
32.109,61.67
32.125,60.0
32.140,54.92
32.156,46.55
32.171,35.91
32.187,24.71
32.203,14.87
32.218,7.71
32.234,3.44
32.250,1.33
32.265,0.36
32.281,-0.03
32.296,0.36
32.312,2.18
32.328,5.72
32.343,10.33
32.359,14.4
32.375,16.02
32.390,14.01
32.406,8.43
32.421,0.56
32.437,-7.84
32.453,-15.36
32.468,-21.53
32.484,-26.74
32.500,-31.75
32.515,-37.13
32.531,-42.93
32.546,-48.83
32.562,-54.37
32.578,-59.0
32.593,-62.13
32.609,-63.05
32.625,-60.96
32.640,-55.19
32.656,-45.55
32.671,-32.51
32.687,-17.2
32.703,-1.19
32.718,13.98
32.734,27.03
32.750,37.14
32.765,44.0
32.781,47.79
32.796,49.06
32.812,48.72
32.828,47.87
32.843,47.53
32.859,48.39
32.875,50.57
32.890,53.55
32.906,56.41
32.921,58.14
32.937,58.04
32.953,56.07
32.968,52.77
32.984,49.1
33.000,45.97
33.015,43.86
33.031,42.69
33.046,41.93
33.062,40.98
33.078,39.47
33.093,37.41
33.109,34.95
33.125,32.18
33.140,28.83
33.156,24.34
33.171,18.05
33.187,9.49
33.203,-1.39
33.218,-14.24
33.234,-28.4
33.250,-43.14
33.265,-57.67
33.281,-71.2
33.296,-82.93
33.312,-92.0
33.328,-97.78
33.343,-99.96
33.359,-98.73
33.375,-94.72
33.390,-88.8
33.406,-81.85
33.421,-74.61
33.437,-67.65
33.453,-61.37
33.468,-56.04
33.484,-51.78
33.500,-48.52
33.515,-46.11
33.531,-44.37
33.546,-43.26
33.562,-42.81
33.578,-43.1
33.593,-43.97
33.609,-45.0
33.625,-45.63
33.640,-45.41
33.656,-44.27
33.671,-42.57
33.687,-40.89
33.703,-39.83
33.718,-39.73
33.734,-40.63
33.750,-42.34
33.765,-44.49
33.781,-46.51
33.796,-47.82
33.812,-47.88
33.828,-46.5
33.843,-44.1
33.859,-41.72
33.875,-40.87
33.890,-42.98
33.906,-49.06
33.921,-59.12
33.937,-72.11
33.953,-85.7
33.968,-96.5
33.984,-100.72
34.000,-95.32
34.015,-79.48
34.031,-55.5
34.046,-28.78
34.062,-6.11
34.078,6.77
34.093,7.73
34.109,-0.88
34.125,-13.24
34.140,-22.85
34.156,-25.59
34.171,-21.08
34.187,-12.29
34.203,-3.31
34.218,2.94
34.234,6.04
34.250,7.71
34.265,10.51
34.281,16.42
34.296,26.12
34.312,39.19
34.328,54.81
34.343,72.36
34.359,91.55
34.375,111.93
34.390,132.4
34.406,150.87
34.421,164.68
34.437,171.44
34.453,170.0
34.468,161.12
34.484,147.37
34.500,132.18
34.515,118.5
34.531,107.78
34.546,99.56
34.562,92.1
34.578,83.5
34.593,72.62
34.609,59.56
34.625,45.54
34.640,32.36
34.656,21.69
34.671,14.73
34.687,11.96
34.703,13.04
34.718,17.05
34.734,22.76
34.750,28.94
34.765,34.67
34.781,39.41
34.796,42.79
34.812,44.48
34.828,44.16
34.843,41.74
34.859,37.51
34.875,32.32
34.890,27.2
34.906,22.87
34.921,19.42
34.937,16.21
34.953,12.33
34.968,7.19
34.984,1.03
35.000,-5.12
35.015,-9.81
35.031,-11.88
35.046,-10.91
35.062,-7.47
35.078,-2.86
35.093,1.34
35.109,3.68
35.125,3.17
35.140,-0.53
35.156,-6.96
35.171,-15.14
35.187,-23.68
35.203,-31.29
35.218,-37.2
35.234,-41.4
35.250,-44.52
35.265,-47.47
35.281,-50.92
35.296,-54.94
35.312,-59.17
35.328,-63.0
35.343,-65.89
35.359,-67.64
35.375,-68.27
35.390,-67.76
35.406,-65.95
35.421,-62.53
35.437,-57.18
35.453,-49.94
35.468,-41.24
35.484,-31.91
35.500,-22.91
35.515,-15.09
35.531,-9.06
35.546,-5.18
35.562,-3.64
35.578,-4.38
35.593,-7.02
35.609,-10.58
35.625,-13.47
35.640,-13.74
35.656,-9.6
35.671,-0.3
35.687,13.36
35.703,29.08
35.718,43.83
35.734,54.88
35.750,60.75
35.765,61.49
35.781,58.28
35.796,52.77
35.812,46.32
35.828,39.76
35.843,33.5
35.859,27.84
35.875,23.06
35.890,19.26
35.906,16.3
35.921,13.62
35.937,10.45
35.953,6.22
35.968,0.68
35.984,-6.0
36.000,-13.43
36.015,-21.34
36.031,-29.71
36.046,-38.63
36.062,-48.11
36.078,-57.83
36.093,-66.98
36.109,-74.3
36.125,-78.49
36.140,-78.59
36.156,-74.42
36.171,-66.76
36.187,-57.15
36.203,-47.5
36.218,-39.4
36.234,-33.74
36.250,-30.65
36.265,-29.74
36.281,-30.54
36.296,-32.74
36.312,-36.28
36.328,-40.92
36.343,-46.21
36.359,-51.32
36.375,-55.37
36.390,-57.81
36.406,-58.45
36.421,-57.36
36.437,-54.55
36.453,-49.85
36.468,-42.95
36.484,-33.86
36.500,-23.05
36.515,-11.45
36.531,-0.07
36.546,10.55
36.562,20.54
36.578,30.49
36.593,40.92
36.609,51.85
36.625,62.61
36.640,72.17
36.656,79.6
36.671,84.48
36.687,86.93
36.703,87.38
36.718,86.34
36.734,84.24
36.750,81.45
36.765,78.25
36.781,74.92
36.796,71.61
36.812,68.3
36.828,64.81
36.843,60.99
36.859,56.99
36.875,53.2
36.890,50.1
36.906,48.01
36.921,46.84
36.937,46.1
36.953,45.11
36.968,43.27
36.984,40.41
37.000,36.73
37.015,32.68
37.031,28.67
37.046,24.96
37.062,21.58
37.078,18.5
37.093,15.69
37.109,13.28
37.125,11.55
37.140,10.91
37.156,11.73
37.171,14.34
37.187,18.82
37.203,25.05
37.218,32.65
37.234,40.98
37.250,49.25
37.265,56.61
37.281,62.2
37.296,65.26
37.312,65.25
37.328,61.85
37.343,55.04
37.359,45.13
37.375,32.93
37.390,19.61
37.406,6.52
37.421,-5.21
37.437,-15.08
37.453,-23.31
37.468,-30.81
37.484,-38.65
37.500,-47.53
37.515,-57.5
37.531,-67.88
37.546,-77.59
37.562,-85.51
37.578,-90.74
37.593,-92.86
37.609,-91.98
37.625,-88.67
37.640,-83.73
37.656,-77.98
37.671,-71.82
37.687,-65.17
37.703,-57.66
37.718,-49.05
37.734,-39.69
37.750,-30.76
37.765,-23.84
37.781,-20.35
37.796,-20.89
37.812,-24.88
37.828,-30.54
37.843,-35.15
37.859,-35.66
37.875,-29.44
37.890,-15.57
37.906,4.47
37.921,26.58
37.937,45.29
37.953,55.97
37.968,57.01
37.984,50.76
38.000,42.76
38.015,39.57
38.031,46.29
38.046,64.92
38.062,93.8
38.078,127.98
38.093,160.11
38.109,181.65
38.125,184.58
38.140,163.68
38.156,118.67
38.171,55.06
38.187,-16.83
38.203,-85.0
38.218,-139.48
38.234,-175.0
38.250,-191.42
38.265,-192.15
38.281,-181.83
38.296,-164.48
38.312,-143.07
38.328,-119.93
38.343,-97.29
38.359,-77.25
38.375,-61.24
38.390,-49.46
38.406,-40.82
38.421,-33.61
38.437,-26.38
38.453,-18.71
38.468,-11.22
38.484,-5.19
38.500,-1.8
38.515,-1.59
38.531,-4.4
38.546,-9.56
38.562,-16.1
38.578,-22.85
38.593,-28.36
38.609,-31.05
38.625,-29.8
38.640,-24.6
38.656,-16.88
38.671,-9.26
38.687,-4.27
38.703,-3.31
38.718,-5.75
38.734,-9.48
38.750,-12.03
38.765,-12.08
38.781,-9.95
38.796,-7.24
38.812,-5.85
38.828,-6.89
38.843,-10.55
38.859,-16.41
38.875,-24.1
38.890,-33.56
38.906,-44.68
38.921,-56.85
38.937,-68.68
38.953,-78.26
38.968,-83.77
38.984,-84.16
39.000,-79.51
39.015,-70.8
39.031,-59.43
39.046,-46.71
39.062,-33.59
39.078,-20.62
39.093,-8.2
39.109,3.29
39.125,13.34
39.140,21.25
39.156,26.42
39.171,28.58
39.187,28.0
39.203,25.57
39.218,22.53
39.234,20.21
39.250,19.6
39.265,21.17
39.281,24.86
39.296,30.29
39.312,36.93
39.328,44.11
39.343,51.1
39.359,57.11
39.375,61.43
39.390,63.62
39.406,63.63
39.421,61.84
39.437,58.97
39.453,55.77
39.468,52.87
39.484,50.6
39.500,48.97
39.515,47.75
39.531,46.63
39.546,45.34
39.562,43.78
39.578,42.04
39.593,40.3
39.609,38.74
39.625,37.41
39.640,36.17
39.656,34.73
39.671,32.87
39.687,30.5
39.703,27.66
39.718,24.48
39.734,21.13
39.750,17.75
39.765,14.69
39.781,12.41
39.796,11.44
39.812,12.11
39.828,14.2
39.843,16.87
39.859,18.81
39.875,18.84
39.890,16.25
39.906,11.17
39.921,4.46
39.937,-2.71
39.953,-9.34
39.968,-14.87
39.984,-19.31
40.000,-23.0
40.015,-26.36
40.031,-29.67
40.046,-32.93
40.062,-35.96
40.078,-38.45
40.093,-40.25
40.109,-41.44
40.125,-42.4
40.140,-43.75
40.156,-46.08
40.171,-49.82
40.187,-55.0
40.203,-61.13
40.218,-67.29
40.234,-72.15
40.250,-74.3
40.265,-72.43
40.281,-65.74
40.296,-54.25
40.312,-38.96
40.328,-21.64
40.343,-4.43
40.359,10.77
40.375,22.74
40.390,31.05
40.406,36.05
40.421,38.46
40.437,39.09
40.453,38.64
40.468,37.62
40.484,36.42
40.500,35.36
40.515,34.65
40.531,34.3
40.546,34.2
40.562,34.1
40.578,33.79
40.593,33.16
40.609,32.4
40.625,31.79
40.640,31.52
40.656,31.56
40.671,31.52
40.687,30.82
40.703,28.95
40.718,25.78
40.734,21.68
40.750,17.44
40.765,13.81
40.781,11.19
40.796,9.38
40.812,7.57
40.828,4.82
40.843,0.47
40.859,-5.48
40.875,-12.3
40.890,-18.91
40.906,-24.2
40.921,-27.33
40.937,-27.88
40.953,-25.68
40.968,-21.0
40.984,-14.54
41.000,-7.58
41.015,-1.73
41.031,1.46
41.046,1.21
41.062,-1.96
41.078,-6.37
41.093,-9.87
41.109,-10.78
41.125,-8.74
41.140,-4.77
41.156,-0.51
41.171,2.6
41.187,4.15
41.203,4.72
41.218,5.39
41.234,6.84
41.250,8.99
41.265,10.9
41.281,11.33
41.296,9.46
41.312,5.33
41.328,-0.14
41.343,-5.56
41.359,-9.66
41.375,-11.89
41.390,-12.49
41.406,-12.36
41.421,-12.5
41.437,-13.66
41.453,-16.04
41.468,-19.26
41.484,-22.59
41.500,-25.16
41.515,-26.2
41.531,-25.18
41.546,-21.84
41.562,-16.28
41.578,-8.92
41.593,-0.46
41.609,8.24
41.625,16.36
41.640,23.28
41.656,28.58
41.671,32.08
41.687,33.81
41.703,33.91
41.718,32.7
41.734,30.61
41.750,28.23
41.765,26.07
41.781,24.47
41.796,23.42
41.812,22.52
41.828,21.16
41.843,18.71
41.859,14.83
41.875,9.57
41.890,3.39
41.906,-2.99
41.921,-8.72
41.937,-12.92
41.953,-14.82
41.968,-13.89
41.984,-10.05
42.000,-3.76
42.015,4.07
42.031,12.1
42.046,18.91
42.062,23.28
42.078,24.37
42.093,21.86
42.109,16.06
42.125,7.91
42.140,-1.11
42.156,-9.17
42.171,-14.64
42.187,-16.48
42.203,-14.61
42.218,-9.83
42.234,-3.47
42.250,3.16
42.265,9.16
42.281,14.13
42.296,17.96
42.312,20.66
42.328,22.16
42.343,22.32
42.359,21.06
42.375,18.47
42.390,14.88
42.406,10.68
42.421,6.36
42.437,2.32
42.453,-1.12
42.468,-3.7
42.484,-5.28
42.500,-5.84
42.515,-5.45
42.531,-4.28
42.546,-2.64
42.562,-0.85
42.578,0.76
42.593,1.89
42.609,2.34
42.625,2.06
42.640,1.16
42.656,-0.15
42.671,-1.62
42.687,-3.08
42.703,-4.45
42.718,-5.65
42.734,-6.56
42.750,-6.95
42.765,-6.55
42.781,-5.12
42.796,-2.72
42.812,0.38
42.828,3.68
42.843,6.65
42.859,8.92
42.875,10.22
42.890,10.55
42.906,10.02
42.921,8.9
42.937,7.47
42.953,6.06
42.968,4.93
42.984,4.3
43.000,4.28
43.015,4.83
43.031,5.86
43.046,7.19
43.062,8.58
43.078,9.81
43.093,10.71
43.109,11.26
43.125,11.45
43.140,11.41
43.156,11.11
43.171,10.48
43.187,9.25
43.203,7.16
43.218,3.99
43.234,-0.34
43.250,-5.69
43.265,-11.85
43.281,-18.38
43.296,-24.85
43.312,-30.68
43.328,-35.32
43.343,-38.26
43.359,-39.14
43.375,-37.98
43.390,-35.15
43.406,-31.24
43.421,-26.9
43.437,-22.64
43.453,-18.76
43.468,-15.32
43.484,-12.41
43.500,-10.07
43.515,-8.36
43.531,-7.24
43.546,-6.5
43.562,-5.8
43.578,-4.87
43.593,-3.61
43.609,-2.12
43.625,-0.65
43.640,0.62
43.656,1.61
43.671,2.27
43.687,2.54
43.703,2.33
43.718,1.5
43.734,0.02
43.750,-1.92
43.765,-4.05
43.781,-5.99
43.796,-7.44
43.812,-8.28
43.828,-8.58
43.843,-8.55
43.859,-8.5
43.875,-8.68
43.890,-9.19
43.906,-10.0
43.921,-10.85
43.937,-11.37
43.953,-11.23
43.968,-10.12
43.984,-7.85
44.000,-4.38
44.015,0.16
44.031,5.51
44.046,11.28
44.062,16.94
44.078,21.92
44.093,25.72
44.109,27.95
44.125,28.48
44.140,27.48
44.156,25.34
44.171,22.6
44.187,19.82
44.203,17.39
44.218,15.46
44.234,13.93
44.250,12.59
44.265,11.27
44.281,9.89
44.296,8.49
44.312,7.12
44.328,5.79
44.343,4.41
44.359,2.87
44.375,1.08
44.390,-0.93
44.406,-2.98
44.421,-4.9
44.437,-6.52
44.453,-7.81
44.468,-8.84
44.484,-9.76
44.500,-10.69
44.515,-11.66
44.531,-12.63
44.546,-13.41
44.562,-13.83
44.578,-13.63
44.593,-12.56
44.609,-10.4
44.625,-7.04
44.640,-2.51
44.656,3.0
44.671,8.97
44.687,14.77
44.703,19.73
44.718,23.33
44.734,25.4
44.750,26.04
44.765,25.63
44.781,24.66
44.796,23.5
44.812,22.34
44.828,21.25
44.843,20.2
44.859,19.23
44.875,18.44
44.890,18.03
44.906,18.15
44.921,18.84
44.937,20.0
44.953,21.38
44.968,22.72
44.984,23.8
45.000,24.54
45.015,24.96
45.031,25.21
45.046,25.41
45.062,25.6
45.078,25.71
45.093,25.61
45.109,25.12
45.125,24.02
45.140,22.1
45.156,19.12
45.171,15.04
45.187,10.01
45.203,4.51
45.218,-0.75
45.234,-4.87
45.250,-7.06
45.265,-6.82
45.281,-4.04
45.296,0.81
45.312,6.84
45.328,12.9
45.343,17.87
45.359,21.03
45.375,22.23
45.390,21.84
45.406,20.53
45.421,18.99
45.437,17.64
45.453,16.63
45.468,15.89
45.484,15.32
45.500,14.8
45.515,14.16
45.531,13.18
45.546,11.55
45.562,8.98
45.578,5.25
45.593,0.45
45.609,-5.19
45.625,-11.32
45.640,-17.57
45.656,-23.69
45.671,-29.43
45.687,-34.6
45.703,-39.0
45.718,-42.49
45.734,-44.93
45.750,-46.34
45.765,-46.84
45.781,-46.7
45.796,-46.27
45.812,-45.87
45.828,-45.72
45.843,-45.85
45.859,-46.17
45.875,-46.4
45.890,-46.2
45.906,-45.13
45.921,-42.84
45.937,-39.11
45.953,-34.07
45.968,-28.22
45.984,-22.29
46.000,-17.01
46.015,-12.85
46.031,-9.86
46.046,-7.66
46.062,-5.7
46.078,-3.63
46.093,-1.4
46.109,0.8
46.125,2.74
46.140,4.44
46.156,6.11
46.171,8.04
46.187,10.38
46.203,13.01
46.218,15.56
46.234,17.63
46.250,18.97
46.265,19.57
46.281,19.53
46.296,18.95
46.312,17.8
46.328,16.02
46.343,13.64
46.359,10.89
46.375,8.12
46.390,5.66
46.406,3.65
46.421,1.94
46.437,0.21
46.453,-1.86
46.468,-4.44
46.484,-7.47
46.500,-10.6
46.515,-13.31
46.531,-15.07
46.546,-15.48
46.562,-14.31
46.578,-11.58
46.593,-7.58
46.609,-2.8
46.625,2.15
46.640,6.66
46.656,10.3
46.671,12.87
46.687,14.44
46.703,15.25
46.718,15.6
46.734,15.68
46.750,15.57
46.765,15.2
46.781,14.53
46.796,13.57
46.812,12.45
46.828,11.33
46.843,10.37
46.859,9.64
46.875,9.09
46.890,8.64
46.906,8.16
46.921,7.53
46.937,6.67
46.953,5.54
46.968,4.13
46.984,2.51
47.000,0.76
47.015,-1.03
47.031,-2.8
47.046,-4.52
47.062,-6.17
47.078,-7.65
47.093,-8.86
47.109,-9.7
47.125,-10.13
47.140,-10.14
47.156,-9.71
47.171,-8.73
47.187,-7.02
47.203,-4.48
47.218,-1.19
47.234,2.47
47.250,5.85
47.265,8.3
47.281,9.45
47.296,9.34
47.312,8.41
47.328,7.24
47.343,6.24
47.359,5.58
47.375,5.15
47.390,4.81
47.406,4.54
47.421,4.42
47.437,4.57
47.453,5.07
47.468,5.83
47.484,6.7
47.500,7.56
47.515,8.33
47.531,8.93
47.546,9.25
47.562,9.06
47.578,8.09
47.593,6.15
47.609,3.27
47.625,-0.38
47.640,-4.4
47.656,-8.44
47.671,-12.13
47.687,-15.17
47.703,-17.35
47.718,-18.49
47.734,-18.58
47.750,-17.75
47.765,-16.43
47.781,-15.08
47.796,-14.1
47.812,-13.66
47.828,-13.54
47.843,-13.37
47.859,-12.71
47.875,-11.28
47.890,-9.06
47.906,-6.28
47.921,-3.15
47.937,0.09
47.953,3.34
47.968,6.5
47.984,9.4
48.000,11.76
48.015,13.3
48.031,13.93
48.046,13.78
48.062,13.2
48.078,12.56
48.093,12.06
48.109,11.76
48.125,11.54
48.140,11.31
48.156,11.02
48.171,10.72
48.187,10.48
48.203,10.29
48.218,10.12
48.234,9.88
48.250,9.55
48.265,9.11
48.281,8.6
48.296,8.02
48.312,7.31
48.328,6.49
48.343,5.57
48.359,4.57
48.375,3.44
48.390,2.15
48.406,0.59
48.421,-1.19
48.437,-3.09
48.453,-4.91
48.468,-6.42
48.484,-7.37
48.500,-7.59
48.515,-7.01
48.531,-5.62
48.546,-3.59
48.562,-1.17
48.578,1.31
48.593,3.53
48.609,5.33
48.625,6.7
48.640,7.82
48.656,8.8
48.671,9.72
48.687,10.55
48.703,11.29
48.718,11.98
48.734,12.7
48.750,13.57
48.765,14.54
48.781,15.52
48.796,16.38
48.812,17.04
48.828,17.52
48.843,17.93
48.859,18.34
48.875,18.67
48.890,18.78
48.906,18.39
48.921,17.3
48.937,15.46
48.953,12.91
48.968,9.84
48.984,6.48
49.000,3.09
49.015,-0.19
49.031,-3.27
49.046,-6.15
49.062,-8.86
49.078,-11.4
49.093,-13.74
49.109,-15.75
49.125,-17.32
49.140,-18.24
49.156,-18.35
49.171,-17.51
49.187,-15.68
49.203,-12.94
49.218,-9.46
49.234,-5.63
49.250,-1.93
49.265,1.21
49.281,3.52
49.296,4.93
49.312,5.62
49.328,5.8
49.343,5.6
49.359,5.07
49.375,4.13
49.390,2.72
49.406,0.98
49.421,-0.81
49.437,-2.34
49.453,-3.45
49.468,-4.2
49.484,-4.79
49.500,-5.45
49.515,-6.27
49.531,-7.19
49.546,-8.06
49.562,-8.81
49.578,-9.47
49.593,-10.14
49.609,-10.9
49.625,-11.72
49.640,-12.5
49.656,-13.12
49.671,-13.6
49.687,-14.01
49.703,-14.59
49.718,-15.46
49.734,-16.69
49.750,-18.19
49.765,-19.78
49.781,-21.18
49.796,-22.03
49.812,-21.98
49.828,-20.85
49.843,-18.71
49.859,-15.88
49.875,-12.8
49.890,-9.92
49.906,-7.51
49.921,-5.61
49.937,-4.14
49.953,-2.95
49.968,-1.99
49.984,-1.29
50.000,-0.9
50.015,-0.78
50.031,-0.8
50.046,-0.79
50.062,-0.63
50.078,-0.34
50.093,-0.07
50.109,-0.02
50.125,-0.31
50.140,-0.95
50.156,-1.83
50.171,-2.78
50.187,-3.7
50.203,-4.47
50.218,-5.1
50.234,-5.59
50.250,-5.95
50.265,-6.2
50.281,-6.4
50.296,-6.63
50.312,-6.92
50.328,-7.24
50.343,-7.47
50.359,-7.45
50.375,-7.02
50.390,-6.14
50.406,-4.8
50.421,-3.13
50.437,-1.27
50.453,0.6
50.468,2.3
50.484,3.73
50.500,4.77
50.515,5.4
50.531,5.65
50.546,5.59
50.562,5.33
50.578,4.98
50.593,4.63
50.609,4.33
50.625,4.12
50.640,3.94
50.656,3.76
50.671,3.54
50.687,3.26
50.703,2.94
50.718,2.57
50.734,2.11
50.750,1.5
50.765,0.76
50.796,-0.51
50.812,-0.51
50.828,0.1
50.843,1.14
50.859,2.17
50.875,2.77
50.890,2.67
50.906,2.01
50.921,1.22
50.937,0.81
50.953,1.1
50.968,2.07
50.984,3.53
51.000,5.16
51.015,6.87
51.031,8.65
51.046,10.61
51.062,12.71
51.078,14.81
51.093,16.67
51.109,18.1
51.125,19.18
51.140,20.09
51.156,21.07
51.171,22.32
51.187,23.8
51.203,25.39
51.218,26.95
51.234,28.4
51.250,29.71
51.265,30.98
51.281,32.24
51.296,33.54
51.312,34.96
51.328,36.59
51.343,38.46
51.359,40.49
51.375,42.43
51.390,43.95
51.406,44.87
51.421,45.23
51.437,45.51
51.453,46.33
51.468,48.2
51.484,51.16
51.500,54.82
51.515,58.53
51.531,61.75
51.546,64.41
51.562,66.84
51.578,69.68
51.593,73.44
51.609,78.25
51.625,83.81
51.640,89.5
51.656,94.46
51.671,97.81
51.687,98.65
51.703,96.09
51.718,89.38
51.734,78.16
51.750,62.64
51.765,43.72
51.781,22.84
51.796,1.63
51.812,-18.5
51.828,-36.63
51.843,-52.35
51.859,-65.42
51.875,-75.48
51.890,-81.77
51.906,-83.33
51.921,-79.56
51.937,-70.72
51.953,-58.23
51.968,-44.3
51.984,-31.13
52.000,-20.01
52.015,-10.94
52.031,-3.15
52.046,4.05
52.062,10.36
52.078,14.51
52.093,14.97
52.109,11.06
52.125,3.62
52.140,-5.08
52.156,-12.38
52.171,-16.43
52.187,-16.77
52.203,-14.35
52.218,-10.68
52.234,-7.1
52.250,-4.32
52.265,-2.48
52.281,-1.48
52.296,-1.3
52.312,-2.01
52.328,-3.68
52.343,-6.17
52.359,-9.11
52.375,-11.95
52.390,-14.18
52.406,-15.54
52.421,-16.19
52.437,-16.73
52.453,-18.03
52.468,-21.05
52.484,-26.5
52.500,-34.64
52.515,-44.99
52.531,-56.44
52.546,-67.37
52.562,-76.03
52.578,-81.0
52.593,-81.43
52.609,-77.2
52.625,-68.86
52.640,-57.51
52.656,-44.68
52.671,-32.23
52.687,-22.15
52.703,-16.21
52.718,-15.42
52.734,-19.68
52.750,-27.57
52.765,-36.86
52.781,-45.19
52.796,-50.87
52.812,-53.31
52.828,-53.01
52.843,-51.12
52.859,-48.91
52.875,-47.41
52.890,-47.2
52.906,-48.4
52.921,-50.82
52.937,-54.01
52.953,-57.31
52.968,-60.02
52.984,-61.56
53.000,-61.6
53.015,-60.13
53.031,-57.48
53.046,-54.17
53.062,-50.85
53.078,-48.0
53.093,-45.84
53.109,-44.22
53.125,-42.66
53.140,-40.48
53.156,-37.14
53.171,-32.24
53.187,-25.7
53.203,-17.72
53.218,-8.76
53.234,0.6
53.250,9.73
53.265,18.19
53.281,25.62
53.296,31.77
53.312,36.18
53.328,38.14
53.343,36.84
53.359,31.79
53.375,23.35
53.390,12.93
53.406,2.6
53.421,-5.75
53.437,-11.21
53.453,-14.19
53.468,-15.82
53.484,-17.16
53.500,-18.29
53.515,-18.34
53.531,-16.05
53.546,-10.64
53.562,-2.37
53.578,7.61
53.593,17.94
53.609,27.83
53.625,37.36
53.640,47.17
53.656,57.47
53.671,67.57
53.687,75.8
53.703,80.17
53.718,79.14
53.734,72.35
53.750,60.61
53.765,45.43
53.781,28.33
53.796,10.48
53.812,-7.25
53.828,-23.8
53.843,-37.66
53.859,-47.05
53.875,-50.54
53.890,-47.99
53.906,-40.93
53.921,-32.27
53.937,-25.26
53.953,-22.33
53.968,-24.12
53.984,-29.5
54.000,-36.13
54.015,-41.51
54.031,-43.84
54.046,-42.56
54.062,-38.27
54.078,-32.32
54.093,-26.16
54.109,-20.97
54.125,-17.24
54.140,-14.83
54.156,-13.19
54.171,-11.63
54.187,-9.53
54.203,-6.48
54.218,-2.13
54.234,3.6
54.250,10.65
54.265,18.59
54.281,26.47
54.296,33.06
54.312,37.24
54.328,38.57
54.343,37.46
54.359,34.77
54.375,31.21
54.390,26.83
54.406,21.05
54.421,13.22
54.437,3.37
54.453,-7.43
54.468,-17.53
54.484,-25.4
54.500,-30.44
54.515,-33.23
54.531,-35.04
54.546,-37.04
54.562,-39.7
54.578,-42.68
54.593,-45.15
54.609,-46.4
54.625,-46.09
54.640,-44.26
54.656,-41.05
54.671,-36.54
54.687,-30.74
54.703,-23.76
54.718,-15.87
54.734,-7.74
54.750,-0.3
54.765,5.51
54.781,9.11
54.796,10.54
54.812,10.69
54.828,10.98
54.843,12.89
54.859,17.43
54.875,24.54
54.890,33.1
54.906,41.24
54.921,47.14
54.937,49.69
54.953,49.02
54.968,46.21
54.984,42.68
55.000,39.58
55.015,37.17
55.031,35.09
55.046,32.72
55.062,29.78
55.078,26.52
55.093,23.63
55.109,21.8
55.125,21.23
55.140,21.66
55.156,22.46
55.171,23.25
55.187,24.07
55.203,25.29
55.218,27.23
55.234,29.81
55.250,32.35
55.265,33.86
55.281,33.75
55.296,32.17
55.312,30.15
55.328,29.0
55.343,29.48
55.359,31.24
55.375,32.94
55.390,32.9
55.406,30.02
55.421,24.39
55.437,17.14
55.453,9.79
55.468,3.59
55.484,-1.02
55.500,-4.17
55.515,-6.19
55.531,-7.08
55.546,-6.51
55.562,-4.02
55.578,0.46
55.593,6.43
55.609,12.87
55.625,18.74
55.640,23.5
55.656,27.4
55.671,31.51
55.687,37.19
55.703,45.54
55.718,56.86
55.734,70.32
55.750,84.17
55.765,96.1
55.781,103.9
55.796,106.11
55.812,102.41
55.828,93.76
55.843,82.17
55.859,70.26
55.875,60.48
55.890,54.58
55.906,53.08
55.921,55.33
55.937,59.85
55.953,64.93
55.968,69.22
55.984,71.87
56.000,72.61
56.015,71.33
56.031,67.9
56.046,61.92
56.062,52.83
56.078,40.06
56.093,23.3
56.109,2.65
56.125,-21.31
56.140,-47.51
56.156,-74.51
56.171,-100.68
56.187,-124.34
56.203,-144.03
56.218,-158.72
56.234,-167.99
56.250,-172.0
56.265,-171.41
56.281,-167.18
56.296,-160.29
56.312,-151.74
56.328,-142.41
56.343,-133.09
56.359,-124.41
56.375,-116.71
56.390,-109.94
56.406,-103.73
56.421,-97.5
56.437,-90.8
56.453,-83.41
56.468,-75.45
56.484,-67.23
56.500,-59.04
56.515,-51.0
56.531,-43.0
56.546,-34.94
56.562,-26.84
56.578,-19.04
56.593,-12.02
56.609,-6.25
56.625,-1.95
56.640,1.03
56.656,3.11
56.671,4.79
56.687,6.45
56.703,8.22
56.718,9.97
56.734,11.51
56.750,12.75
56.765,13.75
56.781,14.62
56.796,15.46
56.812,16.25
56.828,16.86
56.843,17.18
56.859,17.22
56.875,17.12
56.890,17.12
56.906,17.34
56.921,17.82
56.937,18.47
56.953,19.22
56.968,20.01
56.984,20.88
57.000,21.72
57.015,22.29
57.031,22.16
57.046,20.88
57.062,18.14
57.078,14.04
57.093,9.12
57.109,4.15
57.140,-2.76
57.156,-3.91
57.171,-3.68
57.187,-2.55
57.203,-1.08
57.218,0.23
57.234,1.04
57.250,1.14
57.265,0.45
57.281,-1.1
57.296,-3.4
57.312,-6.32
57.328,-9.52
57.343,-12.66
57.359,-15.46
57.375,-17.78
57.390,-19.74
57.406,-21.52
57.421,-23.32
57.437,-25.14
57.453,-26.87
57.468,-28.36
57.484,-29.45
57.500,-30.13
57.515,-30.37
57.531,-30.07
57.546,-28.98
57.562,-26.79
57.578,-23.26
57.593,-18.45
57.609,-12.76
57.625,-6.77
57.640,-1.16
57.656,3.57
57.671,7.12
57.687,9.48
57.703,10.77
57.718,11.16
57.734,10.89
57.750,10.17
57.765,9.28
57.781,8.52
57.796,8.22
57.812,8.55
57.828,9.6
57.843,11.24
57.859,13.21
57.875,15.24
57.890,17.02
57.906,18.45
57.921,19.53
57.937,20.48
57.953,21.49
57.968,22.69
57.984,24.0
58.000,25.13
58.015,25.71
58.031,25.39
58.046,24.08
58.062,21.94
58.078,19.29
58.093,16.5
58.109,13.73
58.125,10.93
58.140,7.88
58.156,4.38
58.171,0.31
58.187,-4.09
58.203,-8.38
58.218,-12.01
58.234,-14.45
58.250,-15.39
58.265,-14.78
58.281,-12.81
58.296,-9.78
58.312,-6.04
58.328,-1.87
58.343,2.49
58.359,6.76
58.375,10.69
58.390,14.02
58.406,16.56
58.421,18.22
58.437,19.08
58.453,19.31
58.468,19.1
58.484,18.59
58.500,17.93
58.515,17.23
58.531,16.61
58.546,16.29
58.562,16.37
58.578,16.93
58.593,17.9
58.609,19.11
58.625,20.32
58.640,21.3
58.656,21.9
58.671,21.95
58.687,21.34
58.703,19.96
58.718,17.7
58.734,14.56
58.750,10.65
58.765,6.12
58.781,1.15
58.796,-4.13
58.812,-9.66
58.828,-15.39
58.843,-21.08
58.859,-26.31
58.875,-30.4
58.890,-32.72
58.906,-32.73
58.921,-30.22
58.937,-25.38
58.953,-18.66
58.968,-10.61
58.984,-1.85
59.000,7.11
59.015,15.78
59.031,23.57
59.046,29.94
59.062,34.3
59.078,36.25
59.093,35.65
59.109,32.75
59.125,28.05
59.140,22.27
59.156,16.14
59.171,10.23
59.187,4.94
59.203,0.4
59.218,-3.45
59.234,-6.73
59.250,-9.56
59.265,-11.98
59.281,-14.04
59.296,-15.76
59.312,-17.22
59.328,-18.54
59.343,-19.74
59.359,-20.73
59.375,-21.3
59.390,-21.2
59.406,-20.33
59.421,-18.86
59.437,-17.22
59.453,-15.95
59.468,-15.4
59.484,-15.69
59.500,-16.55
59.515,-17.58
59.531,-18.5
59.546,-19.15
59.562,-19.6
59.578,-19.95
59.593,-20.26
59.609,-20.42
59.625,-20.31
59.640,-19.84
59.656,-19.1
59.671,-18.44
59.687,-18.32
59.703,-19.15
59.718,-21.1
59.734,-24.05
59.750,-27.56
59.765,-31.08
59.781,-34.13
59.796,-36.39
59.812,-37.69
59.828,-37.95
59.843,-37.06
59.859,-35.05
59.875,-32.25
59.890,-29.5
59.906,-28.03
59.921,-28.94
59.937,-32.67
59.953,-38.51
59.968,-44.73
59.984,-49.24
