timestamp,value
00.000,-6.34
00.015,-9.28
00.031,-12.45
00.046,-15.89
00.062,-19.61
00.078,-23.58
00.093,-27.75
00.109,-32.03
00.125,-36.28
00.140,-40.26
00.156,-43.56
00.171,-45.61
00.187,-45.8
00.203,-43.69
00.218,-39.18
00.234,-32.53
00.250,-24.34
00.265,-15.34
00.281,-6.18
00.296,2.58
00.312,10.64
00.328,17.79
00.343,23.92
00.359,28.96
00.375,32.89
00.390,35.68
00.406,37.42
00.421,38.23
00.437,38.3
00.453,37.92
00.468,37.37
00.484,36.88
00.500,36.51
00.515,36.18
00.531,35.69
00.546,34.87
00.562,33.65
00.578,32.09
00.593,30.36
00.609,28.61
00.625,26.89
00.640,25.09
00.656,23.05
00.671,20.59
00.687,17.66
00.703,14.35
00.718,10.81
00.734,7.24
00.750,3.74
00.765,0.39
00.781,-2.79
00.796,-5.77
00.812,-8.49
00.828,-11.01
00.843,-13.49
00.859,-16.28
00.875,-19.72
00.890,-23.99
00.906,-28.89
00.921,-33.82
00.937,-37.9
00.953,-40.27
00.968,-40.44
00.984,-38.4
01.000,-34.72
01.015,-30.22
01.031,-25.77
01.046,-21.94
01.062,-18.9
01.078,-16.51
01.093,-14.44
01.109,-12.46
01.125,-10.44
01.140,-8.42
01.156,-6.48
01.171,-4.7
01.187,-3.1
01.203,-1.61
01.218,-0.16
01.234,1.32
01.250,2.86
01.265,4.52
01.281,6.25
01.296,7.96
01.312,9.49
01.328,10.58
01.343,11.07
01.359,10.86
01.375,9.99
01.390,8.54
01.406,6.67
01.421,4.46
01.437,2.02
01.453,-0.54
01.468,-3.12
01.484,-5.58
01.500,-7.93
01.515,-10.23
01.531,-12.66
01.546,-15.39
01.562,-18.46
01.578,-21.83
01.593,-25.36
01.609,-29.0
01.625,-32.73
01.640,-36.57
01.656,-40.33
01.671,-43.54
01.687,-45.43
01.703,-45.2
01.718,-42.32
01.734,-36.77
01.750,-29.14
01.765,-20.38
01.781,-11.54
01.796,-3.43
01.812,3.52
01.828,9.26
01.843,13.88
01.859,17.48
01.875,20.07
01.890,21.59
01.906,22.02
01.921,21.52
01.937,20.42
01.953,19.15
01.968,18.03
01.984,17.2
02.000,16.55
02.015,15.86
02.031,14.96
02.046,13.82
02.062,12.62
02.078,11.57
02.093,10.77
02.109,10.06
02.125,9.14
02.140,7.69
02.156,5.56
02.171,2.81
02.187,-0.31
02.203,-3.54
02.218,-6.69
02.234,-9.71
02.250,-12.7
02.265,-15.77
02.281,-19.04
02.296,-22.5
02.312,-26.11
02.328,-29.77
02.343,-33.42
02.359,-37.03
02.375,-40.51
02.390,-43.62
02.406,-45.92
02.421,-46.75
02.437,-45.45
02.453,-41.57
02.468,-35.1
02.484,-26.53
02.500,-16.72
02.515,-6.63
02.531,2.97
02.546,11.56
02.562,18.9
02.578,24.91
02.593,29.55
02.609,32.78
02.625,34.62
02.640,35.24
02.656,34.94
02.671,34.13
02.687,33.18
02.703,32.32
02.718,31.59
02.734,30.83
02.750,29.8
02.765,28.31
02.781,26.31
02.796,23.98
02.812,21.61
02.828,19.51
02.843,17.8
02.859,16.34
02.875,14.75
02.890,12.63
02.906,9.74
02.921,6.11
02.937,2.09
02.953,-1.85
02.968,-5.33
02.984,-8.2
03.000,-10.59
03.015,-12.81
03.031,-15.25
03.046,-18.2
03.062,-21.82
03.078,-26.06
03.093,-30.57
03.109,-34.7
03.125,-37.58
03.140,-38.41
03.156,-36.66
03.171,-32.28
03.187,-25.72
03.203,-17.71
03.218,-9.05
03.234,-0.32
03.250,8.04
03.265,15.77
03.281,22.61
03.296,28.26
03.312,32.45
03.328,35.07
03.343,36.22
03.359,36.26
03.375,35.61
03.390,34.69
03.406,33.76
03.421,32.94
03.437,32.2
03.453,31.43
03.468,30.46
03.484,29.16
03.500,27.46
03.515,25.35
03.531,22.92
03.546,20.28
03.562,17.51
03.578,14.6
03.593,11.45
03.609,7.91
03.625,3.92
03.640,-0.41
03.656,-4.85
03.671,-9.03
03.687,-12.7
03.703,-15.79
03.718,-18.51
03.734,-21.2
03.750,-24.22
03.765,-27.8
03.781,-31.88
03.796,-36.11
03.812,-39.94
03.828,-42.71
03.843,-43.79
03.859,-42.78
03.875,-39.48
03.890,-33.99
03.906,-26.71
03.921,-18.23
03.937,-9.26
03.953,-0.5
03.968,7.49
03.984,14.35
04.000,19.92
04.015,24.25
04.031,27.46
04.046,29.71
04.062,31.1
04.078,31.73
04.093,31.66
04.109,31.04
04.125,30.07
04.140,28.92
04.156,27.74
04.171,26.53
04.187,25.24
04.203,23.76
04.218,22.08
04.234,20.2
04.250,18.21
04.265,16.12
04.281,13.86
04.296,11.29
04.312,8.27
04.328,4.77
04.343,0.93
04.359,-2.96
04.375,-6.64
04.390,-9.93
04.406,-12.85
04.421,-15.58
04.437,-18.38
04.453,-21.44
04.468,-24.86
04.484,-28.64
04.500,-32.71
04.515,-36.94
04.531,-41.05
04.546,-44.6
04.562,-46.94
04.578,-47.37
04.593,-45.39
04.609,-40.89
04.625,-34.24
04.640,-26.18
04.656,-17.54
04.671,-8.93
04.687,-0.71
04.703,6.99
04.718,14.07
04.734,20.3
04.750,25.26
04.765,28.6
04.781,30.21
04.796,30.36
04.812,29.62
04.828,28.66
04.843,27.98
04.859,27.73
04.875,27.78
04.890,27.82
04.906,27.59
04.921,26.97
04.937,26.0
04.953,24.78
04.968,23.42
04.984,21.95
05.000,20.26
05.015,18.19
05.031,15.6
05.046,12.43
05.062,8.74
05.078,4.74
05.093,0.69
05.109,-3.15
05.125,-6.61
05.140,-9.67
05.156,-12.44
05.171,-15.1
05.187,-17.8
05.203,-20.68
05.218,-23.85
05.234,-27.35
05.250,-31.17
05.265,-35.11
05.281,-38.77
05.296,-41.55
05.312,-42.73
05.328,-41.71
05.343,-38.1
05.359,-31.97
05.375,-23.79
05.390,-14.35
05.406,-4.61
05.421,4.62
05.437,12.8
05.453,19.73
05.468,25.44
05.484,30.06
05.500,33.61
05.515,36.07
05.531,37.37
05.546,37.54
05.562,36.84
05.578,35.62
05.593,34.22
05.609,32.86
05.625,31.55
05.640,30.22
05.656,28.81
05.671,27.32
05.687,25.84
05.703,24.43
05.718,23.1
05.734,21.72
05.750,20.16
05.765,18.29
05.781,15.98
05.796,13.15
05.812,9.76
05.828,5.77
05.843,1.25
05.859,-3.68
05.875,-8.78
05.890,-13.81
05.906,-18.55
05.921,-22.91
05.937,-26.88
05.953,-30.58
05.968,-34.16
05.984,-37.79
06.000,-41.6
06.015,-45.46
06.031,-49.03
06.046,-51.7
06.062,-52.71
06.078,-51.44
06.093,-47.55
06.109,-41.24
06.125,-33.1
06.140,-23.99
06.156,-14.74
06.171,-5.98
06.187,1.9
06.203,8.71
06.218,14.3
06.234,18.57
06.250,21.38
06.265,22.77
06.281,22.96
06.296,22.3
06.312,21.3
06.328,20.38
06.343,19.78
06.359,19.52
06.375,19.37
06.390,19.01
06.406,18.23
06.421,17.02
06.437,15.57
06.453,14.13
06.468,12.82
06.484,11.51
06.500,9.8
06.515,7.28
06.531,3.74
06.546,-0.62
06.562,-5.21
06.578,-9.32
06.593,-12.45
06.609,-14.52
06.625,-15.87
06.640,-17.05
06.656,-18.61
06.671,-20.87
06.687,-23.86
06.703,-27.46
06.718,-31.42
06.734,-35.45
06.750,-39.21
06.765,-42.25
06.781,-43.98
06.796,-43.85
06.812,-41.41
06.828,-36.54
06.843,-29.44
06.859,-20.65
06.875,-10.88
06.890,-0.91
06.906,8.55
06.921,16.94
06.937,23.94
06.953,29.37
06.968,33.16
06.984,35.28
07.000,35.77
07.015,34.87
07.031,33.11
07.046,31.2
07.062,29.81
07.078,29.27
07.093,29.32
07.109,29.26
07.125,28.2
07.140,25.55
07.156,21.3
07.171,15.92
07.187,10.18
07.203,4.72
07.218,-0.21
07.234,-4.65
07.250,-8.78
07.265,-12.65
07.281,-16.17
07.296,-19.1
07.312,-21.29
07.328,-22.77
07.343,-23.78
07.359,-24.71
07.375,-25.94
07.390,-27.71
07.406,-30.11
07.421,-32.98
07.437,-36.01
07.453,-38.75
07.468,-40.63
07.484,-41.11
07.500,-39.74
07.515,-36.32
07.531,-30.97
07.546,-24.02
07.562,-16.04
07.578,-7.55
07.593,0.94
07.609,9.03
07.625,16.4
07.640,22.74
07.656,27.8
07.671,31.42
07.687,33.61
07.703,34.54
07.718,34.54
07.734,34.03
07.750,33.36
07.765,32.74
07.781,32.13
07.796,31.34
07.812,30.14
07.828,28.39
07.843,26.22
07.859,23.92
07.875,21.83
07.890,20.12
07.906,18.64
07.921,17.01
07.937,14.72
07.953,11.46
07.968,7.24
07.984,2.44
08.000,-2.4
08.015,-6.79
08.031,-10.5
08.046,-13.58
08.062,-16.29
08.078,-18.93
08.093,-21.74
08.109,-24.93
08.125,-28.62
08.140,-32.84
08.156,-37.33
08.171,-41.49
08.187,-44.35
08.203,-44.82
08.218,-42.17
08.234,-36.27
08.250,-27.8
08.265,-17.89
08.281,-7.79
08.296,1.6
08.312,9.84
08.328,16.87
08.343,22.79
08.359,27.62
08.375,31.25
08.390,33.56
08.406,34.53
08.421,34.39
08.437,33.52
08.453,32.38
08.468,31.31
08.484,30.41
08.500,29.55
08.515,28.45
08.531,26.87
08.546,24.79
08.562,22.33
08.578,19.75
08.593,17.22
08.609,14.73
08.625,12.12
08.640,9.17
08.656,5.77
08.671,1.99
08.687,-1.91
08.703,-5.64
08.718,-9.01
08.734,-12.05
08.750,-14.96
08.765,-18.0
08.781,-21.41
08.796,-25.28
08.812,-29.6
08.828,-34.2
08.843,-38.79
08.859,-42.97
08.875,-46.25
08.890,-48.05
08.906,-47.81
08.921,-45.1
08.937,-39.84
08.953,-32.39
08.968,-23.43
08.984,-13.87
09.000,-4.54
09.015,3.97
09.031,11.35
09.046,17.56
09.062,22.59
09.078,26.44
09.093,28.99
09.109,30.22
09.125,30.2
09.140,29.26
09.156,27.86
09.171,26.47
09.187,25.35
09.203,24.48
09.218,23.65
09.234,22.55
09.250,21.01
09.265,19.05
09.281,16.82
09.296,14.56
09.312,12.41
09.328,10.34
09.343,8.19
09.359,5.77
09.375,2.94
09.390,-0.3
09.406,-3.86
09.421,-7.53
09.437,-11.07
09.453,-14.27
09.468,-17.07
09.484,-19.57
09.500,-22.04
09.515,-24.8
09.531,-28.07
09.546,-31.85
09.562,-35.86
09.578,-39.59
09.593,-42.43
09.609,-43.77
09.625,-43.09
09.640,-40.1
09.656,-34.8
09.671,-27.52
09.687,-18.93
09.703,-9.87
09.718,-1.17
09.734,6.58
09.750,13.12
09.765,18.52
09.781,22.85
09.796,26.17
09.812,28.36
09.828,29.33
09.843,29.13
09.859,28.11
09.875,26.81
09.890,25.74
09.906,25.11
09.921,24.73
09.937,24.16
09.953,22.93
09.968,20.87
09.984,18.24
10.000,15.55
10.015,13.28
10.031,11.62
10.046,10.37
10.062,9.04
10.078,7.12
10.093,4.32
10.109,0.67
10.125,-3.54
10.140,-7.94
10.156,-12.17
10.171,-15.98
10.187,-19.25
10.203,-22.05
10.218,-24.59
10.234,-27.21
10.250,-30.27
10.265,-33.93
10.281,-38.04
10.296,-42.12
10.312,-45.38
10.328,-46.98
10.343,-46.27
10.359,-42.96
10.375,-37.22
10.390,-29.54
10.406,-20.68
10.421,-11.43
10.437,-2.56
10.453,5.46
10.468,12.38
10.484,18.12
10.500,22.71
10.515,26.14
10.531,28.36
10.546,29.4
10.562,29.47
10.578,28.93
10.593,28.22
10.609,27.57
10.625,26.95
10.640,26.09
10.656,24.77
10.671,22.97
10.687,21.02
10.703,19.36
10.718,18.26
10.734,17.65
10.750,17.11
10.765,16.12
10.781,14.34
10.796,11.79
10.812,8.79
10.828,5.75
10.843,2.95
10.859,0.4
10.875,-2.09
10.890,-4.77
10.906,-7.75
10.921,-10.98
10.937,-14.29
10.953,-17.56
10.968,-20.79
10.984,-24.05
11.000,-27.38
11.015,-30.59
11.031,-33.17
11.046,-34.4
11.062,-33.69
11.078,-30.82
11.093,-26.05
11.109,-20.0
11.125,-13.36
11.140,-6.64
11.156,-0.03
11.171,6.4
11.187,12.59
11.203,18.28
11.218,23.08
11.234,26.66
11.250,28.84
11.265,29.76
11.281,29.83
11.296,29.52
11.312,29.23
11.328,29.15
11.343,29.23
11.359,29.3
11.375,29.2
11.390,28.83
11.406,28.24
11.421,27.5
11.437,26.63
11.453,25.52
11.468,23.98
11.484,21.88
11.500,19.26
11.515,16.35
11.531,13.46
11.546,10.75
11.562,8.16
11.578,5.41
11.593,2.18
11.609,-1.72
11.625,-6.29
11.640,-11.34
11.656,-16.56
11.671,-21.68
11.687,-26.39
11.703,-30.34
11.718,-33.1
11.734,-34.2
11.750,-33.27
11.765,-30.21
11.781,-25.23
11.796,-18.87
11.812,-11.75
11.828,-4.51
11.843,2.42
11.859,8.75
11.875,14.31
11.890,18.95
11.906,22.52
11.921,24.88
11.937,25.93
11.953,25.78
11.968,24.75
11.984,23.28
12.000,21.83
12.015,20.64
12.031,19.71
12.046,18.8
12.062,17.68
12.078,16.19
12.093,14.37
12.109,12.38
12.125,10.37
12.140,8.39
12.156,6.35
12.171,4.15
12.187,1.67
12.203,-1.14
12.218,-4.25
12.234,-7.63
12.250,-11.23
12.265,-14.96
12.281,-18.72
12.296,-22.4
12.312,-25.96
12.328,-29.46
12.343,-33.05
12.359,-36.89
12.375,-41.01
12.390,-45.17
12.406,-48.84
12.421,-51.3
12.437,-51.85
12.453,-50.02
12.468,-45.76
12.484,-39.41
12.500,-31.56
12.515,-22.89
12.531,-13.99
12.546,-5.36
12.562,2.58
12.578,9.46
12.593,15.01
12.609,19.03
12.625,21.57
12.640,22.92
12.656,23.5
12.671,23.73
12.687,23.93
12.703,24.19
12.718,24.41
12.734,24.42
12.750,24.05
12.765,23.25
12.781,22.04
12.796,20.54
12.812,18.81
12.828,16.88
12.843,14.71
12.859,12.24
12.875,9.49
12.890,6.48
12.906,3.29
12.921,-0.06
12.937,-3.56
12.953,-7.25
12.968,-11.05
12.984,-14.84
13.000,-18.53
13.015,-22.1
13.031,-25.74
13.046,-29.74
13.062,-34.32
13.078,-39.43
13.093,-44.62
13.109,-49.09
13.125,-51.97
13.140,-52.55
13.156,-50.49
13.171,-45.91
13.187,-39.25
13.203,-31.07
13.218,-21.94
13.234,-12.34
13.250,-2.7
13.265,6.55
13.281,14.96
13.296,22.16
13.312,27.86
13.328,31.9
13.343,34.31
13.359,35.22
13.375,34.86
13.390,33.52
13.406,31.6
13.421,29.48
13.437,27.53
13.453,25.97
13.468,24.83
13.484,23.89
13.500,22.87
13.515,21.48
13.531,19.56
13.546,17.06
13.562,13.99
13.578,10.37
13.593,6.22
13.609,1.59
13.625,-3.33
13.640,-8.24
13.656,-12.82
13.671,-16.81
13.687,-20.18
13.703,-23.13
13.718,-25.95
13.734,-28.92
13.750,-32.21
13.765,-35.79
13.781,-39.49
13.796,-43.02
13.812,-45.97
13.828,-47.87
13.843,-48.23
13.859,-46.65
13.875,-42.91
13.890,-37.09
13.906,-29.53
13.921,-20.71
13.937,-11.25
13.953,-1.76
13.968,7.15
13.984,14.92
14.000,21.12
14.015,25.51
14.031,28.15
14.046,29.37
14.062,29.65
14.078,29.47
14.093,29.21
14.109,28.99
14.125,28.79
14.140,28.45
14.156,27.75
14.171,26.55
14.187,24.81
14.203,22.64
14.218,20.29
14.234,18.04
14.250,16.06
14.265,14.32
14.281,12.64
14.296,10.71
14.312,8.29
14.328,5.35
14.343,2.04
14.359,-1.34
14.375,-4.53
14.390,-7.38
14.406,-9.91
14.421,-12.28
14.437,-14.73
14.453,-17.47
14.468,-20.58
14.484,-23.95
14.500,-27.24
14.515,-29.9
14.531,-31.32
14.546,-30.94
14.562,-28.39
14.578,-23.63
14.593,-16.92
14.609,-8.76
14.625,0.31
14.640,9.76
14.656,19.19
14.671,28.22
14.687,36.54
14.703,43.83
14.718,49.79
14.734,54.25
14.750,57.23
14.765,58.94
14.781,59.78
14.796,60.24
14.812,60.71
14.828,61.39
14.843,62.29
14.859,63.29
14.875,64.2
14.890,64.91
14.906,65.4
14.921,65.7
14.937,65.9
14.953,66.03
14.968,66.12
14.984,66.17
15.000,66.2
15.015,66.29
15.031,66.52
15.046,66.96
15.062,67.58
15.078,68.38
15.093,69.27
15.109,70.18
15.125,70.98
15.140,71.51
15.156,71.62
15.171,71.24
15.187,70.52
15.203,69.81
15.218,69.61
15.234,70.33
15.250,72.19
15.265,75.04
15.281,78.43
15.296,81.64
15.312,83.77
15.328,83.89
15.343,81.06
15.359,74.62
15.375,64.31
15.390,50.39
15.406,33.65
15.421,15.15
15.437,-4.07
15.453,-23.25
15.468,-42.0
15.484,-60.17
15.500,-77.68
15.515,-94.26
15.531,-109.46
15.546,-122.72
15.562,-133.55
15.578,-141.6
15.593,-146.83
15.609,-149.48
15.625,-150.02
15.640,-149.07
15.656,-147.29
15.671,-145.32
15.687,-143.58
15.703,-142.15
15.718,-140.67
15.734,-138.28
15.750,-133.9
15.765,-126.6
15.781,-116.04
15.796,-102.75
15.812,-88.08
15.828,-73.68
15.843,-60.95
15.859,-50.52
15.875,-42.07
15.890,-34.5
15.906,-26.49
15.921,-16.8
15.937,-4.72
15.953,9.9
15.968,26.69
15.984,44.92
16.000,63.6
16.015,81.78
16.031,98.69
16.046,113.9
16.062,127.4
16.078,139.25
16.093,149.3
16.109,156.85
16.125,160.56
16.140,158.67
16.156,149.42
16.171,131.51
16.187,104.47
16.203,69.12
16.218,27.84
16.234,-15.39
16.250,-55.64
16.265,-88.21
16.281,-110.13
16.296,-121.12
16.312,-123.54
16.328,-121.17
16.343,-117.58
16.359,-114.91
16.375,-113.64
16.390,-113.32
16.406,-113.57
16.421,-114.58
16.437,-116.82
16.453,-120.43
16.468,-124.69
16.484,-128.38
16.500,-130.45
16.515,-130.79
16.531,-130.26
16.546,-130.22
16.562,-131.64
16.578,-134.63
16.593,-138.31
16.609,-141.21
16.625,-141.79
16.640,-138.86
16.656,-131.94
16.671,-121.34
16.687,-108.01
16.703,-93.29
16.718,-78.5
16.734,-64.61
16.750,-52.11
16.765,-41.11
16.781,-31.52
16.796,-23.33
16.812,-16.67
16.828,-11.59
16.843,-7.92
16.859,-5.17
16.875,-2.61
16.890,0.49
16.906,4.58
16.921,9.72
16.937,15.58
16.953,21.59
16.968,27.14
16.984,31.69
17.000,34.89
17.015,36.6
17.031,36.87
17.046,35.9
17.062,34.01
17.078,31.55
17.093,28.88
17.109,26.28
17.125,23.95
17.140,21.96
17.156,20.21
17.171,18.53
17.187,16.67
17.203,14.36
17.218,11.39
17.234,7.66
17.250,3.34
17.265,-1.11
17.281,-4.87
17.296,-7.0
17.312,-6.65
17.328,-3.42
17.343,2.44
17.359,10.11
17.375,18.38
17.390,26.14
17.406,32.57
17.421,37.36
17.437,40.56
17.453,42.42
17.468,43.24
17.484,43.25
17.500,42.64
17.515,41.64
17.531,40.52
17.546,39.59
17.562,39.09
17.578,39.04
17.593,39.22
17.609,39.26
17.625,38.74
17.640,37.41
17.656,35.28
17.671,32.62
17.687,29.83
17.703,27.25
17.718,25.04
17.734,23.1
17.750,21.16
17.765,18.99
17.781,16.46
17.796,13.62
17.812,10.55
17.828,7.27
17.843,3.71
17.859,-0.35
17.875,-5.04
17.890,-10.3
17.906,-15.81
17.921,-21.01
17.937,-25.35
17.953,-28.45
17.968,-30.26
17.984,-31.02
18.000,-31.14
18.015,-30.95
18.031,-30.59
18.046,-29.9
18.062,-28.55
18.078,-26.22
18.093,-22.86
18.109,-18.73
18.125,-14.36
18.140,-10.37
18.156,-7.21
18.171,-5.04
18.187,-3.73
18.203,-2.99
18.218,-2.51
18.234,-2.08
18.250,-1.67
18.265,-1.26
18.281,-0.83
18.296,-0.3
18.312,0.45
18.328,1.49
18.343,2.87
18.359,4.61
18.375,6.72
18.390,9.16
18.406,11.85
18.421,14.63
18.437,17.21
18.453,19.28
18.468,20.53
18.484,20.85
18.500,20.34
18.515,19.4
18.531,18.66
18.546,18.87
18.562,20.69
18.578,24.6
18.593,30.75
18.609,38.92
18.625,48.58
18.640,58.9
18.656,68.97
18.671,77.91
18.687,85.12
18.703,90.27
18.718,93.34
18.734,94.57
18.750,94.19
18.765,92.34
18.781,88.95
18.796,83.93
18.812,77.23
18.828,69.03
18.843,59.76
18.859,49.94
18.875,40.15
18.890,30.74
18.906,21.91
18.921,13.72
18.937,6.14
18.953,-0.91
18.968,-7.47
18.984,-13.59
19.000,-19.31
19.015,-24.61
19.031,-29.44
19.046,-33.75
19.062,-37.43
19.078,-40.49
19.093,-42.95
19.109,-44.94
19.125,-46.55
19.140,-47.84
19.156,-48.76
19.171,-49.09
19.187,-48.39
19.203,-46.1
19.218,-41.65
19.234,-34.62
19.250,-24.98
19.265,-13.11
19.281,0.15
19.296,13.74
19.312,26.65
19.328,38.15
19.343,47.88
19.359,55.81
19.375,62.04
19.390,66.7
19.406,69.82
19.421,71.48
19.437,71.78
19.453,70.89
19.468,69.02
19.484,66.31
19.500,62.78
19.515,58.42
19.531,53.24
19.546,47.35
19.562,40.94
19.578,34.18
19.593,27.18
19.609,19.93
19.625,12.37
19.640,4.44
19.656,-3.76
19.671,-12.05
19.687,-20.15
19.703,-27.83
19.718,-34.91
19.734,-41.29
19.750,-46.95
19.765,-51.88
19.781,-56.14
19.796,-59.8
19.812,-62.94
19.828,-65.6
19.843,-67.73
19.859,-69.08
19.875,-69.24
19.890,-67.7
19.906,-64.01
19.921,-57.95
19.937,-49.65
19.953,-39.66
19.968,-28.76
19.984,-17.79
20.000,-7.42
20.015,1.93
20.031,10.1
20.046,17.04
20.062,22.76
20.078,27.24
20.093,30.54
20.109,32.77
20.125,34.21
20.140,35.21
20.156,36.06
20.171,36.95
20.187,37.86
20.203,38.65
20.218,39.07
20.234,38.98
20.250,38.33
20.265,37.16
20.281,35.57
20.296,33.66
20.312,31.44
20.328,28.88
20.343,25.88
20.359,22.39
20.375,18.45
20.390,14.21
20.406,9.93
20.421,5.88
20.437,2.26
20.453,-0.9
20.468,-3.79
20.484,-6.78
20.500,-10.18
20.515,-14.09
20.531,-18.27
20.546,-22.05
20.562,-24.6
20.578,-25.14
20.593,-23.24
20.609,-18.98
20.625,-12.84
20.640,-5.55
20.656,2.17
20.671,9.69
20.687,16.58
20.703,22.53
20.718,27.33
20.734,30.84
20.750,33.03
20.765,33.99
20.781,33.87
20.796,32.95
20.812,31.49
20.828,29.8
20.843,28.14
20.859,26.74
20.875,25.64
20.890,24.77
20.906,23.96
20.921,22.98
20.937,21.66
20.953,19.9
20.968,17.72
20.984,15.24
21.000,12.62
21.015,10.01
21.031,7.5
21.046,5.16
21.062,2.93
21.078,0.79
21.093,-1.35
21.109,-3.57
21.125,-5.95
21.140,-8.6
21.156,-11.63
21.171,-15.07
21.187,-18.83
21.203,-22.59
21.218,-25.89
21.234,-28.1
21.250,-28.66
21.265,-27.14
21.281,-23.44
21.296,-17.74
21.312,-10.55
21.328,-2.54
21.343,5.5
21.359,12.86
21.375,18.95
21.390,23.33
21.406,25.84
21.421,26.53
21.437,25.76
21.453,24.02
21.468,21.84
21.484,19.65
21.500,17.64
21.515,15.78
21.531,13.92
21.546,11.92
21.562,9.75
21.578,7.51
21.593,5.35
21.609,3.38
21.625,1.62
21.640,-0.01
21.656,-1.63
21.671,-3.36
21.687,-5.23
21.703,-7.29
21.718,-9.55
21.734,-11.91
21.750,-14.27
21.765,-16.45
21.781,-18.32
21.796,-19.89
21.812,-21.33
21.828,-22.9
21.843,-24.88
21.859,-27.39
21.875,-30.23
21.890,-32.88
21.906,-34.54
21.921,-34.34
21.937,-31.62
21.953,-26.14
21.968,-18.24
21.984,-8.77
22.000,1.12
22.015,10.28
22.031,17.81
22.046,23.26
22.062,26.57
22.078,27.95
22.093,27.74
22.109,26.37
22.125,24.22
22.140,21.71
22.156,19.24
22.171,17.06
22.187,15.32
22.203,13.99
22.218,12.9
22.234,11.87
22.250,10.75
22.265,9.44
22.281,7.96
22.296,6.39
22.312,4.85
22.328,3.37
22.343,1.89
22.359,0.25
22.375,-1.75
22.390,-4.22
22.406,-7.12
22.421,-10.25
22.437,-13.28
22.453,-15.95
22.468,-18.19
22.484,-20.16
22.500,-22.12
22.515,-24.34
22.531,-26.83
22.546,-29.34
22.562,-31.31
22.578,-32.06
22.593,-30.95
22.609,-27.58
22.625,-21.93
22.640,-14.47
22.656,-6.0
22.671,2.53
22.687,10.26
22.703,16.64
22.718,21.44
22.734,24.63
22.750,26.24
22.765,26.31
22.781,24.95
22.796,22.44
22.812,19.3
22.828,16.19
22.843,13.69
22.859,12.04
22.875,11.06
22.890,10.31
22.906,9.35
22.921,7.98
22.937,6.33
22.953,4.7
22.968,3.34
22.984,2.25
23.000,1.16
23.015,-0.22
23.031,-2.11
23.046,-4.44
23.062,-6.93
23.078,-9.28
23.093,-11.33
23.109,-13.13
23.125,-14.86
23.140,-16.68
23.156,-18.72
23.171,-20.99
23.187,-23.47
23.203,-26.11
23.218,-28.82
23.234,-31.34
23.250,-33.21
23.265,-33.85
23.281,-32.71
23.296,-29.47
23.312,-24.22
23.328,-17.43
23.343,-9.87
23.359,-2.33
23.375,4.53
23.390,10.28
23.406,14.81
23.421,18.12
23.437,20.29
23.453,21.39
23.468,21.49
23.484,20.7
23.500,19.21
23.515,17.39
23.531,15.64
23.546,14.28
23.562,13.38
23.578,12.78
23.593,12.15
23.609,11.19
23.625,9.81
23.640,8.18
23.656,6.59
23.671,5.32
23.687,4.35
23.703,3.47
23.718,2.33
23.734,0.68
23.750,-1.49
23.765,-3.96
23.781,-6.45
23.796,-8.7
23.812,-10.65
23.828,-12.39
23.843,-14.05
23.859,-15.74
23.875,-17.56
23.890,-19.6
23.906,-21.93
23.921,-24.49
23.937,-27.0
23.953,-28.88
23.968,-29.48
23.984,-28.21
24.000,-24.87
24.015,-19.68
24.031,-13.23
24.046,-6.2
24.062,0.75
24.078,7.19
24.093,12.8
24.109,17.38
24.125,20.86
24.140,23.18
24.156,24.39
24.171,24.67
24.187,24.24
24.203,23.39
24.218,22.39
24.234,21.5
24.250,20.91
24.265,20.75
24.281,21.01
24.296,21.6
24.312,22.35
24.328,23.08
24.343,23.63
24.359,23.87
24.375,23.66
24.390,22.93
24.406,21.69
24.421,20.01
24.437,18.13
24.453,16.35
24.468,14.97
24.484,14.17
24.500,13.94
24.515,14.06
24.531,14.2
24.546,14.06
24.562,13.5
24.578,12.55
24.593,11.44
24.609,10.36
24.625,9.45
24.640,8.66
24.656,7.88
24.671,6.94
24.687,5.76
24.703,4.37
24.718,2.81
24.734,1.16
24.750,-0.55
24.765,-2.29
24.781,-3.96
24.796,-5.43
24.812,-6.53
24.828,-7.14
24.843,-7.31
24.859,-7.19
24.875,-7.06
24.890,-7.18
24.906,-7.7
24.921,-8.61
24.937,-9.74
24.953,-10.89
24.968,-11.93
24.984,-12.82
25.000,-13.65
25.015,-14.55
25.031,-15.59
25.046,-16.69
25.062,-17.7
25.078,-18.43
25.093,-18.87
25.109,-19.21
25.125,-19.76
25.140,-20.85
25.156,-22.57
25.171,-24.76
25.187,-27.06
25.203,-29.13
25.218,-30.76
25.234,-32.02
25.250,-33.14
25.265,-34.45
25.281,-36.19
25.296,-38.46
25.312,-41.11
25.328,-43.8
25.343,-46.03
25.359,-47.16
25.375,-46.56
25.390,-43.69
25.406,-38.33
25.421,-30.63
25.437,-21.1
25.453,-10.53
25.468,0.11
25.484,9.93
25.500,18.12
25.515,24.13
25.531,27.72
25.546,28.96
25.562,28.22
25.578,26.07
25.593,23.16
25.609,19.98
25.625,16.95
25.640,14.29
25.656,12.08
25.671,10.36
25.687,9.1
25.703,8.22
25.718,7.6
25.734,7.13
25.750,6.67
25.765,6.14
25.781,5.44
25.796,4.48
25.812,3.18
25.828,1.51
25.843,-0.49
25.859,-2.75
25.875,-5.12
25.890,-7.52
25.906,-9.85
25.921,-12.1
25.937,-14.28
25.953,-16.46
25.968,-18.67
25.984,-20.93
26.000,-23.21
26.015,-25.4
26.031,-27.24
26.046,-28.31
26.062,-28.12
26.078,-26.2
26.093,-22.31
26.109,-16.51
26.125,-9.27
26.140,-1.36
26.156,6.37
26.171,13.1
26.187,18.33
26.203,21.83
26.218,23.64
26.234,24.0
26.250,23.18
26.265,21.48
26.281,19.23
26.296,16.79
26.312,14.52
26.328,12.73
26.343,11.57
26.359,11.04
26.375,10.95
26.390,11.02
26.406,11.05
26.421,10.91
26.437,10.61
26.453,10.24
26.468,9.86
26.484,9.5
26.500,9.12
26.515,8.67
26.531,8.17
26.546,7.67
26.562,7.18
26.578,6.7
26.593,6.15
26.609,5.5
26.625,4.79
26.640,4.14
26.656,3.68
26.671,3.49
26.687,3.49
26.703,3.48
26.718,3.29
26.734,2.83
26.750,2.18
26.765,1.49
26.781,0.87
26.796,0.34
26.812,-0.14
26.828,-0.62
26.843,-1.12
26.859,-1.62
26.875,-2.13
26.890,-2.71
26.906,-3.45
26.921,-4.44
26.937,-5.66
26.953,-7.03
26.968,-8.44
26.984,-9.75
27.000,-10.88
27.015,-11.83
27.031,-12.68
27.046,-13.6
27.062,-14.82
27.078,-16.53
27.093,-18.83
27.109,-21.62
27.125,-24.64
27.140,-27.5
27.156,-29.95
27.171,-31.88
27.187,-33.38
27.203,-34.72
27.218,-36.16
27.234,-37.95
27.250,-40.15
27.265,-42.62
27.281,-44.93
27.296,-46.4
27.312,-46.16
27.328,-43.44
27.343,-37.8
27.359,-29.37
27.375,-18.84
27.390,-7.29
27.406,4.09
27.421,14.27
27.437,22.52
27.453,28.52
27.468,32.26
27.484,33.95
27.500,33.96
27.515,32.68
27.531,30.58
27.546,28.1
27.562,25.61
27.578,23.4
27.593,21.63
27.609,20.33
27.625,19.41
27.640,18.72
27.656,18.01
27.671,17.08
27.687,15.8
27.703,14.12
27.718,12.09
27.734,9.76
27.750,7.22
27.765,4.52
27.781,1.7
27.796,-1.23
27.812,-4.28
27.828,-7.47
27.843,-10.89
27.859,-14.61
27.875,-18.57
27.890,-22.48
27.906,-25.72
27.921,-27.52
27.937,-27.15
27.953,-24.25
27.968,-18.93
27.984,-11.83
28.000,-3.77
28.015,4.4
28.031,12.07
28.046,18.83
28.062,24.43
28.078,28.63
28.093,31.15
28.109,31.79
28.125,30.52
28.140,27.65
28.156,23.75
28.171,19.51
28.187,15.52
28.203,12.12
28.218,9.4
28.234,7.22
28.250,5.4
28.265,3.78
28.281,2.26
28.296,0.78
28.312,-0.77
28.328,-2.5
28.343,-4.57
28.359,-7.04
28.375,-9.9
28.390,-13.03
28.406,-16.35
28.421,-19.78
28.437,-23.27
28.453,-26.82
28.468,-30.36
28.484,-33.73
28.500,-36.7
28.515,-38.92
28.531,-39.92
28.546,-39.19
28.562,-36.24
28.578,-30.79
28.593,-22.98
28.609,-13.37
28.625,-2.94
28.640,7.22
28.656,16.15
28.671,23.27
28.687,28.45
28.703,31.87
28.718,33.83
28.734,34.57
28.750,34.25
28.765,33.01
28.781,31.02
28.796,28.58
28.812,25.99
28.828,23.54
28.843,21.35
28.859,19.46
28.875,17.81
28.890,16.3
28.906,14.84
28.921,13.35
28.937,11.74
28.953,9.91
28.968,7.75
28.984,5.17
29.000,2.19
29.015,-1.1
29.031,-4.54
29.046,-7.94
29.062,-11.13
29.078,-14.0
29.093,-16.63
29.109,-19.19
29.125,-21.95
29.140,-25.11
29.156,-28.6
29.171,-32.04
29.187,-34.73
29.203,-35.87
29.218,-34.76
29.234,-31.06
29.250,-24.86
29.265,-16.65
29.281,-7.21
29.296,2.5
29.312,11.62
29.328,19.51
29.343,25.83
29.359,30.54
29.375,33.8
29.390,35.81
29.406,36.77
29.421,36.77
29.437,35.89
29.453,34.26
29.468,32.11
29.484,29.75
29.500,27.49
29.515,25.55
29.531,23.98
29.546,22.74
29.562,21.64
29.578,20.49
29.593,19.14
29.609,17.56
29.625,15.83
29.640,14.09
29.656,12.4
29.671,10.69
29.687,8.79
29.703,6.54
29.718,3.94
29.734,1.15
29.750,-1.52
29.765,-3.84
29.781,-5.74
29.796,-7.4
29.812,-9.13
29.828,-11.26
29.843,-14.0
29.859,-17.4
29.875,-21.28
29.890,-25.25
29.906,-28.68
29.921,-30.76
29.937,-30.64
29.953,-27.74
29.968,-21.93
29.984,-13.7
30.000,-4.03
30.015,5.87
30.031,14.9
30.046,22.31
30.062,27.81
30.078,31.48
30.093,33.61
30.109,34.49
30.125,34.28
30.140,33.09
30.156,31.04
30.171,28.31
30.187,25.21
30.203,22.0
30.218,18.83
30.234,15.57
30.250,11.87
30.265,7.42
30.281,2.1
30.296,-3.86
30.312,-9.93
30.328,-15.5
30.343,-20.13
30.359,-23.71
30.375,-26.44
30.390,-28.58
30.406,-30.33
30.421,-31.72
30.437,-32.62
30.453,-32.93
30.468,-32.61
30.484,-31.81
30.500,-30.81
30.515,-29.95
30.531,-29.52
30.546,-29.71
30.562,-30.52
30.578,-31.82
30.593,-33.33
30.609,-34.67
30.625,-35.36
30.640,-34.86
30.656,-32.65
30.671,-28.3
30.687,-21.69
30.703,-13.11
30.718,-3.34
30.734,6.62
30.750,15.72
30.765,23.17
30.781,28.62
30.796,32.1
30.812,33.91
30.828,34.38
30.843,33.81
30.859,32.41
30.875,30.38
30.890,27.99
30.906,25.5
30.921,23.18
30.937,21.16
30.953,19.48
30.968,18.08
30.984,16.85
31.000,15.76
31.015,14.8
31.031,14.06
31.046,13.57
31.062,13.37
31.078,13.32
31.093,13.23
31.109,12.91
31.125,12.26
31.140,11.36
31.156,10.41
31.171,9.67
31.187,9.31
31.203,9.31
31.218,9.42
31.234,9.22
31.250,8.35
31.265,6.61
31.281,4.08
31.296,1.1
31.312,-1.79
31.328,-3.93
31.343,-4.71
31.359,-3.66
31.375,-0.58
31.390,4.44
31.406,11.04
31.421,18.68
31.437,26.66
31.453,34.28
31.468,40.77
31.484,45.33
31.500,47.1
31.515,45.18
31.531,38.87
31.546,27.82
31.562,12.3
31.578,-6.73
31.593,-27.73
31.609,-48.86
31.625,-68.36
31.640,-84.87
31.656,-97.55
31.671,-106.08
31.687,-110.39
31.703,-110.43
31.718,-105.99
31.734,-96.87
31.750,-83.11
31.765,-65.35
31.781,-44.89
31.796,-23.48
31.812,-2.93
31.828,15.3
31.843,30.39
31.859,42.06
31.875,50.48
31.890,56.12
31.906,59.64
31.921,61.96
31.937,64.09
31.953,66.9
31.968,70.86
31.984,75.75
32.000,80.82
32.015,85.14
32.031,88.05
32.046,89.34
32.062,88.96
32.078,86.49
32.093,80.82
32.109,70.31
32.125,53.64
32.140,30.73
32.156,3.46
32.171,-24.66
32.187,-49.54
32.203,-67.97
32.218,-78.67
32.234,-82.53
32.250,-81.83
32.265,-79.14
32.281,-76.28
32.296,-73.94
32.312,-71.88
32.328,-69.52
32.343,-66.36
32.359,-62.26
32.375,-57.27
32.390,-51.4
32.406,-44.54
32.421,-36.52
32.437,-27.35
32.453,-17.44
32.468,-7.6
32.484,1.08
32.500,7.64
32.515,11.46
32.531,12.51
32.546,11.3
32.562,8.64
32.578,5.48
32.593,2.68
32.609,0.88
32.625,0.47
32.640,1.6
32.656,4.15
32.671,7.86
32.687,12.27
32.703,16.93
32.718,21.4
32.734,25.48
32.750,29.21
32.765,32.92
32.781,37.06
32.796,42.01
32.812,47.87
32.828,54.38
32.843,61.16
32.859,67.88
32.875,74.56
32.890,81.45
32.906,88.73
32.921,96.1
32.937,102.46
32.953,106.08
32.968,104.95
32.984,97.51
33.000,83.07
33.015,62.11
33.031,36.14
33.046,7.35
33.062,-21.86
33.078,-49.38
33.093,-73.73
33.109,-94.26
33.125,-110.99
33.140,-124.31
33.156,-134.61
33.171,-142.0
33.187,-146.32
33.203,-147.27
33.218,-144.78
33.234,-139.12
33.250,-130.99
33.265,-121.32
33.281,-111.05
33.296,-100.95
33.312,-91.53
33.328,-82.97
33.343,-75.27
33.359,-68.39
33.375,-62.44
33.390,-57.8
33.406,-55.08
33.421,-54.93
33.437,-57.68
33.453,-62.94
33.468,-69.55
33.484,-75.77
33.500,-79.79
33.515,-80.36
33.531,-77.18
33.546,-70.91
33.562,-62.86
33.578,-54.45
33.593,-46.73
33.609,-40.26
33.625,-35.17
33.640,-31.39
33.656,-28.8
33.671,-27.34
33.687,-26.84
33.703,-26.96
33.718,-27.12
33.734,-26.7
33.750,-25.2
33.765,-22.45
33.781,-18.68
33.796,-14.43
33.812,-10.32
33.828,-6.8
33.843,-3.98
33.859,-1.67
33.875,0.46
33.890,2.6
33.906,4.78
33.921,6.82
33.937,8.56
33.953,9.92
33.968,11.0
33.984,11.94
34.000,12.73
34.015,13.14
34.031,12.79
34.046,11.35
34.062,8.73
34.078,5.28
34.093,1.74
34.109,-0.93
34.125,-1.87
34.140,-0.54
34.156,3.1
34.171,8.57
34.187,14.99
34.203,21.45
34.218,27.11
34.234,31.5
34.250,34.48
34.265,36.14
34.281,36.64
34.296,36.18
34.312,34.98
34.328,33.36
34.343,31.72
34.359,30.4
34.375,29.59
34.390,29.15
34.406,28.77
34.421,28.11
34.437,27.02
34.453,25.62
34.468,24.17
34.484,22.86
34.500,21.7
34.515,20.51
34.531,19.08
34.546,17.39
34.562,15.67
34.578,14.4
34.593,13.99
34.609,14.7
34.625,16.39
34.640,18.64
34.656,20.75
34.671,22.07
34.687,22.11
34.703,20.83
34.718,18.67
34.734,16.45
34.750,15.18
34.765,15.77
34.781,18.82
34.796,24.55
34.812,32.81
34.828,43.17
34.843,54.98
34.859,67.43
34.875,79.58
34.890,90.6
34.906,99.9
34.921,107.31
34.937,113.03
34.953,117.43
34.968,120.82
34.984,123.25
35.000,124.62
35.015,124.72
35.031,123.46
35.046,120.84
35.062,116.87
35.078,111.53
35.093,104.65
35.109,95.92
35.125,84.95
35.140,71.46
35.156,55.6
35.171,38.1
35.187,20.35
35.203,4.09
35.218,-9.05
35.234,-17.93
35.250,-22.29
35.265,-22.63
35.281,-20.01
35.296,-15.85
35.312,-12.01
35.328,-10.83
35.343,-14.87
35.359,-26.03
35.375,-44.27
35.390,-66.86
35.406,-88.53
35.421,-102.95
35.437,-105.02
35.453,-92.76
35.468,-67.93
35.484,-35.07
35.500,0.24
35.515,33.36
35.531,61.58
35.546,84.24
35.562,102.03
35.578,116.2
35.593,127.99
35.609,138.18
35.625,146.86
35.640,153.35
35.656,156.37
35.671,154.4
35.687,146.29
35.703,131.49
35.718,109.94
35.734,81.86
35.750,47.67
35.765,8.17
35.781,-34.98
35.796,-78.85
35.812,-119.47
35.828,-152.58
35.843,-174.87
35.859,-184.92
35.875,-183.49
35.890,-173.07
35.906,-157.01
35.921,-138.4
35.937,-119.54
35.953,-101.65
35.968,-85.12
35.984,-69.89
36.000,-55.9
36.015,-43.31
36.031,-32.38
36.046,-23.01
36.062,-14.46
36.078,-5.33
36.093,5.93
36.109,20.19
36.125,36.81
36.140,53.92
36.156,69.08
36.171,80.48
36.187,87.86
36.203,92.49
36.218,96.18
36.234,99.84
36.250,102.78
36.265,103.08
36.281,99.25
36.296,91.7
36.312,83.26
36.328,78.14
36.343,79.66
36.359,88.2
36.375,100.4
36.390,110.39
36.406,112.27
36.421,102.57
36.437,81.22
36.453,50.56
36.468,13.39
36.484,-28.32
36.500,-73.11
36.515,-118.45
36.531,-159.45
36.546,-189.44
36.562,-202.54
36.578,-196.92
36.593,-176.55
36.609,-150.01
36.625,-127.03
36.640,-114.08
36.656,-111.9
36.671,-116.05
36.687,-120.07
36.703,-119.04
36.718,-111.46
36.734,-98.89
36.750,-83.89
36.765,-68.35
36.781,-52.79
36.796,-37.1
36.812,-21.55
36.828,-7.18
36.843,4.53
36.859,12.52
36.875,16.79
36.890,18.4
36.906,18.94
36.921,19.87
36.937,22.11
36.953,26.08
36.968,31.89
36.984,39.47
37.000,48.57
37.015,58.55
37.031,68.36
37.046,76.68
37.062,82.25
37.078,84.26
37.093,82.64
37.109,78.11
37.125,71.98
37.140,65.79
37.156,60.67
37.171,56.97
37.187,54.13
37.203,50.99
37.218,46.42
37.234,39.71
37.250,30.82
37.265,20.1
37.281,7.94
37.296,-5.39
37.312,-19.69
37.328,-34.52
37.343,-49.15
37.359,-62.77
37.375,-74.83
37.390,-85.36
37.406,-94.71
37.421,-103.0
37.437,-109.57
37.453,-112.82
37.468,-110.82
37.484,-102.41
37.500,-88.0
37.515,-69.79
37.531,-51.01
37.546,-34.77
37.562,-22.95
37.578,-15.85
37.593,-12.53
37.609,-11.71
37.625,-12.42
37.640,-14.19
37.656,-16.74
37.671,-19.6
37.687,-21.9
37.703,-22.67
37.718,-21.26
37.734,-17.73
37.750,-12.76
37.765,-7.36
37.781,-2.34
37.796,1.89
37.812,5.43
37.828,8.64
37.843,11.89
37.859,15.41
37.875,19.26
37.890,23.31
37.906,27.27
37.921,30.78
37.937,33.47
37.953,35.15
37.968,35.91
37.984,36.14
38.000,36.35
38.015,36.89
38.031,37.83
38.046,38.96
38.062,40.0
38.078,40.8
38.093,41.49
38.109,42.31
38.125,43.5
38.140,45.08
38.156,46.83
38.171,48.43
38.187,49.56
38.203,50.09
38.218,49.98
38.234,49.26
38.250,47.9
38.265,45.8
38.281,42.77
38.296,38.59
38.312,33.08
38.328,26.11
38.343,17.63
38.359,7.77
38.375,-3.09
38.390,-14.33
38.406,-25.12
38.421,-34.59
38.437,-41.99
38.453,-46.89
38.468,-49.23
38.484,-49.3
38.500,-47.62
38.515,-44.74
38.531,-41.18
38.546,-37.32
38.562,-33.5
38.578,-29.96
38.593,-26.94
38.609,-24.62
38.625,-23.13
38.640,-22.49
38.656,-22.61
38.671,-23.31
38.687,-24.22
38.703,-24.82
38.718,-24.44
38.734,-22.35
38.750,-17.95
38.765,-11.08
38.781,-2.04
38.796,8.32
38.812,18.85
38.828,28.33
38.843,35.72
38.859,40.26
38.875,41.57
38.890,39.67
38.906,34.93
38.921,28.14
38.937,20.29
38.953,12.45
38.968,5.49
38.984,-0.16
39.000,-4.43
39.015,-7.49
39.031,-9.47
39.046,-10.32
39.062,-9.73
39.078,-7.36
39.093,-3.06
39.109,2.97
39.125,10.14
39.140,17.68
39.156,24.84
39.171,31.08
39.187,36.17
39.203,40.04
39.218,42.79
39.234,44.46
39.250,45.15
39.265,45.01
39.281,44.33
39.296,43.52
39.312,42.97
39.328,42.9
39.343,43.21
39.359,43.45
39.375,43.01
39.390,41.29
39.406,37.87
39.421,32.63
39.437,25.64
39.453,17.1
39.468,7.29
39.484,-3.45
39.500,-14.73
39.515,-25.95
39.531,-36.43
39.546,-45.4
39.562,-52.17
39.578,-56.22
39.593,-57.35
39.609,-55.74
39.625,-51.92
39.640,-46.66
39.656,-40.76
39.671,-34.9
39.687,-29.47
39.703,-24.64
39.718,-20.49
39.734,-17.11
39.750,-14.73
39.765,-13.57
39.781,-13.65
39.796,-14.67
39.812,-16.02
39.828,-16.92
39.843,-16.7
39.859,-15.01
39.875,-11.92
39.890,-7.75
39.906,-2.97
39.921,1.95
39.937,6.65
39.953,10.78
39.968,14.0
39.984,15.89
40.000,16.03
40.015,14.07
40.031,9.82
40.046,3.43
40.062,-4.6
40.078,-13.47
40.093,-22.14
40.109,-29.65
40.125,-35.27
40.140,-38.64
40.156,-39.76
40.171,-38.86
40.187,-36.28
40.203,-32.41
40.218,-27.64
40.234,-22.36
40.250,-16.98
40.265,-11.85
40.281,-7.23
40.296,-3.25
40.312,0.02
40.328,2.53
40.343,4.24
40.359,5.17
40.375,5.46
40.390,5.41
40.406,5.44
40.421,6.01
40.437,7.49
40.453,10.12
40.468,13.94
40.484,18.69
40.500,23.86
40.515,28.71
40.531,32.44
40.546,34.38
40.562,34.21
40.578,31.98
40.593,27.98
40.609,22.61
40.625,16.2
40.640,9.01
40.656,1.33
40.671,-6.51
40.687,-14.12
40.703,-21.14
40.718,-27.37
40.734,-32.75
40.750,-37.23
40.765,-40.7
40.781,-42.87
40.796,-43.49
40.812,-42.54
40.828,-40.44
40.843,-37.97
40.859,-35.95
40.875,-34.86
40.890,-34.54
40.906,-34.28
40.921,-33.12
40.937,-30.29
40.953,-25.52
40.968,-19.0
40.984,-11.21
41.000,-2.61
41.015,6.46
41.031,15.72
41.046,24.77
41.062,32.98
41.078,39.56
41.093,43.79
41.109,45.31
41.125,44.24
41.140,41.06
41.156,36.47
41.171,31.02
41.187,25.0
41.203,18.44
41.218,11.22
41.234,3.26
41.250,-5.3
41.265,-13.99
41.281,-22.13
41.296,-28.94
41.312,-33.73
41.328,-36.14
41.343,-36.26
41.359,-34.57
41.375,-31.79
41.390,-28.65
41.406,-25.67
41.421,-23.09
41.437,-20.83
41.453,-18.6
41.468,-15.98
41.484,-12.61
41.500,-8.27
41.515,-2.98
41.531,2.96
41.546,9.09
41.562,14.92
41.578,20.12
41.593,24.56
41.609,28.28
41.625,31.36
41.640,33.79
41.656,35.42
41.671,36.06
41.687,35.58
41.703,34.01
41.718,31.55
41.734,28.47
41.750,24.96
41.765,21.08
41.781,16.75
41.796,11.85
41.812,6.29
41.828,0.12
41.843,-6.49
41.859,-13.26
41.875,-19.97
41.890,-26.48
41.906,-32.74
41.921,-38.78
41.937,-44.55
41.953,-49.87
41.968,-54.38
41.984,-57.67
42.000,-59.37
42.015,-59.31
42.031,-57.48
42.046,-54.03
42.062,-49.16
42.078,-43.01
42.093,-35.66
42.109,-27.25
42.125,-18.01
42.140,-8.41
42.156,0.95
42.171,9.37
42.187,16.26
42.203,21.2
42.218,24.08
42.234,25.14
42.250,24.9
42.265,24.02
42.281,23.17
42.296,22.79
42.312,23.07
42.328,23.87
42.343,24.86
42.359,25.71
42.375,26.18
42.390,26.2
42.406,25.79
42.421,25.04
42.437,23.91
42.453,22.32
42.468,20.12
42.484,17.23
42.500,13.62
42.515,9.37
42.531,4.64
42.546,-0.36
42.562,-5.28
42.578,-9.66
42.593,-12.95
42.609,-14.69
42.625,-14.57
42.640,-12.62
42.656,-9.22
42.671,-4.94
42.687,-0.4
42.703,3.97
42.718,7.94
42.734,11.52
42.750,14.82
42.765,17.88
42.781,20.63
42.796,22.76
42.812,23.86
42.828,23.58
42.843,21.82
42.859,18.85
42.875,15.34
42.890,12.11
42.906,9.88
42.921,8.96
42.937,9.19
42.953,10.05
42.968,10.91
42.984,11.25
43.000,10.7
43.015,9.08
43.031,6.33
43.046,2.55
43.062,-1.93
43.078,-6.5
43.093,-10.36
43.109,-12.76
43.125,-13.29
43.140,-12.04
43.156,-9.59
43.171,-6.82
43.187,-4.63
43.203,-3.7
43.218,-4.32
43.234,-6.44
43.250,-9.74
43.265,-13.76
43.281,-18.0
43.296,-22.04
43.312,-25.55
43.328,-28.28
43.343,-30.07
43.359,-30.72
43.375,-30.04
43.390,-27.77
43.406,-23.67
43.421,-17.67
43.437,-9.99
43.453,-1.17
43.468,7.98
43.484,16.65
43.500,24.19
43.515,30.44
43.531,35.78
43.546,41.01
43.562,47.01
43.578,54.42
43.593,63.23
43.609,72.85
43.625,82.32
43.640,90.86
43.656,98.2
43.671,104.87
43.687,112.09
43.703,121.21
43.718,133.4
43.734,149.1
43.750,167.89
43.765,188.36
43.781,208.09
43.796,223.85
43.812,232.16
43.828,230.42
43.843,218.03
43.859,197.04
43.875,171.56
43.890,146.24
43.906,124.27
43.921,106.13
43.937,89.61
43.953,71.15
43.968,47.68
43.984,18.03
44.000,-16.88
44.015,-54.73
44.031,-92.99
44.046,-129.78
44.062,-164.02
44.078,-195.0
44.093,-221.96
44.109,-243.93
44.125,-259.94
44.140,-269.49
44.156,-272.94
44.171,-271.56
44.187,-267.08
44.203,-261.01
44.218,-253.89
44.234,-245.16
44.250,-233.55
44.265,-218.03
44.281,-198.71
44.296,-177.03
44.312,-155.33
44.328,-135.84
44.343,-119.75
44.359,-106.83
44.375,-95.75
44.390,-84.87
44.406,-72.97
44.421,-59.61
44.437,-45.06
44.453,-29.98
44.468,-15.15
44.484,-1.26
44.500,11.09
44.515,21.43
44.531,29.58
44.546,35.71
44.562,40.32
44.578,44.04
44.593,47.39
44.609,50.54
44.625,53.3
44.640,55.23
44.656,55.79
44.671,54.55
44.687,51.33
44.703,46.27
44.718,39.82
44.734,32.59
44.750,25.14
44.765,17.78
44.781,10.48
44.796,3.04
44.812,-4.6
44.828,-12.11
44.843,-18.87
44.859,-24.2
44.875,-27.88
44.890,-30.31
44.906,-32.41
44.921,-35.24
44.937,-39.49
44.953,-45.3
44.968,-52.43
44.984,-60.36
45.000,-68.52
45.015,-76.17
45.031,-82.23
45.046,-85.41
45.062,-84.48
45.078,-78.73
45.093,-68.33
45.109,-54.35
45.125,-38.49
45.140,-22.55
45.156,-8.03
45.171,4.16
45.187,13.73
45.203,20.9
45.218,26.2
45.234,30.28
45.250,33.65
45.265,36.66
45.281,39.41
45.296,41.79
45.312,43.55
45.328,44.41
45.343,44.13
45.359,42.6
45.375,39.98
45.390,36.76
45.406,33.8
45.421,32.19
45.437,32.94
45.453,36.66
45.468,43.23
45.484,51.81
45.500,61.05
45.515,69.5
45.531,76.04
45.546,80.09
45.562,81.62
45.578,80.93
45.593,78.4
45.609,74.32
45.625,68.9
45.640,62.35
45.656,54.98
45.671,47.18
45.687,39.33
45.703,31.72
45.718,24.48
45.734,17.67
45.750,11.32
45.765,5.54
45.781,0.5
45.796,-3.54
45.812,-6.29
45.828,-7.41
45.843,-6.56
45.859,-3.6
45.875,1.25
45.890,7.21
45.906,12.99
45.921,17.05
45.937,18.13
45.953,15.64
45.968,9.92
45.984,2.09
46.000,-6.45
46.015,-14.36
46.031,-20.8
46.046,-25.33
46.062,-27.87
46.078,-28.33
46.093,-26.67
46.109,-22.91
46.125,-17.39
46.140,-10.87
46.156,-4.47
46.171,0.63
46.187,3.56
46.203,4.07
46.218,2.51
46.234,-0.38
46.250,-3.82
46.265,-7.27
46.281,-10.56
46.296,-13.75
46.312,-16.91
46.328,-20.0
46.343,-22.79
46.359,-24.98
46.375,-26.3
46.390,-26.71
46.406,-26.38
46.421,-25.71
46.437,-25.14
46.453,-25.0
46.468,-25.43
46.484,-26.22
46.500,-26.88
46.515,-26.74
46.531,-25.11
46.546,-21.49
46.562,-15.71
46.578,-7.89
46.593,1.55
46.609,12.09
46.625,23.13
46.640,33.99
46.656,43.98
46.671,52.35
46.687,58.43
46.703,61.74
46.718,62.15
46.734,59.87
46.750,55.41
46.765,49.45
46.781,42.66
46.796,35.61
46.812,28.72
46.828,22.27
46.843,16.5
46.859,11.62
46.875,7.82
46.890,5.21
46.906,3.74
46.921,3.18
46.937,3.04
46.953,2.78
46.968,1.93
46.984,0.29
47.000,-2.0
47.015,-4.58
47.031,-7.01
47.046,-9.02
47.062,-10.58
47.078,-11.86
47.093,-13.04
47.109,-14.11
47.125,-14.8
47.140,-14.65
47.156,-13.17
47.171,-9.94
47.187,-4.78
47.203,2.28
47.218,10.91
47.234,20.53
47.250,30.19
47.265,38.61
47.281,44.34
47.296,46.1
47.312,43.21
47.328,35.96
47.343,25.66
47.359,14.38
47.375,4.37
47.390,-2.57
47.406,-5.57
47.421,-4.78
47.437,-1.2
47.453,3.83
47.468,9.07
47.484,13.68
47.500,17.33
47.515,20.07
47.531,22.1
47.546,23.59
47.562,24.6
47.578,24.98
47.593,24.48
47.609,22.79
47.625,19.68
47.640,15.01
47.656,8.83
47.671,1.47
47.687,-6.44
47.703,-13.97
47.718,-20.15
47.734,-24.27
47.750,-26.07
47.765,-25.92
47.781,-24.53
47.796,-22.76
47.812,-21.24
47.828,-20.19
47.843,-19.43
47.859,-18.52
47.875,-16.99
47.890,-14.42
47.906,-10.67
47.921,-5.79
47.937,-0.2
47.953,5.47
47.968,10.51
47.984,14.46
48.000,17.23
48.015,19.13
48.031,20.63
48.046,21.93
48.062,22.85
48.078,22.87
48.093,21.44
48.109,18.28
48.125,13.56
48.140,7.77
48.156,1.43
48.171,-5.17
48.187,-11.97
48.203,-19.01
48.218,-26.22
48.234,-33.35
48.250,-39.95
48.265,-45.57
48.281,-49.86
48.296,-52.71
48.312,-54.14
48.328,-54.36
48.343,-53.6
48.359,-52.05
48.375,-49.75
48.390,-46.65
48.406,-42.61
48.421,-37.51
48.437,-31.38
48.453,-24.38
48.468,-16.78
48.484,-8.86
48.500,-0.9
48.515,6.88
48.531,14.3
48.546,21.14
48.562,27.16
48.578,32.05
48.593,35.5
48.609,37.35
48.625,37.68
48.640,36.95
48.656,35.82
48.671,35.04
48.687,35.12
48.703,36.11
48.718,37.58
48.734,38.86
48.750,39.26
48.765,38.37
48.781,35.96
48.796,31.83
48.812,25.79
48.828,17.66
48.843,7.53
48.859,-4.0
48.875,-15.84
48.890,-26.71
48.906,-35.54
48.921,-41.92
48.937,-46.07
48.953,-48.63
48.968,-50.23
48.984,-51.08
49.000,-50.92
49.015,-49.2
49.031,-45.49
49.046,-39.73
49.062,-32.3
49.078,-23.88
49.093,-15.09
49.109,-6.43
49.125,1.83
49.140,9.46
49.156,16.11
49.171,21.35
49.187,24.76
49.203,26.24
49.218,26.08
49.234,24.81
49.250,22.99
49.265,20.89
49.281,18.51
49.296,15.68
49.312,12.31
49.328,8.58
49.343,4.86
49.359,1.56
49.375,-1.07
49.390,-3.06
49.406,-4.65
49.421,-6.13
49.437,-7.75
49.453,-9.6
49.468,-11.61
49.484,-13.53
49.500,-14.92
49.515,-15.3
49.531,-14.22
49.546,-11.51
49.562,-7.36
49.578,-2.3
49.593,3.01
49.609,7.99
49.625,12.29
49.640,15.8
49.656,18.51
49.671,20.37
49.687,21.24
49.703,21.02
49.718,19.81
49.734,17.96
49.750,16.1
49.765,14.84
49.781,14.57
49.796,15.22
49.812,16.33
49.828,17.24
49.843,17.38
49.859,16.48
49.875,14.56
49.890,11.83
49.906,8.53
49.921,4.88
49.937,1.12
49.953,-2.4
49.968,-5.21
49.984,-6.92
50.000,-7.43
50.015,-7.08
50.031,-6.62
50.046,-6.96
50.062,-8.82
50.078,-12.38
50.093,-17.23
50.109,-22.46
50.125,-26.92
50.140,-29.59
50.156,-29.67
50.171,-26.84
50.187,-21.26
50.203,-13.5
50.218,-4.47
50.234,4.72
50.250,13.04
50.265,19.67
50.281,24.15
50.296,26.41
50.312,26.67
50.328,25.32
50.343,22.82
50.359,19.64
50.375,16.27
50.390,13.16
50.406,10.67
50.421,8.94
50.437,7.86
50.453,7.17
50.468,6.58
50.484,5.93
50.500,5.24
50.515,4.58
50.531,4.04
50.546,3.55
50.562,2.95
50.578,2.08
50.593,0.85
50.609,-0.75
50.625,-2.67
50.640,-4.98
50.656,-7.8
50.671,-11.27
50.687,-15.26
50.703,-19.33
50.718,-22.63
50.734,-24.17
50.750,-23.06
50.765,-18.86
50.781,-11.82
50.796,-2.81
50.812,6.92
50.828,16.15
50.843,24.04
50.859,30.2
50.875,34.62
50.890,37.39
50.906,38.41
50.921,37.42
50.937,34.16
50.953,28.69
50.968,21.55
50.984,13.69
51.000,6.14
51.015,-0.35
51.031,-5.53
51.046,-9.52
51.062,-12.52
51.078,-14.54
51.093,-15.38
51.109,-14.86
51.125,-13.1
51.140,-10.65
51.156,-8.4
51.171,-7.11
51.187,-7.09
51.203,-8.1
51.218,-9.49
51.234,-10.7
51.250,-11.47
51.265,-12.0
51.281,-12.66
51.296,-13.75
51.312,-15.26
51.328,-16.9
51.343,-18.21
51.359,-18.77
51.375,-18.36
51.390,-16.98
51.406,-14.83
51.421,-12.22
51.437,-9.54
51.453,-7.12
51.468,-5.18
51.484,-3.76
51.500,-2.81
51.515,-2.27
51.531,-2.1
51.546,-2.32
51.562,-2.84
51.578,-3.47
51.593,-3.85
51.609,-3.66
51.625,-2.7
51.640,-1.04
51.656,0.98
51.671,2.97
51.687,4.58
51.703,5.7
51.718,6.4
51.734,6.89
51.750,7.35
51.765,7.87
51.781,8.4
51.796,8.81
51.812,9.03
51.828,9.02
51.843,8.86
51.859,8.65
51.875,8.47
51.890,8.32
51.906,8.12
51.921,7.86
51.937,7.62
51.953,7.63
51.968,8.2
51.984,9.56
52.000,11.74
52.015,14.51
52.031,17.39
52.046,19.8
52.062,21.2
52.078,21.2
52.093,19.64
52.109,16.63
52.125,12.6
52.140,8.16
52.156,4.03
52.171,0.79
52.187,-1.23
52.203,-2.04
52.218,-1.84
52.234,-0.93
52.250,0.41
52.265,1.97
52.281,3.55
52.296,4.89
52.312,5.63
52.328,5.5
52.343,4.39
52.359,2.48
52.375,0.17
52.390,-2.14
52.406,-4.23
52.421,-6.12
52.437,-7.98
52.453,-9.97
52.468,-12.05
52.484,-14.13
52.500,-16.09
52.515,-17.95
52.531,-19.83
52.546,-21.81
52.562,-23.72
52.578,-25.15
52.593,-25.54
52.609,-24.48
52.625,-21.95
52.640,-18.36
52.656,-14.41
52.671,-10.81
52.687,-8.08
52.703,-6.38
52.718,-5.66
52.734,-5.7
52.750,-6.31
52.765,-7.33
52.781,-8.66
52.796,-10.2
52.812,-11.83
52.828,-13.47
52.843,-15.03
52.859,-16.48
52.875,-17.77
52.890,-18.82
52.906,-19.5
52.921,-19.71
52.937,-19.43
52.953,-18.71
52.968,-17.7
52.984,-16.52
53.000,-15.22
53.015,-13.73
53.031,-11.98
53.046,-10.06
53.062,-8.2
53.078,-6.65
53.093,-5.64
53.109,-5.13
53.125,-4.79
53.140,-4.16
53.156,-2.8
53.171,-0.48
53.187,2.75
53.203,6.56
53.218,10.57
53.234,14.44
53.250,17.99
53.265,21.24
53.281,24.28
53.296,27.15
53.312,29.84
53.328,32.19
53.343,33.97
53.359,34.97
53.375,34.99
53.390,33.89
53.406,31.64
53.421,28.32
53.437,24.15
53.453,19.54
53.468,15.0
53.484,11.11
53.500,8.38
53.515,7.07
53.531,7.27
53.546,8.77
53.562,11.17
53.578,13.96
53.593,16.62
53.609,18.71
53.625,19.98
53.640,20.29
53.656,19.59
53.671,17.8
53.687,14.79
53.703,10.35
53.718,4.3
53.734,-3.39
53.750,-12.52
53.765,-22.66
53.781,-33.13
53.796,-43.12
53.812,-51.77
53.828,-58.34
53.843,-62.29
53.859,-63.35
53.875,-61.5
53.890,-56.96
53.906,-50.16
53.921,-41.77
53.937,-32.67
53.953,-23.83
53.968,-16.1
53.984,-9.93
54.000,-5.24
54.015,-1.49
54.031,2.05
54.046,5.88
54.062,10.07
54.078,14.19
54.093,17.55
54.109,19.49
54.125,19.66
54.140,18.12
54.156,15.27
54.171,11.78
54.187,8.4
54.203,5.8
54.218,4.47
54.234,4.56
54.250,5.95
54.265,8.24
54.281,10.9
54.296,13.42
54.312,15.36
54.328,16.45
54.343,16.51
54.359,15.43
54.375,13.16
54.390,9.69
54.406,5.02
54.421,-0.83
54.437,-7.75
54.453,-15.45
54.468,-23.39
54.484,-30.76
54.500,-36.6
54.515,-40.12
54.531,-40.87
54.546,-38.92
54.562,-34.85
54.578,-29.56
54.593,-24.02
54.609,-19.1
54.625,-15.38
54.640,-13.13
54.656,-12.34
54.671,-12.7
54.687,-13.76
54.703,-15.03
54.718,-16.02
54.734,-16.41
54.750,-16.05
54.765,-14.95
54.781,-13.31
54.796,-11.41
54.812,-9.54
54.828,-7.9
54.843,-6.55
54.859,-5.39
54.875,-4.27
54.890,-3.03
54.906,-1.62
54.921,-0.04
54.937,1.64
54.953,3.3
54.968,4.83
54.984,6.04
55.000,6.72
55.015,6.72
55.031,6.07
55.046,4.95
55.062,3.73
55.078,2.71
55.093,2.06
55.109,1.74
55.125,1.67
55.140,1.82
55.156,2.27
55.171,3.19
55.187,4.63
55.203,6.38
55.218,8.03
55.234,9.14
55.250,9.5
55.265,9.21
55.281,8.75
55.296,8.62
55.312,9.13
55.328,10.21
55.343,11.44
55.359,12.31
55.375,12.5
55.390,12.01
55.406,11.15
55.421,10.38
55.437,10.04
55.453,10.24
55.468,10.81
55.484,11.43
55.500,11.71
55.515,11.38
55.531,10.13
55.546,7.72
55.562,3.98
55.578,-1.11
55.593,-7.22
55.609,-13.6
55.625,-19.15
55.640,-22.7
55.656,-23.27
55.671,-20.42
55.687,-14.33
55.703,-5.79
55.718,4.08
55.734,14.03
55.750,22.97
55.765,30.1
55.781,34.91
55.796,37.17
55.812,36.88
55.828,34.22
55.843,29.55
55.859,23.43
55.875,16.55
55.890,9.73
55.906,3.58
55.921,-1.55
55.937,-5.7
55.953,-9.23
55.968,-12.56
55.984,-15.85
56.000,-18.99
56.015,-21.61
56.031,-23.36
56.046,-24.17
56.062,-24.34
56.078,-24.3
56.093,-24.49
56.109,-25.11
56.125,-26.04
56.140,-26.98
56.156,-27.57
56.171,-27.42
56.187,-26.2
56.203,-23.55
56.218,-19.12
56.234,-12.77
56.250,-4.64
56.265,4.76
56.281,14.5
56.296,23.55
56.312,30.96
56.328,36.05
56.343,38.58
56.359,38.68
56.375,36.83
56.390,33.74
56.406,30.18
56.421,26.8
56.437,24.02
56.453,22.03
56.468,20.77
56.484,20.1
56.500,19.82
56.515,19.68
56.531,19.35
56.546,18.36
56.562,16.18
56.578,12.45
56.593,7.09
56.609,0.4
56.625,-7.05
56.640,-14.54
56.656,-21.45
56.671,-27.36
56.687,-32.04
56.703,-35.4
56.718,-37.4
56.734,-37.96
56.750,-37.04
56.765,-34.63
56.781,-30.79
56.796,-25.78
56.812,-20.0
56.828,-14.03
56.843,-8.45
56.859,-3.76
56.875,-0.19
56.890,2.27
56.906,3.86
56.921,4.88
56.937,5.52
56.953,5.9
56.968,6.1
56.984,6.26
57.000,6.72
57.015,7.86
57.031,10.05
57.046,13.4
57.062,17.67
57.078,22.33
57.093,26.68
57.109,30.13
57.125,32.32
57.140,33.24
57.156,33.08
57.171,32.05
57.187,30.28
57.203,27.77
57.218,24.48
57.234,20.51
57.250,16.24
57.265,12.31
57.281,9.47
57.296,8.4
57.312,9.5
57.328,12.81
57.343,18.03
57.359,24.67
57.375,32.15
57.390,39.79
57.406,46.88
57.421,52.6
57.437,56.17
57.453,56.86
57.468,54.24
57.484,48.25
57.500,39.34
57.515,28.41
57.531,16.75
57.546,5.78
57.562,-3.21
57.578,-9.27
57.593,-12.02
57.609,-11.6
57.625,-8.66
57.640,-4.16
57.656,0.75
57.671,4.92
57.687,7.37
57.703,7.43
57.718,4.91
57.734,0.08
57.750,-6.38
57.765,-13.69
57.781,-21.13
57.796,-28.2
57.812,-34.56
57.828,-39.94
57.843,-44.06
57.859,-46.55
57.875,-47.14
57.890,-45.64
57.906,-42.18
57.921,-37.05
57.937,-30.78
57.953,-23.96
57.968,-17.17
57.984,-10.9
58.000,-5.43
58.015,-0.81
58.031,3.1
58.046,6.44
58.062,9.29
58.078,11.49
58.093,12.81
58.109,13.05
58.125,12.23
58.140,10.65
58.156,8.75
58.171,6.92
58.187,5.29
58.203,3.75
58.218,2.03
58.234,-0.03
58.250,-2.34
58.265,-4.59
58.281,-6.37
58.296,-7.4
58.312,-7.68
58.328,-7.51
58.343,-7.38
58.359,-7.75
58.375,-8.92
58.390,-10.9
58.406,-13.46
58.421,-16.16
58.437,-18.46
58.453,-19.85
58.468,-19.98
58.484,-18.68
58.500,-16.1
58.515,-12.63
58.531,-8.78
58.546,-5.04
58.562,-1.78
58.578,0.79
58.593,2.59
58.609,3.6
58.625,3.85
58.640,3.41
58.656,2.42
58.671,1.15
58.687,-0.12
58.703,-1.17
58.718,-1.91
58.734,-2.37
58.750,-2.64
58.765,-2.77
58.781,-2.75
58.796,-2.57
58.812,-2.21
58.828,-1.79
58.843,-1.51
58.859,-1.56
58.875,-2.08
58.890,-3.03
58.906,-4.3
58.921,-5.77
58.937,-7.31
58.953,-8.91
58.968,-10.62
58.984,-12.5
59.000,-14.55
59.015,-16.67
59.031,-18.56
59.046,-19.79
59.062,-19.94
59.078,-18.68
59.093,-15.94
59.109,-11.91
59.125,-7.05
59.140,-1.87
59.156,3.12
59.171,7.59
59.187,11.34
59.203,14.26
59.218,16.3
59.234,17.43
59.250,17.67
59.265,17.14
59.281,16.07
59.296,14.74
59.312,13.45
59.328,12.46
59.343,11.87
59.359,11.68
59.375,11.74
59.390,11.92
59.406,12.02
59.421,11.97
59.437,11.71
59.453,11.29
59.468,10.75
59.484,10.15
59.500,9.49
59.515,8.74
59.531,7.85
59.546,6.81
59.562,5.62
59.578,4.23
59.593,2.6
59.609,0.68
59.625,-1.47
59.640,-3.67
59.656,-5.55
59.671,-6.61
59.687,-6.45
59.703,-4.91
59.718,-2.22
59.734,1.17
59.750,4.62
59.765,7.67
59.781,10.05
59.796,11.79
59.812,13.03
59.828,13.87
59.843,14.26
59.859,14.08
59.875,13.16
59.890,11.5
59.906,9.34
59.921,7.1
59.937,5.21
59.953,3.93
59.968,3.26
59.984,2.98
