timestamp,value
00.000,-56.98
00.015,-62.37
00.031,-68.04
00.046,-72.94
00.062,-76.16
00.078,-77.4
00.093,-77.2
00.109,-76.62
00.125,-76.51
00.140,-76.89
00.156,-76.81
00.171,-74.88
00.187,-70.07
00.203,-62.34
00.218,-52.47
00.234,-41.39
00.250,-29.41
00.265,-16.02
00.281,-0.43
00.296,17.46
00.312,36.12
00.328,52.3
00.343,62.14
00.359,62.83
00.375,54.28
00.390,39.72
00.406,24.64
00.421,14.74
00.437,13.71
00.453,22.06
00.468,37.46
00.484,56.48
00.500,76.24
00.515,95.42
00.531,113.77
00.546,131.06
00.562,146.07
00.578,156.73
00.593,161.08
00.609,158.51
00.625,150.2
00.640,138.28
00.656,124.56
00.671,109.36
00.687,91.57
00.703,69.63
00.718,42.85
00.734,12.15
00.750,-20.13
00.765,-51.1
00.781,-78.37
00.796,-100.51
00.812,-116.94
00.828,-127.48
00.843,-132.01
00.859,-130.61
00.875,-123.71
00.890,-112.28
00.906,-97.57
00.921,-80.73
00.937,-62.43
00.953,-43.04
00.968,-23.18
00.984,-4.26
01.000,11.51
01.015,21.88
01.031,25.69
01.046,23.79
01.062,19.0
01.078,15.15
01.093,15.56
01.109,21.79
01.125,33.35
01.140,48.26
01.156,64.04
01.171,78.49
01.187,89.89
01.203,96.81
01.218,97.97
01.234,92.46
01.250,80.33
01.265,62.98
01.281,43.14
01.296,24.14
01.312,8.93
01.328,-0.74
01.343,-4.62
01.359,-3.67
01.375,0.58
01.390,6.7
01.406,13.82
01.421,21.74
01.437,30.86
01.453,41.87
01.468,55.43
01.484,71.83
01.500,90.74
01.515,111.18
01.531,131.72
01.546,150.75
01.562,166.83
01.578,178.74
01.593,185.76
01.609,187.62
01.625,184.59
01.640,177.44
01.656,167.33
01.671,155.51
01.687,143.21
01.703,131.36
01.718,120.65
01.734,111.42
01.750,103.63
01.765,96.83
01.781,90.28
01.796,83.14
01.812,74.85
01.828,65.33
01.843,55.04
01.859,44.7
01.875,34.86
01.890,25.6
01.906,16.64
01.921,7.72
01.937,-1.04
01.953,-9.07
01.968,-15.69
01.984,-20.71
02.000,-24.61
02.015,-28.33
02.031,-32.65
02.046,-37.63
02.062,-42.51
02.078,-46.21
02.093,-48.0
02.109,-48.03
02.125,-47.29
02.140,-47.2
02.156,-48.83
02.171,-52.54
02.187,-57.96
02.203,-64.15
02.218,-70.08
02.234,-74.79
02.250,-77.56
02.265,-78.01
02.281,-76.11
02.296,-72.17
02.312,-66.7
02.328,-60.21
02.343,-53.05
02.359,-45.46
02.375,-37.68
02.390,-30.19
02.406,-23.78
02.421,-19.48
02.437,-18.12
02.453,-19.99
02.468,-24.6
02.484,-30.74
02.500,-36.98
02.515,-42.08
02.531,-45.39
02.546,-46.8
02.562,-46.59
02.578,-45.03
02.593,-42.17
02.609,-37.95
02.625,-32.3
02.640,-25.44
02.656,-18.01
02.671,-10.88
02.687,-4.95
02.703,-0.8
02.718,1.47
02.734,2.23
02.750,2.06
02.765,1.52
02.781,1.0
02.796,0.57
02.812,0.2
02.828,-0.23
02.843,-0.72
02.859,-1.2
02.875,-1.61
02.890,-1.96
02.906,-2.41
02.921,-3.11
02.937,-4.2
02.953,-5.62
02.968,-7.01
02.984,-7.83
03.000,-7.41
03.015,-5.21
03.031,-1.07
03.046,4.72
03.062,11.42
03.078,18.07
03.093,23.86
03.109,28.25
03.125,31.17
03.140,32.79
03.156,33.33
03.171,32.81
03.187,31.14
03.203,28.2
03.218,24.04
03.234,19.02
03.250,13.61
03.265,8.21
03.281,2.99
03.296,-2.16
03.312,-7.35
03.328,-12.54
03.343,-17.37
03.359,-21.28
03.375,-23.78
03.390,-24.77
03.406,-24.64
03.421,-24.08
03.437,-23.68
03.453,-23.7
03.468,-23.88
03.484,-23.73
03.500,-22.8
03.515,-20.96
03.531,-18.47
03.546,-15.8
03.562,-13.52
03.578,-12.07
03.593,-11.71
03.609,-12.44
03.625,-13.99
03.640,-15.8
03.656,-17.21
03.671,-17.64
03.687,-16.88
03.703,-15.22
03.718,-13.32
03.734,-11.91
03.750,-11.38
03.765,-11.5
03.781,-11.52
03.796,-10.52
03.812,-7.84
03.828,-3.38
03.843,2.42
03.859,8.79
03.875,15.03
03.890,20.71
03.906,25.7
03.921,30.01
03.937,33.57
03.953,36.12
03.968,37.32
03.984,36.93
04.000,34.95
04.015,31.69
04.031,27.67
04.046,23.53
04.062,19.78
04.078,16.68
04.093,14.2
04.109,12.13
04.125,10.12
04.140,7.93
04.156,5.58
04.171,3.28
04.187,1.31
04.203,-0.19
04.218,-1.36
04.234,-2.56
04.250,-4.16
04.265,-6.23
04.281,-8.44
04.296,-10.17
04.312,-10.81
04.328,-10.06
04.343,-7.97
04.359,-4.92
04.375,-1.33
04.390,2.45
04.406,6.21
04.421,9.85
04.437,13.23
04.453,16.27
04.468,18.91
04.484,21.23
04.500,23.43
04.515,25.67
04.531,27.98
04.546,30.23
04.562,32.16
04.578,33.6
04.593,34.51
04.609,35.03
04.625,35.3
04.640,35.37
04.656,35.09
04.671,34.23
04.687,32.64
04.703,30.3
04.718,27.43
04.734,24.3
04.750,21.15
04.765,18.09
04.781,15.11
04.796,12.17
04.812,9.28
04.828,6.49
04.843,3.89
04.859,1.38
04.875,-1.26
04.890,-4.37
04.906,-8.33
04.921,-13.42
04.937,-19.68
04.953,-26.91
04.968,-34.62
04.984,-42.07
05.000,-48.48
05.015,-53.12
05.031,-55.6
05.046,-55.96
05.062,-54.6
05.078,-52.18
05.093,-49.35
05.109,-46.53
05.125,-43.9
05.140,-41.43
05.156,-39.01
05.171,-36.61
05.187,-34.23
05.203,-31.89
05.218,-29.53
05.234,-27.02
05.250,-24.25
05.265,-21.25
05.281,-18.17
05.296,-15.32
05.312,-12.99
05.328,-11.36
05.343,-10.38
05.359,-9.84
05.375,-9.57
05.390,-9.43
05.406,-9.45
05.421,-9.73
05.437,-10.26
05.453,-10.9
05.468,-11.38
05.484,-11.49
05.500,-11.15
05.515,-10.49
05.531,-9.8
05.546,-9.36
05.562,-9.27
05.578,-9.49
05.593,-9.85
05.609,-10.14
05.625,-10.21
05.640,-9.92
05.656,-9.17
05.671,-7.8
05.687,-5.81
05.703,-3.33
05.718,-0.72
05.734,1.58
05.750,3.23
05.765,4.03
05.781,4.08
05.796,3.59
05.812,2.82
05.828,1.93
05.843,0.97
05.859,0.04
05.875,-0.79
05.890,-1.33
05.906,-1.48
05.921,-1.27
05.937,-0.92
05.953,-0.83
05.968,-1.39
05.984,-2.84
06.000,-5.18
06.015,-8.2
06.031,-11.55
06.046,-14.91
06.062,-18.09
06.078,-21.07
06.093,-23.95
06.109,-26.9
06.125,-30.05
06.140,-33.41
06.156,-37.0
06.171,-40.78
06.187,-44.66
06.203,-48.52
06.218,-52.12
06.234,-55.2
06.250,-57.52
06.265,-58.96
06.281,-59.55
06.296,-59.44
06.312,-58.78
06.328,-57.64
06.343,-56.05
06.359,-54.01
06.375,-51.65
06.390,-49.19
06.406,-46.94
06.421,-45.15
06.437,-43.98
06.453,-43.39
06.468,-43.31
06.484,-43.58
06.500,-44.05
06.515,-44.54
06.531,-44.9
06.546,-44.99
06.562,-44.71
06.578,-44.04
06.593,-43.04
06.609,-41.86
06.625,-40.67
06.640,-39.74
06.656,-39.33
06.671,-39.59
06.687,-40.52
06.703,-41.93
06.718,-43.49
06.734,-44.98
06.750,-46.32
06.765,-47.63
06.781,-49.02
06.796,-50.41
06.812,-51.31
06.828,-50.93
06.843,-48.4
06.859,-43.16
06.875,-35.12
06.890,-24.69
06.906,-12.68
06.921,0.07
06.937,12.72
06.953,24.63
06.968,35.31
06.984,44.42
07.000,51.78
07.015,57.38
07.031,61.37
07.046,64.05
07.062,65.78
07.078,66.91
07.093,67.65
07.109,68.11
07.125,68.26
07.140,68.07
07.156,67.6
07.171,67.02
07.187,66.57
07.203,66.51
07.218,66.93
07.234,67.7
07.250,68.58
07.265,69.25
07.281,69.54
07.296,69.41
07.312,68.92
07.328,68.13
07.343,66.99
07.359,65.32
07.375,62.85
07.390,59.36
07.406,54.76
07.421,49.15
07.437,42.85
07.453,36.31
07.468,30.08
07.484,24.66
07.500,20.44
07.515,17.62
07.531,16.28
07.546,16.33
07.562,17.62
07.578,19.92
07.593,22.88
07.609,26.1
07.625,29.19
07.640,31.84
07.656,33.87
07.671,35.18
07.687,35.61
07.703,35.05
07.718,33.34
07.734,30.46
07.750,26.6
07.765,22.11
07.781,17.41
07.796,12.81
07.812,8.49
07.828,4.41
07.843,0.58
07.859,-2.99
07.875,-6.19
07.890,-8.91
07.906,-11.2
07.921,-13.18
07.937,-15.1
07.953,-17.06
07.968,-19.11
07.984,-21.13
08.000,-23.09
08.015,-25.12
08.031,-27.41
08.046,-30.16
08.062,-33.29
08.078,-36.46
08.093,-39.03
08.109,-40.42
08.125,-40.3
08.140,-38.63
08.156,-35.57
08.171,-31.34
08.187,-26.16
08.203,-20.4
08.218,-14.63
08.234,-9.58
08.250,-5.84
08.265,-3.56
08.281,-2.35
08.296,-1.43
08.312,-0.16
08.328,1.67
08.343,3.74
08.359,5.44
08.375,6.33
08.390,6.4
08.406,6.0
08.421,5.59
08.437,5.4
08.453,5.37
08.468,5.27
08.484,4.94
08.500,4.36
08.515,3.67
08.531,3.05
08.546,2.71
08.562,2.79
08.578,3.44
08.593,4.71
08.609,6.51
08.625,8.57
08.640,10.48
08.656,11.9
08.671,12.7
08.687,13.05
08.703,13.26
08.718,13.63
08.734,14.24
08.750,14.95
08.765,15.51
08.781,15.82
08.796,15.98
08.812,16.26
08.828,16.97
08.843,18.21
08.859,19.8
08.875,21.31
08.890,22.27
08.906,22.35
08.921,21.57
08.937,20.11
08.953,18.17
08.968,15.68
08.984,12.39
09.000,8.09
09.015,2.91
09.031,-2.62
09.046,-7.79
09.062,-12.1
09.078,-15.54
09.093,-18.46
09.109,-21.24
09.125,-23.96
09.140,-26.31
09.156,-27.83
09.171,-28.28
09.187,-27.95
09.203,-27.39
09.218,-27.13
09.234,-27.39
09.250,-27.93
09.265,-28.44
09.281,-28.75
09.296,-28.97
09.312,-29.43
09.328,-30.3
09.343,-31.52
09.359,-32.82
09.375,-33.98
09.390,-35.01
09.406,-36.32
09.421,-38.51
09.437,-42.0
09.453,-46.66
09.468,-51.58
09.484,-55.29
09.500,-56.25
09.515,-53.51
09.531,-47.12
09.546,-38.15
09.562,-28.24
09.578,-18.97
09.593,-11.45
09.609,-6.0
09.625,-2.41
09.640,-0.22
09.656,1.04
09.671,1.74
09.687,2.13
09.703,2.47
09.718,2.92
09.734,3.56
09.750,4.29
09.765,4.89
09.781,5.04
09.796,4.53
09.812,3.32
09.828,1.55
09.843,-0.45
09.859,-2.33
09.875,-3.78
09.890,-4.71
09.906,-5.26
09.921,-5.79
09.937,-6.72
09.953,-8.42
09.968,-11.01
09.984,-14.26
10.000,-17.56
10.015,-20.02
10.031,-20.67
10.046,-18.77
10.062,-14.0
10.078,-6.56
10.093,2.84
10.109,13.24
10.125,23.67
10.140,33.39
10.156,41.95
10.171,49.23
10.187,55.24
10.203,60.09
10.218,63.78
10.234,66.28
10.250,67.57
10.265,67.73
10.281,67.07
10.296,65.99
10.312,64.94
10.328,64.23
10.343,63.89
10.359,63.78
10.375,63.61
10.390,63.15
10.406,62.19
10.421,60.62
10.437,58.31
10.453,55.21
10.468,51.34
10.484,46.86
10.500,41.99
10.515,36.94
10.531,31.84
10.546,26.76
10.562,21.77
10.578,16.98
10.593,12.5
10.609,8.29
10.625,4.0
10.640,-0.86
10.656,-6.6
10.671,-12.95
10.687,-19.01
10.703,-23.49
10.718,-25.33
10.734,-24.18
10.750,-20.62
10.765,-15.77
10.781,-10.75
10.796,-6.24
10.812,-2.44
10.828,0.53
10.843,2.24
10.859,1.89
10.875,-1.31
10.890,-7.64
10.906,-16.61
10.921,-27.0
10.937,-37.37
10.953,-46.6
10.968,-54.15
10.984,-60.06
11.000,-64.64
11.015,-68.03
11.031,-69.95
11.046,-69.69
11.062,-66.34
11.078,-59.39
11.093,-49.27
11.109,-37.75
11.125,-27.72
11.140,-22.31
11.156,-23.73
11.171,-32.2
11.187,-45.81
11.203,-61.44
11.218,-76.29
11.234,-89.09
11.250,-100.25
11.265,-110.87
11.281,-121.38
11.296,-130.59
11.312,-136.07
11.328,-135.51
11.343,-128.22
11.359,-115.83
11.375,-101.71
11.390,-89.37
11.406,-80.87
11.421,-76.14
11.437,-73.5
11.453,-70.88
11.468,-67.09
11.484,-62.2
11.500,-57.22
11.515,-53.25
11.531,-50.75
11.546,-49.42
11.562,-48.51
11.578,-47.35
11.593,-45.7
11.609,-43.76
11.625,-42.02
11.640,-40.97
11.656,-41.12
11.671,-42.95
11.687,-46.98
11.703,-53.54
11.718,-62.39
11.734,-72.55
11.750,-82.36
11.765,-89.89
11.781,-93.6
11.796,-92.88
11.812,-88.13
11.828,-80.65
11.843,-72.18
11.859,-64.66
11.875,-59.89
11.890,-59.32
11.906,-63.55
11.921,-71.85
11.937,-81.85
11.953,-89.93
11.968,-92.16
11.984,-85.54
12.000,-68.9
12.015,-43.12
12.031,-10.61
12.046,25.59
12.062,62.49
12.078,97.35
12.093,127.74
12.109,151.53
12.125,167.26
12.140,174.64
12.156,174.86
12.171,170.33
12.187,163.7
12.203,156.76
12.218,149.79
12.234,141.69
12.250,130.79
12.265,116.04
12.281,97.55
12.296,76.68
12.312,55.39
12.328,35.52
12.343,18.3
12.359,4.34
12.375,-6.2
12.390,-13.34
12.406,-17.31
12.421,-18.62
12.437,-18.15
12.453,-17.03
12.468,-16.38
12.484,-16.96
12.500,-19.02
12.515,-22.31
12.531,-26.2
12.546,-30.05
12.562,-33.35
12.578,-35.8
12.593,-37.21
12.609,-37.17
12.625,-34.96
12.640,-29.61
12.656,-20.46
12.671,-7.61
12.687,7.91
12.703,24.45
12.718,40.46
12.734,55.13
12.750,68.57
12.765,81.34
12.781,93.72
12.796,105.2
12.812,114.65
12.828,120.9
12.843,123.51
12.859,123.03
12.875,120.54
12.890,116.99
12.906,112.6
12.921,106.9
12.937,99.04
12.953,88.52
12.968,75.51
12.984,60.91
13.000,46.05
13.015,32.28
13.031,20.69
13.046,11.82
13.062,5.64
13.078,1.58
13.093,-1.27
13.109,-3.87
13.125,-6.91
13.140,-10.57
13.156,-14.63
13.171,-18.66
13.187,-22.3
13.203,-25.38
13.218,-27.69
13.234,-28.71
13.250,-27.4
13.265,-22.51
13.281,-13.06
13.296,0.98
13.312,18.41
13.328,37.03
13.343,54.36
13.359,68.45
13.375,78.35
13.390,84.11
13.406,86.42
13.421,86.18
13.437,84.2
13.453,81.16
13.468,77.63
13.484,74.14
13.500,71.12
13.515,68.9
13.531,67.55
13.546,67.0
13.562,66.96
13.578,67.0
13.593,66.55
13.609,65.1
13.625,62.36
13.640,58.42
13.656,53.7
13.671,48.79
13.687,44.05
13.703,39.41
13.718,34.38
13.734,28.31
13.750,20.79
13.765,11.82
13.781,1.85
13.796,-8.42
13.812,-18.31
13.828,-27.28
13.843,-34.94
13.859,-40.94
13.875,-44.81
13.890,-45.97
13.906,-43.82
13.921,-37.94
13.937,-28.32
13.953,-15.45
13.968,-0.26
13.984,16.05
14.000,32.35
14.015,47.81
14.031,61.99
14.046,74.78
14.062,86.24
14.078,96.36
14.093,104.99
14.109,111.82
14.125,116.48
14.140,118.74
14.156,118.59
14.171,116.33
14.187,112.46
14.203,107.61
14.218,102.38
14.234,97.2
14.250,92.31
14.265,87.75
14.281,83.4
14.296,79.07
14.312,74.54
14.328,69.64
14.343,64.27
14.359,58.47
14.375,52.4
14.390,46.31
14.406,40.44
14.421,34.93
14.437,29.83
14.453,25.15
14.468,20.89
14.484,17.15
14.500,14.03
14.515,11.52
14.531,9.43
14.546,7.45
14.562,5.34
14.578,3.05
14.593,0.97
14.609,-0.39
14.625,-0.62
14.640,0.17
14.656,1.42
14.671,2.27
14.687,2.1
14.703,0.81
14.718,-1.2
14.734,-3.39
14.750,-5.52
14.765,-7.77
14.781,-10.49
14.796,-13.75
14.812,-17.07
14.828,-19.6
14.843,-20.56
14.859,-19.74
14.875,-17.59
14.890,-14.89
14.906,-12.25
14.921,-9.72
14.937,-6.92
14.953,-3.59
14.968,-0.07
14.984,2.59
15.000,3.05
15.015,0.44
15.031,-5.19
15.046,-12.72
15.062,-20.58
15.078,-27.46
15.093,-32.9
15.109,-37.41
15.125,-42.18
15.140,-48.37
15.156,-56.5
15.171,-66.17
15.187,-76.14
15.203,-84.82
15.218,-90.85
15.234,-93.55
15.250,-93.13
15.265,-90.55
15.281,-87.12
15.296,-84.07
15.312,-82.15
15.328,-81.46
15.343,-81.47
15.359,-81.33
15.375,-80.09
15.390,-77.04
15.406,-71.99
15.421,-65.37
15.437,-58.19
15.453,-51.79
15.468,-47.43
15.484,-45.82
15.500,-46.76
15.515,-49.04
15.531,-50.76
15.546,-50.02
15.562,-45.84
15.578,-38.87
15.593,-31.47
15.609,-27.02
15.625,-28.46
15.640,-36.97
15.656,-51.19
15.671,-67.76
15.687,-82.68
15.703,-92.92
15.718,-97.41
15.734,-96.77
15.750,-92.38
15.765,-85.2
15.781,-75.46
15.796,-62.93
15.812,-47.77
15.828,-30.97
15.843,-14.2
15.859,0.94
15.875,13.59
15.890,23.92
15.906,32.76
15.921,40.92
15.937,48.7
15.953,55.76
15.968,61.41
15.984,65.12
16.000,66.79
16.015,66.83
16.031,66.1
16.046,65.57
16.062,66.05
16.078,68.02
16.093,71.53
16.109,76.21
16.125,81.4
16.140,86.26
16.156,90.0
16.171,91.95
16.187,91.72
16.203,89.32
16.218,85.11
16.234,79.77
16.250,74.08
16.265,68.62
16.281,63.54
16.296,58.51
16.312,52.9
16.328,46.06
16.343,37.81
16.359,28.6
16.375,19.46
16.390,11.71
16.406,6.45
16.421,4.03
16.437,3.98
16.453,5.01
16.468,5.46
16.484,3.85
16.500,-0.48
16.515,-7.17
16.531,-14.87
16.546,-21.93
16.562,-27.12
16.578,-30.29
16.593,-32.38
16.609,-34.84
16.625,-38.62
16.640,-43.64
16.656,-48.65
16.671,-51.84
16.687,-51.73
16.703,-47.63
16.718,-39.74
16.734,-28.9
16.750,-16.43
16.765,-4.3
16.781,4.86
16.796,8.3
16.812,4.33
16.828,-6.44
16.843,-20.6
16.859,-32.95
16.875,-38.62
16.890,-35.25
16.906,-23.92
16.921,-8.42
16.937,6.75
16.953,18.46
16.968,25.84
16.984,29.79
17.000,31.66
17.015,32.16
17.031,31.22
17.046,28.56
17.062,24.55
17.078,20.5
17.093,18.13
17.109,18.71
17.125,22.31
17.140,27.66
17.156,32.74
17.171,35.68
17.187,35.51
17.203,32.46
17.218,27.65
17.234,22.49
17.250,17.98
17.265,14.48
17.281,11.61
17.296,8.66
17.312,4.96
17.328,0.2
17.343,-5.46
17.359,-11.57
17.375,-17.66
17.390,-23.45
17.406,-28.9
17.421,-34.1
17.437,-39.09
17.453,-43.71
17.468,-47.66
17.484,-50.63
17.500,-52.52
17.515,-53.55
17.531,-54.28
17.546,-55.43
17.562,-57.49
17.578,-60.51
17.593,-63.87
17.609,-66.37
17.625,-66.55
17.640,-63.17
17.656,-55.84
17.671,-45.31
17.687,-33.4
17.703,-22.46
17.718,-14.54
17.734,-10.63
17.750,-10.36
17.765,-12.12
17.781,-13.93
17.796,-14.36
17.812,-13.21
17.828,-11.58
17.843,-11.21
17.859,-13.5
17.875,-18.59
17.890,-25.15
17.906,-30.77
17.921,-33.0
17.937,-30.14
17.953,-21.62
17.968,-8.1
17.984,8.71
18.000,25.97
18.015,39.57
18.031,44.37
18.046,35.73
18.062,11.83
18.078,-24.34
18.093,-64.94
18.109,-99.81
18.125,-120.71
18.140,-125.0
18.156,-116.58
18.171,-103.53
18.187,-93.6
18.203,-90.29
18.218,-91.79
18.234,-92.99
18.250,-89.24
18.265,-79.25
18.281,-65.52
18.296,-52.24
18.312,-42.57
18.328,-36.8
18.343,-32.66
18.359,-27.19
18.375,-18.8
18.390,-8.13
18.406,2.38
18.421,9.95
18.437,13.02
18.453,12.04
18.468,9.02
18.484,6.4
18.500,5.78
18.515,7.21
18.531,9.38
18.546,10.38
18.562,8.73
18.578,4.06
18.593,-2.79
18.609,-10.32
18.625,-17.11
18.640,-22.51
18.656,-26.84
18.671,-31.14
18.687,-36.58
18.703,-43.91
18.718,-53.08
18.734,-63.27
18.750,-73.11
18.765,-81.11
18.781,-85.94
18.796,-86.78
18.812,-83.41
18.828,-76.21
18.843,-65.97
18.859,-53.66
18.875,-40.17
18.890,-26.25
18.906,-12.5
18.921,0.48
18.937,12.06
18.953,21.61
18.968,28.58
18.984,32.76
19.000,34.28
19.015,33.67
19.031,31.68
19.046,29.17
19.062,26.88
19.078,25.34
19.093,24.74
19.109,24.92
19.125,25.45
19.140,25.74
19.156,25.3
19.171,23.9
19.187,21.62
19.203,18.77
19.218,15.67
19.234,12.46
19.250,9.03
19.265,4.98
19.281,-0.08
19.296,-6.37
19.312,-13.73
19.328,-21.52
19.343,-28.76
19.359,-34.34
19.375,-37.25
19.390,-36.83
19.406,-32.95
19.421,-25.98
19.437,-16.78
19.453,-6.52
19.468,3.43
19.484,11.76
19.500,17.47
19.515,20.05
19.531,19.71
19.546,17.34
19.562,14.26
19.578,11.93
19.593,11.38
19.609,12.98
19.625,16.28
19.640,20.2
19.656,23.55
19.671,25.52
19.687,26.11
19.703,26.11
19.718,26.7
19.734,28.96
19.750,33.32
19.765,39.41
19.781,46.23
19.796,52.56
19.812,57.4
19.828,60.07
19.843,60.28
19.859,58.05
19.875,53.65
19.890,47.72
19.906,41.41
19.921,36.3
19.937,34.03
19.953,35.92
19.968,42.39
19.984,52.77
20.000,65.35
20.015,77.82
20.031,87.9
20.046,93.83
20.062,94.69
20.078,90.61
20.093,82.65
20.109,72.53
20.125,62.22
20.140,53.4
20.156,46.97
20.171,42.92
20.187,40.45
20.203,38.52
20.218,36.29
20.234,33.41
20.250,30.02
20.265,26.41
20.281,22.77
20.296,19.06
20.312,15.14
20.328,10.97
20.343,6.62
20.359,2.24
20.375,-2.23
20.390,-7.22
20.406,-13.3
20.421,-20.9
20.437,-29.98
20.453,-39.87
20.468,-49.4
20.484,-57.2
20.500,-62.06
20.515,-63.24
20.531,-60.63
20.546,-54.7
20.562,-46.36
20.578,-36.63
20.593,-26.42
20.609,-16.34
20.625,-6.72
20.640,2.24
20.656,10.28
20.671,16.98
20.687,21.76
20.703,24.12
20.718,23.86
20.734,21.14
20.750,16.48
20.765,10.55
20.781,3.93
20.796,-2.98
20.812,-10.0
20.828,-17.05
20.843,-24.14
20.859,-31.28
20.875,-38.46
20.890,-45.49
20.906,-51.97
20.921,-57.23
20.937,-60.55
20.953,-61.33
20.968,-59.49
20.984,-55.43
21.000,-49.99
21.015,-44.0
21.031,-37.98
21.046,-31.92
21.062,-25.38
21.078,-17.68
21.093,-8.29
21.109,2.95
21.125,15.78
21.140,29.53
21.156,43.35
21.171,56.44
21.187,68.17
21.203,78.23
21.218,86.54
21.234,93.1
21.250,97.88
21.265,100.85
21.281,101.97
21.296,101.14
21.312,98.21
21.328,92.84
21.343,84.63
21.359,73.42
21.375,59.67
21.390,44.77
21.406,30.82
21.421,20.09
21.437,13.99
21.453,12.47
21.468,13.81
21.484,15.4
21.500,14.8
21.515,10.76
21.531,3.64
21.546,-5.08
21.562,-13.65
21.578,-20.83
21.593,-26.24
21.609,-30.06
21.625,-32.52
21.640,-33.52
21.656,-32.58
21.671,-29.15
21.687,-23.11
21.703,-14.93
21.718,-5.5
21.734,4.23
21.750,13.58
21.765,22.3
21.781,30.55
21.796,38.59
21.812,46.49
21.828,53.98
21.843,60.37
21.859,64.84
21.875,66.75
21.890,66.1
21.906,63.66
21.921,60.85
21.937,59.15
21.953,59.5
21.968,61.86
21.984,65.21
22.000,68.08
22.015,69.16
22.031,67.92
22.046,64.68
22.062,60.45
22.078,56.3
22.093,52.93
22.109,50.43
22.125,48.34
22.140,45.92
22.156,42.46
22.171,37.59
22.187,31.39
22.203,24.44
22.218,17.74
22.234,12.46
22.250,9.7
22.265,10.18
22.281,13.99
22.296,20.58
22.312,28.91
22.328,37.73
22.343,45.98
22.359,52.97
22.375,58.49
22.390,62.71
22.406,65.87
22.421,68.21
22.437,69.83
22.453,70.85
22.468,71.53
22.484,72.31
22.500,73.71
22.515,75.99
22.531,78.95
22.546,81.85
22.562,83.71
22.578,83.83
22.593,82.29
22.609,80.03
22.625,78.36
22.640,78.13
22.656,79.03
22.671,79.44
22.687,76.88
22.703,69.04
22.718,54.78
22.734,34.71
22.750,10.96
22.765,-13.38
22.781,-35.27
22.796,-52.59
22.812,-64.71
22.828,-72.63
22.843,-78.7
22.859,-85.84
22.875,-96.54
22.890,-111.72
22.906,-129.98
22.921,-147.71
22.937,-160.1
22.953,-162.94
22.968,-154.32
22.984,-135.45
23.000,-110.09
23.015,-83.0
23.031,-57.99
23.046,-36.72
23.062,-18.72
23.078,-2.5
23.093,13.02
23.109,27.65
23.125,39.83
23.140,47.14
23.156,47.15
23.171,38.24
23.187,20.19
23.203,-5.36
23.218,-35.0
23.234,-64.03
23.250,-87.85
23.265,-103.34
23.281,-109.94
23.296,-109.5
23.312,-105.05
23.328,-99.15
23.343,-92.71
23.359,-85.13
23.375,-75.54
23.390,-64.19
23.406,-53.02
23.421,-44.75
23.437,-41.06
23.453,-41.06
23.468,-41.04
23.484,-35.99
23.500,-22.01
23.515,1.63
23.531,31.6
23.546,61.64
23.562,84.76
23.578,95.6
23.593,91.7
23.609,73.68
23.625,44.48
23.640,8.73
23.656,-27.96
23.671,-59.68
23.687,-81.58
23.703,-91.52
23.718,-91.44
23.734,-87.1
23.750,-85.75
23.765,-92.81
23.781,-109.1
23.796,-130.46
23.812,-150.06
23.828,-162.03
23.843,-164.4
23.859,-159.6
23.875,-152.39
23.890,-146.91
23.906,-144.45
23.921,-143.49
23.937,-141.41
23.953,-136.4
23.968,-128.65
23.984,-119.73
24.000,-111.34
24.015,-103.87
24.031,-96.17
24.046,-86.31
24.062,-72.78
24.078,-55.67
24.093,-36.75
24.109,-18.91
24.125,-4.89
24.140,3.89
24.156,7.82
24.171,8.85
24.187,9.55
24.203,11.94
24.218,16.79
24.234,23.36
24.250,30.06
24.265,35.25
24.281,38.04
24.296,38.62
24.312,37.96
24.328,37.28
24.343,37.33
24.359,37.98
24.375,38.37
24.390,37.26
24.406,33.69
24.421,27.36
24.437,18.84
24.453,9.27
24.468,-0.05
24.484,-8.06
24.500,-14.11
24.515,-17.95
24.531,-19.57
24.546,-19.05
24.562,-16.51
24.578,-12.19
24.593,-6.49
24.609,-0.02
24.625,6.59
24.640,12.86
24.656,18.58
24.671,23.76
24.687,28.55
24.703,32.94
24.718,36.76
24.734,39.62
24.750,41.19
24.765,41.39
24.781,40.49
24.796,39.04
24.812,37.68
24.828,36.83
24.843,36.53
24.859,36.46
24.875,36.09
24.890,34.97
24.906,32.84
24.921,29.73
24.937,25.86
24.953,21.57
24.968,17.15
24.984,12.8
25.000,8.59
25.015,4.42
25.031,0.1
25.046,-4.68
25.062,-10.13
25.078,-16.29
25.093,-22.87
25.109,-29.19
25.125,-34.39
25.140,-37.61
25.156,-38.28
25.171,-36.23
25.187,-31.7
25.203,-25.23
25.218,-17.44
25.234,-8.99
25.250,-0.52
25.265,7.32
25.281,13.87
25.296,18.55
25.312,21.0
25.328,21.25
25.343,19.7
25.359,17.08
25.375,14.22
25.390,11.72
25.406,9.86
25.421,8.57
25.437,7.48
25.453,6.2
25.468,4.43
25.484,2.12
25.500,-0.56
25.515,-3.28
25.531,-5.59
25.546,-7.09
25.562,-7.52
25.578,-6.95
25.593,-5.85
25.609,-5.03
25.625,-5.46
25.640,-7.9
25.656,-12.61
25.671,-19.17
25.687,-26.5
25.703,-33.16
25.718,-37.68
25.734,-39.03
25.750,-36.83
25.765,-31.44
25.781,-23.77
25.796,-15.02
25.812,-6.31
25.828,1.58
25.843,8.24
25.859,13.58
25.875,17.61
25.890,20.4
25.906,22.05
25.921,22.79
25.937,23.01
25.953,23.23
25.968,23.94
25.984,25.47
26.000,27.86
26.015,30.88
26.031,34.15
26.046,37.21
26.062,39.66
26.078,41.27
26.093,41.94
26.109,41.83
26.125,41.18
26.140,40.31
26.156,39.43
26.171,38.57
26.187,37.43
26.203,35.48
26.218,32.16
26.234,26.97
26.250,19.78
26.265,10.93
26.281,1.23
26.296,-8.18
26.312,-16.03
26.328,-21.2
26.343,-22.97
26.359,-21.23
26.375,-16.43
26.390,-9.57
26.406,-1.95
26.421,5.23
26.437,11.06
26.453,15.16
26.468,17.6
26.484,18.77
26.500,19.04
26.515,18.59
26.531,17.42
26.546,15.46
26.562,12.77
26.578,9.63
26.593,6.44
26.609,3.56
26.625,1.12
26.640,-0.96
26.656,-2.91
26.671,-4.86
26.687,-6.72
26.703,-8.26
26.718,-9.22
26.734,-9.53
26.750,-9.42
26.765,-9.29
26.781,-9.6
26.796,-10.68
26.812,-12.77
26.828,-16.02
26.843,-20.52
26.859,-26.22
26.875,-32.67
26.890,-38.98
26.906,-43.83
26.921,-45.89
26.937,-44.23
26.953,-38.75
26.968,-30.19
26.984,-19.87
27.000,-9.15
27.015,0.92
27.031,9.71
27.046,16.92
27.062,22.28
27.078,25.5
27.093,26.37
27.109,25.01
27.125,21.97
27.140,18.24
27.156,14.87
27.171,12.59
27.187,11.54
27.203,11.37
27.218,11.43
27.234,11.27
27.250,10.74
27.265,10.08
27.281,9.63
27.296,9.61
27.312,10.09
27.328,11.02
27.343,12.42
27.359,14.42
27.375,17.12
27.390,20.43
27.406,23.92
27.421,26.96
27.437,29.01
27.453,29.93
27.468,30.05
27.484,29.97
27.500,30.22
27.515,30.89
27.531,31.67
27.546,32.0
27.562,31.57
27.578,30.48
27.593,29.27
27.609,28.64
27.625,29.05
27.640,30.46
27.656,32.35
27.671,33.94
27.687,34.48
27.703,33.51
27.718,30.9
27.734,26.86
27.750,21.75
27.765,15.94
27.781,9.68
27.796,3.15
27.812,-3.55
27.828,-10.28
27.843,-16.86
27.859,-23.04
27.875,-28.64
27.890,-33.56
27.906,-37.92
27.921,-41.99
27.937,-46.17
27.953,-50.83
27.968,-56.19
27.984,-62.27
28.000,-68.77
28.015,-75.16
28.031,-80.66
28.046,-84.39
28.062,-85.5
28.078,-83.3
28.093,-77.49
28.109,-68.25
28.125,-56.28
28.140,-42.61
28.156,-28.44
28.171,-14.8
28.187,-2.43
28.203,8.34
28.218,17.46
28.234,25.04
28.250,31.18
28.265,36.0
28.281,39.63
28.296,42.26
28.312,44.14
28.328,45.53
28.343,46.57
28.359,47.26
28.375,47.47
28.390,47.04
28.406,45.88
28.421,43.99
28.437,41.44
28.453,38.35
28.468,34.77
28.484,30.74
28.500,26.25
28.515,21.26
28.531,15.74
28.546,9.69
28.562,3.15
28.578,-3.74
28.593,-10.78
28.609,-17.61
28.625,-23.77
28.640,-28.65
28.656,-31.54
28.671,-31.73
28.687,-28.66
28.703,-22.19
28.718,-12.64
28.734,-0.77
28.750,12.43
28.765,26.11
28.781,39.72
28.796,53.11
28.812,66.21
28.828,78.82
28.843,90.3
28.859,99.73
28.875,106.12
28.890,108.93
28.906,108.29
28.921,104.96
28.937,100.05
28.953,94.54
28.968,88.98
28.984,83.49
29.000,77.98
29.015,72.44
29.031,67.05
29.046,62.04
29.062,57.57
29.078,53.69
29.093,50.5
29.109,48.35
29.125,47.82
29.140,49.38
29.156,52.83
29.171,56.92
29.187,59.46
29.203,58.13
29.218,51.45
29.234,39.59
29.250,24.55
29.265,9.51
29.281,-2.3
29.296,-8.63
29.312,-8.68
29.328,-2.96
29.343,7.29
29.359,20.59
29.375,35.44
29.390,50.28
29.406,63.27
29.421,72.49
29.437,76.45
29.453,74.65
29.468,67.79
29.484,57.41
29.500,45.05
29.515,31.61
29.531,17.39
29.546,2.84
29.562,-10.58
29.578,-20.23
29.593,-23.19
29.609,-17.65
29.625,-4.19
29.640,14.22
29.656,33.31
29.671,49.19
29.687,59.57
29.703,63.85
29.718,62.43
29.734,55.69
29.750,43.71
29.765,26.76
29.781,5.98
29.796,-16.08
29.812,-36.08
29.828,-51.11
29.843,-59.96
29.859,-63.71
29.875,-65.12
29.890,-67.12
29.906,-71.34
29.921,-77.39
29.937,-83.26
29.953,-86.74
29.968,-86.82
29.984,-84.2
30.000,-80.6
30.015,-77.3
30.031,-73.82
30.046,-67.94
30.062,-56.97
30.078,-39.51
30.093,-16.75
30.109,7.62
30.125,28.7
30.140,42.2
30.156,45.75
30.171,39.39
30.187,25.1
30.203,5.89
30.218,-15.03
30.234,-34.69
30.250,-50.71
30.265,-61.45
30.281,-65.92
30.296,-64.14
30.312,-56.95
30.328,-46.01
30.343,-33.58
30.359,-22.36
30.375,-14.96
30.390,-13.15
30.406,-17.18
30.421,-25.73
30.437,-36.23
30.453,-45.68
30.468,-51.34
30.484,-51.24
30.500,-44.28
30.515,-30.46
30.531,-11.11
30.546,10.93
30.562,31.63
30.578,46.69
30.593,53.06
30.609,50.25
30.625,40.75
30.640,29.19
30.656,20.55
30.671,18.21
30.687,22.94
30.703,33.0
30.718,45.24
30.734,56.42
30.750,64.0
30.765,66.22
30.781,62.13
30.796,51.4
30.812,34.65
30.828,13.85
30.843,-7.56
30.859,-25.39
30.875,-36.07
30.890,-37.96
30.906,-31.99
30.921,-21.49
30.937,-11.13
30.953,-5.65
30.968,-8.38
30.984,-20.36
31.000,-39.83
31.015,-62.65
31.031,-83.47
31.046,-97.48
31.062,-102.02
31.078,-97.35
31.093,-86.17
31.109,-72.1
31.125,-58.08
31.140,-45.64
31.156,-35.15
31.171,-26.94
31.187,-21.93
31.203,-21.29
31.218,-25.4
31.234,-32.8
31.250,-40.27
31.265,-44.04
31.281,-41.59
31.296,-32.63
31.312,-19.06
31.328,-3.79
31.343,10.63
31.359,22.64
31.375,31.45
31.390,36.36
31.406,36.29
31.421,30.22
31.437,18.26
31.453,2.38
31.468,-13.64
31.484,-25.34
31.500,-29.39
31.515,-24.98
31.531,-14.24
31.546,-1.36
31.562,8.97
31.578,13.08
31.593,9.12
31.609,-2.81
31.625,-21.03
31.640,-42.88
31.656,-65.17
31.671,-84.54
31.687,-97.94
31.703,-102.96
31.718,-98.28
31.734,-83.91
31.750,-61.25
31.765,-32.91
31.781,-2.45
31.796,26.24
31.812,49.64
31.828,65.31
31.843,72.34
31.859,71.41
31.875,64.35
31.890,53.41
31.906,40.68
31.921,27.8
31.937,16.13
31.953,7.1
31.968,2.11
31.984,2.2
32.000,7.39
32.015,16.34
32.031,26.38
32.046,34.4
32.062,37.81
32.078,35.32
32.093,27.22
32.109,15.03
32.125,1.08
32.140,-12.24
32.156,-23.03
32.171,-30.2
32.187,-33.67
32.203,-34.12
32.218,-32.54
32.234,-29.77
32.250,-26.04
32.265,-21.05
32.281,-14.26
32.296,-5.52
32.312,4.59
32.328,14.74
32.343,23.43
32.359,29.63
32.375,33.34
32.390,35.59
32.406,38.0
32.421,42.06
32.437,48.43
32.453,56.56
32.468,64.59
32.484,69.82
32.500,69.47
32.515,61.71
32.531,46.37
32.546,25.26
32.562,1.67
32.578,-20.78
32.593,-39.4
32.609,-53.32
32.625,-63.54
32.640,-72.03
32.656,-80.34
32.671,-88.82
32.687,-96.39
32.703,-101.39
32.718,-102.82
32.734,-101.36
32.750,-99.58
32.765,-100.91
32.781,-107.89
32.796,-120.52
32.812,-135.78
32.828,-148.58
32.843,-153.82
32.859,-148.6
32.875,-133.34
32.890,-111.39
32.906,-87.23
32.921,-64.55
32.937,-45.03
32.953,-28.72
32.968,-15.5
32.984,-6.33
33.000,-3.65
33.015,-9.99
33.031,-26.06
33.046,-49.26
33.062,-74.1
33.078,-94.38
33.093,-105.99
33.109,-108.69
33.125,-105.97
33.140,-103.01
33.156,-103.86
33.171,-109.54
33.187,-118.03
33.203,-125.83
33.218,-130.03
33.234,-129.72
33.250,-126.07
33.265,-121.54
33.281,-118.69
33.296,-119.22
33.312,-123.63
33.328,-131.07
33.343,-139.49
33.359,-145.87
33.375,-146.9
33.390,-140.01
33.406,-124.39
33.421,-101.45
33.437,-74.28
33.453,-46.52
33.468,-21.12
33.484,0.38
33.500,17.75
33.515,31.4
33.531,41.62
33.546,48.43
33.562,51.89
33.578,52.79
33.593,53.01
33.609,55.24
33.625,61.94
33.640,74.29
33.656,91.28
33.671,110.08
33.687,126.82
33.703,138.03
33.718,141.77
33.734,138.17
33.750,129.27
33.765,118.28
33.781,108.46
33.796,101.98
33.812,99.23
33.828,98.51
33.843,96.54
33.859,89.77
33.875,75.88
33.890,55.16
33.906,30.81
33.921,7.88
33.937,-8.63
33.953,-15.9
33.968,-14.4
33.984,-7.66
34.000,-0.71
34.015,1.99
34.031,-1.88
34.046,-12.04
34.062,-25.96
34.078,-39.85
34.093,-49.73
34.109,-52.37
34.125,-45.9
34.140,-30.39
34.156,-7.93
34.171,17.74
34.187,42.18
34.203,61.5
34.218,73.57
34.234,78.4
34.250,77.81
34.265,74.36
34.281,70.26
34.296,66.54
34.312,62.77
34.328,57.22
34.343,47.56
34.359,31.76
34.375,9.06
34.390,-19.35
34.406,-50.53
34.421,-80.65
34.437,-106.37
34.453,-125.78
34.468,-138.62
34.484,-145.67
34.500,-147.73
34.515,-144.84
34.531,-136.27
34.546,-121.27
34.562,-99.96
34.578,-73.92
34.593,-45.95
34.609,-19.16
34.625,3.96
34.640,22.15
34.656,35.38
34.671,44.47
34.687,50.63
34.703,55.11
34.718,59.07
34.734,63.45
34.750,68.86
34.765,75.34
34.781,82.3
34.796,88.6
34.812,92.9
34.828,94.21
34.843,92.43
34.859,88.4
34.875,83.7
34.890,80.01
34.906,78.52
34.921,79.56
34.937,82.65
34.953,86.77
34.968,90.76
34.984,93.73
35.000,95.21
35.015,95.33
35.031,94.63
35.046,93.91
35.062,93.89
35.078,94.94
35.093,96.97
35.109,99.49
35.125,101.84
35.140,103.57
35.156,104.63
35.171,105.46
35.187,106.7
35.203,108.67
35.218,110.94
35.234,112.12
35.250,110.16
35.265,103.03
35.281,89.57
35.296,70.05
35.312,46.29
35.328,21.08
35.343,-2.59
35.359,-22.31
35.375,-36.66
35.390,-45.06
35.406,-47.52
35.421,-44.36
35.437,-36.19
35.453,-24.07
35.468,-9.54
35.484,5.53
35.500,19.32
35.515,30.49
35.531,38.32
35.546,42.6
35.562,43.25
35.578,39.95
35.593,32.13
35.609,19.1
35.625,0.42
35.640,-23.72
35.656,-52.43
35.671,-84.07
35.687,-116.45
35.703,-147.03
35.718,-173.01
35.734,-191.45
35.750,-199.66
35.765,-195.81
35.781,-179.76
35.796,-153.64
35.812,-121.61
35.828,-88.86
35.843,-60.12
35.859,-38.28
35.875,-23.62
35.890,-14.09
35.906,-6.35
35.921,2.53
35.937,13.69
35.953,25.83
35.968,36.03
35.984,41.39
36.000,40.78
36.015,35.66
36.031,29.45
36.046,25.78
36.062,26.59
36.078,31.2
36.093,36.9
36.109,40.77
36.125,41.49
36.140,40.0
36.156,38.65
36.171,39.52
36.187,43.09
36.203,48.08
36.218,52.62
36.234,55.66
36.250,57.83
36.265,61.18
36.281,68.14
36.296,80.17
36.312,96.87
36.328,115.86
36.343,133.48
36.359,145.86
36.375,149.97
36.390,144.32
36.406,129.2
36.421,106.27
36.437,77.95
36.453,46.63
36.468,14.14
36.484,-18.41
36.500,-50.35
36.515,-80.87
36.531,-108.53
36.546,-131.18
36.562,-146.43
36.578,-152.46
36.593,-148.63
36.609,-135.81
36.625,-116.1
36.640,-92.44
36.656,-68.18
36.671,-46.99
36.687,-32.41
36.703,-27.04
36.718,-31.46
36.734,-43.34
36.750,-57.78
36.765,-69.1
36.781,-73.1
36.796,-68.75
36.812,-58.18
36.828,-45.06
36.843,-32.27
36.859,-20.6
36.875,-9.02
36.890,3.73
36.906,17.56
36.921,30.63
36.937,40.39
36.953,45.25
36.968,45.66
36.984,43.92
37.000,42.83
37.015,44.23
37.031,48.35
37.046,54.07
37.062,59.9
37.078,64.89
37.093,68.9
37.109,72.32
37.125,75.41
37.140,77.8
37.156,78.41
37.171,75.72
37.187,68.31
37.203,55.43
37.218,37.23
37.234,14.94
37.250,-9.37
37.265,-33.09
37.281,-53.71
37.296,-69.35
37.312,-79.22
37.328,-83.61
37.343,-83.56
37.359,-80.18
37.375,-74.27
37.390,-66.13
37.406,-55.91
37.421,-43.98
37.437,-31.26
37.453,-18.99
37.468,-8.34
37.484,0.12
37.500,6.48
37.515,11.27
37.531,15.05
37.546,17.98
37.562,19.75
37.578,19.83
37.593,17.93
37.609,14.21
37.625,9.33
37.640,4.19
37.656,-0.44
37.671,-4.14
37.687,-6.93
37.703,-9.05
37.718,-10.79
37.734,-12.25
37.750,-13.46
37.765,-14.37
37.781,-15.11
37.796,-15.88
37.812,-16.98
37.828,-18.64
37.843,-20.87
37.859,-23.5
37.875,-26.04
37.890,-27.86
37.906,-28.33
37.921,-26.95
37.937,-23.5
37.953,-18.08
37.968,-11.04
37.984,-2.87
38.000,5.94
38.015,14.91
38.031,23.57
38.046,31.43
38.062,38.01
38.078,42.87
38.093,45.82
38.109,46.88
38.125,46.36
38.140,44.67
38.156,42.31
38.171,39.65
38.187,37.0
38.203,34.57
38.218,32.45
38.234,30.7
38.250,29.24
38.265,27.94
38.281,26.57
38.296,24.89
38.312,22.7
38.328,19.87
38.343,16.42
38.359,12.46
38.375,8.21
38.390,3.81
38.406,-0.71
38.421,-5.43
38.437,-10.32
38.453,-15.06
38.468,-18.98
38.484,-21.15
38.500,-20.71
38.515,-17.26
38.531,-11.02
38.546,-2.87
38.562,5.99
38.578,14.41
38.593,21.58
38.609,27.15
38.625,31.05
38.640,33.39
38.656,34.21
38.671,33.57
38.687,31.54
38.703,28.37
38.718,24.47
38.734,20.33
38.750,16.42
38.765,12.98
38.781,10.04
38.796,7.45
38.812,4.99
38.828,2.55
38.843,0.11
38.859,-2.32
38.875,-4.78
38.890,-7.41
38.906,-10.37
38.921,-13.75
38.937,-17.43
38.953,-21.16
38.968,-24.6
38.984,-27.52
39.000,-29.97
39.015,-32.27
39.031,-34.87
39.046,-38.04
39.062,-41.67
39.078,-45.19
39.093,-47.72
39.109,-48.34
39.125,-46.4
39.140,-41.76
39.156,-34.71
39.171,-25.93
39.187,-16.21
39.203,-6.3
39.218,3.2
39.234,11.78
39.250,18.99
39.265,24.47
39.281,27.96
39.296,29.54
39.312,29.66
39.328,29.09
39.343,28.69
39.359,29.11
39.375,30.58
39.390,32.87
39.406,35.46
39.421,37.82
39.437,39.68
39.453,41.1
39.468,42.38
39.484,43.85
39.500,45.72
39.515,48.03
39.531,50.62
39.546,53.26
39.562,55.63
39.578,57.4
39.593,58.26
39.609,58.14
39.625,57.24
39.640,56.14
39.656,55.56
39.671,56.09
39.687,57.98
39.703,60.98
39.718,64.54
39.734,68.04
39.750,71.02
39.765,73.21
39.781,74.47
39.796,74.7
39.812,73.81
39.828,71.75
39.843,68.63
39.859,64.62
39.875,59.96
39.890,54.78
39.906,49.13
39.921,42.96
39.937,36.31
39.953,29.3
39.968,22.1
39.984,14.82
40.000,7.5
40.015,0.08
40.031,-7.38
40.046,-14.68
40.062,-21.48
40.078,-27.41
40.093,-32.27
40.109,-36.09
40.125,-39.07
40.140,-41.55
40.156,-43.84
40.171,-46.11
40.187,-48.42
40.203,-50.63
40.218,-52.47
40.234,-53.5
40.250,-53.26
40.265,-51.38
40.281,-47.71
40.296,-42.45
40.312,-36.0
40.328,-28.88
40.343,-21.52
40.359,-14.21
40.375,-7.09
40.390,-0.26
40.406,6.12
40.421,11.86
40.437,16.8
40.453,20.87
40.468,24.09
40.484,26.61
40.500,28.53
40.515,29.91
40.531,30.71
40.546,30.82
40.562,30.13
40.578,28.66
40.593,26.54
40.609,24.11
40.625,21.79
40.640,19.95
40.656,18.76
40.671,18.07
40.687,17.55
40.703,16.77
40.718,15.37
40.734,13.21
40.750,10.35
40.765,7.01
40.781,3.51
40.796,0.18
40.812,-2.75
40.828,-5.13
40.843,-6.93
40.859,-8.28
40.875,-9.34
40.890,-10.23
40.906,-10.98
40.921,-11.48
40.937,-11.62
40.953,-11.31
40.968,-10.57
40.984,-9.47
41.000,-8.13
41.015,-6.67
41.031,-5.24
41.046,-4.05
41.062,-3.24
41.078,-2.89
41.093,-2.92
41.109,-3.16
41.125,-3.43
41.140,-3.68
41.156,-3.91
41.171,-4.24
41.187,-4.74
41.203,-5.44
41.218,-6.29
41.234,-7.26
41.250,-8.29
41.265,-9.33
41.281,-10.27
41.296,-11.02
41.312,-11.49
41.328,-11.69
41.343,-11.74
41.359,-11.84
41.375,-12.23
41.390,-12.99
41.406,-14.03
41.421,-15.02
41.437,-15.54
41.453,-15.17
41.468,-13.64
41.484,-11.0
41.500,-7.61
41.515,-4.1
41.531,-1.17
41.546,0.59
41.562,0.9
41.578,-0.16
41.593,-2.21
41.609,-4.66
41.625,-6.95
41.640,-8.68
41.656,-9.67
41.671,-10.01
41.687,-9.97
41.703,-9.87
41.718,-9.93
41.734,-10.19
41.750,-10.47
41.765,-10.5
41.781,-9.99
41.796,-8.85
41.812,-7.14
41.828,-5.11
41.843,-3.05
41.859,-1.2
41.875,0.29
41.890,1.36
41.906,2.05
41.921,2.43
41.937,2.59
41.953,2.52
41.968,2.18
41.984,1.39
42.000,-0.03
42.015,-2.21
42.031,-5.16
42.046,-8.68
42.062,-12.39
42.078,-15.83
42.093,-18.58
42.109,-20.42
42.125,-21.38
42.140,-21.71
42.156,-21.89
42.171,-22.4
42.187,-23.58
42.203,-25.6
42.218,-28.34
42.234,-31.47
42.250,-34.62
42.265,-37.45
42.281,-39.82
42.296,-41.66
42.312,-43.01
42.328,-43.88
42.343,-44.32
42.359,-44.41
42.375,-44.33
42.390,-44.42
42.406,-45.02
42.421,-46.41
42.437,-48.73
42.453,-51.86
42.468,-55.6
42.484,-59.69
42.500,-63.92
42.515,-68.22
42.531,-72.44
42.546,-76.35
42.562,-79.51
42.578,-81.36
42.593,-81.36
42.609,-79.04
42.625,-74.13
42.640,-66.52
42.656,-56.26
42.671,-43.6
42.687,-29.1
42.703,-13.65
42.718,1.53
42.734,15.1
42.750,25.85
42.765,32.89
42.781,35.91
42.796,35.13
42.812,31.35
42.828,25.7
42.843,19.53
42.859,14.06
42.875,10.21
42.890,8.46
42.906,8.82
42.921,10.93
42.937,14.18
42.953,17.88
42.968,21.41
42.984,24.32
43.000,26.39
43.015,27.63
43.031,28.26
43.046,28.61
43.062,29.05
43.078,29.89
43.093,31.26
43.109,33.15
43.125,35.43
43.140,37.93
43.156,40.52
43.171,43.2
43.187,46.05
43.203,49.12
43.218,52.18
43.234,54.51
43.250,54.84
43.265,51.68
43.281,43.81
43.296,30.77
43.312,13.31
43.328,-6.79
43.343,-27.12
43.359,-45.3
43.375,-59.69
43.390,-69.62
43.406,-75.41
43.421,-77.96
43.437,-78.41
43.453,-77.8
43.468,-76.9
43.484,-76.23
43.500,-76.07
43.515,-76.5
43.531,-77.46
43.546,-78.8
43.562,-80.42
43.578,-82.22
43.593,-84.24
43.609,-86.45
43.625,-88.75
43.640,-90.82
43.656,-92.3
43.671,-92.82
43.687,-92.33
43.703,-91.24
43.718,-90.45
43.734,-91.14
43.750,-94.41
43.765,-100.78
43.781,-109.97
43.796,-120.92
43.812,-131.96
43.828,-141.28
43.843,-147.36
43.859,-149.16
43.875,-146.34
43.890,-139.1
43.906,-128.21
43.921,-114.69
43.937,-99.67
43.953,-84.14
43.968,-68.84
43.984,-54.17
44.000,-40.32
44.015,-27.43
44.031,-15.65
44.046,-5.23
44.062,3.64
44.078,10.92
44.093,16.71
44.109,21.18
44.125,24.41
44.140,26.35
44.156,26.92
44.171,26.12
44.187,24.22
44.203,21.76
44.218,19.34
44.234,17.46
44.250,16.25
44.265,15.51
44.281,14.87
44.296,14.03
44.312,12.97
44.328,11.9
44.343,11.13
44.359,10.75
44.375,10.51
44.390,9.75
44.406,7.7
44.421,3.83
44.437,-1.77
44.453,-8.28
44.468,-14.26
44.484,-18.02
44.500,-18.21
44.515,-14.25
44.531,-6.51
44.546,3.85
44.562,15.35
44.578,26.67
44.593,37.0
44.609,46.04
44.625,53.82
44.640,60.41
44.656,65.71
44.671,69.47
44.687,71.44
44.703,71.61
44.718,70.28
44.734,68.05
44.750,65.58
44.765,63.42
44.781,61.77
44.796,60.54
44.812,59.39
44.828,57.98
44.843,56.13
44.859,53.83
44.875,51.29
44.890,48.73
44.906,46.25
44.921,43.78
44.937,41.1
44.953,37.97
44.968,34.16
44.984,29.64
45.000,24.45
45.015,18.72
45.031,12.54
45.046,5.98
45.062,-0.78
45.078,-7.33
45.093,-12.9
45.109,-16.51
45.125,-17.18
45.140,-14.34
45.156,-8.04
45.171,0.96
45.187,11.45
45.203,22.15
45.218,32.01
45.234,40.34
45.250,46.83
45.265,51.37
45.281,53.94
45.296,54.59
45.312,53.54
45.328,51.15
45.343,47.96
45.359,44.51
45.375,41.23
45.390,38.36
45.406,35.91
45.421,33.74
45.437,31.71
45.453,29.68
45.468,27.57
45.484,25.28
45.500,22.73
45.515,19.87
45.531,16.7
45.546,13.37
45.562,10.09
45.578,7.04
45.593,4.27
45.609,1.58
45.625,-1.44
45.640,-5.28
45.656,-10.31
45.671,-16.6
45.687,-23.71
45.703,-30.77
45.718,-36.54
45.734,-39.78
45.750,-39.53
45.765,-35.36
45.781,-27.56
45.796,-16.98
45.812,-4.82
45.828,7.64
45.843,19.38
45.859,29.67
45.875,38.14
45.890,44.67
45.906,49.37
45.921,52.39
45.937,53.94
45.953,54.29
45.968,53.73
45.984,52.64
46.000,51.37
46.015,50.21
46.031,49.29
46.046,48.56
46.062,47.92
46.078,47.18
46.093,46.29
46.109,45.22
46.125,43.9
46.140,42.21
46.156,39.94
46.171,36.85
46.187,32.9
46.203,28.27
46.218,23.27
46.234,18.28
46.250,13.51
46.265,8.88
46.281,4.08
46.296,-1.31
46.312,-7.62
46.328,-14.77
46.343,-22.16
46.359,-28.65
46.375,-32.89
46.390,-33.75
46.406,-30.73
46.421,-24.19
46.437,-15.16
46.453,-4.95
46.468,5.26
46.484,14.7
46.500,22.88
46.515,29.5
46.531,34.27
46.546,36.93
46.562,37.53
46.578,36.42
46.593,34.34
46.609,32.1
46.625,30.27
46.640,29.0
46.656,28.11
46.671,27.26
46.687,26.16
46.703,24.77
46.718,23.16
46.734,21.44
46.750,19.65
46.765,17.73
46.781,15.62
46.796,13.27
46.812,10.67
46.828,7.85
46.843,4.87
46.859,1.75
46.875,-1.5
46.890,-4.9
46.906,-8.59
46.921,-12.78
46.937,-17.65
46.953,-23.24
46.968,-29.15
46.984,-34.55
47.000,-38.29
47.015,-39.2
47.031,-36.59
47.046,-30.51
47.062,-21.72
47.078,-11.47
47.093,-1.12
47.109,8.26
47.125,16.06
47.140,22.07
47.156,26.3
47.171,28.84
47.187,29.74
47.203,29.14
47.218,27.34
47.234,24.85
47.250,22.32
47.265,20.31
47.281,19.07
47.296,18.47
47.312,18.12
47.328,17.59
47.343,16.63
47.359,15.23
47.375,13.57
47.390,11.76
47.406,9.77
47.421,7.38
47.437,4.4
47.453,0.8
47.468,-3.17
47.484,-7.13
47.500,-10.8
47.515,-14.21
47.531,-17.73
47.546,-21.86
47.562,-26.88
47.578,-32.51
47.593,-37.88
47.609,-41.71
47.625,-42.81
47.640,-40.54
47.656,-35.06
47.671,-27.19
47.687,-18.1
47.703,-8.87
47.718,-0.19
47.734,7.61
47.750,14.38
47.765,19.9
47.781,23.87
47.796,26.04
47.812,26.38
47.828,25.2
47.843,23.13
47.859,20.83
47.875,18.85
47.890,17.36
47.906,16.28
47.921,15.3
47.937,14.07
47.953,12.34
47.968,10.02
47.984,7.18
48.000,3.98
48.015,0.67
48.031,-2.53
48.046,-5.45
48.062,-8.05
48.078,-10.43
48.093,-12.84
48.109,-15.58
48.125,-18.94
48.140,-23.09
48.156,-28.0
48.171,-33.28
48.187,-38.17
48.203,-41.74
48.218,-43.04
48.234,-41.46
48.250,-36.94
48.265,-30.04
48.281,-21.77
48.296,-13.25
48.312,-5.36
48.328,1.49
48.343,7.33
48.359,12.44
48.375,17.01
48.390,20.92
48.406,23.81
48.421,25.28
48.437,25.16
48.453,23.72
48.468,21.49
48.484,19.07
48.500,16.86
48.515,14.92
48.531,13.04
48.546,10.94
48.562,8.49
48.578,5.74
48.593,2.95
48.609,0.37
48.625,-1.83
48.640,-3.67
48.656,-5.39
48.671,-7.35
48.687,-9.97
48.703,-13.56
48.718,-18.26
48.734,-23.89
48.750,-30.01
48.765,-35.97
48.781,-40.97
48.796,-44.17
48.812,-44.81
48.828,-42.35
48.843,-36.64
48.859,-28.07
48.875,-17.55
48.890,-6.31
48.906,4.4
48.921,13.62
48.937,20.83
48.953,25.91
48.968,28.97
48.984,30.17
49.000,29.63
49.015,27.53
49.031,24.21
49.046,20.23
49.062,16.29
49.078,12.95
49.093,10.44
49.109,8.49
49.125,6.49
49.140,3.75
49.156,-0.13
49.171,-5.09
49.187,-10.59
49.203,-15.84
49.218,-20.04
49.234,-22.72
49.250,-23.93
49.265,-24.14
49.281,-24.14
49.296,-24.74
49.312,-26.5
49.328,-29.57
49.343,-33.63
49.359,-37.93
49.375,-41.58
49.390,-43.69
49.406,-43.7
49.421,-41.46
49.437,-37.32
49.453,-31.97
49.468,-26.22
49.484,-20.61
49.500,-15.3
49.515,-9.97
49.531,-4.14
49.546,2.45
49.562,9.5
49.578,16.22
49.593,21.57
49.609,24.79
49.625,25.7
49.640,24.75
49.656,22.74
49.671,20.36
49.687,17.9
49.703,15.22
49.718,12.01
49.734,8.1
49.750,3.7
49.765,-0.71
49.781,-4.59
49.796,-7.64
49.812,-10.02
49.828,-12.24
49.843,-14.99
49.859,-18.76
49.875,-23.66
49.890,-29.41
49.906,-35.47
49.921,-41.22
49.937,-46.03
49.953,-49.28
49.968,-50.28
49.984,-48.38
50.000,-43.15
50.015,-34.63
50.031,-23.49
50.046,-10.9
50.062,1.77
50.078,13.37
50.093,23.24
50.109,31.28
50.125,37.68
50.140,42.72
50.156,46.59
50.171,49.36
50.187,51.11
50.203,52.01
50.218,52.32
50.234,52.27
50.250,51.95
50.265,51.28
50.281,50.13
50.296,48.39
50.312,46.15
50.328,43.65
50.343,41.21
50.359,39.01
50.375,37.08
50.390,35.2
50.406,33.1
50.421,30.45
50.437,27.11
50.453,23.08
50.468,18.58
50.484,13.93
50.500,9.59
50.515,6.03
50.531,3.72
50.546,3.13
50.562,4.72
50.578,8.82
50.593,15.51
50.609,24.34
50.625,34.25
50.640,43.66
50.656,50.72
50.671,53.76
50.687,51.61
50.703,43.91
50.718,31.25
50.734,15.23
50.750,-1.63
50.765,-16.15
50.781,-25.22
50.796,-26.7
50.812,-20.41
50.828,-8.5
50.843,5.1
50.859,15.89
50.875,20.45
50.890,17.53
50.906,8.18
50.921,-5.01
50.937,-19.22
50.953,-32.37
50.968,-43.54
50.984,-52.67
51.000,-59.99
51.015,-65.56
51.031,-69.28
51.046,-71.05
51.062,-71.01
51.078,-69.59
51.093,-67.2
51.109,-63.97
51.125,-59.66
51.140,-53.76
51.156,-45.92
51.171,-36.24
51.187,-25.4
51.203,-14.46
51.218,-4.54
51.234,3.47
51.250,9.18
51.265,12.63
51.281,14.14
51.296,14.21
51.312,13.35
51.328,12.07
51.343,10.81
51.359,9.98
51.375,9.86
51.390,10.55
51.406,11.9
51.421,13.58
51.437,15.19
51.453,16.35
51.468,16.82
51.484,16.53
51.500,15.45
51.515,13.6
51.531,10.89
51.546,7.23
51.562,2.59
51.578,-2.9
51.593,-8.92
51.609,-14.93
51.625,-20.28
51.640,-24.31
51.656,-26.39
51.671,-26.06
51.687,-23.15
51.703,-17.86
51.718,-10.74
51.734,-2.6
51.750,5.65
51.765,13.27
51.781,19.72
51.796,24.77
51.812,28.35
51.828,30.56
51.843,31.61
51.859,31.85
51.875,31.76
51.890,31.89
51.906,32.72
51.921,34.44
51.937,36.87
51.953,39.51
51.968,41.84
51.984,43.54
52.000,44.75
52.015,46.0
52.031,47.88
52.046,50.72
52.062,54.3
52.078,57.84
52.093,60.15
52.109,60.1
52.125,56.87
52.140,50.22
52.156,40.62
52.171,29.17
52.187,17.5
52.203,7.3
52.218,-0.04
52.234,-3.84
52.250,-4.3
52.265,-2.35
52.281,0.73
52.296,3.74
52.312,5.91
52.328,7.02
52.343,7.32
52.359,7.37
52.375,7.76
52.390,8.84
52.406,10.51
52.421,12.13
52.437,12.63
52.453,10.89
52.468,6.17
52.484,-1.63
52.500,-11.93
52.515,-23.69
52.531,-35.79
52.546,-47.21
52.562,-57.05
52.578,-64.51
52.593,-68.86
52.609,-69.59
52.625,-66.56
52.640,-60.17
52.656,-51.31
52.671,-41.17
52.687,-30.96
52.703,-21.62
52.718,-13.66
52.734,-7.1
52.750,-1.48
52.765,3.92
52.781,9.84
52.796,16.78
52.812,24.91
52.828,34.0
52.843,43.67
52.859,53.6
52.875,63.63
52.890,73.76
52.906,84.01
52.921,94.23
52.937,103.98
52.953,112.57
52.968,119.29
52.984,123.55
53.000,125.08
53.015,124.0
53.031,120.76
53.046,115.95
53.062,110.17
53.078,103.81
53.093,97.03
53.109,89.79
53.125,82.06
53.140,73.9
53.156,65.55
53.171,57.3
53.187,49.39
53.203,41.82
53.218,34.48
53.234,27.23
53.250,20.07
53.265,13.15
53.281,6.67
53.296,0.76
53.312,-4.51
53.328,-9.11
53.343,-12.92
53.359,-15.74
53.375,-17.48
53.390,-18.36
53.406,-18.95
53.421,-20.03
53.437,-22.19
53.453,-25.52
53.468,-29.57
53.484,-33.51
53.500,-36.57
53.515,-38.39
53.531,-39.04
53.546,-38.88
53.562,-38.25
53.578,-37.36
53.593,-36.2
53.609,-34.75
53.625,-33.08
53.640,-31.43
53.656,-30.13
53.671,-29.43
53.687,-29.41
53.703,-29.94
53.718,-30.79
53.734,-31.78
53.750,-32.74
53.765,-33.56
53.781,-33.97
53.796,-33.5
53.812,-31.52
53.828,-27.48
53.843,-21.13
53.859,-12.66
53.875,-2.69
53.890,8.01
53.906,18.77
53.921,29.34
53.937,39.87
53.953,50.69
53.968,62.03
53.984,73.54
54.000,84.16
54.015,92.22
54.031,95.96
54.046,94.18
54.062,86.77
54.078,74.81
54.093,60.39
54.109,46.02
54.125,34.04
54.140,26.02
54.156,22.46
54.171,22.67
54.187,25.08
54.203,27.72
54.218,28.78
54.234,26.86
54.250,20.95
54.265,10.27
54.281,-5.9
54.296,-27.81
54.312,-54.63
54.328,-83.82
54.343,-111.22
54.359,-132.01
54.375,-142.22
54.390,-140.22
54.406,-127.09
54.421,-105.96
54.437,-80.61
54.453,-54.32
54.468,-29.27
54.484,-6.77
54.500,12.24
54.515,26.84
54.531,36.23
54.546,40.13
54.562,39.1
54.578,34.49
54.593,28.1
54.609,21.52
54.625,15.56
54.640,10.03
54.656,3.96
54.671,-3.73
54.687,-13.52
54.703,-24.66
54.718,-35.29
54.734,-43.12
54.750,-46.66
54.765,-46.14
54.781,-43.9
54.796,-43.63
54.812,-48.96
54.828,-61.82
54.843,-81.73
54.859,-106.08
54.875,-131.22
54.890,-153.91
54.906,-172.1
54.921,-184.96
54.937,-192.22
54.953,-193.61
54.968,-188.61
54.984,-176.82
55.000,-158.52
55.015,-135.09
55.031,-108.78
55.046,-82.19
55.062,-57.41
55.078,-35.59
55.093,-16.95
55.109,-1.13
55.125,12.25
55.140,23.31
55.156,31.91
55.171,37.91
55.187,41.49
55.203,43.3
55.218,44.32
55.234,45.45
55.250,47.1
55.265,49.05
55.281,50.72
55.296,51.61
55.312,51.69
55.328,51.43
55.343,51.5
55.359,52.34
55.375,53.94
55.390,56.04
55.406,58.42
55.421,61.17
55.437,64.59
55.453,68.91
55.468,74.01
55.484,79.37
55.500,84.31
55.515,88.22
55.531,90.81
55.546,92.09
55.562,92.21
55.578,91.37
55.593,89.64
55.609,87.03
55.625,83.41
55.640,78.74
55.656,73.08
55.671,66.67
55.687,60.04
55.703,53.76
55.718,48.36
55.734,43.98
55.750,40.28
55.765,36.57
55.781,32.1
55.796,26.45
55.812,19.66
55.828,12.11
55.843,4.18
55.859,-4.0
55.875,-12.6
55.890,-21.81
55.906,-31.51
55.921,-41.08
55.937,-49.44
55.953,-55.49
55.968,-58.5
55.984,-58.45
56.000,-56.01
56.015,-52.19
56.031,-47.94
56.046,-43.86
56.062,-40.12
56.078,-36.64
56.093,-33.33
56.109,-30.23
56.125,-27.62
56.140,-25.8
56.156,-25.01
56.171,-25.27
56.187,-26.42
56.203,-28.25
56.218,-30.6
56.234,-33.46
56.250,-36.87
56.265,-40.79
56.281,-44.97
56.296,-48.97
56.312,-52.36
56.328,-54.85
56.343,-56.52
56.359,-57.79
56.375,-59.17
56.390,-61.11
56.406,-63.72
56.421,-66.76
56.437,-69.59
56.453,-71.35
56.468,-71.13
56.484,-68.2
56.500,-62.21
56.515,-53.26
56.531,-41.89
56.546,-28.91
56.562,-15.3
56.578,-2.02
56.593,10.06
56.609,20.3
56.625,28.31
56.640,34.11
56.656,37.96
56.671,40.19
56.687,40.99
56.703,40.17
56.718,37.26
56.734,31.76
56.750,23.56
56.765,13.14
56.781,1.55
56.796,-9.94
56.812,-20.23
56.828,-28.72
56.843,-35.36
56.859,-40.57
56.875,-44.89
56.890,-48.83
56.906,-52.69
56.921,-56.68
56.937,-60.91
56.953,-65.47
56.968,-70.24
56.984,-74.81
57.000,-78.39
57.015,-79.92
57.031,-78.34
57.046,-72.99
57.062,-63.82
57.078,-51.49
57.093,-37.12
57.109,-22.01
57.125,-7.27
57.140,6.3
57.156,18.26
57.171,28.29
57.187,36.21
57.203,41.83
57.218,45.06
57.234,45.98
57.250,44.91
57.265,42.37
57.281,38.97
57.296,35.27
57.312,31.71
57.328,28.42
57.343,25.27
57.359,21.92
57.375,17.94
57.390,12.9
57.406,6.6
57.421,-0.99
57.437,-9.65
57.453,-18.98
57.468,-28.39
57.484,-37.31
57.500,-45.25
57.515,-52.0
57.531,-57.71
57.546,-62.82
57.562,-67.91
57.578,-73.35
57.593,-79.05
57.609,-84.38
57.625,-88.25
57.640,-89.51
57.656,-87.36
57.671,-81.64
57.687,-72.89
57.703,-62.12
57.718,-50.52
57.734,-39.03
57.750,-28.28
57.765,-18.57
57.781,-9.95
57.796,-2.45
57.812,3.92
57.828,9.18
57.843,13.36
57.859,16.55
57.875,18.87
57.890,20.43
57.906,21.37
57.921,21.86
57.937,22.1
57.953,22.23
57.968,22.29
57.984,22.21
58.000,21.81
58.015,20.91
58.031,19.43
58.046,17.44
58.062,15.07
58.078,12.42
58.093,9.49
58.109,6.17
58.125,2.29
58.140,-2.31
58.156,-7.77
58.171,-14.22
58.187,-21.77
58.203,-30.33
58.218,-39.46
58.234,-48.27
58.250,-55.47
58.265,-59.7
58.281,-59.97
58.296,-55.98
58.312,-48.26
58.328,-37.97
58.343,-26.53
58.359,-15.22
58.375,-4.93
58.390,3.92
58.406,11.22
58.421,17.06
58.437,21.55
58.453,24.79
58.468,26.81
58.484,27.66
58.500,27.41
58.515,26.21
58.531,24.27
58.546,21.83
58.562,19.1
58.578,16.19
58.593,13.11
58.609,9.84
58.625,6.35
58.640,2.76
58.656,-0.75
58.671,-4.0
58.687,-6.93
58.703,-9.74
58.718,-12.75
58.734,-16.37
58.750,-20.85
58.765,-26.23
58.781,-32.4
58.796,-39.13
58.812,-46.12
58.828,-52.92
58.843,-58.8
58.859,-62.73
58.875,-63.55
58.890,-60.34
58.906,-52.85
58.921,-41.61
58.937,-27.87
58.953,-13.2
58.968,1.04
58.984,14.03
59.000,25.48
59.015,35.46
59.031,44.15
59.046,51.58
59.062,57.69
59.078,62.38
59.093,65.62
59.109,67.53
59.125,68.31
59.140,68.09
59.156,66.95
59.171,64.94
59.187,62.2
59.203,59.01
59.218,55.75
59.234,52.72
59.250,49.93
59.265,47.13
59.281,43.82
59.296,39.6
59.312,34.34
59.328,28.22
59.343,21.72
59.359,15.3
59.375,9.22
59.390,3.46
59.406,-2.29
59.421,-8.42
59.437,-15.26
59.453,-22.95
59.468,-31.32
59.484,-39.75
59.500,-47.22
59.515,-52.39
59.531,-53.98
59.546,-51.13
59.562,-43.63
59.578,-32.07
59.593,-17.64
59.609,-1.89
59.625,13.75
59.640,28.12
59.656,40.54
59.671,50.68
59.687,58.5
59.703,64.14
59.718,67.78
59.734,69.74
59.750,70.35
59.765,69.94
59.781,68.78
59.796,66.97
59.812,64.44
59.828,60.89
59.843,55.92
59.859,49.23
59.875,40.84
59.890,31.23
59.906,21.27
59.921,12.03
59.937,4.32
59.953,-1.52
59.968,-5.8
59.984,-9.22
