timestamp,value
00.000,39.44
00.015,25.22
00.031,17.53
00.046,17.01
00.062,22.92
00.078,32.97
00.093,43.51
00.109,50.18
00.125,49.2
00.140,38.71
00.156,19.64
00.171,-4.6
00.187,-29.47
00.203,-51.29
00.218,-68.57
00.234,-82.45
00.250,-95.64
00.265,-110.87
00.281,-129.15
00.296,-149.06
00.312,-167.32
00.328,-180.12
00.343,-184.74
00.359,-180.62
00.375,-169.46
00.390,-154.27
00.406,-138.18
00.421,-123.21
00.437,-109.77
00.453,-96.87
00.468,-82.73
00.484,-65.51
00.500,-44.2
00.515,-19.24
00.531,6.99
00.546,30.22
00.562,45.25
00.578,47.5
00.593,34.65
00.609,7.7
00.625,-29.23
00.640,-70.21
00.656,-109.33
00.671,-142.15
00.687,-166.46
00.703,-182.06
00.718,-190.15
00.734,-192.83
00.750,-192.31
00.765,-190.53
00.781,-188.5
00.796,-185.98
00.812,-181.52
00.828,-173.2
00.843,-159.51
00.859,-140.21
00.875,-116.6
00.890,-90.95
00.906,-65.76
00.921,-43.04
00.937,-23.86
00.953,-8.34
00.968,3.99
00.984,13.8
01.000,21.6
01.015,27.39
01.031,30.83
01.046,31.42
01.062,28.92
01.078,23.66
01.093,16.59
01.109,9.07
01.125,2.43
01.140,-2.3
01.156,-4.56
01.171,-4.14
01.187,-1.24
01.203,3.56
01.218,9.34
01.234,14.81
01.250,18.57
01.265,19.48
01.281,17.04
01.296,11.37
01.312,3.26
01.328,-6.22
01.343,-16.14
01.359,-25.86
01.375,-35.31
01.390,-44.86
01.406,-55.08
01.421,-66.4
01.437,-78.78
01.453,-91.54
01.468,-103.32
01.484,-112.46
01.500,-117.37
01.515,-117.07
01.531,-111.43
01.546,-101.21
01.562,-87.72
01.578,-72.54
01.593,-57.09
01.609,-42.39
01.625,-29.12
01.640,-17.57
01.656,-7.87
01.671,-0.06
01.687,5.8
01.703,9.74
01.718,11.87
01.734,12.46
01.750,11.95
01.765,10.81
01.781,9.6
01.796,8.77
01.812,8.57
01.828,9.14
01.843,10.41
01.859,12.17
01.875,14.04
01.890,15.51
01.906,15.97
01.921,14.93
01.937,12.2
01.953,7.92
01.968,2.57
01.984,-3.16
02.000,-8.68
02.015,-13.56
02.031,-17.7
02.046,-21.37
02.062,-25.07
02.078,-29.43
02.093,-35.01
02.109,-42.13
02.125,-50.55
02.140,-59.3
02.156,-66.71
02.171,-70.82
02.187,-69.98
02.203,-63.37
02.218,-51.36
02.234,-35.42
02.250,-17.57
02.265,0.22
02.281,16.55
02.296,30.76
02.312,42.68
02.328,52.29
02.343,59.58
02.359,64.48
02.375,67.03
02.390,67.53
02.406,66.67
02.421,65.23
02.437,63.97
02.453,63.36
02.468,63.36
02.484,63.57
02.500,63.42
02.515,62.38
02.531,60.24
02.546,57.18
02.562,53.59
02.578,49.91
02.593,46.35
02.609,42.82
02.625,39.07
02.640,34.85
02.656,30.08
02.671,24.95
02.687,19.74
02.703,14.66
02.718,9.72
02.734,4.56
02.750,-1.3
02.765,-8.31
02.781,-16.56
02.796,-25.59
02.812,-34.33
02.828,-41.31
02.843,-45.03
02.859,-44.4
02.875,-39.09
02.890,-29.66
02.906,-17.34
02.921,-3.69
02.937,9.86
02.953,22.34
02.968,33.32
02.984,42.73
03.000,50.72
03.015,57.26
03.031,62.21
03.046,65.28
03.062,66.32
03.078,65.38
03.093,62.82
03.109,59.16
03.125,54.92
03.140,50.43
03.156,45.75
03.171,40.78
03.187,35.48
03.203,29.99
03.218,24.67
03.234,19.87
03.250,15.73
03.265,12.09
03.281,8.5
03.296,4.43
03.312,-0.4
03.328,-5.82
03.343,-11.3
03.359,-16.14
03.375,-19.89
03.390,-22.61
03.406,-24.78
03.421,-27.21
03.437,-30.62
03.453,-35.36
03.468,-41.26
03.484,-47.62
03.500,-53.33
03.515,-57.05
03.531,-57.56
03.546,-53.95
03.562,-45.87
03.578,-33.7
03.593,-18.51
03.609,-1.8
03.625,14.87
03.640,30.26
03.656,43.67
03.671,54.82
03.687,63.72
03.703,70.46
03.718,75.08
03.734,77.73
03.750,78.71
03.765,78.49
03.781,77.75
03.796,77.12
03.812,77.02
03.828,77.59
03.843,78.75
03.859,80.19
03.875,81.59
03.890,82.61
03.906,83.02
03.921,82.67
03.937,81.53
03.953,79.69
03.968,77.35
03.984,74.77
04.000,72.23
04.015,69.97
04.031,68.1
04.046,66.59
04.062,65.27
04.078,63.89
04.093,62.14
04.109,59.87
04.125,57.0
04.140,53.63
04.156,50.0
04.171,46.41
04.187,43.08
04.203,40.17
04.218,37.72
04.234,35.64
04.250,33.74
04.265,31.77
04.281,29.55
04.296,27.0
04.312,24.19
04.328,21.33
04.343,18.68
04.359,16.53
04.375,15.03
04.390,14.17
04.406,13.69
04.421,13.29
04.437,12.66
04.453,11.66
04.468,10.23
04.484,8.42
04.500,6.3
04.515,3.85
04.531,1.0
04.546,-2.32
04.562,-6.03
04.578,-9.89
04.593,-13.49
04.609,-16.45
04.625,-18.62
04.640,-20.19
04.656,-21.72
04.671,-23.9
04.687,-27.22
04.703,-31.8
04.718,-37.32
04.734,-43.14
04.750,-48.62
04.765,-53.35
04.781,-57.25
04.796,-60.64
04.812,-64.02
04.828,-67.93
04.843,-72.87
04.859,-79.07
04.875,-86.22
04.890,-93.32
04.906,-98.77
04.921,-100.67
04.937,-97.47
04.953,-88.51
04.968,-74.38
04.984,-56.8
05.000,-37.94
05.015,-19.82
05.031,-3.75
05.046,9.74
05.062,20.68
05.078,29.27
05.093,35.7
05.109,40.08
05.125,42.58
05.140,43.55
05.156,43.56
05.171,43.15
05.187,42.79
05.203,42.67
05.218,42.72
05.234,42.75
05.250,42.5
05.265,41.8
05.281,40.59
05.296,38.94
05.312,36.91
05.328,34.58
05.343,31.97
05.359,29.04
05.375,25.79
05.390,22.26
05.406,18.63
05.421,15.11
05.437,11.85
05.453,8.83
05.468,5.89
05.484,2.74
05.500,-0.92
05.515,-5.35
05.531,-10.72
05.546,-17.05
05.562,-24.12
05.578,-31.28
05.593,-37.54
05.609,-41.56
05.625,-42.15
05.640,-38.7
05.656,-31.34
05.671,-21.09
05.687,-9.44
05.703,2.08
05.718,12.36
05.734,20.81
05.750,27.4
05.765,32.32
05.781,35.74
05.796,37.86
05.812,38.75
05.828,38.54
05.843,37.42
05.859,35.69
05.875,33.67
05.890,31.62
05.906,29.68
05.921,27.84
05.937,26.09
05.953,24.39
05.968,22.73
05.984,21.16
06.000,19.71
06.015,18.29
06.031,16.68
06.046,14.52
06.062,11.47
06.078,7.43
06.093,2.63
06.109,-2.47
06.125,-7.28
06.140,-11.44
06.156,-14.92
06.171,-18.0
06.187,-21.22
06.203,-25.06
06.218,-29.81
06.234,-35.44
06.250,-41.51
06.265,-47.23
06.281,-51.65
06.296,-53.72
06.312,-52.55
06.328,-47.7
06.343,-39.36
06.359,-28.37
06.375,-15.98
06.390,-3.56
06.406,7.77
06.421,17.25
06.437,24.54
06.453,29.6
06.468,32.55
06.484,33.64
06.500,33.22
06.515,31.74
06.531,29.76
06.546,27.79
06.562,26.2
06.578,25.14
06.593,24.54
06.609,24.15
06.625,23.71
06.640,22.98
06.656,21.89
06.671,20.44
06.687,18.74
06.703,16.86
06.718,14.74
06.734,12.25
06.750,9.17
06.765,5.43
06.781,1.13
06.796,-3.43
06.812,-7.87
06.828,-11.88
06.843,-15.39
06.859,-18.61
06.875,-21.94
06.890,-25.87
06.906,-30.7
06.921,-36.4
06.937,-42.54
06.953,-48.29
06.968,-52.62
06.984,-54.47
07.000,-53.1
07.015,-48.32
07.031,-40.61
07.046,-30.85
07.062,-20.17
07.078,-9.53
07.093,0.46
07.109,9.52
07.125,17.57
07.140,24.54
07.156,30.29
07.171,34.56
07.187,37.23
07.203,38.39
07.218,38.4
07.234,37.76
07.250,36.96
07.265,36.26
07.281,35.68
07.296,35.05
07.312,34.15
07.328,32.81
07.343,31.0
07.359,28.82
07.375,26.41
07.390,23.91
07.406,21.37
07.421,18.72
07.437,15.79
07.453,12.42
07.468,8.5
07.484,4.08
07.500,-0.6
07.515,-5.2
07.531,-9.44
07.546,-13.11
07.562,-16.32
07.578,-19.33
07.593,-22.52
07.609,-26.25
07.625,-30.73
07.640,-35.99
07.656,-41.84
07.671,-47.78
07.687,-53.07
07.703,-56.8
07.718,-58.0
07.734,-56.01
07.750,-50.54
07.765,-42.0
07.781,-31.27
07.796,-19.61
07.812,-8.2
07.828,2.04
07.843,10.68
07.859,17.76
07.875,23.55
07.890,28.33
07.906,32.23
07.921,35.23
07.937,37.21
07.953,38.14
07.968,38.19
07.984,37.66
08.000,36.97
08.015,36.4
08.031,36.03
08.046,35.74
08.062,35.33
08.078,34.63
08.093,33.54
08.109,32.08
08.125,30.25
08.140,27.98
08.156,25.22
08.171,21.95
08.187,18.21
08.203,14.16
08.218,9.97
08.234,5.7
08.250,1.44
08.265,-2.89
08.281,-7.3
08.296,-11.76
08.312,-16.18
08.328,-20.43
08.343,-24.44
08.359,-28.24
08.375,-31.97
08.390,-35.82
08.406,-40.04
08.421,-44.67
08.437,-49.43
08.453,-53.63
08.468,-56.25
08.484,-56.24
08.500,-52.94
08.515,-46.3
08.531,-37.0
08.546,-26.17
08.562,-15.05
08.578,-4.55
08.593,4.86
08.609,13.09
08.625,20.28
08.640,26.42
08.656,31.38
08.671,34.95
08.687,37.04
08.703,37.85
08.718,37.81
08.734,37.47
08.750,37.21
08.765,37.14
08.781,37.08
08.796,36.69
08.812,35.69
08.828,34.03
08.843,31.85
08.859,29.42
08.875,26.96
08.890,24.54
08.906,22.17
08.921,19.76
08.937,17.29
08.953,14.77
08.968,12.28
08.984,9.84
09.000,7.39
09.015,4.78
09.031,1.76
09.046,-1.8
09.062,-5.99
09.078,-10.72
09.093,-15.74
09.109,-20.78
09.125,-25.52
09.140,-29.82
09.156,-33.76
09.171,-37.61
09.187,-41.73
09.203,-46.36
09.218,-51.38
09.234,-56.23
09.250,-60.03
09.265,-61.76
09.281,-60.63
09.296,-56.32
09.312,-49.09
09.328,-39.7
09.343,-29.14
09.359,-18.42
09.375,-8.28
09.390,0.76
09.406,8.55
09.421,15.05
09.437,20.35
09.453,24.47
09.468,27.4
09.484,29.14
09.500,29.77
09.515,29.5
09.531,28.7
09.546,27.85
09.562,27.29
09.578,27.25
09.593,27.65
09.609,28.16
09.625,28.43
09.640,28.12
09.656,27.09
09.671,25.4
09.687,23.26
09.703,20.85
09.718,18.34
09.734,15.79
09.750,13.21
09.765,10.58
09.781,7.9
09.796,5.15
09.812,2.26
09.828,-0.83
09.843,-4.22
09.859,-7.97
09.875,-12.02
09.890,-16.28
09.906,-20.67
09.921,-25.18
09.937,-29.8
09.953,-34.6
09.968,-39.51
09.984,-44.32
10.000,-48.58
10.015,-51.6
10.031,-52.61
10.046,-50.95
10.062,-46.37
10.078,-39.09
10.093,-29.9
10.109,-19.86
10.125,-10.03
10.140,-1.1
10.156,6.66
10.171,13.34
10.187,19.11
10.203,23.95
10.218,27.66
10.234,29.93
10.250,30.63
10.265,30.02
10.281,28.65
10.296,27.21
10.312,26.18
10.328,25.74
10.343,25.68
10.359,25.59
10.375,25.12
10.390,24.13
10.406,22.73
10.421,21.11
10.437,19.48
10.453,17.86
10.468,16.12
10.484,14.04
10.500,11.44
10.515,8.28
10.531,4.67
10.546,0.87
10.562,-2.87
10.578,-6.36
10.593,-9.54
10.609,-12.52
10.625,-15.49
10.640,-18.62
10.656,-22.03
10.671,-25.7
10.687,-29.59
10.703,-33.61
10.718,-37.62
10.734,-41.38
10.750,-44.53
10.765,-46.49
10.781,-46.56
10.796,-44.19
10.812,-39.17
10.828,-31.77
10.843,-22.75
10.859,-13.08
10.875,-3.64
10.890,4.94
10.906,12.39
10.921,18.66
10.937,23.83
10.953,28.03
10.968,31.36
10.984,33.93
11.000,35.87
11.015,37.29
11.031,38.25
11.046,38.88
11.062,39.24
11.078,39.36
11.093,39.29
11.109,39.04
11.125,38.62
11.140,38.07
11.156,37.45
11.171,36.82
11.187,36.24
11.203,35.61
11.218,34.77
11.234,33.55
11.250,31.8
11.265,29.54
11.281,26.96
11.296,24.34
11.312,21.97
11.328,20.03
11.343,18.54
11.359,17.43
11.375,16.58
11.390,15.86
11.406,15.19
11.421,14.5
11.437,13.72
11.453,12.83
11.468,11.81
11.484,10.67
11.500,9.46
11.515,8.21
11.531,6.91
11.546,5.57
11.562,4.2
11.578,2.87
11.593,1.7
11.609,0.8
11.625,0.2
11.640,-0.22
11.656,-0.67
11.671,-1.34
11.687,-2.28
11.703,-3.45
11.718,-4.74
11.734,-6.01
11.750,-7.23
11.765,-8.39
11.781,-9.47
11.796,-10.42
11.812,-11.2
11.828,-11.82
11.843,-12.42
11.859,-13.27
11.875,-14.6
11.890,-16.52
11.906,-18.91
11.921,-21.43
11.937,-23.73
11.953,-25.6
11.968,-27.02
11.984,-28.18
12.000,-29.4
12.015,-31.0
12.031,-33.26
12.046,-36.28
12.062,-40.02
12.078,-44.3
12.093,-48.81
12.109,-53.1
12.125,-56.76
12.140,-59.55
12.156,-61.56
12.171,-63.25
12.187,-65.29
12.203,-68.27
12.218,-72.39
12.234,-77.27
12.250,-81.89
12.265,-84.96
12.281,-85.24
12.296,-81.95
12.312,-74.98
12.328,-64.87
12.343,-52.71
12.359,-39.78
12.375,-27.28
12.390,-16.04
12.406,-6.53
12.421,1.24
12.437,7.48
12.453,12.44
12.468,16.3
12.484,19.19
12.500,21.18
12.515,22.46
12.531,23.28
12.546,23.95
12.562,24.65
12.578,25.41
12.593,26.0
12.609,26.12
12.625,25.55
12.640,24.27
12.656,22.48
12.671,20.54
12.687,18.73
12.703,17.17
12.718,15.79
12.734,14.31
12.750,12.42
12.765,9.93
12.781,6.84
12.796,3.3
12.812,-0.37
12.828,-3.92
12.843,-7.24
12.859,-10.36
12.875,-13.45
12.890,-16.73
12.906,-20.36
12.921,-24.41
12.937,-28.77
12.953,-33.23
12.968,-37.43
12.984,-40.91
13.000,-43.01
13.015,-43.07
13.031,-40.57
13.046,-35.32
13.062,-27.7
13.078,-18.58
13.093,-9.08
13.109,-0.21
13.125,7.42
13.140,13.66
13.156,18.71
13.171,22.78
13.187,25.94
13.203,28.01
13.218,28.83
13.234,28.42
13.250,27.12
13.265,25.56
13.281,24.32
13.296,23.72
13.312,23.62
13.328,23.65
13.343,23.3
13.359,22.29
13.375,20.64
13.390,18.61
13.406,16.55
13.421,14.59
13.437,12.63
13.453,10.36
13.468,7.54
13.484,4.07
13.500,0.14
13.515,-3.92
13.531,-7.79
13.546,-11.27
13.562,-14.36
13.578,-17.28
13.593,-20.38
13.609,-24.01
13.625,-28.49
13.640,-33.88
13.656,-39.86
13.671,-45.71
13.687,-50.28
13.703,-52.34
13.718,-50.96
13.734,-45.81
13.750,-37.38
13.765,-26.79
13.781,-15.46
13.796,-4.64
13.812,4.76
13.828,12.42
13.843,18.33
13.859,22.72
13.875,25.87
13.890,28.06
13.906,29.52
13.921,30.49
13.937,31.15
13.953,31.56
13.968,31.68
13.984,31.35
14.000,30.4
14.015,28.81
14.031,26.75
14.046,24.52
14.062,22.49
14.078,20.87
14.093,19.66
14.109,18.7
14.125,17.65
14.140,16.15
14.156,13.94
14.171,10.91
14.187,7.09
14.203,2.66
14.218,-2.13
14.234,-6.99
14.250,-11.65
14.265,-16.06
14.281,-20.33
14.296,-24.77
14.312,-29.73
14.328,-35.38
14.343,-41.53
14.359,-47.57
14.375,-52.49
14.390,-55.16
14.406,-54.63
14.421,-50.46
14.437,-42.86
14.453,-32.57
14.468,-20.67
14.484,-8.31
14.500,3.54
14.515,14.16
14.531,23.07
14.546,30.0
14.562,34.81
14.578,37.56
14.593,38.5
14.609,38.11
14.625,37.05
14.640,35.94
14.656,35.21
14.671,35.01
14.687,35.14
14.703,35.21
14.718,34.82
14.734,33.69
14.750,31.82
14.765,29.44
14.781,26.83
14.796,24.1
14.812,21.21
14.828,18.01
14.843,14.37
14.859,10.36
14.875,6.18
14.890,2.11
14.906,-1.69
14.921,-5.18
14.937,-8.57
14.953,-12.12
14.968,-16.15
14.984,-20.9
15.000,-26.58
15.015,-33.22
15.031,-40.63
15.046,-48.31
15.062,-55.33
15.078,-60.56
15.093,-62.87
15.109,-61.53
15.125,-56.35
15.140,-47.87
15.156,-37.11
15.171,-25.29
15.187,-13.51
15.203,-2.48
15.218,7.52
15.234,16.51
15.250,24.51
15.265,31.43
15.281,36.98
15.296,40.84
15.312,42.84
15.328,43.21
15.343,42.47
15.359,41.31
15.375,40.28
15.390,39.55
15.406,38.95
15.421,38.09
15.437,36.68
15.453,34.72
15.468,32.49
15.484,30.39
15.500,28.68
15.515,27.28
15.531,25.78
15.546,23.58
15.562,20.22
15.578,15.56
15.593,9.92
15.609,3.98
15.625,-1.51
15.640,-5.98
15.656,-9.28
15.671,-11.75
15.687,-14.02
15.703,-16.84
15.718,-20.83
15.734,-26.26
15.750,-32.98
15.765,-40.35
15.781,-47.38
15.796,-52.86
15.812,-55.69
15.828,-55.08
15.843,-50.76
15.859,-43.1
15.875,-32.9
15.890,-21.29
15.906,-9.41
15.921,1.79
15.937,11.59
15.953,19.62
15.968,25.74
15.984,30.09
16.000,32.92
16.015,34.69
16.031,35.88
16.046,36.92
16.062,38.06
16.078,39.29
16.093,40.35
16.109,40.83
16.125,40.35
16.140,38.68
16.156,35.97
16.171,32.61
16.187,29.12
16.203,26.0
16.218,23.5
16.234,21.63
16.250,20.15
16.265,18.69
16.281,16.82
16.296,14.29
16.312,11.03
16.328,7.1
16.343,2.73
16.359,-1.83
16.375,-6.36
16.390,-10.74
16.406,-14.99
16.421,-19.21
16.437,-23.62
16.453,-28.44
16.468,-33.81
16.484,-39.61
16.500,-45.39
16.515,-50.39
16.531,-53.66
16.546,-54.34
16.562,-51.89
16.578,-46.29
16.593,-38.03
16.609,-28.02
16.625,-17.25
16.640,-6.67
16.656,3.06
16.671,11.59
16.687,18.77
16.703,24.58
16.718,28.99
16.734,31.95
16.750,33.45
16.765,33.66
16.781,32.92
16.796,31.76
16.812,30.74
16.828,30.17
16.843,30.02
16.859,29.95
16.875,29.55
16.890,28.51
16.906,26.9
16.921,24.99
16.937,23.12
16.953,21.46
16.968,19.82
16.984,17.84
17.000,15.13
17.015,11.57
17.031,7.35
17.046,2.92
17.062,-1.29
17.078,-5.02
17.093,-8.24
17.109,-11.19
17.125,-14.13
17.140,-17.35
17.156,-21.08
17.171,-25.42
17.187,-30.37
17.203,-35.77
17.218,-41.18
17.234,-45.93
17.250,-49.13
17.265,-49.89
17.281,-47.65
17.296,-42.34
17.312,-34.41
17.328,-24.82
17.343,-14.68
17.359,-4.94
17.375,3.75
17.390,11.18
17.406,17.42
17.421,22.67
17.437,27.06
17.453,30.57
17.468,33.12
17.484,34.67
17.500,35.28
17.515,35.09
17.531,34.3
17.546,33.09
17.562,31.61
17.578,29.98
17.593,28.26
17.609,26.57
17.625,25.04
17.640,23.75
17.656,22.71
17.671,21.8
17.687,20.75
17.703,19.22
17.718,16.92
17.734,13.63
17.750,9.39
17.765,4.46
17.781,-0.75
17.796,-5.77
17.812,-10.31
17.828,-14.29
17.843,-17.89
17.859,-21.36
17.875,-24.99
17.890,-29.0
17.906,-33.49
17.921,-38.45
17.937,-43.6
17.953,-48.35
17.968,-51.77
17.984,-52.86
18.000,-50.85
18.015,-45.52
18.031,-37.4
18.046,-27.58
18.062,-17.36
18.078,-7.74
18.093,0.73
18.109,7.95
18.125,14.04
18.140,19.06
18.156,22.95
18.171,25.64
18.187,27.17
18.203,27.82
18.218,28.04
18.234,28.21
18.250,28.57
18.265,29.11
18.281,29.61
18.296,29.76
18.312,29.35
18.328,28.25
18.343,26.51
18.359,24.35
18.375,22.08
18.390,19.98
18.406,18.22
18.421,16.75
18.437,15.32
18.453,13.58
18.468,11.18
18.484,7.92
18.500,3.81
18.515,-1.05
18.531,-6.37
18.546,-11.85
18.562,-17.15
18.578,-22.02
18.593,-26.35
18.609,-30.19
18.625,-33.77
18.640,-37.41
18.656,-41.34
18.671,-45.51
18.687,-49.49
18.703,-52.55
18.718,-53.79
18.734,-52.47
18.750,-48.27
18.765,-41.38
18.781,-32.43
18.796,-22.31
18.812,-11.9
18.828,-1.89
18.843,7.23
18.859,15.19
18.875,21.74
18.890,26.67
18.906,29.82
18.921,31.26
18.937,31.31
18.953,30.55
18.968,29.62
18.984,29.0
19.000,28.89
19.015,29.16
19.031,29.48
19.046,29.49
19.062,28.94
19.078,27.7
19.093,25.8
19.109,23.42
19.125,20.7
19.140,17.83
19.156,14.95
19.171,12.15
19.187,9.41
19.203,6.62
19.218,3.59
19.234,0.26
19.250,-3.34
19.265,-7.06
19.281,-10.73
19.296,-14.28
19.312,-17.88
19.328,-21.77
19.343,-26.21
19.359,-31.32
19.375,-36.86
19.390,-42.41
19.406,-47.34
19.421,-50.96
19.437,-52.61
19.453,-51.79
19.468,-48.27
19.484,-42.19
19.500,-34.07
19.515,-24.81
19.531,-15.39
19.546,-6.65
19.562,0.94
19.578,7.3
19.593,12.6
19.609,17.07
19.625,20.86
19.640,23.97
19.656,26.36
19.671,28.02
19.687,29.04
19.703,29.64
19.718,30.01
19.734,30.23
19.750,30.25
19.765,29.88
19.781,28.96
19.796,27.55
19.812,25.85
19.828,24.21
19.843,22.9
19.859,21.91
19.875,20.9
19.890,19.37
19.906,16.84
19.921,13.12
19.937,8.4
19.953,3.16
19.968,-2.08
19.984,-7.01
20.000,-11.54
20.015,-15.79
20.031,-19.89
20.046,-23.94
20.062,-27.95
20.078,-31.94
20.093,-35.99
20.109,-40.16
20.125,-44.42
20.140,-48.38
20.156,-51.35
20.171,-52.4
20.187,-50.76
20.203,-46.08
20.218,-38.64
20.234,-29.31
20.250,-19.17
20.265,-9.3
20.281,-0.49
20.296,6.87
20.312,12.67
20.328,16.95
20.343,19.81
20.359,21.35
20.375,21.75
20.390,21.34
20.406,20.55
20.421,19.79
20.437,19.38
20.453,19.43
20.468,19.79
20.484,20.15
20.500,20.2
20.515,19.73
20.531,18.74
20.546,17.38
20.562,15.85
20.578,14.23
20.593,12.45
20.609,10.3
20.625,7.57
20.640,4.19
20.656,0.4
20.671,-3.35
20.687,-6.63
20.703,-9.25
20.718,-11.4
20.734,-13.6
20.750,-16.37
20.765,-20.05
20.781,-24.59
20.796,-29.54
20.812,-34.23
20.828,-37.97
20.843,-40.2
20.859,-40.53
20.875,-38.77
20.890,-34.92
20.906,-29.15
20.921,-21.87
20.937,-13.7
20.953,-5.3
20.968,2.74
20.984,10.02
21.000,16.32
21.015,21.46
21.031,25.28
21.046,27.66
21.062,28.6
21.078,28.28
21.093,27.11
21.109,25.66
21.125,24.37
21.140,23.46
21.156,22.89
21.171,22.47
21.187,22.02
21.203,21.46
21.218,20.8
21.234,20.0
21.250,18.98
21.265,17.5
21.281,15.33
21.296,12.34
21.312,8.67
21.328,4.65
21.343,0.73
21.359,-2.75
21.375,-5.6
21.390,-7.9
21.406,-9.84
21.421,-11.72
21.437,-13.79
21.453,-16.26
21.468,-19.31
21.484,-22.99
21.500,-27.17
21.515,-31.41
21.531,-34.9
21.546,-36.64
21.562,-35.68
21.578,-31.49
21.593,-24.17
21.609,-14.45
21.625,-3.39
21.640,7.78
21.656,18.05
21.671,26.7
21.687,33.32
21.703,37.83
21.718,40.38
21.734,41.27
21.750,40.95
21.765,39.92
21.781,38.59
21.796,37.23
21.812,35.92
21.828,34.58
21.843,33.02
21.859,30.99
21.875,28.35
21.890,25.06
21.906,21.25
21.921,17.2
21.937,13.2
21.953,9.49
21.968,6.06
21.984,2.72
22.000,-0.88
22.015,-5.06
22.031,-9.93
22.046,-15.34
22.062,-20.86
22.078,-26.02
22.093,-30.41
22.109,-33.91
22.125,-36.68
22.140,-39.11
22.156,-41.63
22.171,-44.56
22.187,-47.95
22.203,-51.57
22.218,-54.84
22.234,-56.96
22.250,-57.04
22.265,-54.4
22.281,-48.8
22.296,-40.52
22.312,-30.36
22.328,-19.37
22.343,-8.55
22.359,1.32
22.375,9.82
22.390,16.73
22.406,22.0
22.421,25.62
22.437,27.69
22.453,28.46
22.468,28.31
22.484,27.69
22.500,26.94
22.515,26.18
22.531,25.33
22.546,24.19
22.562,22.62
22.578,20.63
22.593,18.39
22.609,16.1
22.625,14.01
22.640,12.22
22.656,10.73
22.671,9.38
22.687,7.93
22.703,6.07
22.718,3.62
22.734,0.56
22.750,-2.99
22.765,-6.74
22.781,-10.43
22.796,-13.9
22.812,-17.23
22.828,-20.61
22.843,-24.27
22.859,-28.41
22.875,-33.06
22.890,-38.1
22.906,-43.25
22.921,-48.09
22.937,-52.01
22.953,-54.26
22.968,-54.22
22.984,-51.5
23.000,-46.16
23.015,-38.68
23.031,-29.76
23.046,-20.14
23.062,-10.44
23.078,-1.16
23.093,7.38
23.109,14.88
23.125,21.13
23.140,25.95
23.156,29.32
23.171,31.38
23.187,32.37
23.203,32.64
23.218,32.49
23.234,32.18
23.250,31.92
23.265,31.75
23.281,31.61
23.296,31.37
23.312,30.84
23.328,29.91
23.343,28.54
23.359,26.81
23.375,24.81
23.390,22.57
23.406,20.02
23.421,17.07
23.437,13.64
23.453,9.75
23.468,5.52
23.484,1.13
23.500,-3.24
23.515,-7.49
23.531,-11.62
23.546,-15.75
23.562,-20.03
23.578,-24.67
23.593,-29.88
23.609,-35.78
23.625,-42.16
23.640,-48.49
23.656,-53.82
23.671,-57.06
23.687,-57.27
23.703,-54.04
23.718,-47.57
23.734,-38.71
23.750,-28.51
23.765,-17.95
23.781,-7.76
23.796,1.7
23.812,10.3
23.828,17.97
23.843,24.56
23.859,29.94
23.875,33.98
23.890,36.75
23.906,38.45
23.921,39.4
23.937,39.92
23.953,40.29
23.968,40.67
23.984,41.13
24.000,41.68
24.015,42.31
24.031,43.01
24.046,43.64
24.062,44.01
24.078,43.9
24.093,43.15
24.109,41.71
24.125,39.73
24.140,37.42
24.156,35.01
24.171,32.61
24.187,30.23
24.203,27.86
24.218,25.57
24.234,23.43
24.250,21.59
24.265,20.15
24.281,19.07
24.296,18.21
24.312,17.43
24.328,16.57
24.343,15.55
24.359,14.31
24.375,12.87
24.390,11.3
24.406,9.77
24.421,8.44
24.437,7.42
24.453,6.68
24.468,6.04
24.484,5.33
24.500,4.42
24.515,3.31
24.531,2.16
24.546,1.14
24.562,0.27
24.578,-0.49
24.593,-1.26
24.609,-2.1
24.625,-2.95
24.640,-3.59
24.656,-3.88
24.671,-3.77
24.687,-3.48
24.703,-3.42
24.718,-3.98
24.734,-5.43
24.750,-7.75
24.765,-10.67
24.781,-13.75
24.796,-16.59
24.812,-18.99
24.828,-20.95
24.843,-22.64
24.859,-24.27
24.875,-26.09
24.890,-28.2
24.906,-30.7
24.921,-33.53
24.937,-36.66
24.953,-39.93
24.968,-43.2
24.984,-46.29
25.000,-49.14
25.015,-51.81
25.031,-54.49
25.046,-57.51
25.062,-61.22
25.078,-65.85
25.093,-71.21
25.109,-76.64
25.125,-80.97
25.140,-82.84
25.156,-81.14
25.171,-75.39
25.187,-65.94
25.203,-53.86
25.218,-40.55
25.234,-27.39
25.250,-15.35
25.265,-5.0
25.281,3.42
25.296,9.86
25.312,14.34
25.328,16.98
25.343,18.07
25.359,18.15
25.375,17.79
25.390,17.57
25.406,17.83
25.421,18.67
25.437,19.9
25.453,21.21
25.468,22.2
25.484,22.62
25.500,22.39
25.515,21.59
25.531,20.44
25.546,19.16
25.562,17.85
25.578,16.45
25.593,14.74
25.609,12.55
25.625,9.87
25.640,6.88
25.656,3.91
25.671,1.26
25.687,-0.98
25.703,-2.98
25.718,-5.13
25.734,-7.8
25.750,-11.26
25.765,-15.47
25.781,-20.18
25.796,-24.92
25.812,-29.07
25.828,-31.96
25.843,-32.92
25.859,-31.39
25.875,-27.2
25.890,-20.62
25.906,-12.38
25.921,-3.45
25.937,5.22
25.953,13.01
25.968,19.62
25.984,25.05
26.000,29.52
26.015,33.15
26.031,36.04
26.046,38.17
26.062,39.51
26.078,40.08
26.093,40.02
26.109,39.59
26.125,39.08
26.140,38.74
26.156,38.64
26.171,38.68
26.187,38.68
26.203,38.45
26.218,37.94
26.234,37.2
26.250,36.33
26.265,35.3
26.281,34.0
26.296,32.32
26.312,30.25
26.328,27.95
26.343,25.61
26.359,23.45
26.375,21.55
26.390,19.92
26.406,18.51
26.421,17.32
26.437,16.38
26.453,15.73
26.468,15.37
26.484,15.16
26.500,14.94
26.515,14.57
26.531,13.96
26.546,13.11
26.562,12.13
26.578,11.1
26.593,10.13
26.609,9.29
26.625,8.49
26.640,7.64
26.656,6.56
26.671,5.08
26.687,3.16
26.703,0.91
26.718,-1.5
26.734,-3.85
26.750,-6.03
26.765,-8.07
26.781,-10.09
26.796,-12.17
26.812,-14.33
26.828,-16.45
26.843,-18.35
26.859,-19.99
26.875,-21.48
26.890,-23.1
26.906,-25.2
26.921,-27.98
26.937,-31.46
26.953,-35.42
26.968,-39.49
26.984,-43.3
27.000,-46.61
27.015,-49.3
27.031,-51.44
27.046,-53.34
27.062,-55.43
27.078,-58.21
27.093,-62.12
27.109,-67.27
27.125,-73.32
27.140,-79.38
27.156,-84.11
27.171,-86.07
27.187,-84.22
27.203,-78.16
27.218,-68.3
27.234,-55.78
27.250,-42.06
27.265,-28.65
27.281,-16.76
27.296,-7.13
27.312,0.03
27.328,4.92
27.343,8.08
27.359,10.17
27.375,11.7
27.390,13.03
27.406,14.31
27.421,15.54
27.437,16.7
27.453,17.79
27.468,18.76
27.484,19.5
27.500,19.81
27.515,19.42
27.531,18.26
27.546,16.41
27.562,14.12
27.578,11.65
27.593,9.16
27.609,6.62
27.625,3.98
27.640,1.17
27.656,-1.77
27.671,-4.76
27.687,-7.81
27.703,-11.14
27.718,-15.09
27.734,-19.95
27.750,-25.77
27.765,-32.17
27.781,-38.33
27.796,-43.23
27.812,-45.86
27.828,-45.5
27.843,-41.9
27.859,-35.3
27.875,-26.41
27.890,-16.27
27.906,-5.97
27.921,3.6
27.937,11.91
27.953,18.9
27.968,24.76
27.984,29.73
28.000,33.9
28.015,37.15
28.031,39.18
28.046,39.85
28.062,39.22
28.078,37.61
28.093,35.51
28.109,33.41
28.125,31.61
28.140,30.21
28.156,29.1
28.171,27.98
28.187,26.52
28.203,24.36
28.218,21.27
28.234,17.23
28.250,12.4
28.265,7.11
28.281,1.71
28.296,-3.54
28.312,-8.56
28.328,-13.35
28.343,-18.05
28.359,-22.84
28.375,-27.89
28.390,-33.25
28.406,-38.71
28.421,-43.7
28.437,-47.32
28.453,-48.48
28.468,-46.33
28.484,-40.57
28.500,-31.7
28.515,-20.82
28.531,-9.29
28.546,1.72
28.562,11.55
28.578,20.08
28.593,27.5
28.609,34.0
28.625,39.6
28.640,44.09
28.656,47.22
28.671,48.9
28.687,49.32
28.703,48.89
28.718,48.05
28.734,47.11
28.750,46.16
28.765,45.12
28.781,43.84
28.796,42.27
28.812,40.42
28.828,38.24
28.843,35.58
28.859,32.18
28.875,27.83
28.890,22.61
28.906,16.93
28.921,11.44
28.937,6.77
28.953,3.19
28.968,0.54
28.984,-1.65
29.000,-4.02
29.015,-7.1
29.031,-11.15
29.046,-16.05
29.062,-21.23
29.078,-25.69
29.093,-28.14
29.109,-27.45
29.125,-22.84
29.140,-14.33
29.156,-2.64
29.171,10.98
29.187,25.22
29.203,39.06
29.218,51.96
29.234,63.76
29.250,74.43
29.265,83.95
29.281,92.22
29.296,99.13
29.312,104.69
29.328,108.96
29.343,112.11
29.359,114.22
29.375,115.31
29.390,115.33
29.406,114.12
29.421,111.58
29.437,107.62
29.453,102.25
29.468,95.43
29.484,87.21
29.500,77.73
29.515,67.25
29.531,56.17
29.546,44.94
29.562,34.02
29.578,23.7
29.593,14.07
29.609,4.98
29.625,-3.91
29.640,-12.97
29.656,-22.38
29.671,-31.98
29.687,-41.3
29.703,-49.66
29.718,-56.54
29.734,-61.62
29.750,-64.93
29.765,-66.6
29.781,-66.71
29.796,-65.1
29.812,-61.46
29.828,-55.69
29.843,-48.03
29.859,-39.23
29.875,-30.23
29.890,-21.87
29.906,-14.58
29.921,-8.35
29.937,-3.01
29.953,1.54
29.968,5.06
29.984,7.11
30.000,7.29
30.015,5.54
30.031,2.17
30.046,-2.27
30.062,-7.21
30.078,-12.29
30.093,-17.4
30.109,-22.54
30.125,-27.72
30.140,-32.83
30.156,-37.73
30.171,-42.39
30.187,-46.98
30.203,-51.84
30.218,-57.35
30.234,-63.71
30.250,-70.77
30.265,-78.02
30.281,-84.74
30.296,-90.18
30.312,-93.78
30.328,-95.37
30.343,-95.21
30.359,-93.95
30.375,-92.44
30.390,-91.5
30.406,-91.71
30.421,-93.32
30.437,-96.14
30.453,-99.61
30.468,-102.82
30.484,-104.68
30.500,-104.08
30.515,-100.15
30.531,-92.51
30.546,-81.44
30.562,-67.89
30.578,-53.19
30.593,-38.66
30.609,-25.16
30.625,-13.04
30.640,-2.19
30.656,7.54
30.671,16.24
30.687,23.72
30.703,29.79
30.718,34.42
30.734,37.86
30.750,40.54
30.765,42.82
30.781,44.83
30.796,46.35
30.812,47.11
30.828,46.96
30.843,46.07
30.859,44.85
30.875,43.77
30.890,43.1
30.906,42.74
30.921,42.32
30.937,41.28
30.953,39.12
30.968,35.62
30.984,30.93
31.000,25.43
31.015,19.64
31.031,14.03
31.046,8.84
31.062,4.19
31.078,0.08
31.093,-3.55
31.109,-6.81
31.125,-9.87
31.140,-13.1
31.156,-16.94
31.171,-21.64
31.187,-27.03
31.203,-32.3
31.218,-36.25
31.234,-37.64
31.250,-35.69
31.265,-30.37
31.281,-22.33
31.296,-12.63
31.312,-2.28
31.328,7.91
31.343,17.48
31.359,26.09
31.375,33.5
31.390,39.48
31.406,43.87
31.421,46.64
31.437,47.97
31.453,48.18
31.468,47.68
31.484,46.87
31.500,46.08
31.515,45.49
31.531,45.13
31.546,44.87
31.562,44.49
31.578,43.76
31.593,42.58
31.609,40.93
31.625,38.91
31.640,36.62
31.656,34.11
31.671,31.34
31.687,28.3
31.703,25.0
31.718,21.53
31.734,18.03
31.750,14.61
31.765,11.31
31.781,8.07
31.796,4.67
31.812,0.9
31.828,-3.34
31.843,-7.98
31.859,-12.79
31.875,-17.57
31.890,-22.27
31.906,-26.99
31.921,-31.85
31.937,-36.76
31.953,-41.23
31.968,-44.45
31.984,-45.53
32.000,-43.91
32.015,-39.46
32.031,-32.61
32.046,-24.08
32.062,-14.68
32.078,-5.07
32.093,4.21
32.109,12.82
32.125,20.53
32.140,27.19
32.156,32.76
32.171,37.17
32.187,40.38
32.203,42.36
32.218,43.2
32.234,43.25
32.250,43.01
32.265,43.06
32.281,43.76
32.296,45.11
32.312,46.69
32.328,47.85
32.343,48.01
32.359,46.77
32.375,44.07
32.390,40.02
32.406,34.85
32.421,28.79
32.437,22.14
32.453,15.19
32.468,8.26
32.484,1.59
32.500,-4.73
32.515,-10.71
32.531,-16.38
32.546,-21.7
32.562,-26.6
32.578,-30.98
32.593,-34.8
32.609,-38.24
32.625,-41.61
32.640,-45.24
32.656,-49.31
32.671,-53.67
32.687,-57.83
32.703,-61.04
32.718,-62.5
32.734,-61.66
32.750,-58.29
32.765,-52.65
32.781,-45.3
32.796,-36.86
32.812,-27.91
32.828,-18.85
32.843,-9.88
32.859,-1.16
32.875,7.19
32.890,14.99
32.906,21.97
32.921,27.85
32.937,32.34
32.953,35.28
32.968,36.68
32.984,36.84
33.000,36.15
33.015,35.07
33.031,33.95
33.046,32.97
33.062,32.09
33.078,31.15
33.093,30.03
33.109,28.65
33.125,27.06
33.140,25.28
33.156,23.36
33.171,21.3
33.187,19.02
33.203,16.42
33.218,13.38
33.234,9.83
33.250,5.77
33.265,1.38
33.281,-3.09
33.296,-7.32
33.312,-11.13
33.328,-14.55
33.343,-17.79
33.359,-21.12
33.375,-24.74
33.390,-28.77
33.406,-33.14
33.421,-37.79
33.437,-42.61
33.453,-47.36
33.468,-51.59
33.484,-54.52
33.500,-55.26
33.515,-53.08
33.531,-47.78
33.546,-39.8
33.562,-30.2
33.578,-20.15
33.593,-10.63
33.609,-2.07
33.625,5.56
33.640,12.48
33.656,18.75
33.671,24.24
33.687,28.64
33.703,31.71
33.718,33.47
33.734,34.21
33.750,34.41
33.765,34.45
33.781,34.47
33.796,34.32
33.812,33.78
33.828,32.71
33.843,31.18
33.859,29.44
33.875,27.79
33.890,26.35
33.906,25.04
33.921,23.65
33.937,21.9
33.953,19.64
33.968,16.82
33.984,13.52
34.000,9.84
34.015,5.89
34.031,1.73
34.046,-2.52
34.062,-6.75
34.078,-10.8
34.093,-14.58
34.109,-18.05
34.125,-21.27
34.140,-24.44
34.156,-27.83
34.171,-31.72
34.187,-36.33
34.203,-41.66
34.218,-47.38
34.234,-52.85
34.250,-57.08
34.265,-59.07
34.281,-58.05
34.296,-53.75
34.312,-46.52
34.328,-37.27
34.343,-27.15
34.359,-17.19
34.375,-8.1
34.390,-0.08
34.406,6.93
34.421,13.11
34.437,18.49
34.453,22.94
34.468,26.27
34.484,28.38
34.500,29.36
34.515,29.47
34.531,29.09
34.546,28.53
34.562,27.89
34.578,27.09
34.593,25.92
34.609,24.27
34.625,22.25
34.640,20.19
34.656,18.45
34.671,17.33
34.687,16.81
34.703,16.55
34.718,16.08
34.734,14.94
34.750,12.94
34.765,10.13
34.781,6.77
34.796,3.11
34.812,-0.6
34.828,-4.25
34.843,-7.76
34.859,-11.09
34.875,-14.23
34.890,-17.26
34.906,-20.38
34.921,-23.83
34.937,-27.83
34.953,-32.38
34.968,-37.18
34.984,-41.58
35.000,-44.71
35.015,-45.75
35.031,-44.11
35.046,-39.68
35.062,-32.79
35.078,-24.19
35.093,-14.78
35.109,-5.42
35.125,3.25
35.140,10.88
35.156,17.33
35.171,22.56
35.187,26.59
35.203,29.47
35.218,31.28
35.234,32.27
35.250,32.79
35.265,33.19
35.281,33.72
35.296,34.41
35.312,35.13
35.328,35.65
35.343,35.83
35.359,35.64
35.375,35.25
35.390,34.84
35.406,34.57
35.421,34.48
35.437,34.44
35.453,34.36
35.468,34.09
35.484,33.56
35.500,32.74
35.515,31.58
35.531,30.04
35.546,28.1
35.562,25.87
35.578,23.52
35.593,21.29
35.609,19.41
35.625,18.01
35.640,17.1
35.656,16.53
35.671,16.11
35.687,15.64
35.703,14.97
35.718,13.96
35.734,12.53
35.750,10.69
35.765,8.51
35.781,6.2
35.796,3.97
35.812,2.01
35.828,0.43
35.843,-0.69
35.859,-1.34
35.875,-1.59
35.890,-1.59
35.906,-1.57
35.921,-1.85
35.937,-2.61
35.953,-3.88
35.968,-5.44
35.984,-6.92
36.000,-8.01
36.015,-8.62
36.031,-8.95
36.046,-9.44
36.062,-10.52
36.078,-12.45
36.093,-15.15
36.109,-18.31
36.125,-21.57
36.140,-24.65
36.156,-27.44
36.171,-30.01
36.187,-32.57
36.203,-35.25
36.218,-38.12
36.234,-41.07
36.250,-43.99
36.265,-46.77
36.281,-49.41
36.296,-52.01
36.312,-54.67
36.328,-57.58
36.343,-60.9
36.359,-64.81
36.375,-69.43
36.390,-74.69
36.406,-80.13
36.421,-84.83
36.437,-87.55
36.453,-87.03
36.468,-82.47
36.484,-73.87
36.500,-62.12
36.515,-48.65
36.531,-35.0
36.546,-22.37
36.562,-11.37
36.578,-2.14
36.593,5.46
36.609,11.61
36.625,16.4
36.640,19.89
36.656,22.18
36.671,23.49
36.687,24.15
36.703,24.51
36.718,24.81
36.734,25.07
36.750,25.21
36.765,25.01
36.781,24.34
36.796,23.17
36.812,21.71
36.828,20.24
36.843,18.98
36.859,17.97
36.875,16.94
36.890,15.54
36.906,13.46
36.921,10.65
36.937,7.25
36.953,3.6
36.968,-0.05
36.984,-3.56
37.000,-7.04
37.015,-10.62
37.031,-14.48
37.046,-18.71
37.062,-23.34
37.078,-28.37
37.093,-33.68
37.109,-38.93
37.125,-43.48
37.140,-46.38
37.156,-46.64
37.171,-43.6
37.187,-37.19
37.203,-28.08
37.218,-17.46
37.234,-6.65
37.250,3.2
37.265,11.42
37.281,17.75
37.296,22.27
37.312,25.16
37.328,26.62
37.343,26.86
37.359,26.11
37.375,24.71
37.390,23.06
37.406,21.56
37.421,20.55
37.437,20.17
37.453,20.37
37.468,20.87
37.484,21.25
37.500,21.03
37.515,19.92
37.531,17.76
37.546,14.64
37.562,10.83
37.578,6.65
37.593,2.52
37.609,-1.24
37.625,-4.41
37.640,-7.05
37.656,-9.38
37.671,-11.82
37.687,-14.82
37.703,-18.7
37.718,-23.66
37.734,-29.58
37.750,-36.01
37.765,-42.13
37.781,-46.8
37.796,-48.85
37.812,-47.36
37.828,-42.1
37.843,-33.58
37.859,-22.98
37.875,-11.78
37.890,-1.26
37.906,7.72
37.921,14.9
37.937,20.4
37.953,24.56
37.968,27.67
37.984,29.96
38.000,31.55
38.015,32.49
38.031,32.8
38.046,32.46
38.062,31.5
38.078,29.99
38.093,28.11
38.109,26.08
38.125,24.12
38.140,22.36
38.156,20.84
38.171,19.49
38.187,18.13
38.203,16.53
38.218,14.45
38.234,11.76
38.250,8.37
38.265,4.28
38.281,-0.43
38.296,-5.69
38.312,-11.37
38.328,-17.3
38.343,-23.35
38.359,-29.39
38.375,-35.26
38.390,-40.71
38.406,-45.33
38.421,-48.46
38.437,-49.3
38.453,-47.18
38.468,-41.83
38.484,-33.53
38.500,-23.17
38.515,-11.97
38.531,-1.09
38.546,8.6
38.562,16.76
38.578,23.41
38.593,28.73
38.609,32.88
38.625,35.93
38.640,37.88
38.656,38.73
38.671,38.6
38.687,37.61
38.703,35.91
38.718,33.65
38.734,31.1
38.750,28.57
38.765,26.44
38.781,24.96
38.796,24.12
38.812,23.63
38.828,22.9
38.843,21.29
38.859,18.38
38.875,14.11
38.890,8.83
38.906,3.11
38.921,-2.47
38.937,-7.46
38.953,-11.68
38.968,-15.3
38.984,-18.69
39.000,-22.32
39.015,-26.66
39.031,-31.95
39.046,-38.04
39.062,-44.26
39.078,-49.51
39.093,-52.49
39.109,-52.15
39.125,-48.06
39.140,-40.49
39.156,-30.38
39.171,-18.91
39.187,-7.24
39.203,3.74
39.218,13.47
39.234,21.67
39.250,28.27
39.265,33.31
39.281,37.02
39.296,39.66
39.312,41.51
39.328,42.78
39.343,43.49
39.359,43.63
39.375,43.1
39.390,41.93
39.406,40.17
39.421,37.96
39.437,35.47
39.453,32.92
39.468,30.54
39.484,28.35
39.500,26.24
39.515,23.92
39.531,21.06
39.546,17.42
39.562,13.01
39.578,8.05
39.593,2.9
39.609,-2.15
39.625,-7.04
39.640,-11.87
39.656,-16.94
39.671,-22.47
39.687,-28.64
39.703,-35.36
39.718,-42.31
39.734,-48.82
39.750,-53.97
39.765,-56.81
39.781,-56.47
39.796,-52.6
39.812,-45.4
39.828,-35.67
39.843,-24.53
39.859,-13.12
39.875,-2.29
39.890,7.61
39.906,16.5
39.921,24.56
39.937,31.81
39.953,38.06
39.968,42.91
39.984,45.99
40.000,47.17
40.015,46.67
40.031,45.09
40.046,43.03
40.062,40.98
40.078,39.06
40.093,37.11
40.109,34.95
40.125,32.49
40.140,29.88
40.156,27.38
40.171,25.22
40.187,23.33
40.203,21.47
40.218,19.24
40.234,16.36
40.250,12.8
40.265,8.71
40.281,4.37
40.296,0.03
40.312,-4.17
40.328,-8.23
40.343,-12.25
40.359,-16.38
40.375,-20.84
40.390,-25.76
40.406,-31.24
40.421,-37.11
40.437,-42.86
40.453,-47.62
40.468,-50.4
40.484,-50.27
40.500,-46.75
40.515,-40.0
40.531,-30.67
40.546,-19.83
40.562,-8.55
40.578,2.29
40.593,12.06
40.609,20.46
40.625,27.36
40.640,32.7
40.656,36.48
40.671,38.75
40.687,39.64
40.703,39.42
40.718,38.45
40.734,37.17
40.750,35.99
40.765,35.15
40.781,34.64
40.796,34.2
40.812,33.46
40.828,32.07
40.843,29.85
40.859,26.9
40.875,23.52
40.890,20.04
40.906,16.75
40.921,13.72
40.937,10.92
40.953,8.21
40.968,5.36
40.984,2.19
41.000,-1.4
41.015,-5.41
41.031,-9.76
41.046,-14.32
41.062,-18.92
41.078,-23.43
41.093,-27.76
41.109,-32.0
41.125,-36.33
41.140,-40.93
41.156,-45.84
41.171,-50.82
41.187,-55.21
41.203,-58.08
41.218,-58.46
41.234,-55.65
41.250,-49.52
41.265,-40.54
41.281,-29.75
41.296,-18.35
41.312,-7.33
41.328,2.72
41.343,11.57
41.359,19.21
41.375,25.58
41.390,30.57
41.406,34.01
41.421,35.91
41.437,36.52
41.453,36.33
41.468,35.88
41.484,35.52
41.500,35.27
41.515,34.94
41.531,34.26
41.546,33.09
41.562,31.5
41.578,29.66
41.593,27.73
41.609,25.73
41.625,23.6
41.640,21.17
41.656,18.31
41.671,14.94
41.687,11.06
41.703,6.84
41.718,2.51
41.734,-1.68
41.750,-5.54
41.765,-9.05
41.781,-12.43
41.796,-16.03
41.812,-20.12
41.828,-24.87
41.843,-30.16
41.859,-35.69
41.875,-41.04
41.890,-45.7
41.906,-49.11
41.921,-50.72
41.937,-50.07
41.953,-46.85
41.968,-41.2
41.984,-33.57
42.000,-24.69
42.015,-15.4
42.031,-6.34
42.046,2.04
42.062,9.52
42.078,15.9
42.093,21.04
42.109,24.8
42.125,27.25
42.140,28.61
42.156,29.22
42.171,29.49
42.187,29.66
42.203,29.84
42.218,29.94
42.234,29.8
42.250,29.25
42.265,28.26
42.281,26.93
42.296,25.42
42.312,23.93
42.328,22.54
42.343,21.17
42.359,19.66
42.375,17.75
42.390,15.22
42.406,11.92
42.421,7.88
42.437,3.25
42.453,-1.62
42.468,-6.45
42.484,-10.99
42.500,-15.1
42.515,-18.84
42.531,-22.38
42.546,-26.05
42.562,-30.11
42.578,-34.72
42.593,-39.73
42.609,-44.62
42.625,-48.57
42.640,-50.58
42.656,-49.85
42.671,-45.96
42.687,-39.11
42.703,-30.14
42.718,-20.24
42.734,-10.56
42.750,-1.94
42.765,5.3
42.781,11.2
42.796,16.03
42.812,20.06
42.828,23.5
42.843,26.36
42.859,28.63
42.875,30.27
42.890,31.26
42.906,31.65
42.921,31.51
42.937,30.95
42.953,30.02
42.968,28.82
42.984,27.37
43.000,25.69
43.015,23.8
43.031,21.73
43.046,19.59
43.062,17.43
43.078,15.3
43.093,13.09
43.109,10.58
43.125,7.51
43.140,3.76
43.156,-0.64
43.171,-5.41
43.187,-10.18
43.203,-14.6
43.218,-18.49
43.234,-21.9
43.250,-24.98
43.265,-27.99
43.281,-31.11
43.296,-34.51
43.312,-38.25
43.328,-42.2
43.343,-46.09
43.359,-49.28
43.375,-50.99
43.390,-50.46
43.406,-47.25
43.421,-41.45
43.437,-33.62
43.453,-24.61
43.468,-15.25
43.484,-6.17
43.500,2.25
43.515,9.83
43.531,16.4
43.546,21.78
43.562,25.79
43.578,28.38
43.593,29.7
43.609,30.1
43.625,30.03
43.640,29.96
43.656,30.16
43.671,30.7
43.687,31.38
43.703,31.84
43.718,31.73
43.734,30.84
43.750,29.17
43.765,26.9
43.781,24.31
43.796,21.59
43.812,18.74
43.828,15.68
43.843,12.26
43.859,8.42
43.875,4.26
43.890,0.01
43.906,-4.14
43.921,-8.02
43.937,-11.66
43.953,-15.17
43.968,-18.69
43.984,-22.34
44.000,-26.2
44.015,-30.28
44.031,-34.57
44.046,-39.02
44.062,-43.44
44.078,-47.47
44.093,-50.44
44.109,-51.62
44.125,-50.33
44.140,-46.19
44.156,-39.43
44.171,-30.71
44.187,-20.98
44.203,-11.18
44.218,-1.98
44.234,6.34
44.250,13.74
44.265,20.28
44.281,25.94
44.296,30.63
44.312,34.18
44.328,36.59
44.343,38.0
44.359,38.68
44.375,39.0
44.390,39.29
44.406,39.69
44.421,40.18
44.437,40.61
44.453,40.8
44.468,40.57
44.484,39.9
44.500,38.84
44.515,37.5
44.531,35.98
44.546,34.3
44.562,32.44
44.578,30.42
44.593,28.29
44.609,26.23
44.625,24.42
44.640,22.97
44.656,21.94
44.671,21.27
44.687,20.79
44.703,20.29
44.718,19.53
44.734,18.31
44.750,16.58
44.765,14.43
44.781,12.07
44.796,9.84
44.812,8.02
44.828,6.73
44.843,5.98
44.859,5.55
44.875,5.16
44.890,4.57
44.906,3.6
44.921,2.21
44.937,0.46
44.953,-1.52
44.968,-3.58
44.984,-5.49
45.000,-7.03
45.015,-8.05
45.031,-8.49
45.046,-8.48
45.062,-8.31
45.078,-8.27
45.093,-8.68
45.109,-9.7
45.125,-11.3
45.140,-13.32
45.156,-15.64
45.171,-18.09
45.187,-20.6
45.203,-23.06
45.218,-25.31
45.234,-27.24
45.250,-28.83
45.265,-30.13
45.281,-31.39
45.296,-32.94
45.312,-35.05
45.328,-37.83
45.343,-41.14
45.359,-44.63
45.375,-47.8
45.390,-50.26
45.406,-51.84
45.421,-52.7
45.437,-53.35
45.453,-54.39
45.468,-56.47
45.484,-59.88
45.500,-64.39
45.515,-69.22
45.531,-73.17
45.546,-75.01
45.562,-73.75
45.578,-69.01
45.593,-61.01
45.609,-50.57
45.625,-38.85
45.640,-27.07
45.656,-16.29
45.671,-7.32
45.687,-0.63
45.703,3.72
45.718,5.98
45.734,6.7
45.750,6.52
45.765,6.02
45.781,5.73
45.796,5.97
45.812,6.92
45.828,8.56
45.843,10.68
45.859,12.83
45.875,14.55
45.890,15.47
45.906,15.49
45.921,14.84
45.937,13.89
45.953,12.93
45.968,11.99
45.984,10.92
46.000,9.48
46.015,7.63
46.031,5.5
46.046,3.22
46.062,0.88
46.078,-1.65
46.093,-4.55
46.109,-8.0
46.125,-11.93
46.140,-16.19
46.156,-20.56
46.171,-24.9
46.187,-29.05
46.203,-32.64
46.218,-35.08
46.234,-35.59
46.250,-33.59
46.265,-28.95
46.281,-22.16
46.296,-14.13
46.312,-5.88
46.328,1.83
46.343,8.63
46.359,14.41
46.375,19.22
46.390,23.05
46.406,25.83
46.421,27.43
46.437,27.86
46.453,27.27
46.468,25.95
46.484,24.23
46.500,22.41
46.515,20.69
46.531,19.21
46.546,17.95
46.562,16.82
46.578,15.74
46.593,14.62
46.609,13.37
46.625,11.89
46.640,10.02
46.656,7.61
46.671,4.55
46.687,0.84
46.703,-3.35
46.718,-7.72
46.734,-11.96
46.750,-15.87
46.765,-19.53
46.781,-23.22
46.796,-27.28
46.812,-31.91
46.828,-37.0
46.843,-41.99
46.859,-46.04
46.875,-48.17
46.890,-47.59
46.906,-43.91
46.921,-37.24
46.937,-28.18
46.953,-17.55
46.968,-6.27
46.984,4.84
47.000,15.18
47.015,24.34
47.031,32.07
47.046,38.25
47.062,42.82
47.078,45.87
47.093,47.61
47.109,48.28
47.125,48.21
47.140,47.64
47.156,46.69
47.171,45.42
47.187,43.92
47.203,42.24
47.218,40.54
47.234,38.89
47.250,37.24
47.265,35.48
47.281,33.42
47.296,30.9
47.312,27.96
47.328,24.77
47.343,21.54
47.359,18.48
47.375,15.67
47.390,13.02
47.406,10.39
47.421,7.59
47.437,4.45
47.453,0.91
47.468,-2.83
47.484,-6.34
47.500,-8.8
47.515,-9.17
47.531,-6.45
47.546,0.08
47.562,10.55
47.578,24.48
47.593,40.92
47.609,58.63
47.625,76.46
47.640,93.54
47.656,109.34
47.671,123.68
47.687,136.67
47.703,148.63
47.718,159.83
47.734,170.48
47.750,180.38
47.765,188.92
47.781,195.1
47.796,197.76
47.812,195.96
47.828,189.29
47.843,178.03
47.859,163.06
47.875,145.65
47.890,127.05
47.906,108.29
47.921,90.13
47.937,73.11
47.953,57.56
47.968,43.54
47.984,30.71
48.000,18.35
48.015,5.63
48.031,-7.95
48.046,-22.27
48.062,-36.51
48.078,-49.68
48.093,-61.11
48.109,-71.0
48.125,-80.13
48.140,-89.33
48.156,-98.61
48.171,-106.72
48.187,-111.49
48.203,-110.59
48.218,-102.85
48.234,-88.91
48.250,-71.23
48.265,-53.15
48.281,-37.78
48.296,-26.93
48.312,-20.81
48.328,-18.61
48.343,-19.41
48.359,-22.79
48.375,-28.92
48.390,-38.05
48.406,-49.71
48.421,-62.53
48.437,-74.53
48.453,-83.86
48.468,-89.81
48.484,-92.97
48.500,-94.77
48.515,-96.66
48.531,-99.24
48.546,-102.02
48.562,-103.85
48.578,-103.68
48.593,-101.2
48.609,-97.08
48.625,-92.62
48.640,-89.09
48.656,-87.04
48.671,-86.1
48.687,-85.11
48.703,-82.76
48.718,-78.23
48.734,-71.65
48.750,-64.08
48.765,-57.12
48.781,-52.33
48.796,-50.76
48.812,-52.59
48.828,-57.15
48.843,-63.1
48.859,-68.8
48.875,-72.51
48.890,-72.94
48.906,-69.31
48.921,-61.65
48.937,-50.75
48.953,-38.01
48.968,-25.06
48.984,-13.43
49.000,-4.2
49.015,2.29
49.031,6.35
49.046,8.78
49.062,10.5
49.078,12.03
49.093,13.32
49.109,13.8
49.125,12.8
49.140,10.03
49.156,5.95
49.171,1.73
49.187,-1.2
49.203,-1.67
49.218,0.72
49.234,5.56
49.250,11.88
49.265,18.54
49.281,24.52
49.296,29.15
49.312,32.07
49.328,33.29
49.343,33.16
49.359,32.19
49.375,30.98
49.390,29.83
49.406,28.64
49.421,26.85
49.437,23.83
49.453,19.14
49.468,12.81
49.484,5.4
49.500,-2.2
49.515,-8.84
49.531,-13.41
49.546,-14.96
49.562,-12.85
49.578,-7.09
49.593,1.6
49.609,11.88
49.625,22.29
49.640,31.72
49.656,39.93
49.671,47.55
49.687,55.43
49.703,63.97
49.718,72.29
49.734,78.23
49.750,78.96
49.765,72.15
49.781,56.99
49.796,34.6
49.812,7.66
49.828,-20.51
49.843,-46.97
49.859,-69.72
49.875,-87.78
49.890,-100.73
49.906,-108.43
49.921,-110.83
49.937,-108.29
49.953,-101.86
49.968,-93.33
49.984,-85.01
50.000,-78.91
50.015,-76.23
50.031,-76.94
50.046,-80.02
50.062,-83.93
50.078,-87.22
50.093,-89.04
50.109,-89.23
50.125,-88.2
50.140,-86.52
50.156,-84.58
50.171,-82.29
50.187,-79.17
50.203,-74.49
50.218,-67.58
50.234,-58.13
50.250,-46.27
50.265,-32.6
50.281,-17.89
50.296,-2.92
50.312,11.73
50.328,25.72
50.343,38.88
50.359,51.01
50.375,61.76
50.390,70.74
50.406,77.58
50.421,82.33
50.437,85.51
50.453,88.1
50.468,91.09
50.484,95.05
50.500,99.81
50.515,104.52
50.531,108.15
50.546,109.98
50.562,110.15
50.578,109.56
50.593,109.46
50.609,110.77
50.625,113.68
50.640,117.5
50.656,120.86
50.671,122.15
50.687,119.77
50.703,112.38
50.718,99.07
50.734,79.67
50.750,55.14
50.765,27.68
50.781,0.36
50.796,-23.87
50.812,-43.28
50.828,-58.2
50.843,-70.62
50.859,-82.95
50.875,-96.41
50.890,-110.09
50.906,-121.25
50.921,-126.73
50.937,-124.69
50.953,-115.51
50.968,-101.63
50.984,-86.22
51.000,-71.78
51.015,-59.43
51.031,-49.08
51.046,-40.24
51.062,-32.9
51.078,-27.65
51.093,-25.17
51.109,-25.68
51.125,-28.3
51.140,-31.21
51.156,-32.38
51.171,-30.27
51.187,-24.52
51.203,-16.2
51.218,-7.24
51.234,0.31
51.250,5.13
51.265,7.11
51.281,7.25
51.296,6.97
51.312,7.38
51.328,8.72
51.343,10.36
51.359,11.29
51.375,10.77
51.390,8.55
51.406,5.03
51.421,0.86
51.437,-3.49
51.453,-7.8
51.468,-12.2
51.484,-17.0
51.500,-22.54
51.515,-29.08
51.531,-36.83
51.546,-45.74
51.562,-55.43
51.578,-65.11
51.593,-73.56
51.609,-79.43
51.625,-81.64
51.640,-79.56
51.656,-73.3
51.671,-63.62
51.687,-51.6
51.703,-38.38
51.718,-24.87
51.734,-11.64
51.750,0.97
51.765,12.69
51.781,23.22
51.796,32.22
51.812,39.39
51.828,44.55
51.843,47.83
51.859,49.51
51.875,50.0
51.890,49.69
51.906,48.75
51.921,47.28
51.937,45.32
51.953,42.99
51.968,40.6
51.984,38.47
52.000,36.87
52.015,35.79
52.031,35.01
52.046,34.01
52.062,32.31
52.078,29.6
52.093,25.86
52.109,21.47
52.125,16.91
52.140,12.54
52.156,8.46
52.171,4.45
52.187,0.15
52.203,-4.72
52.218,-10.26
52.234,-16.34
52.250,-22.68
52.265,-28.95
52.281,-34.75
52.296,-39.56
52.312,-42.71
52.328,-43.37
52.343,-40.86
52.359,-34.87
52.375,-25.72
52.390,-14.34
52.406,-1.98
52.421,10.12
52.437,21.04
52.453,30.34
52.468,37.99
52.484,44.11
52.500,48.85
52.515,52.31
52.531,54.57
52.546,55.82
52.562,56.32
52.578,56.35
52.593,56.06
52.609,55.49
52.625,54.52
52.640,53.09
52.656,51.31
52.671,49.5
52.687,48.04
52.703,47.17
52.718,46.85
52.734,46.68
52.750,46.08
52.765,44.5
52.781,41.7
52.796,37.84
52.812,33.39
52.828,28.96
52.843,25.07
52.859,22.01
52.875,19.72
52.890,17.76
52.906,15.49
52.921,12.18
52.937,7.3
52.953,0.68
52.968,-7.25
52.984,-15.52
53.000,-22.76
53.015,-27.54
53.031,-28.78
53.046,-25.98
53.062,-19.38
53.078,-9.76
53.093,1.83
53.109,14.4
53.125,27.25
53.140,39.96
53.156,52.23
53.171,63.75
53.187,74.13
53.203,82.93
53.218,89.8
53.234,94.61
53.250,97.53
53.265,98.97
53.281,99.49
53.296,99.64
53.312,99.73
53.328,99.74
53.343,99.23
53.359,97.46
53.375,93.69
53.390,87.6
53.406,79.58
53.421,70.66
53.437,62.17
53.453,55.15
53.468,49.86
53.484,45.58
53.500,40.93
53.515,34.4
53.531,25.09
53.546,13.0
53.562,-1.04
53.578,-15.76
53.593,-30.06
53.609,-43.35
53.625,-55.51
53.640,-66.69
53.656,-77.05
53.671,-86.62
53.687,-95.44
53.703,-103.64
53.718,-111.42
53.734,-118.83
53.750,-125.48
53.765,-130.64
53.781,-133.38
53.796,-133.02
53.812,-129.25
53.828,-122.01
53.843,-111.27
53.859,-97.08
53.875,-79.81
53.890,-60.55
53.906,-41.32
53.921,-24.64
53.937,-12.77
53.953,-6.83
53.968,-6.46
53.984,-10.06
54.000,-15.47
54.015,-20.85
54.031,-25.04
54.046,-27.63
54.062,-28.69
54.078,-28.46
54.093,-27.25
54.109,-25.4
54.125,-23.17
54.140,-20.8
54.156,-18.49
54.171,-16.36
54.187,-14.63
54.203,-13.52
54.218,-13.2
54.234,-13.7
54.250,-14.81
54.265,-16.19
54.281,-17.46
54.296,-18.45
54.312,-19.27
54.328,-20.29
54.343,-21.99
54.359,-24.77
54.375,-28.74
54.390,-33.78
54.406,-39.52
54.421,-45.45
54.437,-50.92
54.453,-55.17
54.468,-57.48
54.484,-57.19
54.500,-53.92
54.515,-47.78
54.531,-39.3
54.546,-29.3
54.562,-18.63
54.578,-7.98
54.593,2.24
54.609,11.8
54.625,20.6
54.640,28.46
54.656,35.18
54.671,40.56
54.687,44.5
54.703,47.12
54.718,48.62
54.734,49.29
54.750,49.42
54.765,49.24
54.781,48.88
54.796,48.44
54.812,48.04
54.828,47.78
54.843,47.7
54.859,47.76
54.875,47.81
54.890,47.61
54.906,46.93
54.921,45.58
54.937,43.51
54.953,40.81
54.968,37.64
54.984,34.21
55.000,30.74
55.015,27.41
55.031,24.39
55.046,21.75
55.062,19.53
55.078,17.64
55.093,15.96
55.109,14.39
55.125,12.81
55.140,11.09
55.156,9.1
55.171,6.8
55.187,4.29
55.203,2.08
55.218,0.98
55.234,2.01
55.250,6.06
55.265,13.67
55.281,24.71
55.296,38.41
55.312,53.65
55.328,69.22
55.343,84.22
55.359,98.13
55.375,110.74
55.390,121.91
55.406,131.23
55.421,137.91
55.437,140.89
55.453,139.24
55.468,132.41
55.484,120.55
55.500,104.55
55.515,85.82
55.531,66.06
55.546,46.97
55.562,29.96
55.578,16.01
55.593,5.49
55.609,-1.89
55.625,-6.92
55.640,-10.66
55.656,-14.09
55.671,-17.83
55.687,-21.98
55.703,-26.32
55.718,-30.5
55.734,-34.28
55.750,-37.63
55.765,-40.74
55.781,-43.8
55.796,-47.02
55.812,-50.51
55.828,-54.29
55.843,-58.45
55.859,-63.13
55.875,-68.46
55.890,-74.52
55.906,-81.2
55.921,-88.13
55.937,-94.83
55.953,-100.75
55.968,-105.42
55.984,-108.52
56.000,-109.7
56.015,-108.53
56.031,-104.54
56.046,-97.32
56.062,-86.8
56.078,-73.46
56.093,-58.31
56.109,-42.73
56.125,-28.07
56.140,-15.37
56.156,-5.19
56.171,2.31
56.187,7.32
56.203,10.09
56.218,10.92
56.234,10.11
56.250,8.0
56.265,4.98
56.281,1.53
56.296,-1.86
56.312,-4.75
56.328,-6.79
56.343,-7.85
56.359,-7.99
56.375,-7.43
56.390,-6.41
56.406,-5.24
56.421,-4.11
56.437,-3.19
56.453,-2.61
56.468,-2.44
56.484,-2.8
56.500,-3.68
56.515,-5.06
56.531,-6.85
56.546,-8.93
56.562,-11.21
56.578,-13.6
56.593,-16.07
56.609,-18.6
56.625,-21.2
56.640,-23.96
56.656,-27.05
56.671,-30.62
56.687,-34.77
56.703,-39.41
56.718,-44.17
56.734,-48.45
56.750,-51.43
56.765,-52.34
56.781,-50.61
56.796,-46.07
56.812,-38.97
56.828,-29.92
56.843,-19.75
56.859,-9.33
56.875,0.61
56.890,9.55
56.906,17.17
56.921,23.24
56.937,27.69
56.953,30.6
56.968,32.19
56.984,32.8
57.000,32.84
57.015,32.67
57.031,32.49
57.046,32.27
57.062,31.82
57.078,30.92
57.093,29.45
57.109,27.44
57.125,25.16
57.140,22.94
57.156,20.98
57.171,19.3
57.187,17.73
57.203,15.88
57.218,13.37
57.234,9.93
57.250,5.52
57.265,0.35
57.281,-5.13
57.296,-10.47
57.312,-15.32
57.328,-19.56
57.343,-23.38
57.359,-27.17
57.375,-31.37
57.390,-36.34
57.406,-42.06
57.421,-48.09
57.437,-53.62
57.453,-57.58
57.468,-58.93
57.484,-56.95
57.500,-51.46
57.515,-42.94
57.531,-32.43
57.546,-21.16
57.562,-10.24
57.578,-0.45
57.593,7.84
57.609,14.5
57.625,19.53
57.640,22.92
57.656,24.74
57.671,25.11
57.687,24.43
57.703,23.17
57.718,21.81
57.734,20.69
57.750,19.87
57.765,19.12
57.781,18.15
57.796,16.77
57.812,14.96
57.828,12.93
57.843,10.94
57.859,9.15
57.875,7.55
57.890,5.97
57.906,4.02
57.921,1.44
57.937,-1.87
57.953,-5.74
57.968,-9.81
57.984,-13.71
58.000,-17.2
58.015,-20.24
58.031,-23.0
58.046,-25.78
58.062,-28.95
58.078,-32.82
58.093,-37.57
58.109,-43.14
58.125,-49.05
58.140,-54.43
58.156,-58.09
58.171,-58.84
58.187,-55.92
58.203,-49.23
58.218,-39.49
58.234,-27.94
58.250,-15.9
58.265,-4.43
58.281,5.94
58.296,15.14
58.312,23.23
58.328,30.26
58.343,36.05
58.359,40.27
58.375,42.64
58.390,43.17
58.406,42.19
58.421,40.31
58.437,38.2
58.453,36.34
58.468,34.94
58.484,33.97
58.500,33.21
58.515,32.46
58.531,31.56
58.546,30.5
58.562,29.22
58.578,27.66
58.593,25.68
58.609,23.08
58.625,19.69
58.640,15.44
58.656,10.42
58.671,4.9
58.687,-0.74
58.703,-6.13
58.718,-11.0
58.734,-15.35
58.750,-19.41
58.765,-23.6
58.781,-28.33
58.796,-33.82
58.812,-40.01
58.828,-46.48
58.843,-52.47
58.859,-56.97
58.875,-58.97
58.890,-57.71
58.906,-52.89
58.921,-44.8
58.937,-34.22
58.953,-22.23
58.968,-9.93
58.984,1.76
59.000,12.22
59.015,21.1
59.031,28.2
59.046,33.49
59.062,37.08
59.078,39.26
59.093,40.5
59.109,41.3
59.125,42.13
59.140,43.17
59.156,44.31
59.171,45.24
59.187,45.54
59.203,44.9
59.218,43.26
59.234,40.83
59.250,38.03
59.265,35.29
59.281,32.9
59.296,30.85
59.312,28.89
59.328,26.68
59.343,23.9
59.359,20.45
59.375,16.47
59.390,12.23
59.406,7.96
59.421,3.84
59.437,-0.12
59.453,-4.04
59.468,-8.07
59.484,-12.42
59.500,-17.29
59.515,-22.8
59.531,-28.96
59.546,-35.39
59.562,-41.36
59.578,-45.75
59.593,-47.43
59.609,-45.6
59.625,-40.04
59.640,-31.36
59.656,-20.65
59.671,-9.23
59.687,1.84
59.703,11.92
59.718,20.79
59.734,28.46
59.750,34.93
59.765,40.13
59.781,43.89
59.796,46.16
59.812,47.06
59.828,46.96
59.843,46.32
59.859,45.44
59.875,44.44
59.890,43.15
59.906,41.32
59.921,38.87
59.937,35.97
59.953,33.04
59.968,30.48
59.984,28.49
