timestamp,value
00.000,12.42
00.015,8.43
00.031,3.66
00.046,-1.16
00.062,-5.37
00.078,-8.18
00.093,-8.72
00.109,-6.29
00.125,-0.74
00.140,7.21
00.156,16.04
00.171,23.85
00.187,29.15
00.203,31.52
00.218,31.91
00.234,32.17
00.250,34.2
00.265,38.92
00.281,45.89
00.296,53.42
00.312,59.49
00.328,62.58
00.343,62.15
00.359,58.67
00.375,53.2
00.390,46.74
00.406,40.01
00.421,33.38
00.437,27.16
00.453,21.76
00.468,17.64
00.484,15.16
00.500,14.29
00.515,14.61
00.531,15.37
00.546,15.8
00.562,15.27
00.578,13.52
00.593,10.53
00.609,6.51
00.625,1.68
00.640,-3.86
00.656,-10.18
00.671,-17.45
00.687,-25.78
00.703,-35.1
00.718,-45.0
00.734,-54.88
00.750,-64.1
00.765,-72.28
00.781,-79.47
00.796,-86.06
00.812,-92.55
00.828,-99.18
00.843,-105.73
00.859,-111.62
00.875,-116.13
00.890,-118.55
00.906,-118.42
00.921,-115.65
00.937,-110.36
00.953,-102.97
00.968,-94.18
00.984,-85.04
01.000,-76.79
01.015,-70.61
01.031,-67.08
01.046,-65.81
01.062,-65.44
01.078,-63.92
01.093,-59.4
01.109,-50.89
01.125,-38.71
01.140,-24.25
01.156,-9.3
01.171,4.75
01.187,17.37
01.203,28.72
01.218,39.17
01.234,48.74
01.250,57.02
01.265,63.45
01.281,67.77
01.296,70.42
01.312,72.32
01.328,74.44
01.343,77.29
01.359,80.64
01.375,83.63
01.390,85.32
01.406,85.19
01.421,83.28
01.437,80.2
01.453,76.73
01.468,73.43
01.484,70.43
01.500,67.35
01.515,63.39
01.531,57.66
01.546,49.6
01.562,39.13
01.578,27.03
01.593,14.59
01.609,3.43
01.625,-5.17
01.640,-10.51
01.656,-12.65
01.671,-12.2
01.687,-10.0
01.703,-6.86
01.718,-3.32
01.734,0.24
01.750,3.56
01.765,6.42
01.781,8.64
01.796,10.07
01.812,10.67
01.828,10.36
01.843,9.09
01.859,6.86
01.875,3.73
01.890,-0.08
01.906,-4.19
01.921,-8.11
01.937,-11.42
01.953,-13.86
01.968,-15.46
01.984,-16.55
02.000,-17.62
02.015,-19.11
02.031,-21.33
02.046,-24.28
02.062,-27.8
02.078,-31.56
02.093,-35.26
02.109,-38.69
02.125,-41.85
02.140,-44.84
02.156,-47.89
02.171,-51.25
02.187,-55.18
02.203,-59.68
02.218,-64.42
02.234,-68.5
02.250,-70.72
02.265,-69.8
02.281,-64.93
02.296,-56.12
02.312,-44.27
02.328,-30.91
02.343,-17.52
02.359,-5.01
02.375,6.63
02.390,18.18
02.406,30.64
02.421,44.72
02.437,60.36
02.453,76.75
02.468,92.48
02.484,106.03
02.500,116.17
02.515,122.18
02.531,123.95
02.546,121.83
02.562,116.51
02.578,108.86
02.593,99.82
02.609,90.38
02.625,81.44
02.640,73.81
02.656,67.98
02.671,64.18
02.687,62.19
02.703,61.52
02.718,61.52
02.734,61.49
02.750,60.8
02.765,58.78
02.781,54.97
02.796,49.23
02.812,42.29
02.828,35.96
02.843,32.96
02.859,36.48
02.875,49.26
02.890,72.65
02.906,105.88
02.921,145.68
02.937,186.39
02.953,220.91
02.968,242.04
02.984,244.13
03.000,224.61
03.015,184.67
03.031,128.99
03.046,64.64
03.062,-0.51
03.078,-59.32
03.093,-106.39
03.109,-138.61
03.125,-155.25
03.140,-157.62
03.156,-148.67
03.171,-132.14
03.187,-111.73
03.203,-90.41
03.218,-70.13
03.234,-52.01
03.250,-36.63
03.265,-24.31
03.281,-14.95
03.296,-7.98
03.312,-2.37
03.328,2.93
03.343,8.45
03.359,13.67
03.375,17.19
03.390,17.43
03.406,13.41
03.421,5.42
03.437,-5.29
03.453,-17.19
03.468,-29.28
03.484,-41.14
03.500,-52.24
03.515,-61.08
03.531,-65.33
03.546,-63.06
03.562,-54.42
03.578,-42.64
03.593,-33.16
03.609,-31.23
03.625,-39.24
03.640,-55.45
03.656,-74.96
03.671,-92.49
03.687,-104.97
03.703,-112.72
03.718,-118.37
03.734,-124.7
03.750,-132.76
03.765,-141.51
03.781,-148.91
03.796,-153.47
03.812,-155.1
03.828,-154.85
03.843,-153.81
03.859,-152.28
03.875,-149.43
03.890,-143.9
03.906,-134.67
03.921,-121.77
03.937,-106.38
03.953,-90.31
03.968,-75.24
03.984,-62.2
04.000,-51.41
04.015,-42.42
04.031,-34.6
04.046,-27.48
04.062,-20.94
04.078,-15.13
04.093,-10.27
04.109,-6.56
04.125,-4.01
04.140,-2.53
04.156,-1.85
04.171,-1.7
04.187,-1.83
04.203,-2.11
04.218,-2.59
04.234,-3.44
04.250,-4.89
04.265,-7.1
04.281,-10.09
04.296,-13.73
04.312,-17.79
04.328,-22.04
04.343,-26.41
04.359,-30.93
04.375,-35.65
04.390,-40.58
04.406,-45.58
04.421,-50.51
04.437,-55.29
04.453,-59.91
04.468,-64.5
04.484,-69.06
04.500,-73.45
04.515,-77.12
04.531,-79.37
04.546,-79.51
04.562,-77.14
04.578,-72.28
04.593,-65.28
04.609,-56.72
04.625,-47.16
04.640,-37.05
04.656,-26.66
04.671,-16.27
04.687,-6.25
04.703,2.92
04.718,10.69
04.734,16.69
04.750,20.76
04.765,23.12
04.781,24.26
04.796,24.74
04.812,24.95
04.828,25.01
04.843,24.83
04.859,24.15
04.875,22.87
04.890,21.08
04.906,19.08
04.921,17.2
04.937,15.58
04.953,14.09
04.968,12.4
04.984,10.09
05.000,6.85
05.015,2.69
05.031,-2.18
05.046,-7.34
05.062,-12.32
05.078,-16.85
05.093,-20.83
05.109,-24.35
05.125,-27.68
05.140,-31.14
05.156,-35.03
05.171,-39.39
05.187,-43.93
05.203,-47.91
05.218,-50.28
05.234,-49.93
05.250,-46.04
05.265,-38.41
05.281,-27.55
05.296,-14.57
05.312,-0.84
05.328,12.35
05.343,24.03
05.359,33.67
05.375,41.11
05.390,46.41
05.406,49.74
05.421,51.38
05.437,51.7
05.453,51.08
05.468,49.96
05.484,48.69
05.500,47.45
05.515,46.3
05.531,45.16
05.546,43.92
05.562,42.57
05.578,41.22
05.593,40.12
05.609,39.52
05.625,39.55
05.640,39.97
05.656,40.29
05.671,39.86
05.687,38.16
05.703,35.0
05.718,30.61
05.734,25.51
05.750,20.31
05.765,15.45
05.781,10.99
05.796,6.68
05.812,2.04
05.828,-3.35
05.843,-9.69
05.859,-16.83
05.875,-24.1
05.890,-30.43
05.906,-34.6
05.921,-35.56
05.937,-32.75
05.953,-26.31
05.968,-17.0
05.984,-5.94
06.000,5.65
06.015,16.81
06.031,26.94
06.046,35.67
06.062,42.81
06.078,48.28
06.093,52.18
06.109,54.76
06.125,56.52
06.140,58.0
06.156,59.6
06.171,61.47
06.187,63.47
06.203,65.26
06.218,66.58
06.234,67.29
06.250,67.5
06.265,67.47
06.281,67.46
06.296,67.57
06.312,67.56
06.328,66.91
06.343,65.01
06.359,61.4
06.375,55.97
06.390,49.01
06.406,41.04
06.421,32.54
06.437,23.75
06.453,14.59
06.468,4.81
06.484,-5.82
06.500,-17.44
06.515,-30.04
06.531,-43.5
06.546,-57.38
06.562,-70.78
06.578,-82.1
06.593,-89.28
06.609,-90.43
06.625,-84.5
06.640,-71.98
06.656,-54.83
06.671,-35.98
06.687,-18.22
06.703,-3.34
06.718,8.4
06.734,18.02
06.750,27.06
06.765,36.73
06.781,47.32
06.796,58.25
06.812,68.42
06.828,76.91
06.843,83.4
06.859,88.34
06.875,92.64
06.890,97.18
06.906,102.36
06.921,107.98
06.937,113.43
06.953,118.05
06.968,121.52
06.984,123.97
07.000,125.79
07.015,127.28
07.031,128.27
07.046,128.04
07.062,125.52
07.078,119.67
07.093,109.95
07.109,96.57
07.125,80.4
07.140,62.7
07.156,44.67
07.171,27.18
07.187,10.76
07.203,-4.1
07.218,-16.65
07.234,-25.76
07.250,-30.37
07.265,-30.11
07.281,-25.75
07.296,-18.96
07.312,-11.54
07.328,-4.55
07.343,1.98
07.359,8.62
07.375,15.73
07.390,22.68
07.406,28.01
07.421,30.29
07.437,29.09
07.453,25.49
07.468,21.53
07.484,19.12
07.500,19.06
07.515,20.74
07.531,22.73
07.546,23.68
07.562,23.06
07.578,21.22
07.593,19.08
07.609,17.53
07.625,16.96
07.640,17.13
07.656,17.27
07.671,16.53
07.687,14.45
07.703,11.18
07.718,7.48
07.734,4.3
07.750,2.27
07.765,1.35
07.781,0.83
07.796,-0.28
07.812,-2.64
07.828,-6.18
07.843,-10.07
07.859,-13.08
07.875,-14.16
07.890,-12.83
07.906,-9.37
07.921,-4.61
07.937,0.42
07.953,4.78
07.968,7.96
07.984,9.78
08.000,10.34
08.015,9.84
08.031,8.38
08.046,5.92
08.062,2.41
08.078,-2.05
08.093,-7.1
08.109,-12.12
08.125,-16.48
08.140,-19.72
08.156,-21.67
08.171,-22.58
08.187,-22.88
08.203,-23.01
08.218,-23.26
08.234,-23.76
08.250,-24.54
08.265,-25.7
08.281,-27.32
08.296,-29.47
08.312,-32.09
08.328,-34.95
08.343,-37.74
08.359,-40.21
08.375,-42.22
08.390,-43.78
08.406,-45.02
08.421,-46.04
08.437,-46.97
08.453,-47.86
08.468,-48.62
08.484,-48.97
08.500,-48.51
08.515,-46.65
08.531,-43.01
08.546,-37.48
08.562,-30.41
08.578,-22.47
08.593,-14.47
08.609,-7.02
08.625,-0.46
08.640,5.09
08.656,9.64
08.671,13.22
08.687,15.8
08.703,17.41
08.718,18.15
08.734,18.2
08.750,17.79
08.765,17.05
08.781,15.96
08.796,14.36
08.812,12.12
08.828,9.11
08.843,5.37
08.859,1.03
08.875,-3.75
08.890,-8.79
08.906,-13.91
08.921,-18.9
08.937,-23.46
08.953,-27.29
08.968,-30.15
08.984,-32.04
09.000,-33.18
09.015,-33.97
09.031,-34.88
09.046,-36.31
09.062,-38.47
09.078,-41.47
09.093,-45.38
09.109,-50.14
09.125,-55.55
09.140,-61.05
09.156,-65.76
09.171,-68.55
09.187,-68.46
09.203,-64.95
09.218,-58.28
09.234,-49.38
09.250,-39.67
09.265,-30.5
09.281,-22.89
09.296,-17.29
09.312,-13.61
09.328,-11.46
09.343,-10.31
09.359,-9.63
09.375,-8.99
09.390,-8.11
09.406,-6.77
09.421,-4.93
09.437,-2.67
09.453,-0.12
09.468,2.54
09.484,5.15
09.500,7.62
09.515,9.92
09.531,11.95
09.546,13.71
09.562,15.21
09.578,16.49
09.593,17.64
09.609,18.73
09.625,19.66
09.640,20.27
09.656,20.32
09.671,19.69
09.687,18.4
09.703,16.68
09.718,14.81
09.734,12.96
09.750,11.11
09.765,9.14
09.781,7.01
09.796,4.99
09.812,3.64
09.828,3.67
09.843,5.61
09.859,9.58
09.875,15.13
09.890,21.47
09.906,27.7
09.921,33.19
09.937,37.65
09.953,41.12
09.968,43.73
09.984,45.46
10.000,46.13
10.015,45.38
10.031,43.01
10.046,39.12
10.062,34.21
10.078,29.08
10.093,24.46
10.109,20.84
10.125,18.27
10.140,16.42
10.156,14.79
10.171,12.91
10.187,10.53
10.203,7.56
10.218,4.02
10.234,-0.09
10.250,-4.72
10.265,-9.72
10.281,-14.85
10.296,-19.7
10.312,-23.84
10.328,-26.99
10.343,-29.17
10.359,-30.75
10.375,-32.29
10.390,-34.33
10.406,-37.14
10.421,-40.54
10.437,-43.88
10.453,-46.17
10.468,-46.46
10.484,-44.14
10.500,-39.19
10.515,-32.24
10.531,-24.32
10.546,-16.56
10.562,-9.78
10.578,-4.38
10.593,-0.41
10.609,2.34
10.625,4.0
10.640,4.55
10.656,3.91
10.671,2.02
10.687,-1.03
10.703,-4.93
10.718,-9.28
10.734,-13.74
10.750,-18.09
10.765,-22.21
10.781,-26.06
10.796,-29.6
10.812,-32.71
10.828,-35.34
10.843,-37.49
10.859,-39.26
10.875,-40.83
10.890,-42.27
10.906,-43.57
10.921,-44.67
10.937,-45.47
10.953,-45.89
10.968,-46.02
10.984,-46.04
11.000,-46.23
11.015,-46.92
11.031,-48.37
11.046,-50.71
11.062,-53.73
11.078,-56.84
11.093,-59.14
11.109,-59.56
11.125,-57.28
11.140,-52.0
11.156,-44.1
11.171,-34.46
11.187,-24.21
11.203,-14.34
11.218,-5.54
11.234,1.83
11.250,7.68
11.265,11.97
11.281,14.71
11.296,15.95
11.312,15.89
11.328,14.88
11.343,13.32
11.359,11.62
11.375,10.0
11.390,8.58
11.406,7.46
11.421,6.63
11.437,6.13
11.453,5.94
11.468,5.94
11.484,5.91
11.500,5.62
11.515,4.9
11.531,3.67
11.546,1.99
11.562,-0.09
11.578,-2.54
11.593,-5.38
11.609,-8.66
11.625,-12.38
11.640,-16.49
11.656,-20.96
11.671,-25.82
11.687,-31.16
11.703,-36.9
11.718,-42.59
11.734,-47.34
11.750,-49.95
11.765,-49.25
11.781,-44.67
11.796,-36.43
11.812,-25.55
11.828,-13.45
11.843,-1.52
11.859,9.33
11.875,18.68
11.890,26.48
11.906,32.81
11.921,37.67
11.937,40.93
11.953,42.5
11.968,42.48
11.984,41.24
12.000,39.38
12.015,37.51
12.031,36.1
12.046,35.32
12.062,35.03
12.078,34.88
12.093,34.58
12.109,33.99
12.125,33.21
12.140,32.45
12.156,31.82
12.171,31.25
12.187,30.41
12.203,28.84
12.218,26.16
12.234,22.27
12.250,17.4
12.265,12.03
12.281,6.69
12.296,1.74
12.312,-2.82
12.328,-7.2
12.343,-11.9
12.359,-17.39
12.375,-23.95
12.390,-31.6
12.406,-39.99
12.421,-48.39
12.437,-55.74
12.453,-60.89
12.468,-62.79
12.484,-60.94
12.500,-55.46
12.515,-47.17
12.531,-37.24
12.546,-26.88
12.562,-16.95
12.578,-7.84
12.593,0.33
12.609,7.56
12.625,13.7
12.640,18.55
12.656,21.92
12.671,23.84
12.687,24.59
12.703,24.58
12.718,24.13
12.734,23.31
12.750,21.99
12.765,19.99
12.781,17.38
12.796,14.46
12.812,11.69
12.828,9.51
12.843,8.13
12.859,7.4
12.875,7.01
12.890,6.71
12.906,6.36
12.921,6.0
12.937,5.69
12.953,5.34
12.968,4.76
12.984,3.68
13.000,1.94
13.015,-0.42
13.031,-3.14
13.046,-5.98
13.062,-8.82
13.078,-11.73
13.093,-15.03
13.109,-19.08
13.125,-24.24
13.140,-30.66
13.156,-38.12
13.171,-45.83
13.187,-52.59
13.203,-56.92
13.218,-57.52
13.234,-53.78
13.250,-45.99
13.265,-35.25
13.281,-23.17
13.296,-11.23
13.312,-0.52
13.328,8.48
13.343,15.67
13.359,21.05
13.375,24.6
13.390,26.33
13.406,26.34
13.421,25.03
13.437,22.99
13.453,20.88
13.468,19.27
13.484,18.41
13.500,18.33
13.515,18.85
13.531,19.77
13.546,20.93
13.562,22.21
13.578,23.51
13.593,24.77
13.609,25.86
13.625,26.69
13.640,27.19
13.656,27.28
13.671,26.89
13.687,25.93
13.703,24.36
13.718,22.18
13.734,19.47
13.750,16.38
13.765,13.11
13.781,9.84
13.796,6.65
13.812,3.49
13.828,0.16
13.843,-3.63
13.859,-8.15
13.875,-13.58
13.890,-19.77
13.906,-26.11
13.921,-31.52
13.937,-34.73
13.953,-34.6
13.968,-30.51
13.984,-22.66
14.000,-11.97
14.015,0.15
14.031,12.29
14.046,23.3
14.062,32.49
14.078,39.55
14.093,44.39
14.109,47.06
14.125,47.66
14.140,46.5
14.156,44.08
14.171,41.07
14.187,38.16
14.203,35.91
14.218,34.59
14.234,34.14
14.250,34.22
14.265,34.42
14.281,34.4
14.296,33.95
14.312,33.12
14.328,32.05
14.343,30.89
14.359,29.71
14.375,28.38
14.390,26.66
14.406,24.32
14.421,21.23
14.437,17.44
14.453,13.19
14.468,8.78
14.484,4.47
14.500,0.41
14.515,-3.41
14.531,-7.18
14.546,-11.27
14.562,-16.08
14.578,-21.85
14.593,-28.43
14.609,-35.14
14.625,-40.75
14.640,-43.85
14.656,-43.23
14.671,-38.43
14.687,-29.9
14.703,-18.88
14.718,-6.92
14.734,4.56
14.750,14.5
14.765,22.38
14.781,27.99
14.796,31.24
14.812,32.23
14.828,31.1
14.843,28.26
14.859,24.37
14.875,20.22
14.890,16.52
14.906,13.74
14.921,12.01
14.937,11.11
14.953,10.77
14.968,10.69
14.984,10.75
15.000,10.93
15.015,11.24
15.031,11.59
15.046,11.78
15.062,11.52
15.078,10.53
15.093,8.71
15.109,6.18
15.125,3.23
15.140,0.19
15.156,-2.68
15.171,-5.31
15.187,-7.78
15.203,-10.37
15.218,-13.4
15.234,-17.12
15.250,-21.64
15.265,-26.73
15.281,-31.79
15.296,-35.8
15.312,-37.58
15.328,-36.07
15.343,-30.83
15.359,-22.17
15.375,-11.08
15.390,0.91
15.406,12.38
15.421,22.24
15.437,29.98
15.453,35.48
15.468,38.85
15.484,40.23
15.500,39.77
15.515,37.72
15.531,34.42
15.546,30.36
15.562,26.08
15.578,22.06
15.593,18.62
15.609,15.89
15.625,13.81
15.640,12.27
15.656,11.07
15.671,9.94
15.687,8.6
15.703,6.8
15.718,4.34
15.734,1.19
15.750,-2.53
15.765,-6.54
15.781,-10.54
15.796,-14.19
15.812,-17.37
15.828,-20.1
15.843,-22.6
15.859,-25.26
15.875,-28.46
15.890,-32.56
15.906,-37.62
15.921,-43.28
15.937,-48.66
15.953,-52.54
15.968,-53.62
15.984,-50.96
16.000,-44.33
16.015,-34.34
16.031,-22.32
16.046,-9.88
16.062,1.48
16.078,10.75
16.093,17.56
16.109,21.94
16.125,24.22
16.140,24.77
16.156,23.94
16.171,22.09
16.187,19.58
16.203,16.82
16.218,14.18
16.234,12.04
16.250,10.57
16.265,9.74
16.281,9.39
16.296,9.29
16.312,9.22
16.328,8.98
16.343,8.43
16.359,7.46
16.375,6.01
16.390,4.08
16.406,1.74
16.421,-0.88
16.437,-3.61
16.453,-6.25
16.468,-8.67
16.484,-10.86
16.500,-12.96
16.515,-15.29
16.531,-18.3
16.546,-22.3
16.562,-27.35
16.578,-32.99
16.593,-38.17
16.609,-41.52
16.625,-41.68
16.640,-37.82
16.656,-30.06
16.671,-19.44
16.687,-7.56
16.703,3.91
16.718,13.74
16.734,21.32
16.750,26.61
16.765,29.87
16.781,31.41
16.796,31.52
16.812,30.5
16.828,28.76
16.843,26.78
16.859,25.05
16.875,23.85
16.890,23.25
16.906,22.99
16.921,22.74
16.937,22.23
16.953,21.36
16.968,20.23
16.984,19.03
17.000,17.9
17.015,16.81
17.031,15.57
17.046,13.88
17.062,11.52
17.078,8.43
17.093,4.8
17.109,0.97
17.125,-2.75
17.140,-6.17
17.156,-9.32
17.171,-12.5
17.187,-16.09
17.203,-20.5
17.218,-25.94
17.234,-32.36
17.250,-39.28
17.265,-45.83
17.281,-50.8
17.296,-52.97
17.312,-51.48
17.328,-46.07
17.343,-37.25
17.359,-26.16
17.375,-14.23
17.390,-2.74
17.406,7.37
17.421,15.72
17.437,22.3
17.453,27.29
17.468,30.92
17.484,33.37
17.500,34.81
17.515,35.44
17.531,35.49
17.546,35.16
17.562,34.65
17.578,34.13
17.593,33.69
17.609,33.38
17.625,33.19
17.640,33.11
17.656,33.14
17.671,33.27
17.687,33.47
17.703,33.69
17.718,33.82
17.734,33.68
17.750,33.15
17.765,32.14
17.781,30.66
17.796,28.88
17.812,27.01
17.828,25.23
17.843,23.65
17.859,22.26
17.875,20.97
17.890,19.74
17.906,18.5
17.921,17.19
17.937,15.78
17.953,14.27
17.968,12.71
17.984,11.25
18.000,10.02
18.015,9.15
18.031,8.65
18.046,8.41
18.062,8.23
18.078,7.93
18.093,7.38
18.109,6.59
18.125,5.64
18.140,4.62
18.156,3.6
18.171,2.6
18.187,1.59
18.203,0.49
18.218,-0.76
18.234,-2.22
18.250,-3.87
18.265,-5.64
18.281,-7.45
18.296,-9.19
18.312,-10.79
18.328,-12.23
18.343,-13.55
18.359,-14.86
18.375,-16.28
18.390,-17.88
18.406,-19.6
18.421,-21.32
18.437,-22.81
18.453,-23.99
18.468,-24.91
18.484,-25.87
18.500,-27.22
18.515,-29.31
18.531,-32.26
18.546,-35.87
18.562,-39.76
18.578,-43.48
18.593,-46.74
18.609,-49.47
18.625,-51.89
18.640,-54.35
18.656,-57.34
18.671,-61.26
18.687,-66.27
18.703,-72.09
18.718,-77.9
18.734,-82.37
18.750,-83.92
18.765,-81.22
18.781,-73.67
18.796,-61.74
18.812,-46.84
18.828,-30.94
18.843,-15.85
18.859,-2.84
18.875,7.64
18.890,15.62
18.906,21.44
18.921,25.25
18.937,27.1
18.953,27.06
18.968,25.42
18.984,22.81
19.000,20.06
19.015,18.02
19.031,17.15
19.046,17.53
19.062,18.78
19.078,20.36
19.093,21.81
19.109,22.85
19.125,23.5
19.140,23.84
19.156,23.9
19.171,23.46
19.187,22.2
19.203,19.79
19.218,16.19
19.234,11.7
19.250,6.86
19.265,2.27
19.281,-1.66
19.296,-4.88
19.312,-7.65
19.328,-10.41
19.343,-13.54
19.359,-17.28
19.375,-21.63
19.390,-26.45
19.406,-31.4
19.421,-35.95
19.437,-39.39
19.453,-40.9
19.468,-39.78
19.484,-35.66
19.500,-28.72
19.515,-19.62
19.531,-9.41
19.546,0.78
19.562,10.03
19.578,17.67
19.593,23.39
19.609,27.01
19.625,28.52
19.640,28.02
19.656,25.88
19.671,22.65
19.687,19.0
19.703,15.56
19.718,12.71
19.734,10.62
19.750,9.23
19.765,8.4
19.781,7.97
19.796,7.84
19.812,7.95
19.828,8.17
19.843,8.37
19.859,8.29
19.875,7.68
19.890,6.32
19.906,4.1
19.921,1.09
19.937,-2.53
19.953,-6.42
19.968,-10.25
19.984,-13.74
20.000,-16.82
20.015,-19.61
20.031,-22.45
20.046,-25.8
20.062,-29.97
20.078,-35.04
20.093,-40.6
20.109,-45.64
20.125,-48.82
20.140,-48.86
20.156,-44.93
20.171,-37.06
20.187,-26.21
20.203,-13.87
20.218,-1.66
20.234,9.14
20.250,17.87
20.265,24.35
20.281,28.7
20.296,31.11
20.312,31.75
20.328,30.88
20.343,28.85
20.359,26.26
20.375,23.73
20.390,21.71
20.406,20.33
20.421,19.42
20.437,18.66
20.453,17.8
20.468,16.75
20.484,15.63
20.500,14.63
20.515,13.78
20.531,12.96
20.546,11.88
20.562,10.17
20.578,7.62
20.593,4.27
20.609,0.41
20.625,-3.51
20.640,-7.1
20.656,-10.2
20.671,-12.87
20.687,-15.41
20.703,-18.26
20.718,-21.82
20.734,-26.39
20.750,-31.95
20.765,-38.14
20.781,-44.16
20.796,-48.86
20.812,-50.96
20.828,-49.33
20.843,-43.6
20.859,-34.17
20.875,-22.24
20.890,-9.38
20.906,2.96
20.921,13.76
20.937,22.59
20.953,29.43
20.968,34.38
20.984,37.45
21.000,38.6
21.015,37.79
21.031,35.32
21.046,31.87
21.062,28.33
21.078,25.58
21.093,24.11
21.109,23.86
21.125,24.29
21.140,24.72
21.156,24.57
21.171,23.69
21.187,22.35
21.203,20.88
21.218,19.49
21.234,18.05
21.250,16.16
21.265,13.41
21.281,9.68
21.296,5.13
21.312,0.23
21.328,-4.45
21.343,-8.53
21.359,-11.9
21.375,-14.82
21.390,-17.65
21.406,-20.86
21.421,-24.81
21.437,-29.72
21.453,-35.56
21.468,-41.98
21.484,-48.27
21.500,-53.28
21.515,-55.81
21.531,-54.77
21.546,-49.56
21.562,-40.38
21.578,-28.16
21.593,-14.4
21.609,-0.77
21.625,11.36
21.640,21.23
21.656,28.65
21.671,33.88
21.687,37.33
21.703,39.4
21.718,40.37
21.734,40.49
21.750,39.99
21.765,39.17
21.781,38.36
21.796,37.76
21.812,37.42
21.828,37.26
21.843,37.11
21.859,36.78
21.875,36.15
21.890,35.24
21.906,34.04
21.921,32.59
21.937,30.92
21.953,29.03
21.968,26.88
21.984,24.4
22.000,21.49
22.015,18.06
22.031,14.09
22.046,9.64
22.062,4.84
22.078,-0.12
22.093,-5.07
22.109,-9.82
22.125,-14.3
22.140,-18.41
22.156,-22.12
22.171,-25.43
22.187,-28.43
22.203,-31.37
22.218,-34.58
22.234,-38.43
22.250,-43.08
22.265,-48.36
22.281,-53.53
22.296,-57.38
22.312,-58.51
22.328,-55.78
22.343,-48.78
22.359,-38.07
22.375,-25.04
22.390,-11.37
22.406,1.46
22.421,12.61
22.437,21.85
22.453,29.36
22.468,35.36
22.484,39.92
22.500,42.99
22.515,44.59
22.531,44.93
22.546,44.48
22.562,43.83
22.578,43.41
22.593,43.38
22.609,43.57
22.625,43.64
22.640,43.27
22.656,42.26
22.671,40.73
22.687,38.93
22.703,37.2
22.718,35.8
22.734,34.7
22.750,33.66
22.765,32.31
22.781,30.3
22.796,27.44
22.812,23.92
22.828,20.09
22.843,16.4
22.859,13.11
22.875,10.24
22.890,7.5
22.906,4.44
22.921,0.74
22.937,-3.7
22.953,-8.63
22.968,-13.61
22.984,-18.2
23.000,-22.18
23.015,-25.61
23.031,-28.74
23.046,-31.97
23.062,-35.66
23.078,-40.09
23.093,-45.33
23.109,-51.15
23.125,-56.91
23.140,-61.52
23.156,-63.73
23.171,-62.39
23.187,-57.0
23.203,-47.88
23.218,-36.12
23.234,-23.19
23.250,-10.49
23.265,1.06
23.281,11.1
23.296,19.55
23.312,26.47
23.328,31.83
23.343,35.57
23.359,37.7
23.375,38.4
23.390,38.09
23.406,37.25
23.421,36.31
23.437,35.53
23.453,34.95
23.468,34.52
23.484,34.06
23.500,33.47
23.515,32.75
23.531,31.94
23.546,31.18
23.562,30.54
23.578,29.96
23.593,29.19
23.609,27.94
23.625,25.9
23.640,23.03
23.656,19.51
23.671,15.75
23.687,12.15
23.703,8.95
23.718,6.13
23.734,3.46
23.750,0.62
23.765,-2.62
23.781,-6.3
23.796,-10.21
23.812,-14.04
23.828,-17.45
23.843,-20.22
23.859,-22.37
23.875,-24.17
23.890,-26.07
23.906,-28.54
23.921,-31.95
23.937,-36.41
23.953,-41.7
23.968,-47.2
23.984,-51.94
24.000,-54.85
24.015,-54.95
24.031,-51.67
24.046,-45.05
24.062,-35.76
24.078,-24.96
24.093,-13.89
24.109,-3.58
24.125,5.33
24.140,12.58
24.156,18.21
24.171,22.34
24.187,25.07
24.203,26.52
24.218,26.88
24.234,26.47
24.250,25.65
24.265,24.79
24.281,24.15
24.296,23.82
24.312,23.73
24.328,23.74
24.343,23.68
24.359,23.53
24.375,23.36
24.390,23.26
24.406,23.28
24.421,23.29
24.437,23.0
24.453,22.11
24.468,20.34
24.484,17.71
24.500,14.45
24.515,10.97
24.531,7.59
24.546,4.49
24.562,1.62
24.578,-1.19
24.593,-4.07
24.609,-7.03
24.625,-9.92
24.640,-12.55
24.656,-14.8
24.671,-16.72
24.687,-18.51
24.703,-20.46
24.718,-22.9
24.734,-26.09
24.750,-30.08
24.765,-34.65
24.781,-39.17
24.796,-42.69
24.812,-44.17
24.828,-42.75
24.843,-38.1
24.859,-30.59
24.875,-21.12
24.890,-10.9
24.906,-1.1
24.921,7.44
24.937,14.31
24.953,19.43
24.968,22.94
24.984,25.04
25.000,26.01
25.015,26.1
25.031,25.6
25.046,24.8
25.062,23.91
25.078,23.09
25.093,22.4
25.109,21.81
25.125,21.29
25.140,20.83
25.156,20.39
25.171,19.98
25.187,19.58
25.203,19.12
25.218,18.53
25.234,17.7
25.250,16.53
25.265,14.96
25.281,12.99
25.296,10.71
25.312,8.24
25.328,5.68
25.343,3.1
25.359,0.5
25.375,-2.14
25.390,-4.83
25.406,-7.55
25.421,-10.25
25.437,-12.83
25.453,-15.21
25.468,-17.39
25.484,-19.46
25.500,-21.63
25.515,-24.22
25.531,-27.52
25.546,-31.63
25.562,-36.35
25.578,-41.07
25.593,-44.78
25.609,-46.43
25.625,-45.15
25.640,-40.61
25.656,-33.23
25.671,-23.99
25.687,-14.17
25.703,-4.98
25.718,2.75
25.734,8.79
25.750,13.28
25.765,16.62
25.781,19.13
25.796,20.98
25.812,22.21
25.828,22.84
25.843,23.04
25.859,23.05
25.875,23.13
25.890,23.41
25.906,23.8
25.921,24.07
25.937,23.98
25.953,23.49
25.968,22.75
25.984,22.02
26.000,21.52
26.015,21.24
26.031,20.94
26.046,20.22
26.062,18.76
26.078,16.46
26.093,13.52
26.109,10.33
26.125,7.29
26.140,4.69
26.156,2.54
26.171,0.61
26.187,-1.46
26.203,-3.92
26.218,-6.88
26.234,-10.21
26.250,-13.66
26.265,-16.94
26.281,-19.86
26.296,-22.37
26.312,-24.61
26.328,-26.86
26.343,-29.41
26.359,-32.51
26.375,-36.3
26.390,-40.7
26.406,-45.28
26.421,-49.25
26.437,-51.6
26.453,-51.33
26.468,-47.8
26.484,-41.05
26.500,-31.82
26.515,-21.34
26.531,-10.96
26.546,-1.77
26.562,5.72
26.578,11.53
26.593,16.01
26.609,19.54
26.625,22.35
26.640,24.42
26.656,25.68
26.671,26.11
26.687,25.84
26.703,25.18
26.718,24.49
26.734,23.96
26.750,23.68
26.765,23.5
26.781,23.29
26.796,22.97
26.812,22.64
26.828,22.46
26.843,22.53
26.859,22.78
26.875,22.94
26.890,22.64
26.906,21.57
26.921,19.6
26.937,16.87
26.953,13.68
26.968,10.46
26.984,7.55
27.000,5.12
27.015,3.14
27.031,1.43
27.046,-0.31
27.062,-2.42
27.078,-5.07
27.093,-8.26
27.109,-11.73
27.125,-15.18
27.140,-18.31
27.156,-21.03
27.171,-23.43
27.187,-25.82
27.203,-28.61
27.218,-32.11
27.234,-36.51
27.250,-41.72
27.265,-47.41
27.281,-52.91
27.296,-57.29
27.312,-59.53
27.328,-58.73
27.343,-54.49
27.359,-47.0
27.375,-37.13
27.390,-26.09
27.406,-15.15
27.421,-5.23
27.437,3.18
27.453,10.04
27.468,15.55
27.484,19.93
27.500,23.33
27.515,25.79
27.531,27.32
27.546,28.02
27.562,28.09
27.578,27.77
27.593,27.29
27.609,26.8
27.625,26.31
27.640,25.81
27.656,25.31
27.671,24.9
27.687,24.69
27.703,24.8
27.718,25.2
27.734,25.72
27.750,26.08
27.765,25.98
27.781,25.18
27.796,23.61
27.812,21.32
27.828,18.51
27.843,15.41
27.859,12.27
27.875,9.29
27.890,6.6
27.906,4.2
27.921,2.0
27.937,-0.2
27.953,-2.62
27.968,-5.39
27.984,-8.51
28.000,-11.83
28.015,-15.15
28.031,-18.25
28.046,-21.06
28.062,-23.69
28.078,-26.3
28.093,-29.12
28.109,-32.32
28.125,-36.01
28.140,-40.2
28.156,-44.74
28.171,-49.18
28.187,-52.76
28.203,-54.5
28.218,-53.47
28.234,-49.12
28.250,-41.56
28.265,-31.61
28.281,-20.57
28.296,-9.77
28.312,-0.24
28.328,7.6
28.343,13.77
28.359,18.59
28.375,22.39
28.390,25.32
28.406,27.35
28.421,28.43
28.437,28.65
28.453,28.2
28.468,27.43
28.484,26.72
28.500,26.27
28.515,26.12
28.531,26.14
28.546,26.21
28.562,26.23
28.578,26.17
28.593,26.06
28.609,25.87
28.625,25.54
28.640,24.91
28.656,23.85
28.671,22.23
28.687,20.06
28.703,17.42
28.718,14.44
28.734,11.25
28.750,7.97
28.765,4.8
28.781,1.84
28.796,-0.76
28.812,-3.09
28.828,-5.25
28.843,-7.48
28.859,-9.93
28.875,-12.65
28.890,-15.52
28.906,-18.33
28.921,-20.9
28.937,-23.11
28.953,-25.08
28.968,-27.05
28.984,-29.37
29.000,-32.44
29.015,-36.52
29.031,-41.61
29.046,-47.27
29.062,-52.63
29.078,-56.47
29.093,-57.64
29.109,-55.39
29.125,-49.69
29.140,-41.27
29.156,-31.25
29.171,-20.86
29.187,-11.07
29.203,-2.39
29.218,5.01
29.234,11.16
29.250,16.09
29.265,19.82
29.281,22.29
29.296,23.58
29.312,23.93
29.328,23.71
29.343,23.29
29.359,23.0
29.375,22.93
29.390,23.07
29.406,23.23
29.421,23.29
29.437,23.22
29.453,23.03
29.468,22.77
29.484,22.51
29.500,22.16
29.515,21.57
29.531,20.54
29.546,18.89
29.562,16.58
29.578,13.76
29.593,10.7
29.609,7.7
29.625,4.99
29.640,2.59
29.656,0.31
29.671,-2.11
29.687,-4.87
29.703,-7.98
29.718,-11.24
29.734,-14.35
29.750,-17.09
29.765,-19.35
29.781,-21.27
29.796,-23.1
29.812,-25.13
29.828,-27.63
29.843,-30.74
29.859,-34.44
29.875,-38.5
29.890,-42.35
29.906,-45.15
29.921,-45.91
29.937,-43.81
29.953,-38.48
29.968,-30.26
29.984,-20.13
30.000,-9.43
30.015,0.52
30.031,8.86
30.046,15.25
30.062,19.79
30.078,22.77
30.093,24.42
30.109,24.87
30.125,24.21
30.140,22.65
30.156,20.6
30.171,18.65
30.187,17.3
30.203,16.84
30.218,17.21
30.234,18.12
30.250,19.14
30.265,19.92
30.281,20.32
30.296,20.33
30.312,20.05
30.328,19.52
30.343,18.78
30.359,17.79
30.375,16.53
30.390,15.01
30.406,13.17
30.421,11.03
30.437,8.52
30.453,5.6
30.468,2.24
30.484,-1.48
30.500,-5.4
30.515,-9.32
30.531,-13.0
30.546,-16.31
30.562,-19.27
30.578,-22.1
30.593,-25.12
30.609,-28.73
30.625,-33.03
30.640,-37.86
30.656,-42.57
30.671,-46.16
30.687,-47.52
30.703,-45.74
30.718,-40.48
30.734,-32.03
30.750,-21.4
30.765,-9.87
30.781,1.22
30.796,10.8
30.812,18.33
30.828,23.7
30.843,27.21
30.859,29.22
30.875,30.12
30.890,30.14
30.906,29.39
30.921,27.98
30.937,26.12
30.953,24.24
30.968,22.76
30.984,22.09
31.000,22.25
31.015,22.96
31.031,23.73
31.046,24.07
31.062,23.7
31.078,22.62
31.093,21.1
31.109,19.4
31.125,17.69
31.140,15.91
31.156,13.84
31.171,11.28
31.187,8.11
31.203,4.34
31.218,0.09
31.234,-4.35
31.250,-8.77
31.265,-12.94
31.281,-16.75
31.296,-20.25
31.312,-23.6
31.328,-27.03
31.343,-30.8
31.359,-35.08
31.375,-39.85
31.390,-44.89
31.406,-49.66
31.421,-53.4
31.437,-55.22
31.453,-54.28
31.468,-50.12
31.484,-42.75
31.500,-32.83
31.515,-21.5
31.531,-10.06
31.546,0.39
31.562,9.16
31.578,16.01
31.593,21.07
31.609,24.6
31.625,26.8
31.640,27.83
31.656,27.82
31.671,27.02
31.687,25.82
31.703,24.69
31.718,23.94
31.734,23.72
31.750,23.95
31.765,24.4
31.781,24.78
31.796,24.88
31.812,24.56
31.828,23.77
31.843,22.52
31.859,20.81
31.875,18.71
31.890,16.23
31.906,13.46
31.921,10.42
31.937,7.13
31.953,3.58
31.968,-0.18
31.984,-4.07
32.000,-7.96
32.015,-11.74
32.031,-15.36
32.046,-18.73
32.062,-21.78
32.078,-24.46
32.093,-26.79
32.109,-28.94
32.125,-31.27
32.140,-34.19
32.156,-37.98
32.171,-42.49
32.187,-46.99
32.203,-50.24
32.218,-50.96
32.234,-48.22
32.250,-41.87
32.265,-32.61
32.281,-21.71
32.296,-10.56
32.312,-0.3
32.328,8.44
32.343,15.53
32.359,21.08
32.375,25.36
32.390,28.49
32.406,30.61
32.421,31.86
32.437,32.42
32.453,32.51
32.468,32.34
32.484,32.02
32.500,31.57
32.515,31.0
32.531,30.26
32.546,29.41
32.562,28.57
32.578,27.85
32.593,27.3
32.609,26.87
32.625,26.41
32.640,25.69
32.656,24.55
32.671,22.85
32.687,20.54
32.703,17.67
32.718,14.34
32.734,10.71
32.750,6.9
32.765,3.03
32.781,-0.82
32.796,-4.56
32.812,-8.13
32.828,-11.44
32.843,-14.43
32.859,-17.1
32.875,-19.55
32.890,-22.01
32.906,-24.83
32.921,-28.38
32.937,-32.92
32.953,-38.42
32.968,-44.45
32.984,-50.1
33.000,-54.11
33.015,-55.23
33.031,-52.56
33.046,-45.95
33.062,-36.08
33.078,-24.24
33.093,-11.91
33.109,-0.32
33.125,9.8
33.140,18.19
33.156,24.92
33.171,30.13
33.187,33.87
33.203,36.1
33.218,36.87
33.234,36.35
33.250,34.94
33.265,33.19
33.281,31.61
33.296,30.49
33.312,29.89
33.328,29.64
33.343,29.53
33.359,29.41
33.375,29.26
33.390,29.15
33.406,29.12
33.421,29.05
33.437,28.64
33.453,27.56
33.468,25.6
33.484,22.84
33.500,19.55
33.515,16.14
33.531,12.9
33.546,9.99
33.562,7.25
33.578,4.42
33.593,1.29
33.609,-2.26
33.625,-6.16
33.640,-10.21
33.656,-14.18
33.671,-17.89
33.687,-21.25
33.703,-24.37
33.718,-27.37
33.734,-30.46
33.750,-33.89
33.765,-37.85
33.781,-42.36
33.796,-47.14
33.812,-51.49
33.828,-54.31
33.843,-54.45
33.859,-51.05
33.875,-43.94
33.890,-33.83
33.906,-22.03
33.921,-10.08
33.937,0.77
33.953,9.85
33.968,17.02
33.984,22.45
34.000,26.39
34.015,28.96
34.031,30.15
34.046,30.06
34.062,28.88
34.078,27.03
34.093,25.02
34.109,23.33
34.125,22.25
34.140,21.86
34.156,22.02
34.171,22.46
34.187,22.98
34.203,23.44
34.218,23.69
34.234,23.68
34.250,23.29
34.265,22.46
34.281,21.14
34.296,19.4
34.312,17.28
34.328,14.9
34.343,12.3
34.359,9.49
34.375,6.45
34.390,3.23
34.406,-0.14
34.421,-3.57
34.437,-6.98
34.453,-10.31
34.468,-13.5
34.484,-16.58
34.500,-19.58
34.515,-22.61
34.531,-25.85
34.546,-29.41
34.562,-33.29
34.578,-37.24
34.593,-40.63
34.609,-42.59
34.625,-42.2
34.640,-38.84
34.656,-32.43
34.671,-23.59
34.687,-13.43
34.703,-3.24
34.718,5.89
34.734,13.38
34.750,19.15
34.765,23.39
34.781,26.33
34.796,28.14
34.812,28.83
34.828,28.46
34.843,27.25
34.859,25.55
34.875,23.83
34.890,22.54
34.906,21.91
34.921,21.94
34.937,22.36
34.953,22.82
34.968,23.03
34.984,22.83
35.000,22.25
35.015,21.41
35.031,20.39
35.046,19.16
35.062,17.55
35.078,15.33
35.093,12.32
35.109,8.6
35.125,4.36
35.140,-0.07
35.156,-4.38
35.171,-8.4
35.187,-12.01
35.203,-15.2
35.218,-17.97
35.234,-20.42
35.250,-22.68
35.265,-25.03
35.281,-27.83
35.296,-31.43
35.312,-35.94
35.328,-40.99
35.343,-45.68
35.359,-48.81
35.375,-49.13
35.390,-45.92
35.406,-39.21
35.421,-29.85
35.437,-19.18
35.453,-8.63
35.468,0.8
35.484,8.62
35.500,14.78
35.515,19.5
35.531,22.93
35.546,25.16
35.562,26.21
35.578,26.12
35.593,25.13
35.609,23.52
35.625,21.67
35.640,19.92
35.656,18.53
35.671,17.65
35.687,17.36
35.703,17.66
35.718,18.4
35.734,19.35
35.750,20.17
35.765,20.56
35.781,20.31
35.796,19.35
35.812,17.76
35.828,15.74
35.843,13.48
35.859,10.99
35.875,8.2
35.890,4.87
35.906,0.88
35.921,-3.75
35.937,-8.78
35.953,-13.85
35.968,-18.57
35.984,-22.75
36.000,-26.42
36.015,-29.72
36.031,-32.92
36.046,-36.27
36.062,-39.97
36.078,-44.1
36.093,-48.5
36.109,-52.68
36.125,-55.77
36.140,-56.76
36.156,-54.71
36.171,-49.22
36.187,-40.58
36.203,-29.73
36.218,-17.99
36.234,-6.56
36.250,3.64
36.265,12.17
36.281,18.92
36.296,24.0
36.312,27.5
36.328,29.58
36.343,30.42
36.359,30.28
36.375,29.5
36.390,28.41
36.406,27.33
36.421,26.48
36.437,25.97
36.453,25.81
36.468,25.93
36.484,26.16
36.500,26.32
36.515,26.25
36.531,25.83
36.546,25.05
36.562,23.87
36.578,22.31
36.593,20.36
36.609,18.09
36.625,15.54
36.640,12.79
36.656,9.86
36.671,6.73
36.687,3.28
36.703,-0.56
36.718,-4.78
36.734,-9.25
36.750,-13.73
36.765,-17.92
36.781,-21.64
36.796,-24.8
36.812,-27.55
36.828,-30.16
36.843,-33.0
36.859,-36.43
36.875,-40.68
36.890,-45.6
36.906,-50.58
36.921,-54.59
36.937,-56.39
36.953,-54.94
36.968,-49.76
36.984,-41.22
37.000,-30.42
37.015,-18.85
37.031,-7.89
37.046,1.57
37.062,9.26
37.078,15.37
37.093,20.26
37.109,24.24
37.125,27.36
37.140,29.56
37.156,30.72
37.171,30.88
37.187,30.21
37.203,29.02
37.218,27.63
37.234,26.32
37.250,25.21
37.265,24.39
37.281,23.9
37.296,23.74
37.312,23.9
37.328,24.31
37.343,24.79
37.359,25.02
37.375,24.69
37.390,23.52
37.406,21.52
37.421,18.87
37.437,15.93
37.453,13.06
37.468,10.45
37.484,8.02
37.500,5.5
37.515,2.55
37.531,-1.06
37.546,-5.34
37.562,-10.03
37.578,-14.72
37.593,-19.03
37.609,-22.75
37.625,-25.93
37.640,-28.88
37.656,-32.05
37.671,-35.78
37.687,-40.22
37.703,-45.11
37.718,-49.76
37.734,-53.16
37.750,-54.25
37.765,-52.17
37.781,-46.62
37.796,-37.91
37.812,-26.96
37.828,-15.08
37.843,-3.54
37.859,6.7
37.875,15.16
37.890,21.73
37.906,26.53
37.921,29.71
37.937,31.33
37.953,31.51
37.968,30.5
37.984,28.74
38.000,26.79
38.015,25.19
38.031,24.27
38.046,24.04
38.062,24.29
38.078,24.73
38.093,25.08
38.109,25.16
38.125,24.85
38.140,24.08
38.156,22.82
38.171,21.07
38.187,18.97
38.203,16.63
38.218,14.16
38.234,11.58
38.250,8.8
38.265,5.73
38.281,2.39
38.296,-1.07
38.312,-4.48
38.328,-7.63
38.343,-10.43
38.359,-12.88
38.375,-15.09
38.390,-17.16
38.406,-19.29
38.421,-21.71
38.437,-24.69
38.453,-28.41
38.468,-32.76
38.484,-37.24
38.500,-40.9
38.515,-42.62
38.531,-41.45
38.546,-36.97
38.562,-29.48
38.578,-19.93
38.593,-9.62
38.609,0.19
38.625,8.64
38.640,15.36
38.656,20.4
38.671,24.07
38.687,26.62
38.703,28.19
38.718,28.78
38.734,28.41
38.750,27.26
38.765,25.67
38.781,24.08
38.796,22.88
38.812,22.28
38.828,22.25
38.843,22.52
38.859,22.72
38.875,22.58
38.890,22.01
38.906,21.07
38.921,19.96
38.937,18.78
38.953,17.56
38.968,16.14
38.984,14.25
39.000,11.64
39.015,8.24
39.031,4.25
39.046,0.06
39.062,-3.89
39.078,-7.29
39.093,-10.11
39.109,-12.55
39.125,-15.0
39.140,-17.8
39.156,-21.2
39.171,-25.28
39.187,-29.98
39.203,-35.04
39.218,-40.02
39.234,-44.23
39.250,-46.74
39.265,-46.62
39.281,-43.21
39.296,-36.42
39.312,-26.9
39.328,-15.85
39.343,-4.68
39.359,5.4
39.375,13.66
39.390,19.97
39.406,24.53
39.421,27.71
39.437,29.77
39.453,30.82
39.468,30.96
39.484,30.34
39.500,29.25
39.515,28.13
39.531,27.37
39.546,27.28
39.562,27.91
39.578,29.09
39.593,30.48
39.609,31.77
39.625,32.71
39.640,33.21
39.656,33.35
39.671,33.22
39.687,32.91
39.703,32.39
39.718,31.55
39.734,30.27
39.750,28.56
39.765,26.6
39.781,24.66
39.796,23.02
39.812,21.85
39.828,21.03
39.843,20.31
39.859,19.36
39.875,17.97
39.890,16.17
39.906,14.18
39.921,12.35
39.937,11.0
39.953,10.31
39.968,10.28
39.984,10.79
40.000,11.56
40.015,12.26
40.031,12.58
40.046,12.29
40.062,11.37
40.078,9.98
40.093,8.34
40.109,6.73
40.125,5.25
40.140,3.9
40.156,2.55
40.171,1.13
40.187,-0.39
40.203,-1.87
40.218,-3.21
40.234,-4.35
40.250,-5.33
40.265,-6.22
40.281,-7.1
40.296,-7.98
40.312,-8.78
40.328,-9.42
40.343,-9.89
40.359,-10.32
40.375,-10.97
40.390,-12.12
40.406,-13.91
40.421,-16.26
40.437,-18.91
40.453,-21.51
40.468,-23.88
40.484,-26.02
40.500,-28.1
40.515,-30.41
40.531,-33.1
40.546,-36.16
40.562,-39.46
40.578,-42.8
40.593,-46.02
40.609,-49.1
40.625,-52.07
40.640,-55.04
40.656,-58.18
40.671,-61.75
40.687,-66.05
40.703,-71.24
40.718,-77.24
40.734,-83.45
40.750,-88.78
40.765,-91.78
40.781,-91.03
40.796,-85.74
40.812,-75.96
40.828,-62.67
40.843,-47.49
40.859,-32.19
40.875,-18.21
40.890,-6.42
40.906,2.96
40.921,10.14
40.937,15.52
40.953,19.5
40.968,22.35
40.984,24.27
41.000,25.46
41.015,26.1
41.031,26.38
41.046,26.47
41.062,26.45
41.078,26.31
41.093,26.02
41.109,25.55
41.125,24.92
41.140,24.16
41.156,23.39
41.171,22.65
41.187,21.98
41.203,21.31
41.218,20.54
41.234,19.48
41.250,18.02
41.265,16.01
41.281,13.36
41.296,10.15
41.312,6.49
41.328,2.59
41.343,-1.36
41.359,-5.23
41.375,-9.0
41.390,-12.7
41.406,-16.45
41.421,-20.49
41.437,-25.03
41.453,-30.29
41.468,-36.27
41.484,-42.59
41.500,-48.42
41.515,-52.63
41.531,-54.01
41.546,-51.74
41.562,-45.69
41.578,-36.47
41.593,-25.33
41.609,-13.65
41.625,-2.64
41.640,6.99
41.656,14.98
41.671,21.39
41.687,26.39
41.703,30.03
41.718,32.36
41.734,33.35
41.750,33.14
41.765,32.03
41.781,30.42
41.796,28.75
41.812,27.31
41.828,26.2
41.843,25.38
41.859,24.76
41.875,24.23
41.890,23.73
41.906,23.23
41.921,22.64
41.937,21.92
41.953,20.97
41.968,19.69
41.984,17.97
42.000,15.74
42.015,12.92
42.031,9.49
42.046,5.5
42.062,1.08
42.078,-3.61
42.093,-8.38
42.109,-13.02
42.125,-17.43
42.140,-21.56
42.156,-25.48
42.171,-29.37
42.187,-33.49
42.203,-38.11
42.218,-43.4
42.234,-49.22
42.250,-55.03
42.265,-59.94
42.281,-62.82
42.296,-62.67
42.312,-58.93
42.328,-51.64
42.343,-41.53
42.359,-29.75
42.375,-17.62
42.390,-6.21
42.406,3.78
42.421,12.03
42.437,18.51
42.453,23.29
42.468,26.42
42.484,27.99
42.500,28.15
42.515,27.2
42.531,25.65
42.546,24.03
42.562,22.82
42.578,22.29
42.593,22.4
42.609,22.87
42.625,23.3
42.640,23.35
42.656,22.89
42.671,22.02
42.687,20.96
42.703,19.89
42.718,18.81
42.734,17.45
42.750,15.48
42.765,12.62
42.781,8.84
42.796,4.51
42.812,0.22
42.828,-3.3
42.843,-5.49
42.859,-6.04
42.875,-4.97
42.890,-2.61
42.906,0.61
42.921,4.27
42.937,8.07
42.953,11.88
42.968,15.73
42.984,19.82
43.000,24.57
43.015,30.57
43.031,38.5
43.046,48.96
43.062,62.21
43.078,78.01
43.093,95.6
43.109,113.9
43.125,131.82
43.140,148.5
43.156,163.39
43.171,176.28
43.187,187.2
43.203,196.37
43.218,204.19
43.234,211.29
43.250,218.44
43.265,226.35
43.281,235.37
43.296,245.42
43.312,255.88
43.328,265.81
43.343,274.07
43.359,279.48
43.375,281.04
43.390,278.04
43.406,270.32
43.421,258.14
43.437,242.21
43.453,223.31
43.468,202.15
43.484,179.14
43.500,154.52
43.515,128.65
43.531,102.11
43.546,75.83
43.562,50.85
43.578,27.89
43.593,7.2
43.609,-11.51
43.625,-28.68
43.640,-44.56
43.656,-59.05
43.671,-71.74
43.687,-82.23
43.703,-90.45
43.718,-96.8
43.734,-102.15
43.750,-107.47
43.765,-113.56
43.781,-120.81
43.796,-129.09
43.812,-137.94
43.828,-146.78
43.843,-155.04
43.859,-162.27
43.875,-168.27
43.890,-172.96
43.906,-176.4
43.921,-178.59
43.937,-179.51
43.953,-179.08
43.968,-177.25
43.984,-174.19
44.000,-170.23
44.015,-165.87
44.031,-161.66
44.046,-158.11
44.062,-155.5
44.078,-153.91
44.093,-153.12
44.109,-152.74
44.125,-152.35
44.140,-151.61
44.156,-150.51
44.171,-149.35
44.187,-148.62
44.203,-148.72
44.218,-149.74
44.234,-151.39
44.250,-153.1
44.265,-154.33
44.281,-154.8
44.296,-154.54
44.312,-153.88
44.328,-153.29
44.343,-153.23
44.359,-153.97
44.375,-155.57
44.390,-157.61
44.406,-159.1
44.421,-158.49
44.437,-154.02
44.453,-144.2
44.468,-128.44
44.484,-107.36
44.500,-82.65
44.515,-56.59
44.531,-31.35
44.546,-8.39
44.562,11.68
44.578,28.95
44.593,43.72
44.609,56.17
44.625,66.22
44.640,73.71
44.656,78.74
44.671,81.83
44.687,83.95
44.703,86.11
44.718,89.02
44.734,92.77
44.750,96.74
44.765,100.0
44.781,101.69
44.796,101.36
44.812,99.01
44.828,94.91
44.843,89.26
44.859,81.99
44.875,72.86
44.890,61.63
44.906,48.41
44.921,33.83
44.937,18.87
44.953,4.64
44.968,-7.97
44.984,-18.61
45.000,-27.54
45.015,-35.44
45.031,-43.22
45.046,-51.68
45.062,-61.22
45.078,-71.64
45.093,-82.07
45.109,-91.06
45.125,-96.99
45.140,-98.52
45.156,-95.03
45.171,-87.0
45.187,-75.77
45.203,-63.19
45.218,-50.97
45.234,-40.34
45.250,-31.83
45.265,-25.45
45.281,-21.02
45.296,-18.25
45.312,-16.94
45.328,-16.79
45.343,-17.4
45.359,-18.21
45.375,-18.7
45.390,-18.54
45.406,-17.64
45.421,-16.22
45.437,-14.57
45.453,-13.03
45.468,-11.81
45.484,-10.91
45.500,-10.24
45.515,-9.61
45.531,-8.92
45.546,-8.15
45.562,-7.4
45.578,-6.85
45.593,-6.71
45.609,-7.07
45.625,-7.86
45.640,-8.81
45.656,-9.59
45.671,-9.84
45.687,-9.43
45.703,-8.48
45.718,-7.33
45.734,-6.52
45.750,-6.58
45.765,-7.89
45.781,-10.49
45.796,-13.94
45.812,-17.25
45.828,-19.02
45.843,-17.79
45.859,-12.48
45.875,-2.76
45.890,10.68
45.906,26.36
45.921,42.46
45.937,57.36
45.953,70.07
45.968,80.25
45.984,87.97
46.000,93.44
46.015,96.75
46.031,97.82
46.046,96.67
46.062,93.58
46.078,89.19
46.093,84.36
46.109,79.88
46.125,76.08
46.140,72.84
46.156,69.56
46.171,65.59
46.187,60.5
46.203,54.29
46.218,47.26
46.234,39.78
46.250,32.07
46.265,23.97
46.281,15.21
46.296,5.51
46.312,-5.11
46.328,-16.24
46.343,-27.25
46.359,-37.49
46.375,-46.5
46.390,-54.1
46.406,-60.44
46.421,-65.88
46.437,-70.92
46.453,-76.02
46.468,-81.5
46.484,-87.48
46.500,-93.74
46.515,-99.65
46.531,-104.27
46.546,-106.46
46.562,-105.2
46.578,-99.93
46.593,-90.67
46.609,-78.15
46.625,-63.58
46.640,-48.31
46.656,-33.49
46.671,-19.98
46.687,-8.2
46.703,1.64
46.718,9.38
46.734,14.95
46.750,18.47
46.765,20.37
46.781,21.31
46.796,22.05
46.812,23.11
46.828,24.61
46.843,26.25
46.859,27.43
46.875,27.53
46.890,26.14
46.906,23.07
46.921,18.43
46.937,12.4
46.953,5.19
46.968,-3.02
46.984,-12.2
47.000,-22.31
47.015,-33.21
47.031,-44.42
47.046,-55.15
47.062,-64.35
47.078,-71.1
47.093,-74.96
47.109,-76.13
47.125,-75.45
47.140,-74.14
47.156,-73.37
47.171,-73.93
47.187,-76.08
47.203,-79.51
47.218,-83.28
47.234,-86.04
47.250,-86.12
47.265,-81.98
47.281,-72.67
47.296,-58.21
47.312,-39.72
47.328,-19.18
47.343,1.18
47.359,19.43
47.375,34.5
47.390,46.28
47.406,55.34
47.421,62.55
47.437,68.66
47.453,74.01
47.468,78.64
47.484,82.45
47.500,85.42
47.515,87.76
47.531,89.85
47.546,92.0
47.562,94.3
47.578,96.6
47.593,98.49
47.609,99.51
47.625,99.27
47.640,97.52
47.656,94.14
47.671,89.17
47.687,82.77
47.703,75.23
47.718,66.92
47.734,58.21
47.750,49.39
47.765,40.65
47.781,32.03
47.796,23.53
47.812,15.24
47.828,7.32
47.843,0.05
47.859,-6.33
47.875,-11.72
47.890,-16.18
47.906,-19.96
47.921,-23.55
47.937,-27.46
47.953,-32.25
47.968,-38.23
47.984,-45.25
48.000,-52.51
48.015,-58.63
48.031,-61.78
48.046,-60.32
48.062,-53.27
48.078,-40.77
48.093,-24.0
48.109,-4.79
48.125,14.94
48.140,33.7
48.156,50.6
48.171,65.35
48.187,77.96
48.203,88.53
48.218,97.12
48.234,103.73
48.250,108.44
48.265,111.45
48.281,113.1
48.296,113.74
48.312,113.75
48.328,113.34
48.343,112.55
48.359,111.23
48.375,109.18
48.390,106.21
48.406,102.27
48.421,97.45
48.437,91.9
48.453,85.72
48.468,78.88
48.484,71.25
48.500,62.69
48.515,53.25
48.531,43.16
48.546,32.84
48.562,22.72
48.578,13.2
48.593,4.42
48.609,-3.73
48.625,-11.51
48.640,-19.28
48.656,-27.29
48.671,-35.54
48.687,-43.8
48.703,-51.67
48.718,-58.75
48.734,-64.88
48.750,-70.19
48.765,-75.11
48.781,-80.21
48.796,-86.12
48.812,-93.27
48.828,-101.68
48.843,-110.81
48.859,-119.58
48.875,-126.42
48.890,-129.68
48.906,-128.01
48.921,-120.88
48.937,-108.78
48.953,-93.04
48.968,-75.42
48.984,-57.53
49.000,-40.48
49.015,-24.76
49.031,-10.39
49.046,2.8
49.062,14.84
49.078,25.61
49.093,34.85
49.109,42.35
49.125,48.07
49.140,52.16
49.156,54.94
49.171,56.66
49.187,57.54
49.203,57.66
49.218,57.03
49.234,55.68
49.250,53.73
49.265,51.41
49.281,48.92
49.296,46.41
49.312,43.86
49.328,41.05
49.343,37.77
49.359,33.85
49.375,29.24
49.390,24.1
49.406,18.66
49.421,13.21
49.437,8.01
49.453,3.24
49.468,-0.97
49.484,-4.47
49.500,-7.2
49.515,-9.24
49.531,-10.74
49.546,-11.96
49.562,-13.15
49.578,-14.48
49.593,-16.03
49.609,-17.71
49.625,-19.46
49.640,-21.28
49.656,-23.33
49.671,-25.89
49.687,-29.3
49.703,-33.88
49.718,-39.78
49.734,-46.95
49.750,-55.02
49.765,-63.18
49.781,-70.17
49.796,-74.5
49.812,-74.75
49.828,-70.14
49.843,-60.8
49.859,-47.82
49.875,-32.98
49.890,-18.24
49.906,-5.18
49.921,5.35
49.937,13.24
49.953,18.84
49.968,22.63
49.984,25.03
50.000,26.28
50.015,26.54
50.031,25.97
50.046,24.82
50.062,23.45
50.078,22.22
50.093,21.4
50.109,21.15
50.125,21.46
50.140,22.24
50.156,23.34
50.171,24.61
50.187,25.95
50.203,27.3
50.218,28.58
50.234,29.67
50.250,30.4
50.265,30.56
50.281,30.0
50.296,28.59
50.312,26.39
50.328,23.54
50.343,20.28
50.359,16.89
50.375,13.56
50.390,10.43
50.406,7.56
50.421,4.95
50.437,2.52
50.453,0.14
50.468,-2.39
50.484,-5.2
50.500,-8.34
50.515,-11.71
50.531,-15.08
50.546,-18.13
50.562,-20.66
50.578,-22.7
50.593,-24.51
50.609,-26.61
50.625,-29.57
50.640,-33.92
50.656,-39.83
50.671,-46.94
50.687,-54.29
50.703,-60.32
50.718,-63.35
50.734,-61.99
50.750,-55.72
50.765,-45.04
50.781,-31.41
50.796,-16.72
50.812,-2.7
50.828,9.5
50.843,19.53
50.859,27.6
50.875,34.12
50.890,39.37
50.906,43.42
50.921,46.15
50.937,47.51
50.953,47.63
50.968,46.82
50.984,45.62
51.000,44.48
51.015,43.78
51.031,43.63
51.046,43.92
51.062,44.47
51.078,45.12
51.093,45.79
51.109,46.48
51.125,47.23
51.140,47.95
51.156,48.47
51.171,48.48
51.187,47.64
51.203,45.76
51.218,42.82
51.234,39.04
51.250,34.79
51.265,30.49
51.281,26.47
51.296,22.94
51.312,19.88
51.328,17.17
51.343,14.68
51.359,12.38
51.375,10.31
51.390,8.59
51.406,7.29
51.421,6.33
51.437,5.49
51.453,4.5
51.468,3.08
51.484,1.08
51.500,-1.61
51.515,-5.08
51.531,-9.35
51.546,-14.28
51.562,-19.35
51.578,-23.65
51.593,-25.95
51.609,-25.09
51.625,-20.32
51.640,-11.61
51.656,0.31
51.671,14.2
51.687,28.58
51.703,42.03
51.718,53.3
51.734,61.39
51.750,65.65
51.765,65.85
51.781,62.35
51.796,56.08
51.812,48.32
51.828,40.44
51.843,33.48
51.859,27.94
51.875,23.79
51.890,20.66
51.906,18.09
51.921,15.78
51.937,13.54
51.953,11.34
51.968,9.2
51.984,6.99
52.000,4.56
52.015,1.63
52.031,-1.93
52.046,-6.16
52.062,-10.86
52.078,-15.63
52.093,-19.99
52.109,-23.54
52.125,-26.12
52.140,-27.75
52.156,-28.74
52.171,-29.47
52.187,-30.31
52.203,-31.48
52.218,-33.07
52.234,-35.03
52.250,-37.28
52.265,-39.73
52.281,-42.38
52.296,-45.3
52.312,-48.7
52.328,-52.78
52.343,-57.59
52.359,-62.83
52.375,-67.73
52.390,-71.21
52.406,-72.06
52.421,-69.44
52.437,-63.11
52.453,-53.61
52.468,-41.99
52.484,-29.59
52.500,-17.58
52.515,-6.85
52.531,2.1
52.546,9.16
52.562,14.41
52.578,18.11
52.593,20.58
52.609,22.22
52.625,23.31
52.640,24.18
52.656,25.03
52.671,26.04
52.687,27.32
52.703,28.85
52.718,30.48
52.734,32.07
52.750,33.47
52.765,34.66
52.781,35.69
52.796,36.67
52.812,37.67
52.828,38.63
52.843,39.33
52.859,39.5
52.875,38.95
52.890,37.57
52.906,35.45
52.921,32.72
52.937,29.47
52.953,25.73
52.968,21.46
52.984,16.52
53.000,10.91
53.015,4.8
53.031,-1.52
53.046,-7.68
53.062,-13.45
53.078,-18.88
53.093,-24.27
53.109,-30.07
53.125,-36.67
53.140,-44.18
53.156,-52.36
53.171,-60.62
53.187,-68.0
53.203,-73.37
53.218,-75.67
53.234,-74.06
53.250,-68.29
53.265,-58.82
53.281,-46.73
53.296,-33.52
53.312,-20.72
53.328,-9.38
53.343,-0.01
53.359,7.44
53.375,13.24
53.390,17.72
53.406,20.98
53.421,23.08
53.437,24.15
53.453,24.53
53.468,24.74
53.484,25.32
53.500,26.53
53.515,28.38
53.531,30.64
53.546,33.01
53.562,35.3
53.578,37.44
53.593,39.4
53.609,41.04
53.625,42.02
53.640,41.89
53.656,40.24
53.671,36.93
53.687,32.18
53.703,26.52
53.718,20.58
53.734,14.92
53.750,9.84
53.765,5.32
53.781,1.06
53.796,-3.31
53.812,-8.08
53.828,-13.29
53.843,-18.73
53.859,-24.04
53.875,-28.93
53.890,-33.28
53.906,-37.26
53.921,-41.32
53.937,-46.0
53.953,-51.78
53.968,-58.9
53.984,-67.1
54.000,-75.58
54.015,-83.07
54.031,-87.98
54.046,-88.83
54.062,-84.76
54.078,-75.76
54.093,-62.81
54.109,-47.58
54.125,-31.89
54.140,-17.33
54.156,-4.83
54.171,5.22
54.187,12.88
54.203,18.37
54.218,21.9
54.234,23.76
54.250,24.33
54.265,24.11
54.281,23.69
54.296,23.58
54.312,24.06
54.328,25.16
54.343,26.67
54.359,28.38
54.375,30.11
54.390,31.78
54.406,33.4
54.421,34.98
54.437,36.45
54.453,37.64
54.468,38.28
54.484,38.06
54.500,36.75
54.515,34.31
54.531,30.85
54.546,26.79
54.562,22.58
54.578,18.63
54.593,15.09
54.609,11.71
54.625,7.98
54.640,3.36
54.656,-2.45
54.671,-9.39
54.687,-16.9
54.703,-24.2
54.718,-30.64
54.734,-35.93
54.750,-40.29
54.765,-44.33
54.781,-48.82
54.796,-54.36
54.812,-61.16
54.828,-68.81
54.843,-76.38
54.859,-82.47
54.875,-85.56
54.890,-84.32
54.906,-78.02
54.921,-66.8
54.937,-51.72
54.953,-34.55
54.968,-17.33
54.984,-1.85
55.000,10.71
55.015,19.97
55.031,26.21
55.046,30.0
55.062,31.94
55.078,32.49
55.093,31.97
55.109,30.68
55.125,28.97
55.140,27.25
55.156,25.88
55.171,25.02
55.187,24.56
55.203,24.22
55.218,23.71
55.234,22.94
55.250,22.0
55.265,21.02
55.281,20.06
55.296,18.95
55.312,17.31
55.328,14.71
55.343,10.9
55.359,5.91
55.375,0.1
55.390,-6.0
55.406,-11.84
55.421,-17.09
55.437,-21.65
55.453,-25.67
55.468,-29.49
55.484,-33.42
55.500,-37.73
55.515,-42.42
55.531,-47.35
55.546,-52.23
55.562,-56.88
55.578,-61.28
55.593,-65.62
55.609,-70.29
55.625,-75.66
55.640,-81.92
55.656,-88.77
55.671,-95.33
55.687,-100.16
55.703,-101.65
55.718,-98.43
55.734,-89.89
55.750,-76.43
55.765,-59.42
55.781,-40.86
55.796,-22.76
55.812,-6.69
55.828,6.53
55.843,16.78
55.859,24.42
55.875,29.92
55.890,33.71
55.906,36.13
55.921,37.51
55.937,38.36
55.953,39.3
55.968,40.92
55.984,43.73
56.000,47.89
56.015,53.15
56.031,58.94
56.046,64.54
56.062,69.27
56.078,72.63
56.093,74.44
56.109,74.7
56.125,73.61
56.140,71.42
56.156,68.35
56.171,64.55
56.187,60.13
56.203,55.24
56.218,50.01
56.234,44.6
56.250,39.14
56.265,33.64
56.281,28.01
56.296,22.19
56.312,16.12
56.328,9.79
56.343,3.28
56.359,-3.47
56.375,-10.59
56.390,-18.28
56.406,-26.65
56.421,-35.5
56.437,-44.15
56.453,-51.46
56.468,-56.1
56.484,-56.8
56.500,-52.83
56.515,-44.16
56.531,-31.57
56.546,-16.51
56.562,-0.68
56.578,14.27
56.593,27.13
56.609,37.19
56.625,44.25
56.640,48.27
56.656,49.28
56.671,47.29
56.687,42.44
56.703,35.2
56.718,26.54
56.734,17.86
56.750,10.58
56.765,5.76
56.781,3.71
56.796,4.0
56.812,5.72
56.828,7.99
56.843,10.26
56.859,12.46
56.875,14.72
56.890,17.16
56.906,19.53
56.921,21.22
56.937,21.54
56.953,20.0
56.968,16.55
56.984,11.71
57.000,6.35
57.015,1.29
57.031,-2.79
57.046,-5.7
57.062,-7.61
57.078,-8.98
57.093,-10.43
57.109,-12.58
57.125,-15.93
57.140,-20.64
57.156,-26.44
57.171,-32.39
57.187,-37.03
57.203,-38.63
57.218,-35.78
57.234,-27.88
57.250,-15.52
57.265,-0.34
57.281,15.48
57.296,29.94
57.312,41.85
57.328,50.99
57.343,57.9
57.359,63.45
57.375,68.17
57.390,72.22
57.406,75.42
57.421,77.61
57.437,78.98
57.453,80.08
57.468,81.63
57.484,84.09
57.500,87.43
57.515,91.03
57.531,93.97
57.546,95.41
57.562,94.88
57.578,92.38
57.593,88.27
57.609,82.99
57.625,76.84
57.640,69.96
57.656,62.39
57.671,54.23
57.687,45.61
57.703,36.74
57.718,27.7
57.734,18.5
57.750,9.12
57.765,-0.43
57.781,-9.95
57.796,-19.25
57.812,-28.17
57.828,-36.7
57.843,-45.07
57.859,-53.67
57.875,-62.87
57.890,-72.79
57.906,-83.17
57.921,-93.26
57.937,-101.82
57.953,-107.39
57.968,-108.67
57.984,-104.91
58.000,-96.3
58.015,-83.98
58.031,-69.73
58.046,-55.44
58.062,-42.56
58.078,-31.86
58.093,-23.4
58.109,-16.81
58.125,-11.69
58.140,-7.77
58.156,-5.02
58.171,-3.51
58.187,-3.23
58.203,-3.95
58.218,-5.24
58.234,-6.48
58.250,-7.16
58.265,-6.94
58.281,-5.74
58.296,-3.74
58.312,-1.3
58.328,1.14
58.343,3.24
58.359,4.69
58.375,5.31
58.390,5.03
58.406,3.82
58.421,1.72
58.437,-1.23
58.453,-4.9
58.468,-9.1
58.484,-13.55
58.500,-17.87
58.515,-21.68
58.531,-24.73
58.546,-27.0
58.562,-28.67
58.578,-30.06
58.593,-31.5
58.609,-33.23
58.625,-35.43
58.640,-38.19
58.656,-41.61
58.671,-45.71
58.687,-50.24
58.703,-54.49
58.718,-57.28
58.734,-57.22
58.750,-53.18
58.765,-44.79
58.781,-32.61
58.796,-18.07
58.812,-3.04
58.828,10.8
58.843,22.33
58.859,31.24
58.875,37.75
58.890,42.38
58.906,45.58
58.921,47.68
58.937,48.91
58.953,49.42
58.968,49.49
58.984,49.38
59.000,49.25
59.015,49.09
59.031,48.79
59.046,48.11
59.062,46.98
59.078,45.45
59.093,43.68
59.109,41.92
59.125,40.26
59.140,38.6
59.156,36.61
59.171,34.0
59.187,30.45
59.203,25.88
59.218,20.46
59.234,14.48
59.250,8.36
59.265,2.31
59.281,-3.62
59.296,-9.61
59.312,-15.85
59.328,-22.48
59.343,-29.4
59.359,-36.31
59.375,-42.87
59.390,-48.86
59.406,-54.39
59.421,-59.93
59.437,-66.12
59.453,-73.49
59.468,-82.11
59.484,-91.34
59.500,-99.81
59.515,-105.76
59.531,-107.51
59.546,-104.07
59.562,-95.37
59.578,-82.25
59.593,-66.02
59.609,-48.12
59.625,-29.78
59.640,-11.96
59.656,4.54
59.671,19.07
59.687,31.05
59.703,40.14
59.718,46.28
59.734,49.68
59.750,50.8
59.765,50.2
59.781,48.48
59.796,46.26
59.812,44.18
59.828,42.74
59.843,42.19
59.859,42.45
59.875,43.06
59.890,43.49
59.906,43.34
59.921,42.51
59.937,41.12
59.953,39.45
59.968,37.66
59.984,35.67
