timestamp,value
00.000,-42.0
00.015,-41.44
00.031,-38.54
00.046,-33.4
00.062,-26.52
00.078,-18.61
00.093,-10.43
00.109,-2.56
00.125,4.64
00.140,11.04
00.156,16.55
00.171,21.06
00.187,24.41
00.203,26.5
00.218,27.43
00.234,27.48
00.250,27.12
00.265,26.73
00.281,26.55
00.296,26.54
00.312,26.48
00.328,26.08
00.343,25.19
00.359,23.86
00.375,22.31
00.390,20.8
00.406,19.5
00.421,18.4
00.437,17.29
00.453,15.87
00.468,13.89
00.484,11.24
00.500,8.06
00.515,4.65
00.531,1.37
00.546,-1.51
00.562,-3.97
00.578,-6.18
00.593,-8.44
00.609,-11.08
00.625,-14.3
00.640,-18.14
00.656,-22.47
00.671,-26.93
00.687,-31.0
00.703,-34.06
00.718,-35.48
00.734,-34.76
00.750,-31.69
00.765,-26.38
00.781,-19.29
00.796,-11.1
00.812,-2.62
00.828,5.43
00.843,12.45
00.859,18.14
00.875,22.45
00.890,25.49
00.906,27.51
00.921,28.79
00.937,29.51
00.953,29.81
00.968,29.79
00.984,29.58
01.000,29.31
01.015,29.07
01.031,28.86
01.046,28.59
01.062,28.11
01.078,27.3
01.093,26.13
01.109,24.66
01.125,22.98
01.140,21.16
01.156,19.18
01.171,16.98
01.187,14.45
01.203,11.54
01.218,8.27
01.234,4.75
01.250,1.16
01.265,-2.32
01.281,-5.55
01.296,-8.44
01.312,-11.0
01.328,-13.26
01.343,-15.32
01.359,-17.37
01.375,-19.62
01.390,-22.37
01.406,-25.84
01.421,-30.04
01.437,-34.64
01.453,-38.97
01.468,-42.07
01.484,-43.03
01.500,-41.24
01.515,-36.63
01.531,-29.67
01.546,-21.17
01.562,-12.07
01.578,-3.11
01.593,5.22
01.609,12.66
01.625,19.14
01.640,24.58
01.656,28.97
01.671,32.28
01.687,34.56
01.703,35.96
01.718,36.7
01.734,36.97
01.750,36.93
01.765,36.61
01.781,35.95
01.796,34.83
01.812,33.23
01.828,31.19
01.843,28.83
01.859,26.32
01.875,23.78
01.890,21.31
01.906,18.94
01.921,16.71
01.937,14.68
01.953,12.86
01.968,11.25
01.984,9.76
02.000,8.22
02.015,6.41
02.031,4.19
02.046,1.51
02.062,-1.55
02.078,-4.82
02.093,-8.15
02.109,-11.37
02.125,-14.37
02.140,-17.09
02.156,-19.52
02.171,-21.76
02.187,-24.0
02.203,-26.53
02.218,-29.64
02.234,-33.38
02.250,-37.5
02.265,-41.32
02.281,-43.95
02.296,-44.52
02.312,-42.51
02.328,-37.92
02.343,-31.24
02.359,-23.23
02.375,-14.71
02.390,-6.31
02.406,1.55
02.421,8.66
02.437,14.83
02.453,19.96
02.468,23.98
02.484,26.9
02.500,28.83
02.515,29.95
02.531,30.54
02.546,30.78
02.562,30.84
02.578,30.72
02.593,30.37
02.609,29.65
02.625,28.48
02.640,26.91
02.656,25.07
02.671,23.14
02.687,21.3
02.703,19.62
02.718,18.08
02.734,16.59
02.750,15.11
02.765,13.65
02.781,12.27
02.796,10.97
02.812,9.65
02.828,8.1
02.843,6.06
02.859,3.38
02.875,0.11
02.890,-3.55
02.906,-7.3
02.921,-10.88
02.937,-14.15
02.953,-17.11
02.968,-19.84
02.984,-22.45
03.000,-25.04
03.015,-27.72
03.031,-30.6
03.046,-33.78
03.062,-37.24
03.078,-40.73
03.093,-43.76
03.109,-45.62
03.125,-45.62
03.140,-43.33
03.156,-38.71
03.171,-32.17
03.187,-24.41
03.203,-16.22
03.218,-8.33
03.234,-1.24
03.250,4.8
03.265,9.7
03.281,13.49
03.296,16.26
03.312,18.14
03.328,19.39
03.343,20.3
03.359,21.19
03.375,22.29
03.390,23.64
03.406,25.09
03.421,26.3
03.437,26.96
03.453,26.86
03.468,26.05
03.484,24.76
03.500,23.32
03.515,21.92
03.531,20.57
03.546,19.11
03.562,17.33
03.578,15.12
03.593,12.51
03.609,9.68
03.625,6.9
03.640,4.33
03.656,2.07
03.671,0.04
03.687,-1.88
03.703,-3.81
03.718,-5.8
03.734,-7.88
03.750,-10.04
03.765,-12.25
03.781,-14.5
03.796,-16.78
03.812,-19.08
03.828,-21.45
03.843,-23.95
03.859,-26.7
03.875,-29.76
03.890,-33.01
03.906,-36.1
03.921,-38.44
03.937,-39.35
03.953,-38.29
03.968,-35.07
03.984,-29.92
04.000,-23.43
04.015,-16.28
04.031,-9.16
04.046,-2.48
04.062,3.51
04.078,8.73
04.093,13.11
04.109,16.6
04.125,19.11
04.140,20.65
04.156,21.35
04.171,21.48
04.187,21.43
04.203,21.52
04.218,21.91
04.234,22.53
04.250,23.13
04.265,23.42
04.281,23.3
04.296,22.85
04.312,22.31
04.328,21.88
04.343,21.65
04.359,21.49
04.375,21.11
04.390,20.18
04.406,18.49
04.421,16.01
04.437,12.88
04.453,9.33
04.468,5.65
04.484,2.01
04.500,-1.48
04.515,-4.79
04.531,-7.93
04.546,-10.92
04.562,-13.75
04.578,-16.41
04.593,-18.92
04.609,-21.33
04.625,-23.71
04.640,-26.18
04.656,-28.79
04.671,-31.54
04.687,-34.23
04.703,-36.53
04.718,-38.01
04.734,-38.25
04.750,-36.97
04.765,-34.1
04.781,-29.76
04.796,-24.2
04.812,-17.72
04.828,-10.65
04.843,-3.34
04.859,3.87
04.875,10.63
04.890,16.63
04.906,21.66
04.921,25.65
04.937,28.65
04.953,30.74
04.968,32.01
04.984,32.54
05.000,32.39
05.015,31.67
05.031,30.58
05.046,29.32
05.062,28.06
05.078,26.89
05.093,25.8
05.109,24.73
05.125,23.56
05.140,22.24
05.156,20.76
05.171,19.11
05.187,17.33
05.203,15.41
05.218,13.3
05.234,10.97
05.250,8.36
05.265,5.45
05.281,2.3
05.296,-1.03
05.312,-4.44
05.328,-7.76
05.343,-10.87
05.359,-13.66
05.375,-16.08
05.390,-18.15
05.406,-19.98
05.421,-21.75
05.437,-23.7
05.453,-26.09
05.468,-29.14
05.484,-32.9
05.500,-37.19
05.515,-41.59
05.531,-45.45
05.546,-48.02
05.562,-48.64
05.578,-46.88
05.593,-42.7
05.609,-36.38
05.625,-28.52
05.640,-19.9
05.656,-11.25
05.671,-3.19
05.687,3.9
05.703,9.85
05.718,14.67
05.734,18.43
05.750,21.21
05.765,23.1
05.781,24.25
05.796,24.87
05.812,25.19
05.828,25.45
05.843,25.75
05.859,26.06
05.875,26.25
05.890,26.12
05.906,25.61
05.921,24.73
05.937,23.57
05.953,22.24
05.968,20.76
05.984,19.08
06.000,17.13
06.015,14.89
06.031,12.37
06.046,9.71
06.062,7.03
06.078,4.42
06.093,1.88
06.109,-0.64
06.125,-3.24
06.140,-5.93
06.156,-8.65
06.171,-11.29
06.187,-13.7
06.203,-15.84
06.218,-17.8
06.234,-19.77
06.250,-22.08
06.265,-24.99
06.281,-28.68
06.296,-33.12
06.312,-38.04
06.328,-42.91
06.343,-47.0
06.359,-49.55
06.375,-49.9
06.390,-47.68
06.406,-42.93
06.421,-36.09
06.437,-27.88
06.453,-19.16
06.468,-10.68
06.484,-3.01
06.500,3.54
06.515,8.9
06.531,13.16
06.546,16.51
06.562,19.16
06.578,21.3
06.593,23.02
06.609,24.39
06.625,25.42
06.640,26.11
06.656,26.45
06.671,26.49
06.687,26.25
06.703,25.77
06.718,25.08
06.734,24.24
06.750,23.25
06.765,22.1
06.781,20.77
06.796,19.21
06.812,17.47
06.828,15.59
06.843,13.66
06.859,11.72
06.875,9.69
06.890,7.47
06.906,4.98
06.921,2.24
06.937,-0.64
06.953,-3.55
06.968,-6.45
06.984,-9.42
07.000,-12.6
07.015,-16.04
07.031,-19.62
07.046,-23.13
07.062,-26.36
07.078,-29.29
07.093,-32.11
07.109,-35.15
07.125,-38.6
07.140,-42.3
07.156,-45.71
07.171,-47.97
07.187,-48.24
07.203,-45.95
07.218,-40.98
07.234,-33.74
07.250,-24.97
07.265,-15.59
07.281,-6.39
07.296,2.0
07.312,9.22
07.328,15.07
07.343,19.5
07.359,22.56
07.375,24.4
07.390,25.26
07.406,25.44
07.421,25.3
07.437,25.1
07.453,24.95
07.468,24.82
07.484,24.62
07.500,24.26
07.515,23.72
07.531,23.05
07.546,22.28
07.562,21.41
07.578,20.37
07.593,19.12
07.609,17.65
07.625,16.0
07.640,14.27
07.656,12.51
07.671,10.69
07.687,8.74
07.703,6.57
07.718,4.13
07.734,1.49
07.750,-1.23
07.765,-3.88
07.781,-6.37
07.796,-8.67
07.812,-10.89
07.828,-13.2
07.843,-15.8
07.859,-18.89
07.875,-22.5
07.890,-26.51
07.906,-30.57
07.921,-34.15
07.937,-36.59
07.953,-37.28
07.968,-35.77
07.984,-31.95
08.000,-26.1
08.015,-18.84
08.031,-10.91
08.046,-3.06
08.062,4.18
08.078,10.46
08.093,15.65
08.109,19.73
08.125,22.75
08.140,24.76
08.156,25.88
08.171,26.27
08.187,26.14
08.203,25.69
08.218,25.08
08.234,24.41
08.250,23.72
08.265,23.05
08.281,22.37
08.296,21.6
08.312,20.64
08.328,19.37
08.343,17.72
08.359,15.75
08.375,13.6
08.390,11.46
08.406,9.47
08.421,7.61
08.437,5.77
08.453,3.72
08.468,1.25
08.484,-1.7
08.500,-5.09
08.515,-8.78
08.531,-12.57
08.546,-16.3
08.562,-19.89
08.578,-23.38
08.593,-26.9
08.609,-30.65
08.625,-34.76
08.640,-39.15
08.656,-43.46
08.671,-47.0
08.687,-48.92
08.703,-48.46
08.718,-45.17
08.734,-39.1
08.750,-30.83
08.765,-21.2
08.781,-11.19
08.796,-1.61
08.812,7.01
08.828,14.42
08.843,20.55
08.859,25.41
08.875,29.03
08.890,31.49
08.906,32.89
08.921,33.39
08.937,33.3
08.953,32.89
08.968,32.37
08.984,31.83
09.000,31.19
09.015,30.29
09.031,29.0
09.046,27.31
09.062,25.36
09.078,23.3
09.093,21.28
09.109,19.31
09.125,17.34
09.140,15.23
09.156,12.87
09.171,10.15
09.187,7.09
09.203,3.78
09.218,0.34
09.234,-3.09
09.250,-6.41
09.265,-9.55
09.281,-12.49
09.296,-15.25
09.312,-17.91
09.328,-20.57
09.343,-23.43
09.359,-26.7
09.375,-30.51
09.390,-34.79
09.406,-39.11
09.421,-42.74
09.437,-44.78
09.453,-44.5
09.468,-41.53
09.484,-36.06
09.500,-28.7
09.515,-20.3
09.531,-11.66
09.546,-3.36
09.562,4.29
09.578,11.09
09.593,16.92
09.609,21.6
09.625,25.01
09.640,27.09
09.656,28.01
09.671,28.09
09.687,27.7
09.703,27.16
09.718,26.6
09.734,25.99
09.750,25.16
09.765,24.04
09.781,22.64
09.796,21.12
09.812,19.68
09.828,18.41
09.843,17.29
09.859,16.15
09.875,14.73
09.890,12.82
09.906,10.33
09.921,7.31
09.937,3.98
09.953,0.58
09.968,-2.64
09.984,-5.6
10.000,-8.35
10.015,-11.05
10.031,-13.86
10.046,-16.85
10.062,-20.02
10.078,-23.33
10.093,-26.83
10.109,-30.6
10.125,-34.65
10.140,-38.7
10.156,-42.11
10.171,-43.99
10.187,-43.45
10.203,-40.04
10.218,-33.92
10.234,-25.82
10.250,-16.84
10.265,-7.94
10.281,0.21
10.296,7.35
10.312,13.47
10.328,18.6
10.343,22.72
10.359,25.72
10.375,27.49
10.390,28.07
10.406,27.75
10.421,26.96
10.437,26.12
10.453,25.5
10.468,25.05
10.484,24.49
10.500,23.52
10.515,21.96
10.531,19.94
10.546,17.8
10.562,15.89
10.578,14.42
10.593,13.3
10.609,12.22
10.625,10.84
10.640,8.96
10.656,6.57
10.671,3.8
10.687,0.84
10.703,-2.25
10.718,-5.44
10.734,-8.78
10.750,-12.25
10.765,-15.78
10.781,-19.29
10.796,-22.73
10.812,-26.18
10.828,-29.81
10.843,-33.75
10.859,-38.02
10.875,-42.36
10.890,-46.21
10.906,-48.81
10.921,-49.4
10.937,-47.45
10.953,-42.83
10.968,-35.86
10.984,-27.26
11.000,-17.91
11.015,-8.64
11.031,-0.08
11.046,7.39
11.062,13.61
11.078,18.52
11.093,22.12
11.109,24.48
11.125,25.72
11.140,26.09
11.156,25.9
11.171,25.45
11.187,24.92
11.203,24.36
11.218,23.71
11.234,22.93
11.250,22.05
11.265,21.24
11.281,20.67
11.296,20.46
11.312,20.54
11.328,20.68
11.343,20.55
11.359,19.83
11.375,18.35
11.390,16.08
11.406,13.19
11.421,9.92
11.437,6.58
11.453,3.34
11.468,0.33
11.484,-2.48
11.500,-5.22
11.515,-8.08
11.531,-11.24
11.546,-14.8
11.562,-18.79
11.578,-23.14
11.593,-27.7
11.609,-32.15
11.625,-36.11
11.640,-39.03
11.656,-40.35
11.671,-39.56
11.687,-36.42
11.703,-31.01
11.718,-23.82
11.734,-15.63
11.750,-7.23
11.765,0.72
11.781,7.85
11.796,14.08
11.812,19.41
11.828,23.85
11.843,27.28
11.859,29.55
11.875,30.6
11.890,30.55
11.906,29.74
11.921,28.6
11.937,27.5
11.953,26.6
11.968,25.85
11.984,25.05
12.000,24.07
12.015,22.84
12.031,21.46
12.046,20.08
12.062,18.75
12.078,17.47
12.093,16.14
12.109,14.58
12.125,12.67
12.140,10.33
12.156,7.6
12.171,4.55
12.187,1.33
12.203,-1.9
12.218,-5.02
12.234,-7.95
12.250,-10.7
12.265,-13.38
12.281,-16.11
12.296,-19.03
12.312,-22.26
12.328,-25.83
12.343,-29.74
12.359,-33.77
12.375,-37.53
12.390,-40.39
12.406,-41.66
12.421,-40.74
12.437,-37.39
12.453,-31.8
12.468,-24.56
12.484,-16.47
12.500,-8.31
12.515,-0.65
12.531,6.22
12.546,12.22
12.562,17.37
12.578,21.66
12.593,25.06
12.609,27.53
12.625,29.05
12.640,29.67
12.656,29.57
12.671,28.99
12.687,28.2
12.703,27.44
12.718,26.82
12.734,26.33
12.750,25.82
12.765,25.09
12.781,23.96
12.796,22.4
12.812,20.49
12.828,18.42
12.843,16.28
12.859,14.12
12.875,11.84
12.890,9.35
12.906,6.62
12.921,3.69
12.937,0.72
12.953,-2.2
12.968,-5.06
12.984,-7.91
13.000,-10.8
13.015,-13.73
13.031,-16.57
13.046,-19.22
13.062,-21.67
13.078,-24.09
13.093,-26.8
13.109,-30.04
13.125,-33.82
13.140,-37.8
13.156,-41.32
13.171,-43.61
13.187,-43.95
13.203,-41.95
13.218,-37.56
13.234,-31.1
13.250,-23.15
13.265,-14.42
13.281,-5.6
13.296,2.75
13.312,10.18
13.328,16.5
13.343,21.59
13.359,25.49
13.375,28.26
13.390,30.04
13.406,31.02
13.421,31.37
13.437,31.3
13.453,30.93
13.468,30.35
13.484,29.59
13.500,28.71
13.515,27.79
13.531,26.88
13.546,25.99
13.562,25.05
13.578,23.97
13.593,22.61
13.609,20.94
13.625,18.97
13.640,16.75
13.656,14.3
13.671,11.61
13.687,8.66
13.703,5.47
13.718,2.17
13.734,-1.12
13.750,-4.28
13.765,-7.29
13.781,-10.21
13.796,-13.11
13.812,-15.96
13.828,-18.66
13.843,-21.11
13.859,-23.34
13.875,-25.56
13.890,-28.12
13.906,-31.3
13.921,-35.09
13.937,-39.09
13.953,-42.51
13.968,-44.45
13.984,-44.2
14.000,-41.42
14.015,-36.31
14.031,-29.44
14.046,-21.57
14.062,-13.42
14.078,-5.57
14.093,1.68
14.109,8.13
14.125,13.69
14.140,18.32
14.156,21.94
14.171,24.56
14.187,26.26
14.203,27.22
14.218,27.72
14.234,28.04
14.250,28.36
14.265,28.71
14.281,28.99
14.296,28.97
14.312,28.48
14.328,27.46
14.343,26.0
14.359,24.28
14.375,22.47
14.390,20.6
14.406,18.61
14.421,16.37
14.437,13.8
14.453,10.93
14.468,7.91
14.484,4.96
14.500,2.23
14.515,-0.22
14.531,-2.48
14.546,-4.67
14.562,-6.97
14.578,-9.43
14.593,-12.02
14.609,-14.65
14.625,-17.19
14.640,-19.57
14.656,-21.79
14.671,-23.98
14.687,-26.32
14.703,-29.02
14.718,-32.19
14.734,-35.79
14.750,-39.53
14.765,-42.82
14.781,-44.94
14.796,-45.15
14.812,-42.94
14.828,-38.23
14.843,-31.41
14.859,-23.21
14.875,-14.54
14.890,-6.14
14.906,1.47
14.921,8.05
14.937,13.55
14.953,17.98
14.968,21.36
14.984,23.69
15.000,25.05
15.015,25.58
15.031,25.56
15.046,25.3
15.062,25.13
15.078,25.26
15.093,25.78
15.109,26.57
15.125,27.36
15.140,27.82
15.156,27.58
15.171,26.49
15.187,24.64
15.203,22.39
15.218,20.31
15.234,18.91
15.250,18.44
15.265,18.73
15.281,19.34
15.296,19.66
15.312,19.3
15.328,18.22
15.343,16.76
15.359,15.53
15.375,15.22
15.390,16.59
15.406,20.32
15.421,26.86
15.437,36.04
15.453,46.99
15.468,58.14
15.484,67.82
15.500,74.91
15.515,79.29
15.531,81.75
15.546,83.41
15.562,85.11
15.578,87.14
15.593,89.55
15.609,92.76
15.625,97.94
15.640,106.82
15.656,120.96
15.671,140.91
15.687,165.65
15.703,192.64
15.718,218.39
15.734,239.35
15.750,252.75
15.765,257.1
15.781,252.64
15.796,241.1
15.812,225.21
15.828,207.94
15.843,191.68
15.859,177.84
15.875,166.82
15.890,158.39
15.906,152.1
15.921,147.49
15.937,144.06
15.953,141.09
15.968,137.58
15.984,132.49
16.000,125.09
16.015,115.3
16.031,103.77
16.046,91.6
16.062,79.97
16.078,69.63
16.093,60.65
16.109,52.5
16.125,44.43
16.140,35.9
16.156,26.83
16.171,17.74
16.187,9.47
16.203,2.74
16.218,-2.25
16.234,-6.05
16.250,-9.78
16.265,-14.79
16.281,-22.14
16.296,-32.23
16.312,-44.76
16.328,-59.01
16.343,-74.16
16.359,-89.78
16.375,-105.89
16.390,-122.92
16.406,-141.55
16.421,-162.52
16.437,-186.56
16.453,-214.19
16.468,-245.15
16.484,-277.86
16.500,-309.16
16.515,-334.7
16.531,-350.12
16.546,-352.53
16.562,-341.58
16.578,-319.46
16.593,-289.94
16.609,-256.85
16.625,-222.93
16.640,-189.51
16.656,-156.97
16.671,-125.58
16.687,-96.03
16.703,-69.35
16.718,-46.47
16.734,-27.79
16.750,-13.02
16.765,-1.53
16.781,7.31
16.796,13.75
16.812,17.77
16.828,19.28
16.843,18.54
16.859,16.42
16.875,14.35
16.890,13.81
16.906,15.74
16.921,19.9
16.937,24.74
16.953,27.84
16.968,26.83
16.984,20.41
17.000,9.0
17.015,-5.3
17.031,-19.43
17.046,-30.22
17.062,-35.37
17.078,-33.8
17.093,-25.73
17.109,-12.4
17.125,4.25
17.140,22.04
17.156,38.9
17.171,53.2
17.187,64.03
17.203,71.33
17.218,75.75
17.234,78.31
17.250,80.07
17.265,81.79
17.281,83.69
17.296,85.35
17.312,85.79
17.328,83.69
17.343,77.74
17.359,67.14
17.375,51.96
17.390,33.24
17.406,12.84
17.421,-7.17
17.437,-25.07
17.453,-39.97
17.468,-51.86
17.484,-61.47
17.500,-69.79
17.515,-77.64
17.531,-85.42
17.546,-93.15
17.562,-100.49
17.578,-107.07
17.593,-112.65
17.609,-117.29
17.625,-121.32
17.640,-125.39
17.656,-130.25
17.671,-136.61
17.687,-145.06
17.703,-155.77
17.718,-168.49
17.734,-182.32
17.750,-195.82
17.765,-207.07
17.781,-214.24
17.796,-216.03
17.812,-212.23
17.828,-203.88
17.843,-192.99
17.859,-181.91
17.875,-172.58
17.890,-166.02
17.906,-162.24
17.921,-160.53
17.937,-160.11
17.953,-160.41
17.968,-161.23
17.984,-162.5
18.000,-163.81
18.015,-164.16
18.031,-161.88
18.046,-154.97
18.062,-141.69
18.078,-121.09
18.093,-93.37
18.109,-59.79
18.125,-22.24
18.140,17.27
18.156,56.96
18.171,95.4
18.187,131.38
18.203,163.8
18.218,191.68
18.234,214.26
18.250,231.17
18.265,242.4
18.281,248.19
18.296,248.92
18.312,245.06
18.328,237.23
18.343,226.2
18.359,212.85
18.375,198.0
18.390,182.36
18.406,166.61
18.421,151.66
18.437,138.7
18.453,128.93
18.468,123.11
18.484,121.02
18.500,121.36
18.515,122.08
18.531,121.14
18.546,117.2
18.562,109.85
18.578,99.52
18.593,87.03
18.609,73.22
18.625,58.81
18.640,44.32
18.656,30.2
18.671,16.65
18.687,3.6
18.703,-9.36
18.718,-22.75
18.734,-36.96
18.750,-51.89
18.765,-66.83
18.781,-80.62
18.796,-91.98
18.812,-99.85
18.828,-103.74
18.843,-103.8
18.859,-100.8
18.875,-95.93
18.890,-90.56
18.906,-85.93
18.921,-82.85
18.937,-81.58
18.953,-81.77
18.968,-82.81
18.984,-84.14
19.000,-85.67
19.015,-87.89
19.031,-91.63
19.046,-97.72
19.062,-106.55
19.078,-117.87
19.093,-130.83
19.109,-144.24
19.125,-156.86
19.140,-167.68
19.156,-176.14
19.171,-182.14
19.187,-186.08
19.203,-188.66
19.218,-190.7
19.234,-192.9
19.250,-195.75
19.265,-199.5
19.281,-204.31
19.296,-210.4
19.312,-218.02
19.328,-227.44
19.343,-238.77
19.359,-251.67
19.375,-265.2
19.390,-277.74
19.406,-287.09
19.421,-290.9
19.437,-287.29
19.453,-275.46
19.468,-255.93
19.484,-230.44
19.500,-201.31
19.515,-170.68
19.531,-140.02
19.546,-110.13
19.562,-81.52
19.578,-54.96
19.593,-31.64
19.609,-12.87
19.625,0.52
19.640,8.72
19.656,12.96
19.671,15.1
19.687,16.76
19.703,18.59
19.718,20.08
19.734,19.84
19.750,16.53
19.765,9.88
19.781,1.26
19.796,-6.26
19.812,-8.76
19.828,-2.79
19.843,13.19
19.859,38.01
19.875,67.83
19.890,97.33
19.906,121.35
19.921,136.65
19.937,142.8
19.953,142.04
19.968,138.17
19.984,135.05
20.000,135.36
20.015,140.19
20.031,149.25
20.046,161.63
20.062,176.35
20.078,192.64
20.093,209.78
20.109,226.85
20.125,242.58
20.140,255.5
20.156,264.26
20.171,267.95
20.187,266.22
20.203,259.13
20.218,246.97
20.234,230.19
20.250,209.48
20.265,185.88
20.281,160.8
20.296,135.69
20.312,111.85
20.328,90.08
20.343,70.74
20.359,53.88
20.375,39.43
20.390,27.29
20.406,17.12
20.421,8.12
20.437,-0.99
20.453,-11.51
20.468,-24.16
20.484,-38.45
20.500,-52.66
20.515,-64.32
20.531,-71.23
20.546,-72.34
20.562,-68.21
20.578,-60.61
20.593,-51.69
20.609,-43.04
20.625,-35.17
20.640,-27.65
20.656,-19.71
20.671,-11.04
20.687,-2.15
20.703,5.75
20.718,11.25
20.734,13.47
20.750,12.36
20.765,8.7
20.781,3.7
20.796,-1.47
20.812,-5.94
20.828,-9.22
20.843,-11.05
20.859,-11.28
20.875,-9.84
20.890,-6.89
20.906,-2.89
20.921,1.29
20.937,4.66
20.953,6.31
20.968,5.73
20.984,2.97
21.000,-1.35
21.015,-6.25
21.031,-10.76
21.046,-14.22
21.062,-16.44
21.078,-17.72
21.093,-18.71
21.109,-20.04
21.125,-22.27
21.140,-25.73
21.156,-30.49
21.171,-36.32
21.187,-42.49
21.203,-47.62
21.218,-49.82
21.234,-47.02
21.250,-37.62
21.265,-21.07
21.281,1.84
21.296,29.22
21.312,58.69
21.328,88.02
21.343,115.5
21.359,139.95
21.375,160.51
21.390,176.5
21.406,187.4
21.421,193.1
21.437,194.19
21.453,191.87
21.468,187.66
21.484,183.05
21.500,179.02
21.515,175.95
21.531,173.7
21.546,171.95
21.562,170.46
21.578,169.22
21.593,168.36
21.609,167.95
21.625,167.65
21.640,166.62
21.656,163.52
21.671,156.83
21.687,145.22
21.703,127.98
21.718,105.28
21.734,78.2
21.750,48.43
21.765,17.94
21.781,-11.39
21.796,-38.08
21.812,-61.11
21.828,-80.02
21.843,-94.97
21.859,-106.73
21.875,-116.47
21.890,-125.51
21.906,-134.74
21.921,-144.24
21.937,-153.01
21.953,-159.12
21.968,-160.31
21.984,-154.67
22.000,-141.28
22.015,-120.56
22.031,-94.23
22.046,-65.03
22.062,-36.22
22.078,-11.11
22.093,7.5
22.109,17.82
22.125,19.35
22.140,13.01
22.156,0.86
22.171,-14.39
22.187,-29.9
22.203,-43.19
22.218,-52.35
22.234,-56.14
22.250,-53.98
22.265,-45.95
22.281,-32.8
22.296,-15.96
22.312,2.43
22.328,19.73
22.343,33.23
22.359,40.89
22.375,42.08
22.390,38.06
22.406,31.57
22.421,25.69
22.437,22.33
22.453,21.24
22.468,20.24
22.484,16.57
22.500,8.59
22.515,-3.1
22.531,-15.91
22.546,-26.66
22.562,-33.23
22.578,-35.4
22.593,-34.7
22.609,-33.26
22.625,-32.7
22.640,-33.71
22.656,-36.22
22.671,-39.92
22.687,-44.66
22.703,-50.29
22.718,-56.37
22.734,-62.03
22.750,-66.02
22.765,-67.16
22.781,-64.74
22.796,-58.72
22.812,-49.77
22.828,-38.99
22.843,-27.66
22.859,-16.94
22.875,-7.68
22.890,-0.32
22.906,5.26
22.921,9.72
22.937,14.18
22.953,19.92
22.968,28.06
22.984,39.24
23.000,53.52
23.015,70.45
23.031,89.36
23.046,109.65
23.062,130.72
23.078,151.87
23.093,172.01
23.109,189.46
23.125,202.07
23.140,207.76
23.156,205.05
23.171,193.54
23.187,173.81
23.203,147.08
23.218,114.69
23.234,77.83
23.250,37.66
23.265,-4.25
23.281,-45.63
23.296,-83.48
23.312,-114.8
23.328,-137.46
23.343,-151.23
23.359,-158.03
23.375,-161.3
23.390,-164.79
23.406,-171.06
23.421,-180.71
23.437,-192.25
23.453,-203.11
23.468,-210.7
23.484,-213.45
23.500,-211.11
23.515,-204.58
23.531,-195.07
23.546,-183.51
23.562,-170.22
23.578,-154.99
23.593,-137.58
23.609,-118.06
23.625,-97.11
23.640,-75.93
23.656,-55.86
23.671,-37.94
23.687,-22.57
23.703,-9.39
23.718,2.42
23.734,13.79
23.750,25.32
23.765,37.04
23.781,48.37
23.796,58.3
23.812,65.77
23.828,69.9
23.843,70.29
23.859,67.22
23.875,61.64
23.890,54.99
23.906,48.82
23.921,44.27
23.937,41.79
23.953,41.1
23.968,41.42
23.984,41.92
24.000,42.07
24.015,41.63
24.031,40.62
24.046,38.98
24.062,36.53
24.078,33.08
24.093,28.63
24.109,23.47
24.125,18.12
24.140,13.04
24.156,8.31
24.171,3.58
24.187,-1.77
24.203,-8.24
24.218,-15.75
24.234,-23.5
24.250,-30.1
24.265,-33.93
24.281,-33.82
24.296,-29.41
24.312,-21.33
24.328,-10.94
24.343,0.16
24.359,10.67
24.375,19.86
24.390,27.57
24.406,34.01
24.421,39.35
24.437,43.6
24.453,46.64
24.468,48.32
24.484,48.65
24.500,47.9
24.515,46.47
24.531,44.82
24.546,43.23
24.562,41.78
24.578,40.37
24.593,38.93
24.609,37.41
24.625,35.88
24.640,34.44
24.656,33.08
24.671,31.71
24.687,30.18
24.703,28.49
24.718,26.78
24.734,25.33
24.750,24.34
24.765,23.75
24.781,23.21
24.796,22.24
24.812,20.46
24.828,17.77
24.843,14.4
24.859,10.78
24.875,7.37
24.890,4.41
24.906,1.93
24.921,-0.21
24.937,-2.31
24.953,-4.69
24.968,-7.68
24.984,-11.57
25.000,-16.55
25.015,-22.5
25.031,-28.96
25.046,-35.03
25.062,-39.56
25.078,-41.41
25.093,-39.75
25.109,-34.44
25.125,-26.02
25.140,-15.59
25.156,-4.49
25.171,6.08
25.187,15.29
25.203,22.77
25.218,28.51
25.234,32.69
25.250,35.48
25.265,37.07
25.281,37.56
25.296,37.15
25.312,36.12
25.328,34.85
25.343,33.79
25.359,33.3
25.375,33.62
25.390,34.73
25.406,36.39
25.421,38.23
25.437,39.87
25.453,41.01
25.468,41.48
25.484,41.31
25.500,40.61
25.515,39.63
25.531,38.58
25.546,37.67
25.562,36.99
25.578,36.52
25.593,36.1
25.609,35.55
25.625,34.75
25.640,33.77
25.656,32.94
25.671,32.67
25.687,33.37
25.703,35.2
25.718,37.89
25.734,40.61
25.750,42.0
25.765,40.41
25.781,34.3
25.796,22.79
25.812,6.11
25.828,-14.18
25.843,-35.46
25.859,-54.73
25.875,-69.39
25.890,-77.91
25.906,-80.15
25.921,-77.12
25.937,-70.43
25.953,-61.73
25.968,-52.38
25.984,-43.27
26.000,-34.97
26.015,-27.87
26.031,-22.21
26.046,-18.08
26.062,-15.36
26.078,-13.66
26.093,-12.4
26.109,-10.96
26.125,-8.88
26.140,-5.99
26.156,-2.54
26.171,1.02
26.187,4.16
26.203,6.48
26.218,7.96
26.234,8.8
26.250,9.28
26.265,9.58
26.281,9.59
26.296,8.97
26.312,7.38
26.328,4.69
26.343,1.04
26.359,-3.11
26.375,-7.21
26.390,-10.78
26.406,-13.6
26.421,-15.7
26.437,-17.28
26.453,-18.57
26.468,-19.78
26.484,-21.06
26.500,-22.52
26.515,-24.41
26.531,-26.94
26.546,-30.24
26.562,-34.17
26.578,-38.18
26.593,-41.35
26.609,-42.7
26.625,-41.42
26.640,-37.22
26.656,-30.37
26.671,-21.69
26.687,-12.18
26.703,-2.85
26.718,5.58
26.734,12.67
26.750,18.32
26.765,22.6
26.781,25.69
26.796,27.76
26.812,28.95
26.828,29.38
26.843,29.21
26.859,28.71
26.875,28.21
26.890,28.03
26.906,28.42
26.921,29.44
26.937,31.0
26.953,32.9
26.968,34.9
26.984,36.75
27.000,38.21
27.015,39.11
27.031,39.33
27.046,38.83
27.062,37.7
27.078,36.11
27.093,34.3
27.109,32.49
27.125,30.84
27.140,29.4
27.156,28.21
27.171,27.24
27.187,26.5
27.203,25.95
27.218,25.54
27.234,25.16
27.250,24.72
27.265,24.19
27.281,23.61
27.296,23.13
27.312,22.89
27.328,22.99
27.343,23.35
27.359,23.74
27.375,23.87
27.390,23.55
27.406,22.76
27.421,21.72
27.437,20.76
27.453,20.14
27.468,19.95
27.484,20.07
27.500,20.19
27.515,20.01
27.531,19.34
27.546,18.11
27.562,16.42
27.578,14.37
27.593,12.11
27.609,9.76
27.625,7.47
27.640,5.42
27.656,3.74
27.671,2.49
27.687,1.54
27.703,0.63
27.718,-0.52
27.734,-2.11
27.750,-4.16
27.765,-6.55
27.781,-9.18
27.796,-12.07
27.812,-15.43
27.828,-19.56
27.843,-24.6
27.859,-30.44
27.875,-36.64
27.890,-42.64
27.906,-47.97
27.921,-52.42
27.937,-56.06
27.953,-59.19
27.968,-62.2
27.984,-65.5
28.000,-69.38
28.015,-73.93
28.031,-78.86
28.046,-83.43
28.062,-86.55
28.078,-86.96
28.093,-83.71
28.109,-76.49
28.125,-65.74
28.140,-52.63
28.156,-38.65
28.171,-25.3
28.187,-13.72
28.203,-4.64
28.218,1.71
28.234,5.43
28.250,6.83
28.265,6.45
28.281,4.85
28.296,2.69
28.312,0.57
28.328,-0.94
28.343,-1.51
28.359,-1.01
28.375,0.34
28.390,2.14
28.406,3.91
28.421,5.31
28.437,6.24
28.453,6.92
28.468,7.64
28.484,8.6
28.500,9.66
28.515,10.31
28.531,9.95
28.546,8.11
28.562,4.82
28.578,0.67
28.593,-3.35
28.609,-6.3
28.625,-7.64
28.640,-7.48
28.656,-6.52
28.671,-5.78
28.687,-6.11
28.703,-7.98
28.718,-11.26
28.734,-15.31
28.750,-19.23
28.765,-22.03
28.781,-22.85
28.796,-21.15
28.812,-16.86
28.828,-10.5
28.843,-3.14
28.859,3.83
28.875,9.23
28.890,12.64
28.906,14.7
28.921,16.89
28.937,20.78
28.953,27.11
28.968,35.25
28.984,43.3
29.000,48.98
29.015,50.7
29.031,48.19
29.046,42.43
29.062,35.01
29.078,27.31
29.093,20.03
29.109,13.4
29.125,7.57
29.140,3.07
29.156,0.71
29.171,1.14
29.187,4.26
29.203,9.03
29.218,13.75
29.234,16.75
29.250,17.06
29.265,14.76
29.281,10.84
29.296,6.69
29.312,3.49
29.328,1.74
29.343,1.25
29.359,1.3
29.375,1.17
29.390,0.47
29.406,-0.66
29.421,-1.78
29.437,-2.36
29.453,-2.09
29.468,-0.98
29.484,0.65
29.500,2.4
29.515,3.93
29.531,5.05
29.546,5.68
29.562,5.86
29.578,5.62
29.593,5.07
29.609,4.3
29.625,3.48
29.640,2.75
29.656,2.2
29.671,1.86
29.687,1.66
29.703,1.47
29.718,1.13
29.734,0.51
29.750,-0.49
29.765,-1.85
29.781,-3.5
29.796,-5.33
29.812,-7.21
29.828,-9.1
29.843,-11.02
29.859,-13.05
29.875,-15.29
29.890,-17.86
29.906,-20.76
29.921,-23.96
29.937,-27.33
29.953,-30.68
29.968,-33.8
29.984,-36.56
30.000,-38.97
30.015,-41.22
30.031,-43.68
30.046,-46.7
30.062,-50.4
30.078,-54.47
30.093,-58.05
30.109,-59.94
30.125,-58.96
30.140,-54.35
30.156,-46.13
30.171,-35.14
30.187,-22.77
30.203,-10.57
30.218,0.19
30.234,8.75
30.250,14.91
30.265,18.89
30.281,21.06
30.296,21.83
30.312,21.6
30.328,20.75
30.343,19.65
30.359,18.66
30.375,18.04
30.390,17.87
30.406,18.07
30.421,18.45
30.437,18.84
30.453,19.18
30.468,19.53
30.484,20.02
30.500,20.71
30.515,21.48
30.531,21.99
30.546,21.93
30.562,21.02
30.578,19.26
30.593,16.86
30.609,14.17
30.625,11.55
30.640,9.21
30.656,7.13
30.671,5.11
30.687,2.85
30.703,0.1
30.718,-3.18
30.734,-6.73
30.750,-10.01
30.765,-12.25
30.781,-12.67
30.796,-10.68
30.812,-6.08
30.828,0.81
30.843,9.2
30.859,18.08
30.875,26.5
30.890,33.79
30.906,39.69
30.921,44.21
30.937,47.46
30.953,49.44
30.968,50.04
30.984,49.18
31.000,46.97
31.015,43.82
31.031,40.31
31.046,37.01
31.062,34.24
31.078,32.04
31.093,30.25
31.109,28.69
31.125,27.33
31.140,26.19
31.156,25.34
31.171,24.68
31.187,23.98
31.203,22.91
31.218,21.2
31.234,18.78
31.250,15.77
31.265,12.44
31.281,9.04
31.296,5.7
31.312,2.34
31.328,-1.27
31.343,-5.42
31.359,-10.28
31.375,-15.75
31.390,-21.45
31.406,-26.69
31.421,-30.64
31.437,-32.52
31.453,-31.82
31.468,-28.41
31.484,-22.58
31.500,-14.95
31.515,-6.37
31.531,2.33
31.546,10.43
31.562,17.47
31.578,23.23
31.593,27.66
31.609,30.87
31.625,32.98
31.640,34.11
31.656,34.36
31.671,33.84
31.687,32.64
31.703,30.91
31.718,28.79
31.734,26.51
31.750,24.28
31.765,22.34
31.781,20.85
31.796,19.9
31.812,19.4
31.828,19.14
31.843,18.72
31.859,17.69
31.875,15.56
31.890,12.0
31.906,6.91
31.921,0.48
31.937,-6.87
31.953,-14.55
31.968,-22.02
31.984,-28.93
32.000,-35.12
32.015,-40.66
32.031,-45.7
32.046,-50.38
32.062,-54.7
32.078,-58.52
32.093,-61.5
32.109,-63.19
32.125,-63.09
32.140,-60.77
32.156,-56.02
32.171,-48.94
32.187,-39.98
32.203,-29.82
32.218,-19.24
32.234,-8.93
32.250,0.52
32.265,8.73
32.281,15.53
32.296,20.91
32.312,25.06
32.328,28.33
32.343,31.11
32.359,33.81
32.375,36.73
32.390,40.02
32.406,43.64
32.421,47.43
32.437,51.1
32.453,54.29
32.468,56.6
32.484,57.59
32.500,56.91
32.515,54.38
32.531,50.07
32.546,44.32
32.562,37.65
32.578,30.65
32.593,23.75
32.609,17.14
32.625,10.77
32.640,4.42
32.656,-2.04
32.671,-8.6
32.687,-15.02
32.703,-20.99
32.718,-26.25
32.734,-30.68
32.750,-34.32
32.765,-37.23
32.781,-39.4
32.796,-40.58
32.812,-40.44
32.828,-38.67
32.843,-35.14
32.859,-30.07
32.875,-23.93
32.890,-17.25
32.906,-10.46
32.921,-3.8
32.937,2.67
32.953,8.93
32.968,14.89
32.984,20.35
33.000,25.12
33.015,29.08
33.031,32.29
33.046,34.96
33.062,37.32
33.078,39.62
33.093,41.98
33.109,44.44
33.125,47.0
33.140,49.64
33.156,52.31
33.171,54.94
33.187,57.44
33.203,59.65
33.218,61.51
33.234,63.0
33.250,64.26
33.265,65.53
33.281,67.04
33.296,68.99
33.312,71.35
33.328,73.89
33.343,76.17
33.359,77.71
33.375,78.11
33.390,77.15
33.406,74.8
33.421,71.19
33.437,66.58
33.453,61.23
33.468,55.41
33.484,49.29
33.500,43.03
33.515,36.79
33.531,30.75
33.546,25.23
33.562,20.64
33.578,17.46
33.593,16.07
33.609,16.78
33.625,19.71
33.640,24.94
33.656,32.53
33.671,42.43
33.687,54.46
33.703,68.04
33.718,82.24
33.734,95.88
33.750,107.92
33.765,117.65
33.781,124.87
33.796,129.72
33.812,132.43
33.828,133.11
33.843,131.78
33.859,128.53
33.875,123.68
33.890,117.76
33.906,111.19
33.921,104.08
33.937,96.09
33.953,86.69
33.968,75.66
33.984,63.3
34.000,50.53
34.015,38.44
34.031,27.78
34.046,18.71
34.062,10.85
34.078,3.72
34.093,-2.75
34.109,-8.14
34.125,-11.68
34.140,-12.83
34.156,-11.63
34.171,-8.83
34.187,-5.79
34.203,-4.0
34.218,-4.77
34.234,-8.98
34.250,-16.98
34.265,-28.52
34.281,-42.83
34.296,-58.62
34.312,-74.28
34.328,-88.16
34.343,-98.85
34.359,-105.48
34.375,-107.91
34.390,-106.54
34.406,-102.12
34.421,-95.48
34.437,-87.19
34.453,-77.5
34.468,-66.33
34.484,-53.42
34.500,-38.55
34.515,-21.76
34.531,-3.53
34.546,15.16
34.562,32.89
34.578,48.02
34.593,59.09
34.609,65.23
34.625,66.61
34.640,64.51
34.656,61.0
34.671,58.33
34.687,58.14
34.703,60.84
34.718,65.56
34.734,70.55
34.750,73.92
34.765,74.38
34.781,71.56
34.796,65.89
34.812,58.19
34.828,49.27
34.843,39.65
34.859,29.68
34.875,19.49
34.890,9.18
34.906,-1.25
34.921,-11.95
34.937,-23.17
34.953,-35.1
34.968,-47.6
34.984,-60.04
35.000,-71.27
35.015,-79.8
35.031,-84.29
35.046,-83.82
35.062,-78.33
35.078,-68.68
35.093,-56.56
35.109,-44.23
35.125,-34.07
35.140,-28.12
35.156,-27.67
35.171,-33.06
35.187,-43.62
35.203,-57.85
35.218,-73.8
35.234,-89.47
35.250,-103.26
35.265,-114.29
35.281,-122.43
35.296,-128.19
35.312,-132.49
35.328,-136.24
35.343,-140.06
35.359,-144.14
35.375,-148.32
35.390,-152.3
35.406,-156.0
35.421,-159.68
35.437,-163.83
35.453,-168.86
35.468,-174.76
35.484,-181.05
35.500,-186.9
35.515,-191.55
35.531,-194.65
35.546,-196.36
35.562,-197.13
35.578,-197.33
35.593,-196.86
35.609,-195.13
35.625,-191.25
35.640,-184.44
35.656,-174.28
35.671,-160.94
35.687,-144.97
35.703,-127.26
35.718,-108.83
35.734,-90.73
35.750,-73.82
35.765,-58.64
35.781,-45.18
35.796,-32.82
35.812,-20.6
35.828,-7.58
35.843,6.61
35.859,21.45
35.875,35.62
35.890,47.47
35.906,55.76
35.921,60.23
35.937,61.89
35.953,62.59
35.968,64.33
35.984,68.51
36.000,75.52
36.015,84.71
36.031,94.78
36.046,104.27
36.062,111.83
36.078,116.44
36.093,117.3
36.109,113.98
36.125,106.39
36.140,94.89
36.156,80.3
36.171,63.7
36.187,46.23
36.203,28.68
36.218,11.4
36.234,-5.77
36.250,-23.22
36.265,-41.37
36.281,-60.38
36.296,-80.07
36.312,-99.95
36.328,-119.34
36.343,-137.49
36.359,-153.73
36.375,-167.55
36.390,-178.61
36.406,-186.77
36.421,-192.13
36.437,-194.93
36.453,-195.57
36.468,-194.41
36.484,-191.7
36.500,-187.51
36.515,-181.81
36.531,-174.59
36.546,-166.01
36.562,-156.36
36.578,-146.01
36.593,-135.28
36.609,-124.3
36.625,-113.07
36.640,-101.49
36.656,-89.49
36.671,-77.09
36.687,-64.45
36.703,-51.79
36.718,-39.35
36.734,-27.35
36.750,-15.92
36.765,-5.13
36.781,4.93
36.796,14.1
36.812,21.98
36.828,27.93
36.843,31.14
36.859,30.86
36.875,26.58
36.890,18.23
36.906,6.28
36.921,-8.41
36.937,-24.7
36.953,-41.33
36.968,-56.89
36.984,-69.94
37.000,-79.05
37.015,-83.16
37.031,-81.81
37.046,-75.42
37.062,-65.21
37.078,-52.87
37.093,-40.02
37.109,-27.71
37.125,-16.27
37.140,-5.42
37.156,5.27
37.171,16.04
37.187,26.64
37.203,36.56
37.218,45.27
37.234,52.55
37.250,58.65
37.265,64.19
37.281,69.82
37.296,75.94
37.312,82.49
37.328,88.93
37.343,94.4
37.359,97.94
37.375,98.86
37.390,96.89
37.406,92.36
37.421,86.09
37.437,79.21
37.453,72.69
37.468,67.13
37.484,62.56
37.500,58.6
37.515,54.78
37.531,50.89
37.546,46.98
37.562,43.35
37.578,40.15
37.593,37.23
37.609,33.98
37.625,29.54
37.640,23.01
37.656,13.76
37.671,1.71
37.687,-12.48
37.703,-27.27
37.718,-40.46
37.734,-49.58
37.750,-52.63
37.765,-48.81
37.781,-38.76
37.796,-24.39
37.812,-8.15
37.828,7.83
37.843,22.27
37.859,34.88
37.875,45.84
37.890,55.41
37.906,63.57
37.921,69.98
37.937,74.36
37.953,76.7
37.968,77.4
37.984,77.16
38.000,76.63
38.015,76.18
38.031,75.83
38.046,75.3
38.062,74.28
38.078,72.54
38.093,70.15
38.109,67.38
38.125,64.53
38.140,61.76
38.156,59.02
38.171,56.02
38.187,52.4
38.203,47.92
38.218,42.5
38.234,36.27
38.250,29.5
38.265,22.46
38.281,15.37
38.296,8.37
38.312,1.51
38.328,-5.21
38.343,-11.86
38.359,-18.6
38.375,-25.69
38.390,-33.42
38.406,-42.0
38.421,-51.43
38.437,-61.36
38.453,-71.02
38.468,-79.25
38.484,-84.67
38.500,-86.03
38.515,-82.51
38.531,-74.02
38.546,-61.27
38.562,-45.61
38.578,-28.7
38.593,-12.04
38.609,3.29
38.625,16.74
38.640,28.15
38.656,37.59
38.671,45.07
38.687,50.62
38.703,54.31
38.718,56.36
38.734,57.21
38.750,57.42
38.765,57.43
38.781,57.54
38.796,57.73
38.812,57.84
38.828,57.71
38.843,57.26
38.859,56.57
38.875,55.76
38.890,54.85
38.906,53.68
38.921,51.97
38.937,49.49
38.953,46.19
38.968,42.28
38.984,38.13
39.000,34.1
39.015,30.34
39.031,26.75
39.046,23.02
39.062,18.87
39.078,14.16
39.093,8.96
39.109,3.54
39.125,-1.77
39.140,-6.72
39.156,-11.23
39.171,-15.43
39.187,-19.66
39.203,-24.35
39.218,-29.91
39.234,-36.64
39.250,-44.47
39.265,-52.89
39.281,-60.82
39.296,-66.76
39.312,-69.19
39.328,-66.92
39.343,-59.6
39.359,-47.85
39.375,-33.08
39.390,-17.1
39.406,-1.56
39.421,12.41
39.437,24.31
39.453,34.12
39.468,41.99
39.484,48.06
39.500,52.36
39.515,54.96
39.531,56.11
39.546,56.29
39.562,56.1
39.578,56.09
39.593,56.51
39.609,57.29
39.625,58.07
39.640,58.44
39.656,58.21
39.671,57.44
39.687,56.34
39.703,55.1
39.718,53.71
39.734,51.92
39.750,49.38
39.765,45.88
39.781,41.47
39.796,36.53
39.812,31.63
39.828,27.25
39.843,23.61
39.859,20.56
39.875,17.71
39.890,14.55
39.906,10.72
39.921,6.12
39.937,1.02
39.953,-4.15
39.968,-8.92
39.984,-13.01
40.000,-16.46
40.015,-19.57
40.031,-22.85
40.046,-26.85
40.062,-32.02
40.078,-38.46
40.093,-45.83
40.109,-53.26
40.125,-59.38
40.140,-62.72
40.156,-62.05
40.171,-56.86
40.187,-47.52
40.203,-35.24
40.218,-21.61
40.234,-8.2
40.250,3.89
40.265,14.1
40.281,22.32
40.296,28.62
40.312,33.14
40.328,35.99
40.343,37.36
40.359,37.57
40.375,37.12
40.390,36.58
40.406,36.43
40.421,36.9
40.437,37.93
40.453,39.21
40.468,40.33
40.484,40.96
40.500,40.95
40.515,40.32
40.531,39.21
40.546,37.77
40.562,36.06
40.578,34.01
40.593,31.5
40.609,28.4
40.625,24.68
40.640,20.43
40.656,15.89
40.671,11.38
40.687,7.22
40.703,3.6
40.718,0.53
40.734,-2.18
40.750,-4.83
40.765,-7.68
40.781,-10.87
40.796,-14.35
40.812,-17.95
40.828,-21.41
40.843,-24.61
40.859,-27.56
40.875,-30.46
40.890,-33.62
40.906,-37.35
40.921,-41.87
40.937,-47.16
40.953,-52.87
40.968,-58.24
40.984,-62.24
41.000,-63.72
41.015,-61.75
41.031,-55.96
41.046,-46.71
41.062,-35.07
41.078,-22.47
41.093,-10.31
41.109,0.45
41.125,9.4
41.140,16.54
41.156,22.1
41.171,26.24
41.187,29.05
41.203,30.65
41.218,31.29
41.234,31.42
41.250,31.6
41.265,32.23
41.281,33.47
41.296,35.11
41.312,36.78
41.328,38.06
41.343,38.73
41.359,38.79
41.375,38.37
41.390,37.63
41.406,36.67
41.421,35.42
41.437,33.78
41.453,31.64
41.468,28.98
41.484,25.9
41.500,22.6
41.515,19.29
41.531,16.12
41.546,13.13
41.562,10.26
41.578,7.39
41.593,4.39
41.609,1.22
41.625,-2.05
41.640,-5.25
41.656,-8.16
41.671,-10.63
41.687,-12.63
41.703,-14.29
41.718,-15.88
41.734,-17.72
41.750,-20.13
41.765,-23.35
41.781,-27.4
41.796,-31.99
41.812,-36.49
41.828,-39.92
41.843,-41.17
41.859,-39.3
41.875,-33.85
41.890,-25.01
41.906,-13.6
41.921,-0.83
41.937,11.98
41.953,23.72
41.968,33.71
41.984,41.65
42.000,47.62
42.015,51.94
42.031,55.04
42.046,57.36
42.062,59.27
42.078,61.04
42.093,62.82
42.109,64.8
42.125,67.11
42.140,69.91
42.156,73.35
42.171,77.49
42.187,82.35
42.203,87.78
42.218,93.63
42.234,99.59
42.250,105.31
42.265,110.41
42.281,114.63
42.296,117.98
42.312,120.88
42.328,124.18
42.343,129.01
42.359,136.36
42.375,146.6
42.390,158.98
42.406,171.53
42.421,181.34
42.437,185.38
42.453,181.37
42.468,168.57
42.484,147.91
42.500,121.78
42.515,93.26
42.531,65.48
42.546,40.93
42.562,21.09
42.578,6.31
42.593,-4.14
42.609,-11.67
42.625,-17.85
42.640,-23.72
42.656,-29.49
42.671,-34.46
42.687,-37.64
42.703,-38.4
42.718,-37.07
42.734,-34.96
42.750,-34.0
42.765,-36.15
42.781,-42.9
42.796,-54.9
42.812,-71.83
42.828,-92.27
42.843,-113.61
42.859,-132.37
42.875,-144.86
42.890,-148.44
42.906,-142.47
42.921,-128.78
42.937,-111.14
42.953,-93.75
42.968,-79.75
42.984,-70.29
43.000,-64.62
43.015,-61.1
43.031,-58.29
43.046,-55.72
43.062,-53.7
43.078,-52.81
43.093,-53.17
43.109,-54.3
43.125,-55.43
43.140,-56.05
43.156,-56.41
43.171,-57.46
43.187,-60.49
43.203,-66.46
43.218,-75.46
43.234,-86.64
43.250,-98.45
43.265,-109.2
43.281,-117.66
43.296,-123.44
43.312,-126.95
43.328,-129.05
43.343,-130.63
43.359,-132.21
43.375,-133.92
43.390,-135.62
43.406,-137.1
43.421,-138.13
43.437,-138.34
43.453,-137.07
43.468,-133.36
43.484,-126.18
43.500,-114.89
43.515,-99.67
43.531,-81.55
43.546,-62.24
43.562,-43.51
43.578,-26.73
43.593,-12.59
43.609,-1.23
43.625,7.63
43.640,14.27
43.656,18.97
43.671,22.01
43.687,23.79
43.703,24.93
43.718,26.08
43.734,27.81
43.750,30.32
43.765,33.41
43.781,36.6
43.796,39.37
43.812,41.4
43.828,42.67
43.843,43.45
43.859,44.11
43.875,44.85
43.890,45.59
43.906,45.96
43.921,45.47
43.937,43.78
43.953,40.8
43.968,36.8
43.984,32.31
44.000,27.88
44.015,23.94
44.031,20.7
44.046,18.17
44.062,16.25
44.078,14.76
44.093,13.51
44.109,12.26
44.125,10.76
44.140,8.81
44.156,6.3
44.171,3.41
44.187,0.69
44.203,-0.99
44.218,-0.51
44.234,3.16
44.250,10.68
44.265,22.1
44.281,36.87
44.296,53.86
44.312,71.7
44.328,88.99
44.343,104.47
44.359,117.14
44.375,126.3
44.390,131.61
44.406,133.15
44.421,131.39
44.437,127.12
44.453,121.25
44.468,114.66
44.484,107.97
44.500,101.55
44.515,95.39
44.531,89.24
44.546,82.59
44.562,74.8
44.578,65.28
44.593,53.61
44.609,39.74
44.625,24.06
44.640,7.25
44.656,-9.86
44.671,-26.6
44.687,-42.59
44.703,-57.77
44.718,-72.22
44.734,-85.92
44.750,-98.55
44.765,-109.45
44.781,-117.83
44.796,-123.15
44.812,-125.46
44.828,-125.44
44.843,-124.28
44.859,-123.24
44.875,-123.3
44.890,-124.92
44.906,-127.98
44.921,-131.94
44.937,-135.87
44.953,-138.56
44.968,-138.6
44.984,-134.64
45.000,-125.75
45.015,-111.82
45.031,-93.75
45.046,-73.28
45.062,-52.49
45.078,-33.18
45.093,-16.41
45.109,-2.37
45.125,9.39
45.140,19.43
45.156,28.16
45.171,35.66
45.187,41.83
45.203,46.64
45.218,50.29
45.234,53.2
45.250,55.75
45.265,58.24
45.281,60.7
45.296,63.04
45.312,65.12
45.328,66.9
45.343,68.37
45.359,69.5
45.375,70.15
45.390,70.05
45.406,68.94
45.421,66.72
45.437,63.56
45.453,59.83
45.468,55.94
45.484,52.17
45.500,48.51
45.515,44.72
45.531,40.44
45.546,35.34
45.562,29.3
45.578,22.45
45.593,15.14
45.609,7.87
45.625,1.21
45.640,-4.29
45.656,-8.14
45.671,-10.0
45.687,-9.82
45.703,-7.84
45.718,-4.57
45.734,-0.62
45.750,3.49
45.765,7.6
45.781,11.97
45.796,17.13
45.812,23.73
45.828,32.16
45.843,42.42
45.859,54.11
45.875,66.56
45.890,79.15
45.906,91.52
45.921,103.54
45.937,115.23
45.953,126.47
45.968,136.84
45.984,145.55
46.000,151.49
46.015,153.57
46.031,150.9
46.046,143.06
46.062,130.2
46.078,113.12
46.093,93.27
46.109,72.67
46.125,53.61
46.140,38.29
46.156,28.15
46.171,23.46
46.187,23.09
46.203,24.84
46.218,26.13
46.234,24.87
46.250,20.17
46.265,12.37
46.281,2.74
46.296,-7.28
46.312,-16.65
46.328,-25.12
46.343,-33.11
46.359,-41.23
46.375,-49.84
46.390,-58.66
46.406,-66.7
46.421,-72.56
46.437,-74.82
46.453,-72.59
46.468,-65.8
46.484,-55.22
46.500,-42.39
46.515,-29.28
46.531,-17.93
46.546,-10.29
46.562,-8.01
46.578,-12.33
46.593,-23.77
46.609,-42.0
46.625,-65.71
46.640,-92.67
46.656,-120.1
46.671,-145.2
46.687,-165.75
46.703,-180.72
46.718,-190.37
46.734,-196.15
46.750,-200.01
46.765,-203.51
46.781,-207.03
46.796,-209.44
46.812,-208.47
46.828,-201.75
46.843,-187.91
46.859,-167.32
46.875,-141.92
46.890,-114.38
46.906,-87.08
46.921,-61.46
46.937,-38.09
46.953,-17.11
46.968,1.3
46.984,17.0
47.000,30.08
47.015,41.0
47.031,50.4
47.046,58.52
47.062,64.85
47.078,68.46
47.093,68.73
47.109,66.34
47.125,63.34
47.140,62.45
47.156,65.76
47.171,73.78
47.187,85.38
47.203,98.59
47.218,111.79
47.234,124.26
47.250,135.92
47.265,146.52
47.281,155.03
47.296,159.63
47.312,158.55
47.328,151.09
47.343,138.34
47.359,123.13
47.375,109.03
47.390,99.19
47.406,95.36
47.421,97.52
47.437,104.31
47.453,113.79
47.468,124.23
47.484,134.42
47.500,143.54
47.515,150.8
47.531,155.08
47.546,154.96
47.562,149.13
47.578,136.85
47.593,118.23
47.609,94.19
47.625,66.08
47.640,35.29
47.656,3.18
47.671,-28.95
47.687,-59.81
47.703,-88.17
47.718,-113.01
47.734,-133.72
47.750,-150.19
47.765,-162.64
47.781,-171.45
47.796,-176.99
47.812,-179.56
47.828,-179.56
47.843,-177.51
47.859,-174.03
47.875,-169.63
47.890,-164.58
47.906,-158.82
47.921,-152.15
47.937,-144.48
47.953,-136.0
47.968,-127.22
47.984,-118.78
48.000,-111.18
48.015,-104.63
48.031,-99.01
48.046,-93.92
48.062,-88.96
48.078,-83.91
48.093,-78.83
48.109,-74.12
48.125,-70.25
48.140,-67.64
48.156,-66.34
48.171,-66.0
48.187,-65.87
48.203,-65.13
48.218,-63.15
48.234,-59.82
48.250,-55.58
48.265,-51.3
48.281,-48.0
48.296,-46.49
48.312,-47.07
48.328,-49.49
48.343,-53.01
48.359,-56.62
48.375,-59.44
48.390,-61.01
48.406,-61.54
48.421,-61.96
48.437,-63.69
48.453,-68.1
48.468,-75.82
48.484,-86.27
48.500,-97.53
48.515,-106.8
48.531,-111.26
48.546,-109.01
48.562,-99.6
48.578,-84.09
48.593,-64.49
48.609,-43.02
48.625,-21.56
48.640,-1.35
48.656,16.87
48.671,32.71
48.687,45.92
48.703,56.53
48.718,64.88
48.734,71.72
48.750,78.01
48.765,84.64
48.781,92.18
48.796,100.54
48.812,109.14
48.828,116.98
48.843,123.1
48.859,126.86
48.875,128.1
48.890,127.03
48.906,123.92
48.921,118.81
48.937,111.37
48.953,101.09
48.968,87.61
48.984,71.21
49.000,52.86
49.015,34.13
49.031,16.69
49.046,1.81
49.062,-10.07
49.078,-19.36
49.093,-27.11
49.109,-34.56
49.125,-42.69
49.140,-51.9
49.156,-61.84
49.171,-71.45
49.187,-79.28
49.203,-83.78
49.218,-83.82
49.234,-78.98
49.250,-69.7
49.265,-57.12
49.281,-42.73
49.296,-28.0
49.312,-14.01
49.328,-1.48
49.343,9.24
49.359,17.92
49.375,24.43
49.390,28.77
49.406,31.2
49.421,32.21
49.437,32.55
49.453,32.92
49.468,33.81
49.484,35.31
49.500,37.15
49.515,38.86
49.531,40.05
49.546,40.56
49.562,40.48
49.578,40.03
49.593,39.39
49.609,38.55
49.625,37.27
49.640,35.21
49.656,32.11
49.671,27.93
49.687,22.91
49.703,17.44
49.718,11.95
49.734,6.71
49.750,1.73
49.765,-3.2
49.781,-8.46
49.796,-14.5
49.812,-21.66
49.828,-30.03
49.843,-39.27
49.859,-48.52
49.875,-56.53
49.890,-61.89
49.906,-63.5
49.921,-60.89
49.937,-54.43
49.953,-45.15
49.968,-34.33
49.984,-23.03
50.000,-11.89
50.015,-1.1
50.031,9.32
50.046,19.24
50.062,28.3
50.078,36.04
50.093,42.16
50.109,46.7
50.125,50.06
50.140,52.73
50.156,55.03
50.171,56.92
50.187,58.11
50.203,58.3
50.218,57.48
50.234,56.0
50.250,54.39
50.265,52.99
50.281,51.75
50.296,50.17
50.312,47.57
50.328,43.45
50.343,37.75
50.359,30.86
50.375,23.49
50.390,16.42
50.406,10.27
50.421,5.45
50.437,2.16
50.453,0.44
50.468,0.13
50.484,0.94
50.500,2.37
50.515,3.93
50.531,5.15
50.546,5.63
50.562,5.06
50.578,3.23
50.593,0.03
50.609,-4.42
50.625,-9.58
50.640,-14.47
50.656,-17.74
50.671,-18.04
50.687,-14.4
50.703,-6.54
50.718,4.91
50.734,18.69
50.750,33.23
50.765,47.13
50.781,59.4
50.796,69.58
50.812,77.59
50.828,83.58
50.843,87.73
50.859,90.29
50.875,91.64
50.890,92.43
50.906,93.58
50.921,96.06
50.937,100.66
50.953,107.75
50.968,117.19
50.984,128.35
51.000,140.23
51.015,151.48
51.031,160.53
51.046,165.64
51.062,165.23
51.078,158.42
51.093,145.5
51.109,128.26
51.125,109.73
51.140,93.35
51.156,81.9
51.171,76.54
51.187,76.38
51.203,78.97
51.218,81.21
51.234,80.57
51.250,75.86
51.265,67.41
51.281,56.5
51.296,44.56
51.312,32.48
51.328,20.36
51.343,7.76
51.359,-5.77
51.375,-20.38
51.390,-35.77
51.406,-51.39
51.421,-66.68
51.437,-81.27
51.453,-94.87
51.468,-107.22
51.484,-117.94
51.500,-126.64
51.515,-133.08
51.531,-137.3
51.546,-139.72
51.562,-140.92
51.578,-141.55
51.593,-142.1
51.609,-143.01
51.625,-144.66
51.640,-147.52
51.656,-152.0
51.671,-158.26
51.687,-166.02
51.703,-174.43
51.718,-182.26
51.734,-188.31
51.750,-191.84
51.765,-192.72
51.781,-191.33
51.796,-188.03
51.812,-182.65
51.828,-174.31
51.843,-161.72
51.859,-143.84
51.875,-120.65
51.890,-93.35
51.906,-64.09
51.921,-35.19
51.937,-8.29
51.953,16.02
51.968,38.07
51.984,58.4
52.000,77.12
52.015,93.59
52.031,106.67
52.046,115.36
52.062,119.48
52.078,119.95
52.093,118.62
52.109,117.54
52.125,118.26
52.140,121.2
52.156,125.4
52.171,128.93
52.187,129.46
52.203,125.14
52.218,115.36
52.234,101.12
52.250,84.84
52.265,69.68
52.281,58.4
52.296,52.33
52.312,50.75
52.328,50.99
52.343,49.07
52.359,40.95
52.375,23.78
52.390,-3.2
52.406,-38.31
52.421,-77.92
52.437,-117.37
52.453,-152.16
52.468,-178.77
52.484,-195.2
52.500,-200.94
52.515,-196.64
52.531,-183.83
52.546,-164.72
52.562,-141.93
52.578,-118.35
52.593,-96.61
52.609,-78.62
52.625,-65.17
52.640,-55.87
52.656,-49.53
52.671,-44.77
52.687,-40.54
52.703,-36.33
52.718,-32.15
52.734,-28.23
52.750,-24.87
52.765,-22.2
52.781,-20.13
52.796,-18.41
52.812,-16.75
52.828,-14.8
52.843,-12.44
52.859,-9.74
52.875,-6.98
52.890,-4.56
52.906,-2.81
52.921,-1.85
52.937,-1.56
52.953,-1.72
52.968,-2.1
52.984,-2.63
53.000,-3.44
53.015,-4.72
53.031,-6.55
53.046,-8.74
53.062,-10.73
53.078,-11.74
53.093,-10.96
53.109,-7.83
53.125,-2.19
53.140,5.59
53.156,14.81
53.171,24.6
53.187,34.16
53.203,42.99
53.218,50.87
53.234,57.75
53.250,63.64
53.265,68.46
53.281,72.1
53.296,74.48
53.312,75.7
53.328,76.07
53.343,76.03
53.359,75.99
53.375,76.22
53.390,76.71
53.406,77.25
53.421,77.64
53.437,77.74
53.453,77.55
53.468,77.07
53.484,76.31
53.500,75.14
53.515,73.43
53.531,71.14
53.546,68.4
53.562,65.46
53.578,62.6
53.593,59.93
53.609,57.28
53.625,54.29
53.640,50.55
53.656,45.8
53.671,40.09
53.687,33.7
53.703,27.03
53.718,20.37
53.734,13.87
53.750,7.44
53.765,0.9
53.781,-6.01
53.796,-13.37
53.812,-21.02
53.828,-28.44
53.843,-34.78
53.859,-39.01
53.875,-40.3
53.890,-38.29
53.906,-33.33
53.921,-26.39
53.937,-18.74
53.953,-11.48
53.968,-5.2
53.984,0.18
54.000,5.17
54.015,10.32
54.031,15.85
54.046,21.44
54.062,26.19
54.078,29.03
54.093,29.03
54.109,25.78
54.125,19.62
54.140,11.53
54.156,2.83
54.171,-5.15
54.187,-11.33
54.203,-15.08
54.218,-16.05
54.234,-14.12
54.250,-9.35
54.265,-1.87
54.281,7.96
54.296,19.66
54.312,32.66
54.328,46.39
54.343,60.35
54.359,74.01
54.375,86.67
54.390,97.32
54.406,104.62
54.421,107.22
54.437,104.14
54.453,95.3
54.468,81.69
54.484,65.18
54.500,48.02
54.515,32.02
54.531,18.09
54.546,5.99
54.562,-5.43
54.578,-17.66
54.593,-31.88
54.609,-48.52
54.625,-67.17
54.640,-86.7
54.656,-105.67
54.671,-122.58
54.687,-136.07
54.703,-145.09
54.718,-148.95
54.734,-147.37
54.750,-140.62
54.765,-129.49
54.781,-115.15
54.796,-98.87
54.812,-81.61
54.828,-63.88
54.843,-45.87
54.859,-27.78
54.875,-10.24
54.890,5.59
54.906,18.31
54.921,26.85
54.937,30.98
54.953,31.58
54.968,30.25
54.984,28.82
55.000,28.69
55.015,30.52
55.031,34.28
55.046,39.5
55.062,45.61
55.078,52.04
55.093,58.3
55.109,63.89
55.125,68.37
55.140,71.38
55.156,72.86
55.171,73.03
55.187,72.42
55.203,71.67
55.218,71.28
55.234,71.41
55.250,71.82
55.265,72.05
55.281,71.57
55.296,70.13
55.312,67.79
55.328,64.86
55.343,61.52
55.359,57.72
55.375,53.08
55.390,47.21
55.406,39.97
55.421,31.72
55.437,23.22
55.453,15.24
55.468,8.29
55.484,2.38
55.500,-2.85
55.515,-7.85
55.531,-12.86
55.546,-17.69
55.562,-21.87
55.578,-24.73
55.593,-25.73
55.609,-24.65
55.625,-21.71
55.640,-17.67
55.656,-13.64
55.671,-10.83
55.687,-10.18
55.703,-12.12
55.718,-16.22
55.734,-21.45
55.750,-26.25
55.765,-28.99
55.781,-28.26
55.796,-23.22
55.812,-13.69
55.828,-0.24
55.843,15.85
55.859,32.9
55.875,49.08
55.890,62.75
55.906,72.71
55.921,78.22
55.937,78.99
55.953,75.12
55.968,67.03
55.984,55.39
56.000,41.23
56.015,25.7
56.031,10.03
56.046,-4.75
56.062,-17.93
56.078,-29.11
56.093,-38.19
56.109,-45.27
56.125,-50.59
56.140,-54.48
56.156,-57.3
56.171,-59.28
56.187,-60.37
56.203,-60.16
56.218,-58.0
56.234,-53.3
56.250,-45.9
56.265,-36.31
56.281,-25.54
56.296,-14.77
56.312,-4.81
56.328,4.11
56.343,12.25
56.359,19.96
56.375,27.32
56.390,33.91
56.406,38.98
56.421,41.92
56.437,42.51
56.453,41.05
56.468,38.18
56.484,34.59
56.500,30.8
56.515,27.15
56.531,24.05
56.546,22.1
56.562,22.03
56.578,24.46
56.593,29.53
56.609,36.7
56.625,44.84
56.640,52.55
56.656,58.7
56.671,62.7
56.687,64.59
56.703,64.84
56.718,64.01
56.734,62.53
56.750,60.61
56.765,58.28
56.781,55.55
56.796,52.47
56.812,49.12
56.828,45.55
56.843,41.7
56.859,37.44
56.875,32.59
56.890,27.08
56.906,21.0
56.921,14.58
56.937,8.09
56.953,1.85
56.968,-3.93
56.984,-9.09
57.000,-13.56
57.015,-17.32
57.031,-20.42
57.046,-22.95
57.062,-24.98
57.078,-26.59
57.093,-27.73
57.109,-28.27
57.125,-28.04
57.140,-26.97
57.156,-25.08
57.171,-22.56
57.187,-19.59
57.203,-16.28
57.218,-12.67
57.234,-8.7
57.250,-4.26
57.265,0.69
57.281,6.1
57.296,11.76
57.312,17.37
57.328,22.6
57.343,27.17
57.359,31.02
57.375,34.3
57.390,37.43
57.406,40.97
57.421,45.57
57.437,51.79
57.453,59.86
57.468,69.38
57.484,79.0
57.500,86.51
57.515,89.42
57.531,85.88
57.546,75.71
57.562,60.85
57.578,44.85
57.593,31.71
57.609,24.57
57.625,24.82
57.640,32.12
57.656,45.04
57.671,61.9
57.687,81.15
57.703,101.51
57.718,121.69
57.734,140.37
57.750,156.35
57.765,168.91
57.781,177.82
57.796,183.17
57.812,185.06
57.828,183.34
57.843,177.78
57.859,168.38
57.875,155.59
57.890,140.36
57.906,123.84
57.921,107.02
57.937,90.49
57.953,74.36
57.968,58.44
57.984,42.48
58.000,26.31
58.015,9.81
58.031,-7.05
58.046,-24.33
58.062,-42.12
58.078,-60.44
58.093,-79.29
58.109,-98.62
58.125,-118.36
58.140,-138.56
58.156,-159.44
58.171,-181.25
58.187,-204.16
58.203,-227.91
58.218,-251.64
58.234,-273.92
58.250,-293.13
58.265,-307.96
58.281,-317.68
58.296,-322.19
58.312,-321.72
58.328,-316.2
58.343,-305.2
58.359,-287.87
58.375,-263.54
58.390,-232.27
58.406,-195.34
58.421,-155.17
58.437,-114.84
58.453,-77.39
58.468,-45.02
58.484,-18.69
58.500,1.85
58.515,17.76
58.531,30.48
58.546,41.08
58.562,49.93
58.578,56.66
58.593,60.47
58.609,60.59
58.625,56.84
58.640,49.85
58.656,41.04
58.671,32.28
58.687,25.56
58.703,22.45
58.718,23.65
58.734,28.57
58.750,35.13
58.765,39.92
58.781,38.79
58.796,27.9
58.812,4.74
58.828,-30.85
58.843,-76.46
58.859,-127.61
58.875,-178.88
58.890,-225.13
58.906,-262.63
58.921,-289.43
58.937,-305.06
58.953,-310.11
58.968,-305.67
58.984,-293.19
59.000,-274.51
59.015,-252.01
59.031,-228.34
59.046,-205.88
59.062,-186.17
59.078,-169.48
59.093,-154.86
59.109,-140.84
59.125,-126.29
59.140,-111.01
59.156,-95.88
59.171,-82.29
59.187,-71.54
59.203,-64.27
59.218,-60.3
59.234,-58.95
59.250,-59.45
59.265,-61.23
59.281,-64.04
59.296,-67.64
59.312,-71.64
59.328,-75.36
59.343,-77.93
59.359,-78.54
59.375,-76.69
59.390,-72.4
59.406,-66.08
59.421,-58.53
59.437,-50.73
59.453,-43.69
59.468,-38.42
59.484,-35.74
59.500,-36.26
59.515,-40.21
59.531,-47.44
59.546,-57.34
59.562,-68.82
59.578,-80.38
59.593,-90.18
59.609,-96.34
59.625,-97.32
59.640,-92.3
59.656,-81.42
59.671,-65.77
59.687,-47.09
59.703,-27.25
59.718,-7.84
59.734,10.17
59.750,26.3
59.765,40.45
59.781,52.55
59.796,62.51
59.812,70.17
59.828,75.51
59.843,78.79
59.859,80.52
59.875,81.36
59.890,81.81
59.906,82.13
59.921,82.27
59.937,82.04
59.953,81.25
59.968,79.93
59.984,78.21
