timestamp,value
00.000,91.86
00.015,93.73
00.031,101.36
00.046,111.04
00.062,117.65
00.078,116.6
00.093,105.3
00.109,83.56
00.125,53.01
00.140,15.82
00.156,-26.24
00.171,-72.18
00.187,-121.32
00.203,-172.39
00.218,-222.91
00.234,-269.13
00.250,-306.85
00.265,-332.69
00.281,-345.26
00.296,-345.44
00.312,-335.92
00.328,-319.99
00.343,-300.43
00.359,-279.02
00.375,-256.77
00.390,-234.58
00.406,-213.77
00.421,-196.02
00.437,-182.74
00.453,-174.23
00.468,-169.11
00.484,-164.67
00.500,-157.81
00.515,-146.29
00.531,-129.59
00.546,-109.13
00.562,-87.56
00.578,-67.65
00.593,-51.29
00.609,-38.97
00.625,-29.91
00.640,-22.68
00.656,-15.88
00.671,-8.58
00.687,-0.63
00.703,7.56
00.718,15.44
00.734,22.54
00.750,28.81
00.765,34.47
00.781,39.87
00.796,45.18
00.812,50.3
00.828,54.89
00.843,58.52
00.859,60.96
00.875,62.25
00.890,62.71
00.906,62.76
00.921,62.72
00.937,62.72
00.953,62.79
00.968,62.95
00.984,63.37
01.000,64.24
01.015,65.61
01.031,67.29
01.046,68.72
01.062,69.09
01.078,67.62
01.093,63.69
01.109,57.07
01.125,47.98
01.140,37.1
01.156,25.43
01.171,14.33
01.187,5.24
01.203,-0.62
01.218,-2.54
01.234,-0.59
01.250,4.48
01.265,11.44
01.281,18.98
01.296,26.06
01.312,32.04
01.328,36.64
01.343,39.72
01.359,41.18
01.375,40.89
01.390,38.86
01.406,35.35
01.421,30.87
01.437,26.21
01.453,22.14
01.468,19.31
01.484,17.97
01.500,18.06
01.515,19.23
01.531,21.02
01.546,22.95
01.562,24.6
01.578,25.58
01.593,25.61
01.609,24.48
01.625,22.06
01.640,18.31
01.656,13.22
01.671,6.78
01.687,-0.96
01.703,-9.94
01.718,-20.0
01.734,-30.76
01.750,-41.6
01.765,-51.78
01.781,-60.64
01.796,-67.89
01.812,-73.78
01.828,-78.92
01.843,-83.98
01.859,-89.27
01.875,-94.47
01.890,-98.76
01.906,-101.26
01.921,-101.71
01.937,-100.81
01.953,-100.21
01.968,-101.93
01.984,-107.68
02.000,-118.31
02.015,-133.48
02.031,-151.62
02.046,-169.96
02.062,-184.66
02.078,-191.24
02.093,-185.53
02.109,-164.97
02.125,-130.0
02.140,-84.47
02.156,-34.82
02.171,11.95
02.187,50.68
02.203,79.54
02.218,99.9
02.234,114.74
02.250,126.6
02.265,136.27
02.281,142.88
02.296,145.02
02.312,142.1
02.328,134.96
02.343,125.46
02.359,115.36
02.375,105.46
02.390,95.39
02.406,84.22
02.421,71.42
02.437,57.47
02.453,43.86
02.468,32.55
02.484,25.19
02.500,22.56
02.515,24.31
02.531,29.23
02.546,35.87
02.562,43.11
02.578,50.49
02.593,58.22
02.609,66.9
02.625,77.02
02.640,88.44
02.656,100.13
02.671,110.26
02.687,116.65
02.703,117.71
02.718,113.07
02.734,103.83
02.750,92.21
02.765,80.73
02.781,71.29
02.796,64.56
02.812,60.02
02.828,56.51
02.843,53.03
02.859,49.26
02.875,45.61
02.890,42.77
02.906,41.2
02.921,40.74
02.937,40.71
02.953,40.4
02.968,39.37
02.984,37.61
03.000,35.4
03.015,33.02
03.031,30.43
03.046,27.32
03.062,23.27
03.078,18.06
03.093,11.82
03.109,4.93
03.125,-2.21
03.140,-9.17
03.156,-15.62
03.171,-21.08
03.187,-24.94
03.203,-26.49
03.218,-25.18
03.234,-20.84
03.250,-13.84
03.265,-4.93
03.281,5.03
03.296,15.29
03.312,25.33
03.328,34.83
03.343,43.52
03.359,50.99
03.375,56.64
03.390,59.79
03.406,59.92
03.421,56.92
03.437,51.24
03.453,43.83
03.468,35.93
03.484,28.58
03.500,22.37
03.515,17.39
03.531,13.48
03.546,10.49
03.562,8.6
03.578,8.06
03.593,8.91
03.609,10.72
03.625,12.55
03.640,13.33
03.656,12.29
03.671,9.34
03.687,5.1
03.703,0.69
03.718,-2.8
03.734,-4.61
03.750,-4.63
03.765,-3.38
03.781,-1.85
03.796,-1.16
03.812,-2.16
03.828,-5.15
03.843,-9.75
03.859,-15.14
03.875,-20.07
03.890,-23.38
03.906,-24.23
03.921,-22.26
03.937,-17.73
03.953,-11.31
03.968,-3.92
03.984,3.7
04.000,11.2
04.015,18.64
04.031,26.08
04.046,33.19
04.062,39.28
04.078,43.42
04.093,45.1
04.109,44.46
04.125,42.45
04.140,40.34
04.156,39.1
04.171,38.94
04.187,39.36
04.203,39.68
04.218,39.47
04.234,38.77
04.250,37.99
04.265,37.41
04.281,37.05
04.296,36.6
04.312,35.71
04.328,34.34
04.343,32.81
04.359,31.44
04.375,30.56
04.390,30.2
04.406,30.14
04.421,30.12
04.437,29.86
04.453,29.22
04.468,28.11
04.484,26.56
04.500,24.69
04.515,22.95
04.531,22.14
04.546,23.07
04.562,26.32
04.578,31.76
04.593,38.45
04.609,45.03
04.625,50.18
04.640,53.12
04.656,53.81
04.671,52.8
04.687,50.84
04.703,48.51
04.718,46.06
04.734,43.3
04.750,39.85
04.765,35.39
04.781,29.77
04.796,23.26
04.812,16.33
04.828,9.62
04.843,3.73
04.859,-0.9
04.875,-3.99
04.890,-5.28
04.906,-4.45
04.921,-1.34
04.937,3.91
04.953,10.61
04.968,17.61
04.984,23.95
05.000,29.59
05.015,35.83
05.031,44.71
05.046,57.83
05.062,74.98
05.078,93.82
05.093,110.53
05.109,121.59
05.125,125.58
05.140,124.07
05.156,121.07
05.171,121.31
05.187,128.06
05.203,141.72
05.218,159.8
05.234,177.86
05.250,191.16
05.265,196.2
05.281,191.43
05.296,177.26
05.312,155.31
05.328,127.57
05.343,95.68
05.359,60.89
05.375,24.46
05.390,-11.88
05.406,-45.6
05.421,-73.9
05.437,-94.51
05.453,-106.76
05.468,-111.71
05.484,-111.73
05.500,-109.17
05.515,-105.29
05.531,-100.25
05.546,-93.87
05.562,-86.91
05.578,-81.46
05.593,-80.18
05.609,-84.45
05.625,-93.13
05.640,-102.78
05.656,-109.36
05.671,-110.47
05.687,-106.45
05.703,-99.65
05.718,-92.64
05.734,-86.62
05.750,-81.25
05.765,-76.0
05.781,-71.46
05.796,-69.68
05.812,-73.11
05.828,-82.92
05.843,-98.05
05.859,-115.7
05.875,-132.7
05.890,-146.69
05.906,-156.6
05.921,-162.17
05.937,-163.34
05.953,-160.08
05.968,-152.79
05.984,-142.66
06.000,-131.59
06.015,-121.49
06.031,-113.5
06.046,-107.61
06.062,-103.0
06.078,-98.6
06.093,-93.68
06.109,-87.98
06.125,-81.44
06.140,-73.99
06.156,-65.36
06.171,-55.38
06.187,-44.19
06.203,-32.36
06.218,-20.72
06.234,-10.09
06.250,-1.02
06.265,6.35
06.281,12.22
06.296,16.95
06.312,20.87
06.328,24.1
06.343,26.57
06.359,28.12
06.375,28.69
06.390,28.44
06.406,27.76
06.421,27.23
06.437,27.35
06.453,28.35
06.468,29.79
06.484,30.81
06.500,30.22
06.515,27.09
06.531,21.11
06.546,12.69
06.562,2.86
06.578,-7.03
06.593,-15.44
06.609,-20.93
06.625,-22.35
06.640,-19.25
06.656,-12.33
06.671,-3.51
06.687,4.5
06.703,9.14
06.718,9.11
06.734,5.06
06.750,-0.97
06.765,-6.66
06.781,-10.61
06.796,-12.77
06.812,-14.0
06.828,-15.24
06.843,-17.01
06.859,-19.66
06.875,-23.85
06.890,-30.84
06.906,-42.08
06.921,-58.33
06.937,-78.73
06.953,-100.7
06.968,-120.84
06.984,-136.4
07.000,-146.58
07.015,-152.91
07.031,-158.47
07.046,-166.55
07.062,-179.26
07.078,-197.05
07.093,-218.87
07.109,-242.96
07.125,-267.29
07.140,-289.7
07.156,-307.64
07.171,-318.02
07.187,-317.46
07.203,-303.23
07.218,-274.53
07.234,-233.33
07.250,-184.33
07.265,-133.63
07.281,-87.07
07.296,-48.48
07.312,-19.1
07.328,2.23
07.343,17.95
07.359,30.64
07.375,42.18
07.390,53.41
07.406,64.41
07.421,74.85
07.437,84.45
07.453,93.12
07.468,100.97
07.484,108.1
07.500,114.42
07.515,119.73
07.531,123.91
07.546,127.11
07.562,129.7
07.578,132.31
07.593,135.44
07.609,139.21
07.625,143.23
07.640,146.57
07.656,148.21
07.671,147.42
07.687,144.04
07.703,138.57
07.718,131.89
07.734,124.92
07.750,118.2
07.765,111.79
07.781,105.32
07.796,98.22
07.812,90.1
07.828,80.94
07.843,71.1
07.859,61.2
07.875,51.9
07.890,43.53
07.906,36.06
07.921,29.09
07.937,22.13
07.953,14.87
07.968,7.51
07.984,0.67
08.000,-4.82
08.015,-8.15
08.031,-8.92
08.046,-7.15
08.062,-3.25
08.078,2.16
08.093,8.35
08.109,14.62
08.125,20.35
08.140,25.05
08.156,28.45
08.171,30.5
08.187,31.36
08.203,31.27
08.218,30.5
08.234,29.26
08.250,27.79
08.265,26.3
08.281,25.0
08.296,24.0
08.312,23.25
08.328,22.56
08.343,21.65
08.359,20.29
08.375,18.44
08.390,16.29
08.406,14.12
08.421,12.08
08.437,10.13
08.453,8.06
08.468,5.59
08.484,2.67
08.500,-0.57
08.515,-3.7
08.531,-6.23
08.546,-7.8
08.562,-8.32
08.578,-8.05
08.593,-7.61
08.609,-7.72
08.625,-8.97
08.640,-11.62
08.656,-15.37
08.671,-19.37
08.687,-22.43
08.703,-23.39
08.718,-21.6
08.734,-17.15
08.750,-10.83
08.765,-3.8
08.781,2.87
08.796,8.51
08.812,12.97
08.828,16.36
08.843,18.89
08.859,20.62
08.875,21.58
08.890,21.79
08.906,21.35
08.921,20.39
08.937,19.02
08.953,17.09
08.968,14.29
08.984,10.33
09.000,5.24
09.015,-0.31
09.031,-5.21
09.046,-8.23
09.062,-8.55
09.078,-6.13
09.093,-1.93
09.109,2.49
09.125,5.41
09.140,5.6
09.156,2.7
09.171,-2.76
09.187,-9.65
09.203,-16.58
09.218,-22.16
09.234,-25.38
09.250,-25.77
09.265,-23.48
09.281,-19.27
09.296,-14.19
09.312,-9.27
09.328,-5.14
09.343,-1.92
09.359,0.62
09.375,2.91
09.390,5.38
09.406,8.34
09.421,11.92
09.437,16.15
09.453,20.91
09.468,25.92
09.484,30.87
09.500,35.48
09.515,39.77
09.531,43.93
09.546,48.24
09.562,52.65
09.578,56.73
09.593,59.86
09.609,61.62
09.625,62.12
09.640,62.01
09.656,62.3
09.671,63.9
09.687,67.29
09.703,72.31
09.718,78.4
09.734,84.71
09.750,90.4
09.765,94.69
09.781,96.9
09.796,96.39
09.812,92.64
09.828,85.43
09.843,74.86
09.859,61.36
09.875,45.58
09.890,28.19
09.906,9.84
09.921,-8.69
09.937,-26.43
09.953,-42.11
09.968,-54.59
09.984,-63.3
10.000,-68.52
10.015,-71.37
10.031,-73.31
10.046,-75.41
10.062,-77.95
10.078,-80.47
10.093,-82.11
10.109,-82.37
10.125,-81.36
10.140,-79.62
10.156,-77.7
10.171,-75.64
10.187,-72.75
10.203,-67.86
10.218,-59.75
10.234,-47.91
10.250,-32.66
10.265,-15.37
10.281,2.3
10.296,18.85
10.312,33.39
10.328,45.97
10.343,57.16
10.359,67.92
10.375,79.0
10.390,90.7
10.406,102.64
10.421,113.78
10.437,122.81
10.453,128.77
10.468,131.85
10.484,133.44
10.500,135.97
10.515,141.69
10.531,151.55
10.546,164.47
10.562,177.75
10.578,188.29
10.593,193.94
10.609,194.1
10.625,189.29
10.640,180.26
10.656,167.08
10.671,149.01
10.687,124.95
10.703,94.13
10.718,56.6
10.734,13.09
10.750,-34.81
10.765,-85.1
10.781,-134.99
10.796,-181.03
10.812,-219.25
10.828,-245.68
10.843,-257.26
10.859,-252.5
10.875,-232.08
10.890,-198.92
10.906,-157.93
10.921,-115.19
10.937,-76.75
10.953,-47.28
10.968,-28.9
10.984,-20.89
11.000,-20.24
11.015,-22.88
11.031,-25.06
11.046,-24.35
11.062,-19.89
11.078,-12.01
11.093,-1.64
11.109,10.09
11.125,22.06
11.140,33.25
11.156,42.74
11.171,50.15
11.187,55.58
11.203,59.64
11.218,63.07
11.234,66.36
11.250,69.47
11.265,71.89
11.281,72.87
11.296,71.62
11.312,67.5
11.328,60.1
11.343,49.27
11.359,35.19
11.375,18.5
11.390,0.31
11.406,-18.07
11.421,-35.34
11.437,-50.58
11.453,-63.29
11.468,-73.29
11.484,-80.59
11.500,-85.33
11.515,-87.95
11.531,-89.29
11.546,-90.55
11.562,-92.85
11.578,-96.57
11.593,-100.97
11.609,-104.29
11.625,-104.47
11.640,-100.05
11.656,-90.95
11.671,-78.44
11.687,-64.63
11.703,-51.53
11.718,-40.33
11.734,-31.17
11.750,-23.56
11.765,-16.95
11.781,-11.13
11.796,-6.29
11.812,-2.67
11.828,-0.16
11.843,1.81
11.859,4.03
11.875,7.17
11.890,11.48
11.906,16.57
11.921,21.64
11.937,25.73
11.953,28.13
11.968,28.64
11.984,27.57
12.000,25.59
12.015,23.4
12.031,21.68
12.046,20.82
12.062,20.99
12.078,22.26
12.093,24.64
12.109,28.04
12.125,32.26
12.140,36.89
12.156,41.34
12.171,44.94
12.187,47.13
12.203,47.61
12.218,46.4
12.234,43.72
12.250,39.95
12.265,35.45
12.281,30.61
12.296,25.8
12.312,21.44
12.328,17.94
12.343,15.54
12.359,14.1
12.375,12.92
12.390,10.92
12.406,7.08
12.421,1.02
12.437,-6.79
12.453,-15.15
12.468,-22.65
12.484,-28.43
12.500,-32.56
12.515,-35.93
12.531,-39.67
12.546,-44.54
12.562,-50.68
12.578,-57.77
12.593,-65.45
12.609,-73.44
12.625,-81.54
12.640,-89.22
12.656,-95.47
12.671,-99.21
12.687,-99.96
12.703,-98.24
12.718,-95.53
12.734,-93.36
12.750,-92.39
12.765,-91.91
12.781,-90.22
12.796,-85.66
12.812,-77.63
12.828,-66.97
12.843,-55.44
12.859,-44.74
12.875,-35.72
12.890,-28.26
12.906,-21.77
12.921,-15.91
12.937,-10.94
12.953,-7.64
12.968,-6.61
12.984,-7.78
13.000,-10.24
13.015,-12.58
13.031,-13.39
13.046,-11.85
13.062,-7.91
13.078,-2.27
13.093,3.94
13.109,9.64
13.125,14.06
13.140,16.82
13.156,17.95
13.171,17.64
13.187,16.08
13.203,13.36
13.218,9.46
13.234,4.31
13.250,-2.09
13.265,-9.55
13.281,-17.85
13.296,-26.65
13.312,-35.65
13.328,-44.64
13.343,-53.54
13.359,-62.45
13.375,-71.48
13.390,-80.62
13.406,-89.59
13.421,-97.75
13.437,-104.18
13.453,-107.97
13.468,-108.61
13.484,-106.16
13.500,-101.18
13.515,-94.5
13.531,-86.81
13.546,-78.52
13.562,-69.71
13.578,-60.45
13.593,-50.94
13.609,-41.47
13.625,-32.28
13.640,-23.32
13.656,-14.2
13.671,-4.43
13.687,6.42
13.703,18.48
13.718,31.53
13.734,45.17
13.750,58.99
13.765,72.64
13.781,85.72
13.796,97.65
13.812,107.65
13.828,114.94
13.843,118.85
13.859,119.07
13.875,115.61
13.890,108.78
13.906,98.9
13.921,86.31
13.937,71.53
13.953,55.32
13.968,38.8
13.984,23.18
14.000,9.53
14.015,-1.6
14.031,-10.2
14.046,-16.56
14.062,-20.83
14.078,-22.79
14.093,-21.99
14.109,-18.36
14.125,-12.66
14.140,-6.42
14.156,-1.22
14.171,2.23
14.187,4.59
14.203,7.63
14.218,13.23
14.234,22.15
14.250,33.71
14.265,46.05
14.281,57.21
14.296,66.08
14.312,72.57
14.328,77.3
14.343,80.84
14.359,83.38
14.375,84.67
14.390,84.71
14.406,83.88
14.421,82.9
14.437,82.31
14.453,82.14
14.468,81.84
14.484,80.61
14.500,77.99
14.515,74.13
14.531,69.96
14.546,66.8
14.562,65.83
14.578,67.49
14.593,71.28
14.609,75.88
14.625,79.43
14.640,80.27
14.656,77.38
14.671,70.77
14.687,61.55
14.703,51.54
14.718,42.67
14.734,36.37
14.750,33.28
14.765,33.19
14.781,35.43
14.796,39.21
14.812,43.89
14.828,48.98
14.843,54.02
14.859,58.55
14.875,62.04
14.890,63.96
14.906,63.53
14.921,59.75
14.937,51.48
14.953,37.87
14.968,19.06
14.984,-3.44
15.000,-26.78
15.015,-47.67
15.031,-63.45
15.046,-73.11
15.062,-77.44
15.078,-78.41
15.093,-78.03
15.109,-77.41
15.125,-76.59
15.140,-75.02
15.156,-72.46
15.171,-69.49
15.187,-67.5
15.203,-68.13
15.218,-72.57
15.234,-81.02
15.250,-92.66
15.265,-106.04
15.281,-119.62
15.296,-132.19
15.312,-142.99
15.328,-151.51
15.343,-157.26
15.359,-159.58
15.375,-157.77
15.390,-151.3
15.406,-140.17
15.421,-125.05
15.437,-107.21
15.453,-88.19
15.468,-69.39
15.484,-51.87
15.500,-36.34
15.515,-23.28
15.531,-13.08
15.546,-6.07
15.562,-2.35
15.578,-1.63
15.593,-3.12
15.609,-5.74
15.625,-8.44
15.640,-10.41
15.656,-11.26
15.671,-10.96
15.687,-9.66
15.703,-7.6
15.718,-5.19
15.734,-2.84
15.750,-0.94
15.765,0.39
15.781,1.34
15.796,2.39
15.812,4.02
15.828,6.55
15.843,9.88
15.859,13.54
15.875,16.86
15.890,19.13
15.906,19.74
15.921,18.18
15.937,14.17
15.953,7.65
15.968,-0.9
15.984,-10.48
16.000,-19.86
16.015,-27.87
16.031,-33.9
16.046,-37.93
16.062,-40.15
16.078,-40.55
16.093,-38.53
16.109,-32.96
16.125,-22.74
16.140,-7.51
16.156,11.93
16.171,33.59
16.187,55.07
16.203,74.32
16.218,90.31
16.234,103.09
16.250,113.42
16.265,122.21
16.281,129.94
16.296,136.73
16.312,142.4
16.328,146.76
16.343,149.6
16.359,150.54
16.375,148.84
16.390,143.5
16.406,133.67
16.421,119.16
16.437,100.95
16.453,80.98
16.468,61.63
16.484,45.01
16.500,32.27
16.515,23.5
16.531,17.93
16.546,14.49
16.562,12.15
16.578,10.2
16.593,8.19
16.609,5.84
16.625,3.04
16.640,-0.07
16.656,-3.02
16.671,-5.15
16.687,-5.79
16.703,-4.59
16.718,-1.61
16.734,2.68
16.750,7.69
16.765,13.04
16.781,18.52
16.796,24.01
16.812,29.09
16.828,32.93
16.843,34.33
16.859,32.17
16.875,25.82
16.890,15.48
16.906,2.15
16.921,-12.68
16.937,-27.38
16.953,-40.55
16.968,-51.13
16.984,-58.59
17.000,-62.83
17.015,-64.12
17.031,-63.14
17.046,-60.73
17.062,-57.9
17.078,-55.57
17.093,-54.43
17.109,-54.69
17.125,-56.11
17.140,-58.08
17.156,-59.7
17.171,-60.24
17.187,-59.38
17.203,-57.45
17.218,-55.26
17.234,-53.77
17.250,-53.51
17.265,-54.31
17.281,-55.18
17.296,-54.63
17.312,-51.34
17.328,-44.66
17.343,-34.9
17.359,-23.22
17.375,-11.08
17.390,0.3
17.406,10.33
17.421,19.09
17.437,27.07
17.453,34.81
17.468,42.58
17.484,50.31
17.500,57.55
17.515,63.69
17.531,68.0
17.546,69.97
17.562,69.35
17.578,66.32
17.593,61.3
17.609,54.9
17.625,47.71
17.640,40.23
17.656,32.87
17.671,26.08
17.687,20.34
17.703,16.01
17.718,13.16
17.734,11.4
17.750,9.95
17.765,7.97
17.781,4.98
17.796,1.07
17.812,-3.15
17.828,-6.96
17.843,-9.9
17.859,-12.16
17.875,-14.42
17.890,-17.56
17.906,-22.14
17.921,-28.1
17.937,-34.81
17.953,-41.22
17.968,-46.29
17.984,-49.31
18.000,-50.06
18.015,-48.75
18.031,-45.81
18.046,-41.62
18.062,-36.51
18.078,-30.71
18.093,-24.53
18.109,-18.41
18.125,-13.01
18.140,-9.01
18.156,-6.88
18.171,-6.72
18.187,-8.15
18.203,-10.53
18.218,-13.15
18.234,-15.46
18.250,-17.15
18.265,-18.11
18.281,-18.41
18.296,-18.31
18.312,-18.38
18.328,-19.4
18.343,-22.16
18.359,-27.13
18.375,-34.09
18.390,-42.12
18.406,-49.79
18.421,-55.82
18.437,-59.57
18.453,-61.36
18.468,-62.24
18.484,-63.49
18.500,-66.12
18.515,-70.42
18.531,-76.04
18.546,-82.09
18.562,-87.4
18.578,-90.74
18.593,-91.09
18.609,-87.67
18.625,-80.22
18.640,-69.2
18.656,-55.74
18.671,-41.5
18.687,-28.33
18.703,-17.73
18.718,-10.41
18.734,-6.2
18.750,-4.08
18.765,-2.64
18.781,-0.51
18.796,3.28
18.812,9.06
18.828,16.63
18.843,25.43
18.859,34.8
18.875,44.1
18.890,52.78
18.906,60.42
18.921,66.65
18.937,71.13
18.953,73.57
18.968,73.75
18.984,71.59
19.000,67.16
19.015,60.67
19.031,52.37
19.046,42.41
19.062,30.8
19.078,17.52
19.093,2.66
19.109,-13.27
19.125,-29.13
19.140,-43.32
19.156,-54.17
19.171,-60.46
19.187,-61.75
19.203,-58.4
19.218,-51.33
19.234,-41.66
19.250,-30.35
19.265,-18.13
19.281,-5.49
19.296,7.1
19.312,19.15
19.328,30.08
19.343,39.4
19.359,46.74
19.375,51.92
19.390,54.92
19.406,55.88
19.421,55.04
19.437,52.76
19.453,49.56
19.468,46.14
19.484,43.28
19.500,41.74
19.515,41.91
19.531,43.68
19.546,46.37
19.562,49.01
19.578,50.61
19.593,50.65
19.609,49.15
19.625,46.69
19.640,44.14
19.656,42.22
19.671,41.31
19.687,41.26
19.703,41.59
19.718,41.76
19.734,41.4
19.750,40.49
19.765,39.27
19.781,38.21
19.796,37.87
19.812,38.9
19.828,41.81
19.843,46.84
19.859,53.82
19.875,61.95
19.890,69.93
19.906,76.21
19.921,79.52
19.937,79.25
19.953,75.66
19.968,69.66
19.984,62.28
20.000,54.27
20.015,45.94
20.031,37.39
20.046,28.83
20.062,20.75
20.078,13.85
20.093,8.66
20.109,5.25
20.125,3.06
20.140,1.23
20.156,-0.97
20.171,-3.7
20.187,-6.55
20.203,-9.15
20.218,-11.47
20.234,-14.23
20.250,-18.57
20.265,-25.42
20.281,-34.96
20.296,-46.45
20.312,-58.51
20.328,-69.65
20.343,-78.82
20.359,-85.68
20.375,-90.44
20.390,-93.76
20.406,-96.32
20.421,-98.6
20.437,-100.76
20.453,-102.43
20.468,-102.76
20.484,-100.67
20.500,-95.23
20.515,-86.18
20.531,-74.15
20.546,-60.49
20.562,-46.78
20.578,-34.3
20.593,-23.69
20.609,-14.96
20.625,-7.84
20.640,-2.15
20.656,2.06
20.671,4.62
20.687,5.55
20.703,5.26
20.718,4.53
20.734,4.32
20.750,5.38
20.765,8.03
20.781,12.11
20.796,17.01
20.812,22.02
20.828,26.47
20.843,29.95
20.859,32.22
20.875,33.31
20.890,33.44
20.906,33.05
20.921,32.79
20.937,33.28
20.953,34.93
20.968,37.61
20.984,40.58
21.000,42.65
21.015,42.53
21.031,39.35
21.046,32.95
21.062,24.05
21.078,14.02
21.093,4.55
21.109,-2.76
21.125,-6.71
21.140,-6.64
21.156,-2.51
21.171,5.1
21.187,15.12
21.203,26.15
21.218,36.74
21.234,45.76
21.250,52.71
21.265,58.02
21.281,63.0
21.296,69.33
21.312,78.33
21.328,90.19
21.343,103.61
21.359,116.14
21.375,124.92
21.390,127.65
21.406,123.09
21.421,111.15
21.437,92.56
21.453,68.43
21.468,40.16
21.484,9.45
21.500,-21.62
21.515,-50.97
21.531,-76.96
21.546,-98.74
21.562,-116.39
21.578,-130.47
21.593,-141.43
21.609,-149.31
21.625,-153.96
21.640,-155.35
21.656,-154.05
21.671,-151.04
21.687,-147.31
21.703,-143.39
21.718,-139.1
21.734,-133.64
21.750,-126.19
21.765,-116.32
21.781,-104.17
21.796,-90.35
21.812,-75.73
21.828,-61.16
21.843,-47.46
21.859,-35.4
21.875,-25.61
21.890,-18.47
21.906,-13.99
21.921,-11.64
21.937,-10.49
21.953,-9.51
21.968,-7.71
21.984,-4.56
22.000,0.11
22.015,6.17
22.031,13.2
22.046,20.64
22.062,27.86
22.078,34.24
22.093,39.23
22.109,42.56
22.125,44.19
22.140,44.38
22.156,43.55
22.171,42.0
22.187,40.0
22.203,37.68
22.218,35.11
22.234,32.39
22.250,29.59
22.265,26.66
22.281,23.49
22.296,19.86
22.312,15.6
22.328,10.71
22.343,5.5
22.359,0.47
22.375,-3.67
22.390,-6.22
22.406,-6.65
22.421,-4.76
22.437,-0.69
22.453,4.96
22.468,11.35
22.484,17.5
22.500,22.59
22.515,26.15
22.531,28.25
22.546,29.41
22.562,30.43
22.578,32.16
22.593,35.18
22.609,39.6
22.625,45.04
22.640,50.69
22.656,55.6
22.671,58.97
22.687,60.3
22.703,59.49
22.718,56.75
22.734,52.5
22.750,47.28
22.765,41.75
22.781,36.65
22.796,32.82
22.812,30.89
22.828,31.06
22.843,32.94
22.859,35.64
22.875,38.0
22.890,39.0
22.906,38.03
22.921,34.96
22.937,29.99
22.953,23.55
22.968,16.06
22.984,7.95
23.000,-0.25
23.015,-7.88
23.031,-14.27
23.046,-18.91
23.062,-21.7
23.078,-23.02
23.093,-23.66
23.109,-24.58
23.125,-26.63
23.140,-30.29
23.156,-35.58
23.171,-42.17
23.187,-49.43
23.203,-56.65
23.218,-63.13
23.234,-68.31
23.250,-71.82
23.265,-73.54
23.281,-73.54
23.296,-72.03
23.312,-69.25
23.328,-65.27
23.343,-59.95
23.359,-52.99
23.375,-44.1
23.390,-33.25
23.406,-20.77
23.421,-7.37
23.437,6.13
23.453,18.93
23.468,30.55
23.484,40.68
23.500,49.22
23.515,56.14
23.531,61.49
23.546,65.36
23.562,67.77
23.578,68.69
23.593,67.91
23.609,65.11
23.625,60.02
23.640,52.53
23.656,42.99
23.671,32.07
23.687,20.77
23.703,10.12
23.718,1.19
23.734,-5.23
23.750,-8.63
23.765,-8.92
23.781,-6.53
23.796,-2.24
23.812,2.81
23.828,7.49
23.843,10.85
23.859,12.36
23.875,11.81
23.890,9.36
23.906,5.42
23.921,0.56
23.937,-4.53
23.953,-9.19
23.968,-12.79
23.984,-14.95
24.000,-15.47
24.015,-14.53
24.031,-12.38
24.046,-9.26
24.062,-5.35
24.078,-0.59
24.093,5.07
24.109,11.6
24.125,18.57
24.140,25.15
24.156,30.24
24.171,32.78
24.187,32.15
24.203,28.34
24.218,22.04
24.234,14.35
24.250,6.32
24.265,-1.44
24.281,-8.74
24.296,-15.56
24.312,-21.67
24.328,-26.47
24.343,-29.26
24.359,-29.65
24.375,-27.98
24.390,-25.41
24.406,-23.36
24.421,-22.89
24.437,-24.2
24.453,-26.59
24.468,-28.88
24.484,-30.03
24.500,-29.48
24.515,-27.25
24.531,-23.64
24.546,-18.89
24.562,-13.21
24.578,-6.73
24.593,0.18
24.609,7.02
24.625,13.22
24.640,18.37
24.656,22.32
24.671,25.17
24.687,27.24
24.703,28.74
24.718,29.68
24.734,29.73
24.750,28.4
24.765,25.29
24.781,20.28
24.796,13.7
24.812,6.04
24.828,-2.07
24.843,-10.32
24.859,-18.65
24.875,-27.3
24.890,-36.44
24.906,-45.89
24.921,-54.95
24.937,-62.46
24.953,-67.17
24.968,-68.03
24.984,-64.61
25.000,-57.18
25.015,-46.74
25.031,-34.7
25.046,-22.48
25.062,-11.22
25.078,-1.65
25.093,5.83
25.109,11.01
25.125,13.73
25.140,13.96
25.156,11.9
25.171,8.23
25.187,4.03
25.203,0.45
25.218,-1.57
25.234,-1.73
25.250,-0.29
25.265,2.02
25.281,4.41
25.296,6.27
25.312,7.31
25.328,7.5
25.343,6.85
25.359,5.49
25.375,3.55
25.390,1.22
25.406,-1.27
25.421,-3.68
25.437,-5.88
25.453,-7.87
25.468,-9.88
25.484,-12.3
25.500,-15.52
25.515,-19.7
25.531,-24.63
25.546,-29.71
25.562,-34.02
25.578,-36.69
25.593,-37.11
25.609,-35.17
25.625,-31.2
25.640,-25.85
25.656,-19.8
25.671,-13.54
25.687,-7.31
25.703,-1.05
25.718,5.28
25.734,11.56
25.750,17.46
25.765,22.59
25.781,26.66
25.796,29.6
25.812,31.64
25.828,33.15
25.843,34.57
25.859,36.35
25.875,38.81
25.890,42.19
25.906,46.37
25.921,50.67
25.937,53.82
25.953,54.28
25.968,50.74
25.984,42.79
26.000,31.09
26.015,17.04
26.031,2.29
26.046,-11.9
26.062,-24.85
26.078,-36.22
26.093,-45.8
26.109,-53.26
26.125,-58.24
26.140,-60.53
26.156,-60.26
26.171,-57.68
26.187,-53.12
26.203,-46.72
26.218,-38.53
26.234,-28.77
26.250,-17.97
26.265,-6.96
26.281,3.44
26.296,12.69
26.312,20.66
26.328,27.58
26.343,33.83
26.359,39.71
26.375,45.42
26.390,51.04
26.406,56.56
26.421,61.9
26.437,66.76
26.453,70.7
26.468,73.15
26.484,73.62
26.500,72.05
26.515,68.9
26.531,65.08
26.546,61.47
26.562,58.49
26.578,55.8
26.593,52.54
26.609,47.76
26.625,40.9
26.640,32.13
26.656,22.17
26.671,12.02
26.687,2.49
26.703,-5.97
26.718,-13.21
26.734,-19.23
26.750,-24.01
26.765,-27.61
26.781,-30.18
26.796,-32.07
26.812,-33.77
26.828,-35.71
26.843,-38.07
26.859,-40.7
26.875,-43.11
26.890,-44.61
26.906,-44.52
26.921,-42.25
26.937,-37.49
26.953,-30.32
26.968,-21.18
26.984,-10.8
27.000,-0.01
27.015,10.39
27.031,19.75
27.046,27.57
27.062,33.5
27.078,37.26
27.093,38.72
27.109,38.01
27.125,35.35
27.140,31.27
27.156,26.37
27.171,21.26
27.187,16.4
27.203,12.01
27.218,8.06
27.234,4.36
27.250,0.8
27.265,-2.68
27.281,-6.01
27.296,-9.03
27.312,-11.56
27.328,-13.43
27.343,-14.47
27.359,-14.55
27.375,-13.64
27.390,-11.89
27.406,-9.74
27.421,-7.79
27.437,-6.6
27.453,-6.52
27.468,-7.45
27.484,-9.01
27.500,-10.75
27.515,-12.39
27.531,-13.91
27.546,-15.48
27.562,-17.2
27.578,-19.07
27.593,-21.1
27.609,-23.23
27.625,-25.61
27.640,-28.45
27.656,-31.92
27.671,-35.9
27.687,-39.84
27.703,-42.84
27.718,-43.87
27.734,-42.19
27.750,-37.46
27.765,-30.04
27.781,-20.76
27.796,-10.72
27.812,-0.86
27.828,8.25
27.843,16.47
27.859,23.84
27.875,30.36
27.890,35.85
27.906,39.94
27.921,42.35
27.937,43.12
27.953,42.6
27.968,41.35
27.984,39.76
28.000,37.92
28.015,35.64
28.031,32.68
28.046,28.97
28.062,24.79
28.078,20.69
28.093,17.15
28.109,14.41
28.125,12.33
28.140,10.57
28.156,8.82
28.171,6.9
28.187,4.87
28.203,2.85
28.218,0.89
28.234,-1.22
28.250,-3.81
28.265,-7.22
28.281,-11.49
28.296,-16.3
28.312,-21.14
28.328,-25.51
28.343,-29.14
28.359,-32.12
28.375,-34.75
28.390,-37.27
28.406,-39.77
28.421,-42.15
28.437,-44.34
28.453,-46.44
28.468,-48.74
28.484,-51.45
28.500,-54.47
28.515,-57.24
28.531,-58.83
28.546,-58.32
28.562,-55.1
28.578,-49.15
28.593,-40.95
28.609,-31.3
28.625,-21.06
28.640,-10.86
28.656,-1.14
28.671,7.94
28.687,16.31
28.703,23.97
28.718,30.89
28.734,37.02
28.750,42.3
28.765,46.7
28.781,50.24
28.796,53.01
28.812,55.17
28.828,56.87
28.843,58.27
28.859,59.37
28.875,60.24
28.890,60.79
28.906,60.95
28.921,60.59
28.937,59.48
28.953,57.41
28.968,54.12
28.984,49.59
29.000,43.96
29.015,37.63
29.031,31.17
29.046,25.21
29.062,20.33
29.078,16.94
29.093,15.18
29.109,14.88
29.125,15.53
29.140,16.27
29.156,16.06
29.171,13.88
29.187,9.06
29.203,1.56
29.218,-8.12
29.234,-19.06
29.250,-30.29
29.265,-41.08
29.281,-50.95
29.296,-59.57
29.312,-66.52
29.328,-71.35
29.343,-73.47
29.359,-72.62
29.375,-68.94
29.390,-63.06
29.406,-55.79
29.421,-47.82
29.437,-39.54
29.453,-31.04
29.468,-22.44
29.484,-14.03
29.500,-6.36
29.515,-0.11
29.531,4.29
29.546,6.85
29.562,8.12
29.578,8.95
29.593,10.18
29.609,12.26
29.625,15.16
29.640,18.46
29.656,21.58
29.671,24.06
29.687,25.68
29.703,26.47
29.718,26.67
29.734,26.55
29.750,26.33
29.765,26.09
29.781,25.77
29.796,25.18
29.812,24.06
29.828,22.17
29.843,19.42
29.859,15.9
29.875,11.92
29.890,7.88
29.906,4.13
29.921,0.75
29.937,-2.46
29.953,-5.84
29.968,-9.69
29.984,-14.04
30.000,-18.48
30.015,-22.3
30.031,-24.61
30.046,-24.67
30.062,-22.05
30.078,-16.75
30.093,-9.1
30.109,0.39
30.125,11.09
30.140,22.37
30.156,33.61
30.171,44.24
30.187,53.82
30.203,62.01
30.218,68.62
30.234,73.59
30.250,76.95
30.265,78.79
30.281,79.27
30.296,78.62
30.312,77.08
30.328,75.03
30.343,72.74
30.359,70.53
30.375,68.57
30.390,66.93
30.406,65.48
30.421,63.86
30.437,61.53
30.453,57.93
30.468,52.63
30.484,45.42
30.500,36.42
30.515,25.81
30.531,13.83
30.546,0.63
30.562,-13.81
30.578,-29.53
30.593,-46.54
30.609,-64.7
30.625,-83.68
30.640,-102.84
30.656,-121.29
30.671,-137.92
30.687,-151.53
30.703,-161.06
30.718,-165.7
30.734,-165.04
30.750,-159.02
30.765,-148.05
30.781,-133.01
30.796,-115.28
30.812,-96.69
30.828,-79.07
30.843,-63.84
30.859,-51.6
30.875,-42.11
30.890,-34.61
30.906,-28.49
30.921,-23.73
30.937,-20.96
30.953,-20.82
30.968,-23.36
30.984,-27.63
31.000,-31.83
31.015,-34.05
31.031,-32.79
31.046,-27.36
31.062,-17.78
31.078,-4.51
31.093,11.45
31.109,28.53
31.125,44.22
31.140,55.4
31.156,59.18
31.171,54.05
31.187,40.73
31.203,22.04
31.218,1.85
31.234,-16.46
31.250,-30.98
31.265,-41.66
31.281,-49.38
31.296,-55.01
31.312,-58.63
31.328,-59.35
31.343,-55.88
31.359,-47.21
31.375,-33.13
31.390,-14.2
31.406,8.43
31.421,33.65
31.437,60.53
31.453,88.31
31.468,116.16
31.484,142.62
31.500,165.57
31.515,182.47
31.531,191.03
31.546,189.98
31.562,179.54
31.578,161.31
31.593,137.83
31.609,111.9
31.625,86.1
31.640,62.65
31.656,43.48
31.671,29.93
31.687,22.46
31.703,20.23
31.718,21.08
31.734,22.07
31.750,20.6
31.765,15.12
31.781,5.53
31.796,-7.33
31.812,-22.33
31.828,-38.51
31.843,-55.05
31.859,-70.94
31.875,-84.84
31.890,-95.27
31.906,-101.27
31.921,-102.97
31.937,-101.41
31.953,-97.85
31.968,-92.84
31.984,-85.93
32.000,-76.15
32.015,-63.11
32.031,-47.81
32.046,-32.81
32.062,-21.22
32.078,-15.31
32.093,-15.43
32.109,-19.76
32.125,-25.1
32.140,-28.09
32.156,-26.31
32.171,-18.86
32.187,-6.31
32.203,9.73
32.218,27.03
32.234,43.05
32.250,55.53
32.265,62.84
32.281,64.53
32.296,61.52
32.312,55.88
32.328,50.27
32.343,47.12
32.359,48.09
32.375,53.66
32.390,63.21
32.406,74.9
32.421,85.71
32.437,91.65
32.453,88.51
32.468,73.36
32.484,46.06
32.500,10.05
32.515,-28.39
32.531,-62.29
32.546,-86.49
32.562,-99.3
32.578,-102.43
32.593,-99.46
32.609,-93.81
32.625,-87.53
32.640,-81.2
32.656,-74.85
32.671,-68.8
32.687,-63.77
32.703,-60.54
32.718,-59.26
32.734,-59.37
32.750,-59.82
32.765,-59.62
32.781,-58.04
32.796,-54.68
32.812,-49.31
32.828,-41.82
32.843,-32.37
32.859,-21.32
32.875,-9.16
32.890,3.89
32.906,17.96
32.921,33.27
32.937,49.32
32.953,64.28
32.968,75.1
32.984,78.34
33.000,71.77
33.015,55.64
33.031,33.01
33.046,8.7
33.062,-12.36
33.078,-26.93
33.093,-34.29
33.109,-35.93
33.125,-34.53
33.140,-32.63
33.156,-31.73
33.171,-32.17
33.187,-33.53
33.203,-35.12
33.218,-36.46
33.234,-37.4
33.250,-38.13
33.265,-38.84
33.281,-39.72
33.296,-40.85
33.312,-42.36
33.328,-44.52
33.343,-47.67
33.359,-52.02
33.375,-57.12
33.390,-61.75
33.406,-64.26
33.421,-63.22
33.437,-58.27
33.453,-50.41
33.468,-41.6
33.484,-33.87
33.500,-28.35
33.515,-24.89
33.531,-22.31
33.546,-19.38
33.562,-15.51
33.578,-10.99
33.593,-6.67
33.609,-3.33
33.625,-1.21
33.640,-0.05
33.656,0.64
33.671,1.27
33.687,1.93
33.703,2.53
33.718,2.94
33.734,3.11
33.750,3.06
33.765,2.89
33.781,2.69
33.796,2.47
33.812,2.21
33.828,1.77
33.843,0.95
33.859,-0.35
33.875,-2.17
33.890,-4.39
33.906,-6.77
33.921,-9.07
33.937,-11.21
33.953,-13.31
33.968,-15.7
33.984,-18.73
34.000,-22.47
34.015,-26.62
34.031,-30.42
34.046,-32.85
34.062,-33.04
34.078,-30.51
34.093,-25.39
34.109,-18.36
34.125,-10.34
34.140,-2.27
34.156,5.21
34.171,11.76
34.187,17.32
34.203,21.97
34.218,25.79
34.234,28.8
34.250,31.01
34.265,32.39
34.281,33.02
34.296,33.03
34.312,32.66
34.328,32.26
34.343,32.1
34.359,32.29
34.375,32.74
34.390,33.13
34.406,33.05
34.421,32.18
34.437,30.36
34.453,27.61
34.468,24.18
34.484,20.28
34.500,16.11
34.515,11.81
34.531,7.5
34.546,3.28
34.562,-0.8
34.578,-4.71
34.593,-8.51
34.609,-12.28
34.625,-16.03
34.640,-19.61
34.656,-22.69
34.671,-24.69
34.687,-24.91
34.703,-22.73
34.718,-17.78
34.734,-10.17
34.750,-0.43
34.765,10.54
34.781,21.76
34.796,32.47
34.812,42.27
34.828,51.11
34.843,59.19
34.859,66.66
34.875,73.51
34.890,79.52
34.906,84.42
34.921,88.07
34.937,90.57
34.953,92.23
34.968,93.61
34.984,95.18
35.000,97.25
35.015,99.88
35.031,102.85
35.046,105.8
35.062,108.38
35.078,110.37
35.093,111.7
35.109,112.48
35.125,112.89
35.140,113.02
35.156,112.81
35.171,112.13
35.187,110.89
35.203,109.22
35.218,107.53
35.234,106.38
35.250,106.35
35.265,107.7
35.281,110.37
35.296,114.03
35.312,118.3
35.328,122.91
35.343,127.53
35.359,131.59
35.375,133.93
35.390,133.04
35.406,127.49
35.421,116.48
35.437,100.1
35.453,79.05
35.468,54.18
35.484,26.04
35.500,-4.91
35.515,-37.85
35.531,-70.97
35.546,-101.41
35.562,-125.8
35.578,-141.34
35.593,-146.93
35.609,-143.6
35.625,-134.4
35.640,-123.42
35.656,-114.68
35.671,-111.08
35.687,-113.88
35.703,-122.51
35.718,-135.12
35.734,-149.19
35.750,-162.35
35.765,-172.83
35.781,-179.72
35.796,-182.79
35.812,-182.25
35.828,-178.61
35.843,-172.53
35.859,-164.86
35.875,-156.51
35.890,-148.14
35.906,-139.87
35.921,-131.14
35.937,-120.92
35.953,-108.19
35.968,-92.51
35.984,-74.38
36.000,-55.17
36.015,-36.73
36.031,-20.7
36.046,-8.0
36.062,1.33
36.078,7.95
36.093,12.69
36.109,16.18
36.125,18.64
36.140,19.99
36.156,20.14
36.171,19.25
36.187,17.69
36.203,15.99
36.218,14.63
36.234,13.75
36.250,13.26
36.265,12.88
36.281,12.43
36.296,11.83
36.312,11.2
36.328,10.69
36.343,10.4
36.359,10.39
36.375,10.59
36.390,10.9
36.406,11.23
36.421,11.61
36.437,12.04
36.453,12.51
36.468,12.86
36.484,12.85
36.500,12.33
36.515,11.35
36.531,10.32
36.546,9.99
36.562,11.15
36.578,14.35
36.593,19.63
36.609,26.49
36.625,34.06
36.640,41.48
36.656,48.12
36.671,53.66
36.687,57.95
36.703,60.85
36.718,62.11
36.734,61.53
36.750,59.08
36.765,55.0
36.781,49.87
36.796,44.37
36.812,39.12
36.828,34.61
36.843,31.09
36.859,28.7
36.875,27.38
36.890,26.95
36.906,27.05
36.921,27.32
36.937,27.4
36.953,27.12
36.968,26.55
36.984,25.88
37.000,25.29
37.015,24.77
37.031,23.99
37.046,22.36
37.062,19.18
37.078,13.92
37.093,6.56
37.109,-2.18
37.125,-10.92
37.140,-18.02
37.156,-21.96
37.171,-21.86
37.187,-17.71
37.203,-10.33
37.218,-1.2
37.234,7.86
37.250,15.01
37.265,18.65
37.281,17.78
37.296,12.29
37.312,3.04
37.328,-8.2
37.343,-19.18
37.359,-27.76
37.375,-32.49
37.390,-33.03
37.406,-30.08
37.421,-25.02
37.437,-19.4
37.453,-14.52
37.468,-11.18
37.484,-9.72
37.500,-10.06
37.515,-11.84
37.531,-14.47
37.546,-17.43
37.562,-20.36
37.578,-23.29
37.593,-26.63
37.609,-30.89
37.625,-36.28
37.640,-42.42
37.656,-48.54
37.671,-53.92
37.687,-58.3
37.703,-62.16
37.718,-66.1
37.734,-70.2
37.750,-73.54
37.765,-74.35
37.781,-70.82
37.796,-62.12
37.812,-48.9
37.828,-33.01
37.843,-16.58
37.859,-1.11
37.875,12.87
37.890,25.56
37.906,37.04
37.921,46.83
37.937,53.79
37.953,56.57
37.968,54.27
37.984,46.89
38.000,35.37
38.015,21.16
38.031,5.78
38.046,-9.7
38.062,-24.72
38.078,-39.09
38.093,-52.6
38.109,-64.78
38.125,-74.85
38.140,-81.92
38.156,-85.46
38.171,-85.58
38.187,-83.07
38.203,-79.23
38.218,-75.39
38.234,-72.42
38.250,-70.53
38.265,-69.4
38.281,-68.58
38.296,-67.92
38.312,-67.66
38.328,-68.21
38.343,-69.76
38.359,-71.83
38.375,-73.33
38.390,-72.76
38.406,-68.93
38.421,-61.28
38.437,-50.21
38.453,-36.73
38.468,-22.19
38.484,-7.76
38.500,5.79
38.515,18.02
38.531,28.83
38.546,38.15
38.562,45.96
38.578,52.17
38.593,56.75
38.609,59.75
38.625,61.35
38.640,61.86
38.656,61.77
38.671,61.51
38.687,61.53
38.703,62.07
38.718,63.18
38.734,64.7
38.750,66.34
38.765,67.7
38.781,68.44
38.796,68.4
38.812,67.53
38.828,65.96
38.843,63.86
38.859,61.38
38.875,58.56
38.890,55.37
38.906,51.65
38.921,47.1
38.937,41.2
38.953,33.3
38.968,22.81
38.984,9.62
39.000,-5.65
39.015,-21.65
39.031,-36.44
39.046,-48.22
39.062,-55.8
39.078,-58.84
39.093,-57.79
39.109,-53.48
39.125,-46.81
39.140,-38.5
39.156,-29.1
39.171,-19.1
39.187,-8.99
39.203,0.83
39.218,10.05
39.234,18.59
39.250,26.45
39.265,33.69
39.281,40.4
39.296,46.67
39.312,52.55
39.328,58.0
39.343,62.79
39.359,66.47
39.375,68.51
39.390,68.58
39.406,66.64
39.421,63.11
39.437,58.68
39.453,53.98
39.468,49.37
39.484,44.9
39.500,40.41
39.515,35.71
39.531,30.72
39.546,25.42
39.562,19.84
39.578,14.01
39.593,8.26
39.609,3.21
39.625,-0.08
39.640,-0.42
39.656,3.14
39.671,10.89
39.687,22.33
39.703,36.2
39.718,50.89
39.734,64.93
39.750,77.22
39.765,87.1
39.781,94.24
39.796,98.22
39.812,98.46
39.828,94.26
39.843,85.36
39.859,72.44
39.875,57.41
39.890,43.17
39.906,32.7
39.921,27.98
39.937,29.08
39.953,34.14
39.968,39.99
39.984,43.43
40.000,42.16
40.015,35.46
40.031,24.03
40.046,9.43
40.062,-6.43
40.078,-22.01
40.093,-36.26
40.109,-48.78
40.125,-59.66
40.140,-69.27
40.156,-77.88
40.171,-85.53
40.187,-92.02
40.203,-97.1
40.218,-100.79
40.234,-103.14
40.250,-104.1
40.265,-103.22
40.281,-99.68
40.296,-92.75
40.312,-82.45
40.328,-69.89
40.343,-56.9
40.359,-45.37
40.375,-36.45
40.390,-30.21
40.406,-25.94
40.421,-22.87
40.437,-20.74
40.453,-19.67
40.468,-19.69
40.484,-20.05
40.500,-19.18
40.515,-15.17
40.531,-6.85
40.546,5.58
40.562,20.3
40.578,34.57
40.593,45.65
40.609,51.53
40.625,51.48
40.640,45.89
40.656,36.02
40.671,23.49
40.687,10.0
40.703,-3.0
40.718,-14.52
40.734,-24.17
40.750,-32.23
40.765,-39.52
40.781,-47.0
40.796,-55.44
40.812,-65.18
40.828,-76.08
40.843,-87.45
40.859,-98.03
40.875,-105.94
40.890,-108.9
40.906,-104.8
40.921,-92.48
40.937,-72.39
40.953,-46.72
40.968,-18.71
40.984,8.48
41.000,32.71
41.015,53.22
41.031,70.15
41.046,83.6
41.062,92.89
41.078,96.63
41.093,93.5
41.109,83.19
41.125,67.15
41.140,48.37
41.156,30.49
41.171,16.63
41.187,8.48
41.203,6.0
41.218,7.68
41.234,11.32
41.250,14.78
41.265,16.58
41.281,16.12
41.296,13.57
41.312,9.44
41.328,4.27
41.343,-1.5
41.359,-7.51
41.375,-13.26
41.390,-17.88
41.406,-20.23
41.421,-19.21
41.437,-14.3
41.453,-5.99
41.468,4.15
41.484,13.91
41.500,21.16
41.515,24.42
41.531,23.43
41.546,19.11
41.562,13.31
41.578,8.12
41.593,5.26
41.609,5.38
41.625,7.73
41.640,10.32
41.656,10.52
41.671,5.86
41.687,-5.09
41.703,-22.17
41.718,-43.39
41.734,-65.48
41.750,-84.66
41.765,-97.91
41.781,-103.99
41.796,-103.79
41.812,-100.03
41.828,-96.13
41.843,-94.86
41.859,-97.17
41.875,-102.01
41.890,-106.87
41.906,-108.92
41.921,-106.24
41.937,-98.35
41.953,-86.16
41.968,-71.45
41.984,-56.21
42.000,-42.14
42.015,-30.53
42.031,-22.14
42.046,-17.17
42.062,-15.23
42.078,-15.25
42.093,-15.78
42.109,-15.15
42.125,-12.03
42.140,-5.78
42.156,3.21
42.171,13.7
42.187,23.91
42.203,32.07
42.218,37.06
42.234,38.61
42.250,37.38
42.265,34.5
42.281,31.06
42.296,27.67
42.312,24.37
42.328,20.79
42.343,16.5
42.359,11.37
42.375,5.65
42.390,-0.05
42.406,-4.99
42.421,-8.53
42.437,-10.36
42.453,-10.58
42.468,-9.72
42.484,-8.64
42.500,-8.3
42.515,-9.45
42.531,-12.38
42.546,-16.88
42.562,-22.36
42.578,-28.09
42.593,-33.62
42.609,-38.81
42.625,-43.88
42.640,-49.18
42.656,-54.85
42.671,-60.64
42.687,-65.61
42.703,-68.23
42.718,-66.54
42.734,-58.64
42.750,-43.29
42.765,-20.38
42.781,8.87
42.796,42.17
42.812,76.59
42.828,109.33
42.843,138.2
42.859,161.87
42.875,179.92
42.890,192.5
42.906,200.06
42.921,203.16
42.937,202.34
42.953,198.09
42.968,190.95
42.984,181.44
43.000,169.81
43.015,155.84
43.031,138.91
43.046,118.44
43.062,94.64
43.078,68.97
43.093,43.83
43.109,21.77
43.125,4.51
43.140,-7.9
43.156,-16.82
43.171,-24.28
43.187,-31.92
43.203,-40.48
43.218,-49.79
43.234,-59.43
43.250,-69.14
43.265,-78.93
43.281,-88.77
43.296,-98.18
43.312,-105.99
43.328,-110.57
43.343,-110.27
43.359,-103.89
43.375,-91.01
43.390,-72.35
43.406,-49.73
43.421,-25.79
43.437,-3.34
43.453,15.32
43.468,28.96
43.484,37.55
43.500,42.01
43.515,43.59
43.531,43.44
43.546,42.42
43.562,41.2
43.578,40.58
43.593,41.52
43.609,45.02
43.625,51.65
43.640,61.24
43.656,72.64
43.671,83.99
43.687,93.29
43.703,98.88
43.718,99.91
43.734,96.34
43.750,88.66
43.765,77.52
43.781,63.59
43.796,47.53
43.812,30.17
43.828,12.45
43.843,-4.62
43.859,-20.22
43.875,-33.77
43.890,-44.8
43.906,-52.69
43.921,-56.61
43.937,-55.65
43.953,-49.28
43.968,-37.92
43.984,-23.08
44.000,-7.06
44.015,7.71
44.031,19.5
44.046,27.54
44.062,32.0
44.078,33.45
44.093,32.44
44.109,29.2
44.125,23.8
44.140,16.42
44.156,7.6
44.171,-1.65
44.187,-10.07
44.203,-16.53
44.218,-20.33
44.234,-21.24
44.250,-19.54
44.265,-15.71
44.281,-10.38
44.296,-4.13
44.312,2.58
44.328,9.36
44.343,15.89
44.359,21.92
44.375,27.23
44.390,31.53
44.406,34.5
44.421,35.73
44.437,34.87
44.453,31.84
44.468,26.89
44.484,20.65
44.500,14.14
44.515,8.55
44.531,5.05
44.546,4.63
44.562,7.69
44.578,13.94
44.593,22.35
44.609,31.35
44.625,39.41
44.640,45.5
44.656,49.3
44.671,51.09
44.687,51.24
44.703,49.57
44.718,45.01
44.734,36.0
44.750,21.25
44.765,0.68
44.781,-24.16
44.796,-50.49
44.812,-75.04
44.828,-95.06
44.843,-108.96
44.859,-116.42
44.875,-118.11
44.890,-115.23
44.906,-109.23
44.921,-101.6
44.937,-93.75
44.953,-86.78
44.968,-81.18
44.984,-76.7
45.000,-72.55
45.015,-67.76
45.031,-61.72
45.046,-54.59
45.062,-47.29
45.078,-41.28
45.093,-38.07
45.109,-38.92
45.125,-44.33
45.140,-53.81
45.156,-65.8
45.171,-77.79
45.187,-86.78
45.203,-90.03
45.218,-85.97
45.234,-74.51
45.250,-57.12
45.265,-36.21
45.281,-14.4
45.296,6.12
45.312,23.85
45.328,38.1
45.343,48.82
45.359,56.39
45.375,61.5
45.390,64.9
45.406,67.25
45.421,69.01
45.437,70.45
45.453,71.7
45.468,72.95
45.484,74.45
45.500,76.44
45.515,78.97
45.531,81.79
45.546,84.4
45.562,86.24
45.578,86.87
45.593,86.1
45.609,84.0
45.625,80.87
45.640,77.09
45.656,73.03
45.671,68.83
45.687,64.23
45.703,58.76
45.718,51.66
45.734,42.35
45.750,30.61
45.765,16.71
45.781,1.46
45.796,-13.84
45.812,-27.61
45.828,-38.28
45.843,-44.55
45.859,-45.79
45.875,-42.24
45.890,-34.94
45.906,-25.5
45.921,-15.65
45.937,-6.75
45.953,0.39
45.968,5.61
45.984,9.12
46.000,11.26
46.015,12.28
46.031,12.31
46.046,11.33
46.062,9.45
46.078,6.97
46.093,4.44
46.109,2.64
46.125,2.37
46.140,4.28
46.156,8.74
46.171,15.84
46.187,25.29
46.203,36.4
46.218,47.85
46.234,57.78
46.250,63.87
46.265,63.96
46.281,56.84
46.296,42.81
46.312,23.98
46.328,3.58
46.343,-15.06
46.359,-29.73
46.375,-39.85
46.390,-46.27
46.406,-50.33
46.421,-52.85
46.437,-53.53
46.453,-51.08
46.468,-44.01
46.484,-31.63
46.500,-14.61
46.515,5.07
46.531,24.95
46.546,43.04
46.562,58.44
46.578,71.34
46.593,82.42
46.609,92.04
46.625,99.68
46.640,104.08
46.656,103.63
46.671,97.44
46.687,85.81
46.703,70.61
46.718,54.96
46.734,42.45
46.750,36.13
46.765,37.53
46.781,46.2
46.796,59.7
46.812,74.16
46.828,85.16
46.843,88.63
46.859,81.53
46.875,62.27
46.890,30.85
46.906,-11.04
46.921,-60.05
46.937,-111.52
46.953,-160.25
46.968,-201.66
46.984,-232.82
47.000,-252.95
47.015,-263.05
47.031,-265.0
47.046,-260.6
47.062,-251.27
47.078,-238.19
47.093,-222.92
47.109,-207.62
47.125,-194.68
47.140,-185.89
47.156,-181.63
47.171,-180.69
47.187,-180.72
47.203,-179.5
47.218,-175.87
47.234,-170.01
47.250,-163.04
47.265,-156.04
47.281,-149.4
47.296,-142.53
47.312,-134.44
47.328,-124.24
47.343,-111.77
47.359,-97.69
47.375,-83.05
47.390,-68.97
47.406,-56.35
47.421,-45.77
47.437,-37.58
47.453,-32.03
47.468,-29.22
47.484,-29.0
47.500,-30.88
47.515,-33.97
47.531,-37.29
47.546,-39.9
47.562,-41.03
47.578,-40.2
47.593,-37.08
47.609,-31.47
47.625,-23.32
47.640,-12.81
47.656,-0.41
47.671,13.12
47.687,26.99
47.703,40.56
47.718,53.51
47.734,65.75
47.750,77.15
47.765,87.41
47.781,95.97
47.796,102.41
47.812,106.64
47.828,109.1
47.843,110.56
47.859,111.76
47.875,113.03
47.890,114.29
47.906,115.13
47.921,115.15
47.937,114.1
47.953,111.84
47.968,108.29
47.984,103.33
48.000,96.97
48.015,89.59
48.031,82.05
48.046,75.44
48.062,70.76
48.078,68.48
48.093,68.28
48.109,69.07
48.125,69.27
48.140,67.16
48.156,61.42
48.171,51.51
48.187,37.93
48.203,22.25
48.218,6.88
48.234,-5.72
48.250,-13.9
48.265,-17.43
48.281,-17.73
48.296,-17.27
48.312,-18.48
48.328,-22.79
48.343,-29.94
48.359,-38.27
48.375,-45.58
48.390,-50.22
48.406,-51.77
48.421,-51.12
48.437,-49.7
48.453,-48.56
48.468,-47.79
48.484,-46.46
48.500,-43.15
48.515,-36.93
48.531,-27.85
48.546,-16.95
48.562,-5.83
48.578,4.19
48.593,12.51
48.609,19.44
48.625,25.63
48.640,31.6
48.656,37.12
48.671,41.34
48.687,43.1
48.703,41.66
48.718,37.18
48.734,30.8
48.750,24.27
48.765,19.21
48.781,16.53
48.796,16.04
48.812,16.81
48.828,17.64
48.843,17.72
48.859,16.87
48.875,15.43
48.890,13.89
48.906,12.43
48.921,10.85
48.937,8.6
48.953,5.22
48.968,0.6
48.984,-5.03
49.000,-11.19
49.015,-17.34
49.031,-23.09
49.046,-28.34
49.062,-33.12
49.078,-37.69
49.093,-42.33
49.109,-47.33
49.125,-53.01
49.140,-59.65
49.156,-67.44
49.171,-76.33
49.187,-85.89
49.203,-95.15
49.218,-102.71
49.234,-106.96
49.250,-106.52
49.265,-100.82
49.281,-90.19
49.296,-75.87
49.312,-59.51
49.328,-42.72
49.343,-26.68
49.359,-12.02
49.375,0.97
49.390,12.12
49.406,21.29
49.421,28.46
49.437,33.85
49.453,37.94
49.468,41.42
49.484,44.95
49.500,48.93
49.515,53.44
49.531,58.3
49.546,63.2
49.562,67.94
49.578,72.48
49.593,76.94
49.609,81.54
49.625,86.53
49.640,91.96
49.656,97.56
49.671,102.72
49.687,106.61
49.703,108.5
49.718,108.11
49.734,105.67
49.750,101.94
49.765,97.76
49.781,93.77
49.796,90.1
49.812,86.44
49.828,82.33
49.843,77.55
49.859,72.43
49.875,67.84
49.890,64.93
49.906,64.59
49.921,66.95
49.937,71.32
49.953,76.41
49.968,80.88
49.984,83.64
50.000,83.94
50.015,81.24
50.031,75.03
50.046,64.97
50.062,51.26
50.078,35.03
50.093,18.36
50.109,3.79
50.125,-6.55
50.140,-11.66
50.156,-11.9
50.171,-8.57
50.187,-3.21
50.203,3.04
50.218,9.52
50.234,15.81
50.250,21.42
50.265,25.69
50.281,28.02
50.296,28.22
50.312,26.61
50.328,23.94
50.343,20.98
50.359,18.2
50.375,15.49
50.390,12.41
50.406,8.43
50.421,3.39
50.437,-2.41
50.453,-8.38
50.468,-13.89
50.484,-18.62
50.500,-22.57
50.515,-25.91
50.531,-28.75
50.546,-31.17
50.562,-33.13
50.578,-34.64
50.593,-35.73
50.609,-36.36
50.625,-36.2
50.640,-34.58
50.656,-30.62
50.671,-23.62
50.687,-13.56
50.703,-1.27
50.718,11.75
50.734,23.85
50.750,33.9
50.765,41.69
50.781,47.83
50.796,53.33
50.812,59.05
50.828,65.28
50.843,71.74
50.859,77.84
50.875,82.92
50.890,86.53
50.906,88.37
50.921,88.24
50.937,86.16
50.953,82.39
50.968,77.52
50.984,72.32
51.000,67.5
51.015,63.4
51.031,59.89
51.046,56.55
51.062,52.95
51.078,48.89
51.093,44.63
51.109,40.61
51.125,37.32
51.140,35.0
51.156,33.62
51.171,32.83
51.187,32.16
51.203,31.1
51.218,29.31
51.234,26.67
51.250,23.33
51.265,19.7
51.281,16.2
51.296,13.21
51.312,10.88
51.328,9.08
51.343,7.49
51.359,5.66
51.375,3.17
51.390,-0.19
51.406,-4.31
51.421,-8.72
51.437,-12.74
51.453,-15.73
51.468,-17.31
51.484,-17.45
51.500,-16.25
51.515,-13.73
51.531,-9.6
51.546,-3.45
51.562,4.95
51.578,15.25
51.593,26.34
51.609,36.55
51.625,44.07
51.640,47.38
51.656,45.4
51.671,37.5
51.687,23.36
51.703,2.98
51.718,-22.98
51.734,-53.03
51.750,-84.86
51.765,-115.82
51.781,-143.55
51.796,-166.57
51.812,-184.36
51.828,-197.18
51.843,-205.63
51.859,-210.27
51.875,-211.72
51.890,-210.85
51.906,-209.07
51.921,-208.2
51.937,-209.84
51.953,-214.55
51.968,-221.29
51.984,-227.61
52.000,-230.4
52.015,-227.15
52.031,-216.87
52.046,-200.29
52.062,-179.37
52.078,-156.21
52.093,-132.31
52.109,-108.35
52.125,-84.6
52.140,-61.61
52.156,-40.53
52.171,-22.87
52.187,-9.84
52.203,-1.82
52.218,1.87
52.234,2.56
52.250,1.7
52.265,0.33
52.281,-1.1
52.296,-2.5
52.312,-3.89
52.328,-5.15
52.343,-5.98
52.359,-6.0
52.375,-4.91
52.390,-2.52
52.406,1.19
52.421,5.99
52.437,11.5
52.453,17.13
52.468,22.33
52.484,26.68
52.500,30.05
52.515,32.48
52.531,34.07
52.546,34.75
52.562,34.25
52.578,32.29
52.593,28.84
52.609,24.32
52.625,19.7
52.640,16.2
52.656,14.88
52.671,16.37
52.687,20.66
52.703,27.15
52.718,34.98
52.734,43.14
52.750,50.72
52.765,57.08
52.781,61.86
52.796,64.99
52.812,66.67
52.828,67.21
52.843,66.92
52.859,66.1
52.875,64.93
52.890,63.59
52.906,62.24
52.921,60.99
52.937,59.89
52.953,58.87
52.968,57.77
52.984,56.49
53.000,54.92
53.015,53.03
53.031,50.85
53.046,48.38
53.062,45.51
53.078,41.94
53.093,37.12
53.109,30.4
53.125,21.2
53.140,9.38
53.156,-4.63
53.171,-19.82
53.187,-34.85
53.203,-48.47
53.218,-59.74
53.234,-68.09
53.250,-73.2
53.265,-74.85
53.281,-72.95
53.296,-67.7
53.312,-59.8
53.328,-50.44
53.343,-40.98
53.359,-32.45
53.375,-25.33
53.390,-19.46
53.406,-14.32
53.421,-9.52
53.437,-4.95
53.453,-0.85
53.468,2.4
53.484,4.56
53.500,5.68
53.515,6.05
53.531,6.06
53.546,6.08
53.562,6.35
53.578,6.97
53.593,7.84
53.609,8.79
53.625,9.61
53.640,10.14
53.656,10.31
53.671,10.2
53.687,9.9
53.703,9.47
53.718,8.86
53.734,7.91
53.750,6.39
53.765,4.14
53.781,1.14
53.796,-2.47
53.812,-6.31
53.828,-9.82
53.843,-12.21
53.859,-12.58
53.875,-10.24
53.890,-4.99
53.906,2.75
53.921,11.95
53.937,21.33
53.953,29.79
53.968,36.71
53.984,42.01
54.000,46.06
54.015,49.25
54.031,51.83
54.046,53.78
54.062,55.01
54.078,55.43
54.093,55.04
54.109,53.97
54.125,52.31
54.140,50.21
54.156,47.79
54.171,45.22
54.187,42.68
54.203,40.37
54.218,38.41
54.234,36.82
54.250,35.57
54.265,34.51
54.281,33.56
54.296,32.62
54.312,31.62
54.328,30.54
54.343,29.33
54.359,27.97
54.375,26.43
54.390,24.61
54.406,22.28
54.421,19.2
54.437,15.3
54.453,10.84
54.468,6.44
54.484,2.96
54.500,1.21
54.515,1.58
54.531,3.91
54.546,7.55
54.562,11.65
54.578,15.5
54.593,18.69
54.609,21.1
54.625,22.62
54.640,23.09
54.656,22.2
54.671,19.73
54.687,15.61
54.703,10.18
54.718,4.08
54.734,-1.95
54.750,-7.25
54.765,-11.5
54.781,-14.64
54.796,-16.85
54.812,-18.39
54.828,-19.43
54.843,-20.05
54.859,-20.33
54.875,-20.3
54.890,-20.02
54.906,-19.55
54.921,-18.89
54.937,-18.01
54.953,-16.82
54.968,-15.24
54.984,-13.33
55.000,-11.33
55.015,-9.6
55.031,-8.58
55.046,-8.56
55.062,-9.6
55.078,-11.51
55.093,-13.82
55.109,-15.94
55.125,-17.37
55.140,-17.7
55.156,-16.7
55.171,-14.31
55.187,-10.54
55.203,-5.42
55.218,0.94
55.234,8.42
55.250,16.84
55.265,25.96
55.281,35.53
55.296,45.26
55.312,54.93
55.328,64.34
55.343,73.38
55.359,82.04
55.375,90.4
55.390,98.58
55.406,106.67
55.421,114.71
55.437,122.66
55.453,130.43
55.468,137.96
55.484,145.27
55.500,152.45
55.515,159.53
55.531,166.44
55.546,172.94
55.562,178.67
55.578,183.26
55.593,186.52
55.609,188.48
55.625,189.32
55.640,189.2
55.656,188.2
55.671,186.26
55.687,183.26
55.703,179.08
55.718,173.47
55.734,166.02
55.750,156.01
55.765,142.56
55.781,124.76
55.796,102.15
55.812,74.97
55.828,44.2
55.843,11.3
55.859,-22.21
55.875,-54.95
55.890,-85.76
55.906,-113.47
55.921,-136.81
55.937,-154.54
55.953,-165.71
55.968,-170.21
55.984,-168.83
56.000,-163.19
56.015,-155.14
56.031,-146.28
56.046,-137.41
56.062,-128.57
56.078,-119.43
56.093,-109.76
56.109,-99.8
56.125,-90.06
56.140,-81.16
56.156,-73.42
56.171,-66.67
56.187,-60.48
56.203,-54.32
56.218,-48.02
56.234,-41.83
56.250,-36.42
56.265,-32.41
56.281,-30.01
56.296,-28.85
56.312,-28.13
56.328,-27.01
56.343,-25.1
56.359,-22.67
56.375,-20.54
56.390,-19.74
56.406,-21.07
56.421,-24.76
56.437,-30.59
56.453,-37.95
56.468,-46.3
56.484,-55.18
56.500,-64.31
56.515,-73.47
56.531,-82.52
56.546,-91.39
56.562,-100.12
56.578,-108.76
56.593,-117.07
56.609,-124.49
56.625,-130.05
56.640,-132.67
56.656,-131.45
56.671,-126.09
56.687,-116.98
56.703,-105.05
56.718,-91.68
56.734,-78.2
56.750,-65.72
56.765,-55.03
56.781,-46.5
56.796,-40.15
56.812,-35.7
56.828,-32.69
56.843,-30.64
56.859,-29.31
56.875,-28.65
56.890,-28.85
56.906,-30.29
56.921,-33.29
56.937,-37.92
56.953,-43.79
56.968,-50.05
56.984,-55.46
57.000,-58.79
57.015,-59.19
57.031,-56.57
57.046,-51.71
57.062,-46.05
57.078,-41.25
57.093,-38.5
57.109,-37.96
57.125,-38.29
57.140,-36.84
57.156,-30.2
57.171,-15.52
57.187,8.19
57.203,39.12
57.218,72.63
57.234,102.46
57.250,122.87
57.265,130.58
57.281,125.74
57.296,111.56
57.312,92.78
57.328,74.1
57.343,59.17
57.359,50.32
57.375,48.85
57.390,55.19
57.406,68.68
57.421,87.16
57.437,106.97
57.453,123.55
57.468,132.78
57.484,132.3
57.500,122.37
57.515,105.53
57.531,85.61
57.546,66.26
57.562,49.82
57.578,36.98
57.593,27.08
57.609,18.93
57.625,11.46
57.640,3.84
57.656,-4.57
57.671,-14.43
57.687,-26.22
57.703,-39.78
57.718,-53.93
57.734,-66.51
57.750,-75.09
57.765,-78.02
57.781,-75.21
57.796,-68.06
57.812,-58.94
57.828,-49.95
57.843,-42.31
57.859,-36.11
57.875,-30.85
57.890,-26.14
57.906,-22.2
57.921,-19.88
57.937,-20.3
57.953,-24.38
57.968,-32.52
57.984,-44.38
58.000,-58.96
58.015,-74.95
58.031,-90.9
58.046,-105.49
58.062,-117.57
58.078,-126.22
58.093,-130.85
58.109,-131.17
58.125,-127.16
58.140,-118.96
58.156,-106.78
58.171,-90.95
58.187,-71.98
58.203,-50.86
58.218,-29.0
58.234,-8.05
58.250,10.55
58.265,26.04
58.281,38.38
58.296,47.99
58.312,55.26
58.328,60.12
58.343,62.02
58.359,60.34
58.375,54.92
58.390,46.47
58.406,36.46
58.421,26.72
58.437,18.9
58.453,13.95
58.468,11.96
58.484,12.42
58.500,14.45
58.515,17.22
58.531,20.17
58.546,23.07
58.562,25.83
58.578,28.45
58.593,30.9
58.609,33.14
58.625,35.1
58.640,36.6
58.656,37.15
58.671,36.12
58.687,32.92
58.703,27.29
58.718,19.7
58.734,11.1
58.750,2.72
58.765,-4.34
58.781,-9.4
58.796,-12.24
58.812,-12.85
58.828,-11.29
58.843,-7.66
58.859,-2.25
58.875,4.32
58.890,11.23
58.906,17.85
58.921,24.02
58.937,30.12
58.953,36.79
58.968,44.32
58.984,52.41
59.000,60.11
59.015,66.24
59.031,70.03
59.046,71.58
59.062,71.91
59.078,72.57
59.093,75.04
59.109,79.99
59.125,86.98
59.140,94.6
59.156,100.74
59.171,103.28
59.187,100.64
59.203,92.34
59.218,79.43
59.234,64.58
59.250,51.58
59.265,44.23
59.281,44.71
59.296,52.23
59.312,62.69
59.328,69.88
59.343,67.83
59.359,53.18
59.375,26.6
59.390,-7.54
59.406,-43.09
59.421,-74.35
59.437,-97.97
59.453,-113.52
59.468,-122.76
59.484,-128.3
59.500,-132.48
59.515,-136.78
59.531,-141.78
59.546,-147.28
59.562,-152.48
59.578,-155.95
59.593,-156.02
59.609,-151.36
59.625,-141.74
59.640,-128.4
59.656,-113.88
59.671,-100.97
59.687,-91.75
59.703,-86.7
59.718,-84.82
59.734,-84.48
59.750,-84.38
59.765,-84.15
59.781,-84.07
59.796,-84.52
59.812,-85.23
59.828,-85.39
59.843,-84.01
59.859,-80.58
59.875,-75.38
59.890,-69.28
59.906,-63.17
59.921,-57.55
59.937,-52.41
59.953,-47.44
59.968,-42.49
59.984,-37.65
