timestamp,value
00.000,7.4
00.015,8.11
00.031,8.75
00.046,9.2
00.062,9.54
00.078,9.93
00.093,10.46
00.109,11.02
00.125,11.35
00.140,11.13
00.156,10.18
00.171,8.55
00.187,6.49
00.203,4.35
00.218,2.31
00.234,0.41
00.250,-1.52
00.265,-3.71
00.281,-6.34
00.296,-9.44
00.312,-12.91
00.328,-16.55
00.343,-20.05
00.359,-23.03
00.375,-25.01
00.390,-25.53
00.406,-24.28
00.421,-21.22
00.437,-16.63
00.453,-11.1
00.468,-5.25
00.484,0.39
00.500,5.53
00.515,10.11
00.531,14.12
00.546,17.51
00.562,20.21
00.578,22.08
00.593,23.03
00.609,23.08
00.625,22.35
00.640,21.01
00.656,19.24
00.671,17.2
00.687,15.01
00.703,12.79
00.718,10.71
00.734,8.88
00.750,7.41
00.765,6.31
00.781,5.47
00.796,4.77
00.812,3.97
00.828,2.9
00.843,1.41
00.859,-0.57
00.875,-3.08
00.890,-6.1
00.906,-9.56
00.921,-13.32
00.937,-17.16
00.953,-20.82
00.968,-24.15
00.984,-27.15
01.000,-29.98
01.015,-32.89
01.031,-36.02
01.046,-39.26
01.062,-42.14
01.078,-44.01
01.093,-44.23
01.109,-42.48
01.125,-38.85
01.140,-33.83
01.156,-28.12
01.171,-22.35
01.187,-16.98
01.203,-12.19
01.218,-7.96
01.234,-4.25
01.250,-1.0
01.265,1.77
01.281,4.04
01.296,5.82
01.312,7.18
01.328,8.21
01.343,8.96
01.359,9.44
01.375,9.57
01.390,9.31
01.406,8.64
01.421,7.66
01.437,6.54
01.453,5.51
01.468,4.74
01.484,4.19
01.500,3.75
01.515,3.14
01.531,2.18
01.546,0.78
01.562,-0.96
01.578,-2.86
01.593,-4.74
01.609,-6.53
01.625,-8.29
01.640,-10.13
01.656,-12.18
01.671,-14.48
01.687,-17.08
01.703,-20.01
01.718,-23.29
01.734,-26.86
01.750,-30.52
01.765,-33.81
01.781,-36.11
01.796,-36.78
01.812,-35.38
01.828,-31.79
01.843,-26.33
01.859,-19.57
01.875,-12.2
01.890,-4.81
01.906,2.16
01.921,8.51
01.937,14.17
01.953,19.13
01.968,23.39
01.984,26.9
02.000,29.6
02.015,31.47
02.031,32.59
02.046,33.13
02.062,33.33
02.078,33.44
02.093,33.59
02.109,33.78
02.125,33.87
02.140,33.69
02.156,33.13
02.171,32.21
02.187,31.06
02.203,29.78
02.218,28.36
02.234,26.69
02.250,24.55
02.265,21.83
02.281,18.55
02.296,14.94
02.312,11.26
02.328,7.71
02.343,4.32
02.359,0.97
02.375,-2.54
02.390,-6.35
02.406,-10.54
02.421,-15.14
02.437,-20.1
02.453,-25.36
02.468,-30.81
02.484,-36.18
02.500,-41.02
02.515,-44.73
02.531,-46.67
02.546,-46.36
02.562,-43.68
02.578,-38.91
02.593,-32.63
02.609,-25.58
02.625,-18.43
02.640,-11.69
02.656,-5.68
02.671,-0.52
02.687,3.74
02.703,7.07
02.718,9.44
02.734,10.82
02.750,11.3
02.765,11.05
02.781,10.31
02.796,9.28
02.812,8.14
02.828,6.98
02.843,5.83
02.859,4.82
02.875,4.09
02.890,3.87
02.906,4.3
02.921,5.3
02.937,6.46
02.953,7.18
02.968,6.85
02.984,5.15
03.000,2.11
03.015,-1.88
03.031,-6.3
03.046,-10.67
03.062,-14.67
03.078,-18.12
03.093,-20.99
03.109,-23.31
03.125,-25.28
03.140,-27.24
03.156,-29.66
03.171,-33.01
03.187,-37.51
03.203,-42.96
03.218,-48.68
03.234,-53.69
03.250,-56.96
03.265,-57.71
03.281,-55.55
03.296,-50.54
03.312,-43.15
03.328,-34.09
03.343,-24.21
03.359,-14.3
03.375,-4.98
03.390,3.39
03.406,10.69
03.421,16.95
03.437,22.23
03.453,26.52
03.468,29.71
03.484,31.67
03.500,32.4
03.515,32.13
03.531,31.3
03.546,30.49
03.562,30.16
03.578,30.58
03.593,31.69
03.609,33.13
03.625,34.4
03.640,35.01
03.656,34.6
03.671,32.98
03.687,30.17
03.703,26.33
03.718,21.78
03.734,16.88
03.750,12.02
03.765,7.5
03.781,3.53
03.796,0.14
03.812,-2.7
03.828,-5.12
03.843,-7.26
03.859,-9.25
03.875,-11.26
03.890,-13.47
03.906,-16.04
03.921,-19.14
03.937,-22.82
03.953,-26.95
03.968,-31.24
03.984,-35.2
04.000,-38.25
04.015,-39.77
04.031,-39.34
04.046,-36.77
04.062,-32.23
04.078,-26.25
04.093,-19.56
04.109,-12.88
04.125,-6.75
04.140,-1.38
04.156,3.33
04.171,7.63
04.187,11.8
04.203,15.97
04.218,20.03
04.234,23.7
04.250,26.62
04.265,28.56
04.281,29.49
04.296,29.61
04.312,29.19
04.328,28.53
04.343,27.81
04.359,27.2
04.375,26.85
04.390,26.96
04.406,27.68
04.421,28.97
04.437,30.52
04.453,31.8
04.468,32.27
04.484,31.63
04.500,29.91
04.515,27.45
04.531,24.65
04.546,21.82
04.562,19.03
04.578,16.2
04.593,13.24
04.609,10.13
04.625,6.97
04.640,3.92
04.656,1.08
04.671,-1.57
04.687,-4.19
04.703,-6.99
04.718,-10.17
04.734,-13.73
04.750,-17.5
04.765,-21.02
04.781,-23.67
04.796,-24.81
04.812,-23.95
04.828,-20.9
04.843,-15.84
04.859,-9.21
04.875,-1.64
04.890,6.24
04.906,13.91
04.921,21.05
04.937,27.48
04.953,33.13
04.968,37.92
04.984,41.77
05.000,44.54
05.015,46.2
05.031,46.83
05.046,46.67
05.062,46.0
05.078,45.09
05.093,44.09
05.109,43.04
05.125,41.86
05.140,40.46
05.156,38.78
05.171,36.85
05.187,34.73
05.203,32.5
05.218,30.23
05.234,27.91
05.250,25.49
05.265,22.82
05.281,19.77
05.296,16.26
05.312,12.32
05.328,8.15
05.343,3.99
05.359,0.11
05.375,-3.37
05.390,-6.52
05.406,-9.56
05.421,-12.83
05.437,-16.6
05.453,-20.99
05.468,-25.88
05.484,-31.02
05.500,-35.98
05.515,-40.3
05.531,-43.47
05.546,-44.99
05.562,-44.46
05.578,-41.67
05.593,-36.72
05.609,-30.02
05.625,-22.25
05.640,-14.19
05.656,-6.49
05.671,0.41
05.687,6.34
05.703,11.27
05.718,15.21
05.734,18.15
05.750,20.1
05.765,21.09
05.781,21.28
05.796,20.96
05.812,20.49
05.828,20.17
05.843,20.14
05.859,20.31
05.875,20.44
05.890,20.25
05.906,19.62
05.921,18.63
05.937,17.52
05.953,16.55
05.968,15.82
05.984,15.2
06.000,14.37
06.015,12.97
06.031,10.82
06.046,7.96
06.062,4.63
06.078,1.22
06.093,-1.96
06.109,-4.74
06.125,-7.1
06.140,-9.23
06.156,-11.43
06.171,-14.04
06.187,-17.36
06.203,-21.5
06.218,-26.34
06.234,-31.44
06.250,-36.13
06.265,-39.65
06.281,-41.31
06.296,-40.69
06.312,-37.68
06.328,-32.49
06.343,-25.62
06.359,-17.69
06.375,-9.35
06.390,-1.19
06.406,6.36
06.421,13.03
06.437,18.67
06.453,23.24
06.468,26.76
06.484,29.3
06.500,30.95
06.515,31.83
06.531,32.11
06.546,31.98
06.562,31.63
06.578,31.21
06.593,30.85
06.609,30.6
06.625,30.45
06.640,30.37
06.656,30.3
06.671,30.19
06.687,30.01
06.703,29.77
06.718,29.43
06.734,28.99
06.750,28.38
06.765,27.59
06.781,26.6
06.796,25.45
06.812,24.21
06.828,22.93
06.843,21.69
06.859,20.49
06.875,19.35
06.890,18.25
06.906,17.17
06.921,16.1
06.937,15.08
06.953,14.14
06.968,13.37
06.984,12.82
07.000,12.49
07.015,12.31
07.031,12.16
07.046,11.91
07.062,11.5
07.078,10.91
07.093,10.21
07.109,9.45
07.125,8.64
07.140,7.72
07.156,6.6
07.171,5.18
07.187,3.46
07.203,1.59
07.218,-0.2
07.234,-1.6
07.250,-2.45
07.265,-2.76
07.281,-2.71
07.296,-2.6
07.312,-2.72
07.328,-3.22
07.343,-4.06
07.359,-5.14
07.375,-6.31
07.390,-7.55
07.406,-8.92
07.421,-10.52
07.437,-12.4
07.453,-14.41
07.468,-16.37
07.484,-18.05
07.500,-19.45
07.515,-20.77
07.531,-22.44
07.546,-24.89
07.562,-28.32
07.578,-32.57
07.593,-37.09
07.609,-41.22
07.625,-44.39
07.640,-46.43
07.656,-47.6
07.671,-48.43
07.687,-49.54
07.703,-51.39
07.718,-54.19
07.734,-57.83
07.750,-61.92
07.765,-65.83
07.781,-68.75
07.796,-69.81
07.812,-68.29
07.828,-63.8
07.843,-56.48
07.859,-46.97
07.875,-36.3
07.890,-25.58
07.906,-15.72
07.921,-7.32
07.937,-0.64
07.953,4.33
07.968,7.63
07.984,9.33
08.000,9.46
08.015,8.13
08.031,5.61
08.046,2.42
08.062,-0.77
08.078,-3.27
08.093,-4.58
08.109,-4.5
08.125,-3.19
08.140,-1.05
08.156,1.42
08.171,3.76
08.187,5.69
08.203,7.05
08.218,7.79
08.234,7.85
08.250,7.23
08.265,5.93
08.281,4.16
08.296,2.19
08.312,0.41
08.328,-0.89
08.343,-1.65
08.359,-2.04
08.375,-2.57
08.390,-3.78
08.406,-6.13
08.421,-9.73
08.437,-14.24
08.453,-18.92
08.468,-22.81
08.484,-25.03
08.500,-25.02
08.515,-22.74
08.531,-18.62
08.546,-13.41
08.562,-8.0
08.578,-3.03
08.593,1.16
08.609,4.63
08.625,7.67
08.640,10.59
08.656,13.48
08.671,16.2
08.687,18.46
08.703,20.0
08.718,20.82
08.734,21.16
08.750,21.39
08.765,21.8
08.781,22.5
08.796,23.38
08.812,24.33
08.828,25.39
08.843,26.72
08.859,28.57
08.875,30.96
08.890,33.65
08.906,36.1
08.921,37.76
08.937,38.23
08.953,37.54
08.968,36.0
08.984,34.12
09.000,32.32
09.015,30.78
09.031,29.45
09.046,28.14
09.062,26.69
09.078,25.05
09.093,23.34
09.109,21.73
09.125,20.35
09.140,19.22
09.156,18.23
09.171,17.21
09.187,16.04
09.203,14.69
09.218,13.26
09.234,11.95
09.250,10.9
09.265,10.18
09.281,9.71
09.296,9.31
09.312,8.76
09.328,7.94
09.343,6.89
09.359,5.78
09.375,4.77
09.390,3.91
09.406,3.07
09.421,1.96
09.437,0.33
09.453,-1.87
09.468,-4.45
09.484,-7.04
09.500,-9.3
09.515,-11.1
09.531,-12.57
09.546,-14.04
09.562,-15.86
09.578,-18.2
09.593,-21.02
09.609,-24.11
09.625,-27.24
09.640,-30.28
09.656,-33.19
09.671,-36.04
09.687,-38.89
09.703,-41.81
09.718,-44.91
09.734,-48.31
09.750,-52.25
09.765,-56.94
09.781,-62.42
09.796,-68.43
09.812,-74.22
09.828,-78.7
09.843,-80.69
09.859,-79.32
09.875,-74.35
09.890,-66.32
09.906,-56.35
09.921,-45.8
09.937,-35.88
09.953,-27.28
09.968,-20.19
09.984,-14.48
10.000,-9.86
10.015,-6.19
10.031,-3.42
10.046,-1.59
10.062,-0.64
10.078,-0.36
10.093,-0.4
10.109,-0.4
10.125,-0.08
10.140,0.65
10.156,1.7
10.171,2.8
10.187,3.71
10.203,4.2
10.218,4.16
10.234,3.6
10.250,2.58
10.265,1.18
10.281,-0.49
10.296,-2.41
10.312,-4.56
10.328,-6.94
10.343,-9.59
10.359,-12.57
10.375,-15.98
10.390,-19.98
10.406,-24.62
10.421,-29.8
10.437,-35.16
10.453,-40.04
10.468,-43.58
10.484,-44.98
10.500,-43.73
10.515,-39.79
10.531,-33.62
10.546,-26.04
10.562,-17.98
10.578,-10.23
10.593,-3.28
10.609,2.68
10.625,7.63
10.640,11.73
10.656,15.02
10.671,17.51
10.687,19.08
10.703,19.62
10.718,19.07
10.734,17.54
10.750,15.28
10.765,12.62
10.781,9.95
10.796,7.55
10.812,5.63
10.828,4.29
10.843,3.54
10.859,3.33
10.875,3.52
10.890,3.86
10.906,4.08
10.921,3.9
10.937,3.11
10.953,1.66
10.968,-0.37
10.984,-2.85
11.000,-5.7
11.015,-8.94
11.031,-12.7
11.046,-17.06
11.062,-21.96
11.078,-27.03
11.093,-31.54
11.109,-34.55
11.125,-35.2
11.140,-32.92
11.156,-27.71
11.171,-20.07
11.187,-10.87
11.203,-1.05
11.218,8.63
11.234,17.71
11.250,25.9
11.265,33.07
11.281,39.06
11.296,43.7
11.312,46.91
11.328,48.79
11.343,49.54
11.359,49.46
11.375,48.77
11.390,47.52
11.406,45.6
11.421,42.86
11.437,39.28
11.453,35.03
11.468,30.56
11.484,26.39
11.500,22.94
11.515,20.35
11.531,18.43
11.546,16.76
11.562,14.86
11.578,12.48
11.593,9.61
11.609,6.53
11.625,3.56
11.640,0.86
11.656,-1.64
11.671,-4.26
11.687,-7.39
11.703,-11.26
11.718,-15.88
11.734,-20.89
11.750,-25.71
11.765,-29.64
11.781,-31.95
11.796,-32.15
11.812,-30.03
11.828,-25.78
11.843,-19.97
11.859,-13.35
11.875,-6.65
11.890,-0.38
11.906,5.33
11.921,10.61
11.937,15.77
11.953,21.02
11.968,26.37
11.984,31.56
12.000,36.13
12.015,39.62
12.031,41.75
12.046,42.53
12.062,42.23
12.078,41.33
12.093,40.34
12.109,39.73
12.125,39.86
12.140,40.9
12.156,42.76
12.171,45.07
12.187,47.25
12.203,48.66
12.218,48.82
12.234,47.48
12.250,44.71
12.265,40.77
12.281,35.91
12.296,30.33
12.312,24.13
12.328,17.38
12.343,10.23
12.359,2.96
12.375,-4.17
12.390,-10.96
12.406,-17.4
12.421,-23.61
12.437,-29.77
12.453,-36.03
12.468,-42.41
12.484,-48.76
12.500,-54.8
12.515,-60.03
12.531,-63.86
12.546,-65.62
12.562,-64.67
12.578,-60.65
12.593,-53.51
12.609,-43.71
12.625,-32.0
12.640,-19.35
12.656,-6.58
12.671,5.69
12.687,17.13
12.703,27.59
12.718,36.93
12.734,44.94
12.750,51.33
12.765,55.87
12.781,58.45
12.796,59.28
12.812,58.73
12.828,57.28
12.843,55.34
12.859,53.14
12.875,50.77
12.890,48.29
12.906,45.8
12.921,43.47
12.937,41.45
12.953,39.77
12.968,38.27
12.984,36.65
13.000,34.61
13.015,31.94
13.031,28.69
13.046,25.08
13.062,21.39
13.078,17.86
13.093,14.56
13.109,11.42
13.125,8.27
13.140,4.86
13.156,1.05
13.171,-3.2
13.187,-7.81
13.203,-12.68
13.218,-17.71
13.234,-22.91
13.250,-28.36
13.265,-34.15
13.281,-40.28
13.296,-46.63
13.312,-52.97
13.328,-59.0
13.343,-64.38
13.359,-68.72
13.375,-71.49
13.390,-72.14
13.406,-70.15
13.421,-65.21
13.437,-57.44
13.453,-47.41
13.468,-35.96
13.484,-23.95
13.500,-12.03
13.515,-0.6
13.531,10.2
13.546,20.22
13.562,29.27
13.578,37.08
13.593,43.4
13.609,48.09
13.625,51.22
13.640,52.95
13.656,53.53
13.671,53.16
13.687,52.06
13.703,50.36
13.718,48.2
13.734,45.71
13.750,43.0
13.765,40.16
13.781,37.28
13.796,34.39
13.812,31.44
13.828,28.27
13.843,24.69
13.859,20.5
13.875,15.69
13.890,10.46
13.906,5.24
13.921,0.47
13.937,-3.51
13.953,-6.65
13.968,-9.1
13.984,-11.15
14.000,-13.04
14.015,-14.83
14.031,-16.44
14.046,-17.72
14.062,-18.61
14.078,-19.22
14.093,-19.82
14.109,-20.75
14.125,-22.29
14.140,-24.52
14.156,-27.3
14.171,-30.25
14.187,-32.84
14.203,-34.5
14.218,-34.71
14.234,-33.13
14.250,-29.66
14.265,-24.51
14.281,-18.14
14.296,-11.26
14.312,-4.56
14.328,1.36
14.343,6.23
14.359,10.04
14.375,13.04
14.390,15.49
14.406,17.53
14.421,19.17
14.437,20.33
14.453,20.95
14.468,21.14
14.484,21.12
14.500,21.12
14.515,21.31
14.531,21.72
14.546,22.25
14.562,22.87
14.578,23.62
14.593,24.6
14.609,25.85
14.625,27.25
14.640,28.49
14.656,29.14
14.671,28.9
14.687,27.61
14.703,25.33
14.718,22.25
14.734,18.56
14.750,14.34
14.765,9.58
14.781,4.24
14.796,-1.62
14.812,-7.77
14.828,-13.85
14.843,-19.39
14.859,-24.0
14.875,-27.42
14.890,-29.62
14.906,-30.78
14.921,-31.23
14.937,-31.41
14.953,-31.78
14.968,-32.75
14.984,-34.56
15.000,-37.17
15.015,-40.18
15.031,-42.91
15.046,-44.5
15.062,-44.24
15.078,-41.66
15.093,-36.78
15.109,-29.94
15.125,-21.71
15.140,-12.62
15.156,-3.13
15.171,6.39
15.187,15.59
15.203,23.99
15.218,31.09
15.234,36.4
15.250,39.7
15.265,41.06
15.281,40.9
15.296,39.75
15.312,38.16
15.328,36.48
15.343,34.85
15.359,33.29
15.375,31.67
15.390,29.93
15.406,28.02
15.421,25.9
15.437,23.48
15.453,20.63
15.468,17.23
15.484,13.25
15.500,8.89
15.515,4.56
15.531,0.85
15.546,-1.75
15.562,-2.97
15.578,-2.98
15.593,-2.34
15.609,-1.83
15.625,-2.18
15.640,-3.83
15.656,-6.81
15.671,-10.77
15.687,-15.15
15.703,-19.43
15.718,-23.2
15.734,-26.29
15.750,-28.76
15.765,-30.81
15.781,-32.69
15.796,-34.64
15.812,-36.74
15.828,-38.86
15.843,-40.62
15.859,-41.43
15.875,-40.66
15.890,-37.88
15.906,-33.02
15.921,-26.48
15.937,-18.94
15.953,-11.24
15.968,-3.97
15.984,2.53
16.000,8.22
16.015,13.12
16.031,17.21
16.046,20.27
16.062,22.06
16.078,22.4
16.093,21.39
16.109,19.44
16.125,17.09
16.140,14.91
16.156,13.34
16.171,12.59
16.187,12.74
16.203,13.79
16.218,15.7
16.234,18.24
16.250,21.0
16.265,23.32
16.281,24.44
16.296,23.8
16.312,21.21
16.328,17.04
16.343,12.02
16.359,7.05
16.375,2.86
16.390,-0.17
16.406,-2.05
16.421,-3.08
16.437,-3.64
16.453,-4.15
16.468,-4.91
16.484,-6.15
16.500,-7.92
16.515,-10.18
16.531,-12.67
16.546,-15.14
16.562,-17.31
16.578,-19.1
16.593,-20.59
16.609,-22.01
16.625,-23.58
16.640,-25.47
16.656,-27.65
16.671,-29.98
16.687,-32.22
16.703,-34.03
16.718,-35.08
16.734,-34.99
16.750,-33.44
16.765,-30.31
16.781,-25.72
16.796,-20.11
16.812,-14.08
16.828,-8.2
16.843,-2.82
16.859,1.97
16.875,6.33
16.890,10.45
16.906,14.37
16.921,17.89
16.937,20.68
16.953,22.4
16.968,22.92
16.984,22.43
17.000,21.28
17.015,19.93
17.031,18.69
17.046,17.72
17.062,17.07
17.078,16.73
17.093,16.72
17.109,17.05
17.125,17.59
17.140,18.1
17.156,18.26
17.171,17.77
17.187,16.52
17.203,14.64
17.218,12.44
17.234,10.3
17.250,8.5
17.265,7.11
17.281,6.01
17.296,4.93
17.312,3.62
17.328,1.88
17.343,-0.32
17.359,-2.86
17.375,-5.53
17.390,-8.15
17.406,-10.57
17.421,-12.79
17.437,-14.91
17.453,-17.08
17.468,-19.42
17.484,-22.02
17.500,-24.89
17.515,-27.88
17.531,-30.73
17.546,-33.03
17.562,-34.33
17.578,-34.24
17.593,-32.46
17.609,-28.9
17.625,-23.7
17.640,-17.24
17.656,-10.06
17.671,-2.81
17.687,3.91
17.703,9.65
17.718,14.19
17.734,17.55
17.750,19.95
17.765,21.6
17.781,22.67
17.796,23.15
17.812,22.93
17.828,21.95
17.843,20.29
17.859,18.24
17.875,16.19
17.890,14.47
17.906,13.24
17.921,12.39
17.937,11.66
17.953,10.79
17.968,9.66
17.984,8.26
18.000,6.65
18.015,4.82
18.031,2.56
18.046,-0.32
18.062,-3.93
18.078,-8.08
18.093,-12.38
18.109,-16.34
18.125,-19.61
18.140,-22.12
18.156,-24.05
18.171,-25.69
18.187,-27.26
18.203,-28.83
18.218,-30.33
18.234,-31.67
18.250,-32.82
18.265,-33.88
18.281,-35.11
18.296,-36.74
18.312,-38.99
18.328,-41.89
18.343,-45.24
18.359,-48.57
18.375,-51.23
18.390,-52.49
18.406,-51.77
18.421,-48.79
18.437,-43.67
18.453,-36.86
18.468,-29.01
18.484,-20.81
18.500,-12.75
18.515,-5.07
18.531,2.18
18.546,9.03
18.562,15.48
18.578,21.42
18.593,26.67
18.609,31.01
18.625,34.29
18.640,36.52
18.656,37.8
18.671,38.35
18.687,38.38
18.703,38.07
18.718,37.59
18.734,37.05
18.750,36.54
18.765,36.13
18.781,35.78
18.796,35.37
18.812,34.69
18.828,33.47
18.843,31.51
18.859,28.78
18.875,25.4
18.890,21.66
18.906,17.93
18.921,14.49
18.937,11.49
18.953,8.89
18.968,6.53
18.984,4.23
19.000,1.87
19.015,-0.64
19.031,-3.35
19.046,-6.28
19.062,-9.46
19.078,-12.85
19.093,-16.35
19.109,-19.76
19.125,-22.89
19.140,-25.68
19.156,-28.2
19.171,-30.65
19.187,-33.22
19.203,-36.0
19.218,-38.85
19.234,-41.37
19.250,-43.03
19.265,-43.3
19.281,-41.81
19.296,-38.43
19.312,-33.36
19.328,-26.98
19.343,-19.87
19.359,-12.6
19.375,-5.66
19.390,0.52
19.406,5.69
19.421,9.73
19.437,12.64
19.453,14.55
19.468,15.69
19.484,16.29
19.500,16.59
19.515,16.82
19.531,17.18
19.546,17.87
19.562,19.01
19.578,20.64
19.593,22.63
19.609,24.79
19.625,26.85
19.640,28.64
19.656,30.06
19.671,31.11
19.687,31.83
19.703,32.26
19.718,32.34
19.734,31.98
19.750,31.07
19.765,29.54
19.781,27.41
19.796,24.79
19.812,21.78
19.828,18.52
19.843,15.06
19.859,11.4
19.875,7.43
19.890,3.08
19.906,-1.77
19.921,-7.1
19.937,-12.73
19.953,-18.38
19.968,-23.64
19.984,-28.13
20.000,-31.58
20.015,-33.92
20.031,-35.32
20.046,-36.14
20.062,-36.86
20.078,-37.96
20.093,-39.79
20.109,-42.41
20.125,-45.54
20.140,-48.52
20.156,-50.5
20.171,-50.68
20.187,-48.55
20.203,-44.1
20.218,-37.72
20.234,-30.09
20.250,-21.87
20.265,-13.54
20.281,-5.38
20.296,2.42
20.312,9.62
20.328,15.88
20.343,20.89
20.359,24.46
20.375,26.73
20.390,28.09
20.406,29.02
20.421,29.92
20.437,30.92
20.453,31.91
20.468,32.68
20.484,33.03
20.500,32.9
20.515,32.31
20.531,31.29
20.546,29.74
20.562,27.49
20.578,24.35
20.593,20.28
20.609,15.43
20.625,10.21
20.640,5.11
20.656,0.58
20.671,-3.1
20.687,-5.85
20.703,-7.75
20.718,-8.89
20.734,-9.41
20.750,-9.47
20.765,-9.35
20.781,-9.48
20.796,-10.38
20.812,-12.46
20.828,-15.92
20.843,-20.61
20.859,-26.07
20.875,-31.79
20.890,-37.27
20.906,-42.19
20.921,-46.25
20.937,-49.11
20.953,-50.28
20.968,-49.27
20.984,-45.71
21.000,-39.61
21.015,-31.45
21.031,-22.0
21.046,-12.21
21.062,-2.89
21.078,5.35
21.093,12.19
21.109,17.53
21.125,21.41
21.140,23.95
21.156,25.27
21.171,25.51
21.187,24.73
21.203,23.06
21.218,20.65
21.234,17.85
21.250,15.16
21.265,13.09
21.281,12.13
21.296,12.45
21.312,13.96
21.328,16.26
21.343,18.86
21.359,21.22
21.375,22.9
21.390,23.51
21.406,22.73
21.421,20.38
21.437,16.51
21.453,11.47
21.468,5.86
21.484,0.39
21.500,-4.32
21.515,-7.98
21.531,-10.56
21.546,-12.34
21.562,-13.59
21.578,-14.55
21.593,-15.36
21.609,-16.12
21.625,-16.98
21.640,-18.19
21.656,-19.97
21.671,-22.49
21.687,-25.71
21.703,-29.34
21.718,-32.91
21.734,-35.79
21.750,-37.28
21.765,-36.78
21.781,-33.88
21.796,-28.54
21.812,-21.09
21.828,-12.21
21.843,-2.69
21.859,6.74
21.875,15.58
21.890,23.6
21.906,30.75
21.921,37.01
21.937,42.31
21.953,46.59
21.968,49.77
21.984,51.92
22.000,53.2
22.015,53.84
22.031,54.09
22.046,54.14
22.062,54.11
22.078,54.03
22.093,53.94
22.109,53.84
22.125,53.75
22.140,53.62
22.156,53.34
22.171,52.77
22.187,51.72
22.203,50.07
22.218,47.78
22.234,44.94
22.250,41.71
22.265,38.29
22.281,34.88
22.296,31.63
22.312,28.59
22.328,25.65
22.343,22.61
22.359,19.22
22.375,15.27
22.390,10.8
22.406,6.04
22.421,1.36
22.437,-2.87
22.453,-6.5
22.468,-9.71
22.484,-12.94
22.500,-16.74
22.515,-21.55
22.531,-27.39
22.546,-33.83
22.562,-40.04
22.578,-44.97
22.593,-47.65
22.609,-47.52
22.625,-44.55
22.640,-39.22
22.656,-32.38
22.671,-24.94
22.687,-17.66
22.703,-11.02
22.718,-5.23
22.734,-0.35
22.750,3.64
22.765,6.75
22.781,9.08
22.796,10.77
22.812,11.99
22.828,12.93
22.843,13.61
22.859,14.0
22.875,13.98
22.890,13.5
22.906,12.66
22.921,11.67
22.937,10.82
22.953,10.28
22.968,10.08
22.984,10.06
23.000,10.0
23.015,9.74
23.031,9.19
23.046,8.37
23.062,7.28
23.078,5.95
23.093,4.33
23.109,2.39
23.125,0.11
23.140,-2.52
23.156,-5.47
23.171,-8.71
23.187,-12.16
23.203,-15.74
23.218,-19.28
23.234,-22.61
23.250,-25.61
23.265,-28.2
23.281,-30.48
23.296,-32.68
23.312,-35.13
23.328,-38.18
23.343,-42.0
23.359,-46.47
23.375,-51.08
23.390,-54.98
23.406,-57.21
23.421,-57.07
23.437,-54.25
23.453,-49.0
23.468,-41.97
23.484,-33.94
23.500,-25.65
23.515,-17.61
23.531,-10.11
23.546,-3.31
23.562,2.64
23.578,7.59
23.593,11.44
23.609,14.15
23.625,15.74
23.640,16.39
23.656,16.33
23.671,15.86
23.687,15.26
23.703,14.72
23.718,14.37
23.734,14.25
23.750,14.36
23.765,14.64
23.781,15.05
23.796,15.47
23.812,15.77
23.828,15.79
23.843,15.37
23.859,14.44
23.875,13.0
23.890,11.14
23.906,8.95
23.921,6.49
23.937,3.81
23.953,0.89
23.968,-2.23
23.984,-5.46
24.000,-8.69
24.015,-11.83
24.031,-14.82
24.046,-17.72
24.062,-20.66
24.078,-23.85
24.093,-27.48
24.109,-31.62
24.125,-36.19
24.140,-40.84
24.156,-45.0
24.171,-47.95
24.187,-49.01
24.203,-47.69
24.218,-43.87
24.234,-37.87
24.250,-30.31
24.265,-21.95
24.281,-13.54
24.296,-5.62
24.312,1.47
24.328,7.6
24.343,12.73
24.359,16.87
24.375,20.05
24.390,22.33
24.406,23.85
24.421,24.73
24.437,25.11
24.453,25.13
24.468,24.87
24.484,24.42
24.500,23.9
24.515,23.44
24.531,23.13
24.546,23.03
24.562,23.1
24.578,23.23
24.593,23.25
24.609,22.93
24.625,22.05
24.640,20.45
24.656,18.13
24.671,15.22
24.687,11.93
24.703,8.55
24.718,5.26
24.734,2.12
24.750,-0.92
24.765,-3.95
24.781,-7.1
24.796,-10.4
24.812,-13.84
24.828,-17.4
24.843,-21.01
24.859,-24.72
24.875,-28.59
24.890,-32.73
24.906,-37.09
24.921,-41.45
24.937,-45.3
24.953,-47.91
24.968,-48.51
24.984,-46.58
25.000,-42.03
25.015,-35.27
25.031,-27.1
25.046,-18.4
25.062,-9.92
25.078,-2.07
25.093,4.99
25.109,11.27
25.125,16.79
25.140,21.52
25.156,25.45
25.171,28.65
25.187,31.26
25.203,33.44
25.218,35.28
25.234,36.74
25.250,37.72
25.265,38.06
25.281,37.73
25.296,36.81
25.312,35.47
25.328,33.9
25.343,32.2
25.359,30.37
25.375,28.36
25.390,26.12
25.406,23.62
25.421,20.88
25.437,17.95
25.453,14.87
25.468,11.68
25.484,8.39
25.500,4.98
25.515,1.43
25.531,-2.25
25.546,-5.96
25.562,-9.55
25.578,-12.87
25.593,-15.82
25.609,-18.53
25.625,-21.24
25.640,-24.29
25.656,-27.94
25.671,-32.26
25.687,-37.08
25.703,-42.0
25.718,-46.51
25.734,-50.0
25.750,-51.89
25.765,-51.73
25.781,-49.28
25.796,-44.52
25.812,-37.78
25.828,-29.6
25.843,-20.71
25.859,-11.84
25.875,-3.56
25.890,3.74
25.906,9.91
25.921,14.93
25.937,18.84
25.953,21.73
25.968,23.68
25.984,24.81
26.000,25.34
26.015,25.54
26.031,25.72
26.046,26.03
26.062,26.49
26.078,26.92
26.093,27.05
26.109,26.67
26.125,25.71
26.140,24.27
26.156,22.55
26.171,20.76
26.187,19.0
26.203,17.27
26.218,15.5
26.234,13.62
26.250,11.59
26.265,9.34
26.281,6.81
26.296,3.9
26.312,0.59
26.328,-3.07
26.343,-6.83
26.359,-10.35
26.375,-13.39
26.390,-15.89
26.406,-18.08
26.421,-20.39
26.437,-23.28
26.453,-27.08
26.468,-31.76
26.484,-36.95
26.500,-41.88
26.515,-45.62
26.531,-47.27
26.546,-46.25
26.562,-42.42
26.578,-36.19
26.593,-28.39
26.609,-19.97
26.625,-11.75
26.640,-4.23
26.656,2.46
26.671,8.39
26.687,13.68
26.703,18.37
26.718,22.35
26.734,25.44
26.750,27.53
26.765,28.61
26.781,28.83
26.796,28.44
26.812,27.71
26.828,26.82
26.843,25.9
26.859,25.04
26.875,24.26
26.890,23.61
26.906,23.07
26.921,22.57
26.937,21.97
26.953,21.06
26.968,19.69
26.984,17.77
27.000,15.33
27.015,12.43
27.031,9.19
27.046,5.73
27.062,2.16
27.078,-1.34
27.093,-4.57
27.109,-7.35
27.125,-9.61
27.140,-11.46
27.156,-13.13
27.171,-14.94
27.187,-17.13
27.203,-19.85
27.218,-23.14
27.234,-26.94
27.250,-31.04
27.265,-35.07
27.281,-38.37
27.296,-40.21
27.312,-39.86
27.328,-36.91
27.343,-31.4
27.359,-23.78
27.375,-14.81
27.390,-5.29
27.406,4.09
27.421,12.86
27.437,20.74
27.453,27.53
27.468,33.05
27.484,37.15
27.500,39.7
27.515,40.72
27.531,40.35
27.546,38.9
27.562,36.76
27.578,34.29
27.593,31.77
27.609,29.25
27.625,26.63
27.640,23.79
27.656,20.7
27.671,17.48
27.687,14.31
27.703,11.35
27.718,8.62
27.734,5.96
27.750,3.17
27.765,0.14
27.781,-3.09
27.796,-6.29
27.812,-9.26
27.828,-11.87
27.843,-14.22
27.859,-16.54
27.875,-19.05
27.890,-21.86
27.906,-24.9
27.921,-27.97
27.937,-30.87
27.953,-33.47
27.968,-35.79
27.984,-38.0
28.000,-40.32
28.015,-42.95
28.031,-45.94
28.046,-49.15
28.062,-52.12
28.078,-54.14
28.093,-54.39
28.109,-52.14
28.125,-47.03
28.140,-39.2
28.156,-29.31
28.171,-18.3
28.187,-7.08
28.203,3.66
28.218,13.54
28.234,22.46
28.250,30.35
28.265,37.13
28.281,42.6
28.296,46.56
28.312,48.88
28.328,49.58
28.343,48.84
28.359,46.96
28.375,44.27
28.390,41.11
28.406,37.79
28.421,34.55
28.437,31.55
28.453,28.86
28.468,26.45
28.484,24.24
28.500,22.1
28.515,19.9
28.531,17.54
28.546,14.93
28.562,12.04
28.578,8.91
28.593,5.61
28.609,2.26
28.625,-1.1
28.640,-4.47
28.656,-7.93
28.671,-11.53
28.687,-15.3
28.703,-19.23
28.718,-23.31
28.734,-27.6
28.750,-32.25
28.765,-37.41
28.781,-43.13
28.796,-49.19
28.812,-55.08
28.828,-60.09
28.843,-63.41
28.859,-64.4
28.875,-62.67
28.890,-58.2
28.906,-51.3
28.921,-42.58
28.937,-32.79
28.953,-22.72
28.968,-13.04
28.984,-4.28
29.000,3.22
29.015,9.32
29.031,13.95
29.046,17.15
29.062,19.06
29.078,19.95
29.093,20.16
29.109,20.08
29.125,20.01
29.140,20.12
29.156,20.45
29.171,20.92
29.187,21.43
29.203,21.86
29.218,22.13
29.234,22.18
29.250,21.93
29.265,21.39
29.281,20.54
29.296,19.39
29.312,17.91
29.328,16.05
29.343,13.69
29.359,10.76
29.375,7.28
29.390,3.41
29.406,-0.6
29.421,-4.5
29.437,-8.13
29.453,-11.52
29.468,-14.88
29.484,-18.56
29.500,-22.89
29.515,-28.0
29.531,-33.73
29.546,-39.56
29.562,-44.71
29.578,-48.3
29.593,-49.65
29.609,-48.45
29.625,-44.84
29.640,-39.31
29.656,-32.51
29.671,-25.09
29.687,-17.58
29.703,-10.31
29.718,-3.5
29.734,2.69
29.750,8.11
29.765,12.61
29.781,16.06
29.796,18.4
29.812,19.71
29.828,20.21
29.843,20.2
29.859,20.0
29.875,19.83
29.890,19.73
29.906,19.63
29.921,19.38
29.937,18.9
29.953,18.17
29.968,17.21
29.984,15.99
30.000,14.47
30.015,12.63
30.031,10.55
30.046,8.41
30.062,6.42
30.078,4.7
30.093,3.16
30.109,1.56
30.125,-0.35
30.140,-2.69
30.156,-5.34
30.171,-8.02
30.187,-10.45
30.203,-12.52
30.218,-14.37
30.234,-16.31
30.250,-18.74
30.265,-21.98
30.281,-26.14
30.296,-31.1
30.312,-36.4
30.328,-41.31
30.343,-44.97
30.359,-46.56
30.375,-45.47
30.390,-41.55
30.406,-35.11
30.421,-26.86
30.437,-17.67
30.453,-8.35
30.468,0.47
30.484,8.48
30.500,15.57
30.515,21.74
30.531,27.03
30.546,31.46
30.562,35.04
30.578,37.79
30.593,39.75
30.609,40.93
30.625,41.33
30.640,40.94
30.656,39.84
30.671,38.29
30.687,36.71
30.703,35.52
30.718,34.92
30.734,34.79
30.750,34.76
30.765,34.34
30.781,33.23
30.796,31.39
30.812,29.06
30.828,26.53
30.843,23.97
30.859,21.35
30.875,18.56
30.890,15.52
30.906,12.32
30.921,9.18
30.937,6.3
30.953,3.77
30.968,1.51
30.984,-0.67
31.000,-2.94
31.015,-5.43
31.031,-8.2
31.046,-11.37
31.062,-15.08
31.078,-19.4
31.093,-24.09
31.109,-28.55
31.125,-31.88
31.140,-33.13
31.156,-31.67
31.171,-27.45
31.187,-20.97
31.203,-13.1
31.218,-4.72
31.234,3.49
31.250,11.19
31.265,18.24
31.281,24.61
31.296,30.18
31.312,34.78
31.328,38.19
31.343,40.3
31.359,41.12
31.375,40.87
31.390,39.86
31.406,38.51
31.421,37.17
31.437,36.07
31.453,35.25
31.468,34.51
31.484,33.64
31.500,32.44
31.515,30.86
31.531,29.05
31.546,27.19
31.562,25.44
31.578,23.74
31.593,21.9
31.609,19.62
31.625,16.7
31.640,13.11
31.656,9.03
31.671,4.77
31.687,0.65
31.703,-3.16
31.718,-6.65
31.734,-9.97
31.750,-13.4
31.765,-17.2
31.781,-21.57
31.796,-26.53
31.812,-31.93
31.828,-37.37
31.843,-42.3
31.859,-46.05
31.875,-47.96
31.890,-47.52
31.906,-44.54
31.921,-39.24
31.937,-32.22
31.953,-24.31
31.968,-16.35
31.984,-8.95
32.000,-2.39
32.015,3.31
32.031,8.22
32.046,12.38
32.062,15.71
32.078,18.05
32.093,19.28
32.109,19.43
32.125,18.75
32.140,17.61
32.156,16.42
32.171,15.48
32.187,14.94
32.203,14.75
32.218,14.79
32.234,14.85
32.250,14.83
32.265,14.63
32.281,14.22
32.296,13.55
32.312,12.53
32.328,11.1
32.343,9.2
32.359,6.84
32.375,4.08
32.390,1.05
32.406,-2.12
32.421,-5.29
32.437,-8.35
32.453,-11.29
32.468,-14.16
32.484,-17.15
32.500,-20.49
32.515,-24.44
32.531,-29.1
32.546,-34.4
32.562,-39.99
32.578,-45.29
32.593,-49.62
32.609,-52.32
32.625,-52.93
32.640,-51.23
32.656,-47.27
32.671,-41.34
32.687,-33.87
32.703,-25.44
32.718,-16.64
32.734,-8.05
32.750,-0.19
32.765,6.57
32.781,12.05
32.796,16.25
32.812,19.31
32.828,21.4
32.843,22.69
32.859,23.32
32.875,23.46
32.890,23.27
32.906,22.95
32.921,22.64
32.937,22.43
32.953,22.27
32.968,22.06
32.984,21.61
33.000,20.78
33.015,19.48
33.031,17.77
33.046,15.78
33.062,13.68
33.078,11.56
33.093,9.39
33.109,7.06
33.125,4.37
33.140,1.26
33.156,-2.2
33.171,-5.78
33.187,-9.15
33.203,-12.04
33.218,-14.27
33.234,-15.89
33.250,-17.07
33.265,-18.2
33.281,-19.66
33.296,-21.86
33.312,-25.05
33.328,-29.23
33.343,-34.02
33.359,-38.71
33.375,-42.33
33.390,-43.91
33.406,-42.73
33.421,-38.53
33.437,-31.57
33.453,-22.6
33.468,-12.61
33.484,-2.59
33.500,6.65
33.515,14.57
33.531,20.9
33.546,25.66
33.562,29.02
33.578,31.27
33.593,32.73
33.609,33.66
33.625,34.26
33.640,34.67
33.656,34.92
33.671,35.06
33.687,35.09
33.703,34.98
33.718,34.64
33.734,33.96
33.750,32.89
33.765,31.46
33.781,29.74
33.796,27.87
33.812,25.91
33.828,23.79
33.843,21.35
33.859,18.36
33.875,14.73
33.890,10.51
33.906,5.98
33.921,1.49
33.937,-2.65
33.953,-6.34
33.968,-9.6
33.984,-12.67
34.000,-15.82
34.015,-19.28
34.031,-23.17
34.046,-27.49
34.062,-32.1
34.078,-36.69
34.093,-40.8
34.109,-43.82
34.125,-45.06
34.140,-43.98
34.156,-40.35
34.171,-34.42
34.187,-26.9
34.203,-18.69
34.218,-10.71
34.234,-3.57
34.250,2.47
34.265,7.42
34.281,11.43
34.296,14.58
34.312,16.84
34.328,18.14
34.343,18.54
34.359,18.22
34.375,17.54
34.390,16.87
34.406,16.46
34.421,16.39
34.437,16.59
34.453,16.9
34.468,17.16
34.484,17.29
34.500,17.23
34.515,16.97
34.531,16.48
34.546,15.72
34.562,14.65
34.578,13.28
34.593,11.61
34.609,9.66
34.625,7.43
34.640,4.97
34.656,2.29
34.671,-0.54
34.687,-3.5
34.703,-6.57
34.718,-9.81
34.734,-13.3
34.750,-17.19
34.765,-21.59
34.781,-26.43
34.796,-31.34
34.812,-35.73
34.828,-38.8
34.843,-39.82
34.859,-38.38
34.875,-34.54
34.890,-28.76
34.906,-21.8
34.921,-14.35
34.937,-6.91
34.953,0.22
34.968,6.89
34.984,12.9
35.000,17.94
35.015,21.7
35.031,24.0
35.046,24.89
35.062,24.7
35.078,23.88
35.093,22.86
35.109,21.86
35.125,20.9
35.140,19.81
35.156,18.46
35.171,16.78
35.187,14.8
35.203,12.69
35.218,10.62
35.234,8.78
35.250,7.26
35.265,6.04
35.281,4.99
35.296,3.92
35.312,2.63
35.328,0.96
35.343,-1.19
35.359,-3.78
35.375,-6.71
35.390,-9.85
35.406,-12.98
35.421,-15.97
35.437,-18.75
35.453,-21.44
35.468,-24.3
35.484,-27.73
35.500,-32.04
35.515,-37.31
35.531,-43.26
35.546,-49.23
35.562,-54.3
35.578,-57.49
35.593,-57.99
35.609,-55.48
35.625,-50.13
35.640,-42.64
35.656,-33.96
35.671,-25.05
35.687,-16.56
35.703,-8.85
35.718,-1.97
35.734,4.12
35.750,9.4
35.765,13.76
35.781,17.07
35.796,19.3
35.812,20.59
35.828,21.22
35.843,21.49
35.859,21.57
35.875,21.54
35.890,21.37
35.906,21.09
35.921,20.79
35.937,20.59
35.953,20.61
35.968,20.83
35.984,21.07
36.000,21.05
36.015,20.44
36.031,19.04
36.046,16.85
36.062,14.01
36.078,10.77
36.093,7.41
36.109,4.07
36.125,0.85
36.140,-2.23
36.156,-5.12
36.171,-7.79
36.187,-10.24
36.203,-12.53
36.218,-14.81
36.234,-17.34
36.250,-20.35
36.265,-24.0
36.281,-28.29
36.296,-32.94
36.312,-37.48
36.328,-41.22
36.343,-43.46
36.359,-43.56
36.375,-41.22
36.390,-36.47
36.406,-29.76
36.421,-21.76
36.437,-13.16
36.453,-4.55
36.468,3.62
36.484,11.03
36.500,17.44
36.515,22.59
36.531,26.32
36.546,28.6
36.562,29.57
36.578,29.6
36.593,29.12
36.609,28.47
36.625,27.9
36.640,27.47
36.656,27.16
36.671,26.93
36.687,26.76
36.703,26.7
36.718,26.75
36.734,26.88
36.750,26.98
36.765,26.91
36.781,26.51
36.796,25.63
36.812,24.19
36.828,22.23
36.843,19.84
36.859,17.15
36.875,14.3
36.890,11.4
36.906,8.51
36.921,5.65
36.937,2.81
36.953,-0.11
36.968,-3.3
36.984,-7.03
37.000,-11.51
37.015,-16.75
37.031,-22.4
37.046,-27.71
37.062,-31.69
37.078,-33.41
37.093,-32.32
37.109,-28.47
37.125,-22.41
37.140,-15.04
37.156,-7.26
37.171,0.25
37.187,7.07
37.203,13.0
37.218,17.91
37.234,21.64
37.250,24.03
37.265,25.06
37.281,24.9
37.296,23.91
37.312,22.57
37.328,21.29
37.343,20.31
37.359,19.68
37.375,19.27
37.390,18.9
37.406,18.38
37.421,17.6
37.437,16.55
37.453,15.26
37.468,13.82
37.484,12.24
37.500,10.49
37.515,8.42
37.531,5.91
37.546,2.91
37.562,-0.49
37.578,-4.07
37.593,-7.62
37.609,-10.97
37.625,-14.12
37.640,-17.17
37.656,-20.25
37.671,-23.45
37.687,-26.89
37.703,-30.67
37.718,-34.9
37.734,-39.65
37.750,-44.79
37.765,-49.9
37.781,-54.26
37.796,-56.99
37.812,-57.32
37.828,-54.77
37.843,-49.35
37.859,-41.56
37.875,-32.28
37.890,-22.53
37.906,-13.17
37.921,-4.8
37.937,2.33
37.953,8.28
37.968,13.21
37.984,17.32
38.000,20.81
38.015,23.8
38.031,26.38
38.046,28.58
38.062,30.25
38.078,31.17
38.093,31.08
38.109,29.84
38.125,27.57
38.140,24.67
38.156,21.64
38.171,18.94
38.187,16.81
38.203,15.23
38.218,14.02
38.234,12.91
38.250,11.67
38.265,10.14
38.281,8.19
38.296,5.78
38.312,2.91
38.328,-0.27
38.343,-3.58
38.359,-6.81
38.375,-9.8
38.390,-12.51
38.406,-14.89
38.421,-16.94
38.437,-18.58
38.453,-19.82
38.468,-20.78
38.484,-21.8
38.500,-23.36
38.515,-25.8
38.531,-29.2
38.546,-33.16
38.562,-36.94
38.578,-39.65
38.593,-40.6
38.609,-39.53
38.625,-36.62
38.640,-32.35
38.656,-27.26
38.671,-21.7
38.687,-15.79
38.703,-9.44
38.718,-2.57
38.734,4.78
38.750,12.36
38.765,19.83
38.781,26.83
38.796,33.13
38.812,38.59
38.828,43.14
38.843,46.66
38.859,48.96
38.875,49.87
38.890,49.3
38.906,47.44
38.921,44.81
38.937,42.07
38.953,39.91
38.968,38.77
38.984,38.7
39.000,39.44
39.015,40.52
39.031,41.49
39.046,42.06
39.062,42.07
39.078,41.42
39.093,39.95
39.109,37.46
39.125,33.79
39.140,28.97
39.156,23.25
39.171,17.09
39.187,10.94
39.203,5.15
39.218,-0.17
39.234,-5.03
39.250,-9.33
39.265,-12.71
39.281,-14.4
39.296,-13.43
39.312,-8.85
39.328,-0.13
39.343,12.66
39.359,28.84
39.375,47.23
39.390,66.37
39.406,84.66
39.421,100.52
39.437,112.41
39.453,119.08
39.468,119.94
39.484,115.43
39.500,107.06
39.515,97.0
39.531,87.29
39.546,79.09
39.562,72.32
39.578,65.97
39.593,58.97
39.609,50.88
39.625,42.28
39.640,34.46
39.656,28.64
39.671,25.42
39.687,24.44
39.703,24.75
39.718,25.17
39.734,24.77
39.750,22.87
39.765,19.07
39.781,13.27
39.796,5.68
39.812,-3.21
39.828,-12.78
39.843,-22.71
39.859,-33.11
39.875,-44.46
39.890,-57.18
39.906,-71.16
39.921,-85.47
39.937,-98.71
39.953,-109.58
39.968,-117.4
39.984,-122.21
40.000,-124.41
40.015,-124.29
40.031,-121.79
40.046,-116.69
40.062,-109.01
40.078,-99.24
40.093,-88.28
40.109,-76.95
40.125,-65.72
40.140,-54.65
40.156,-43.65
40.171,-32.91
40.187,-22.9
40.203,-14.11
40.218,-6.5
40.234,0.79
40.250,9.23
40.265,20.26
40.281,34.52
40.296,51.36
40.312,69.01
40.328,85.27
40.343,98.39
40.359,107.63
40.375,113.28
40.390,116.21
40.406,117.2
40.421,116.49
40.437,113.93
40.453,109.27
40.468,102.77
40.484,95.28
40.500,88.04
40.515,82.05
40.531,77.46
40.546,73.33
40.562,67.96
40.578,59.58
40.593,47.06
40.609,30.42
40.625,10.88
40.640,-9.65
40.656,-29.04
40.671,-45.56
40.687,-58.13
40.703,-66.27
40.718,-69.86
40.734,-68.84
40.750,-63.1
40.765,-52.54
40.781,-37.56
40.796,-19.35
40.812,-0.07
40.828,17.57
40.843,31.02
40.859,38.76
40.875,40.78
40.890,38.57
40.906,34.57
40.921,31.5
40.937,31.95
40.953,37.86
40.968,50.18
40.984,68.13
41.000,88.87
41.015,107.57
41.031,118.65
41.046,117.65
41.062,103.11
41.078,77.35
41.093,45.73
41.109,14.61
41.125,-11.1
41.140,-29.54
41.156,-42.18
41.171,-52.62
41.187,-64.79
41.203,-81.34
41.218,-102.78
41.234,-127.68
41.250,-153.37
41.265,-177.05
41.281,-196.59
41.296,-211.05
41.312,-220.55
41.328,-225.9
41.343,-228.11
41.359,-227.96
41.375,-225.85
41.390,-221.75
41.406,-215.2
41.421,-205.28
41.437,-190.81
41.453,-170.93
41.468,-145.81
41.484,-117.28
41.500,-88.82
41.515,-64.78
41.531,-48.93
41.546,-43.09
41.562,-46.52
41.578,-56.29
41.593,-68.55
41.609,-79.87
41.625,-88.23
41.640,-92.99
41.656,-94.41
41.671,-92.93
41.687,-88.88
41.703,-82.52
41.718,-74.34
41.734,-65.21
41.750,-56.16
41.765,-47.94
41.781,-40.79
41.796,-34.3
41.812,-27.76
41.828,-20.51
41.843,-12.28
41.859,-3.24
41.875,6.07
41.890,14.99
41.906,22.97
41.921,29.65
41.937,35.01
41.953,39.2
41.968,42.48
41.984,44.97
42.000,46.47
42.015,46.51
42.031,44.5
42.046,40.09
42.062,33.44
42.078,25.41
42.093,17.28
42.109,10.48
42.125,6.15
42.140,4.81
42.156,6.38
42.171,10.16
42.187,15.16
42.203,20.35
42.218,24.91
42.234,28.39
42.250,30.66
42.265,31.93
42.281,32.44
42.296,32.48
42.312,32.23
42.328,32.02
42.343,32.17
42.359,33.12
42.375,35.12
42.390,38.1
42.406,41.62
42.421,45.0
42.437,47.62
42.453,49.15
42.468,49.59
42.484,49.18
42.500,48.09
42.515,46.44
42.531,44.14
42.546,41.19
42.562,37.7
42.578,33.99
42.593,30.46
42.609,27.39
42.625,24.85
42.640,22.67
42.656,20.55
42.671,18.09
42.687,14.91
42.703,10.69
42.718,5.15
42.734,-1.76
42.750,-9.88
42.765,-18.61
42.781,-27.03
42.796,-34.01
42.812,-38.49
42.828,-39.81
42.843,-37.89
42.859,-33.21
42.875,-26.62
42.890,-19.07
42.906,-11.35
42.921,-3.97
42.937,2.78
42.953,8.66
42.968,13.4
42.984,16.66
43.000,18.17
43.015,17.86
43.031,16.04
43.046,13.29
43.062,10.36
43.078,7.88
43.093,6.21
43.109,5.4
43.125,5.21
43.140,5.38
43.156,5.74
43.171,6.2
43.187,6.74
43.203,7.16
43.218,7.09
43.234,6.03
43.250,3.59
43.265,-0.33
43.281,-5.44
43.296,-11.21
43.312,-17.0
43.328,-22.38
43.343,-27.2
43.359,-31.55
43.375,-35.63
43.390,-39.61
43.406,-43.52
43.421,-47.27
43.437,-50.58
43.453,-53.02
43.468,-54.01
43.484,-52.92
43.500,-49.25
43.515,-42.78
43.531,-33.76
43.546,-22.77
43.562,-10.62
43.578,1.83
43.593,13.82
43.609,24.75
43.625,34.15
43.640,41.64
43.656,47.08
43.671,50.51
43.687,52.24
43.703,52.75
43.718,52.61
43.734,52.33
43.750,52.28
43.765,52.71
43.781,53.71
43.796,55.24
43.812,57.2
43.828,59.48
43.843,61.86
43.859,64.14
43.875,65.99
43.890,66.94
43.906,66.38
43.921,63.64
43.937,58.18
43.953,49.75
43.968,38.58
43.984,25.35
44.000,11.06
44.015,-3.15
44.031,-16.31
44.046,-27.81
44.062,-37.47
44.078,-45.58
44.093,-52.67
44.109,-59.29
44.125,-65.71
44.140,-71.8
44.156,-76.91
44.171,-80.1
44.187,-80.34
44.203,-76.93
44.218,-69.72
44.234,-59.17
44.250,-46.32
44.265,-32.37
44.281,-18.41
44.296,-5.09
44.312,7.41
44.328,19.29
44.343,30.79
44.359,41.95
44.375,52.41
44.390,61.63
44.406,69.05
44.421,74.39
44.437,77.87
44.453,79.98
44.468,81.46
44.484,82.94
44.500,84.87
44.515,87.6
44.531,91.38
44.546,96.32
44.562,102.24
44.578,108.45
44.593,113.72
44.609,116.49
44.625,115.43
44.640,109.91
44.656,100.37
44.671,88.16
44.687,75.08
44.703,62.76
44.718,52.12
44.734,43.26
44.750,35.59
44.765,28.19
44.781,20.11
44.796,10.61
44.812,-0.8
44.828,-14.31
44.843,-29.82
44.859,-46.93
44.875,-64.91
44.890,-82.88
44.906,-99.79
44.921,-114.76
44.937,-127.14
44.953,-136.69
44.968,-143.52
44.984,-147.95
45.000,-150.25
45.015,-150.53
45.031,-148.66
45.046,-144.49
45.062,-138.17
45.078,-130.31
45.093,-122.01
45.109,-114.5
45.125,-108.63
45.140,-104.62
45.156,-101.96
45.171,-99.7
45.187,-96.98
45.203,-93.25
45.218,-88.38
45.234,-82.41
45.250,-75.3
45.265,-66.8
45.281,-56.58
45.296,-44.46
45.312,-30.69
45.328,-15.97
45.343,-1.32
45.359,12.27
45.375,24.14
45.390,34.1
45.406,42.42
45.421,49.58
45.437,56.04
45.453,61.9
45.468,66.8
45.484,69.97
45.500,70.52
45.515,67.83
45.531,62.01
45.546,54.02
45.562,45.54
45.578,38.45
45.593,34.25
45.609,33.54
45.625,35.94
45.640,40.37
45.656,45.6
45.671,50.7
45.687,55.29
45.703,59.39
45.718,63.15
45.734,66.57
45.750,69.38
45.765,71.14
45.781,71.42
45.796,69.99
45.812,66.97
45.828,62.69
45.843,57.6
45.859,52.12
45.875,46.53
45.890,41.03
45.906,35.81
45.921,31.11
45.937,27.24
45.953,24.48
45.968,22.86
45.984,22.09
46.000,21.57
46.015,20.61
46.031,18.66
46.046,15.55
46.062,11.42
46.078,6.69
46.093,1.76
46.109,-3.07
46.125,-7.69
46.140,-12.12
46.156,-16.43
46.171,-20.7
46.187,-25.01
46.203,-29.53
46.218,-34.39
46.234,-39.54
46.250,-44.66
46.265,-48.99
46.281,-51.51
46.296,-51.12
46.312,-46.98
46.328,-38.82
46.343,-27.07
46.359,-12.82
46.375,2.49
46.390,17.34
46.406,30.55
46.421,41.39
46.437,49.65
46.453,55.54
46.468,59.48
46.484,61.95
46.500,63.31
46.515,63.83
46.531,63.68
46.546,63.1
46.562,62.37
46.578,61.91
46.593,62.12
46.609,63.28
46.625,65.5
46.640,68.53
46.656,71.93
46.671,75.13
46.687,77.66
46.703,79.29
46.718,80.14
46.734,80.62
46.750,81.24
46.765,82.49
46.781,84.63
46.796,87.67
46.812,91.39
46.828,95.31
46.843,98.77
46.859,100.9
46.875,100.78
46.890,97.66
46.906,91.33
46.921,82.33
46.937,71.97
46.953,61.93
46.968,53.76
46.984,48.27
47.000,45.35
47.015,44.17
47.031,43.69
47.046,43.41
47.062,43.7
47.078,45.54
47.093,49.7
47.109,55.71
47.125,61.4
47.140,63.33
47.156,58.12
47.171,44.14
47.187,22.43
47.203,-3.49
47.218,-28.98
47.234,-49.97
47.250,-64.32
47.265,-72.12
47.281,-75.04
47.296,-75.25
47.312,-74.52
47.328,-73.83
47.343,-73.62
47.359,-74.12
47.375,-75.43
47.390,-77.48
47.406,-79.86
47.421,-81.76
47.437,-82.36
47.453,-81.18
47.468,-78.4
47.484,-74.95
47.500,-72.21
47.515,-71.5
47.531,-73.7
47.546,-78.84
47.562,-86.09
47.578,-93.99
47.593,-100.89
47.609,-105.45
47.625,-107.09
47.640,-106.06
47.656,-103.37
47.671,-100.3
47.687,-97.94
47.703,-96.75
47.718,-96.5
47.734,-96.54
47.750,-96.22
47.765,-95.36
47.781,-94.34
47.796,-93.93
47.812,-94.94
47.828,-97.85
47.843,-102.52
47.859,-108.27
47.875,-114.0
47.890,-118.53
47.906,-121.05
47.921,-121.27
47.937,-119.53
47.953,-116.53
47.968,-112.98
47.984,-109.26
48.000,-105.26
48.015,-100.58
48.031,-94.7
48.046,-87.32
48.062,-78.51
48.078,-68.69
48.093,-58.49
48.109,-48.48
48.125,-39.09
48.140,-30.55
48.156,-23.03
48.171,-16.69
48.187,-11.82
48.203,-8.75
48.218,-7.73
48.234,-8.78
48.250,-11.59
48.265,-15.45
48.281,-19.37
48.296,-22.17
48.312,-22.73
48.328,-20.26
48.343,-14.47
48.359,-5.73
48.375,5.04
48.390,16.62
48.406,27.81
48.421,37.73
48.437,45.92
48.453,52.3
48.468,56.96
48.484,60.05
48.500,61.7
48.515,62.14
48.531,61.71
48.546,60.92
48.562,60.25
48.578,60.03
48.593,60.33
48.609,60.91
48.625,61.29
48.640,60.99
48.656,59.69
48.671,57.32
48.687,54.1
48.703,50.38
48.718,46.48
48.734,42.59
48.750,38.71
48.765,34.74
48.781,30.6
48.796,26.33
48.812,22.09
48.828,18.03
48.843,14.16
48.859,10.21
48.875,5.7
48.890,0.18
48.906,-6.48
48.921,-13.82
48.937,-20.83
48.953,-26.15
48.968,-28.54
48.984,-27.23
49.000,-22.19
49.015,-14.16
49.031,-4.34
49.046,5.94
49.062,15.55
49.078,23.76
49.093,30.33
49.109,35.31
49.125,38.92
49.140,41.45
49.156,43.17
49.171,44.43
49.187,45.69
49.203,47.39
49.218,49.85
49.234,53.08
49.250,56.7
49.265,60.12
49.281,62.78
49.296,64.47
49.312,65.48
49.328,66.38
49.343,67.8
49.359,70.12
49.375,73.37
49.390,77.31
49.406,81.59
49.421,85.9
49.437,89.86
49.453,92.9
49.468,94.13
49.484,92.5
49.500,87.04
49.515,77.24
49.531,63.37
49.546,46.44
49.562,28.06
49.578,9.99
49.593,-6.18
49.609,-19.18
49.625,-28.25
49.640,-33.07
49.656,-33.77
49.671,-30.92
49.687,-25.43
49.703,-18.41
49.718,-10.92
49.734,-3.75
49.750,2.71
49.765,8.35
49.781,13.25
49.796,17.41
49.812,20.69
49.828,22.77
49.843,23.21
49.859,21.63
49.875,17.82
49.890,11.77
49.906,3.79
49.921,-5.59
49.937,-15.59
49.953,-25.32
49.968,-33.77
49.984,-39.92
50.000,-42.91
50.015,-42.19
50.031,-37.82
50.046,-30.69
50.062,-22.46
50.078,-15.22
50.093,-10.93
50.109,-10.82
50.125,-15.14
50.140,-23.21
50.156,-33.89
50.171,-45.99
50.187,-58.61
50.203,-71.0
50.218,-82.35
50.234,-91.64
50.250,-97.59
50.265,-99.09
50.281,-95.5
50.296,-87.09
50.312,-74.95
50.328,-60.79
50.343,-46.45
50.359,-33.47
50.375,-22.86
50.390,-14.93
50.406,-9.52
50.421,-6.16
50.437,-4.3
50.453,-3.45
50.468,-3.22
50.484,-3.39
50.500,-3.85
50.515,-4.62
50.531,-5.67
50.546,-6.94
50.562,-8.24
50.578,-9.32
50.593,-9.98
50.609,-10.25
50.625,-10.42
50.640,-10.94
50.656,-12.22
50.671,-14.45
50.687,-17.57
50.703,-21.34
50.718,-25.57
50.734,-30.26
50.750,-35.59
50.765,-41.78
50.781,-48.94
50.796,-57.03
50.812,-65.88
50.828,-75.26
50.843,-84.83
50.859,-93.98
50.875,-101.87
50.890,-107.45
50.906,-109.72
50.921,-108.08
50.937,-102.52
50.953,-93.57
50.968,-82.14
50.984,-69.27
51.000,-55.84
51.015,-42.64
51.031,-30.22
51.046,-19.03
51.062,-9.32
51.078,-1.17
51.093,5.5
51.109,10.92
51.125,15.33
51.140,18.98
51.156,22.11
51.171,24.91
51.187,27.6
51.203,30.32
51.218,33.16
51.234,36.03
51.250,38.72
51.265,40.85
51.281,42.02
51.296,41.88
51.312,40.29
51.328,37.34
51.343,33.43
51.359,29.14
51.375,25.1
51.390,21.77
51.406,19.3
51.421,17.52
51.437,15.98
51.453,14.16
51.468,11.65
51.484,8.36
51.500,4.54
51.515,0.77
51.531,-2.15
51.546,-3.47
51.562,-2.67
51.578,0.36
51.593,5.22
51.609,11.16
51.625,17.25
51.640,22.74
51.656,27.26
51.671,30.9
51.687,34.06
51.703,37.13
51.718,40.26
51.734,43.27
51.750,45.75
51.765,47.37
51.781,48.11
51.796,48.27
51.812,48.32
51.828,48.59
51.843,49.13
51.859,49.79
51.875,50.38
51.890,50.86
51.906,51.36
51.921,52.02
51.937,52.81
51.953,53.52
51.968,53.84
51.984,53.67
52.000,53.25
52.015,53.09
52.031,53.7
52.046,55.24
52.062,57.38
52.078,59.31
52.093,60.17
52.109,59.37
52.125,56.95
52.140,53.69
52.156,50.9
52.171,50.06
52.187,52.4
52.203,58.39
52.218,67.49
52.234,78.08
52.250,87.79
52.265,94.02
52.281,94.84
52.296,89.62
52.312,79.39
52.328,66.62
52.343,54.33
52.359,45.08
52.375,40.02
52.390,38.56
52.406,38.85
52.421,38.8
52.437,37.15
52.453,33.9
52.468,30.08
52.484,26.85
52.500,24.8
52.515,23.86
52.531,23.74
52.546,24.4
52.562,26.12
52.578,28.92
52.593,31.88
52.609,32.99
52.625,29.93
52.640,21.37
52.656,7.94
52.671,-7.8
52.687,-22.52
52.703,-33.67
52.718,-40.61
52.734,-44.48
52.750,-47.17
52.765,-49.93
52.781,-52.55
52.796,-53.68
52.812,-51.84
52.828,-46.55
52.843,-38.75
52.859,-30.31
52.875,-22.91
52.890,-17.24
52.906,-12.78
52.921,-8.46
52.937,-3.58
52.953,1.52
52.968,5.6
52.984,7.21
53.000,5.77
53.015,2.15
53.031,-1.46
53.046,-2.45
53.062,0.93
53.078,8.63
53.093,18.57
53.109,27.33
53.125,31.56
53.140,29.41
53.156,21.44
53.171,10.4
53.187,-0.1
53.203,-7.28
53.218,-10.53
53.234,-11.55
53.250,-13.21
53.265,-17.8
53.281,-25.59
53.296,-34.7
53.312,-42.16
53.328,-45.71
53.343,-45.12
53.359,-42.4
53.375,-40.54
53.390,-41.81
53.406,-46.37
53.421,-52.29
53.437,-56.81
53.453,-58.2
53.468,-56.89
53.484,-55.19
53.500,-55.57
53.515,-58.68
53.531,-62.28
53.546,-62.09
53.562,-54.15
53.578,-37.1
53.593,-13.27
53.609,12.37
53.625,34.45
53.640,49.45
53.656,56.81
53.671,58.32
53.687,56.48
53.703,53.08
53.718,48.8
53.734,43.84
53.750,38.83
53.765,35.07
53.781,33.84
53.796,35.2
53.812,37.41
53.828,37.42
53.843,32.4
53.859,21.32
53.875,5.73
53.890,-10.99
53.906,-25.14
53.921,-34.35
53.937,-38.3
53.953,-38.39
53.968,-36.71
53.984,-35.09
54.000,-34.57
54.015,-35.5
54.031,-37.8
54.046,-41.05
54.062,-44.53
54.078,-47.36
54.093,-48.71
54.109,-48.27
54.125,-46.39
54.140,-44.03
54.156,-42.14
54.171,-41.16
54.187,-40.68
54.203,-39.63
54.218,-36.76
54.234,-31.34
54.250,-23.43
54.265,-13.88
54.281,-3.89
54.296,5.42
54.312,13.34
54.328,19.65
54.343,24.48
54.359,28.2
54.375,31.28
54.390,34.31
54.406,37.85
54.421,42.27
54.437,47.46
54.453,52.65
54.468,56.47
54.484,57.37
54.500,54.17
54.515,46.68
54.531,35.88
54.546,23.66
54.562,12.16
54.578,3.07
54.593,-2.88
54.609,-5.88
54.625,-6.75
54.640,-6.39
54.656,-5.48
54.671,-4.34
54.687,-3.11
54.703,-2.0
54.718,-1.36
54.734,-1.67
54.750,-3.22
54.765,-6.03
54.781,-9.78
54.796,-14.04
54.812,-18.47
54.828,-22.97
54.843,-27.53
54.859,-32.03
54.875,-36.0
54.890,-38.72
54.906,-39.5
54.921,-37.97
54.937,-34.37
54.953,-29.46
54.968,-24.19
54.984,-19.39
55.000,-15.54
55.015,-12.78
55.031,-11.04
55.046,-10.29
55.062,-10.47
55.078,-11.51
55.093,-13.09
55.109,-14.76
55.125,-15.93
55.140,-16.21
55.156,-15.48
55.171,-14.0
55.187,-12.18
55.203,-10.38
55.218,-8.67
55.234,-6.8
55.250,-4.4
55.265,-1.26
55.281,2.4
55.296,5.9
55.312,8.36
55.328,9.03
55.343,7.76
55.359,4.98
55.375,1.68
55.390,-1.16
55.406,-2.88
55.421,-3.46
55.437,-3.35
55.453,-3.31
55.468,-3.98
55.484,-5.77
55.500,-8.81
55.515,-13.03
55.531,-18.14
55.546,-23.6
55.562,-28.47
55.578,-31.61
55.593,-32.05
55.609,-29.59
55.625,-25.22
55.640,-20.91
55.656,-18.95
55.671,-20.91
55.687,-26.93
55.703,-35.63
55.718,-44.8
55.734,-52.34
55.750,-57.18
55.765,-59.43
55.781,-60.02
55.796,-60.0
55.812,-59.9
55.828,-59.64
55.843,-58.74
55.859,-56.8
55.875,-53.75
55.890,-49.92
55.906,-45.76
55.921,-41.57
55.937,-37.42
55.953,-33.09
55.968,-28.34
55.984,-23.12
56.000,-17.68
56.015,-12.53
56.031,-8.32
56.046,-5.54
56.062,-4.39
56.078,-4.7
56.093,-6.02
56.109,-7.81
56.125,-9.74
56.140,-11.75
56.156,-14.14
56.171,-17.3
56.187,-21.64
56.203,-27.26
56.218,-33.87
56.234,-40.76
56.250,-46.94
56.265,-51.35
56.281,-53.17
56.296,-51.95
56.312,-47.76
56.328,-41.07
56.343,-32.59
56.359,-23.18
56.375,-13.55
56.390,-4.3
56.406,4.2
56.421,11.77
56.437,18.35
56.453,24.0
56.468,28.84
56.484,32.96
56.500,36.42
56.515,39.16
56.531,41.14
56.546,42.3
56.562,42.63
56.578,42.19
56.593,41.14
56.609,39.7
56.625,38.18
56.640,36.92
56.656,36.22
56.671,36.29
56.687,37.1
56.703,38.42
56.718,39.79
56.734,40.6
56.750,40.22
56.765,38.09
56.781,33.95
56.796,27.9
56.812,20.45
56.828,12.39
56.843,4.53
56.859,-2.57
56.875,-8.78
56.890,-14.36
56.906,-19.8
56.921,-25.52
56.937,-31.73
56.953,-38.31
56.968,-44.78
56.984,-50.45
57.000,-54.5
57.015,-56.08
57.031,-54.46
57.046,-49.17
57.062,-40.18
57.078,-27.97
57.093,-13.54
57.109,1.82
57.125,16.76
57.140,30.22
57.156,41.53
57.171,50.47
57.187,57.11
57.203,61.73
57.218,64.59
57.234,65.99
57.250,66.26
57.265,65.72
57.281,64.8
57.296,63.81
57.312,62.91
57.328,62.12
57.343,61.34
57.359,60.47
57.375,59.48
57.390,58.39
57.406,57.16
57.421,55.7
57.437,53.82
57.453,51.33
57.468,48.19
57.484,44.43
57.500,40.16
57.515,35.42
57.531,30.2
57.546,24.51
57.562,18.41
57.578,12.12
57.593,5.96
57.609,0.16
57.625,-5.23
57.640,-10.49
57.656,-16.06
57.671,-22.4
57.687,-29.79
57.703,-38.06
57.718,-46.59
57.734,-54.33
57.750,-60.01
57.765,-62.46
57.781,-61.02
57.796,-55.66
57.812,-47.05
57.828,-36.25
57.843,-24.41
57.859,-12.45
57.875,-1.03
57.890,9.43
57.906,18.59
57.921,26.11
57.937,31.77
57.953,35.54
57.968,37.71
57.984,38.81
58.000,39.44
58.015,40.06
58.031,40.93
58.046,42.07
58.062,43.38
58.078,44.77
58.093,46.16
58.109,47.57
58.125,49.08
58.140,50.78
58.156,52.73
58.171,54.88
58.187,57.06
58.203,59.0
58.218,60.45
58.234,61.27
58.250,61.51
58.265,61.38
58.281,61.17
58.296,61.15
58.312,61.46
58.328,62.09
58.343,62.78
58.359,63.11
58.375,62.43
58.390,60.05
58.406,55.35
58.421,48.14
58.437,38.83
58.453,28.47
58.468,18.58
58.484,10.82
58.500,6.56
58.515,6.59
58.531,10.98
58.546,19.12
58.562,29.81
58.578,41.57
58.593,52.8
58.609,62.05
58.625,68.2
58.640,70.49
58.656,68.49
58.671,62.0
58.687,51.14
58.703,36.36
58.718,18.58
58.734,-0.93
58.750,-20.66
58.765,-39.29
58.781,-55.86
58.796,-69.92
58.812,-81.31
58.828,-89.93
58.843,-95.64
58.859,-98.31
58.875,-98.04
58.890,-95.36
58.906,-91.16
58.921,-86.48
58.937,-82.14
58.953,-78.56
58.968,-75.73
58.984,-73.41
59.000,-71.3
59.015,-69.21
59.031,-67.06
59.046,-64.79
59.062,-62.34
59.078,-59.68
59.093,-56.87
59.109,-54.16
59.125,-51.89
59.140,-50.5
59.156,-50.43
59.171,-52.0
59.187,-55.32
59.203,-60.16
59.218,-65.85
59.234,-71.25
59.250,-75.0
59.265,-75.8
59.281,-72.85
59.296,-66.06
59.312,-56.14
59.328,-44.22
59.343,-31.52
59.359,-18.97
59.375,-7.09
59.390,3.88
59.406,13.86
59.421,22.72
59.437,30.3
59.453,36.5
59.468,41.4
59.484,45.26
59.500,48.44
59.515,51.3
59.531,54.06
59.546,56.83
59.562,59.6
59.578,62.37
59.593,65.13
59.609,67.86
59.625,70.52
59.640,72.97
59.656,75.06
59.671,76.6
59.687,77.52
59.703,77.84
59.718,77.73
59.734,77.43
59.750,77.18
59.765,77.13
59.781,77.22
59.796,77.23
59.812,76.84
59.828,75.79
59.843,74.03
59.859,71.76
59.875,69.35
59.890,67.22
59.906,65.52
59.921,64.17
59.937,62.84
59.953,61.24
59.968,59.39
59.984,57.74
