timestamp,value
00.000,43.38
00.015,37.87
00.031,30.07
00.046,21.11
00.062,12.01
00.078,3.48
00.093,-4.01
00.109,-10.15
00.125,-14.62
00.140,-17.08
00.156,-17.29
00.171,-15.23
00.187,-11.14
00.203,-5.47
00.218,1.23
00.234,8.49
00.250,15.97
00.265,23.28
00.281,30.0
00.296,35.7
00.312,39.98
00.328,42.69
00.343,44.05
00.359,44.58
00.375,44.91
00.390,45.47
00.406,46.15
00.421,46.37
00.437,45.36
00.453,42.61
00.468,38.33
00.484,33.53
00.500,29.78
00.515,28.62
00.531,30.95
00.546,36.68
00.562,44.75
00.578,53.65
00.593,61.83
00.609,68.16
00.625,71.92
00.640,72.54
00.656,69.67
00.671,63.16
00.687,53.55
00.703,42.26
00.718,31.48
00.734,23.56
00.750,20.24
00.765,21.88
00.781,27.38
00.796,34.67
00.812,41.61
00.828,46.84
00.843,50.08
00.859,51.9
00.875,53.15
00.890,54.56
00.906,56.37
00.921,58.5
00.937,60.69
00.953,62.68
00.968,64.28
00.984,65.23
01.000,65.22
01.015,63.85
01.031,60.85
01.046,56.12
01.062,49.6
01.078,41.19
01.093,30.41
01.109,16.54
01.125,-1.02
01.140,-22.2
01.156,-45.95
01.171,-70.11
01.187,-92.06
01.203,-109.45
01.218,-120.88
01.234,-126.23
01.250,-126.38
01.265,-122.64
01.281,-116.14
01.296,-107.67
01.312,-97.7
01.328,-86.76
01.343,-75.72
01.359,-65.74
01.375,-58.01
01.390,-53.24
01.406,-51.27
01.421,-50.91
01.437,-50.19
01.453,-47.02
01.468,-39.84
01.484,-28.16
01.500,-12.33
01.515,6.71
01.531,28.01
01.546,50.76
01.562,74.08
01.578,96.67
01.593,116.82
01.609,132.98
01.625,144.49
01.640,151.98
01.656,156.73
01.671,159.43
01.687,158.96
01.703,152.48
01.718,136.86
01.734,110.75
01.750,76.06
01.765,37.81
01.781,2.23
01.796,-25.63
01.812,-43.43
01.828,-51.47
01.843,-51.33
01.859,-44.54
01.875,-32.52
01.890,-17.41
01.906,-3.24
01.921,4.14
01.937,-1.3
01.953,-23.07
01.968,-60.08
01.984,-106.46
02.000,-153.22
02.015,-191.4
02.031,-214.74
02.046,-221.02
02.062,-211.72
02.078,-190.52
02.093,-161.81
02.109,-129.72
02.125,-97.92
02.140,-69.6
02.156,-47.21
02.171,-32.08
02.187,-24.13
02.203,-21.97
02.218,-23.55
02.234,-26.94
02.250,-30.83
02.265,-34.46
02.281,-37.24
02.296,-38.32
02.312,-36.68
02.328,-31.5
02.343,-22.85
02.359,-11.82
02.375,-0.24
02.390,10.18
02.406,18.49
02.421,24.7
02.437,29.33
02.453,32.78
02.468,35.02
02.484,35.74
02.500,34.81
02.515,32.6
02.531,29.94
02.546,27.69
02.562,26.2
02.578,25.01
02.593,23.1
02.609,19.49
02.625,13.8
02.640,6.55
02.656,-0.99
02.671,-7.21
02.687,-10.61
02.703,-10.24
02.718,-5.74
02.734,2.55
02.750,13.83
02.765,26.89
02.781,40.26
02.796,52.35
02.812,61.67
02.828,67.11
02.843,68.36
02.859,66.13
02.875,62.12
02.890,58.51
02.906,57.26
02.921,59.44
02.937,64.88
02.953,72.38
02.968,80.25
02.984,86.91
03.000,91.24
03.015,92.47
03.031,89.94
03.046,82.86
03.062,70.41
03.078,52.16
03.093,28.61
03.109,1.52
03.125,-26.24
03.140,-51.32
03.156,-70.82
03.171,-82.96
03.187,-87.5
03.203,-85.46
03.218,-78.34
03.234,-67.65
03.250,-54.36
03.265,-39.09
03.281,-22.37
03.296,-5.14
03.312,11.11
03.328,24.53
03.343,33.33
03.359,36.47
03.375,33.97
03.390,27.04
03.406,17.79
03.421,8.67
03.437,1.7
03.453,-2.02
03.468,-2.57
03.484,-1.07
03.500,0.78
03.515,1.03
03.531,-2.12
03.546,-9.91
03.562,-22.79
03.578,-40.17
03.593,-60.48
03.609,-81.31
03.625,-99.98
03.640,-113.96
03.656,-121.52
03.671,-122.11
03.687,-116.49
03.703,-106.65
03.718,-95.19
03.734,-84.53
03.750,-76.11
03.765,-70.02
03.781,-65.21
03.796,-60.23
03.812,-54.3
03.828,-47.74
03.843,-42.07
03.859,-39.08
03.875,-39.76
03.890,-43.71
03.906,-49.36
03.921,-54.72
03.937,-58.38
03.953,-60.13
03.968,-60.78
03.984,-61.64
04.000,-63.72
04.015,-67.2
04.031,-71.46
04.046,-75.3
04.062,-77.51
04.078,-77.21
04.093,-73.99
04.109,-67.86
04.125,-59.03
04.140,-47.92
04.156,-34.97
04.171,-20.77
04.187,-6.01
04.203,8.51
04.218,21.96
04.234,33.54
04.250,42.59
04.265,48.75
04.281,51.96
04.296,52.58
04.312,51.13
04.328,48.33
04.343,44.82
04.359,41.13
04.375,37.55
04.390,34.24
04.406,31.18
04.421,28.33
04.437,25.67
04.453,23.22
04.468,21.04
04.484,19.24
04.500,17.99
04.515,17.41
04.531,17.48
04.546,17.96
04.562,18.42
04.578,18.39
04.593,17.46
04.609,15.46
04.625,12.42
04.640,8.45
04.656,3.59
04.671,-2.21
04.687,-8.94
04.703,-16.42
04.718,-24.2
04.734,-31.72
04.750,-38.47
04.765,-44.05
04.781,-47.98
04.796,-49.48
04.812,-47.49
04.828,-41.0
04.843,-29.71
04.859,-14.5
04.875,2.69
04.890,19.49
04.906,34.01
04.921,45.49
04.937,54.34
04.953,61.57
04.968,67.98
04.984,73.7
05.000,78.24
05.015,80.96
05.031,81.5
05.046,79.99
05.062,76.91
05.078,72.72
05.093,67.7
05.109,61.85
05.125,55.09
05.140,47.36
05.156,38.87
05.171,30.04
05.187,21.36
05.203,13.28
05.218,5.99
05.234,-0.5
05.250,-6.27
05.265,-11.39
05.281,-15.84
05.296,-19.57
05.312,-22.54
05.328,-24.86
05.343,-26.77
05.359,-28.55
05.375,-30.3
05.390,-31.79
05.406,-32.42
05.421,-31.36
05.437,-27.89
05.453,-21.58
05.468,-12.51
05.484,-1.24
05.500,11.28
05.515,24.03
05.531,36.04
05.546,46.67
05.562,55.66
05.578,63.05
05.593,69.02
05.609,73.72
05.625,77.14
05.640,79.24
05.656,80.05
05.671,79.74
05.687,78.76
05.703,77.61
05.718,76.54
05.734,75.42
05.750,73.75
05.765,70.85
05.781,66.32
05.796,60.13
05.812,52.66
05.828,44.48
05.843,36.07
05.859,27.48
05.875,18.57
05.890,9.07
05.906,-0.99
05.921,-11.14
05.937,-20.6
05.953,-28.46
05.968,-33.86
05.984,-36.3
06.000,-35.67
06.015,-32.09
06.031,-25.94
06.046,-17.68
06.062,-7.73
06.078,3.45
06.093,15.47
06.109,27.9
06.125,40.19
06.140,51.6
06.156,61.28
06.171,68.23
06.187,71.74
06.203,71.67
06.218,68.72
06.234,64.41
06.250,60.82
06.265,60.03
06.281,63.67
06.296,72.44
06.312,85.83
06.328,102.17
06.343,118.93
06.359,133.33
06.375,143.01
06.390,146.74
06.406,144.8
06.421,138.78
06.437,130.99
06.453,123.51
06.468,117.49
06.484,112.89
06.500,108.73
06.515,103.81
06.531,97.29
06.546,88.93
06.562,79.06
06.578,68.22
06.593,56.91
06.609,45.6
06.625,34.8
06.640,24.98
06.656,16.35
06.671,8.43
06.687,0.23
06.703,-9.34
06.718,-20.75
06.734,-33.35
06.750,-45.69
06.765,-56.24
06.781,-64.27
06.796,-69.73
06.812,-72.66
06.828,-72.68
06.843,-69.26
06.859,-62.64
06.875,-54.56
06.890,-48.01
06.906,-45.77
06.921,-48.73
06.937,-55.03
06.953,-61.1
06.968,-63.88
06.984,-62.88
07.000,-60.74
07.015,-61.65
07.031,-68.79
07.046,-82.38
07.062,-99.55
07.078,-115.92
07.093,-127.86
07.109,-133.95
07.125,-134.95
07.140,-132.88
07.156,-129.57
07.171,-126.15
07.187,-122.83
07.203,-119.45
07.218,-116.04
07.234,-113.08
07.250,-111.15
07.265,-110.45
07.281,-110.38
07.296,-109.56
07.312,-106.38
07.328,-99.65
07.343,-89.2
07.359,-75.93
07.375,-61.51
07.390,-47.64
07.406,-35.49
07.421,-25.41
07.437,-17.11
07.453,-9.99
07.468,-3.65
07.484,1.95
07.500,6.56
07.515,9.76
07.531,11.33
07.546,11.28
07.562,9.98
07.578,7.95
07.593,5.76
07.609,3.87
07.625,2.55
07.640,1.85
07.656,1.58
07.671,1.45
07.687,1.07
07.703,0.14
07.718,-1.53
07.734,-3.98
07.750,-7.13
07.765,-10.79
07.781,-14.63
07.796,-18.32
07.812,-21.61
07.828,-24.5
07.843,-27.24
07.859,-30.27
07.875,-33.98
07.890,-38.41
07.906,-43.06
07.921,-46.98
07.937,-49.04
07.953,-48.34
07.968,-44.54
07.984,-37.96
08.000,-29.44
08.015,-20.03
08.031,-10.7
08.046,-2.11
08.062,5.49
08.078,12.05
08.093,17.7
08.109,22.51
08.125,26.52
08.140,29.72
08.156,32.13
08.171,33.84
08.187,34.98
08.203,35.75
08.218,36.27
08.234,36.59
08.250,36.64
08.265,36.29
08.281,35.45
08.296,34.07
08.312,32.11
08.328,29.52
08.343,26.17
08.359,21.93
08.375,16.77
08.390,10.83
08.406,4.45
08.421,-1.98
08.437,-8.26
08.453,-14.41
08.468,-20.74
08.484,-27.66
08.500,-35.49
08.515,-44.31
08.531,-53.9
08.546,-63.77
08.562,-73.18
08.578,-81.26
08.593,-87.02
08.609,-89.6
08.625,-88.42
08.640,-83.4
08.656,-74.99
08.671,-63.99
08.687,-51.34
08.703,-37.85
08.718,-24.13
08.734,-10.63
08.750,2.21
08.765,13.86
08.781,23.8
08.796,31.69
08.812,37.44
08.828,41.28
08.843,43.65
08.859,45.0
08.875,45.73
08.890,46.1
08.906,46.18
08.921,46.03
08.937,45.59
08.953,44.75
08.968,43.34
08.984,41.2
09.000,38.28
09.015,34.65
09.031,30.51
09.046,26.14
09.062,21.77
09.078,17.5
09.093,13.25
09.109,8.79
09.125,3.85
09.140,-1.81
09.156,-8.21
09.171,-15.08
09.187,-21.72
09.203,-27.17
09.218,-30.44
09.234,-30.77
09.250,-27.83
09.265,-21.82
09.281,-13.38
09.296,-3.42
09.312,7.09
09.328,17.3
09.343,26.52
09.359,34.33
09.375,40.54
09.390,45.14
09.406,48.33
09.421,50.21
09.437,50.87
09.453,50.42
09.468,49.04
09.484,47.04
09.500,44.87
09.515,42.88
09.531,41.15
09.546,39.48
09.562,37.48
09.578,34.9
09.593,31.77
09.609,28.44
09.625,25.42
09.640,23.03
09.656,21.23
09.671,19.63
09.687,17.76
09.703,15.26
09.718,12.08
09.734,8.43
09.750,4.56
09.765,0.62
09.781,-3.33
09.796,-7.17
09.812,-10.5
09.828,-12.52
09.843,-12.23
09.859,-8.76
09.875,-1.79
09.890,8.19
09.906,19.92
09.921,31.8
09.937,42.42
09.953,50.93
09.968,57.33
09.984,62.04
10.000,65.54
10.015,68.11
10.031,69.66
10.046,69.97
10.062,69.08
10.078,67.3
10.093,65.18
10.109,63.22
10.125,61.5
10.140,59.63
10.156,56.94
10.171,52.78
10.187,46.76
10.203,38.88
10.218,29.29
10.234,18.13
10.250,5.56
10.265,-8.27
10.281,-22.91
10.296,-37.64
10.312,-51.49
10.328,-63.57
10.343,-73.25
10.359,-80.49
10.375,-85.83
10.390,-90.16
10.406,-94.39
10.421,-99.02
10.437,-103.71
10.453,-107.41
10.468,-108.55
10.484,-105.81
10.500,-98.73
10.515,-88.21
10.531,-76.25
10.546,-65.43
10.562,-57.9
10.578,-54.64
10.593,-55.13
10.609,-57.84
10.625,-61.01
10.640,-63.54
10.656,-65.39
10.671,-67.27
10.687,-70.12
10.703,-74.4
10.718,-80.02
10.734,-86.52
10.750,-93.38
10.765,-99.74
10.781,-103.96
10.796,-103.3
10.812,-94.55
10.828,-75.65
10.843,-47.3
10.859,-13.67
10.875,18.79
10.890,43.8
10.906,57.87
10.921,61.36
10.937,57.63
10.953,50.69
10.968,43.13
10.984,35.33
11.000,26.33
11.015,15.4
11.031,3.1
11.046,-8.74
11.062,-18.15
11.078,-24.05
11.093,-26.55
11.109,-26.5
11.125,-24.69
11.140,-21.3
11.156,-15.88
11.171,-7.92
11.187,2.69
11.203,15.23
11.218,28.31
11.234,40.25
11.250,49.65
11.265,55.82
11.281,58.93
11.296,59.91
11.312,59.98
11.328,60.2
11.343,61.08
11.359,62.5
11.375,63.81
11.390,64.27
11.406,63.38
11.421,61.08
11.437,57.77
11.453,54.06
11.468,50.56
11.484,47.69
11.500,45.53
11.515,43.9
11.531,42.36
11.546,40.34
11.562,37.25
11.578,32.73
11.593,26.67
11.609,19.31
11.625,11.22
11.640,3.04
11.656,-4.68
11.671,-11.68
11.687,-18.03
11.703,-24.0
11.718,-29.8
11.734,-35.28
11.750,-39.93
11.765,-42.82
11.781,-42.98
11.796,-39.61
11.812,-32.49
11.828,-21.99
11.843,-9.1
11.859,4.99
11.875,19.13
11.890,32.43
11.906,44.37
11.921,54.48
11.937,62.34
11.953,67.28
11.968,68.64
11.984,66.0
12.000,59.54
12.015,50.02
12.031,38.72
12.046,27.11
12.062,16.49
12.078,7.89
12.093,1.94
12.109,-1.22
12.125,-2.01
12.140,-1.42
12.156,-0.82
12.171,-1.58
12.187,-4.44
12.203,-9.23
12.218,-14.78
12.234,-19.38
12.250,-21.52
12.265,-20.47
12.281,-16.53
12.296,-10.99
12.312,-5.65
12.328,-2.17
12.343,-1.56
12.359,-3.91
12.375,-8.3
12.390,-13.36
12.406,-17.53
12.421,-19.59
12.437,-18.84
12.453,-14.98
12.468,-8.1
12.484,1.41
12.500,12.92
12.515,25.45
12.531,37.78
12.546,48.65
12.562,57.12
12.578,62.73
12.593,65.58
12.609,66.12
12.625,64.86
12.640,62.36
12.656,59.25
12.671,56.27
12.687,54.24
12.703,53.76
12.718,54.78
12.734,56.42
12.750,57.11
12.765,55.06
12.781,48.98
12.796,38.61
12.812,24.76
12.828,8.9
12.843,-7.32
12.859,-22.56
12.875,-35.84
12.890,-46.46
12.906,-53.92
12.921,-57.86
12.937,-58.27
12.953,-55.63
12.968,-50.82
12.984,-45.05
13.000,-39.51
13.015,-35.23
13.031,-32.97
13.046,-33.23
13.062,-36.12
13.078,-41.29
13.093,-47.82
13.109,-54.32
13.125,-59.4
13.140,-62.0
13.156,-61.8
13.171,-59.01
13.187,-54.14
13.203,-47.61
13.218,-39.61
13.234,-30.27
13.250,-19.92
13.265,-9.33
13.281,0.43
13.296,8.29
13.312,13.66
13.328,16.56
13.343,17.54
13.359,17.34
13.375,16.47
13.390,15.21
13.406,13.58
13.421,11.67
13.437,9.82
13.453,8.56
13.468,8.38
13.484,9.43
13.500,11.41
13.515,13.7
13.531,15.69
13.546,16.98
13.562,17.54
13.578,17.51
13.593,16.99
13.609,15.98
13.625,14.4
13.640,12.37
13.656,10.36
13.671,9.22
13.687,9.86
13.703,12.96
13.718,18.61
13.734,26.18
13.750,34.56
13.765,42.49
13.781,49.0
13.796,53.8
13.812,57.44
13.828,61.18
13.843,66.77
13.859,75.74
13.875,88.82
13.890,105.65
13.906,124.67
13.921,143.37
13.937,158.92
13.953,168.94
13.968,172.34
13.984,169.91
14.000,164.16
14.015,158.46
14.031,155.65
14.046,156.45
14.062,159.09
14.078,159.97
14.093,155.29
14.109,142.69
14.125,122.25
14.140,96.08
14.156,67.4
14.171,39.64
14.187,15.92
14.203,-0.91
14.218,-8.46
14.234,-5.26
14.250,8.45
14.265,30.46
14.281,56.9
14.296,83.42
14.312,106.17
14.328,122.38
14.343,130.18
14.359,127.94
14.375,113.88
14.390,86.26
14.406,44.24
14.421,-11.2
14.437,-76.51
14.453,-145.73
14.468,-211.54
14.484,-266.9
14.500,-306.9
14.515,-329.96
14.531,-337.69
14.546,-333.86
14.562,-322.72
14.578,-307.72
14.593,-291.08
14.609,-274.44
14.625,-259.51
14.640,-248.3
14.656,-242.57
14.671,-242.53
14.687,-246.19
14.703,-249.53
14.718,-247.83
14.734,-237.46
14.750,-217.16
14.765,-188.22
14.781,-153.74
14.796,-117.32
14.812,-81.86
14.828,-49.04
14.843,-19.45
14.859,7.01
14.875,30.49
14.890,50.91
14.906,68.03
14.921,81.66
14.937,91.81
14.953,98.8
14.968,103.1
14.984,105.19
15.000,105.39
15.015,103.84
15.031,100.57
15.046,95.59
15.062,89.08
15.078,81.35
15.093,72.98
15.109,64.65
15.125,57.02
15.140,50.6
15.156,45.52
15.171,41.58
15.187,38.28
15.203,35.14
15.218,31.76
15.234,28.01
15.250,23.93
15.265,19.64
15.281,15.27
15.296,10.9
15.312,6.52
15.328,2.05
15.343,-2.64
15.359,-7.76
15.375,-13.56
15.390,-20.29
15.406,-28.25
15.421,-37.64
15.437,-48.59
15.453,-61.14
15.468,-74.98
15.484,-89.37
15.500,-103.04
15.515,-114.26
15.531,-121.29
15.546,-122.97
15.562,-119.02
15.578,-110.21
15.593,-98.05
15.609,-84.28
15.625,-70.52
15.640,-58.01
15.656,-47.67
15.671,-40.22
15.687,-36.28
15.703,-36.28
15.718,-40.25
15.734,-47.55
15.750,-56.75
15.765,-65.86
15.781,-72.68
15.796,-75.35
15.812,-72.87
15.828,-65.35
15.843,-53.87
15.859,-40.09
15.875,-25.78
15.890,-12.29
15.906,-0.39
15.921,9.74
15.937,18.25
15.953,25.35
15.968,31.13
15.984,35.47
16.000,38.19
16.015,39.21
16.031,38.62
16.046,36.89
16.062,34.71
16.078,32.94
16.093,32.27
16.109,33.05
16.125,35.14
16.140,38.02
16.156,40.93
16.171,43.2
16.187,44.46
16.203,44.71
16.218,44.16
16.234,43.12
16.250,41.74
16.265,39.93
16.281,37.48
16.296,34.2
16.312,30.09
16.328,25.29
16.343,20.14
16.359,14.92
16.375,9.84
16.390,5.02
16.406,0.6
16.421,-3.2
16.437,-6.05
16.453,-7.54
16.468,-7.31
16.484,-5.19
16.500,-1.27
16.515,4.12
16.531,10.34
16.546,16.65
16.562,22.23
16.578,26.37
16.593,28.55
16.609,28.5
16.625,26.2
16.640,21.81
16.656,15.71
16.671,8.35
16.687,0.29
16.703,-7.9
16.718,-15.71
16.734,-22.74
16.750,-28.7
16.765,-33.53
16.781,-37.18
16.796,-39.66
16.812,-40.9
16.828,-40.8
16.843,-39.32
16.859,-36.59
16.875,-32.86
16.890,-28.6
16.906,-24.34
16.921,-20.64
16.937,-17.9
16.953,-16.43
16.968,-16.38
16.984,-17.76
17.000,-20.43
17.015,-24.02
17.031,-27.89
17.046,-31.13
17.062,-32.74
17.078,-31.8
17.093,-27.8
17.109,-20.85
17.125,-11.63
17.140,-1.22
17.156,9.23
17.171,18.78
17.187,26.92
17.203,33.39
17.218,38.17
17.234,41.25
17.250,42.73
17.265,42.77
17.281,41.61
17.296,39.55
17.312,36.83
17.328,33.67
17.343,30.22
17.359,26.68
17.375,23.25
17.390,20.11
17.406,17.36
17.421,14.85
17.437,12.35
17.453,9.63
17.468,6.54
17.484,3.04
17.500,-0.78
17.515,-4.86
17.531,-9.1
17.546,-13.37
17.562,-17.65
17.578,-21.96
17.593,-26.39
17.609,-31.07
17.625,-36.01
17.640,-40.88
17.656,-44.99
17.671,-47.41
17.687,-47.21
17.703,-43.83
17.718,-37.23
17.734,-28.0
17.750,-17.11
17.765,-5.61
17.781,5.55
17.796,15.7
17.812,24.54
17.828,31.91
17.843,37.77
17.859,42.13
17.875,45.03
17.890,46.56
17.906,46.98
17.921,46.62
17.937,45.81
17.953,44.81
17.968,43.74
17.984,42.57
18.000,41.23
18.015,39.65
18.031,37.79
18.046,35.63
18.062,33.19
18.078,30.41
18.093,27.29
18.109,23.75
18.125,19.71
18.140,15.09
18.156,9.83
18.171,3.97
18.187,-2.32
18.203,-8.76
18.218,-15.07
18.234,-20.92
18.250,-26.07
18.265,-30.14
18.281,-32.66
18.296,-33.08
18.312,-30.86
18.328,-25.71
18.343,-17.81
18.359,-7.78
18.375,3.42
18.390,14.79
18.406,25.47
18.421,34.9
18.437,42.79
18.453,49.02
18.468,53.53
18.484,56.38
18.500,57.7
18.515,57.72
18.531,56.8
18.546,55.3
18.562,53.53
18.578,51.7
18.593,49.88
18.609,48.04
18.625,46.16
18.640,44.16
18.656,42.01
18.671,39.68
18.687,37.14
18.703,34.37
18.718,31.37
18.734,28.16
18.750,24.8
18.765,21.35
18.781,17.77
18.796,14.01
18.812,9.94
18.828,5.43
18.843,0.42
18.859,-5.06
18.875,-10.81
18.890,-16.48
18.906,-21.52
18.921,-25.24
18.937,-26.9
18.953,-25.96
18.968,-22.28
18.984,-16.09
19.000,-8.05
19.015,0.98
19.031,10.18
19.046,18.94
19.062,26.92
19.078,33.92
19.093,39.87
19.109,44.68
19.125,48.41
19.140,51.16
19.156,53.09
19.171,54.4
19.187,55.2
19.203,55.58
19.218,55.58
19.234,55.24
19.250,54.63
19.265,53.83
19.281,52.86
19.296,51.68
19.312,50.19
19.328,48.38
19.343,46.32
19.359,44.19
19.375,42.17
19.390,40.35
19.406,38.7
19.421,37.01
19.437,35.07
19.453,32.77
19.468,30.19
19.484,27.58
19.500,25.29
19.515,23.57
19.531,22.47
19.546,21.72
19.562,20.97
19.578,19.88
19.593,18.31
19.609,16.44
19.625,14.57
19.640,12.94
19.656,11.63
19.671,10.48
19.687,9.2
19.703,7.6
19.718,5.69
19.734,3.66
19.750,1.78
19.765,0.21
19.781,-1.01
19.796,-1.98
19.812,-2.8
19.828,-3.62
19.843,-4.57
19.859,-5.78
19.875,-7.36
19.890,-9.31
19.906,-11.56
19.921,-13.89
19.937,-16.05
19.953,-17.87
19.968,-19.37
19.984,-20.76
20.000,-22.24
20.015,-24.0
20.031,-26.03
20.046,-28.32
20.062,-30.76
20.078,-33.3
20.093,-35.95
20.109,-38.72
20.125,-41.53
20.140,-44.25
20.156,-46.8
20.171,-49.13
20.187,-51.41
20.203,-53.82
20.218,-56.39
20.234,-58.92
20.250,-60.84
20.265,-61.33
20.281,-59.54
20.296,-55.0
20.312,-47.74
20.328,-38.36
20.343,-27.92
20.359,-17.54
20.375,-8.23
20.390,-0.54
20.406,5.32
20.421,9.46
20.437,12.13
20.453,13.66
20.468,14.41
20.484,14.69
20.500,14.82
20.515,15.04
20.531,15.59
20.546,16.52
20.562,17.79
20.578,19.19
20.593,20.53
20.609,21.6
20.625,22.3
20.640,22.71
20.656,22.94
20.671,23.19
20.687,23.51
20.703,23.86
20.718,24.16
20.734,24.41
20.750,24.67
20.765,25.03
20.781,25.57
20.796,26.14
20.812,26.43
20.828,26.03
20.843,24.6
20.859,22.2
20.875,19.44
20.890,17.48
20.906,17.75
20.921,21.49
20.937,29.28
20.953,40.77
20.968,54.67
20.984,69.16
21.000,82.51
21.015,93.6
21.031,102.19
21.046,108.78
21.062,114.18
21.078,118.99
21.093,123.28
21.109,126.55
21.125,127.89
21.140,126.14
21.156,120.13
21.171,108.97
21.187,92.23
21.203,70.48
21.218,45.67
21.234,21.06
21.250,0.73
21.265,-11.76
21.281,-14.65
21.296,-9.0
21.312,1.52
21.328,11.74
21.343,16.73
21.359,13.49
21.375,1.75
21.390,-16.11
21.406,-36.15
21.421,-54.29
21.437,-67.57
21.453,-74.96
21.468,-77.4
21.484,-77.28
21.500,-77.54
21.515,-80.7
21.531,-88.06
21.546,-99.21
21.562,-111.97
21.578,-123.05
21.593,-129.05
21.609,-127.9
21.625,-119.95
21.640,-108.02
21.656,-96.52
21.671,-89.52
21.687,-88.94
21.703,-93.67
21.718,-100.1
21.734,-103.86
21.750,-101.88
21.765,-93.58
21.781,-80.69
21.796,-66.16
21.812,-52.68
21.828,-41.88
21.843,-34.31
21.859,-30.02
21.875,-29.13
21.890,-31.85
21.906,-38.16
21.921,-47.19
21.937,-57.21
21.953,-65.98
21.968,-71.44
21.984,-72.61
22.000,-69.94
22.015,-65.09
22.031,-60.18
22.046,-56.96
22.062,-56.19
22.078,-57.58
22.093,-60.13
22.109,-62.76
22.125,-64.83
22.140,-66.22
22.156,-67.13
22.171,-67.72
22.187,-67.72
22.203,-66.48
22.218,-63.22
22.234,-57.38
22.250,-48.91
22.265,-38.35
22.281,-26.64
22.296,-14.82
22.312,-3.82
22.328,5.79
22.343,13.93
22.359,20.97
22.375,27.61
22.390,34.59
22.406,42.5
22.421,51.55
22.437,61.62
22.453,72.25
22.468,82.89
22.484,92.92
22.500,101.75
22.515,108.79
22.531,113.57
22.546,115.77
22.562,115.39
22.578,112.94
22.593,109.25
22.609,105.28
22.625,101.76
22.640,98.93
22.656,96.54
22.671,93.98
22.687,90.44
22.703,85.3
22.718,78.24
22.734,69.51
22.750,59.72
22.765,49.85
22.781,40.94
22.796,33.75
22.812,28.65
22.828,25.43
22.843,23.54
22.859,22.36
22.875,21.62
22.890,21.42
22.906,22.13
22.921,24.06
22.937,27.02
22.953,30.36
22.968,33.12
22.984,34.46
23.000,34.04
23.015,32.05
23.031,29.04
23.046,25.59
23.062,21.99
23.078,18.37
23.093,14.77
23.109,11.29
23.125,8.2
23.140,5.81
23.156,4.31
23.171,3.78
23.187,4.1
23.203,5.12
23.218,6.65
23.234,8.61
23.250,10.98
23.265,13.83
23.281,17.28
23.296,21.35
23.312,25.86
23.328,30.31
23.343,34.01
23.359,36.26
23.375,36.61
23.390,34.83
23.406,30.87
23.421,24.61
23.437,15.89
23.453,4.77
23.468,-8.25
23.484,-22.02
23.500,-35.02
23.515,-45.6
23.531,-52.55
23.546,-55.09
23.562,-53.19
23.578,-47.4
23.593,-38.92
23.609,-29.47
23.625,-20.91
23.640,-14.74
23.656,-11.49
23.671,-10.65
23.687,-10.9
23.703,-10.95
23.718,-10.2
23.734,-8.97
23.750,-8.09
23.765,-8.29
23.781,-9.83
23.796,-12.41
23.812,-15.65
23.828,-19.37
23.843,-23.59
23.859,-28.4
23.875,-33.42
23.890,-37.92
23.906,-40.97
23.921,-41.99
23.937,-40.98
23.953,-38.64
23.968,-36.11
23.984,-34.5
24.000,-34.59
24.015,-36.4
24.031,-39.39
24.046,-42.4
24.062,-44.17
24.078,-43.66
24.093,-40.61
24.109,-35.7
24.125,-30.66
24.140,-27.82
24.156,-29.28
24.171,-36.32
24.187,-48.64
24.203,-64.46
24.218,-80.91
24.234,-94.95
24.250,-104.28
24.265,-107.78
24.281,-105.64
24.296,-98.75
24.312,-88.23
24.328,-75.01
24.343,-59.76
24.359,-43.34
24.375,-26.84
24.390,-11.67
24.406,1.0
24.421,10.64
24.437,17.61
24.453,22.84
24.468,27.29
24.484,31.46
24.500,35.03
24.515,37.32
24.531,37.63
24.546,35.75
24.562,31.96
24.578,26.86
24.593,21.04
24.609,15.06
24.625,9.49
24.640,5.03
24.656,2.69
24.671,3.26
24.687,7.13
24.703,13.84
24.718,22.22
24.734,30.72
24.750,38.09
24.765,43.68
24.781,47.38
24.796,49.39
24.812,49.68
24.828,47.89
24.843,43.58
24.859,36.56
24.875,27.31
24.890,17.01
24.906,7.09
24.921,-1.34
24.937,-7.89
24.953,-13.01
24.968,-17.59
24.984,-22.37
25.000,-27.6
25.015,-32.81
25.031,-37.18
25.046,-39.89
25.062,-40.6
25.078,-39.51
25.093,-37.24
25.109,-34.53
25.125,-31.94
25.140,-29.82
25.156,-28.23
25.171,-27.24
25.187,-27.0
25.203,-27.71
25.218,-29.44
25.234,-32.04
25.250,-35.06
25.265,-37.9
25.281,-40.15
25.296,-41.59
25.312,-42.39
25.328,-42.92
25.343,-43.55
25.359,-44.56
25.375,-46.05
25.390,-48.0
25.406,-50.33
25.421,-52.98
25.437,-55.91
25.453,-59.12
25.468,-62.64
25.484,-66.44
25.500,-70.38
25.515,-74.0
25.531,-76.53
25.546,-76.9
25.562,-74.17
25.578,-67.78
25.593,-57.97
25.609,-45.74
25.625,-32.41
25.640,-19.24
25.656,-6.94
25.671,4.39
25.687,15.04
25.703,25.2
25.718,34.75
25.734,43.15
25.750,49.82
25.765,54.39
25.781,56.98
25.796,58.06
25.812,58.24
25.828,57.9
25.843,57.17
25.859,55.94
25.875,54.02
25.890,51.28
25.906,47.79
25.921,43.73
25.937,39.29
25.953,34.53
25.968,29.33
25.984,23.51
26.000,16.88
26.015,9.47
26.031,1.54
26.046,-6.35
26.062,-13.62
26.078,-19.82
26.093,-24.84
26.109,-29.03
26.125,-32.99
26.140,-37.38
26.156,-42.45
26.171,-47.96
26.187,-53.08
26.203,-56.73
26.218,-57.84
26.234,-55.77
26.250,-50.43
26.265,-42.39
26.281,-32.51
26.296,-21.75
26.312,-10.89
26.328,-0.45
26.343,9.22
26.359,17.84
26.375,25.25
26.390,31.23
26.406,35.58
26.421,38.28
26.437,39.35
26.453,38.98
26.468,37.49
26.484,35.28
26.500,32.73
26.515,30.27
26.531,28.17
26.546,26.53
26.562,25.23
26.578,23.98
26.593,22.39
26.609,20.11
26.625,16.9
26.640,12.69
26.656,7.61
26.671,1.91
26.687,-4.15
26.703,-10.29
26.718,-16.33
26.734,-22.12
26.750,-27.51
26.765,-32.5
26.781,-37.2
26.796,-41.85
26.812,-46.81
26.828,-52.37
26.843,-58.48
26.859,-64.74
26.875,-70.23
26.890,-73.77
26.906,-74.26
26.921,-71.01
26.937,-63.98
26.953,-53.83
26.968,-41.75
26.984,-29.02
27.000,-16.71
27.015,-5.37
27.031,4.86
27.046,14.08
27.062,22.3
27.078,29.38
27.093,35.0
27.109,38.95
27.125,41.3
27.140,42.42
27.156,42.87
27.171,43.14
27.187,43.47
27.203,43.83
27.218,44.05
27.234,43.98
27.250,43.61
27.265,43.01
27.281,42.24
27.296,41.21
27.312,39.71
27.328,37.41
27.343,34.12
27.359,29.86
27.375,24.93
27.390,19.76
27.406,14.79
27.421,10.27
27.437,6.25
27.453,2.54
27.468,-1.19
27.484,-5.35
27.500,-10.31
27.515,-16.21
27.531,-22.93
27.546,-29.88
27.562,-36.11
27.578,-40.44
27.593,-41.74
27.609,-39.37
27.625,-33.36
27.640,-24.41
27.656,-13.64
27.671,-2.17
27.687,9.1
27.703,19.57
27.718,28.88
27.734,36.78
27.750,43.03
27.765,47.45
27.781,50.02
27.796,50.93
27.812,50.64
27.828,49.73
27.843,48.68
27.859,47.84
27.875,47.33
27.890,47.02
27.906,46.68
27.921,46.02
27.937,44.85
27.953,43.13
27.968,40.95
27.984,38.48
28.000,35.75
28.015,32.76
28.031,29.38
28.046,25.53
28.062,21.25
28.078,16.71
28.093,12.12
28.109,7.63
28.125,3.27
28.140,-1.07
28.156,-5.6
28.171,-10.45
28.187,-15.74
28.203,-21.47
28.218,-27.54
28.234,-33.64
28.250,-39.15
28.265,-43.19
28.281,-44.76
28.296,-43.12
28.312,-38.11
28.328,-30.22
28.343,-20.46
28.359,-10.02
28.375,0.16
28.390,9.58
28.406,18.14
28.421,25.97
28.437,33.03
28.453,39.08
28.468,43.74
28.484,46.73
28.500,48.07
28.515,48.11
28.531,47.44
28.546,46.6
28.562,45.99
28.578,45.68
28.593,45.56
28.609,45.42
28.625,45.17
28.640,44.8
28.656,44.33
28.671,43.79
28.687,43.04
28.703,41.89
28.718,40.24
28.734,38.08
28.750,35.55
28.765,32.87
28.781,30.22
28.796,27.63
28.812,25.13
28.828,22.72
28.843,20.46
28.859,18.55
28.875,17.08
28.890,15.92
28.906,14.68
28.921,12.85
28.937,10.09
28.953,6.51
28.968,2.82
28.984,0.1
29.000,-0.37
29.015,2.36
29.031,8.66
29.046,18.34
29.062,30.6
29.078,44.37
29.093,58.38
29.109,71.27
29.125,81.61
29.140,88.14
29.156,89.88
29.171,86.46
29.187,78.3
29.203,66.46
29.218,52.45
29.234,37.89
29.250,24.2
29.265,12.39
29.281,3.09
29.296,-3.44
29.312,-7.27
29.328,-8.65
29.343,-8.18
29.359,-6.63
29.375,-4.8
29.390,-3.39
29.406,-2.92
29.421,-3.49
29.437,-4.94
29.453,-6.9
29.468,-8.97
29.484,-10.96
29.500,-12.93
29.515,-15.1
29.531,-17.67
29.546,-20.77
29.562,-24.22
29.578,-27.85
29.593,-31.5
29.609,-35.13
29.625,-38.88
29.640,-42.89
29.656,-47.21
29.671,-51.74
29.687,-56.31
29.703,-60.66
29.718,-64.62
29.734,-67.95
29.750,-70.24
29.765,-70.98
29.781,-69.58
29.796,-65.63
29.812,-59.14
29.828,-50.52
29.843,-40.49
29.859,-29.96
29.875,-19.71
29.890,-10.26
29.906,-1.93
29.921,5.23
29.937,11.23
29.953,16.03
29.968,19.57
29.984,21.77
30.000,22.59
30.015,22.13
30.031,20.76
30.046,18.95
30.062,17.22
30.078,15.9
30.093,15.06
30.109,14.54
30.125,14.1
30.140,13.44
30.156,12.45
30.171,11.14
30.187,9.49
30.203,7.61
30.218,5.58
30.234,3.43
30.250,1.23
30.265,-1.03
30.281,-3.41
30.296,-6.04
30.312,-9.04
30.328,-12.56
30.343,-16.6
30.359,-21.1
30.375,-25.89
30.390,-30.72
30.406,-35.38
30.421,-39.76
30.437,-43.87
30.453,-47.9
30.468,-51.97
30.484,-56.07
30.500,-59.9
30.515,-62.93
30.531,-64.42
30.546,-63.77
30.562,-60.62
30.578,-55.0
30.593,-47.32
30.609,-38.23
30.625,-28.44
30.640,-18.67
30.656,-9.53
30.671,-1.43
30.687,5.33
30.703,10.67
30.718,14.62
30.734,17.28
30.750,18.81
30.765,19.45
30.781,19.5
30.796,19.39
30.812,19.59
30.828,20.35
30.843,21.65
30.859,23.17
30.875,24.39
30.890,24.91
30.906,24.51
30.921,23.35
30.937,21.71
30.953,19.89
30.968,18.05
30.984,16.12
31.000,14.0
31.015,11.58
31.031,8.86
31.046,5.87
31.062,2.66
31.078,-0.71
31.093,-4.17
31.109,-7.68
31.125,-11.2
31.140,-14.72
31.156,-18.28
31.171,-21.88
31.187,-25.52
31.203,-29.15
31.218,-32.81
31.234,-36.62
31.250,-40.76
31.265,-45.24
31.281,-49.81
31.296,-53.77
31.312,-56.09
31.328,-55.81
31.343,-52.34
31.359,-45.8
31.375,-36.96
31.390,-26.94
31.406,-16.82
31.421,-7.39
31.437,1.04
31.453,8.54
31.468,15.26
31.484,21.3
31.500,26.6
31.515,30.9
31.531,33.95
31.546,35.75
31.562,36.48
31.578,36.61
31.593,36.65
31.609,36.94
31.625,37.55
31.640,38.27
31.656,38.75
31.671,38.67
31.687,37.97
31.703,36.82
31.718,35.52
31.734,34.34
31.750,33.34
31.765,32.37
31.781,31.05
31.796,28.99
31.812,25.92
31.828,21.92
31.843,17.31
31.859,12.6
31.875,8.26
31.890,4.61
31.906,1.72
31.921,-0.48
31.937,-2.18
31.953,-3.54
31.968,-4.73
31.984,-5.99
32.000,-7.58
32.015,-9.62
32.031,-11.98
32.046,-14.19
32.062,-15.61
32.078,-15.72
32.093,-14.35
32.109,-11.79
32.125,-8.67
32.140,-5.59
32.156,-2.84
32.171,-0.34
32.187,2.23
32.203,5.19
32.218,8.59
32.234,12.19
32.250,15.56
32.265,18.25
32.281,19.94
32.296,20.56
32.312,20.33
32.328,19.58
32.343,18.76
32.359,18.18
32.375,17.93
32.390,17.9
32.406,17.81
32.421,17.41
32.437,16.56
32.453,15.3
32.468,13.79
32.484,12.25
32.500,10.83
32.515,9.56
32.531,8.42
32.546,7.37
32.562,6.36
32.578,5.34
32.593,4.25
32.609,2.98
32.625,1.43
32.640,-0.48
32.656,-2.77
32.671,-5.47
32.687,-8.61
32.703,-12.26
32.718,-16.56
32.734,-21.62
32.750,-27.39
32.765,-33.5
32.781,-39.26
32.796,-43.82
32.812,-46.44
32.828,-46.74
32.843,-44.86
32.859,-41.39
32.875,-37.05
32.890,-32.39
32.906,-27.67
32.921,-22.79
32.937,-17.56
32.953,-11.94
32.968,-6.18
32.984,-0.74
33.000,3.87
33.015,7.35
33.031,9.71
33.046,11.27
33.062,12.5
33.078,13.87
33.093,15.67
33.109,17.99
33.125,20.77
33.140,23.79
33.156,26.85
33.171,29.74
33.187,32.31
33.203,34.49
33.218,36.34
33.234,38.03
33.250,39.86
33.265,42.19
33.281,45.25
33.296,49.16
33.312,53.89
33.328,59.26
33.343,65.04
33.359,70.88
33.375,76.32
33.390,80.7
33.406,83.19
33.421,82.95
33.437,79.45
33.453,72.7
33.468,63.33
33.484,52.46
33.500,41.25
33.515,30.48
33.531,20.36
33.546,10.65
33.562,1.09
33.578,-8.23
33.593,-16.65
33.609,-23.16
33.625,-26.73
33.640,-26.66
33.656,-22.88
33.671,-15.8
33.687,-6.12
33.703,5.36
33.718,17.87
33.734,30.61
33.750,42.65
33.765,53.02
33.781,60.8
33.796,65.39
33.812,66.8
33.828,65.77
33.843,63.69
33.859,62.44
33.875,63.97
33.890,69.87
33.906,80.86
33.921,96.38
33.937,114.37
33.953,131.49
33.968,143.71
33.984,147.08
34.000,138.79
34.015,117.95
34.031,85.93
34.046,46.09
34.062,2.92
34.078,-38.96
34.093,-75.93
34.109,-105.76
34.125,-127.64
34.140,-141.56
34.156,-147.76
34.171,-146.21
34.187,-136.67
34.203,-119.2
34.218,-94.66
34.234,-65.14
34.250,-33.88
34.265,-4.71
34.281,18.76
34.296,33.93
34.312,39.82
34.328,37.25
34.343,28.45
34.359,16.57
34.375,4.88
34.390,-4.0
34.406,-8.47
34.421,-8.14
34.437,-3.62
34.453,3.81
34.468,12.8
34.484,22.28
34.500,31.88
34.515,41.85
34.531,52.79
34.546,64.89
34.562,77.1
34.578,86.82
34.593,90.28
34.609,84.03
34.625,66.26
34.640,37.78
34.656,1.48
34.671,-39.01
34.687,-80.93
34.703,-123.07
34.718,-165.15
34.734,-206.48
34.750,-244.66
34.765,-275.82
34.781,-295.66
34.796,-301.27
34.812,-292.16
34.828,-270.24
34.843,-239.24
34.859,-203.55
34.875,-167.26
34.890,-133.78
34.906,-105.6
34.921,-84.32
34.937,-70.35
34.953,-62.76
34.968,-59.19
34.984,-56.5
35.000,-51.87
35.015,-44.04
35.031,-33.96
35.046,-24.47
35.062,-18.95
35.078,-19.35
35.093,-24.84
35.109,-31.71
35.125,-35.12
35.140,-31.68
35.156,-21.7
35.171,-9.41
35.187,-1.16
35.203,-2.27
35.218,-14.53
35.234,-35.68
35.250,-60.75
35.265,-84.6
35.281,-103.74
35.296,-117.21
35.312,-125.81
35.328,-130.62
35.343,-131.87
35.359,-128.85
35.375,-120.65
35.390,-107.3
35.406,-90.25
35.421,-72.12
35.437,-55.68
35.453,-42.75
35.468,-33.6
35.484,-27.01
35.500,-21.08
35.515,-14.22
35.531,-5.82
35.546,3.61
35.562,12.85
35.578,20.69
35.593,26.54
35.609,30.69
35.625,34.09
35.640,37.72
35.656,42.1
35.671,47.04
35.687,51.74
35.703,55.23
35.718,56.7
35.734,55.85
35.750,52.89
35.765,48.4
35.781,43.06
35.796,37.47
35.812,32.05
35.828,27.02
35.843,22.44
35.859,18.25
35.875,14.29
35.890,10.39
35.906,6.41
35.921,2.23
35.937,-2.14
35.953,-6.63
35.968,-11.19
35.984,-15.78
36.000,-20.41
36.015,-25.08
36.031,-29.77
36.046,-34.55
36.062,-39.6
36.078,-45.25
36.093,-51.86
36.109,-59.56
36.125,-67.94
36.140,-75.79
36.156,-81.35
36.171,-82.78
36.187,-78.82
36.203,-69.31
36.218,-55.33
36.234,-38.88
36.250,-22.12
36.265,-6.74
36.281,6.54
36.296,17.89
36.312,28.1
36.328,37.94
36.343,47.92
36.359,58.0
36.375,67.84
36.390,77.04
36.406,85.39
36.421,92.98
36.437,100.02
36.453,106.67
36.468,112.92
36.484,118.5
36.500,123.02
36.515,125.91
36.531,126.54
36.546,124.11
36.562,117.88
36.578,107.35
36.593,92.71
36.609,75.01
36.625,56.03
36.640,37.95
36.656,22.79
36.671,11.94
36.687,5.88
36.703,4.23
36.718,6.06
36.734,10.21
36.750,15.6
36.765,21.48
36.781,27.56
36.796,33.99
36.812,41.18
36.828,49.58
36.843,59.45
36.859,70.7
36.875,82.96
36.890,95.7
36.906,108.28
36.921,120.11
36.937,130.67
36.953,139.67
36.968,146.99
36.984,152.71
37.000,157.08
37.015,160.63
37.031,164.03
37.046,167.7
37.062,171.14
37.078,172.45
37.093,168.37
37.109,155.07
37.125,129.48
37.140,90.68
37.156,40.65
37.171,-15.97
37.187,-73.06
37.203,-124.62
37.218,-166.2
37.234,-195.79
37.250,-213.69
37.265,-221.71
37.281,-222.07
37.296,-216.46
37.312,-205.55
37.328,-189.21
37.343,-166.87
37.359,-137.94
37.375,-102.2
37.390,-59.78
37.406,-11.55
37.421,40.15
37.437,90.94
37.453,134.31
37.468,162.51
37.484,168.56
37.500,148.49
37.515,103.15
37.531,38.84
37.546,-33.95
37.562,-103.14
37.578,-158.24
37.593,-193.13
37.609,-207.29
37.625,-205.26
37.640,-194.33
37.656,-181.85
37.671,-173.02
37.687,-170.13
37.703,-173.16
37.718,-180.93
37.734,-192.06
37.750,-205.15
37.765,-218.54
37.781,-229.97
37.796,-237.11
37.812,-238.39
37.828,-233.85
37.843,-225.22
37.859,-215.19
37.875,-206.36
37.890,-200.15
37.906,-196.35
37.921,-193.4
37.937,-189.18
37.953,-181.97
37.968,-171.29
37.984,-158.09
38.000,-144.35
38.015,-132.07
38.031,-122.29
38.046,-114.46
38.062,-106.56
38.078,-96.07
38.093,-81.0
38.109,-60.74
38.125,-36.3
38.140,-9.57
38.156,17.46
38.171,43.48
38.187,68.13
38.203,91.63
38.218,114.3
38.234,136.12
38.250,156.64
38.265,175.1
38.281,190.72
38.296,203.05
38.312,212.0
38.328,217.82
38.343,220.92
38.359,221.73
38.375,220.51
38.390,217.41
38.406,212.46
38.421,205.74
38.437,197.53
38.453,188.33
38.468,178.65
38.484,168.93
38.500,159.32
38.515,149.69
38.531,139.87
38.546,129.79
38.562,119.69
38.578,110.01
38.593,101.26
38.609,93.77
38.625,87.54
38.640,82.37
38.656,77.88
38.671,73.83
38.687,70.07
38.703,66.61
38.718,63.46
38.734,60.66
38.750,58.19
38.765,56.04
38.781,54.14
38.796,52.35
38.812,50.53
38.828,48.47
38.843,46.01
38.859,43.07
38.875,39.77
38.890,36.26
38.906,32.77
38.921,29.41
38.937,26.22
38.953,23.16
38.968,20.19
38.984,17.32
39.000,14.57
39.015,12.01
39.031,9.58
39.046,7.15
39.062,4.49
39.078,1.36
39.093,-2.3
39.109,-6.36
39.125,-10.52
39.140,-14.53
39.156,-18.27
39.171,-21.87
39.187,-25.64
39.203,-29.91
39.218,-34.91
39.234,-40.62
39.250,-46.91
39.265,-53.61
39.281,-60.63
39.296,-67.92
39.312,-75.49
39.328,-83.28
39.343,-91.29
39.359,-99.59
39.375,-108.3
39.390,-117.42
39.406,-126.53
39.421,-134.59
39.437,-140.0
39.453,-140.96
39.468,-136.07
39.484,-124.84
39.500,-107.94
39.515,-86.96
39.531,-63.95
39.546,-40.86
39.562,-19.23
39.578,0.01
39.593,16.37
39.609,29.69
39.625,40.02
39.640,47.55
39.656,52.56
39.671,55.5
39.687,56.83
39.703,57.07
39.718,56.69
39.734,56.05
39.750,55.33
39.765,54.6
39.781,53.87
39.796,53.15
39.812,52.47
39.828,51.81
39.843,51.08
39.859,50.02
39.875,48.26
39.890,45.49
39.906,41.57
39.921,36.65
39.937,31.08
39.953,25.2
39.968,19.24
39.984,13.24
40.000,7.1
40.015,0.58
40.031,-6.5
40.046,-14.25
40.062,-22.6
40.078,-31.08
40.093,-38.83
40.109,-44.65
40.125,-47.28
40.140,-45.77
40.156,-39.89
40.171,-30.23
40.187,-17.99
40.203,-4.58
40.218,8.86
40.234,21.65
40.250,33.52
40.265,44.43
40.281,54.28
40.296,62.8
40.312,69.64
40.328,74.45
40.343,77.05
40.359,77.61
40.375,76.46
40.390,74.11
40.406,71.03
40.421,67.58
40.437,63.9
40.453,60.05
40.468,56.05
40.484,51.97
40.500,48.02
40.515,44.37
40.531,41.07
40.546,37.91
40.562,34.48
40.578,30.32
40.593,25.22
40.609,19.28
40.625,12.96
40.640,6.76
40.656,0.97
40.671,-4.53
40.687,-10.13
40.703,-16.33
40.718,-23.47
40.734,-31.42
40.750,-39.75
40.765,-47.69
40.781,-54.3
40.796,-58.71
40.812,-60.18
40.828,-58.23
40.843,-52.8
40.859,-44.33
40.875,-33.6
40.890,-21.62
40.906,-9.35
40.921,2.53
40.937,13.61
40.953,23.66
40.968,32.48
40.984,39.79
41.000,45.28
41.015,48.82
41.031,50.6
41.046,51.04
41.062,50.69
41.078,50.02
41.093,49.29
41.109,48.49
41.125,47.52
41.140,46.2
41.156,44.5
41.171,42.46
41.187,40.23
41.203,37.93
41.218,35.57
41.234,33.07
41.250,30.2
41.265,26.71
41.281,22.43
41.296,17.43
41.312,11.97
41.328,6.48
41.343,1.39
41.359,-3.12
41.375,-7.17
41.390,-11.17
41.406,-15.59
41.421,-20.9
41.437,-27.29
41.453,-34.6
41.468,-42.4
41.484,-49.85
41.500,-55.98
41.515,-59.78
41.531,-60.42
41.546,-57.44
41.562,-50.94
41.578,-41.54
41.593,-30.27
41.609,-18.32
41.625,-6.71
41.640,3.82
41.656,12.88
41.671,20.43
41.687,26.63
41.703,31.63
41.718,35.47
41.734,38.18
41.750,39.79
41.765,40.51
41.781,40.7
41.796,40.73
41.812,40.81
41.828,40.93
41.843,40.8
41.859,40.11
41.875,38.68
41.890,36.63
41.906,34.36
41.921,32.29
41.937,30.64
41.953,29.29
41.968,27.87
41.984,25.82
42.000,22.74
42.015,18.52
42.031,13.33
42.046,7.64
42.062,2.02
42.078,-3.15
42.093,-7.7
42.109,-11.81
42.125,-15.87
42.140,-20.31
42.156,-25.46
42.171,-31.47
42.187,-38.18
42.203,-45.11
42.218,-51.43
42.234,-56.06
42.250,-57.86
42.265,-56.04
42.281,-50.34
42.296,-41.29
42.312,-30.02
42.328,-17.85
42.343,-5.99
42.359,4.78
42.375,14.14
42.390,22.04
42.406,28.51
42.421,33.57
42.437,37.2
42.453,39.47
42.468,40.57
42.484,40.85
42.500,40.67
42.515,40.33
42.531,39.98
42.546,39.59
42.562,39.0
42.578,38.01
42.593,36.49
42.609,34.44
42.625,31.99
42.640,29.27
42.656,26.43
42.671,23.5
42.687,20.37
42.703,16.88
42.718,12.89
42.734,8.36
42.750,3.44
42.765,-1.63
42.781,-6.6
42.796,-11.35
42.812,-16.0
42.828,-20.85
42.843,-26.25
42.859,-32.45
42.875,-39.49
42.890,-47.03
42.906,-54.45
42.921,-60.85
42.937,-65.28
42.953,-66.78
42.968,-64.78
42.984,-59.12
43.000,-50.21
43.015,-39.01
43.031,-26.7
43.046,-14.42
43.062,-3.04
43.078,7.01
43.093,15.62
43.109,22.79
43.125,28.54
43.140,32.88
43.156,35.82
43.171,37.56
43.187,38.48
43.203,39.03
43.218,39.56
43.234,40.22
43.250,40.99
43.265,41.7
43.281,42.28
43.296,42.7
43.312,43.06
43.328,43.37
43.343,43.54
43.359,43.35
43.375,42.61
43.390,41.32
43.406,39.61
43.421,37.81
43.437,36.1
43.453,34.65
43.468,33.39
43.484,32.25
43.500,31.17
43.515,30.16
43.531,29.3
43.546,28.62
43.562,28.09
43.578,27.52
43.593,26.78
43.609,25.67
43.625,24.17
43.640,22.39
43.656,20.54
43.671,18.88
43.687,17.56
43.703,16.61
43.718,15.83
43.734,15.0
43.750,13.92
43.765,12.59
43.781,11.12
43.796,9.61
43.812,8.13
43.828,6.61
43.843,4.99
43.859,3.15
43.875,1.11
43.890,-1.06
43.906,-3.24
43.921,-5.36
43.937,-7.35
43.953,-9.13
43.968,-10.6
43.984,-11.65
44.000,-12.3
44.015,-12.73
44.031,-13.25
44.046,-14.2
44.062,-15.78
44.078,-17.98
44.093,-20.53
44.109,-23.14
44.125,-25.63
44.140,-28.02
44.156,-30.55
44.171,-33.44
44.187,-36.8
44.203,-40.49
44.218,-44.3
44.234,-47.94
44.250,-51.3
44.265,-54.45
44.281,-57.59
44.296,-60.98
44.312,-64.85
44.328,-69.4
44.343,-74.65
44.359,-80.46
44.375,-86.24
44.390,-91.08
44.406,-93.76
44.421,-93.18
44.437,-88.74
44.453,-80.55
44.468,-69.45
44.484,-56.7
44.500,-43.59
44.515,-31.04
44.531,-19.6
44.546,-9.49
44.562,-0.8
44.578,6.36
44.593,11.89
44.609,15.84
44.625,18.46
44.640,20.14
44.656,21.32
44.671,22.28
44.687,23.13
44.703,23.76
44.718,23.98
44.734,23.65
44.750,22.79
44.765,21.6
44.781,20.37
44.796,19.34
44.812,18.59
44.828,18.05
44.843,17.46
44.859,16.56
44.875,15.09
44.890,12.86
44.906,9.86
44.921,6.16
44.937,1.99
44.953,-2.4
44.968,-6.77
44.984,-11.0
45.000,-15.08
45.015,-19.18
45.031,-23.54
45.046,-28.25
45.062,-33.19
45.078,-37.8
45.093,-41.28
45.109,-42.72
45.125,-41.41
45.140,-37.12
45.156,-30.21
45.171,-21.55
45.187,-12.23
45.203,-3.25
45.218,4.75
45.234,11.54
45.250,17.17
45.265,21.7
45.281,25.15
45.296,27.4
45.312,28.37
45.328,28.12
45.343,26.86
45.359,24.94
45.375,22.73
45.390,20.55
45.406,18.69
45.421,17.31
45.437,16.52
45.453,16.3
45.468,16.44
45.484,16.56
45.500,16.26
45.515,15.21
45.531,13.25
45.546,10.41
45.562,6.75
45.578,2.44
45.593,-2.34
45.609,-7.35
45.625,-12.29
45.640,-16.93
45.656,-21.18
45.671,-25.24
45.687,-29.51
45.703,-34.4
45.718,-39.99
45.734,-45.92
45.750,-51.3
45.765,-55.12
45.781,-56.45
45.796,-54.8
45.812,-50.22
45.828,-43.23
45.843,-34.65
45.859,-25.34
45.875,-16.12
45.890,-7.6
45.906,-0.23
45.921,5.74
45.937,10.15
45.953,13.07
45.968,14.64
45.984,15.2
46.000,15.11
46.015,14.74
46.031,14.4
46.046,14.26
46.062,14.32
46.078,14.41
46.093,14.34
46.109,13.91
46.125,13.05
46.140,11.74
46.156,10.02
46.171,7.94
46.187,5.44
46.203,2.4
46.218,-1.22
46.234,-5.41
46.250,-9.93
46.265,-14.43
46.281,-18.57
46.296,-22.2
46.312,-25.39
46.328,-28.43
46.343,-31.69
46.359,-35.43
46.375,-39.73
46.390,-44.41
46.406,-48.97
46.421,-52.63
46.437,-54.47
46.453,-53.55
46.468,-49.33
46.484,-41.88
46.500,-31.9
46.515,-20.59
46.531,-9.15
46.546,1.49
46.562,10.85
46.578,18.8
46.593,25.33
46.609,30.38
46.625,33.85
46.640,35.7
46.656,36.09
46.671,35.43
46.687,34.2
46.703,32.78
46.718,31.34
46.734,29.86
46.750,28.23
46.765,26.42
46.781,24.49
46.796,22.55
46.812,20.7
46.828,18.86
46.843,16.87
46.859,14.47
46.875,11.49
46.890,7.92
46.906,3.91
46.921,-0.29
46.937,-4.46
46.953,-8.42
46.968,-12.17
46.984,-15.75
47.000,-19.32
47.015,-23.05
47.031,-27.14
47.046,-31.6
47.062,-36.27
47.078,-40.7
47.093,-44.18
47.109,-45.9
47.125,-45.14
47.140,-41.54
47.156,-35.19
47.171,-26.62
47.187,-16.69
47.203,-6.3
47.218,3.67
47.234,12.62
47.250,20.17
47.265,26.22
47.281,30.81
47.296,34.13
47.312,36.38
47.328,37.82
47.343,38.72
47.359,39.35
47.375,39.94
47.390,40.59
47.406,41.29
47.421,41.94
47.437,42.35
47.453,42.38
47.468,41.82
47.484,40.56
47.500,38.45
47.515,35.43
47.531,31.5
47.546,26.77
47.562,21.5
47.578,16.0
47.593,10.59
47.609,5.44
47.625,0.71
47.640,-3.65
47.656,-7.79
47.671,-11.97
47.687,-16.53
47.703,-21.72
47.718,-27.54
47.734,-33.6
47.750,-39.19
47.765,-43.29
47.781,-44.95
47.796,-43.59
47.812,-39.1
47.828,-31.95
47.843,-22.95
47.859,-13.01
47.875,-2.97
47.890,6.59
47.906,15.34
47.921,23.09
47.937,29.7
47.953,35.02
47.968,38.89
47.984,41.27
48.000,42.3
48.015,42.33
48.031,41.75
48.046,40.92
48.062,39.99
48.078,38.95
48.093,37.69
48.109,36.11
48.125,34.17
48.140,31.92
48.156,29.37
48.171,26.51
48.187,23.31
48.203,19.75
48.218,15.83
48.234,11.66
48.250,7.32
48.265,2.97
48.281,-1.3
48.296,-5.4
48.312,-9.37
48.328,-13.32
48.343,-17.47
48.359,-22.01
48.375,-27.07
48.390,-32.56
48.406,-38.08
48.421,-43.0
48.437,-46.45
48.453,-47.6
48.468,-45.8
48.484,-40.89
48.500,-33.21
48.515,-23.53
48.531,-12.93
48.546,-2.4
48.562,7.27
48.578,15.71
48.593,22.78
48.609,28.44
48.625,32.64
48.640,35.32
48.656,36.53
48.671,36.52
48.687,35.72
48.703,34.59
48.718,33.42
48.734,32.26
48.750,30.95
48.765,29.34
48.781,27.47
48.796,25.5
48.812,23.63
48.828,21.87
48.843,20.0
48.859,17.67
48.875,14.61
48.890,10.78
48.906,6.43
48.921,1.98
48.937,-2.29
48.953,-6.28
48.968,-10.14
48.984,-14.14
49.000,-18.47
49.015,-23.2
49.031,-28.34
49.046,-33.87
49.062,-39.67
49.078,-45.45
49.093,-50.59
49.109,-54.14
49.125,-55.02
49.140,-52.43
49.156,-46.24
49.171,-37.05
49.187,-26.06
49.203,-14.64
49.218,-3.9
49.234,5.61
49.250,13.75
49.265,20.6
49.281,26.26
49.296,30.65
49.312,33.69
49.328,35.35
49.343,35.78
49.359,35.33
49.375,34.38
49.390,33.18
49.406,31.8
49.421,30.18
49.437,28.3
49.453,26.22
49.468,24.09
49.484,22.06
49.500,20.22
49.515,18.48
49.531,16.64
49.546,14.43
49.562,11.68
49.578,8.4
49.593,4.7
49.609,0.8
49.625,-3.15
49.640,-7.13
49.656,-11.18
49.671,-15.45
49.687,-20.05
49.703,-25.08
49.718,-30.55
49.734,-36.38
49.750,-42.39
49.765,-48.11
49.781,-52.86
49.796,-55.65
49.812,-55.55
49.828,-51.98
49.843,-44.97
49.859,-35.3
49.875,-24.23
49.890,-13.1
49.906,-2.95
49.921,5.72
49.937,12.91
49.953,18.85
49.968,23.74
49.984,27.66
50.000,30.56
50.015,32.45
50.031,33.44
50.046,33.79
50.062,33.75
50.078,33.49
50.093,33.07
50.109,32.39
50.125,31.38
50.140,29.93
50.156,28.02
50.171,25.76
50.187,23.26
50.203,20.71
50.218,18.23
50.234,15.77
50.250,13.25
50.265,10.56
50.281,7.57
50.296,4.28
50.312,0.76
50.328,-2.92
50.343,-6.74
50.359,-10.76
50.375,-15.2
50.390,-20.33
50.406,-26.28
50.421,-33.0
50.437,-39.97
50.453,-46.29
50.468,-50.87
50.484,-52.71
50.500,-51.21
50.515,-46.41
50.531,-38.88
50.546,-29.53
50.562,-19.39
50.578,-9.29
50.593,0.18
50.609,8.6
50.625,15.75
50.640,21.43
50.656,25.49
50.671,27.94
50.687,28.93
50.703,28.75
50.718,27.81
50.734,26.54
50.750,25.25
50.765,24.15
50.781,23.24
50.796,22.46
50.812,21.73
50.828,20.95
50.843,20.05
50.859,18.92
50.875,17.36
50.890,15.07
50.906,11.93
50.921,7.98
50.937,3.5
50.953,-1.07
50.968,-5.37
50.984,-9.31
51.000,-13.04
51.015,-16.91
51.031,-21.37
51.046,-26.6
51.062,-32.48
51.078,-38.5
51.093,-43.84
51.109,-47.57
51.125,-48.81
51.140,-46.99
51.156,-42.07
51.171,-34.57
51.187,-25.43
51.203,-15.76
51.218,-6.52
51.234,1.69
51.250,8.65
51.265,14.42
51.281,19.13
51.296,22.89
51.312,25.68
51.328,27.4
51.343,28.01
51.359,27.6
51.375,26.43
51.390,24.75
51.406,22.85
51.421,20.86
51.437,18.89
51.453,17.0
51.468,15.24
51.484,13.59
51.500,11.93
51.515,10.07
51.531,7.81
51.546,5.01
51.562,1.68
51.578,-2.05
51.593,-5.97
51.609,-9.9
51.625,-13.83
51.640,-17.83
51.656,-22.09
51.671,-26.73
51.687,-31.76
51.703,-36.95
51.718,-41.83
51.734,-45.75
51.750,-48.03
51.765,-48.11
51.781,-45.76
51.796,-41.05
51.812,-34.3
51.828,-26.01
51.843,-16.78
51.859,-7.2
51.875,2.05
51.890,10.36
51.906,17.31
51.921,22.69
51.937,26.57
51.953,29.18
51.968,30.85
51.984,31.81
52.000,32.2
52.015,32.08
52.031,31.51
52.046,30.69
52.062,29.81
52.078,29.14
52.093,28.72
52.109,28.4
52.125,27.86
52.140,26.72
52.156,24.75
52.171,21.94
52.187,18.52
52.203,14.71
52.218,10.72
52.234,6.54
52.250,2.09
52.265,-2.69
52.281,-7.79
52.296,-13.16
52.312,-18.86
52.328,-24.98
52.343,-31.61
52.359,-38.44
52.375,-44.81
52.390,-49.75
52.406,-52.24
52.421,-51.68
52.437,-48.05
52.453,-41.88
52.468,-33.98
52.484,-25.15
52.500,-15.93
52.515,-6.68
52.531,2.4
52.546,11.14
52.562,19.35
52.578,26.89
52.593,33.69
52.609,39.74
52.625,45.1
52.640,49.85
52.656,54.16
52.671,58.31
52.687,62.72
52.703,67.82
52.718,74.01
52.734,81.42
52.750,89.86
52.765,98.75
52.781,107.19
52.796,114.18
52.812,118.83
52.828,120.6
52.843,119.38
52.859,115.5
52.875,109.63
52.890,102.6
52.906,95.28
52.921,88.54
52.937,83.05
52.953,79.25
52.968,77.24
52.984,76.61
53.000,76.57
53.015,76.04
53.031,73.91
53.046,69.37
53.062,62.18
53.078,52.76
53.093,42.03
53.109,31.18
53.125,21.31
53.140,13.22
53.156,7.26
53.171,3.35
53.187,1.11
53.203,-0.02
53.218,-0.61
53.234,-1.18
53.250,-2.17
53.265,-3.96
53.281,-6.91
53.296,-11.37
53.312,-17.7
53.328,-26.15
53.343,-36.75
53.359,-49.25
53.375,-63.03
53.390,-77.21
53.406,-90.78
53.421,-102.82
53.437,-112.71
53.453,-120.21
53.468,-125.42
53.484,-128.68
53.500,-130.35
53.515,-130.79
53.531,-130.25
53.546,-128.97
53.562,-127.24
53.578,-125.42
53.593,-123.9
53.609,-122.98
53.625,-122.94
53.640,-123.78
53.656,-125.41
53.671,-127.52
53.687,-129.59
53.703,-130.95
53.718,-130.66
53.734,-127.72
53.750,-121.33
53.765,-111.13
53.781,-97.31
53.796,-80.7
53.812,-62.47
53.828,-43.87
53.843,-25.95
53.859,-9.37
53.875,5.49
53.890,18.35
53.906,28.92
53.921,36.73
53.937,41.26
53.953,42.22
53.968,39.77
53.984,34.52
54.000,27.52
54.015,19.87
54.031,12.41
54.046,5.58
54.062,-0.61
54.078,-6.3
54.093,-11.5
54.109,-16.05
54.125,-19.71
54.140,-22.38
54.156,-24.18
54.171,-25.52
54.187,-26.82
54.203,-28.34
54.218,-30.13
54.234,-32.0
54.250,-33.75
54.265,-35.38
54.281,-37.04
54.296,-39.03
54.312,-41.71
54.328,-45.29
54.343,-49.68
54.359,-54.42
54.375,-58.65
54.390,-61.33
54.406,-61.44
54.421,-58.32
54.437,-51.95
54.453,-42.96
54.468,-32.43
54.484,-21.55
54.500,-11.32
54.515,-2.29
54.531,5.28
54.546,11.36
54.562,15.9
54.578,18.88
54.593,20.32
54.609,20.47
54.625,19.77
54.640,18.82
54.656,18.16
54.671,18.09
54.687,18.65
54.703,19.55
54.718,20.33
54.734,20.56
54.750,19.9
54.765,18.13
54.781,15.24
54.796,11.33
54.812,6.71
54.828,1.75
54.843,-3.17
54.859,-7.8
54.875,-12.14
54.890,-16.39
54.906,-20.89
54.921,-25.95
54.937,-31.72
54.953,-38.1
54.968,-44.72
54.984,-50.82
55.000,-55.36
55.015,-57.27
55.031,-55.63
55.046,-50.04
55.062,-40.77
55.078,-28.77
55.093,-15.4
55.109,-1.97
55.125,10.57
55.140,21.77
55.156,31.55
55.171,39.98
55.187,47.07
55.203,52.8
55.218,57.16
55.234,60.25
55.250,62.33
55.265,63.65
55.281,64.5
55.296,65.05
55.312,65.5
55.328,66.03
55.343,66.87
55.359,68.13
55.375,69.75
55.390,71.48
55.406,72.9
55.421,73.68
55.437,73.65
55.453,72.89
55.468,71.55
55.484,69.8
55.500,67.69
55.515,65.1
55.531,61.98
55.546,58.41
55.562,54.64
55.578,50.8
55.593,46.75
55.609,41.86
55.625,35.21
55.640,26.18
55.656,14.79
55.671,1.95
55.687,-10.82
55.703,-21.89
55.718,-29.91
55.734,-33.97
55.750,-33.42
55.765,-27.85
55.781,-17.08
55.796,-1.64
55.812,17.03
55.828,36.65
55.843,54.64
55.859,68.88
55.875,78.38
55.890,83.26
55.906,84.38
55.921,82.73
55.937,79.01
55.953,73.52
55.968,66.37
55.984,57.78
56.000,48.19
56.015,38.24
56.031,28.81
56.046,21.03
56.062,16.02
56.078,14.46
56.093,16.12
56.109,19.53
56.125,22.32
56.140,22.05
56.156,17.35
56.171,8.55
56.187,-2.41
56.203,-13.04
56.218,-21.6
56.234,-27.91
56.250,-33.18
56.265,-38.97
56.281,-45.84
56.296,-52.76
56.312,-57.57
56.328,-58.2
56.343,-53.92
56.359,-45.83
56.375,-36.09
56.390,-26.65
56.406,-18.25
56.421,-10.09
56.437,-0.67
56.453,11.08
56.468,24.75
56.484,38.48
56.500,49.8
56.515,56.75
56.531,58.81
56.546,56.96
56.562,53.11
56.578,49.0
56.593,45.53
56.609,42.4
56.625,38.6
56.640,33.25
56.656,26.11
56.671,17.95
56.687,10.12
56.703,3.88
56.718,-0.23
56.734,-2.67
56.750,-4.68
56.765,-7.72
56.781,-12.87
56.796,-20.59
56.812,-30.67
56.828,-42.45
56.843,-54.9
56.859,-66.77
56.875,-76.65
56.890,-83.48
56.906,-87.06
56.921,-88.27
56.937,-88.88
56.953,-90.67
56.968,-94.41
56.984,-99.41
57.000,-103.7
57.015,-105.15
57.031,-102.67
57.046,-96.81
57.062,-89.36
57.078,-82.33
57.093,-76.88
57.109,-72.71
57.125,-68.49
57.140,-62.46
57.156,-53.3
57.171,-40.54
57.187,-24.73
57.203,-7.26
57.218,9.75
57.234,23.87
57.250,32.97
57.265,35.8
57.281,32.63
57.296,25.19
57.312,16.1
57.328,8.01
57.343,2.74
57.359,0.84
57.375,1.87
57.390,5.0
57.406,9.47
57.421,14.97
57.437,21.41
57.453,28.74
57.468,36.69
57.484,44.89
57.500,52.83
57.515,60.04
57.531,65.94
57.546,69.8
57.562,70.95
57.578,69.06
57.593,64.49
57.609,58.44
57.625,52.44
57.640,47.74
57.656,44.83
57.671,43.59
57.687,43.7
57.703,45.13
57.718,48.39
57.734,53.94
57.750,61.74
57.765,70.68
57.781,78.71
57.796,83.44
57.812,83.01
57.828,76.42
57.843,63.43
57.859,44.17
57.875,18.92
57.890,-11.61
57.906,-45.75
57.921,-80.48
57.937,-111.73
57.953,-135.24
57.968,-148.06
57.984,-149.46
58.000,-141.15
58.015,-126.68
58.031,-110.13
58.046,-94.83
58.062,-82.46
58.078,-73.03
58.093,-65.48
58.109,-58.59
58.125,-51.67
58.140,-44.73
58.156,-38.36
58.171,-33.28
58.187,-29.98
58.203,-28.64
58.218,-29.0
58.234,-30.43
58.250,-31.94
58.265,-32.19
58.281,-29.57
58.296,-22.78
58.312,-11.19
58.328,4.86
58.343,23.92
58.359,44.02
58.375,63.22
58.390,80.25
58.406,94.71
58.421,107.04
58.437,118.02
58.453,128.53
58.468,139.19
58.484,150.0
58.500,160.29
58.515,168.7
58.531,173.5
58.546,173.22
58.562,167.33
58.578,156.23
58.593,141.16
58.609,123.44
58.625,103.73
58.640,81.86
58.656,57.03
58.671,28.35
58.687,-4.24
58.703,-39.56
58.718,-75.04
58.734,-107.08
58.750,-131.76
58.765,-145.97
58.781,-148.08
58.796,-138.57
58.812,-119.91
58.828,-95.8
58.843,-70.1
58.859,-45.67
58.875,-23.74
58.890,-3.91
58.906,15.08
58.921,34.6
58.937,55.36
58.953,77.09
58.968,98.73
58.984,118.83
59.000,136.02
59.015,149.49
59.031,158.95
59.046,164.65
59.062,167.04
59.078,166.34
59.093,162.33
59.109,154.34
59.125,141.44
59.140,122.85
59.156,98.4
59.171,68.92
59.187,36.42
59.203,3.89
59.218,-25.22
59.234,-47.91
59.250,-62.45
59.265,-69.06
59.281,-70.0
59.296,-69.03
59.312,-70.51
59.328,-78.25
59.343,-94.73
59.359,-120.66
59.375,-155.02
59.390,-195.36
59.406,-238.41
59.421,-280.74
59.437,-319.35
59.453,-352.24
59.468,-378.45
59.484,-398.05
59.500,-411.67
59.515,-420.11
59.531,-424.17
59.546,-424.5
59.562,-421.69
59.578,-416.16
59.593,-407.97
59.609,-396.82
59.625,-382.04
59.640,-363.01
59.656,-339.46
59.671,-311.71
59.687,-280.4
59.703,-245.95
59.718,-208.39
59.734,-167.38
59.750,-122.97
59.765,-76.07
59.781,-28.75
59.796,16.36
59.812,56.74
59.828,90.82
59.843,118.22
59.859,139.46
59.875,155.41
59.890,166.79
59.906,174.04
59.921,177.49
59.937,177.68
59.953,175.3
59.968,171.13
59.984,165.64
