timestamp,value
00.000,-6.32
00.015,-9.3
00.031,-12.1
00.046,-14.61
00.062,-16.85
00.078,-19.04
00.093,-21.43
00.109,-24.22
00.125,-27.42
00.140,-30.85
00.156,-34.19
00.171,-37.04
00.187,-38.91
00.203,-39.35
00.218,-37.95
00.234,-34.52
00.250,-29.21
00.265,-22.44
00.281,-14.85
00.296,-7.13
00.312,0.23
00.328,6.99
00.343,13.02
00.359,18.26
00.375,22.62
00.390,25.96
00.406,28.27
00.421,29.64
00.437,30.38
00.453,30.79
00.468,31.12
00.484,31.42
00.500,31.6
00.515,31.48
00.531,31.0
00.546,30.19
00.562,29.24
00.578,28.32
00.593,27.52
00.609,26.81
00.625,26.02
00.640,24.97
00.656,23.54
00.671,21.7
00.687,19.52
00.703,17.13
00.718,14.62
00.734,12.07
00.750,9.5
00.765,6.94
00.781,4.44
00.796,1.99
00.812,-0.4
00.828,-2.79
00.843,-5.21
00.859,-7.67
00.875,-10.19
00.890,-12.76
00.906,-15.44
00.921,-18.28
00.937,-21.41
00.953,-24.86
00.968,-28.62
00.984,-32.49
01.000,-36.15
01.015,-39.21
01.031,-41.22
01.046,-41.85
01.062,-40.89
01.078,-38.28
01.093,-34.11
01.109,-28.61
01.125,-22.12
01.140,-15.01
01.156,-7.73
01.171,-0.67
01.187,5.8
01.203,11.48
01.218,16.34
01.234,20.38
01.250,23.66
01.265,26.18
01.281,27.91
01.296,28.87
01.312,29.24
01.328,29.23
01.343,29.1
01.359,29.0
01.375,28.88
01.390,28.63
01.406,28.1
01.421,27.3
01.437,26.35
01.453,25.4
01.468,24.5
01.484,23.52
01.500,22.29
01.515,20.64
01.531,18.56
01.546,16.18
01.562,13.73
01.578,11.38
01.593,9.22
01.609,7.28
01.625,5.5
01.640,3.86
01.656,2.25
01.671,0.51
01.687,-1.55
01.703,-4.1
01.718,-7.13
01.734,-10.46
01.750,-13.82
01.765,-17.03
01.781,-20.02
01.796,-22.99
01.812,-26.14
01.828,-29.58
01.843,-33.33
01.859,-37.29
01.875,-41.3
01.890,-45.16
01.906,-48.62
01.921,-51.21
01.937,-52.34
01.953,-51.35
01.968,-47.84
01.984,-41.84
02.000,-33.88
02.015,-24.87
02.031,-15.72
02.046,-7.21
02.062,0.23
02.078,6.4
02.093,11.31
02.109,15.02
02.125,17.62
02.140,19.27
02.156,20.14
02.171,20.51
02.187,20.64
02.203,20.8
02.218,21.19
02.234,21.93
02.250,22.96
02.265,24.07
02.281,25.01
02.296,25.56
02.312,25.6
02.328,25.18
02.343,24.45
02.359,23.53
02.375,22.49
02.390,21.38
02.406,20.13
02.421,18.7
02.437,17.08
02.453,15.3
02.468,13.38
02.484,11.37
02.500,9.2
02.515,6.78
02.531,4.05
02.546,0.91
02.562,-2.57
02.578,-6.25
02.593,-9.88
02.609,-13.17
02.625,-15.94
02.640,-18.21
02.656,-20.16
02.671,-22.13
02.687,-24.43
02.703,-27.21
02.718,-30.43
02.734,-33.76
02.750,-36.62
02.765,-38.33
02.781,-38.3
02.796,-36.11
02.812,-31.7
02.828,-25.42
02.843,-17.88
02.859,-9.89
02.875,-2.18
02.890,4.71
02.906,10.51
02.921,15.17
02.937,18.81
02.953,21.57
02.968,23.54
02.984,24.79
03.000,25.4
03.015,25.51
03.031,25.37
03.046,25.17
03.062,25.07
03.078,25.07
03.093,25.04
03.109,24.77
03.125,24.17
03.140,23.23
03.156,22.16
03.171,21.25
03.187,20.64
03.203,20.27
03.218,19.85
03.234,18.99
03.250,17.38
03.265,15.0
03.281,11.99
03.296,8.69
03.312,5.35
03.328,2.1
03.343,-1.06
03.359,-4.13
03.375,-7.11
03.390,-9.94
03.406,-12.54
03.421,-14.91
03.437,-17.11
03.453,-19.26
03.468,-21.52
03.484,-23.99
03.500,-26.7
03.515,-29.68
03.531,-32.82
03.546,-35.84
03.562,-38.26
03.578,-39.47
03.593,-38.9
03.609,-36.21
03.625,-31.46
03.640,-25.09
03.656,-17.83
03.671,-10.38
03.687,-3.29
03.703,3.12
03.718,8.74
03.734,13.57
03.750,17.58
03.765,20.76
03.781,23.07
03.796,24.58
03.812,25.47
03.828,25.99
03.843,26.35
03.859,26.65
03.875,26.85
03.890,26.77
03.906,26.22
03.921,25.16
03.937,23.68
03.953,22.11
03.968,20.75
03.984,19.76
04.000,19.06
04.015,18.33
04.031,17.17
04.046,15.35
04.062,12.87
04.078,10.06
04.093,7.35
04.109,5.05
04.125,3.2
04.140,1.51
04.156,-0.39
04.171,-2.82
04.187,-5.74
04.203,-8.92
04.218,-12.0
04.234,-14.75
04.250,-17.12
04.265,-19.3
04.281,-21.55
04.296,-24.06
04.312,-26.94
04.328,-30.22
04.343,-33.81
04.359,-37.55
04.375,-40.99
04.390,-43.5
04.406,-44.31
04.421,-42.84
04.437,-38.91
04.453,-32.85
04.468,-25.39
04.484,-17.4
04.500,-9.65
04.515,-2.58
04.531,3.62
04.546,8.99
04.562,13.59
04.578,17.42
04.593,20.42
04.609,22.56
04.625,23.95
04.640,24.74
04.656,25.19
04.671,25.43
04.687,25.55
04.703,25.47
04.718,25.09
04.734,24.39
04.750,23.43
04.765,22.41
04.781,21.49
04.796,20.74
04.812,20.08
04.828,19.38
04.843,18.47
04.859,17.25
04.875,15.68
04.890,13.74
04.906,11.43
04.921,8.82
04.937,5.99
04.953,3.07
04.968,0.17
04.984,-2.63
05.000,-5.33
05.015,-7.98
05.031,-10.63
05.046,-13.28
05.062,-15.88
05.078,-18.34
05.093,-20.61
05.109,-22.71
05.125,-24.76
05.140,-26.93
05.156,-29.44
05.171,-32.48
05.187,-36.01
05.203,-39.71
05.218,-42.97
05.234,-44.93
05.250,-44.84
05.265,-42.26
05.281,-37.23
05.296,-30.25
05.312,-22.11
05.328,-13.57
05.343,-5.25
05.359,2.49
05.375,9.48
05.390,15.64
05.406,20.82
05.421,24.99
05.437,28.12
05.453,30.3
05.468,31.67
05.484,32.43
05.500,32.78
05.515,32.9
05.531,32.88
05.546,32.7
05.562,32.3
05.578,31.59
05.593,30.57
05.609,29.31
05.625,27.9
05.640,26.48
05.656,25.1
05.671,23.66
05.687,22.02
05.703,20.0
05.718,17.55
05.734,14.73
05.750,11.77
05.765,8.86
05.781,6.13
05.796,3.58
05.812,1.06
05.828,-1.54
05.843,-4.32
05.859,-7.27
05.875,-10.29
05.890,-13.25
05.906,-16.09
05.921,-18.84
05.937,-21.61
05.953,-24.51
05.968,-27.62
05.984,-31.0
06.000,-34.67
06.015,-38.52
06.031,-42.38
06.046,-45.93
06.062,-48.78
06.078,-50.53
06.093,-50.84
06.109,-49.39
06.125,-46.06
06.140,-40.85
06.156,-34.01
06.171,-26.02
06.187,-17.47
06.203,-9.0
06.218,-1.12
06.234,5.92
06.250,12.07
06.265,17.4
06.281,21.92
06.296,25.52
06.312,28.08
06.328,29.55
06.343,30.1
06.359,30.06
06.375,29.75
06.390,29.43
06.406,29.11
06.421,28.69
06.437,28.13
06.453,27.46
06.468,26.81
06.484,26.33
06.500,26.03
06.515,25.8
06.531,25.43
06.546,24.71
06.562,23.53
06.578,21.93
06.593,19.97
06.609,17.7
06.625,15.15
06.640,12.35
06.656,9.35
06.671,6.22
06.687,3.05
06.703,-0.1
06.718,-3.16
06.734,-6.15
06.750,-9.0
06.765,-11.57
06.781,-13.75
06.796,-15.53
06.812,-17.02
06.828,-18.47
06.843,-20.19
06.859,-22.38
06.875,-25.16
06.890,-28.44
06.906,-32.0
06.921,-35.49
06.937,-38.46
06.953,-40.31
06.968,-40.48
06.984,-38.55
07.000,-34.46
07.015,-28.58
07.031,-21.61
07.046,-14.32
07.062,-7.38
07.078,-1.15
07.093,4.3
07.109,9.05
07.125,13.17
07.140,16.69
07.156,19.57
07.171,21.8
07.187,23.45
07.203,24.58
07.218,25.34
07.234,25.8
07.250,25.98
07.265,25.89
07.281,25.53
07.296,24.89
07.312,24.03
07.328,22.97
07.343,21.74
07.359,20.39
07.375,18.92
07.390,17.36
07.406,15.74
07.421,14.09
07.437,12.4
07.453,10.67
07.468,8.88
07.484,7.0
07.500,5.02
07.515,2.95
07.531,0.78
07.546,-1.48
07.562,-3.75
07.578,-5.98
07.593,-8.09
07.609,-10.06
07.625,-11.91
07.640,-13.76
07.656,-15.76
07.671,-18.1
07.687,-20.91
07.703,-24.21
07.718,-27.85
07.734,-31.49
07.750,-34.62
07.765,-36.67
07.781,-37.11
07.796,-35.61
07.812,-32.12
07.828,-26.89
07.843,-20.43
07.859,-13.4
07.875,-6.42
07.890,0.05
07.906,5.72
07.921,10.52
07.937,14.48
07.953,17.61
07.968,19.9
07.984,21.31
08.000,21.85
08.015,21.67
08.031,21.1
08.046,20.49
08.062,20.17
08.078,20.23
08.093,20.57
08.109,20.84
08.125,20.75
08.140,20.11
08.156,19.0
08.171,17.67
08.187,16.41
08.203,15.37
08.218,14.55
08.234,13.75
08.250,12.78
08.265,11.47
08.281,9.85
08.296,8.04
08.312,6.2
08.328,4.38
08.343,2.53
08.359,0.53
08.375,-1.75
08.390,-4.39
08.406,-7.39
08.421,-10.68
08.437,-14.12
08.453,-17.52
08.468,-20.68
08.484,-23.48
08.500,-25.9
08.515,-28.18
08.531,-30.55
08.546,-33.29
08.562,-36.45
08.578,-39.78
08.593,-42.65
08.609,-44.3
08.625,-43.98
08.640,-41.22
08.656,-36.08
08.671,-29.01
08.687,-20.82
08.703,-12.37
08.718,-4.37
08.734,2.76
08.750,8.82
08.765,13.8
08.781,17.8
08.796,20.88
08.812,23.15
08.828,24.72
08.843,25.7
08.859,26.21
08.875,26.29
08.890,26.01
08.906,25.47
08.921,24.84
08.937,24.31
08.953,24.01
08.968,23.99
08.984,24.09
09.000,24.18
09.015,24.11
09.031,23.81
09.046,23.23
09.062,22.38
09.078,21.23
09.093,19.81
09.109,18.15
09.125,16.3
09.140,14.34
09.156,12.35
09.171,10.33
09.187,8.27
09.203,6.18
09.218,4.07
09.234,1.93
09.250,-0.27
09.265,-2.67
09.281,-5.35
09.296,-8.35
09.312,-11.58
09.328,-14.85
09.343,-17.98
09.359,-20.92
09.375,-23.8
09.390,-26.88
09.406,-30.44
09.421,-34.56
09.437,-39.09
09.453,-43.58
09.468,-47.4
09.484,-49.89
09.500,-50.54
09.515,-49.03
09.531,-45.37
09.546,-39.79
09.562,-32.75
09.578,-24.85
09.593,-16.7
09.609,-8.85
09.625,-1.73
09.640,4.44
09.656,9.61
09.671,13.88
09.687,17.37
09.703,20.17
09.718,22.38
09.734,24.08
09.750,25.37
09.765,26.39
09.781,27.29
09.796,28.12
09.812,28.9
09.828,29.48
09.843,29.67
09.859,29.26
09.875,28.18
09.890,26.52
09.906,24.58
09.921,22.74
09.937,21.27
09.953,20.2
09.968,19.31
09.984,18.21
10.000,16.58
10.015,14.28
10.031,11.42
10.046,8.27
10.062,5.15
10.078,2.29
10.093,-0.18
10.109,-2.23
10.125,-3.89
10.140,-5.33
10.156,-6.8
10.171,-8.58
10.187,-10.91
10.203,-13.8
10.218,-17.06
10.234,-20.33
10.250,-23.28
10.265,-25.72
10.281,-27.76
10.296,-29.65
10.312,-31.77
10.328,-34.37
10.343,-37.46
10.359,-40.7
10.375,-43.5
10.390,-45.16
10.406,-45.06
10.421,-42.81
10.437,-38.37
10.453,-32.06
10.468,-24.41
10.484,-16.11
10.500,-7.87
10.515,-0.29
10.531,6.22
10.546,11.51
10.562,15.66
10.578,18.85
10.593,21.28
10.609,23.03
10.625,24.15
10.640,24.58
10.656,24.39
10.671,23.7
10.687,22.73
10.703,21.72
10.718,20.77
10.734,19.91
10.750,19.09
10.765,18.37
10.781,17.8
10.796,17.54
10.812,17.65
10.828,18.04
10.843,18.43
10.859,18.47
10.875,17.92
10.890,16.73
10.906,15.12
10.921,13.34
10.937,11.63
10.953,9.98
10.968,8.23
10.984,6.23
11.000,3.96
11.015,1.56
11.031,-0.76
11.046,-2.85
11.062,-4.79
11.078,-6.78
11.093,-9.03
11.109,-11.65
11.125,-14.58
11.140,-17.71
11.156,-20.88
11.171,-23.97
11.187,-26.78
11.203,-28.98
11.218,-30.03
11.234,-29.4
11.250,-26.69
11.265,-21.83
11.281,-15.18
11.296,-7.39
11.312,0.73
11.328,8.45
11.343,15.3
11.359,21.04
11.375,25.64
11.390,29.16
11.406,31.73
11.421,33.49
11.437,34.66
11.453,35.56
11.468,36.49
11.484,37.71
11.500,39.22
11.515,40.83
11.531,42.23
11.546,43.3
11.562,44.18
11.578,45.22
11.593,46.75
11.609,48.8
11.625,50.96
11.640,52.62
11.656,53.23
11.671,52.64
11.687,51.13
11.703,49.28
11.718,47.6
11.734,46.38
11.750,45.54
11.765,44.75
11.781,43.4
11.796,40.81
11.812,36.17
11.828,28.81
11.843,18.48
11.859,5.58
11.875,-8.82
11.890,-23.37
11.906,-37.03
11.921,-49.61
11.937,-61.79
11.953,-74.78
11.968,-89.53
11.984,-106.02
12.000,-123.1
12.015,-138.74
12.031,-150.73
12.046,-157.21
12.062,-157.1
12.078,-150.09
12.093,-136.51
12.109,-117.26
12.125,-93.64
12.140,-67.28
12.156,-40.03
12.171,-13.6
12.187,10.54
12.203,31.43
12.218,48.57
12.234,61.77
12.250,70.99
12.265,76.3
12.281,77.92
12.296,76.3
12.312,72.17
12.328,66.3
12.343,59.4
12.359,51.89
12.375,44.03
12.390,35.98
12.406,27.98
12.421,20.41
12.437,13.86
12.453,8.96
12.468,6.15
12.484,5.62
12.500,7.25
12.515,10.68
12.531,15.29
12.546,20.23
12.562,24.57
12.578,27.65
12.593,29.35
12.609,30.13
12.625,30.53
12.640,30.66
12.656,29.78
12.671,26.48
12.687,19.35
12.703,7.92
12.718,-6.83
12.734,-22.69
12.750,-37.21
12.765,-48.76
12.781,-56.97
12.796,-62.36
12.812,-65.42
12.828,-65.93
12.843,-63.09
12.859,-56.37
12.875,-46.4
12.890,-35.33
12.906,-26.25
12.921,-21.78
12.937,-22.83
12.953,-28.05
12.968,-34.48
12.984,-38.92
13.000,-39.38
13.015,-35.61
13.031,-28.7
13.046,-19.89
13.062,-9.84
13.078,1.51
13.093,14.31
13.109,27.86
13.125,40.11
13.140,48.04
13.156,48.95
13.171,42.11
13.187,29.43
13.203,15.01
13.218,3.37
13.234,-2.34
13.250,-1.46
13.265,4.5
13.281,13.2
13.296,22.72
13.312,32.32
13.328,42.02
13.343,51.53
13.359,59.54
13.375,63.72
13.390,61.87
13.406,53.36
13.421,39.9
13.437,24.83
13.453,11.51
13.468,1.61
13.484,-5.36
13.500,-11.06
13.515,-16.64
13.531,-21.44
13.546,-23.15
13.562,-19.35
13.578,-9.7
13.593,2.8
13.609,12.72
13.625,14.57
13.640,5.88
13.656,-11.34
13.671,-31.44
13.687,-47.72
13.703,-55.5
13.718,-53.96
13.734,-45.77
13.750,-35.2
13.765,-25.74
13.781,-18.48
13.796,-12.07
13.812,-4.08
13.828,7.29
13.843,21.9
13.859,37.49
13.875,50.71
13.890,58.53
13.906,59.5
13.921,54.4
13.937,45.91
13.953,37.63
13.968,32.71
13.984,32.74
14.000,37.31
14.015,44.17
14.031,50.18
14.046,52.42
14.062,49.22
14.078,40.68
14.093,28.39
14.109,14.73
14.125,1.85
14.140,-8.98
14.156,-17.52
14.171,-24.19
14.187,-29.32
14.203,-32.74
14.218,-33.69
14.234,-31.58
14.250,-26.67
14.265,-20.61
14.281,-16.09
14.296,-15.8
14.312,-21.38
14.328,-32.56
14.343,-47.29
14.359,-62.58
14.375,-75.58
14.390,-84.48
14.406,-88.73
14.421,-88.69
14.437,-84.93
14.453,-77.75
14.468,-67.13
14.484,-53.16
14.500,-36.32
14.515,-17.68
14.531,1.25
14.546,19.07
14.562,34.88
14.578,48.51
14.593,60.4
14.609,71.19
14.625,81.31
14.640,90.78
14.656,99.12
14.671,105.48
14.687,108.97
14.703,108.91
14.718,105.17
14.734,98.41
14.750,89.94
14.765,81.39
14.781,74.02
14.796,68.2
14.812,63.22
14.828,57.68
14.843,50.27
14.859,40.59
14.875,29.54
14.890,18.9
14.906,10.46
14.921,4.98
14.937,1.62
14.953,-1.77
14.968,-7.8
14.984,-18.43
15.000,-34.11
15.015,-53.58
15.031,-74.33
15.046,-93.5
15.062,-108.77
15.078,-119.07
15.093,-124.7
15.109,-126.86
15.125,-127.1
15.140,-126.49
15.156,-125.19
15.171,-122.55
15.187,-117.5
15.203,-109.23
15.218,-97.75
15.234,-84.01
15.250,-69.47
15.265,-55.55
15.281,-43.08
15.296,-32.1
15.312,-22.2
15.328,-12.9
15.343,-3.94
15.359,4.56
15.375,12.31
15.390,19.11
15.406,24.97
15.421,30.07
15.437,34.63
15.453,38.64
15.468,41.91
15.484,44.1
15.500,45.07
15.515,44.95
15.531,44.21
15.546,43.51
15.562,43.46
15.578,44.34
15.593,45.98
15.609,47.88
15.625,49.29
15.640,49.63
15.656,48.67
15.671,46.58
15.687,43.91
15.703,41.25
15.718,39.13
15.734,37.77
15.750,37.06
15.765,36.61
15.781,35.77
15.796,33.89
15.812,30.34
15.828,24.74
15.843,16.93
15.859,7.01
15.875,-4.7
15.890,-17.63
15.906,-30.89
15.921,-43.24
15.937,-53.0
15.953,-58.37
15.968,-57.81
15.984,-50.55
16.000,-36.89
16.015,-17.91
16.031,4.8
16.046,29.84
16.062,56.33
16.078,83.98
16.093,112.72
16.109,142.31
16.125,171.95
16.140,200.26
16.156,225.53
16.171,246.06
16.187,260.69
16.203,268.99
16.218,271.35
16.234,268.64
16.250,261.86
16.265,251.74
16.281,238.43
16.296,221.57
16.312,200.53
16.328,174.87
16.343,144.79
16.359,111.3
16.375,76.06
16.390,41.07
16.406,7.9
16.421,-22.74
16.437,-51.15
16.453,-78.61
16.468,-106.81
16.484,-137.22
16.500,-170.63
16.515,-206.63
16.531,-243.49
16.546,-278.41
16.562,-308.02
16.578,-329.05
16.593,-339.17
16.609,-337.61
16.625,-325.45
16.640,-305.42
16.656,-281.07
16.671,-255.66
16.687,-231.39
16.703,-209.03
16.718,-188.22
16.734,-168.39
16.750,-149.44
16.765,-131.92
16.781,-116.65
16.796,-103.86
16.812,-92.8
16.828,-82.05
16.843,-70.39
16.859,-57.67
16.875,-45.17
16.890,-35.0
16.906,-28.97
16.921,-27.86
16.937,-31.17
16.953,-37.64
16.968,-45.99
16.984,-55.22
17.000,-64.51
17.015,-73.12
17.031,-80.29
17.046,-85.71
17.062,-89.82
17.078,-93.68
17.093,-98.34
17.109,-103.93
17.125,-109.16
17.140,-111.57
17.156,-108.62
17.171,-98.34
17.187,-80.0
17.203,-53.97
17.218,-21.6
17.234,14.71
17.250,51.22
17.265,83.13
17.281,105.47
17.296,114.75
17.312,110.56
17.328,95.91
17.343,76.02
17.359,56.15
17.375,39.77
17.390,27.79
17.406,19.61
17.421,14.68
17.437,13.48
17.453,17.46
17.468,27.73
17.484,43.73
17.500,62.56
17.515,79.77
17.531,90.93
17.546,93.46
17.562,87.7
17.578,76.69
17.593,65.13
17.609,57.65
17.625,57.34
17.640,64.98
17.656,79.06
17.671,96.46
17.687,113.42
17.703,126.47
17.718,132.93
17.734,131.32
17.750,121.46
17.765,104.61
17.781,83.31
17.796,60.98
17.812,40.98
17.828,25.81
17.843,16.39
17.859,11.98
17.875,10.75
17.890,10.43
17.906,8.98
17.921,5.09
17.937,-1.78
17.953,-11.55
17.968,-23.75
17.984,-37.64
18.000,-52.36
18.015,-66.87
18.031,-80.01
18.046,-90.7
18.062,-98.19
18.078,-102.3
18.093,-103.48
18.109,-102.59
18.125,-100.61
18.140,-98.14
18.156,-95.31
18.171,-91.8
18.187,-87.13
18.203,-81.04
18.218,-73.69
18.234,-65.65
18.250,-57.76
18.265,-50.84
18.281,-45.4
18.296,-41.46
18.312,-38.56
18.328,-35.85
18.343,-32.3
18.359,-26.85
18.375,-18.63
18.390,-7.16
18.406,7.42
18.421,24.21
18.437,41.49
18.453,57.02
18.468,68.62
18.484,74.78
18.500,75.16
18.515,70.56
18.531,62.57
18.546,52.83
18.562,42.53
18.578,32.18
18.593,21.84
18.609,11.47
18.625,1.13
18.640,-9.0
18.656,-18.91
18.671,-28.91
18.687,-39.53
18.703,-51.31
18.718,-64.33
18.734,-78.06
18.750,-91.3
18.765,-102.6
18.781,-110.75
18.796,-115.21
18.812,-116.32
18.828,-115.08
18.843,-112.8
18.859,-110.6
18.875,-109.14
18.890,-108.66
18.906,-109.19
18.921,-110.71
18.937,-113.12
18.953,-115.93
18.968,-118.02
18.984,-117.49
19.000,-112.22
19.015,-100.37
19.031,-81.17
19.046,-55.1
19.062,-23.56
19.078,11.61
19.093,48.83
19.109,86.84
19.125,124.44
19.140,160.02
19.156,191.49
19.171,216.46
19.187,233.02
19.203,240.31
19.218,238.77
19.234,229.98
19.250,216.02
19.265,199.04
19.281,180.81
19.296,162.71
19.312,145.73
19.328,130.56
19.343,117.49
19.359,106.27
19.375,96.28
19.390,86.65
19.406,76.65
19.421,66.0
19.437,55.07
19.453,44.78
19.468,36.34
19.484,30.89
19.500,29.0
19.515,30.47
19.531,34.27
19.546,38.88
19.562,42.74
19.578,44.71
19.593,44.3
19.609,41.66
19.625,37.35
19.640,32.05
19.656,26.42
19.671,21.0
19.687,16.14
19.703,11.99
19.718,8.39
19.734,5.0
19.750,1.39
19.765,-2.59
19.781,-6.76
19.796,-10.53
19.812,-13.18
19.828,-14.18
19.843,-13.46
19.859,-11.52
19.875,-9.34
19.890,-7.99
19.906,-8.38
19.921,-10.9
19.937,-15.42
19.953,-21.35
19.968,-27.81
19.984,-33.91
20.000,-38.96
20.015,-42.6
20.031,-44.85
20.046,-46.1
20.062,-47.01
20.078,-48.31
20.093,-50.57
20.109,-53.83
20.125,-57.53
20.140,-60.52
20.156,-61.47
20.171,-59.3
20.187,-53.66
20.203,-45.01
20.218,-34.43
20.234,-23.32
20.250,-12.91
20.265,-4.19
20.281,2.25
20.296,6.09
20.312,7.23
20.328,5.82
20.343,2.34
20.359,-2.35
20.375,-7.18
20.390,-11.1
20.406,-13.51
20.421,-14.22
20.437,-13.64
20.453,-12.37
20.468,-10.91
20.484,-9.49
20.500,-8.08
20.515,-6.58
20.531,-5.1
20.546,-4.0
20.562,-3.66
20.578,-4.38
20.593,-6.16
20.609,-8.63
20.625,-11.31
20.640,-13.71
20.656,-15.62
20.671,-17.06
20.687,-18.38
20.703,-20.01
20.718,-22.41
20.734,-25.82
20.750,-30.14
20.765,-34.86
20.781,-39.09
20.796,-41.84
20.812,-42.23
20.828,-39.79
20.843,-34.5
20.859,-26.79
20.875,-17.43
20.890,-7.33
20.906,2.45
20.921,11.05
20.937,17.81
20.953,22.51
20.968,25.33
20.984,26.8
21.000,27.52
21.015,27.88
21.031,27.92
21.046,27.34
21.062,25.84
21.078,23.32
21.093,20.09
21.109,16.7
21.125,13.75
21.140,11.55
21.156,10.09
21.171,9.12
21.187,8.27
21.203,7.29
21.218,5.98
21.234,4.23
21.250,1.94
21.265,-0.91
21.281,-4.18
21.296,-7.62
21.312,-10.88
21.328,-13.8
21.343,-16.45
21.359,-19.15
21.375,-22.22
21.390,-25.81
21.406,-29.7
21.421,-33.28
21.437,-35.85
21.453,-36.76
21.468,-35.66
21.484,-32.55
21.500,-27.65
21.515,-21.37
21.531,-14.23
21.546,-6.74
21.562,0.54
21.578,7.09
21.593,12.48
21.609,16.34
21.625,18.52
21.640,19.11
21.656,18.44
21.671,17.0
21.687,15.31
21.703,13.86
21.718,12.86
21.734,12.38
21.750,12.19
21.765,12.03
21.781,11.68
21.796,11.12
21.812,10.52
21.828,10.07
21.843,9.93
21.859,9.96
21.875,9.92
21.890,9.42
21.906,8.17
21.921,6.11
21.937,3.35
21.953,0.17
21.968,-3.12
21.984,-6.25
22.000,-9.12
22.015,-11.68
22.031,-14.06
22.046,-16.48
22.062,-19.12
22.078,-22.0
22.093,-24.83
22.109,-26.93
22.125,-27.39
22.140,-25.42
22.156,-20.64
22.171,-13.31
22.187,-4.3
22.203,5.38
22.218,14.78
22.234,23.49
22.250,31.49
22.265,38.98
22.281,46.07
22.296,52.55
22.312,58.03
22.328,62.11
22.343,64.8
22.359,66.47
22.375,67.8
22.390,69.48
22.406,71.92
22.421,75.15
22.437,78.86
22.453,82.56
22.468,85.77
22.484,88.12
22.500,89.25
22.515,88.86
22.531,86.78
22.546,82.95
22.562,77.53
22.578,70.84
22.593,63.26
22.609,55.11
22.625,46.61
22.640,37.84
22.656,28.85
22.671,19.79
22.687,10.99
22.703,2.93
22.718,-3.87
22.734,-9.12
22.750,-13.05
22.765,-16.36
22.781,-20.17
22.796,-25.45
22.812,-32.73
22.828,-41.73
22.843,-51.54
22.859,-60.93
22.875,-68.85
22.890,-74.69
22.906,-78.25
22.921,-79.61
22.937,-78.98
22.953,-76.59
22.968,-72.79
22.984,-68.11
23.000,-63.14
23.015,-58.45
23.031,-54.37
23.046,-50.86
23.062,-47.7
23.078,-44.62
23.093,-41.48
23.109,-38.33
23.125,-35.33
23.140,-32.68
23.156,-30.54
23.171,-29.05
23.187,-28.23
23.203,-28.03
23.218,-28.21
23.234,-28.39
23.250,-28.21
23.265,-27.35
23.281,-25.65
23.296,-23.18
23.312,-20.15
23.328,-16.86
23.343,-13.69
23.359,-11.02
23.375,-9.26
23.390,-8.75
23.406,-9.68
23.421,-11.99
23.437,-15.38
23.453,-19.37
23.468,-23.35
23.484,-26.75
23.500,-29.04
23.515,-29.8
23.531,-28.81
23.546,-26.07
23.562,-21.89
23.578,-16.69
23.593,-10.91
23.609,-4.77
23.625,1.76
23.640,8.89
23.656,16.74
23.671,25.1
23.687,33.4
23.703,40.85
23.718,46.66
23.734,50.32
23.750,51.78
23.765,51.3
23.781,49.44
23.796,46.87
23.812,44.26
23.828,42.32
23.843,41.54
23.859,42.05
23.875,43.57
23.890,45.37
23.906,46.47
23.921,45.94
23.937,43.21
23.953,38.09
23.968,30.79
23.984,21.71
24.000,11.28
24.015,-0.16
24.031,-12.28
24.046,-24.7
24.062,-36.82
24.078,-47.92
24.093,-57.29
24.109,-64.52
24.125,-69.77
24.140,-73.9
24.156,-78.17
24.171,-83.89
24.187,-91.77
24.203,-101.61
24.218,-112.38
24.234,-122.65
24.250,-131.22
24.265,-137.59
24.281,-141.97
24.296,-144.89
24.312,-146.75
24.328,-147.5
24.343,-146.51
24.359,-143.01
24.375,-136.11
24.390,-124.84
24.406,-107.92
24.421,-83.99
24.437,-52.28
24.453,-13.58
24.468,29.19
24.484,71.36
24.500,108.11
24.515,136.24
24.531,155.43
24.546,167.88
24.562,176.7
24.578,183.97
24.593,189.64
24.609,191.94
24.625,188.9
24.640,180.04
24.656,166.98
24.671,152.73
24.687,140.25
24.703,131.12
24.718,125.09
24.734,120.71
24.750,116.27
24.765,110.73
24.781,103.94
24.796,96.33
24.812,88.32
24.828,79.87
24.843,70.54
24.859,59.9
24.875,48.0
24.890,35.68
24.906,24.39
24.921,15.71
24.937,10.66
24.953,9.29
24.968,10.7
24.984,13.46
25.000,16.14
25.015,17.81
25.031,18.21
25.046,17.58
25.062,16.39
25.078,15.07
25.093,13.87
25.109,12.81
25.125,11.86
25.140,10.91
25.156,9.85
25.171,8.63
25.187,7.26
25.203,5.78
25.218,4.31
25.234,2.94
25.250,1.74
25.265,0.65
25.281,-0.4
25.296,-1.57
25.312,-2.98
25.328,-4.66
25.343,-6.52
25.359,-8.38
25.375,-10.09
25.390,-11.55
25.406,-12.84
25.421,-14.09
25.437,-15.44
25.453,-16.98
25.468,-18.73
25.484,-20.65
25.500,-22.63
25.515,-24.6
25.531,-26.44
25.546,-28.02
25.562,-29.17
25.578,-29.66
25.593,-29.23
25.609,-27.68
25.625,-24.9
25.640,-20.86
25.656,-15.72
25.671,-9.82
25.687,-3.62
25.703,2.28
25.718,7.27
25.734,10.9
25.750,12.95
25.765,13.45
25.781,12.76
25.796,11.32
25.812,9.63
25.828,8.0
25.843,6.59
25.859,5.36
25.875,4.24
25.890,3.14
25.906,2.02
25.921,0.87
25.937,-0.34
25.953,-1.58
25.968,-2.8
25.984,-3.85
26.000,-4.58
26.015,-4.85
26.031,-4.74
26.046,-4.43
26.062,-4.22
26.078,-4.36
26.093,-4.96
26.109,-5.98
26.125,-7.28
26.140,-8.76
26.156,-10.4
26.171,-12.29
26.187,-14.51
26.203,-17.03
26.218,-19.76
26.234,-22.4
26.250,-24.64
26.265,-26.11
26.281,-26.46
26.296,-25.45
26.312,-22.96
26.328,-19.09
26.343,-14.16
26.359,-8.63
26.375,-3.0
26.390,2.29
26.406,6.92
26.421,10.7
26.437,13.5
26.453,15.17
26.468,15.65
26.484,14.98
26.500,13.38
26.515,11.28
26.531,9.12
26.546,7.32
26.562,6.04
26.578,5.26
26.593,4.77
26.609,4.32
26.625,3.71
26.640,2.9
26.656,1.92
26.671,0.84
26.687,-0.16
26.703,-1.04
26.718,-1.79
26.734,-2.57
26.750,-3.52
26.765,-4.73
26.781,-6.11
26.796,-7.49
26.812,-8.67
26.828,-9.52
26.843,-10.19
26.859,-10.95
26.875,-12.12
26.890,-13.92
26.906,-16.34
26.921,-19.19
26.937,-22.16
26.953,-24.92
26.968,-27.1
26.984,-28.3
27.000,-28.06
27.015,-26.0
27.031,-22.02
27.046,-16.37
27.062,-9.7
27.078,-2.8
27.093,3.6
27.109,8.99
27.125,13.14
27.140,16.01
27.156,17.59
27.171,17.87
27.187,16.93
27.203,14.96
27.218,12.4
27.234,9.79
27.250,7.62
27.265,6.2
27.281,5.58
27.296,5.64
27.312,6.1
27.328,6.7
27.343,7.15
27.359,7.22
27.375,6.72
27.390,5.59
27.406,3.93
27.421,1.98
27.437,0.06
27.453,-1.57
27.468,-2.74
27.484,-3.51
27.500,-4.01
27.515,-4.41
27.531,-4.87
27.546,-5.49
27.562,-6.37
27.578,-7.66
27.593,-9.48
27.609,-11.83
27.625,-14.6
27.640,-17.56
27.656,-20.44
27.671,-23.09
27.687,-25.44
27.703,-27.3
27.718,-28.36
27.734,-28.09
27.750,-25.98
27.765,-21.79
27.781,-15.78
27.796,-8.68
27.812,-1.44
27.828,5.13
27.843,10.57
27.859,14.72
27.875,17.69
27.890,19.57
27.906,20.4
27.921,20.27
27.937,19.36
27.953,18.02
27.968,16.66
27.984,15.58
28.000,14.91
28.015,14.53
28.031,14.21
28.046,13.68
28.062,12.75
28.078,11.34
28.093,9.48
28.109,7.34
28.125,5.15
28.140,3.2
28.156,1.73
28.171,0.73
28.187,-0.04
28.203,-0.89
28.218,-2.2
28.234,-4.1
28.250,-6.48
28.265,-9.1
28.281,-11.69
28.296,-14.19
28.312,-16.69
28.328,-19.38
28.343,-22.31
28.359,-25.41
28.375,-28.42
28.390,-31.15
28.406,-33.43
28.421,-35.14
28.437,-36.1
28.453,-35.99
28.468,-34.39
28.484,-30.92
28.500,-25.58
28.515,-18.71
28.531,-11.0
28.546,-3.25
28.562,3.89
28.578,9.98
28.593,14.91
28.609,18.72
28.625,21.54
28.640,23.41
28.656,24.37
28.671,24.46
28.687,23.76
28.703,22.47
28.718,20.81
28.734,19.03
28.750,17.29
28.765,15.64
28.781,14.11
28.796,12.7
28.812,11.41
28.828,10.25
28.843,9.21
28.859,8.2
28.875,7.17
28.890,6.01
28.906,4.64
28.921,3.09
28.937,1.41
28.953,-0.32
28.968,-2.09
28.984,-3.97
29.000,-6.08
29.015,-8.53
29.031,-11.28
29.046,-14.19
29.062,-16.95
29.078,-19.27
29.093,-21.08
29.109,-22.52
29.125,-23.98
29.140,-25.82
29.156,-28.14
29.171,-30.62
29.187,-32.58
29.203,-33.2
29.218,-31.83
29.234,-28.21
29.250,-22.48
29.265,-15.16
29.281,-6.95
29.296,1.45
29.312,9.41
29.328,16.49
29.343,22.4
29.359,26.98
29.375,30.2
29.390,32.0
29.406,32.42
29.421,31.46
29.437,29.27
29.453,26.13
29.468,22.48
29.484,18.87
29.500,15.81
29.515,13.66
29.531,12.49
29.546,12.13
29.562,12.24
29.578,12.47
29.593,12.52
29.609,12.22
29.625,11.44
29.640,10.05
29.656,7.99
29.671,5.23
29.687,1.93
29.703,-1.66
29.718,-5.14
29.734,-8.14
29.750,-10.39
29.765,-11.8
29.781,-12.56
29.796,-12.96
29.812,-13.43
29.828,-14.34
29.843,-16.01
29.859,-18.64
29.875,-22.19
29.890,-26.46
29.906,-30.94
29.921,-34.93
29.937,-37.6
29.953,-38.21
29.968,-36.26
29.984,-31.64
30.000,-24.67
30.015,-16.01
30.031,-6.58
30.046,2.7
30.062,11.01
30.078,17.75
30.093,22.6
30.109,25.49
30.125,26.63
30.140,26.4
30.156,25.26
30.171,23.66
30.187,21.93
30.203,20.3
30.218,18.89
30.234,17.66
30.250,16.58
30.265,15.61
30.281,14.7
30.296,13.82
30.312,12.88
30.328,11.76
30.343,10.37
30.359,8.73
30.375,6.93
30.390,5.18
30.406,3.62
30.421,2.28
30.437,1.1
30.453,-0.08
30.468,-1.36
30.484,-2.71
30.500,-4.04
30.515,-5.25
30.531,-6.42
30.546,-7.78
30.562,-9.66
30.578,-12.3
30.593,-15.75
30.609,-19.83
30.625,-24.15
30.640,-28.17
30.656,-31.27
30.671,-32.81
30.687,-32.27
30.703,-29.34
30.718,-24.01
30.734,-16.68
30.750,-8.09
30.765,0.82
30.781,9.12
30.796,15.99
30.812,21.05
30.828,24.19
30.843,25.61
30.859,25.7
30.875,24.91
30.890,23.62
30.906,22.16
30.921,20.76
30.937,19.56
30.953,18.68
30.968,18.09
30.984,17.7
31.000,17.32
31.015,16.73
31.031,15.76
31.046,14.36
31.062,12.62
31.078,10.73
31.093,8.93
31.109,7.37
31.125,6.07
31.140,4.99
31.156,3.97
31.171,2.86
31.187,1.57
31.203,0.03
31.218,-1.83
31.234,-4.08
31.250,-6.8
31.265,-10.02
31.281,-13.6
31.296,-17.3
31.312,-20.83
31.328,-23.95
31.343,-26.54
31.359,-28.58
31.375,-30.0
31.390,-30.7
31.406,-30.42
31.421,-28.84
31.437,-25.63
31.453,-20.69
31.468,-14.13
31.484,-6.41
31.500,1.83
31.515,9.89
31.531,17.15
31.546,23.18
31.562,27.76
31.578,30.82
31.593,32.39
31.609,32.61
31.625,31.67
31.640,29.86
31.656,27.52
31.671,25.01
31.687,22.6
31.703,20.5
31.718,18.81
31.734,17.61
31.750,16.93
31.765,16.69
31.781,16.71
31.796,16.74
31.812,16.5
31.828,15.8
31.843,14.58
31.859,12.88
31.875,10.83
31.890,8.6
31.906,6.25
31.921,3.81
31.937,1.27
31.953,-1.42
31.968,-4.26
31.984,-7.14
32.000,-9.93
32.015,-12.47
32.031,-14.66
32.046,-16.47
32.062,-18.04
32.078,-19.61
32.093,-21.52
32.109,-24.03
32.125,-27.27
32.140,-31.06
32.156,-34.94
32.171,-38.14
32.187,-39.79
32.203,-39.14
32.218,-35.81
32.234,-29.88
32.250,-21.9
32.265,-12.67
32.281,-3.07
32.296,6.08
32.312,14.16
32.328,20.73
32.343,25.54
32.359,28.52
32.375,29.78
32.390,29.61
32.406,28.41
32.421,26.68
32.437,24.86
32.453,23.25
32.468,21.99
32.484,21.02
32.500,20.2
32.515,19.42
32.531,18.62
32.546,17.89
32.562,17.31
32.578,16.85
32.593,16.34
32.609,15.46
32.625,13.93
32.640,11.69
32.656,8.96
32.671,6.09
32.687,3.47
32.703,1.25
32.718,-0.6
32.734,-2.25
32.750,-3.89
32.765,-5.56
32.781,-7.25
32.796,-8.93
32.812,-10.67
32.828,-12.64
32.843,-14.96
32.859,-17.66
32.875,-20.53
32.890,-23.35
32.906,-25.93
32.921,-28.34
32.937,-30.76
32.953,-33.35
32.968,-36.05
32.984,-38.4
33.000,-39.68
33.015,-39.07
33.031,-36.03
33.046,-30.52
33.062,-23.02
33.078,-14.41
33.093,-5.61
33.109,2.58
33.125,9.75
33.140,15.74
33.156,20.62
33.171,24.43
33.187,27.22
33.203,28.96
33.218,29.67
33.234,29.43
33.250,28.41
33.265,26.86
33.281,25.07
33.296,23.23
33.312,21.48
33.328,19.86
33.343,18.34
33.359,16.89
33.375,15.49
33.390,14.15
33.406,12.9
33.421,11.79
33.437,10.85
33.453,10.07
33.468,9.33
33.484,8.52
33.500,7.49
33.515,6.18
33.531,4.51
33.546,2.48
33.562,0.05
33.578,-2.77
33.593,-5.91
33.609,-9.21
33.625,-12.42
33.640,-15.25
33.656,-17.5
33.671,-19.11
33.687,-20.18
33.703,-20.92
33.718,-21.56
33.734,-22.22
33.750,-23.06
33.765,-24.23
33.781,-25.93
33.796,-28.31
33.812,-31.33
33.828,-34.57
33.843,-37.25
33.859,-38.4
33.875,-37.12
33.890,-32.96
33.906,-26.14
33.921,-17.48
33.937,-8.09
33.953,0.97
33.968,9.02
33.984,15.77
34.000,21.21
34.015,25.4
34.031,28.34
34.046,29.97
34.062,30.35
34.078,29.74
34.093,28.63
34.109,27.53
34.125,26.79
34.140,26.4
34.156,26.12
34.171,25.56
34.187,24.51
34.203,22.97
34.218,21.09
34.234,19.1
34.250,17.2
34.265,15.52
34.281,14.14
34.296,13.1
34.312,12.28
34.328,11.56
34.343,10.71
34.359,9.53
34.375,7.93
34.390,5.98
34.406,3.87
34.421,1.79
34.437,-0.2
34.453,-2.17
34.468,-4.27
34.484,-6.68
34.500,-9.39
34.515,-12.27
34.531,-15.07
34.546,-17.51
34.562,-19.42
34.578,-20.74
34.593,-21.6
34.609,-22.26
34.625,-23.06
34.640,-24.31
34.656,-26.22
34.671,-28.83
34.687,-31.99
34.703,-35.28
34.718,-38.11
34.734,-39.74
34.750,-39.49
34.765,-36.88
34.781,-31.86
34.796,-24.8
34.812,-16.49
34.828,-7.88
34.843,0.17
34.859,7.12
34.875,12.79
34.890,17.28
34.906,20.7
34.921,23.01
34.937,24.08
34.953,23.79
34.968,22.34
34.984,20.22
35.000,18.13
35.015,16.66
35.031,16.05
35.046,16.07
35.062,16.22
35.078,16.12
35.093,15.64
35.109,15.0
35.125,14.52
35.140,14.36
35.156,14.4
35.171,14.21
35.187,13.29
35.203,11.37
35.218,8.62
35.234,5.49
35.250,2.61
35.265,0.42
35.281,-0.96
35.296,-1.75
35.312,-2.38
35.328,-3.24
35.343,-4.53
35.359,-6.17
35.375,-7.98
35.390,-9.72
35.406,-11.37
35.421,-13.07
35.437,-15.03
35.453,-17.41
35.468,-20.15
35.484,-23.03
35.500,-25.75
35.515,-28.17
35.531,-30.17
35.546,-31.77
35.562,-32.99
35.578,-33.7
35.593,-33.64
35.609,-32.42
35.625,-29.72
35.640,-25.44
35.656,-19.82
35.671,-13.27
35.687,-6.37
35.703,0.4
35.718,6.79
35.734,12.68
35.750,17.95
35.765,22.42
35.781,25.74
35.796,27.56
35.812,27.69
35.828,26.3
35.843,23.83
35.859,20.95
35.875,18.24
35.890,16.1
35.906,14.71
35.921,14.05
35.937,13.99
35.953,14.34
35.968,14.91
35.984,15.4
36.000,15.57
36.015,15.13
36.031,13.99
36.046,12.25
36.062,10.2
36.078,8.16
36.093,6.48
36.109,5.24
36.125,4.34
36.140,3.51
36.156,2.46
36.171,1.05
36.187,-0.65
36.203,-2.41
36.218,-4.04
36.234,-5.48
36.250,-6.89
36.265,-8.57
36.281,-10.76
36.296,-13.57
36.312,-16.89
36.328,-20.51
36.343,-24.16
36.359,-27.6
36.375,-30.6
36.390,-32.84
36.406,-33.94
36.421,-33.5
36.437,-31.24
36.453,-27.13
36.468,-21.47
36.484,-14.79
36.500,-7.71
36.515,-0.8
36.531,5.48
36.546,10.85
36.562,15.18
36.578,18.47
36.593,20.83
36.609,22.41
36.625,23.33
36.640,23.64
36.656,23.36
36.671,22.54
36.687,21.33
36.703,20.03
36.718,18.95
36.734,18.23
36.750,17.78
36.765,17.24
36.781,16.26
36.796,14.72
36.812,12.84
36.828,11.13
36.843,10.06
36.859,9.83
36.875,10.16
36.890,10.55
36.906,10.47
36.921,9.69
36.937,8.33
36.953,6.67
36.968,4.93
36.984,3.08
37.000,0.92
37.015,-1.75
37.031,-4.89
37.046,-8.21
37.062,-11.27
37.078,-13.66
37.093,-15.26
37.109,-16.21
37.125,-16.84
37.140,-17.58
37.156,-18.76
37.171,-20.58
37.187,-23.13
37.203,-26.31
37.218,-29.9
37.234,-33.55
37.250,-36.72
37.265,-38.8
37.281,-39.14
37.296,-37.22
37.312,-32.77
37.328,-25.91
37.343,-17.13
37.359,-7.26
37.375,2.7
37.390,11.83
37.406,19.39
37.421,25.04
37.437,28.76
37.453,30.75
37.468,31.25
37.484,30.54
37.500,28.81
37.515,26.37
37.531,23.75
37.546,21.55
37.562,20.26
37.578,20.05
37.593,20.65
37.609,21.47
37.625,21.95
37.640,21.78
37.656,21.09
37.671,20.26
37.687,19.59
37.703,19.21
37.718,18.87
37.734,18.23
37.750,17.08
37.765,15.44
37.781,13.61
37.796,11.94
37.812,10.64
37.828,9.59
37.843,8.48
37.859,6.89
37.875,4.47
37.890,1.23
37.906,-2.64
37.921,-6.75
37.937,-10.73
37.953,-14.36
37.968,-17.65
37.984,-20.67
38.000,-23.49
38.015,-26.11
38.031,-28.46
38.046,-30.47
38.062,-32.28
38.078,-34.09
38.093,-36.06
38.109,-38.09
38.125,-39.66
38.140,-40.02
38.156,-38.37
38.171,-34.26
38.187,-27.81
38.203,-19.72
38.218,-11.1
38.234,-3.0
38.250,3.96
38.265,9.63
38.281,14.25
38.296,18.12
38.312,21.38
38.328,23.89
38.343,25.43
38.359,25.9
38.375,25.46
38.390,24.53
38.406,23.56
38.421,22.84
38.437,22.33
38.453,21.8
38.468,20.96
38.484,19.66
38.500,17.99
38.515,16.22
38.531,14.62
38.546,13.47
38.562,12.82
38.578,12.58
38.593,12.49
38.609,12.26
38.625,11.58
38.640,10.31
38.656,8.4
38.671,5.93
38.687,3.04
38.703,-0.15
38.718,-3.45
38.734,-6.69
38.750,-9.71
38.765,-12.37
38.781,-14.63
38.796,-16.6
38.812,-18.43
38.828,-20.3
38.843,-22.28
38.859,-24.4
38.875,-26.63
38.890,-29.02
38.906,-31.65
38.921,-34.56
38.937,-37.67
38.953,-40.81
38.968,-43.63
38.984,-45.76
39.000,-46.8
39.015,-46.34
39.031,-44.01
39.046,-39.56
39.062,-32.98
39.078,-24.61
39.093,-15.21
39.109,-5.68
39.125,3.04
39.140,10.39
39.156,16.1
39.171,20.21
39.187,22.9
39.203,24.35
39.218,24.77
39.234,24.38
39.250,23.5
39.265,22.46
39.281,21.58
39.296,20.97
39.312,20.56
39.328,20.15
39.343,19.5
39.359,18.5
39.375,17.19
39.390,15.75
39.406,14.44
39.421,13.47
39.437,12.95
39.453,12.8
39.468,12.81
39.484,12.62
39.500,11.95
39.515,10.59
39.531,8.5
39.546,5.81
39.562,2.69
39.578,-0.6
39.593,-3.91
39.609,-7.09
39.625,-9.99
39.640,-12.45
39.656,-14.36
39.671,-15.64
39.687,-16.41
39.703,-16.92
39.718,-17.41
39.734,-18.15
39.750,-19.29
39.765,-20.93
39.781,-23.12
39.796,-25.84
39.812,-28.91
39.828,-31.94
39.843,-34.3
39.859,-35.24
39.875,-34.09
39.890,-30.51
39.906,-24.65
39.921,-17.08
39.937,-8.66
39.953,-0.28
39.968,7.31
39.984,13.59
40.000,18.26
40.015,21.28
40.031,22.8
40.046,23.21
40.062,23.0
40.078,22.72
40.093,22.72
40.109,23.12
40.125,23.73
40.140,24.19
40.156,24.16
40.171,23.5
40.187,22.39
40.203,21.13
40.218,20.04
40.234,19.18
40.250,18.39
40.265,17.4
40.281,16.0
40.296,14.17
40.312,12.14
40.328,10.22
40.343,8.63
40.359,7.41
40.375,6.41
40.390,5.44
40.406,4.33
40.421,3.01
40.437,1.43
40.453,-0.41
40.468,-2.63
40.484,-5.34
40.500,-8.59
40.515,-12.33
40.531,-16.27
40.546,-19.94
40.562,-22.84
40.578,-24.66
40.593,-25.45
40.609,-25.7
40.625,-26.07
40.640,-27.07
40.656,-28.76
40.671,-30.57
40.687,-31.53
40.703,-30.72
40.718,-27.71
40.734,-22.65
40.750,-16.22
40.765,-9.22
40.781,-2.18
40.796,4.63
40.812,11.15
40.828,17.29
40.843,22.79
40.859,27.25
40.875,30.28
40.890,31.74
40.906,31.81
40.921,30.92
40.937,29.53
40.953,28.0
40.968,26.37
40.984,24.54
41.000,22.4
41.015,19.95
41.031,17.43
41.046,15.15
41.062,13.46
41.078,12.41
41.093,11.81
41.109,11.3
41.125,10.56
41.140,9.5
41.156,8.23
41.171,6.98
41.187,5.83
41.203,4.67
41.218,3.24
41.234,1.37
41.250,-0.93
41.265,-3.44
41.281,-5.78
41.296,-7.65
41.312,-8.95
41.328,-9.78
41.343,-10.31
41.359,-10.71
41.375,-11.05
41.390,-11.34
41.406,-11.66
41.421,-12.21
41.437,-13.31
41.453,-15.2
41.468,-17.88
41.484,-20.91
41.500,-23.35
41.515,-24.08
41.531,-22.09
41.546,-16.97
41.562,-9.11
41.578,0.39
41.593,10.06
41.609,18.61
41.625,25.23
41.640,29.78
41.656,32.55
41.671,33.93
41.687,34.24
41.703,33.61
41.718,32.1
41.734,29.89
41.750,27.36
41.765,24.97
41.781,23.06
41.796,21.71
41.812,20.66
41.828,19.48
41.843,17.83
41.859,15.57
41.875,12.84
41.890,9.96
41.906,7.2
41.921,4.65
41.937,2.2
41.953,-0.37
41.968,-3.16
41.984,-6.12
42.000,-8.92
42.015,-11.22
42.031,-12.78
42.046,-13.68
42.062,-14.17
42.078,-14.64
42.093,-15.43
42.109,-16.6
42.125,-18.08
42.140,-19.64
42.156,-21.01
42.171,-22.0
42.187,-22.5
42.203,-22.39
42.218,-21.56
42.234,-19.98
42.250,-17.68
42.265,-14.96
42.281,-12.18
42.296,-9.73
42.312,-7.78
42.328,-6.16
42.343,-4.38
42.359,-1.87
42.375,1.8
42.390,6.74
42.406,12.66
42.421,19.08
42.437,25.53
42.453,31.63
42.468,37.17
42.484,42.0
42.500,45.93
42.515,48.8
42.531,50.59
42.546,51.44
42.562,51.59
42.578,51.29
42.593,50.46
42.609,48.86
42.625,46.06
42.640,41.82
42.656,36.31
42.671,30.11
42.687,24.04
42.703,18.79
42.718,14.67
42.734,11.45
42.750,8.56
42.765,5.35
42.781,1.52
42.796,-2.73
42.812,-6.66
42.828,-9.44
42.843,-10.59
42.859,-10.31
42.875,-9.53
42.890,-9.43
42.906,-10.89
42.921,-14.03
42.937,-18.25
42.953,-22.55
42.968,-26.16
42.984,-28.89
43.000,-31.15
43.015,-33.6
43.031,-36.73
43.046,-40.66
43.062,-45.09
43.078,-49.63
43.093,-54.01
43.109,-58.06
43.125,-61.68
43.140,-64.56
43.156,-66.24
43.171,-66.27
43.187,-64.44
43.203,-60.87
43.218,-56.11
43.234,-50.76
43.250,-45.27
43.265,-39.8
43.281,-34.25
43.296,-28.5
43.312,-22.63
43.328,-17.07
43.343,-12.41
43.359,-9.23
43.375,-7.73
43.390,-7.64
43.406,-8.3
43.421,-8.9
43.437,-8.81
43.453,-7.85
43.468,-6.24
43.484,-4.43
43.500,-2.84
43.515,-1.61
43.531,-0.51
43.546,0.77
43.562,2.48
43.578,4.56
43.593,6.53
43.609,7.72
43.625,7.56
43.640,5.84
43.656,2.79
43.671,-1.01
43.687,-4.94
43.703,-8.59
43.718,-11.83
43.734,-14.81
43.750,-17.6
43.765,-20.05
43.781,-21.87
43.796,-22.8
43.812,-22.92
43.828,-22.77
43.843,-23.17
43.859,-24.84
43.875,-28.11
43.890,-32.73
43.906,-38.05
43.921,-43.32
43.937,-47.88
43.953,-51.19
43.968,-52.83
43.984,-52.33
44.000,-49.36
44.015,-44.01
44.031,-37.0
44.046,-29.63
44.062,-23.45
44.078,-19.74
44.093,-18.98
44.109,-20.9
44.125,-24.59
44.140,-28.95
44.156,-33.15
44.171,-36.88
44.187,-40.18
44.203,-43.32
44.218,-46.48
44.234,-49.63
44.250,-52.58
44.265,-54.9
44.281,-55.87
44.296,-54.41
44.312,-49.1
44.328,-38.47
44.343,-21.45
44.359,2.04
44.375,30.78
44.390,62.31
44.406,93.48
44.421,121.25
44.437,143.49
44.453,159.25
44.468,168.68
44.484,172.51
44.500,171.62
44.515,166.69
44.531,158.25
44.546,146.91
44.562,133.55
44.578,119.29
44.593,105.26
44.609,92.28
44.625,80.66
44.640,70.17
44.656,60.35
44.671,50.77
44.687,41.36
44.703,32.31
44.718,23.96
44.734,16.5
44.750,9.81
44.765,3.5
44.781,-2.92
44.796,-9.64
44.812,-16.34
44.828,-22.2
44.843,-26.18
44.859,-27.4
44.875,-25.63
44.890,-21.34
44.906,-15.58
44.921,-9.61
44.937,-4.35
44.953,-0.17
44.968,3.08
44.984,5.8
45.000,8.34
45.015,10.68
45.031,12.48
45.046,13.25
45.062,12.69
45.078,10.9
45.093,8.33
45.109,5.64
45.125,3.42
45.140,1.96
45.156,1.25
45.171,1.09
45.187,1.32
45.203,1.88
45.218,2.81
45.234,4.02
45.250,5.2
45.265,5.78
45.281,5.18
45.296,3.08
45.312,-0.34
45.328,-4.46
45.343,-8.5
45.359,-11.76
45.375,-14.02
45.390,-15.39
45.406,-16.2
45.421,-16.74
45.437,-17.13
45.453,-17.34
45.468,-17.37
45.484,-17.45
45.500,-17.92
45.515,-19.13
45.531,-21.23
45.546,-24.12
45.562,-27.49
45.578,-31.04
45.593,-34.48
45.609,-37.57
45.625,-39.98
45.640,-41.21
45.656,-40.73
45.671,-38.1
45.687,-33.22
45.703,-26.37
45.718,-18.17
45.734,-9.42
45.750,-0.91
45.765,6.7
45.781,12.93
45.796,17.52
45.812,20.46
45.828,21.96
45.843,22.31
45.859,21.86
45.875,20.87
45.890,19.59
45.906,18.25
45.921,17.07
45.937,16.3
45.953,16.01
45.968,16.16
45.984,16.45
46.000,16.51
46.015,16.0
46.031,14.82
46.046,13.03
46.062,10.89
46.078,8.7
46.093,6.67
46.109,4.99
46.125,3.66
46.140,2.71
46.156,2.08
46.171,1.7
46.187,1.42
46.203,1.01
46.218,0.22
46.234,-1.2
46.250,-3.36
46.265,-6.19
46.281,-9.39
46.296,-12.62
46.312,-15.51
46.328,-17.84
46.343,-19.58
46.359,-20.81
46.375,-21.75
46.390,-22.66
46.406,-23.74
46.421,-25.12
46.437,-26.69
46.453,-28.13
46.468,-28.91
46.484,-28.48
46.500,-26.49
46.515,-22.87
46.531,-17.88
46.546,-12.02
46.562,-5.82
46.578,0.25
46.593,5.8
46.609,10.64
46.625,14.6
46.640,17.62
46.656,19.75
46.671,21.12
46.687,21.87
46.703,22.09
46.718,21.74
46.734,20.75
46.750,19.08
46.765,16.88
46.781,14.49
46.796,12.37
46.812,10.96
46.828,10.51
46.843,10.98
46.859,12.07
46.875,13.34
46.890,14.36
46.906,14.83
46.921,14.61
46.937,13.74
46.953,12.3
46.968,10.42
46.984,8.21
47.000,5.67
47.015,2.83
47.031,-0.2
47.046,-3.24
47.062,-6.03
47.078,-8.33
47.093,-10.05
47.109,-11.29
47.125,-12.32
47.140,-13.41
47.156,-14.75
47.171,-16.31
47.187,-17.89
47.203,-19.36
47.218,-20.73
47.234,-22.19
47.250,-24.05
47.265,-26.53
47.281,-29.67
47.296,-33.27
47.312,-37.0
47.328,-40.4
47.343,-42.98
47.359,-44.17
47.375,-43.39
47.390,-40.2
47.406,-34.52
47.421,-26.78
47.437,-17.8
47.453,-8.67
47.468,-0.34
47.484,6.6
47.500,11.97
47.515,15.9
47.531,18.68
47.546,20.59
47.562,21.83
47.578,22.54
47.593,22.8
47.609,22.67
47.625,22.16
47.640,21.31
47.656,20.17
47.671,18.88
47.687,17.59
47.703,16.43
47.718,15.47
47.734,14.65
47.750,13.9
47.765,13.12
47.781,12.21
47.796,11.2
47.812,10.17
47.828,9.24
47.843,8.54
47.859,8.04
47.875,7.56
47.890,6.89
47.906,5.81
47.921,4.25
47.937,2.3
47.953,0.13
47.968,-2.19
47.984,-4.65
48.000,-7.33
48.015,-10.28
48.031,-13.42
48.046,-16.48
48.062,-19.16
48.078,-21.24
48.093,-22.69
48.109,-23.69
48.125,-24.52
48.140,-25.47
48.156,-26.74
48.171,-28.42
48.187,-30.54
48.203,-33.12
48.218,-36.0
48.234,-38.91
48.250,-41.36
48.265,-42.64
48.281,-42.08
48.296,-39.25
48.312,-34.14
48.328,-27.28
48.343,-19.61
48.359,-12.14
48.375,-5.57
48.390,-0.13
48.406,4.43
48.421,8.52
48.437,12.44
48.453,16.21
48.468,19.47
48.484,21.76
48.500,22.74
48.515,22.44
48.531,21.21
48.546,19.69
48.562,18.51
48.578,18.07
48.593,18.44
48.609,19.34
48.625,20.35
48.640,21.07
48.656,21.24
48.671,20.81
48.687,19.89
48.703,18.54
48.718,16.77
48.734,14.54
48.750,11.8
48.765,8.66
48.781,5.41
48.796,2.43
48.812,0.08
48.828,-1.46
48.843,-2.32
48.859,-2.85
48.875,-3.5
48.890,-4.65
48.906,-6.43
48.921,-8.77
48.937,-11.4
48.953,-14.11
48.968,-16.73
48.984,-19.29
49.000,-21.89
49.015,-24.6
49.031,-27.41
49.046,-30.18
49.062,-32.82
49.078,-35.23
49.093,-37.38
49.109,-39.16
49.125,-40.26
49.140,-40.14
49.156,-38.19
49.171,-33.99
49.187,-27.55
49.203,-19.41
49.218,-10.54
49.234,-2.03
49.250,5.25
49.265,10.87
49.281,14.94
49.296,17.87
49.312,20.16
49.328,22.13
49.343,23.83
49.359,25.06
49.375,25.61
49.390,25.35
49.406,24.37
49.421,22.9
49.437,21.24
49.453,19.56
49.468,17.93
49.484,16.34
49.500,14.89
49.515,13.73
49.531,13.1
49.546,13.14
49.562,13.69
49.578,14.36
49.593,14.61
49.609,13.99
49.625,12.37
49.640,10.04
49.656,7.51
49.671,5.25
49.687,3.5
49.703,2.13
49.718,0.75
49.734,-0.98
49.750,-3.24
49.765,-5.92
49.781,-8.66
49.796,-11.1
49.812,-13.03
49.828,-14.34
49.843,-15.13
49.859,-15.56
49.875,-15.82
49.890,-16.16
49.906,-16.82
49.921,-18.06
49.937,-19.96
49.953,-22.36
49.968,-24.73
49.984,-26.32
50.000,-26.22
50.015,-23.77
50.031,-18.79
50.046,-11.67
50.062,-3.32
50.078,5.12
50.093,12.69
50.109,18.76
50.125,23.16
50.140,26.01
50.156,27.56
50.171,28.01
50.187,27.56
50.203,26.43
50.218,24.93
50.234,23.4
50.250,22.12
50.265,21.23
50.281,20.7
50.296,20.38
50.312,20.07
50.328,19.64
50.343,19.06
50.359,18.38
50.375,17.71
50.390,17.13
50.406,16.63
50.421,16.1
50.437,15.26
50.453,13.8
50.468,11.55
50.484,8.55
50.500,5.18
50.515,1.97
50.531,-0.64
50.546,-2.45
50.562,-3.61
50.578,-4.53
50.593,-5.68
50.609,-7.41
50.625,-9.85
50.640,-12.89
50.656,-16.3
50.671,-19.85
50.687,-23.43
50.703,-27.05
50.718,-30.75
50.734,-34.54
50.750,-38.17
50.765,-41.27
50.781,-43.22
50.796,-43.45
50.812,-41.51
50.828,-37.25
50.843,-30.91
50.859,-23.0
50.875,-14.27
50.890,-5.52
50.906,2.46
50.921,9.11
50.937,14.13
50.953,17.55
50.968,19.61
50.984,20.66
51.000,21.03
51.015,20.97
51.031,20.66
51.046,20.16
51.062,19.6
51.078,19.07
51.093,18.77
51.109,18.82
51.125,19.24
51.140,19.96
51.156,20.74
51.171,21.28
51.187,21.3
51.203,20.69
51.218,19.55
51.234,18.16
51.250,16.8
51.265,15.62
51.281,14.58
51.296,13.42
51.312,11.95
51.328,10.07
51.343,7.99
51.359,6.02
51.375,4.41
51.390,3.17
51.406,1.98
51.421,0.33
51.437,-2.25
51.453,-5.92
51.468,-10.42
51.484,-15.11
51.500,-19.22
51.515,-22.25
51.531,-24.13
51.546,-25.28
51.562,-26.39
51.578,-28.09
51.593,-30.61
51.609,-33.66
51.625,-36.62
51.640,-38.73
51.656,-39.42
51.671,-38.37
51.687,-35.58
51.703,-31.21
51.718,-25.53
51.734,-18.87
51.750,-11.59
51.765,-4.16
51.781,3.0
51.796,9.5
51.812,15.11
51.828,19.72
51.843,23.36
51.859,26.03
51.875,27.8
51.890,28.72
51.906,28.93
51.921,28.64
51.937,28.11
51.953,27.61
51.968,27.27
51.984,27.1
52.000,27.08
52.015,27.11
52.031,27.1
52.046,27.0
52.062,26.75
52.078,26.29
52.093,25.57
52.109,24.64
52.125,23.56
52.140,22.38
52.156,21.02
52.171,19.31
52.187,17.03
52.203,14.1
52.218,10.65
52.234,7.05
52.250,3.74
52.265,1.07
52.281,-0.88
52.296,-2.31
52.312,-3.56
52.328,-4.91
52.343,-6.54
52.359,-8.46
52.375,-10.6
52.390,-12.89
52.406,-15.3
52.421,-17.92
52.437,-20.86
52.453,-24.2
52.468,-27.85
52.484,-31.57
52.500,-34.89
52.515,-37.32
52.531,-38.36
52.546,-37.68
52.562,-35.16
52.578,-30.86
52.593,-24.99
52.609,-17.89
52.625,-10.06
52.640,-2.09
52.656,5.37
52.671,11.77
52.687,16.75
52.703,20.32
52.718,22.7
52.734,24.25
52.750,25.22
52.765,25.66
52.781,25.53
52.796,24.76
52.812,23.43
52.828,21.86
52.843,20.47
52.859,19.56
52.875,19.15
52.890,18.96
52.906,18.57
52.921,17.64
52.937,16.12
52.953,14.21
52.968,12.3
52.984,10.7
53.000,9.61
53.015,8.92
53.031,8.46
53.046,8.04
53.062,7.53
53.078,6.91
53.093,6.18
53.109,5.37
53.125,4.4
53.140,3.17
53.156,1.42
53.171,-1.0
53.187,-4.23
53.203,-8.11
53.218,-12.3
53.234,-16.24
53.250,-19.38
53.265,-21.42
53.281,-22.36
53.296,-22.6
53.312,-22.72
53.328,-23.3
53.343,-24.72
53.359,-26.99
53.375,-29.85
53.390,-32.8
53.406,-35.23
53.421,-36.47
53.437,-35.96
53.453,-33.33
53.468,-28.52
53.484,-21.81
53.500,-13.78
53.515,-5.19
53.531,3.17
53.546,10.62
53.562,16.74
53.578,21.4
53.593,24.64
53.609,26.65
53.625,27.65
53.640,27.8
53.656,27.13
53.671,25.74
53.687,23.66
53.703,21.15
53.718,18.61
53.734,16.47
53.750,15.08
53.765,14.57
53.781,14.79
53.796,15.44
53.812,16.24
53.828,17.01
53.843,17.64
53.859,18.07
53.875,18.15
53.890,17.63
53.906,16.22
53.921,13.75
53.937,10.33
53.953,6.36
53.968,2.47
53.984,-0.82
54.000,-3.12
54.015,-4.49
54.031,-5.23
54.046,-5.84
54.062,-6.68
54.078,-7.91
54.093,-9.45
54.109,-11.12
54.125,-12.85
54.140,-14.67
54.156,-16.87
54.171,-19.68
54.187,-23.08
54.203,-26.68
54.218,-29.78
54.234,-31.53
54.250,-31.25
54.265,-28.75
54.281,-24.24
54.296,-18.34
54.312,-11.75
54.328,-5.02
54.343,1.47
54.359,7.5
54.375,12.85
54.390,17.28
54.406,20.53
54.421,22.49
54.437,23.2
54.453,22.94
54.468,22.13
54.484,21.1
54.500,20.13
54.515,19.32
54.531,18.66
54.546,18.14
54.562,17.72
54.578,17.33
54.593,16.98
54.609,16.66
54.625,16.29
54.640,15.77
54.656,14.93
54.671,13.58
54.687,11.58
54.703,8.92
54.718,5.78
54.734,2.57
54.750,-0.21
54.765,-2.19
54.781,-3.3
54.796,-3.83
54.812,-4.32
54.828,-5.32
54.843,-7.07
54.859,-9.46
54.875,-12.06
54.890,-14.45
54.906,-16.42
54.921,-18.05
54.937,-19.59
54.953,-21.3
54.968,-23.29
54.984,-25.49
55.000,-27.73
55.015,-29.83
55.031,-31.64
55.046,-32.88
55.062,-33.17
55.078,-32.07
55.093,-29.21
55.109,-24.52
55.125,-18.29
55.140,-11.19
55.156,-4.04
55.171,2.42
55.187,7.76
55.203,11.9
55.218,15.05
55.234,17.55
55.250,19.66
55.265,21.52
55.281,23.05
55.296,24.13
55.312,24.72
55.328,24.76
55.343,24.31
55.359,23.42
55.375,22.21
55.390,20.76
55.406,19.17
55.421,17.54
55.437,15.96
55.453,14.53
55.468,13.28
55.484,12.19
55.500,11.19
55.515,10.22
55.531,9.21
55.546,8.08
55.562,6.81
55.578,5.4
55.593,3.95
55.609,2.62
55.625,1.52
55.640,0.68
55.656,-0.04
55.671,-0.94
55.687,-2.41
55.703,-4.72
55.718,-7.93
55.734,-11.76
55.750,-15.69
55.765,-19.18
55.781,-21.84
55.796,-23.61
55.812,-24.78
55.828,-25.8
55.843,-27.11
55.859,-28.91
55.875,-31.11
55.890,-33.27
55.906,-34.8
55.921,-35.09
55.937,-33.76
55.953,-30.69
55.968,-26.06
55.984,-20.25
56.000,-13.72
56.015,-6.93
56.031,-0.18
56.046,6.21
56.062,12.06
56.078,17.13
56.093,21.21
56.109,24.18
56.125,26.04
56.140,26.91
56.156,27.01
56.171,26.5
56.187,25.46
56.203,23.92
56.218,21.89
56.234,19.55
56.250,17.21
56.265,15.22
56.281,13.84
56.296,13.08
56.312,12.75
56.328,12.54
56.343,12.19
56.359,11.67
56.375,11.07
56.390,10.57
56.406,10.2
56.421,9.77
56.437,8.96
56.453,7.47
56.468,5.26
56.484,2.55
56.500,-0.17
56.515,-2.39
56.531,-3.88
56.546,-4.78
56.562,-5.53
56.578,-6.61
56.593,-8.26
56.609,-10.39
56.625,-12.67
56.640,-14.73
56.656,-16.39
56.671,-17.77
56.687,-19.2
56.703,-21.0
56.718,-23.41
56.734,-26.39
56.750,-29.69
56.765,-32.86
56.781,-35.41
56.796,-36.84
56.812,-36.76
56.828,-34.86
56.843,-30.98
56.859,-25.2
56.875,-17.84
56.890,-9.46
56.906,-0.82
56.921,7.21
56.937,13.87
56.953,18.71
56.968,21.72
56.984,23.3
57.000,24.03
57.015,24.52
57.031,25.11
57.046,25.87
57.062,26.59
57.078,27.01
57.093,26.96
57.109,26.42
57.125,25.54
57.140,24.4
57.156,23.08
57.171,21.47
57.187,19.47
57.203,17.09
57.218,14.55
57.234,12.24
57.250,10.53
57.265,9.56
57.281,9.09
57.296,8.65
57.312,7.71
57.328,6.07
57.343,3.9
57.359,1.68
57.375,-0.18
57.390,-1.53
57.406,-2.58
57.421,-3.82
57.437,-5.69
57.453,-8.33
57.468,-11.53
57.484,-14.78
57.500,-17.59
57.515,-19.65
57.531,-20.94
57.546,-21.64
57.562,-22.12
57.578,-22.74
57.593,-23.76
57.609,-25.29
57.625,-27.32
57.640,-29.74
57.656,-32.33
57.671,-34.84
57.687,-36.96
57.703,-38.38
57.718,-38.66
57.734,-37.35
57.750,-34.03
57.765,-28.55
57.781,-21.13
57.796,-12.49
57.812,-3.66
57.828,4.35
57.843,10.77
57.859,15.33
57.875,18.21
57.890,19.78
57.906,20.37
57.921,20.17
57.937,19.23
57.953,17.63
57.968,15.65
57.984,13.7
58.000,12.21
58.015,11.42
58.031,11.28
58.046,11.62
58.062,12.23
58.078,13.04
58.093,14.11
58.109,15.51
58.125,17.13
58.140,18.62
58.156,19.48
58.171,19.25
58.187,17.79
58.203,15.33
58.218,12.4
58.234,9.66
58.250,7.67
58.265,6.74
58.281,6.92
58.296,7.97
58.312,9.57
58.328,11.33
58.343,12.92
58.359,14.0
58.375,14.38
58.390,13.97
58.406,12.78
58.421,11.0
58.437,8.96
58.453,7.08
58.468,5.76
58.484,5.29
58.500,5.73
58.515,6.99
58.531,8.75
58.546,10.78
58.562,12.93
58.578,15.27
58.593,18.04
58.609,21.53
58.625,26.03
58.640,31.65
58.656,38.27
58.671,45.46
58.687,52.54
58.703,58.66
58.718,62.93
58.734,64.57
58.750,63.22
58.765,58.97
58.781,52.49
58.796,44.82
58.812,37.19
58.828,30.71
58.843,26.1
58.859,23.52
58.875,22.65
58.890,22.82
58.906,23.33
58.921,23.62
58.937,23.44
58.953,22.78
58.968,21.77
58.984,20.55
59.000,19.09
59.015,17.17
59.031,14.46
59.046,10.69
59.062,5.88
59.078,0.36
59.093,-5.3
59.109,-10.69
59.125,-15.85
59.140,-21.25
59.156,-27.57
59.171,-35.17
59.187,-43.73
59.203,-52.22
59.218,-59.25
59.234,-63.78
59.250,-65.5
59.265,-65.04
59.281,-63.57
59.296,-62.22
59.312,-61.65
59.328,-61.78
59.343,-61.96
59.359,-61.33
59.375,-59.23
59.390,-55.38
59.406,-50.05
59.421,-43.83
59.437,-37.36
59.453,-31.21
59.468,-25.64
59.484,-20.66
59.500,-16.11
59.515,-11.71
59.531,-7.16
59.546,-2.18
59.562,3.35
59.578,9.29
59.593,15.06
59.609,19.79
59.625,22.57
59.640,22.88
59.656,20.85
59.671,17.27
59.687,13.25
59.703,9.75
59.718,7.29
59.734,5.98
59.750,5.87
59.765,7.17
59.781,10.21
59.796,15.18
59.812,21.68
59.828,28.48
59.843,33.9
59.859,36.34
59.875,34.94
59.890,30.0
59.906,22.77
59.921,14.96
59.937,8.09
59.953,3.08
59.968,0.2
59.984,-0.71
