timestamp,value
00.000,37.61
00.015,48.2
00.031,59.19
00.046,69.84
00.062,79.83
00.078,89.12
00.093,97.73
00.109,105.54
00.125,112.16
00.140,117.18
00.156,120.23
00.171,121.18
00.187,120.06
00.203,116.98
00.218,111.95
00.234,104.86
00.250,95.58
00.265,84.03
00.281,70.37
00.296,55.01
00.312,38.56
00.328,21.83
00.343,5.65
00.359,-9.24
00.375,-22.34
00.390,-33.47
00.406,-42.79
00.421,-50.6
00.437,-57.15
00.453,-62.47
00.468,-66.28
00.484,-68.2
00.500,-68.08
00.515,-66.29
00.531,-63.79
00.546,-61.95
00.562,-62.06
00.578,-64.83
00.593,-70.0
00.609,-76.31
00.625,-81.82
00.640,-84.49
00.656,-82.8
00.671,-76.14
00.687,-64.92
00.703,-50.25
00.718,-33.63
00.734,-16.53
00.750,-0.21
00.765,14.34
00.781,26.4
00.796,35.49
00.812,41.45
00.828,44.44
00.843,44.9
00.859,43.42
00.875,40.66
00.890,37.18
00.906,33.35
00.921,29.45
00.937,25.56
00.953,21.73
00.968,17.96
00.984,14.31
01.000,10.81
01.015,7.43
01.031,4.06
01.046,0.42
01.062,-3.75
01.078,-8.68
01.093,-14.37
01.109,-20.65
01.125,-27.25
01.140,-33.93
01.156,-40.56
01.171,-47.2
01.187,-53.94
01.203,-60.85
01.218,-68.07
01.234,-75.71
01.250,-83.94
01.265,-92.84
01.281,-102.13
01.296,-110.99
01.312,-118.15
01.328,-122.17
01.343,-121.92
01.359,-117.05
01.375,-108.07
01.390,-96.23
01.406,-82.98
01.421,-69.48
01.437,-56.3
01.453,-43.59
01.468,-31.29
01.484,-19.47
01.500,-8.41
01.515,1.45
01.531,9.8
01.546,16.52
01.562,21.71
01.578,25.62
01.593,28.46
01.609,30.38
01.625,31.44
01.640,31.78
01.656,31.61
01.671,31.18
01.687,30.62
01.703,29.83
01.718,28.47
01.734,26.12
01.750,22.34
01.765,16.92
01.781,9.93
01.796,1.69
01.812,-7.32
01.828,-16.47
01.843,-25.19
01.859,-32.92
01.875,-39.24
01.890,-43.86
01.906,-46.65
01.921,-47.54
01.937,-46.42
01.953,-43.12
01.968,-37.5
01.984,-29.63
02.000,-19.96
02.015,-9.22
02.031,1.75
02.046,12.44
02.062,22.81
02.078,33.4
02.093,44.92
02.109,57.86
02.125,72.2
02.140,87.36
02.156,102.55
02.171,117.18
02.187,130.99
02.203,144.08
02.218,156.51
02.234,168.11
02.250,178.27
02.265,186.17
02.281,191.12
02.296,192.83
02.312,191.58
02.328,187.96
02.343,182.46
02.359,175.23
02.375,166.0
02.390,154.33
02.406,139.93
02.421,123.04
02.437,104.48
02.453,85.43
02.468,67.01
02.484,49.98
02.500,34.58
02.515,20.63
02.531,7.8
02.546,-4.24
02.562,-15.75
02.578,-26.92
02.593,-38.01
02.609,-49.36
02.625,-61.32
02.640,-74.14
02.656,-87.89
02.671,-102.36
02.687,-117.07
02.703,-131.31
02.718,-144.21
02.734,-154.7
02.750,-161.74
02.765,-164.49
02.781,-162.54
02.796,-156.18
02.812,-146.3
02.828,-134.29
02.843,-121.66
02.859,-109.73
02.875,-99.4
02.890,-91.06
02.906,-84.55
02.921,-79.29
02.937,-74.5
02.953,-69.34
02.968,-63.26
02.984,-56.14
03.000,-48.32
03.015,-40.49
03.031,-33.32
03.046,-27.14
03.062,-21.84
03.078,-17.03
03.093,-12.24
03.109,-7.27
03.125,-2.21
03.140,2.62
03.156,6.84
03.171,10.19
03.187,12.65
03.203,14.36
03.218,15.58
03.234,16.59
03.250,17.61
03.265,18.79
03.281,20.2
03.296,21.76
03.312,23.39
03.328,25.0
03.343,26.55
03.359,28.04
03.375,29.43
03.390,30.53
03.406,30.97
03.421,30.31
03.437,28.19
03.453,24.64
03.468,20.1
03.484,15.42
03.500,11.54
03.515,9.15
03.531,8.36
03.546,8.73
03.562,9.61
03.578,10.53
03.593,11.47
03.609,12.95
03.625,15.68
03.640,20.21
03.656,26.58
03.671,34.26
03.687,42.3
03.703,49.7
03.718,55.63
03.734,59.59
03.750,61.48
03.765,61.47
03.781,59.93
03.796,57.24
03.812,53.7
03.828,49.47
03.843,44.63
03.859,39.16
03.875,33.12
03.890,26.66
03.906,20.01
03.921,13.4
03.937,7.05
03.953,1.17
03.968,-4.12
03.984,-8.68
04.000,-12.48
04.015,-15.62
04.031,-18.3
04.046,-20.68
04.062,-22.87
04.078,-24.88
04.093,-26.73
04.109,-28.69
04.125,-31.36
04.140,-35.63
04.156,-42.46
04.171,-52.51
04.187,-65.84
04.203,-81.65
04.218,-98.36
04.234,-113.86
04.250,-125.88
04.265,-132.57
04.281,-132.88
04.296,-126.89
04.312,-115.74
04.328,-101.33
04.343,-85.77
04.359,-70.86
04.375,-57.7
04.390,-46.6
04.406,-37.26
04.421,-29.01
04.437,-21.13
04.453,-12.99
04.468,-4.2
04.484,5.46
04.500,15.93
04.515,26.96
04.531,38.13
04.546,48.89
04.562,58.69
04.578,67.05
04.593,73.63
04.609,78.21
04.625,80.76
04.640,81.49
04.656,80.85
04.671,79.59
04.687,78.59
04.703,78.61
04.718,80.04
04.734,82.71
04.750,85.96
04.765,88.92
04.781,90.89
04.796,91.6
04.812,91.27
04.828,90.39
04.843,89.37
04.859,88.2
04.875,86.37
04.890,82.93
04.906,76.84
04.921,67.3
04.937,54.01
04.953,37.38
04.968,18.49
04.984,-0.93
05.000,-18.85
05.015,-33.2
05.031,-42.34
05.046,-45.41
05.062,-42.5
05.078,-34.65
05.093,-23.53
05.109,-10.94
05.125,1.62
05.140,13.29
05.156,23.84
05.171,33.5
05.187,42.63
05.203,51.58
05.218,60.36
05.234,68.74
05.250,76.1
05.265,81.55
05.281,84.1
05.296,82.94
05.312,77.77
05.328,69.05
05.343,58.02
05.359,46.31
05.375,35.5
05.390,26.49
05.406,19.4
05.421,13.64
05.437,8.34
05.453,2.74
05.468,-3.55
05.484,-10.65
05.500,-18.6
05.515,-27.42
05.531,-37.17
05.546,-47.75
05.562,-58.7
05.578,-69.27
05.593,-78.69
05.609,-86.49
05.625,-92.74
05.640,-98.01
05.656,-103.11
05.671,-108.73
05.687,-115.26
05.703,-122.71
05.718,-130.91
05.734,-139.55
05.750,-148.12
05.765,-155.69
05.781,-160.76
05.796,-161.35
05.812,-155.52
05.828,-142.02
05.843,-120.92
05.859,-93.8
05.875,-63.33
05.890,-32.6
05.906,-4.23
05.921,20.13
05.937,39.88
05.953,55.15
05.968,66.32
05.984,73.74
06.000,77.52
06.015,77.82
06.031,74.87
06.046,69.12
06.062,61.12
06.078,51.34
06.093,40.14
06.109,27.73
06.125,14.34
06.140,0.33
06.156,-13.8
06.171,-27.53
06.187,-40.51
06.203,-52.73
06.218,-64.51
06.234,-76.4
06.250,-88.83
06.265,-101.78
06.281,-114.67
06.296,-126.4
06.312,-135.72
06.328,-141.75
06.343,-144.33
06.359,-144.09
06.375,-142.15
06.390,-139.67
06.406,-137.31
06.421,-135.01
06.437,-132.22
06.453,-128.17
06.468,-122.37
06.484,-114.66
06.500,-105.22
06.515,-94.18
06.531,-81.49
06.546,-66.9
06.562,-50.23
06.578,-31.51
06.593,-11.19
06.609,9.98
06.625,31.23
06.640,51.94
06.656,71.77
06.671,90.56
06.687,108.1
06.703,123.94
06.718,137.42
06.734,147.76
06.750,154.37
06.765,157.16
06.781,156.58
06.796,153.56
06.812,149.22
06.828,144.59
06.843,140.4
06.859,137.07
06.875,134.69
06.890,133.27
06.906,132.71
06.921,132.88
06.937,133.57
06.953,134.41
06.968,134.95
06.984,134.77
07.000,133.5
07.015,130.95
07.031,127.08
07.046,122.09
07.062,116.37
07.078,110.55
07.093,105.34
07.109,101.27
07.125,98.34
07.140,95.9
07.156,92.68
07.171,87.16
07.187,78.05
07.203,64.73
07.218,47.48
07.234,27.41
07.250,6.19
07.265,-14.3
07.281,-32.36
07.296,-46.72
07.312,-56.83
07.328,-62.86
07.343,-65.72
07.359,-66.64
07.375,-66.84
07.390,-67.11
07.406,-67.67
07.421,-68.24
07.437,-68.4
07.453,-67.93
07.468,-66.98
07.484,-66.04
07.500,-65.71
07.515,-66.39
07.531,-68.12
07.546,-70.55
07.562,-73.03
07.578,-74.88
07.593,-75.48
07.609,-74.48
07.625,-71.76
07.640,-67.53
07.656,-62.27
07.671,-56.61
07.687,-51.22
07.703,-46.69
07.718,-43.38
07.734,-41.38
07.750,-40.53
07.765,-40.55
07.781,-41.18
07.796,-42.27
07.812,-43.85
07.828,-46.07
07.843,-49.08
07.859,-52.93
07.875,-57.47
07.890,-62.39
07.906,-67.26
07.921,-71.63
07.937,-75.15
07.953,-77.63
07.968,-79.11
07.984,-79.81
08.000,-80.03
08.015,-79.95
08.031,-79.49
08.046,-78.24
08.062,-75.48
08.078,-70.47
08.093,-62.75
08.109,-52.3
08.125,-39.54
08.140,-25.18
08.156,-10.0
08.171,5.38
08.187,20.44
08.203,34.79
08.218,48.01
08.234,59.71
08.250,69.56
08.265,77.43
08.281,83.37
08.296,87.59
08.312,90.34
08.328,91.85
08.343,92.27
08.359,91.67
08.375,90.12
08.390,87.68
08.406,84.43
08.421,80.51
08.437,76.16
08.453,71.72
08.468,67.52
08.484,63.8
08.500,60.58
08.515,57.71
08.531,55.04
08.546,52.53
08.562,50.36
08.578,48.88
08.593,48.39
08.609,48.93
08.625,50.21
08.640,51.67
08.656,52.68
08.671,52.76
08.687,51.65
08.703,49.35
08.718,45.97
08.734,41.73
08.750,36.97
08.765,32.13
08.781,27.7
08.796,24.13
08.812,21.68
08.828,20.33
08.843,19.85
08.859,19.88
08.875,20.04
08.890,20.04
08.906,19.66
08.921,18.82
08.937,17.53
08.953,15.94
08.968,14.26
08.984,12.73
09.000,11.51
09.015,10.6
09.031,9.86
09.046,9.08
09.062,8.06
09.078,6.56
09.093,4.32
09.109,1.12
09.125,-3.22
09.140,-8.6
09.156,-14.64
09.171,-20.82
09.187,-26.59
09.203,-31.73
09.218,-36.24
09.234,-40.35
09.250,-44.16
09.265,-47.59
09.281,-50.4
09.296,-52.43
09.312,-53.79
09.328,-54.89
09.343,-56.26
09.359,-58.15
09.375,-60.35
09.390,-62.13
09.406,-62.65
09.421,-61.25
09.437,-57.89
09.453,-53.2
09.468,-48.22
09.484,-44.17
09.500,-41.94
09.515,-42.02
09.531,-44.3
09.546,-48.06
09.562,-52.17
09.578,-55.19
09.593,-55.83
09.609,-53.14
09.625,-46.91
09.640,-37.64
09.656,-26.46
09.671,-14.72
09.687,-3.66
09.703,5.9
09.718,13.7
09.734,19.87
09.750,24.83
09.765,29.01
09.781,32.8
09.796,36.48
09.812,40.22
09.828,44.12
09.843,48.14
09.859,52.13
09.875,55.74
09.890,58.55
09.906,60.03
09.921,59.77
09.937,57.56
09.953,53.45
09.968,47.76
09.984,40.8
10.000,32.82
10.015,23.69
10.031,13.17
10.046,1.11
10.062,-12.05
10.078,-25.1
10.093,-36.18
10.109,-43.33
10.125,-45.15
10.140,-41.29
10.156,-32.56
10.171,-20.58
10.187,-7.35
10.203,5.17
10.218,15.2
10.234,21.17
10.250,21.85
10.265,16.56
10.281,5.66
10.296,-9.28
10.312,-25.65
10.328,-40.5
10.343,-51.41
10.359,-57.26
10.375,-58.54
10.390,-56.88
10.406,-54.24
10.421,-52.05
10.437,-50.69
10.453,-49.6
10.468,-47.9
10.484,-45.0
10.500,-41.04
10.515,-36.84
10.531,-33.39
10.546,-31.35
10.562,-30.78
10.578,-31.24
10.593,-32.15
10.609,-33.17
10.625,-34.45
10.640,-36.44
10.656,-39.82
10.671,-45.06
10.687,-52.44
10.703,-61.88
10.718,-73.06
10.734,-85.36
10.750,-97.89
10.765,-109.42
10.781,-118.34
10.796,-122.92
10.812,-121.65
10.828,-113.81
10.843,-99.9
10.859,-81.69
10.875,-61.85
10.890,-43.31
10.906,-28.46
10.921,-18.63
10.937,-14.0
10.953,-13.74
10.968,-16.35
10.984,-20.08
11.000,-23.08
11.015,-23.7
11.031,-20.66
11.046,-13.34
11.062,-1.93
11.078,12.59
11.093,28.76
11.109,44.98
11.125,59.87
11.140,72.44
11.156,82.18
11.171,88.94
11.187,92.92
11.203,94.47
11.218,94.07
11.234,92.14
11.250,88.99
11.265,84.67
11.281,79.06
11.296,71.92
11.312,63.05
11.328,52.46
11.343,40.34
11.359,27.07
11.375,13.02
11.390,-1.4
11.406,-15.78
11.421,-29.63
11.437,-42.3
11.453,-53.11
11.468,-61.51
11.484,-67.37
11.500,-71.07
11.515,-73.39
11.531,-75.2
11.546,-77.17
11.562,-79.61
11.578,-82.6
11.593,-86.13
11.609,-90.26
11.625,-95.12
11.640,-100.66
11.656,-106.34
11.671,-111.07
11.687,-113.36
11.703,-111.74
11.718,-105.23
11.734,-93.7
11.750,-77.87
11.765,-58.99
11.781,-38.48
11.796,-17.46
11.812,3.38
11.828,23.76
11.843,43.58
11.859,62.81
11.875,81.25
11.890,98.59
11.906,114.43
11.921,128.21
11.937,139.42
11.953,147.65
11.968,152.75
11.984,154.89
12.000,154.57
12.015,152.42
12.031,149.14
12.046,145.35
12.062,141.64
12.078,138.45
12.093,136.12
12.109,134.73
12.125,134.03
12.140,133.43
12.156,132.23
12.171,129.88
12.187,126.23
12.203,121.6
12.218,116.65
12.234,112.04
12.250,108.19
12.265,105.11
12.281,102.37
12.296,99.24
12.312,94.97
12.328,88.9
12.343,80.76
12.359,70.69
12.375,59.25
12.390,47.26
12.406,35.49
12.421,24.48
12.437,14.4
12.453,5.18
12.468,-3.28
12.484,-10.85
12.500,-17.19
12.515,-21.84
12.531,-24.4
12.546,-24.77
12.562,-23.15
12.578,-19.98
12.593,-15.86
12.609,-11.5
12.625,-7.63
12.640,-4.95
12.656,-4.03
12.671,-5.18
12.687,-8.4
12.703,-13.43
12.718,-19.95
12.734,-27.65
12.750,-36.21
12.765,-45.2
12.781,-53.92
12.796,-61.44
12.812,-66.84
12.828,-69.5
12.843,-69.36
12.859,-67.07
12.875,-63.66
12.890,-60.3
12.906,-57.85
12.921,-56.66
12.937,-56.53
12.953,-56.92
12.968,-57.24
12.984,-57.11
13.000,-56.61
13.015,-56.22
13.031,-56.69
13.046,-58.69
13.062,-62.51
13.078,-67.75
13.093,-73.37
13.109,-77.76
13.125,-79.22
13.140,-76.45
13.156,-68.82
13.171,-56.61
13.187,-40.88
13.203,-23.15
13.218,-5.02
13.234,12.16
13.250,27.46
13.265,40.47
13.281,51.3
13.296,60.41
13.312,68.47
13.328,76.07
13.343,83.58
13.359,90.95
13.375,97.89
13.390,104.02
13.406,109.05
13.421,112.93
13.437,115.92
13.453,118.45
13.468,121.0
13.484,123.97
13.500,127.57
13.515,131.73
13.531,136.15
13.546,140.33
13.562,143.71
13.578,146.02
13.593,147.29
13.609,147.84
13.625,148.2
13.640,148.79
13.656,149.83
13.671,151.28
13.687,152.83
13.703,154.03
13.718,154.34
13.734,153.31
13.750,150.66
13.765,146.47
13.781,141.12
13.796,135.14
13.812,128.86
13.828,122.24
13.843,114.8
13.859,105.96
13.875,95.33
13.890,83.13
13.906,70.17
13.921,57.62
13.937,46.58
13.953,37.83
13.968,31.6
13.984,27.73
14.000,25.78
14.015,25.24
14.031,25.68
14.046,26.71
14.062,28.08
14.078,29.56
14.093,31.07
14.109,32.71
14.125,34.75
14.140,37.53
14.156,41.23
14.171,45.52
14.187,49.47
14.203,51.79
14.218,51.13
14.234,46.71
14.250,38.51
14.265,27.32
14.281,14.28
14.296,0.42
14.312,-13.69
14.328,-28.0
14.343,-42.79
14.359,-58.44
14.375,-75.28
14.390,-93.49
14.406,-113.19
14.421,-134.47
14.437,-157.37
14.453,-181.98
14.468,-208.49
14.484,-237.26
14.500,-268.62
14.515,-302.48
14.531,-337.92
14.546,-373.12
14.562,-405.65
14.578,-432.94
14.593,-452.85
14.609,-463.76
14.625,-464.48
14.640,-454.07
14.656,-432.0
14.671,-398.69
14.687,-355.98
14.703,-307.16
14.718,-256.36
14.734,-207.42
14.750,-162.92
14.765,-123.74
14.781,-89.34
14.796,-58.56
14.812,-30.35
14.828,-4.07
14.843,20.54
14.859,43.59
14.875,65.05
14.890,84.73
14.906,102.06
14.921,116.27
14.937,126.5
14.953,132.28
14.968,133.72
14.984,131.64
15.000,127.39
15.015,122.48
15.031,118.2
15.046,115.31
15.062,113.87
15.078,113.32
15.093,112.85
15.109,111.75
15.125,109.61
15.140,106.53
15.156,102.91
15.171,99.25
15.187,95.82
15.203,92.64
15.218,89.44
15.234,85.87
15.250,81.68
15.265,76.77
15.281,71.3
15.296,65.61
15.312,60.31
15.328,56.45
15.343,55.39
15.359,58.44
15.375,66.18
15.390,78.02
15.406,92.17
15.421,106.39
15.437,119.02
15.453,129.84
15.468,140.17
15.484,151.92
15.500,166.09
15.515,181.59
15.531,195.17
15.546,202.59
15.562,200.41
15.578,187.42
15.593,165.11
15.609,137.05
15.625,107.52
15.640,80.43
15.656,58.82
15.671,44.86
15.687,39.88
15.703,44.11
15.718,55.97
15.734,71.76
15.750,86.11
15.765,93.49
15.781,90.37
15.796,76.84
15.812,56.56
15.828,35.27
15.843,18.25
15.859,8.07
15.875,3.82
15.890,1.94
15.906,-1.84
15.921,-10.57
15.937,-25.03
15.953,-44.05
15.968,-65.52
15.984,-87.5
16.000,-108.79
16.015,-128.81
16.031,-147.03
16.046,-162.45
16.062,-173.6
16.078,-179.27
16.093,-179.48
16.109,-175.77
16.125,-170.85
16.140,-167.24
16.156,-166.01
16.171,-166.13
16.187,-165.01
16.203,-159.94
16.218,-149.51
16.234,-134.33
16.250,-116.52
16.265,-98.68
16.281,-82.81
16.296,-70.14
16.312,-61.29
16.328,-56.88
16.343,-57.54
16.359,-63.56
16.375,-74.38
16.390,-88.35
16.406,-103.03
16.421,-115.85
16.437,-124.73
16.453,-128.39
16.468,-126.48
16.484,-119.27
16.500,-107.43
16.515,-91.84
16.531,-73.29
16.546,-52.65
16.562,-31.07
16.578,-10.29
16.593,7.13
16.609,18.15
16.625,20.23
16.640,12.59
16.656,-3.06
16.671,-22.65
16.687,-41.16
16.703,-54.43
16.718,-60.72
16.734,-61.14
16.750,-58.78
16.765,-56.98
16.781,-57.53
16.796,-59.99
16.812,-62.05
16.828,-60.94
16.843,-54.99
16.859,-44.39
16.875,-31.02
16.890,-17.5
16.906,-6.08
16.921,1.83
16.937,5.67
16.953,5.23
16.968,0.35
16.984,-8.99
17.000,-22.25
17.015,-38.1
17.031,-54.61
17.046,-69.93
17.062,-82.94
17.078,-93.36
17.093,-101.46
17.109,-107.34
17.125,-110.66
17.140,-110.75
17.156,-107.32
17.171,-101.17
17.187,-94.52
17.203,-90.49
17.218,-92.03
17.234,-100.53
17.250,-114.88
17.265,-131.29
17.281,-144.36
17.296,-148.66
17.312,-140.41
17.328,-118.3
17.343,-83.44
17.359,-38.57
17.375,12.86
17.390,67.27
17.406,121.17
17.421,171.02
17.437,213.27
17.453,244.67
17.468,262.91
17.484,267.18
17.500,258.41
17.515,239.03
17.531,212.28
17.546,181.44
17.562,149.07
17.578,116.75
17.593,85.06
17.609,54.16
17.625,24.35
17.640,-3.55
17.656,-28.16
17.671,-47.93
17.687,-61.72
17.703,-69.15
17.718,-70.61
17.734,-67.0
17.750,-59.4
17.765,-48.84
17.781,-36.37
17.796,-23.15
17.812,-10.38
17.828,0.82
17.843,9.71
17.859,16.17
17.875,20.67
17.890,23.86
17.906,26.2
17.921,27.72
17.937,28.18
17.953,27.55
17.968,26.43
17.984,26.19
18.000,28.59
18.015,35.11
18.031,46.3
18.046,61.48
18.062,78.96
18.078,96.31
18.093,110.72
18.109,119.32
18.125,119.36
18.140,108.56
18.156,85.66
18.171,50.92
18.187,6.41
18.203,-44.04
18.218,-95.46
18.234,-142.62
18.250,-181.05
18.265,-207.77
18.281,-221.71
18.296,-223.53
18.312,-215.12
18.328,-198.97
18.343,-177.57
18.359,-153.19
18.375,-127.83
18.390,-103.29
18.406,-81.15
18.421,-62.48
18.437,-47.6
18.453,-35.87
18.468,-25.94
18.484,-16.14
18.500,-5.26
18.515,7.1
18.531,20.35
18.546,33.08
18.562,43.4
18.578,49.41
18.593,49.62
18.609,43.29
18.625,30.81
18.640,13.74
18.656,-5.39
18.671,-23.59
18.687,-38.19
18.703,-47.48
18.718,-51.0
18.734,-49.46
18.750,-44.24
18.765,-36.7
18.781,-27.74
18.796,-17.7
18.812,-6.43
18.828,6.21
18.843,20.1
18.859,34.68
18.875,48.94
18.890,61.7
18.906,71.95
18.921,79.1
18.937,83.04
18.953,84.22
18.968,83.44
18.984,81.54
19.000,79.28
19.015,77.11
19.031,75.12
19.046,73.19
19.062,71.04
19.078,68.42
19.093,65.22
19.109,61.47
19.125,57.3
19.140,52.84
19.156,48.18
19.171,43.29
19.187,38.23
19.203,33.03
19.218,27.79
19.234,22.71
19.250,18.1
19.265,14.56
19.281,13.0
19.296,14.51
19.312,19.97
19.328,29.6
19.343,42.56
19.359,57.05
19.375,70.75
19.390,81.58
19.406,88.38
19.421,91.24
19.437,91.13
19.453,89.41
19.468,87.22
19.484,85.21
19.500,83.53
19.515,82.11
19.531,80.77
19.546,79.35
19.562,77.68
19.578,75.5
19.593,72.6
19.609,68.92
19.625,64.75
19.640,60.7
19.656,57.53
19.671,55.7
19.687,55.18
19.703,55.31
19.718,54.84
19.734,52.38
19.750,46.76
19.765,37.37
19.781,24.33
19.796,8.55
19.812,-8.59
19.828,-25.48
19.843,-40.76
19.859,-53.71
19.875,-64.4
19.890,-73.57
19.906,-82.1
19.921,-90.39
19.937,-97.83
19.953,-102.73
19.968,-102.66
19.984,-95.37
20.000,-79.67
20.015,-55.88
20.031,-25.87
20.046,7.52
20.062,41.3
20.078,73.08
20.093,101.37
20.109,125.69
20.125,146.29
20.140,163.85
20.156,179.31
20.171,193.49
20.187,206.86
20.203,219.16
20.218,229.14
20.234,234.58
20.250,232.77
20.265,221.47
20.281,199.87
20.296,169.16
20.312,132.35
20.328,93.23
20.343,55.03
20.359,19.39
20.375,-13.87
20.390,-45.96
20.406,-77.89
20.421,-109.58
20.437,-139.76
20.453,-166.69
20.468,-189.27
20.484,-207.71
20.500,-223.32
20.515,-237.63
20.531,-251.31
20.546,-263.51
20.562,-272.21
20.578,-275.13
20.593,-270.83
20.609,-259.34
20.625,-242.0
20.640,-220.82
20.656,-197.67
20.671,-173.92
20.687,-150.31
20.703,-127.38
20.718,-105.55
20.734,-85.38
20.750,-67.37
20.765,-51.92
20.781,-39.17
20.796,-29.06
20.812,-21.38
20.828,-15.74
20.843,-11.71
20.859,-8.69
20.875,-6.04
20.890,-3.13
20.906,0.47
20.921,4.97
20.937,10.29
20.953,16.13
20.968,22.06
20.984,27.57
21.000,32.18
21.015,35.54
21.031,37.5
21.046,38.09
21.062,37.45
21.078,35.71
21.093,32.9
21.109,29.01
21.125,24.08
21.140,18.39
21.156,12.41
21.171,6.73
21.187,1.92
21.203,-1.67
21.218,-4.0
21.234,-5.29
21.250,-5.92
21.265,-6.46
21.281,-7.55
21.296,-9.76
21.312,-13.35
21.328,-17.92
21.343,-22.41
21.359,-25.33
21.375,-25.38
21.390,-22.09
21.406,-16.25
21.421,-9.69
21.437,-4.67
21.453,-2.91
21.468,-4.99
21.484,-10.19
21.500,-16.86
21.515,-23.11
21.531,-27.52
21.546,-29.39
21.562,-28.71
21.578,-25.82
21.593,-20.99
21.609,-14.31
21.625,-5.87
21.640,4.06
21.656,14.69
21.671,24.84
21.687,33.34
21.703,39.5
21.718,43.47
21.734,46.12
21.750,48.66
21.765,51.99
21.781,56.42
21.796,61.72
21.812,67.29
21.828,72.48
21.843,76.65
21.859,78.96
21.875,78.33
21.890,73.73
21.906,64.69
21.921,51.89
21.937,37.27
21.953,23.59
21.968,13.38
21.984,8.05
22.000,7.39
22.015,9.86
22.031,13.37
22.046,16.07
22.062,16.9
22.078,15.56
22.093,12.26
22.109,7.48
22.125,1.83
22.140,-3.92
22.156,-8.85
22.171,-12.02
22.187,-12.83
22.203,-11.25
22.218,-7.98
22.234,-4.25
22.250,-1.38
22.265,-0.27
22.281,-1.16
22.296,-3.42
22.312,-5.9
22.328,-7.47
22.343,-7.45
22.359,-5.94
22.375,-3.74
22.390,-1.84
22.406,-1.04
22.421,-1.61
22.437,-3.2
22.453,-5.16
22.468,-6.9
22.484,-8.17
22.500,-9.16
22.515,-10.32
22.531,-12.14
22.546,-15.04
22.562,-19.31
22.578,-25.18
22.593,-32.8
22.609,-42.22
22.625,-53.13
22.640,-64.67
22.656,-75.32
22.671,-83.25
22.687,-86.77
22.703,-85.05
22.718,-78.4
22.734,-68.27
22.750,-56.71
22.765,-45.6
22.781,-36.05
22.796,-28.23
22.812,-21.59
22.828,-15.3
22.843,-8.81
22.859,-2.02
22.875,4.73
22.890,10.99
22.906,16.46
22.921,21.17
22.937,25.42
22.953,29.67
22.968,34.45
22.984,40.24
23.000,47.43
23.015,56.1
23.031,65.81
23.046,75.4
23.062,83.11
23.078,86.94
23.093,85.36
23.109,77.83
23.125,65.04
23.140,48.7
23.156,30.9
23.171,13.54
23.187,-2.1
23.203,-15.35
23.218,-25.96
23.234,-33.9
23.250,-39.22
23.265,-42.27
23.281,-43.75
23.296,-44.73
23.312,-46.45
23.328,-49.87
23.343,-55.46
23.359,-62.99
23.375,-71.58
23.390,-79.92
23.406,-86.55
23.421,-90.08
23.437,-89.46
23.453,-84.1
23.468,-73.94
23.484,-59.58
23.500,-42.12
23.515,-22.97
23.531,-3.6
23.546,14.68
23.562,30.89
23.578,44.45
23.593,55.11
23.609,62.93
23.625,68.21
23.640,71.41
23.656,73.06
23.671,73.75
23.687,73.9
23.703,73.72
23.718,73.16
23.734,71.88
23.750,69.47
23.765,65.57
23.781,60.1
23.796,53.33
23.812,45.87
23.828,38.46
23.843,31.79
23.859,26.39
23.875,22.5
23.890,20.22
23.906,19.49
23.921,20.14
23.937,21.96
23.953,24.57
23.968,27.59
23.984,30.66
24.000,33.6
24.015,36.39
24.031,39.15
24.046,42.02
24.062,45.08
24.078,48.29
24.093,51.57
24.109,54.8
24.125,57.8
24.140,60.43
24.156,62.64
24.171,64.62
24.187,66.85
24.203,70.04
24.218,74.92
24.234,81.98
24.250,91.32
24.265,102.67
24.281,115.56
24.296,129.46
24.312,143.68
24.328,157.05
24.343,167.54
24.359,172.41
24.375,168.79
24.390,154.74
24.406,130.15
24.421,97.03
24.437,58.94
24.453,19.72
24.468,-17.67
24.484,-51.73
24.500,-82.14
24.515,-108.93
24.531,-131.72
24.546,-149.38
24.562,-160.48
24.578,-163.79
24.593,-158.8
24.609,-145.66
24.625,-124.99
24.640,-97.7
24.656,-65.09
24.671,-29.16
24.687,7.39
24.703,41.36
24.718,69.81
24.734,90.76
24.750,103.66
24.765,109.22
24.781,108.64
24.796,102.88
24.812,92.34
24.828,77.04
24.843,57.28
24.859,34.11
24.875,9.35
24.890,-14.98
24.906,-37.52
24.921,-58.12
24.937,-77.72
24.953,-97.68
24.968,-118.63
24.984,-139.73
25.000,-158.82
25.015,-173.12
25.031,-180.41
25.046,-179.76
25.062,-171.81
25.078,-158.26
25.093,-141.19
25.109,-122.36
25.125,-102.83
25.140,-83.11
25.156,-63.64
25.171,-44.99
25.187,-27.92
25.203,-13.22
25.218,-1.4
25.234,7.43
25.250,13.63
25.265,18.08
25.281,21.64
25.296,24.92
25.312,28.11
25.328,31.22
25.343,34.22
25.359,37.12
25.375,39.99
25.390,42.88
25.406,46.33
25.421,50.43
25.437,54.52
25.453,57.54
25.468,58.63
25.484,57.73
25.500,55.54
25.515,53.21
25.531,51.77
25.546,53.19
25.562,58.2
25.578,65.92
25.593,74.38
25.609,81.87
25.625,87.95
25.640,93.45
25.656,99.81
25.671,108.12
25.687,120.55
25.703,137.37
25.718,156.32
25.734,173.9
25.750,187.58
25.765,197.11
25.781,204.28
25.796,211.65
25.812,221.11
25.828,236.0
25.843,257.21
25.859,281.96
25.875,304.66
25.890,319.3
25.906,321.58
25.921,309.94
25.937,285.68
25.953,234.92
25.968,156.36
25.984,62.38
26.000,-27.05
26.015,-96.06
26.031,-139.59
26.046,-161.09
26.062,-166.98
26.078,-163.28
26.093,-154.25
26.109,-141.4
26.125,-126.18
26.140,-112.41
26.156,-104.89
26.171,-107.33
26.187,-121.03
26.203,-145.48
26.218,-177.22
26.234,-211.58
26.250,-242.23
26.265,-264.51
26.281,-278.33
26.296,-286.11
26.312,-290.46
26.328,-292.16
26.343,-290.52
26.359,-284.63
26.375,-275.02
26.390,-267.97
26.406,-263.31
26.421,-261.4
26.437,-261.5
26.453,-260.9
26.468,-254.63
26.484,-237.86
26.500,-208.27
26.515,-167.79
26.531,-121.32
26.546,-74.73
26.562,-34.72
26.578,-3.83
26.593,15.6
26.609,23.84
26.625,23.47
26.640,19.05
26.656,16.43
26.671,21.95
26.687,40.86
26.703,73.37
26.718,113.85
26.734,151.42
26.750,174.14
26.765,173.52
26.781,148.53
26.796,106.58
26.812,61.23
26.828,27.52
26.843,15.7
26.859,28.45
26.875,60.56
26.890,102.3
26.906,143.24
26.921,175.32
26.937,194.23
26.953,199.21
26.968,192.34
26.984,177.32
27.000,159.54
27.015,145.74
27.031,143.27
27.046,157.86
27.062,190.83
27.078,237.19
27.093,286.05
27.109,323.78
27.125,338.76
27.140,325.96
27.156,288.77
27.171,237.49
27.187,184.64
27.203,139.99
27.218,107.31
27.234,84.41
27.250,65.58
27.265,45.12
27.281,19.66
27.296,-11.25
27.312,-46.15
27.328,-83.14
27.343,-120.77
27.359,-158.2
27.375,-194.47
27.390,-228.31
27.406,-258.22
27.421,-283.14
27.437,-303.44
27.453,-321.38
27.468,-340.97
27.484,-366.72
27.500,-401.7
27.515,-445.13
27.531,-491.38
27.546,-530.86
27.562,-552.93
27.578,-549.92
27.593,-520.24
27.609,-469.01
27.625,-405.84
27.640,-340.88
27.656,-281.25
27.671,-229.45
27.687,-184.21
27.703,-142.85
27.718,-103.32
27.734,-64.81
27.750,-27.1
27.765,10.42
27.781,48.79
27.796,88.54
27.812,128.41
27.828,164.87
27.843,193.06
27.859,208.39
27.875,208.52
27.890,194.25
27.906,169.19
27.921,138.46
27.937,107.17
27.953,79.14
27.968,56.19
27.984,37.98
28.000,22.32
28.015,6.15
28.031,-13.14
28.046,-36.41
28.062,-61.88
28.078,-85.54
28.093,-102.44
28.109,-108.6
28.125,-102.53
28.140,-85.5
28.156,-60.95
28.171,-33.13
28.187,-5.83
28.203,18.38
28.218,38.4
28.234,54.4
28.250,67.34
28.265,78.41
28.281,88.42
28.296,97.31
28.312,103.82
28.328,105.81
28.343,101.1
28.359,88.68
28.375,69.72
28.390,47.92
28.406,28.95
28.421,18.68
28.437,21.09
28.453,36.35
28.468,60.37
28.484,85.85
28.500,104.93
28.515,112.0
28.531,105.53
28.546,88.11
28.562,64.82
28.578,40.83
28.593,19.6
28.609,2.42
28.625,-11.1
28.640,-21.7
28.656,-29.86
28.671,-35.68
28.687,-39.41
28.703,-41.85
28.718,-44.27
28.734,-47.77
28.750,-52.51
28.765,-57.54
28.781,-61.1
28.796,-61.47
28.812,-57.84
28.828,-50.69
28.843,-41.46
28.859,-31.89
28.875,-23.28
28.890,-16.02
28.906,-9.69
28.921,-3.39
28.937,3.63
28.953,11.67
28.968,20.45
28.984,29.24
29.000,37.16
29.015,43.5
29.031,47.83
29.046,50.14
29.062,50.78
29.078,50.22
29.093,48.94
29.109,47.3
29.125,45.65
29.140,44.41
29.156,44.12
29.171,45.26
29.187,48.08
29.203,52.43
29.218,57.83
29.234,63.68
29.250,69.39
29.265,74.63
29.281,79.24
29.296,83.22
29.312,86.59
29.328,89.49
29.343,92.15
29.359,94.92
29.375,97.99
29.390,101.09
29.406,103.4
29.421,103.56
29.437,100.13
29.453,92.04
29.468,79.04
29.484,61.71
29.500,41.41
29.515,19.87
29.531,-1.18
29.546,-20.19
29.562,-36.03
29.578,-47.99
29.593,-55.77
29.609,-59.24
29.625,-58.26
29.640,-52.56
29.656,-41.9
29.671,-26.53
29.687,-7.61
29.703,12.46
29.718,30.4
29.734,42.95
29.750,47.9
29.765,44.81
29.781,35.03
29.796,21.0
29.812,5.35
29.828,-9.74
29.843,-22.71
29.859,-32.44
29.875,-38.15
29.890,-39.63
29.906,-37.6
29.921,-33.83
29.937,-30.75
29.953,-30.51
29.968,-34.07
29.984,-40.71
30.000,-48.49
30.015,-55.16
30.031,-59.27
30.046,-60.66
30.062,-60.4
30.078,-60.06
30.093,-61.05
30.109,-64.01
30.125,-68.74
30.140,-74.22
30.156,-78.96
30.171,-81.37
30.187,-80.11
30.203,-74.49
30.218,-64.67
30.234,-51.56
30.250,-36.52
30.265,-20.99
30.281,-6.08
30.296,7.52
30.312,19.5
30.328,29.76
30.343,38.36
30.359,45.41
30.375,51.08
30.390,55.57
30.406,58.99
30.421,61.34
30.437,62.44
30.453,62.13
30.468,60.38
30.484,57.48
30.500,53.96
30.515,50.56
30.531,47.91
30.546,46.38
30.562,46.0
30.578,46.43
30.593,47.06
30.609,47.09
30.625,45.78
30.640,42.56
30.656,37.25
30.671,30.17
30.687,22.08
30.703,13.95
30.718,6.64
30.734,0.58
30.750,-4.35
30.765,-8.71
30.781,-13.28
30.796,-18.65
30.812,-24.94
30.828,-31.74
30.843,-38.13
30.859,-42.9
30.875,-44.87
30.890,-43.17
30.906,-37.47
30.921,-28.16
30.937,-16.22
30.953,-2.98
30.968,10.21
30.984,22.39
31.000,33.05
31.015,42.05
31.031,49.41
31.046,55.03
31.062,58.67
31.078,60.11
31.093,59.33
31.109,56.76
31.125,53.14
31.140,49.41
31.156,46.24
31.171,43.92
31.187,42.36
31.203,41.23
31.218,40.28
31.234,39.35
31.250,38.43
31.265,37.48
31.281,36.3
31.296,34.53
31.312,31.82
31.328,27.98
31.343,23.12
31.359,17.57
31.375,11.77
31.390,6.14
31.406,0.98
31.421,-3.49
31.437,-7.17
31.453,-10.11
31.468,-12.56
31.484,-15.05
31.500,-18.29
31.515,-22.9
31.531,-29.17
31.546,-36.83
31.562,-44.98
31.578,-52.31
31.593,-57.4
31.609,-59.02
31.625,-56.46
31.640,-49.62
31.656,-39.04
31.671,-25.84
31.687,-11.45
31.703,2.58
31.718,14.93
31.734,24.77
31.750,31.87
31.765,36.62
31.781,39.77
31.796,42.14
31.812,44.31
31.828,46.44
31.843,48.36
31.859,49.76
31.875,50.49
31.890,50.59
31.906,50.29
31.921,49.71
31.937,48.75
31.953,47.15
31.968,44.7
31.984,41.52
32.000,38.16
32.015,35.46
32.031,34.17
32.046,34.58
32.062,36.43
32.078,39.01
32.093,41.48
32.109,43.19
32.125,43.78
32.140,43.27
32.156,41.91
32.171,40.08
32.187,38.28
32.203,36.96
32.218,36.39
32.234,36.65
32.250,37.6
32.265,38.95
32.281,40.46
32.296,42.03
32.312,43.7
32.328,45.62
32.343,47.92
32.359,50.77
32.375,54.37
32.390,58.87
32.406,64.1
32.421,69.31
32.437,73.27
32.453,74.74
32.468,73.22
32.484,69.65
32.500,66.52
32.515,67.17
32.531,74.5
32.546,89.75
32.562,111.9
32.578,138.1
32.593,164.73
32.609,188.72
32.625,208.26
32.640,222.92
32.656,233.07
32.671,239.33
32.687,242.16
32.703,242.04
32.718,239.69
32.734,236.07
32.750,232.21
32.765,228.64
32.781,224.96
32.796,219.73
32.812,211.02
32.828,197.07
32.843,177.16
32.859,152.03
32.875,123.84
32.890,95.53
32.906,69.79
32.921,48.21
32.937,30.56
32.953,14.97
32.968,-1.36
32.984,-20.94
33.000,-44.79
33.015,-71.93
33.031,-99.69
33.046,-124.88
33.062,-145.16
33.078,-159.91
33.093,-170.18
33.109,-177.89
33.125,-184.61
33.140,-190.88
33.156,-196.3
33.171,-200.29
33.187,-203.04
33.203,-205.79
33.218,-210.39
33.234,-218.19
33.250,-228.94
33.265,-240.58
33.281,-249.91
33.296,-254.01
33.312,-251.43
33.328,-242.73
33.343,-230.05
33.359,-216.01
33.375,-202.55
33.390,-190.44
33.406,-179.48
33.421,-169.17
33.437,-159.4
33.453,-150.61
33.468,-143.57
33.484,-138.83
33.500,-136.26
33.515,-135.04
33.531,-133.88
33.546,-131.65
33.562,-127.67
33.578,-121.99
33.593,-115.1
33.609,-107.66
33.625,-100.21
33.640,-92.95
33.656,-85.87
33.671,-78.85
33.687,-71.88
33.703,-65.11
33.718,-58.85
33.734,-53.36
33.750,-48.8
33.765,-45.1
33.781,-41.99
33.796,-39.11
33.812,-36.19
33.828,-33.13
33.843,-30.1
33.859,-27.34
33.875,-25.1
33.890,-23.47
33.906,-22.36
33.921,-21.6
33.937,-21.12
33.953,-21.0
33.968,-21.44
33.984,-22.69
34.000,-24.86
34.015,-27.88
34.031,-31.46
34.046,-35.18
34.062,-38.5
34.078,-40.82
34.093,-41.44
34.109,-39.73
34.125,-35.31
34.140,-28.2
34.156,-19.04
34.171,-8.79
34.187,1.47
34.203,10.89
34.218,19.12
34.234,26.29
34.250,32.67
34.265,38.46
34.281,43.61
34.296,47.81
34.312,50.74
34.328,52.29
34.343,52.63
34.359,52.07
34.375,50.92
34.390,49.31
34.406,47.21
34.421,44.61
34.437,41.64
34.453,38.63
34.468,35.99
34.484,33.98
34.500,32.6
34.515,31.56
34.531,30.42
34.546,28.77
34.562,26.45
34.578,23.45
34.593,19.94
34.609,16.12
34.625,12.15
34.640,8.18
34.656,4.31
34.671,0.63
34.687,-2.84
34.703,-6.14
34.718,-9.35
34.734,-12.55
34.750,-15.74
34.765,-18.8
34.781,-21.56
34.796,-23.91
34.812,-25.87
34.828,-27.66
34.843,-29.6
34.859,-32.05
34.875,-35.25
34.890,-39.26
34.906,-43.97
34.921,-49.07
34.937,-54.06
34.953,-58.25
34.968,-60.82
34.984,-60.94
35.000,-58.03
35.015,-51.96
35.031,-43.15
35.046,-32.52
35.062,-21.25
35.078,-10.45
35.093,-0.93
35.109,6.94
35.125,13.2
35.140,18.15
35.156,22.14
35.171,25.44
35.187,28.14
35.203,30.25
35.218,31.7
35.234,32.51
35.250,32.82
35.265,32.82
35.281,32.78
35.296,32.84
35.312,33.03
35.328,33.26
35.343,33.47
35.359,33.63
35.375,33.83
35.390,34.15
35.406,34.54
35.421,34.81
35.437,34.63
35.453,33.77
35.468,32.13
35.484,29.86
35.500,27.18
35.515,24.32
35.531,21.35
35.546,18.28
35.562,15.11
35.578,11.93
35.593,8.9
35.609,6.08
35.625,3.39
35.640,0.52
35.656,-2.89
35.671,-7.04
35.687,-11.81
35.703,-16.8
35.718,-21.46
35.734,-25.43
35.750,-28.68
35.765,-31.55
35.781,-34.59
35.796,-38.35
35.812,-43.13
35.828,-48.83
35.843,-55.02
35.859,-60.93
35.875,-65.6
35.890,-68.06
35.906,-67.46
35.921,-63.31
35.937,-55.69
35.953,-45.28
35.968,-33.23
35.984,-20.87
36.000,-9.33
36.015,0.74
36.031,9.22
36.046,16.33
36.062,22.45
36.078,27.84
36.093,32.57
36.109,36.65
36.125,40.08
36.140,42.9
36.156,45.21
36.171,47.04
36.187,48.39
36.203,49.19
36.218,49.45
36.234,49.28
36.250,48.95
36.265,48.72
36.281,48.73
36.296,48.96
36.312,49.23
36.328,49.25
36.343,48.84
36.359,47.94
36.375,46.61
36.390,44.94
36.406,42.96
36.421,40.59
36.437,37.66
36.453,34.09
36.468,29.93
36.484,25.38
36.500,20.76
36.515,16.32
36.531,12.17
36.546,8.25
36.562,4.39
36.578,0.48
36.593,-3.52
36.609,-7.49
36.625,-11.27
36.640,-14.75
36.656,-17.95
36.671,-21.04
36.687,-24.26
36.703,-27.87
36.718,-32.03
36.734,-36.89
36.750,-42.55
36.765,-48.96
36.781,-55.94
36.796,-62.88
36.812,-68.81
36.828,-72.44
36.843,-72.58
36.859,-68.49
36.875,-60.27
36.890,-48.85
36.906,-35.71
36.921,-22.39
36.937,-10.01
36.953,0.95
36.968,10.58
36.984,19.18
37.000,26.97
37.015,33.9
37.031,39.75
37.046,44.29
37.062,47.48
37.078,49.47
37.093,50.61
37.109,51.2
37.125,51.39
37.140,51.18
37.156,50.47
37.171,49.3
37.187,47.82
37.203,46.37
37.218,45.29
37.234,44.84
37.250,44.97
37.265,45.45
37.281,45.88
37.296,45.87
37.312,45.19
37.328,43.7
37.343,41.44
37.359,38.49
37.375,35.0
37.390,31.15
37.406,27.13
37.421,23.14
37.437,19.26
37.453,15.55
37.468,11.96
37.484,8.47
37.500,5.06
37.515,1.76
37.531,-1.51
37.546,-4.82
37.562,-8.34
37.578,-12.23
37.593,-16.5
37.609,-21.04
37.625,-25.56
37.640,-29.78
37.656,-33.57
37.671,-36.97
37.687,-40.25
37.703,-43.8
37.718,-47.99
37.734,-52.95
37.750,-58.48
37.765,-63.9
37.781,-68.19
37.796,-70.15
37.812,-68.79
37.828,-63.63
37.843,-54.86
37.859,-43.37
37.875,-30.34
37.890,-17.04
37.906,-4.43
37.921,6.87
37.937,16.67
37.953,25.0
37.968,32.0
37.984,37.85
38.000,42.59
38.015,46.26
38.031,48.85
38.046,50.4
38.062,51.04
38.078,51.03
38.093,50.67
38.109,50.21
38.125,49.84
38.140,49.61
38.156,49.55
38.171,49.66
38.187,49.99
38.203,50.56
38.218,51.31
38.234,52.03
38.250,52.38
38.265,51.97
38.281,50.58
38.296,48.21
38.312,45.11
38.328,41.7
38.343,38.44
38.359,35.66
38.375,33.54
38.390,32.02
38.406,30.92
38.421,29.94
38.437,28.86
38.453,27.5
38.468,25.93
38.484,24.38
38.500,23.17
38.515,22.59
38.531,22.7
38.546,23.26
38.562,23.78
38.578,23.67
38.593,22.46
38.609,20.02
38.625,16.7
38.640,13.39
38.656,11.4
38.671,12.23
38.687,17.05
38.703,26.35
38.718,39.73
38.734,55.83
38.750,72.76
38.765,88.59
38.781,101.78
38.796,111.5
38.812,117.64
38.828,120.55
38.843,120.81
38.859,118.93
38.875,115.17
38.890,109.56
38.906,102.03
38.921,92.53
38.937,81.28
38.953,68.76
38.968,55.58
38.984,42.26
39.000,29.04
39.015,15.82
39.031,2.43
39.046,-11.2
39.062,-24.76
39.078,-37.53
39.093,-48.61
39.109,-57.27
39.125,-63.23
39.140,-66.77
39.156,-68.7
39.171,-70.07
39.187,-71.9
39.203,-74.91
39.218,-79.2
39.234,-84.26
39.250,-89.1
39.265,-92.53
39.281,-93.66
39.296,-92.15
39.312,-88.42
39.328,-83.5
39.343,-78.72
39.359,-75.33
39.375,-74.17
39.390,-75.52
39.406,-78.97
39.421,-83.59
39.437,-88.25
39.453,-92.1
39.468,-94.79
39.484,-96.7
39.500,-98.54
39.515,-100.96
39.531,-103.98
39.546,-106.69
39.562,-107.51
39.578,-104.65
39.593,-96.73
39.609,-83.28
39.625,-64.81
39.640,-42.6
39.656,-18.28
39.671,6.48
39.687,30.22
39.703,51.68
39.718,69.82
39.734,83.83
39.750,93.26
39.765,98.18
39.781,99.17
39.796,97.33
39.812,93.91
39.828,90.01
39.843,86.32
39.859,83.05
39.875,80.02
39.890,76.97
39.906,73.76
39.921,70.46
39.937,67.3
39.953,64.53
39.968,62.38
39.984,61.17
40.000,61.32
40.015,63.15
40.031,66.52
40.046,70.33
40.062,72.37
40.078,69.72
40.093,59.69
40.109,40.94
40.125,14.11
40.140,-18.23
40.156,-52.44
40.171,-84.95
40.187,-113.11
40.203,-135.58
40.218,-152.01
40.234,-162.63
40.250,-167.85
40.265,-168.16
40.281,-164.27
40.296,-157.26
40.312,-148.51
40.328,-139.44
40.343,-131.26
40.359,-124.67
40.375,-119.82
40.390,-116.45
40.406,-114.09
40.421,-112.16
40.437,-110.08
40.453,-107.09
40.468,-102.27
40.484,-94.55
40.500,-82.99
40.515,-67.15
40.531,-47.43
40.546,-25.09
40.562,-1.99
40.578,19.97
40.593,39.38
40.609,55.62
40.625,68.9
40.640,79.89
40.656,89.35
40.671,97.74
40.687,105.06
40.703,111.02
40.718,115.26
40.734,117.74
40.750,118.98
40.765,120.0
40.781,122.04
40.796,126.04
40.812,132.35
40.828,140.56
40.843,149.72
40.859,158.8
40.875,167.11
40.890,174.51
40.906,181.33
40.921,187.98
40.937,194.6
40.953,200.84
40.968,205.99
40.984,209.19
41.000,209.85
41.015,207.85
41.031,203.51
41.046,197.4
41.062,189.92
41.078,181.16
41.093,170.77
41.109,158.05
41.125,142.23
41.140,122.59
41.156,98.57
41.171,69.92
41.187,36.89
41.203,0.59
41.218,-36.68
41.234,-71.62
41.250,-100.63
41.265,-121.03
41.281,-132.35
41.296,-136.8
41.312,-138.68
41.328,-142.78
41.343,-152.51
41.359,-168.69
41.375,-189.39
41.390,-211.1
41.406,-230.27
41.421,-244.56
41.437,-253.21
41.453,-256.51
41.468,-254.98
41.484,-248.85
41.500,-237.96
41.515,-222.08
41.531,-201.21
41.546,-175.47
41.562,-145.03
41.578,-109.91
41.593,-70.45
41.609,-27.95
41.625,14.56
41.640,52.41
41.656,80.28
41.671,93.93
41.687,91.71
41.703,75.28
41.718,48.94
41.734,18.24
41.750,-11.51
41.765,-36.48
41.781,-54.69
41.796,-66.22
41.812,-72.91
41.828,-77.97
41.843,-85.13
41.859,-97.38
41.875,-115.85
41.890,-139.19
41.906,-164.03
41.921,-186.32
41.937,-202.91
41.953,-212.51
41.968,-215.72
41.984,-214.2
42.000,-209.78
42.015,-203.93
42.031,-197.83
42.046,-192.37
42.062,-188.14
42.078,-185.07
42.093,-182.01
42.109,-176.89
42.125,-167.31
42.140,-151.58
42.156,-129.56
42.171,-102.86
42.187,-74.28
42.203,-46.78
42.218,-22.53
42.234,-2.41
42.250,13.87
42.265,27.22
42.281,38.57
42.296,48.5
42.312,57.11
42.328,64.31
42.343,69.95
42.359,74.08
42.375,76.87
42.390,78.65
42.406,79.72
42.421,80.31
42.437,80.64
42.453,80.96
42.468,81.65
42.484,83.21
42.500,86.09
42.515,90.54
42.531,96.39
42.546,102.96
42.562,109.33
42.578,114.56
42.593,118.11
42.609,119.96
42.625,120.56
42.640,120.57
42.656,120.66
42.671,121.43
42.687,123.51
42.703,127.49
42.718,133.61
42.734,141.43
42.750,149.47
42.765,155.34
42.781,156.31
42.796,150.18
42.812,136.07
42.828,114.74
42.843,88.44
42.859,60.2
42.875,33.12
42.890,9.65
42.906,-8.81
42.921,-22.01
42.937,-30.59
42.953,-35.75
42.968,-38.7
42.984,-40.25
43.000,-40.68
43.015,-39.75
43.031,-37.06
43.046,-32.31
43.062,-25.49
43.078,-17.01
43.093,-7.66
43.109,1.46
43.125,9.1
43.140,14.05
43.156,15.59
43.171,13.71
43.187,9.23
43.203,3.6
43.218,-1.81
43.234,-6.19
43.250,-9.63
43.265,-12.99
43.281,-17.2
43.296,-22.74
43.312,-29.24
43.328,-35.61
43.343,-40.52
43.359,-43.06
43.375,-42.95
43.390,-40.58
43.406,-36.68
43.421,-32.09
43.437,-27.62
43.453,-24.11
43.468,-22.39
43.484,-23.21
43.500,-26.72
43.515,-32.16
43.531,-37.74
43.546,-41.21
43.562,-40.92
43.578,-36.97
43.593,-31.73
43.609,-29.39
43.625,-34.5
43.640,-50.16
43.656,-76.74
43.671,-111.6
43.687,-150.08
43.703,-187.01
43.718,-218.04
43.734,-240.41
43.750,-252.89
43.765,-255.36
43.781,-248.48
43.796,-233.53
43.812,-212.38
43.828,-187.36
43.843,-160.82
43.859,-134.7
43.875,-110.09
43.890,-87.22
43.906,-65.75
43.921,-45.21
43.937,-25.4
43.953,-6.46
43.968,11.17
43.984,27.05
44.000,40.92
44.015,52.78
44.031,62.98
44.046,72.09
44.062,80.78
44.078,89.63
44.093,99.03
44.109,109.12
44.125,119.75
44.140,130.59
44.156,141.14
44.171,150.91
44.187,159.54
44.203,166.87
44.218,172.83
44.234,177.51
44.250,181.02
44.265,183.49
44.281,185.23
44.296,186.68
44.312,188.38
44.328,190.59
44.343,192.88
44.359,193.68
44.375,190.46
44.390,180.38
44.406,161.32
44.421,132.8
44.437,96.2
44.453,54.2
44.468,9.89
44.484,-33.84
44.500,-74.47
44.515,-109.61
44.531,-136.98
44.546,-154.85
44.562,-162.88
44.578,-162.65
44.593,-157.55
44.609,-151.48
44.625,-147.37
44.640,-146.02
44.656,-146.2
44.671,-145.64
44.687,-142.47
44.703,-136.13
44.718,-127.35
44.734,-117.48
44.750,-107.59
44.765,-97.99
44.781,-88.3
44.796,-77.95
44.812,-66.67
44.828,-54.72
44.843,-42.75
44.859,-31.4
44.875,-20.93
44.890,-10.99
44.906,-0.88
44.921,10.12
44.937,22.33
44.953,35.42
44.968,48.46
44.984,60.42
45.000,70.46
45.015,78.32
45.031,84.26
45.046,88.77
45.062,92.25
45.078,94.89
45.093,96.64
45.109,97.4
45.125,97.0
45.140,95.22
45.156,91.49
45.171,84.86
45.187,74.08
45.203,58.15
45.218,36.72
45.234,10.43
45.250,-19.11
45.265,-49.59
45.281,-78.35
45.296,-102.7
45.312,-120.1
45.328,-128.49
45.343,-126.66
45.359,-114.63
45.375,-93.87
45.390,-67.08
45.406,-37.55
45.421,-8.33
45.437,18.52
45.453,42.15
45.468,62.8
45.484,81.3
45.500,98.62
45.515,115.47
45.531,132.17
45.546,148.59
45.562,164.19
45.578,178.28
45.593,190.23
45.609,199.78
45.625,207.26
45.640,213.48
45.656,219.55
45.671,226.44
45.687,234.64
45.703,243.8
45.718,252.85
45.734,260.06
45.750,263.59
45.765,262.0
45.781,254.73
45.796,242.31
45.812,226.14
45.828,207.8
45.843,188.24
45.859,167.38
45.875,144.1
45.890,116.99
45.906,85.24
45.921,49.29
45.937,10.86
45.953,-27.45
45.968,-62.77
45.984,-92.41
46.000,-114.12
46.015,-126.49
46.031,-129.52
46.046,-125.3
46.062,-118.19
46.078,-114.35
46.093,-120.18
46.109,-140.46
46.125,-176.61
46.140,-225.91
46.156,-281.95
46.171,-336.09
46.187,-379.66
46.203,-406.1
46.218,-412.37
46.234,-399.41
46.250,-371.37
46.265,-334.11
46.281,-293.38
46.296,-253.44
46.312,-216.55
46.328,-183.28
46.343,-153.43
46.359,-126.77
46.375,-103.27
46.390,-82.94
46.406,-65.46
46.421,-50.09
46.437,-35.92
46.453,-22.31
46.468,-9.17
46.484,3.05
46.500,13.8
46.515,22.94
46.531,30.95
46.546,38.9
46.562,48.02
46.578,59.11
46.593,72.12
46.609,86.11
46.625,99.58
46.640,111.06
46.656,119.64
46.671,125.29
46.687,128.79
46.703,131.34
46.718,134.07
46.734,137.61
46.750,141.91
46.765,146.47
46.781,150.58
46.796,153.71
46.812,155.67
46.828,156.66
46.843,157.2
46.859,158.16
46.875,160.64
46.890,165.72
46.906,173.82
46.921,183.92
46.937,193.06
46.953,196.75
46.968,190.26
46.984,170.52
47.000,137.77
47.015,96.05
47.031,52.16
47.046,13.74
47.062,-12.87
47.078,-23.99
47.093,-19.01
47.109,-0.01
47.125,28.74
47.140,61.51
47.156,91.79
47.171,113.63
47.187,123.22
47.203,120.21
47.218,107.9
47.234,91.93
47.250,77.93
47.265,69.32
47.281,66.26
47.296,66.22
47.312,65.69
47.328,61.92
47.343,53.94
47.359,42.49
47.375,29.22
47.390,15.89
47.406,3.77
47.421,-6.35
47.437,-14.11
47.453,-19.58
47.468,-23.32
47.484,-26.49
47.500,-30.49
47.515,-36.36
47.531,-44.13
47.546,-52.43
47.562,-58.84
47.578,-60.84
47.593,-56.96
47.609,-47.79
47.625,-35.95
47.640,-25.04
47.656,-18.17
47.671,-16.52
47.687,-18.89
47.703,-22.48
47.718,-24.43
47.734,-23.44
47.750,-20.45
47.765,-18.13
47.781,-19.55
47.796,-26.62
47.812,-39.23
47.828,-55.26
47.843,-71.5
47.859,-84.88
47.875,-93.53
47.890,-97.17
47.906,-96.82
47.921,-93.95
47.937,-89.57
47.953,-83.73
47.968,-75.82
47.984,-65.28
48.000,-52.57
48.015,-39.44
48.031,-28.51
48.046,-22.19
48.062,-21.54
48.078,-25.89
48.093,-33.23
48.109,-41.21
48.125,-48.09
48.140,-53.14
48.156,-56.35
48.171,-58.03
48.187,-58.54
48.203,-58.35
48.218,-58.13
48.234,-58.7
48.250,-60.73
48.265,-64.24
48.281,-68.5
48.296,-72.33
48.312,-74.58
48.328,-74.52
48.343,-71.91
48.359,-66.67
48.375,-58.47
48.390,-46.7
48.406,-30.8
48.421,-10.92
48.437,11.42
48.453,33.37
48.468,51.36
48.484,62.29
48.500,64.74
48.515,59.44
48.531,48.89
48.546,36.07
48.562,23.09
48.578,10.39
48.593,-2.88
48.609,-17.85
48.625,-34.79
48.640,-52.8
48.656,-70.36
48.671,-86.37
48.687,-100.67
48.703,-113.97
48.718,-126.89
48.734,-139.11
48.750,-149.11
48.765,-154.69
48.781,-153.81
48.796,-145.48
48.812,-129.94
48.828,-108.19
48.843,-81.5
48.859,-50.88
48.875,-17.23
48.890,18.5
48.906,54.83
48.921,89.67
48.937,120.37
48.953,144.1
48.968,158.56
48.984,162.73
49.000,157.52
49.015,145.82
49.031,131.9
49.046,119.88
49.062,112.31
49.078,109.1
49.093,107.73
49.109,104.48
49.125,96.19
49.140,81.53
49.156,61.17
49.171,37.02
49.187,11.07
49.203,-15.28
49.218,-41.03
49.234,-65.03
49.250,-85.59
49.265,-100.86
49.281,-109.9
49.296,-113.54
49.312,-114.45
49.328,-116.08
49.343,-121.01
49.359,-129.48
49.375,-139.31
49.390,-146.89
49.406,-149.12
49.421,-144.94
49.437,-135.8
49.453,-125.04
49.468,-116.54
49.484,-113.39
49.500,-117.06
49.515,-127.17
49.531,-141.62
49.546,-156.94
49.562,-168.76
49.578,-172.68
49.593,-165.46
49.609,-146.31
49.625,-117.65
49.640,-84.8
49.656,-54.62
49.671,-33.35
49.687,-24.64
49.703,-28.55
49.718,-41.92
49.734,-59.67
49.750,-76.64
49.765,-88.96
49.781,-94.72
49.796,-93.94
49.812,-87.9
49.828,-78.42
49.843,-67.29
49.859,-55.93
49.875,-45.27
49.890,-35.82
49.906,-27.75
49.921,-20.89
49.937,-14.74
49.953,-8.62
49.968,-1.81
49.984,6.2
50.000,15.6
50.015,26.15
50.031,37.38
50.046,48.65
50.062,59.35
50.078,69.06
50.093,77.55
50.109,84.91
50.125,91.55
50.140,98.02
50.156,104.77
50.171,111.92
50.187,119.1
50.203,125.56
50.218,130.49
50.234,133.29
50.250,133.84
50.265,132.32
50.281,129.02
50.296,124.08
50.312,117.52
50.328,109.35
50.343,99.71
50.359,88.81
50.375,76.68
50.390,62.83
50.406,46.23
50.421,25.89
50.437,1.69
50.453,-24.77
50.468,-50.13
50.484,-69.87
50.500,-79.88
50.515,-77.89
50.531,-64.49
50.546,-42.97
50.562,-18.28
50.578,4.58
50.593,21.91
50.609,32.1
50.625,35.47
50.640,33.58
50.656,28.33
50.671,21.46
50.687,14.42
50.703,8.56
50.718,5.27
50.734,5.85
50.750,11.18
50.765,21.44
50.781,35.96
50.796,53.57
50.812,72.98
50.828,93.16
50.843,113.38
50.859,132.96
50.875,151.14
50.890,167.19
50.906,180.71
50.921,191.99
50.937,201.83
50.953,210.9
50.968,218.77
50.984,223.53
51.000,222.25
51.015,212.1
51.031,191.79
51.046,162.29
51.062,126.75
51.078,89.38
51.093,53.92
51.109,22.47
51.125,-4.86
51.140,-29.42
51.156,-52.93
51.171,-76.44
51.187,-99.89
51.203,-122.48
51.218,-143.34
51.234,-162.1
51.250,-178.93
51.265,-193.79
51.281,-205.58
51.296,-211.65
51.312,-208.45
51.328,-192.92
51.343,-164.26
51.359,-124.86
51.375,-79.86
51.390,-35.53
51.406,2.9
51.421,32.9
51.437,55.03
51.453,72.14
51.468,87.81
51.484,104.87
51.500,124.5
51.515,146.21
51.531,168.36
51.546,188.82
51.562,205.3
51.578,215.45
51.593,216.96
51.609,208.03
51.625,188.31
51.640,159.85
51.656,127.26
51.671,96.55
51.687,73.01
51.703,59.01
51.718,53.19
51.734,51.35
51.750,48.73
51.765,42.37
51.781,32.07
51.796,19.78
51.812,7.84
51.828,-2.63
51.843,-12.32
51.859,-23.05
51.875,-36.62
51.890,-53.69
51.906,-73.67
51.921,-94.86
51.937,-115.07
51.953,-132.11
51.968,-144.24
51.984,-150.78
52.000,-152.37
52.015,-151.01
52.031,-149.44
52.046,-150.17
52.062,-154.46
52.078,-161.9
52.093,-170.56
52.109,-177.86
52.125,-181.61
52.140,-180.69
52.156,-175.3
52.171,-166.57
52.187,-156.04
52.203,-145.15
52.218,-134.84
52.234,-125.5
52.250,-116.96
52.265,-108.48
52.281,-98.76
52.296,-86.19
52.312,-69.34
52.328,-47.69
52.343,-22.42
52.359,3.43
52.375,25.42
52.390,39.2
52.406,42.0
52.421,33.76
52.437,17.14
52.453,-3.57
52.468,-23.95
52.484,-40.91
52.500,-53.21
52.515,-61.22
52.531,-66.1
52.546,-68.99
52.562,-70.73
52.578,-71.69
52.593,-71.99
52.609,-71.65
52.625,-70.59
52.640,-68.67
52.656,-65.69
52.671,-61.56
52.687,-56.48
52.703,-51.12
52.718,-46.48
52.734,-43.61
52.750,-43.19
52.765,-45.14
52.781,-48.6
52.796,-52.17
52.812,-54.48
52.828,-54.61
52.843,-52.54
52.859,-49.08
52.875,-45.63
52.890,-43.67
52.906,-44.19
52.921,-47.3
52.937,-52.05
52.953,-56.57
52.968,-58.48
52.984,-55.58
53.000,-46.36
53.015,-30.55
53.031,-9.11
53.046,16.16
53.062,43.08
53.078,69.83
53.093,95.27
53.109,119.09
53.125,141.44
53.140,162.63
53.156,182.63
53.171,201.13
53.187,217.62
53.203,231.76
53.218,243.59
53.234,253.47
53.250,261.86
53.265,268.95
53.281,274.4
53.296,277.33
53.312,276.68
53.328,271.53
53.343,261.36
53.359,246.22
53.375,226.6
53.390,203.4
53.406,177.78
53.421,151.08
53.437,124.49
53.453,98.88
53.468,74.6
53.484,51.66
53.500,30.21
53.515,10.87
53.531,-5.16
53.546,-16.5
53.562,-22.37
53.578,-23.22
53.593,-21.01
53.609,-18.8
53.625,-19.9
53.640,-26.88
53.656,-40.91
53.671,-61.54
53.687,-87.12
53.703,-115.37
53.718,-144.11
53.734,-171.79
53.750,-197.64
53.765,-221.56
53.781,-243.61
53.796,-263.5
53.812,-280.12
53.828,-291.46
53.843,-295.09
53.859,-289.05
53.875,-272.8
53.890,-247.77
53.906,-217.21
53.921,-185.18
53.937,-155.22
53.953,-129.27
53.968,-107.2
53.984,-87.37
54.000,-67.67
54.015,-46.69
54.031,-24.27
54.046,-1.39
54.062,20.48
54.078,40.07
54.093,56.67
54.109,70.15
54.125,80.72
54.140,88.73
54.156,94.59
54.171,98.9
54.187,102.52
54.203,106.58
54.218,112.19
54.234,120.06
54.250,130.16
54.265,141.67
54.281,153.24
54.296,163.49
54.312,171.57
54.328,177.31
54.343,181.22
54.359,183.89
54.375,185.59
54.390,185.73
54.406,182.87
54.421,174.94
54.437,159.99
54.453,136.97
54.468,106.37
54.484,70.5
54.500,33.0
54.515,-2.12
54.531,-31.6
54.546,-53.84
54.562,-68.98
54.578,-78.34
54.593,-83.44
54.609,-85.17
54.625,-83.44
54.640,-77.56
54.656,-67.1
54.671,-52.5
54.687,-35.29
54.703,-17.67
54.718,-1.86
54.734,10.65
54.750,19.28
54.765,24.41
54.781,27.18
54.796,28.99
54.812,31.24
54.828,34.9
54.843,40.25
54.859,46.7
54.875,53.08
54.890,58.04
54.906,60.56
54.921,60.21
54.937,57.08
54.953,51.41
54.968,43.24
54.984,32.43
55.000,18.92
55.015,3.16
55.031,-13.84
55.046,-30.79
55.062,-46.61
55.078,-60.85
55.093,-73.67
55.109,-85.54
55.125,-96.73
55.140,-107.07
55.156,-116.08
55.171,-123.3
55.187,-128.64
55.203,-132.42
55.218,-135.3
55.234,-137.94
55.250,-140.69
55.265,-143.54
55.281,-146.13
55.296,-148.01
55.312,-148.77
55.328,-148.3
55.343,-146.76
55.359,-144.6
55.375,-142.49
55.390,-141.02
55.406,-140.59
55.421,-141.17
55.437,-142.17
55.453,-142.38
55.468,-140.32
55.484,-134.5
55.500,-123.94
55.515,-108.44
55.531,-88.66
55.546,-65.93
55.562,-41.82
55.578,-17.67
55.593,5.66
55.609,27.88
55.625,49.04
55.640,69.29
55.656,88.61
55.671,106.79
55.687,123.42
55.703,138.18
55.718,150.87
55.734,161.56
55.750,170.44
55.765,177.8
55.781,184.05
55.796,189.66
55.812,195.3
55.828,201.68
55.843,209.43
55.859,218.79
55.875,229.36
55.890,240.24
55.906,250.23
55.921,258.38
55.937,264.25
55.953,268.05
55.968,270.34
55.984,271.65
56.000,272.16
56.015,271.46
56.031,268.56
56.046,262.02
56.062,250.23
56.078,231.68
56.093,205.38
56.109,171.16
56.125,129.87
56.140,83.42
56.156,34.56
56.171,-13.62
56.187,-58.1
56.203,-96.51
56.218,-127.46
56.234,-150.54
56.250,-166.04
56.265,-174.41
56.281,-175.72
56.296,-169.49
56.312,-155.28
56.328,-133.62
56.343,-106.8
56.359,-78.94
56.375,-54.89
56.390,-38.57
56.406,-31.5
56.421,-32.28
56.437,-37.25
56.453,-42.0
56.468,-42.97
56.484,-38.48
56.500,-28.86
56.515,-15.92
56.531,-2.17
56.546,9.98
56.562,18.68
56.578,22.77
56.593,21.79
56.609,15.82
56.625,5.35
56.640,-8.73
56.656,-25.09
56.671,-41.86
56.687,-56.91
56.703,-68.29
56.718,-74.92
56.734,-77.08
56.750,-76.31
56.765,-74.85
56.781,-74.62
56.796,-76.46
56.812,-79.81
56.828,-83.03
56.843,-84.2
56.859,-81.89
56.875,-75.69
56.890,-66.3
56.906,-55.16
56.921,-44.03
56.937,-34.43
56.953,-27.33
56.968,-23.13
56.984,-21.73
57.000,-22.73
57.015,-25.67
57.031,-30.04
57.046,-35.45
57.062,-41.61
57.078,-48.39
57.093,-55.75
57.109,-63.47
57.125,-70.82
57.140,-76.22
57.156,-77.33
57.171,-71.68
57.187,-57.72
57.203,-36.0
57.218,-9.61
57.234,16.22
57.250,35.64
57.265,43.97
57.281,39.24
57.296,22.65
57.312,-2.16
57.328,-30.46
57.343,-57.98
57.359,-81.77
57.375,-100.46
57.390,-113.89
57.406,-122.5
57.421,-126.88
57.437,-127.55
57.453,-124.94
57.468,-119.41
57.484,-111.3
57.500,-100.83
57.515,-88.14
57.531,-73.28
57.546,-56.42
57.562,-37.88
57.578,-18.36
57.593,1.17
57.609,19.5
57.625,35.54
57.640,48.52
57.656,58.29
57.671,65.41
57.687,70.9
57.703,75.94
57.718,81.33
57.734,87.32
57.750,93.46
57.765,98.96
57.781,103.02
57.796,105.34
57.812,106.28
57.828,106.67
57.843,107.5
57.859,109.36
57.875,112.15
57.890,115.02
57.906,116.63
57.921,115.61
57.937,111.15
57.953,103.44
57.968,93.76
57.984,84.31
58.000,77.63
58.015,75.89
58.031,80.16
58.046,90.1
58.062,104.08
58.078,119.64
58.093,134.21
58.109,145.61
58.125,152.39
58.140,153.85
58.156,149.88
58.171,140.91
58.187,127.94
58.203,112.45
58.218,96.21
58.234,80.91
58.250,67.72
58.265,57.33
58.281,50.23
58.296,47.31
58.312,49.91
58.328,59.12
58.343,74.54
58.359,93.32
58.375,110.13
58.390,118.64
58.406,113.65
58.421,92.89
58.437,57.54
58.453,11.36
58.468,-40.85
58.484,-94.47
58.500,-145.37
58.515,-189.79
58.531,-224.32
58.546,-246.45
58.562,-255.47
58.578,-253.04
58.593,-242.77
58.609,-228.94
58.625,-214.97
58.640,-202.52
58.656,-191.64
58.671,-181.71
58.687,-172.36
58.703,-163.96
58.718,-157.47
58.734,-153.84
58.750,-153.46
58.765,-155.91
58.781,-159.95
58.796,-163.71
58.812,-165.0
58.828,-161.87
58.843,-153.04
58.859,-138.39
58.875,-119.03
58.890,-96.99
58.906,-74.54
58.921,-53.56
58.937,-35.07
58.953,-19.23
58.968,-5.65
58.984,6.15
59.000,16.45
59.015,25.24
59.031,32.42
59.046,37.95
59.062,41.96
59.078,44.78
59.093,46.77
59.109,48.21
59.125,49.28
59.140,50.05
59.156,50.57
59.171,50.85
59.187,50.93
59.203,50.78
59.218,50.31
59.234,49.25
59.250,47.2
59.265,43.8
59.281,38.8
59.296,32.2
59.312,24.35
59.328,15.9
59.343,7.65
59.359,0.38
59.375,-5.53
59.390,-10.22
59.406,-14.48
59.421,-19.52
59.437,-26.52
59.453,-36.21
59.468,-48.51
59.484,-62.62
59.500,-77.3
59.515,-91.41
59.531,-104.12
59.546,-114.99
59.562,-123.77
59.578,-130.07
59.593,-133.18
59.609,-132.06
59.625,-125.65
59.640,-113.04
59.656,-93.92
59.671,-68.76
59.687,-39.01
59.703,-6.97
59.718,24.61
59.734,53.14
59.750,76.95
59.765,95.88
59.781,111.51
59.796,126.73
59.812,144.73
59.828,167.42
59.843,194.0
59.859,220.31
59.875,239.57
59.890,244.56
59.906,230.4
59.921,196.72
59.937,148.13
59.953,92.6
59.968,38.93
59.984,-6.0
