timestamp,value
00.000,112.67
00.015,115.75
00.031,114.34
00.046,107.13
00.062,93.94
00.078,75.75
00.093,54.5
00.109,32.47
00.125,11.7
00.140,-6.45
00.156,-21.33
00.171,-32.81
00.187,-40.97
00.203,-46.04
00.218,-48.46
00.234,-49.13
00.250,-49.38
00.265,-50.73
00.281,-54.2
00.296,-59.78
00.312,-66.29
00.328,-71.65
00.343,-73.71
00.359,-71.16
00.375,-64.06
00.390,-53.7
00.406,-42.15
00.421,-31.38
00.437,-22.77
00.453,-16.91
00.468,-13.77
00.484,-13.06
00.500,-14.54
00.515,-17.93
00.531,-22.87
00.546,-28.79
00.562,-35.02
00.578,-40.98
00.593,-46.43
00.609,-51.4
00.625,-56.02
00.640,-60.25
00.656,-63.68
00.671,-65.59
00.687,-65.35
00.703,-62.7
00.718,-57.94
00.734,-51.79
00.750,-45.14
00.765,-38.79
00.781,-33.22
00.796,-28.59
00.812,-24.87
00.828,-21.87
00.843,-19.47
00.859,-17.71
00.875,-17.01
00.890,-18.15
00.906,-21.95
00.921,-29.02
00.937,-39.23
00.953,-51.6
00.968,-64.44
00.984,-75.83
01.000,-84.2
01.015,-88.66
01.031,-89.14
01.046,-86.12
01.062,-80.41
01.078,-72.87
01.093,-64.39
01.109,-55.83
01.125,-48.08
01.140,-41.9
01.156,-37.75
01.171,-35.7
01.187,-35.35
01.203,-36.02
01.218,-36.97
01.234,-37.62
01.250,-37.63
01.265,-36.91
01.281,-35.46
01.296,-33.37
01.312,-30.74
01.328,-27.8
01.343,-24.88
01.359,-22.49
01.375,-21.13
01.390,-21.21
01.406,-22.88
01.421,-25.95
01.437,-29.96
01.453,-34.28
01.468,-38.34
01.484,-41.83
01.500,-44.76
01.515,-47.44
01.531,-50.26
01.546,-53.37
01.562,-56.47
01.578,-58.73
01.593,-58.99
01.609,-56.15
01.625,-49.54
01.640,-39.21
01.656,-25.84
01.671,-10.66
01.687,5.0
01.703,19.92
01.718,33.25
01.734,44.59
01.750,53.92
01.765,61.46
01.781,67.54
01.796,72.36
01.812,76.04
01.828,78.62
01.843,80.22
01.859,81.17
01.875,81.98
01.890,83.14
01.906,84.92
01.921,87.07
01.937,88.92
01.953,89.56
01.968,88.16
01.984,84.29
02.000,77.98
02.015,69.58
02.031,59.56
02.046,48.29
02.062,36.02
02.078,22.99
02.093,9.57
02.109,-3.7
02.125,-16.26
02.140,-27.69
02.156,-37.8
02.171,-46.54
02.187,-53.72
02.203,-58.82
02.218,-61.02
02.234,-59.48
02.250,-53.76
02.265,-44.18
02.281,-31.83
02.296,-18.23
02.312,-4.84
02.328,7.33
02.343,17.88
02.359,26.85
02.375,34.43
02.390,40.77
02.406,45.84
02.421,49.57
02.437,51.99
02.453,53.29
02.468,53.85
02.484,54.08
02.500,54.3
02.515,54.72
02.531,55.5
02.546,56.75
02.562,58.59
02.578,61.1
02.593,64.23
02.609,67.78
02.625,71.37
02.640,74.56
02.656,76.94
02.671,78.1
02.687,77.67
02.703,75.23
02.718,70.43
02.734,62.93
02.750,52.6
02.765,39.54
02.781,24.16
02.796,7.2
02.812,-10.3
02.828,-27.02
02.843,-41.54
02.859,-52.58
02.875,-59.34
02.890,-61.82
02.906,-60.84
02.921,-57.79
02.937,-54.12
02.953,-50.82
02.968,-48.07
02.984,-45.46
03.000,-42.34
03.015,-38.37
03.031,-33.77
03.046,-29.21
03.062,-25.5
03.078,-23.16
03.093,-22.33
03.109,-22.74
03.125,-24.04
03.140,-25.99
03.156,-28.52
03.171,-31.7
03.187,-35.59
03.203,-40.05
03.218,-44.69
03.234,-48.91
03.250,-52.08
03.265,-53.69
03.281,-53.57
03.296,-52.04
03.312,-49.77
03.328,-47.65
03.343,-46.4
03.359,-46.38
03.375,-47.38
03.390,-48.8
03.406,-49.81
03.421,-49.69
03.437,-48.14
03.453,-45.31
03.468,-41.85
03.484,-38.71
03.500,-36.9
03.515,-37.18
03.531,-39.7
03.546,-43.82
03.562,-48.1
03.578,-50.54
03.593,-49.07
03.609,-42.21
03.625,-29.4
03.640,-11.35
03.656,10.29
03.671,33.31
03.687,55.53
03.703,75.19
03.718,91.24
03.734,103.28
03.750,111.48
03.765,116.46
03.781,119.09
03.796,120.39
03.812,121.3
03.828,122.56
03.843,124.55
03.859,127.2
03.875,130.11
03.890,132.75
03.906,134.66
03.921,135.68
03.937,136.04
03.953,136.28
03.968,137.03
03.984,138.76
04.000,141.58
04.015,145.1
04.031,148.63
04.046,151.35
04.062,152.56
04.078,151.82
04.093,149.05
04.109,144.4
04.125,138.19
04.140,130.77
04.156,122.44
04.171,113.3
04.187,103.16
04.203,91.44
04.218,77.25
04.234,59.69
04.250,38.19
04.265,13.09
04.281,-14.16
04.296,-41.03
04.312,-64.4
04.328,-81.38
04.343,-90.15
04.359,-90.43
04.375,-83.47
04.390,-71.62
04.406,-57.53
04.421,-43.51
04.437,-31.05
04.453,-20.85
04.468,-12.92
04.484,-6.95
04.500,-2.52
04.515,0.66
04.531,2.69
04.546,3.34
04.562,2.08
04.578,-1.83
04.593,-8.98
04.609,-19.41
04.625,-32.25
04.640,-45.82
04.656,-57.89
04.671,-66.4
04.687,-70.03
04.703,-68.49
04.718,-62.57
04.734,-53.76
04.750,-43.69
04.765,-33.7
04.781,-24.53
04.796,-16.25
04.812,-8.5
04.828,-0.63
04.843,7.85
04.859,17.15
04.875,27.16
04.890,37.55
04.906,47.97
04.921,58.18
04.937,68.04
04.953,77.32
04.968,85.61
04.984,92.28
05.000,96.69
05.015,98.51
05.031,97.93
05.046,95.67
05.062,92.61
05.078,89.28
05.093,85.87
05.109,82.7
05.125,80.86
05.140,82.3
05.156,89.07
05.171,101.64
05.187,117.57
05.203,131.38
05.218,136.16
05.234,126.18
05.250,99.05
05.265,56.48
05.281,3.29
05.296,-54.54
05.312,-111.43
05.328,-162.85
05.343,-205.37
05.359,-236.64
05.375,-255.85
05.390,-264.43
05.406,-266.05
05.421,-265.43
05.437,-266.36
05.453,-270.03
05.468,-274.59
05.484,-276.26
05.500,-271.25
05.515,-257.49
05.531,-235.15
05.546,-206.21
05.562,-173.32
05.578,-139.13
05.593,-105.87
05.609,-75.48
05.625,-49.61
05.640,-29.52
05.656,-15.8
05.671,-8.12
05.687,-5.32
05.703,-5.77
05.718,-7.93
05.734,-10.75
05.750,-13.92
05.765,-17.8
05.781,-23.03
05.796,-30.17
05.812,-39.24
05.828,-49.39
05.843,-58.95
05.859,-65.74
05.875,-67.66
05.890,-63.44
05.906,-53.0
05.921,-37.55
05.937,-19.16
05.953,-0.16
05.968,17.47
05.984,32.41
06.000,44.13
06.015,52.63
06.031,58.27
06.046,61.52
06.062,62.88
06.078,62.89
06.093,62.09
06.109,61.11
06.125,60.63
06.140,61.3
06.156,63.67
06.171,68.03
06.187,74.28
06.203,81.95
06.218,90.33
06.234,98.79
06.250,107.03
06.265,115.17
06.281,123.58
06.296,132.57
06.312,142.07
06.328,151.5
06.343,159.9
06.359,166.45
06.375,170.83
06.390,173.36
06.406,174.82
06.421,176.04
06.437,177.56
06.453,179.46
06.468,181.27
06.484,181.91
06.500,179.69
06.515,172.39
06.531,157.64
06.546,133.62
06.562,99.64
06.578,56.59
06.593,6.87
06.609,-45.93
06.625,-97.66
06.640,-144.22
06.656,-182.01
06.671,-208.46
06.687,-222.35
06.703,-224.12
06.718,-215.59
06.734,-199.27
06.750,-177.47
06.765,-151.57
06.781,-122.15
06.796,-89.62
06.812,-54.86
06.828,-19.51
06.843,14.22
06.859,43.92
06.875,67.23
06.890,81.66
06.906,84.42
06.921,72.71
06.937,44.67
06.953,0.85
06.968,-54.71
06.984,-114.57
07.000,-169.37
07.015,-210.36
07.031,-231.76
07.046,-232.02
07.062,-213.56
07.078,-181.34
07.093,-141.11
07.109,-98.14
07.125,-56.6
07.140,-19.59
07.156,10.7
07.171,32.83
07.187,46.26
07.203,51.35
07.218,49.15
07.234,41.16
07.250,28.93
07.265,13.98
07.281,-2.15
07.296,-17.84
07.312,-31.49
07.328,-41.73
07.343,-47.74
07.359,-49.37
07.375,-47.07
07.390,-41.68
07.406,-34.2
07.421,-25.66
07.437,-17.11
07.453,-9.58
07.468,-3.93
07.484,-0.66
07.500,0.29
07.515,-0.49
07.531,-2.06
07.546,-3.44
07.562,-3.95
07.578,-3.38
07.593,-1.91
07.609,0.01
07.625,1.9
07.640,3.39
07.656,4.37
07.671,4.93
07.687,5.4
07.703,6.3
07.718,8.25
07.734,11.9
07.750,17.7
07.765,25.82
07.781,35.9
07.796,47.15
07.812,58.48
07.828,68.72
07.843,76.99
07.859,82.84
07.875,86.39
07.890,88.17
07.906,88.99
07.921,89.54
07.937,90.11
07.953,90.34
07.968,89.3
07.984,85.74
08.000,78.59
08.015,67.49
08.031,52.97
08.046,36.34
08.062,19.26
08.078,3.15
08.093,-11.15
08.109,-23.38
08.125,-33.61
08.140,-41.9
08.156,-48.21
08.171,-52.48
08.187,-54.87
08.203,-55.96
08.218,-56.61
08.234,-57.67
08.250,-59.62
08.265,-62.3
08.281,-65.07
08.296,-67.09
08.312,-67.7
08.328,-66.78
08.343,-64.72
08.359,-62.25
08.375,-60.09
08.390,-58.63
08.406,-57.84
08.421,-57.35
08.437,-56.63
08.453,-55.19
08.468,-52.81
08.484,-49.56
08.500,-45.79
08.515,-41.98
08.531,-38.64
08.546,-36.18
08.562,-34.73
08.578,-34.23
08.593,-34.5
08.609,-35.34
08.625,-36.69
08.640,-38.58
08.656,-41.08
08.671,-44.24
08.687,-48.04
08.703,-52.39
08.718,-57.08
08.734,-61.7
08.750,-65.49
08.765,-67.4
08.781,-66.25
08.796,-61.12
08.812,-51.76
08.828,-38.79
08.843,-23.54
08.859,-7.66
08.875,7.41
08.890,20.8
08.906,32.25
08.921,41.81
08.937,49.58
08.953,55.45
08.968,59.18
08.984,60.66
09.000,60.17
09.015,58.43
09.031,56.43
09.046,55.04
09.062,54.65
09.078,55.05
09.093,55.62
09.109,55.78
09.125,55.34
09.140,54.64
09.156,54.38
09.171,55.17
09.187,57.18
09.203,59.95
09.218,62.53
09.234,63.9
09.250,63.31
09.265,60.5
09.281,55.63
09.296,49.16
09.312,41.5
09.328,32.97
09.343,23.78
09.359,14.1
09.375,4.11
09.390,-5.92
09.406,-15.71
09.421,-24.89
09.437,-32.96
09.453,-39.18
09.468,-42.66
09.484,-42.56
09.500,-38.45
09.515,-30.52
09.531,-19.68
09.546,-7.34
09.562,5.11
09.578,16.56
09.593,26.51
09.609,34.98
09.625,42.22
09.640,48.48
09.656,53.77
09.671,57.79
09.687,60.01
09.703,59.88
09.718,57.1
09.734,51.77
09.750,44.49
09.765,36.26
09.781,28.23
09.796,21.32
09.812,15.99
09.828,12.17
09.843,9.39
09.859,7.06
09.875,4.71
09.890,2.11
09.906,-0.79
09.921,-4.08
09.937,-7.94
09.953,-12.66
09.968,-18.48
09.984,-25.3
10.000,-32.62
10.015,-39.58
10.031,-45.28
10.046,-49.18
10.062,-51.31
10.078,-52.33
10.093,-53.29
10.109,-55.25
10.125,-58.9
10.140,-64.32
10.156,-70.9
10.171,-77.47
10.187,-82.52
10.203,-84.58
10.218,-82.56
10.234,-76.05
10.250,-65.38
10.265,-51.54
10.281,-35.9
10.296,-19.86
10.312,-4.66
10.328,8.83
10.343,20.1
10.359,29.03
10.375,35.72
10.390,40.46
10.406,43.59
10.421,45.44
10.437,46.29
10.453,46.41
10.468,46.14
10.484,45.96
10.500,46.31
10.515,47.56
10.531,49.83
10.546,52.94
10.562,56.52
10.578,60.07
10.593,63.13
10.609,65.37
10.625,66.67
10.640,67.13
10.656,67.06
10.671,66.9
10.687,67.03
10.703,67.6
10.718,68.44
10.734,69.0
10.750,68.67
10.765,67.1
10.781,64.51
10.796,61.7
10.812,59.76
10.828,59.43
10.843,60.72
10.859,62.59
10.875,63.33
10.890,61.33
10.906,55.92
10.921,47.89
10.937,39.27
10.953,32.67
10.968,30.31
10.984,33.33
11.000,41.45
11.015,53.03
11.031,65.11
11.046,73.83
11.062,74.98
11.078,65.04
11.093,42.37
11.109,8.1
11.125,-33.87
11.140,-77.79
11.156,-117.86
11.171,-149.81
11.187,-171.81
11.203,-184.22
11.218,-188.54
11.234,-186.39
11.250,-178.93
11.265,-166.93
11.281,-151.24
11.296,-133.1
11.312,-114.0
11.328,-95.36
11.343,-78.13
11.359,-62.57
11.375,-48.45
11.390,-35.51
11.406,-23.81
11.421,-13.93
11.437,-6.68
11.453,-2.68
11.468,-1.83
11.484,-3.22
11.500,-5.42
11.515,-7.11
11.531,-7.64
11.546,-7.32
11.562,-7.22
11.578,-8.53
11.593,-11.95
11.609,-17.33
11.625,-23.69
11.640,-29.73
11.656,-34.33
11.671,-37.08
11.687,-38.3
11.703,-38.89
11.718,-39.82
11.734,-41.8
11.750,-44.9
11.765,-48.46
11.781,-51.14
11.796,-51.13
11.812,-46.6
11.828,-36.27
11.843,-20.15
11.859,0.18
11.875,21.66
11.890,40.58
11.906,53.61
11.921,58.98
11.937,56.92
11.953,49.46
11.968,39.5
11.984,29.87
12.000,22.51
12.015,18.33
12.031,17.41
12.046,19.4
12.062,23.86
12.078,30.31
12.093,38.17
12.109,46.69
12.125,54.96
12.140,62.13
12.156,67.63
12.171,71.35
12.187,73.58
12.203,74.89
12.218,75.87
12.234,76.84
12.250,77.78
12.265,78.39
12.281,78.31
12.296,77.25
12.312,75.16
12.328,72.21
12.343,68.73
12.359,65.02
12.375,61.27
12.390,57.57
12.406,53.89
12.421,50.12
12.437,46.12
12.453,41.83
12.468,37.33
12.484,32.81
12.500,28.55
12.515,24.7
12.531,21.22
12.546,17.67
12.562,13.37
12.578,7.67
12.593,0.32
12.609,-8.17
12.625,-16.42
12.640,-22.47
12.656,-24.31
12.671,-20.61
12.687,-11.28
12.703,2.53
12.718,18.68
12.734,34.9
12.750,49.52
12.765,61.88
12.781,72.22
12.796,81.18
12.812,89.22
12.828,96.43
12.843,102.7
12.859,107.94
12.875,112.06
12.890,114.54
12.906,114.0
12.921,108.17
12.937,94.57
12.953,71.84
12.968,40.83
12.984,4.86
13.000,-31.14
13.015,-62.31
13.031,-85.45
13.046,-99.73
13.062,-106.36
13.078,-107.46
13.093,-105.05
13.109,-100.47
13.125,-94.52
13.140,-87.89
13.156,-81.42
13.171,-76.07
13.187,-72.5
13.203,-70.68
13.218,-69.73
13.234,-68.3
13.250,-65.09
13.265,-59.56
13.281,-52.2
13.296,-44.37
13.312,-37.7
13.328,-33.27
13.343,-31.34
13.359,-31.5
13.375,-33.08
13.390,-35.74
13.406,-39.49
13.421,-44.53
13.437,-50.88
13.453,-58.21
13.468,-65.96
13.484,-73.57
13.500,-80.71
13.515,-87.16
13.531,-92.58
13.546,-96.38
13.562,-97.78
13.578,-96.18
13.593,-91.51
13.609,-84.32
13.625,-75.47
13.640,-65.8
13.656,-55.83
13.671,-45.75
13.687,-35.64
13.703,-25.67
13.718,-16.16
13.734,-7.49
13.750,0.11
13.765,6.62
13.781,12.3
13.796,17.46
13.812,22.45
13.828,27.47
13.843,32.6
13.859,37.75
13.875,42.64
13.890,46.9
13.906,50.11
13.921,51.98
13.937,52.45
13.953,51.78
13.968,50.44
13.984,49.06
14.000,48.15
14.015,47.96
14.031,48.44
14.046,49.22
14.062,49.71
14.078,49.26
14.093,47.29
14.109,43.45
14.125,37.68
14.140,30.29
14.156,21.81
14.171,12.93
14.187,4.22
14.203,-3.94
14.218,-11.44
14.234,-18.36
14.250,-24.69
14.265,-30.13
14.281,-33.89
14.296,-34.81
14.312,-31.73
14.328,-24.05
14.343,-12.09
14.359,2.76
14.375,18.41
14.390,32.77
14.406,44.38
14.421,52.69
14.437,57.91
14.453,60.5
14.468,60.77
14.484,58.93
14.500,55.33
14.515,50.5
14.531,45.09
14.546,39.24
14.562,32.32
14.578,22.92
14.593,9.7
14.609,-7.65
14.625,-27.9
14.640,-48.38
14.656,-66.13
14.671,-79.04
14.687,-86.55
14.703,-89.53
14.718,-89.5
14.734,-87.68
14.750,-84.63
14.765,-80.4
14.781,-74.97
14.796,-68.64
14.812,-62.06
14.828,-55.98
14.843,-50.88
14.859,-46.8
14.875,-43.41
14.890,-40.25
14.906,-37.03
14.921,-33.76
14.937,-30.78
14.953,-28.57
14.968,-27.56
14.984,-28.01
15.000,-29.95
15.015,-33.28
15.031,-37.79
15.046,-43.15
15.062,-48.8
15.078,-53.85
15.093,-57.22
15.109,-57.77
15.125,-54.64
15.140,-47.62
15.156,-37.19
15.171,-24.47
15.187,-10.96
15.203,1.96
15.218,13.21
15.234,22.17
15.250,28.62
15.265,32.63
15.281,34.4
15.296,34.2
15.312,32.41
15.328,29.49
15.343,26.04
15.359,22.72
15.375,20.06
15.390,18.36
15.406,17.56
15.421,17.27
15.437,17.05
15.453,16.57
15.468,15.77
15.484,14.81
15.500,13.9
15.515,13.08
15.531,12.11
15.546,10.53
15.562,7.88
15.578,3.94
15.593,-1.07
15.609,-6.61
15.625,-11.96
15.640,-16.59
15.656,-20.35
15.671,-23.43
15.687,-26.15
15.703,-28.69
15.718,-30.94
15.734,-32.5
15.750,-33.04
15.765,-32.5
15.781,-31.32
15.796,-30.27
15.812,-30.16
15.828,-31.45
15.843,-34.06
15.859,-37.55
15.875,-41.39
15.890,-45.3
15.906,-49.36
15.921,-53.77
15.937,-58.55
15.953,-63.27
15.968,-67.22
15.984,-69.66
16.000,-70.34
16.015,-69.66
16.031,-68.48
16.046,-67.79
16.062,-68.23
16.078,-69.86
16.093,-72.27
16.109,-74.78
16.125,-76.72
16.140,-77.59
16.156,-77.02
16.171,-74.78
16.187,-70.71
16.203,-64.8
16.218,-57.17
16.234,-48.14
16.250,-38.2
16.265,-27.93
16.281,-17.96
16.296,-8.84
16.312,-0.92
16.328,5.69
16.343,11.18
16.359,15.94
16.375,20.39
16.390,24.73
16.406,28.93
16.421,32.64
16.437,35.48
16.453,37.15
16.468,37.69
16.484,37.41
16.500,36.78
16.515,36.27
16.531,36.15
16.546,36.49
16.562,37.15
16.578,37.93
16.593,38.49
16.609,38.46
16.625,37.52
16.640,35.58
16.656,32.95
16.671,30.48
16.687,29.38
16.703,30.77
16.718,35.33
16.734,42.93
16.750,52.66
16.765,63.19
16.781,73.17
16.796,81.65
16.812,88.23
16.828,92.94
16.843,96.09
16.859,98.11
16.875,99.44
16.890,100.57
16.906,101.97
16.921,103.97
16.937,106.66
16.953,109.79
16.968,112.77
16.984,114.78
17.000,115.07
17.015,113.13
17.031,108.83
17.046,102.4
17.062,94.44
17.078,85.63
17.093,76.65
17.109,68.03
17.125,60.01
17.140,52.53
17.156,45.25
17.171,37.69
17.187,29.5
17.203,20.54
17.218,11.03
17.234,1.44
17.250,-7.7
17.265,-15.96
17.281,-23.15
17.296,-29.36
17.312,-34.85
17.328,-39.92
17.343,-44.86
17.359,-49.89
17.375,-55.26
17.390,-61.19
17.406,-67.8
17.421,-74.88
17.437,-81.73
17.453,-87.17
17.468,-89.71
17.484,-88.07
17.500,-81.61
17.515,-70.67
17.531,-56.46
17.546,-40.71
17.562,-25.04
17.578,-10.54
17.593,2.37
17.609,13.71
17.625,23.59
17.640,31.88
17.656,38.26
17.671,42.4
17.687,44.27
17.703,44.28
17.718,43.19
17.734,41.8
17.750,40.68
17.765,40.01
17.781,39.65
17.796,39.33
17.812,38.84
17.828,38.17
17.843,37.45
17.859,36.87
17.875,36.55
17.890,36.44
17.906,36.32
17.921,35.96
17.937,35.2
17.953,34.07
17.968,32.81
17.984,31.7
18.000,30.94
18.015,30.43
18.031,29.82
18.046,28.54
18.062,26.18
18.078,22.64
18.093,18.3
18.109,13.81
18.125,9.89
18.140,7.0
18.156,5.18
18.171,4.17
18.187,3.58
18.203,3.18
18.218,3.02
18.234,3.29
18.250,4.2
18.265,5.73
18.281,7.63
18.296,9.46
18.312,10.85
18.328,11.61
18.343,11.83
18.359,11.72
18.375,11.48
18.390,11.16
18.406,10.62
18.421,9.69
18.437,8.24
18.453,6.32
18.468,4.15
18.484,2.01
18.500,0.13
18.515,-1.39
18.531,-2.61
18.546,-3.78
18.562,-5.22
18.578,-7.27
18.593,-10.25
18.609,-14.35
18.625,-19.64
18.640,-25.95
18.656,-33.02
18.671,-40.39
18.687,-47.63
18.703,-54.37
18.718,-60.44
18.734,-65.88
18.750,-70.94
18.765,-76.05
18.781,-81.67
18.796,-88.13
18.812,-95.34
18.828,-102.62
18.843,-108.64
18.859,-111.68
18.875,-110.17
18.890,-103.26
18.906,-91.12
18.921,-74.97
18.937,-56.59
18.953,-37.84
18.968,-20.1
18.984,-4.26
19.000,9.23
19.015,20.11
19.031,28.22
19.046,33.54
19.062,36.28
19.078,37.03
19.093,36.59
19.109,35.78
19.125,35.13
19.140,34.79
19.156,34.55
19.171,34.11
19.187,33.25
19.203,32.06
19.218,30.84
19.234,30.02
19.250,29.84
19.265,30.28
19.281,30.97
19.296,31.31
19.312,30.71
19.328,28.81
19.343,25.56
19.359,21.25
19.375,16.37
19.390,11.44
19.406,6.86
19.421,2.82
19.437,-0.7
19.453,-3.92
19.468,-7.23
19.484,-10.99
19.500,-15.5
19.515,-20.69
19.531,-26.04
19.546,-30.43
19.562,-32.36
19.578,-30.32
19.593,-23.3
19.609,-11.25
19.625,4.81
19.640,23.12
19.656,41.69
19.671,59.01
19.687,74.36
19.703,87.84
19.718,100.01
19.734,111.38
19.750,122.12
19.765,131.93
19.781,140.39
19.796,147.29
19.812,152.86
19.828,157.87
19.843,163.35
19.859,170.21
19.875,178.84
19.890,188.96
19.906,199.69
19.921,209.86
19.937,218.46
19.953,224.96
19.968,229.37
19.984,232.19
20.000,234.0
20.015,235.18
20.031,235.62
20.046,234.5
20.062,230.42
20.078,221.67
20.093,206.8
20.109,185.17
20.125,157.33
20.140,124.89
20.156,90.1
20.171,55.07
20.187,21.15
20.203,-11.37
20.218,-43.16
20.234,-75.49
20.250,-109.75
20.265,-146.81
20.281,-186.26
20.296,-225.85
20.312,-261.4
20.328,-287.6
20.343,-299.6
20.359,-294.72
20.375,-273.63
20.390,-240.22
20.406,-200.31
20.421,-159.85
20.437,-123.41
20.453,-93.6
20.468,-71.27
20.484,-56.16
20.500,-47.45
20.515,-43.86
20.531,-43.78
20.546,-45.26
20.562,-46.3
20.578,-45.25
20.593,-41.18
20.609,-34.13
20.625,-25.29
20.640,-16.85
20.656,-11.34
20.671,-10.74
20.687,-15.55
20.703,-24.34
20.718,-34.18
20.734,-41.74
20.750,-44.67
20.765,-42.49
20.781,-36.54
20.796,-29.21
20.812,-22.72
20.828,-18.37
20.843,-16.2
20.859,-15.44
20.875,-15.03
20.890,-14.18
20.906,-12.58
20.921,-10.22
20.937,-7.05
20.953,-2.71
20.968,3.53
20.984,12.38
21.000,23.88
21.015,36.92
21.031,49.55
21.046,59.77
21.062,66.64
21.078,70.6
21.093,72.71
21.109,73.17
21.125,70.09
21.140,59.76
21.156,38.46
21.171,5.01
21.187,-37.52
21.203,-82.25
21.218,-120.84
21.234,-146.71
21.250,-157.2
21.265,-153.93
21.281,-141.13
21.296,-123.47
21.312,-104.4
21.328,-85.83
21.343,-68.75
21.359,-54.01
21.375,-42.67
21.390,-35.68
21.406,-33.32
21.421,-34.78
21.437,-38.32
21.453,-41.9
21.468,-44.01
21.484,-44.27
21.500,-43.52
21.515,-43.42
21.531,-45.58
21.546,-50.81
21.562,-58.6
21.578,-67.28
21.593,-74.6
21.609,-78.48
21.625,-77.68
21.640,-72.08
21.656,-62.44
21.671,-49.93
21.687,-35.63
21.703,-20.34
21.718,-4.55
21.734,11.22
21.750,26.21
21.765,39.42
21.781,49.84
21.796,56.81
21.812,60.32
21.828,61.13
21.843,60.52
21.859,59.77
21.875,59.77
21.890,60.8
21.906,62.53
21.921,64.5
21.937,66.48
21.953,68.7
21.968,71.76
21.984,76.28
22.000,82.6
22.015,90.56
22.031,99.59
22.046,108.99
22.062,118.15
22.078,126.53
22.093,133.48
22.109,138.2
22.125,140.07
22.140,139.17
22.156,136.44
22.171,133.23
22.187,130.21
22.203,126.24
22.218,118.19
22.234,102.1
22.250,75.27
22.265,38.06
22.281,-5.56
22.296,-49.08
22.312,-85.74
22.328,-110.67
22.343,-122.34
22.359,-122.66
22.375,-116.01
22.390,-107.78
22.406,-102.81
22.421,-104.25
22.437,-112.85
22.453,-127.05
22.468,-143.75
22.484,-159.43
22.500,-171.23
22.515,-177.65
22.531,-178.65
22.546,-175.54
22.562,-170.58
22.578,-166.6
22.593,-166.39
22.609,-171.89
22.625,-183.36
22.640,-198.98
22.656,-215.35
22.671,-228.67
22.687,-235.98
22.703,-235.84
22.718,-228.31
22.734,-214.26
22.750,-194.69
22.765,-170.44
22.781,-142.43
22.796,-112.11
22.812,-81.62
22.828,-53.46
22.843,-30.01
22.859,-13.01
22.875,-3.09
22.890,0.09
22.906,-2.27
22.921,-8.37
22.937,-15.96
22.953,-22.63
22.968,-26.18
22.984,-25.07
23.000,-18.9
23.015,-8.52
23.031,4.27
23.046,17.35
23.062,28.9
23.078,37.81
23.093,43.71
23.109,46.73
23.125,47.26
23.140,45.74
23.156,42.77
23.171,39.05
23.187,35.37
23.203,32.39
23.218,30.5
23.234,29.68
23.250,29.57
23.265,29.56
23.281,29.0
23.296,27.36
23.312,24.37
23.328,20.1
23.343,14.9
23.359,9.38
23.375,4.22
23.390,0.04
23.406,-2.75
23.421,-4.01
23.437,-3.91
23.453,-2.85
23.468,-1.42
23.484,-0.28
23.500,0.06
23.515,-0.65
23.531,-2.21
23.546,-3.88
23.562,-4.62
23.578,-3.19
23.593,1.41
23.609,9.72
23.625,21.63
23.640,36.54
23.656,53.42
23.671,71.08
23.687,88.37
23.703,104.16
23.718,117.54
23.734,127.79
23.750,134.38
23.765,136.88
23.781,134.86
23.796,127.94
23.812,115.9
23.828,99.08
23.843,78.47
23.859,55.77
23.875,32.93
23.890,11.72
23.906,-6.67
23.921,-21.67
23.937,-32.97
23.953,-40.38
23.968,-43.77
23.984,-43.34
24.000,-39.98
24.015,-35.2
24.031,-30.85
24.046,-28.49
24.062,-29.12
24.078,-32.92
24.093,-39.35
24.109,-47.14
24.125,-54.67
24.140,-60.53
24.156,-64.37
24.171,-67.54
24.187,-72.99
24.203,-84.16
24.218,-103.13
24.234,-129.09
24.250,-158.02
24.265,-183.99
24.281,-201.45
24.296,-207.34
24.312,-201.85
24.328,-187.62
24.343,-168.05
24.359,-145.78
24.375,-122.24
24.390,-98.07
24.406,-74.04
24.421,-51.47
24.437,-32.0
24.453,-16.93
24.468,-6.53
24.484,0.28
24.500,5.51
24.515,11.4
24.531,19.56
24.546,30.51
24.562,43.61
24.578,57.49
24.593,70.62
24.609,81.84
24.625,90.72
24.640,97.44
24.656,102.59
24.671,106.73
24.687,110.14
24.703,112.76
24.718,114.29
24.734,114.41
24.750,113.13
24.765,110.73
24.781,107.76
24.796,104.79
24.812,102.12
24.828,99.68
24.843,97.04
24.859,93.65
24.875,89.1
24.890,83.46
24.906,77.27
24.921,71.47
24.937,67.12
24.953,65.1
24.968,65.92
24.984,69.56
25.000,75.58
25.015,83.29
25.031,91.82
25.046,100.38
25.062,108.24
25.078,114.87
25.093,119.84
25.109,122.91
25.125,123.98
25.140,123.09
25.156,120.46
25.171,116.37
25.187,111.02
25.203,104.45
25.218,96.49
25.234,86.89
25.250,75.55
25.265,62.82
25.281,49.57
25.296,37.08
25.312,26.7
25.328,19.37
25.343,15.38
25.359,14.26
25.375,15.0
25.390,16.33
25.406,17.11
25.421,16.53
25.437,14.19
25.453,10.15
25.468,4.67
25.484,-1.94
25.500,-9.49
25.515,-18.03
25.531,-27.76
25.546,-38.78
25.562,-50.85
25.578,-63.16
25.593,-74.42
25.609,-83.08
25.625,-87.74
25.640,-87.53
25.656,-82.19
25.671,-72.14
25.687,-58.26
25.703,-41.68
25.718,-23.51
25.734,-4.78
25.750,13.69
25.765,31.3
25.781,47.55
25.796,62.03
25.812,74.42
25.828,84.52
25.843,92.45
25.859,98.7
25.875,104.05
25.890,109.26
25.906,114.8
25.921,120.52
25.937,125.69
25.953,129.27
25.968,130.09
25.984,127.15
26.000,119.59
26.015,106.86
26.031,88.95
26.046,66.7
26.062,41.82
26.078,16.48
26.093,-7.76
26.109,-30.61
26.125,-53.39
26.140,-78.24
26.156,-106.72
26.171,-138.49
26.187,-171.03
26.203,-200.36
26.218,-222.52
26.234,-234.97
26.250,-237.0
26.265,-229.44
26.281,-213.7
26.296,-191.2
26.312,-163.35
26.328,-131.92
26.343,-99.44
26.359,-68.95
26.375,-43.38
26.390,-24.52
26.406,-12.55
26.421,-6.07
26.437,-2.86
26.453,-0.88
26.468,0.99
26.484,2.82
26.500,3.98
26.515,3.79
26.531,2.11
26.546,-0.59
26.562,-3.43
26.578,-5.5
26.593,-6.32
26.609,-5.89
26.625,-4.58
26.640,-2.84
26.656,-0.96
26.671,1.1
26.687,3.56
26.703,6.64
26.718,10.32
26.734,14.17
26.750,17.49
26.765,19.52
26.781,19.79
26.796,18.2
26.812,15.02
26.828,10.64
26.843,5.33
26.859,-0.75
26.875,-7.44
26.890,-14.32
26.906,-20.52
26.921,-24.94
26.937,-26.5
26.953,-24.59
26.968,-19.23
26.984,-10.97
27.000,-0.65
27.015,10.87
27.031,22.84
27.046,34.57
27.062,45.32
27.078,54.33
27.093,60.84
27.109,64.39
27.125,64.95
27.140,63.03
27.156,59.59
27.171,55.91
27.187,53.27
27.203,52.67
27.218,54.58
27.234,58.83
27.250,64.7
27.265,71.19
27.281,77.25
27.296,82.02
27.312,84.92
27.328,85.64
27.343,84.09
27.359,80.52
27.375,75.53
27.390,70.01
27.406,64.98
27.421,61.17
27.437,58.65
27.453,56.78
27.468,54.38
27.484,50.22
27.500,43.5
27.515,34.12
27.531,22.56
27.546,9.7
27.562,-3.51
27.578,-16.12
27.593,-27.25
27.609,-36.04
27.625,-41.72
27.640,-43.81
27.656,-42.39
27.671,-38.2
27.687,-32.48
27.703,-26.59
27.718,-21.52
27.734,-17.51
27.750,-14.11
27.765,-10.46
27.781,-5.83
27.796,-0.05
27.812,6.39
27.828,12.57
27.843,17.64
27.859,21.32
27.875,24.09
27.890,26.87
27.906,30.46
27.921,34.94
27.937,39.43
27.953,42.43
27.968,42.55
27.984,39.27
28.000,33.25
28.015,25.91
28.031,18.64
28.046,12.06
28.062,5.98
28.078,-0.09
28.093,-6.31
28.109,-12.3
28.125,-17.84
28.140,-23.58
28.156,-31.41
28.171,-43.79
28.187,-62.26
28.203,-86.05
28.218,-111.88
28.234,-134.97
28.250,-151.15
28.265,-158.47
28.281,-157.76
28.296,-151.67
28.312,-143.22
28.328,-134.38
28.343,-125.82
28.359,-117.41
28.375,-109.07
28.390,-101.2
28.406,-94.52
28.421,-89.49
28.437,-85.8
28.453,-82.3
28.468,-77.42
28.484,-69.9
28.500,-59.46
28.515,-46.94
28.531,-33.99
28.546,-22.34
28.562,-13.19
28.578,-6.89
28.593,-3.1
28.609,-1.12
28.625,-0.31
28.640,-0.38
28.656,-1.24
28.671,-2.93
28.687,-5.34
28.703,-8.2
28.718,-11.12
28.734,-13.66
28.750,-15.42
28.765,-15.97
28.781,-14.94
28.796,-11.92
28.812,-6.65
28.828,0.9
28.843,10.37
28.859,21.03
28.875,31.96
28.890,42.19
28.906,51.01
28.921,57.96
28.937,62.97
28.953,66.24
28.968,68.23
28.984,69.54
29.000,70.96
29.015,73.2
29.031,76.71
29.046,81.34
29.062,86.21
29.078,89.86
29.093,90.83
29.109,88.29
29.125,82.46
29.140,74.59
29.156,66.43
29.171,59.39
29.187,54.13
29.203,50.35
29.218,47.31
29.234,44.32
29.250,41.2
29.265,38.3
29.281,36.11
29.296,34.98
29.312,34.8
29.328,35.15
29.343,35.56
29.359,35.89
29.375,36.36
29.390,37.44
29.406,39.48
29.421,42.43
29.437,45.78
29.453,48.73
29.468,50.54
29.484,50.65
29.500,48.65
29.515,43.98
29.531,35.93
29.546,23.82
29.562,7.56
29.578,-11.84
29.593,-32.17
29.609,-50.48
29.625,-64.03
29.640,-71.08
29.656,-71.43
29.671,-66.23
29.687,-57.5
29.703,-47.47
29.718,-38.08
29.734,-30.75
29.750,-26.24
29.765,-24.73
29.781,-25.78
29.796,-28.6
29.812,-32.23
29.828,-35.85
29.843,-38.95
29.859,-41.44
29.875,-43.53
29.890,-45.65
29.906,-48.25
29.921,-51.63
29.937,-55.76
29.953,-60.37
29.968,-65.0
29.984,-69.3
30.000,-73.15
30.015,-76.66
30.031,-80.05
30.046,-83.27
30.062,-85.95
30.078,-87.35
30.093,-86.69
30.109,-83.35
30.125,-77.07
30.140,-68.05
30.156,-56.97
30.171,-45.03
30.187,-33.95
30.203,-25.65
30.218,-21.78
30.234,-23.03
30.250,-28.65
30.265,-36.6
30.281,-44.24
30.296,-49.34
30.312,-50.94
30.328,-49.64
30.343,-47.13
30.359,-45.42
30.375,-45.9
30.390,-49.01
30.406,-54.2
30.421,-60.35
30.437,-66.33
30.453,-71.27
30.468,-74.74
30.484,-76.71
30.500,-77.46
30.515,-77.49
30.531,-77.62
30.546,-78.92
30.562,-82.46
30.578,-88.73
30.593,-97.02
30.609,-105.28
30.625,-110.52
30.640,-109.93
30.656,-101.95
30.671,-86.9
30.687,-66.81
30.703,-44.42
30.718,-22.05
30.734,-0.94
30.750,18.56
30.765,36.38
30.781,52.04
30.796,64.42
30.812,72.18
30.828,74.57
30.843,71.93
30.859,65.76
30.875,58.2
30.890,51.18
30.906,45.84
30.921,42.39
30.937,40.38
30.953,39.34
30.968,39.23
30.984,40.46
31.000,43.53
31.015,48.58
31.031,54.95
31.046,61.27
31.062,65.87
31.078,67.37
31.093,65.31
31.109,60.29
31.125,53.79
31.140,47.53
31.156,42.91
31.171,40.58
31.187,40.52
31.203,42.35
31.218,45.86
31.234,51.2
31.250,58.69
31.265,68.37
31.281,79.55
31.296,90.83
31.312,100.5
31.328,107.19
31.343,110.39
31.359,110.45
31.375,108.18
31.390,104.37
31.406,99.43
31.421,93.41
31.437,86.35
31.453,78.66
31.468,71.32
31.484,65.74
31.500,63.33
31.515,65.07
31.531,71.03
31.546,80.27
31.562,90.96
31.578,100.94
31.593,108.19
31.609,111.42
31.625,110.17
31.640,104.74
31.656,95.76
31.671,83.79
31.687,69.21
31.703,52.35
31.718,33.81
31.734,14.59
31.750,-3.96
31.765,-20.54
31.781,-34.18
31.796,-44.42
31.812,-51.31
31.828,-54.98
31.843,-55.46
31.859,-52.74
31.875,-46.88
31.890,-38.37
31.906,-28.26
31.921,-18.0
31.937,-9.06
31.953,-2.56
31.968,1.07
31.984,1.99
32.000,0.79
32.015,-1.88
32.031,-5.52
32.046,-9.88
32.062,-14.87
32.078,-20.34
32.093,-26.0
32.109,-31.35
32.125,-35.85
32.140,-39.17
32.156,-41.25
32.171,-42.42
32.187,-43.13
32.203,-43.83
32.218,-44.78
32.234,-46.07
32.250,-47.75
32.265,-49.94
32.281,-52.88
32.296,-56.81
32.312,-61.95
32.328,-68.29
32.343,-75.62
32.359,-83.47
32.375,-91.12
32.390,-97.53
32.406,-101.46
32.421,-101.64
32.437,-97.1
32.453,-87.54
32.468,-73.46
32.484,-56.11
32.500,-37.18
32.515,-18.45
32.531,-1.43
32.546,12.8
32.562,23.63
32.578,30.83
32.593,34.58
32.609,35.36
32.625,33.98
32.640,31.45
32.656,28.81
32.671,26.94
32.687,26.36
32.703,27.21
32.718,29.32
32.734,32.39
32.750,36.19
32.765,40.67
32.781,45.89
32.796,51.9
32.812,58.4
32.828,64.61
32.843,69.26
32.859,70.79
32.875,67.85
32.890,59.69
32.906,46.47
32.921,29.29
32.937,9.87
32.953,-9.78
32.968,-27.74
32.984,-42.42
33.000,-52.62
33.015,-57.63
33.031,-57.23
33.046,-51.84
33.062,-42.51
33.078,-30.87
33.093,-18.74
33.109,-7.75
33.125,1.04
33.140,7.25
33.156,11.05
33.171,12.85
33.187,13.1
33.203,12.16
33.218,10.26
33.234,7.58
33.250,4.37
33.265,0.86
33.281,-2.66
33.296,-5.97
33.312,-8.92
33.328,-11.42
33.343,-13.44
33.359,-14.99
33.375,-16.11
33.390,-16.88
33.406,-17.46
33.421,-18.02
33.437,-18.72
33.453,-19.6
33.468,-20.54
33.484,-21.31
33.500,-21.64
33.515,-21.5
33.531,-21.13
33.546,-21.15
33.562,-22.27
33.578,-25.04
33.593,-29.51
33.609,-35.07
33.625,-40.55
33.640,-44.51
33.656,-45.61
33.671,-42.92
33.687,-36.2
33.703,-25.8
33.718,-12.52
33.734,2.63
33.750,18.65
33.765,34.72
33.781,50.09
33.796,63.92
33.812,75.15
33.828,82.58
33.843,85.17
33.859,82.51
33.875,75.08
33.890,64.27
33.906,51.98
33.921,39.99
33.937,29.46
33.953,20.75
33.968,13.61
33.984,7.6
34.000,2.4
34.015,-2.02
34.031,-5.63
34.046,-8.62
34.062,-11.48
34.078,-15.01
34.093,-19.9
34.109,-26.55
34.125,-34.84
34.140,-44.21
34.156,-53.92
34.171,-63.3
34.187,-71.89
34.203,-79.44
34.218,-85.75
34.234,-90.56
34.250,-93.54
34.265,-94.29
34.281,-92.41
34.296,-87.56
34.312,-79.45
34.328,-67.95
34.343,-53.23
34.359,-35.92
34.375,-17.16
34.390,1.49
34.406,18.37
34.421,32.19
34.437,42.22
34.453,48.47
34.468,51.4
34.484,51.73
34.500,50.13
34.515,47.18
34.531,43.36
34.546,39.16
34.562,35.1
34.578,31.73
34.593,29.57
34.609,29.0
34.625,30.25
34.640,33.27
34.656,37.74
34.671,43.03
34.687,48.37
34.703,52.95
34.718,56.18
34.734,57.84
34.750,58.02
34.765,57.04
34.781,55.22
34.796,52.84
34.812,50.09
34.828,47.1
34.843,44.05
34.859,41.09
34.875,38.32
34.890,35.59
34.906,32.53
34.921,28.64
34.937,23.41
34.953,16.62
34.968,8.36
34.984,-0.89
35.000,-10.34
35.015,-19.01
35.031,-25.87
35.046,-30.01
35.062,-30.83
35.078,-28.26
35.093,-22.78
35.109,-15.33
35.125,-7.06
35.140,0.97
35.156,8.07
35.171,13.97
35.187,18.7
35.203,22.35
35.218,24.96
35.234,26.43
35.250,26.65
35.265,25.74
35.281,24.04
35.296,22.14
35.312,20.68
35.328,20.13
35.343,20.64
35.359,22.02
35.375,23.91
35.390,25.87
35.406,27.58
35.421,28.89
35.437,29.79
35.453,30.33
35.468,30.58
35.484,30.58
35.500,30.31
35.515,29.77
35.531,29.0
35.546,28.1
35.562,27.32
35.578,26.98
35.593,27.45
35.609,28.97
35.625,31.58
35.640,35.03
35.656,38.79
35.671,42.21
35.687,44.73
35.703,46.09
35.718,46.53
35.734,46.74
35.750,47.68
35.765,50.36
35.781,55.49
35.796,63.28
35.812,73.38
35.828,85.07
35.843,97.56
35.859,110.35
35.875,123.31
35.890,136.58
35.906,150.27
35.921,163.98
35.937,176.86
35.953,187.7
35.968,195.32
35.984,198.71
36.000,197.18
36.015,190.22
36.031,177.37
36.046,158.27
36.062,132.89
36.078,101.52
36.093,64.84
36.109,23.71
36.125,-20.73
36.140,-66.8
36.156,-111.84
36.171,-152.17
36.187,-183.65
36.203,-202.81
36.218,-208.15
36.234,-200.73
36.250,-183.97
36.265,-162.34
36.281,-139.97
36.296,-119.57
36.312,-102.21
36.328,-87.71
36.343,-75.47
36.359,-64.91
36.375,-55.62
36.390,-47.44
36.406,-40.3
36.421,-34.23
36.437,-29.36
36.453,-25.83
36.468,-23.68
36.484,-23.05
36.500,-24.36
36.515,-28.42
36.531,-36.24
36.546,-48.62
36.562,-65.32
36.578,-84.8
36.593,-104.32
36.609,-120.8
36.625,-131.82
36.640,-136.5
36.656,-135.52
36.671,-130.52
36.687,-123.19
36.703,-114.57
36.718,-104.95
36.734,-94.22
36.750,-82.46
36.765,-70.17
36.781,-58.32
36.796,-47.88
36.812,-39.43
36.828,-32.93
36.843,-27.74
36.859,-23.02
36.875,-18.11
36.890,-12.83
36.906,-7.55
36.921,-2.91
36.937,0.46
36.953,2.32
36.968,2.83
36.984,2.49
37.000,1.8
37.015,0.98
37.031,-0.03
37.046,-1.54
37.062,-3.79
37.078,-6.72
37.093,-9.96
37.109,-12.99
37.125,-15.38
37.140,-16.99
37.156,-18.12
37.171,-19.24
37.187,-20.96
37.203,-23.65
37.218,-27.44
37.234,-32.11
37.250,-37.17
37.265,-41.95
37.281,-45.66
37.296,-47.61
37.312,-47.25
37.328,-44.34
37.343,-38.97
37.359,-31.59
37.375,-22.91
37.390,-13.8
37.406,-5.14
37.421,2.33
37.437,8.1
37.453,12.03
37.468,14.33
37.484,15.38
37.500,15.69
37.515,15.67
37.531,15.49
37.546,15.21
37.562,14.85
37.578,14.56
37.593,14.6
37.609,15.16
37.625,16.21
37.640,17.39
37.656,18.09
37.671,17.7
37.687,15.89
37.703,12.83
37.718,8.98
37.734,4.94
37.750,1.11
37.765,-2.42
37.781,-5.83
37.796,-9.4
37.812,-13.32
37.828,-17.61
37.843,-22.14
37.859,-26.74
37.875,-31.24
37.890,-35.58
37.906,-39.74
37.921,-43.71
37.937,-47.5
37.953,-50.96
37.968,-53.95
37.984,-56.27
38.000,-57.83
38.015,-58.63
38.031,-58.75
38.046,-58.22
38.062,-56.85
38.078,-54.14
38.093,-49.31
38.109,-41.67
38.125,-30.84
38.140,-17.06
38.156,-1.26
38.171,15.25
38.187,31.1
38.203,45.31
38.218,57.49
38.234,67.83
38.250,76.89
38.265,85.26
38.281,93.34
38.296,101.15
38.312,108.4
38.328,114.63
38.343,119.44
38.359,122.62
38.375,124.34
38.390,125.17
38.406,126.05
38.421,128.06
38.437,131.99
38.453,138.05
38.468,145.52
38.484,152.78
38.500,157.42
38.515,156.54
38.531,147.39
38.546,127.86
38.562,97.28
38.578,56.85
38.593,9.74
38.609,-39.47
38.625,-85.81
38.640,-125.17
38.656,-155.23
38.671,-175.63
38.687,-187.44
38.703,-192.26
38.718,-191.5
38.734,-186.1
38.750,-176.81
38.765,-164.63
38.781,-150.93
38.796,-137.35
38.812,-125.35
38.828,-115.78
38.843,-108.63
38.859,-103.23
38.875,-98.42
38.890,-93.03
38.906,-86.09
38.921,-77.07
38.937,-65.76
38.953,-52.29
38.968,-36.96
38.984,-20.17
39.000,-2.43
39.015,15.53
39.031,32.81
39.046,48.4
39.062,61.46
39.078,71.53
39.093,78.7
39.109,83.49
39.125,86.46
39.140,87.87
39.156,87.51
39.171,84.82
39.187,79.36
39.203,71.19
39.218,61.15
39.234,50.69
39.250,41.56
39.265,35.25
39.281,32.56
39.296,33.25
39.312,36.12
39.328,39.4
39.343,41.37
39.359,41.01
39.375,38.36
39.390,34.4
39.406,30.53
39.421,27.77
39.437,26.25
39.453,25.17
39.468,23.14
39.484,18.97
39.500,12.23
39.515,3.44
39.531,-6.12
39.546,-14.98
39.562,-21.91
39.578,-26.32
39.593,-28.33
39.609,-28.93
39.625,-29.8
39.640,-33.05
39.656,-40.52
39.671,-52.95
39.687,-69.29
39.703,-86.47
39.718,-100.1
39.734,-105.68
39.750,-100.29
39.765,-83.67
39.781,-58.42
39.796,-29.23
39.812,-1.26
39.828,21.36
39.843,36.56
39.859,44.6
39.875,47.43
39.890,47.58
39.906,47.23
39.921,47.55
39.937,48.83
39.953,51.01
39.968,54.3
39.984,59.29
40.000,66.36
40.015,74.92
40.031,83.0
40.046,87.64
40.062,86.16
40.078,77.57
40.093,63.32
40.109,46.8
40.125,31.93
40.140,21.41
40.156,15.68
40.171,13.17
40.187,11.34
40.203,8.01
40.218,2.22
40.234,-5.84
40.250,-15.49
40.265,-26.27
40.281,-38.23
40.296,-51.76
40.312,-67.07
40.328,-83.59
40.343,-100.08
40.359,-114.86
40.375,-126.58
40.390,-134.83
40.406,-140.24
40.421,-144.23
40.437,-148.36
40.453,-153.75
40.468,-160.64
40.484,-168.45
40.500,-175.98
40.515,-181.8
40.531,-184.41
40.546,-182.35
40.562,-174.25
40.578,-159.14
40.593,-136.61
40.609,-106.88
40.625,-70.62
40.640,-28.52
40.656,18.93
40.671,71.0
40.687,125.79
40.703,179.25
40.718,225.11
40.734,256.26
40.750,267.15
40.765,256.19
40.781,226.79
40.796,186.35
40.812,143.83
40.828,107.25
40.843,82.16
40.859,71.58
40.875,76.29
40.890,94.9
40.906,123.38
40.921,154.79
40.937,180.16
40.953,190.86
40.968,181.52
40.984,152.12
41.000,108.03
41.015,58.11
41.031,11.88
41.046,-23.12
41.062,-42.8
41.078,-47.11
41.093,-39.65
41.109,-26.73
41.125,-15.86
41.140,-13.66
41.156,-23.95
41.171,-46.55
41.187,-77.53
41.203,-110.64
41.218,-139.53
41.234,-159.58
41.250,-169.05
41.265,-169.12
41.281,-163.21
41.296,-155.82
41.312,-151.19
41.328,-152.03
41.343,-158.69
41.359,-168.95
41.375,-178.78
41.390,-183.61
41.406,-179.78
41.421,-165.53
41.437,-141.32
41.453,-109.5
41.468,-73.66
41.484,-37.75
41.500,-5.36
41.515,20.85
41.531,39.51
41.546,50.6
41.562,55.22
41.578,55.31
41.593,53.18
41.609,51.06
41.625,50.6
41.640,52.58
41.656,56.78
41.671,62.23
41.687,67.72
41.703,72.24
41.718,75.36
41.734,77.06
41.750,77.57
41.765,77.03
41.781,75.44
41.796,72.77
41.812,69.06
41.828,64.58
41.843,59.68
41.859,54.71
41.875,49.94
41.890,45.55
41.906,41.67
41.921,38.46
41.937,36.02
41.953,34.27
41.968,32.92
41.984,31.52
42.000,29.6
42.015,26.82
42.031,23.1
42.046,18.55
42.062,13.43
42.078,8.18
42.093,3.45
42.109,0.14
42.125,-0.74
42.140,1.64
42.156,7.53
42.171,16.44
42.187,27.26
42.203,38.59
42.218,49.34
42.234,58.78
42.250,66.43
42.265,71.59
42.281,73.21
42.296,70.02
42.312,61.24
42.328,47.17
42.343,29.49
42.359,10.84
42.375,-5.99
42.390,-18.92
42.406,-27.0
42.421,-30.41
42.437,-30.02
42.453,-26.91
42.468,-22.23
42.484,-17.02
42.500,-12.32
42.515,-9.01
42.531,-7.65
42.546,-8.34
42.562,-10.75
42.578,-14.21
42.593,-18.05
42.609,-21.75
42.625,-25.05
42.640,-27.93
42.656,-30.56
42.671,-33.04
42.687,-35.39
42.703,-37.46
42.718,-39.02
42.734,-40.01
42.750,-40.64
42.765,-41.43
42.781,-43.04
42.796,-45.98
42.812,-50.17
42.828,-54.91
42.843,-58.94
42.859,-60.87
42.875,-59.64
42.890,-54.87
42.906,-46.89
42.921,-36.55
42.937,-24.99
42.953,-13.28
42.968,-2.37
42.984,7.03
43.000,14.39
43.015,19.39
43.031,21.96
43.046,22.33
43.062,21.03
43.078,18.8
43.093,16.38
43.109,14.3
43.125,12.73
43.140,11.48
43.156,10.13
43.171,8.31
43.187,5.88
43.203,3.01
43.218,0.06
43.234,-2.57
43.250,-4.71
43.265,-6.47
43.281,-8.12
43.296,-9.98
43.312,-12.14
43.328,-14.45
43.343,-16.58
43.359,-18.18
43.375,-19.06
43.390,-19.28
43.406,-19.09
43.421,-18.87
43.437,-19.01
43.453,-19.85
43.468,-21.59
43.484,-24.2
43.500,-27.33
43.515,-30.16
43.531,-31.49
43.546,-29.9
43.562,-24.16
43.578,-13.62
43.593,1.56
43.609,20.37
43.625,41.28
43.640,62.57
43.656,82.8
43.671,101.01
43.687,116.77
43.703,129.98
43.718,140.53
43.734,148.11
43.750,152.11
43.765,151.93
43.781,147.26
43.796,138.57
43.812,127.24
43.828,115.36
43.843,105.13
43.859,98.22
43.875,95.16
43.890,95.41
43.906,97.63
43.921,100.31
43.937,102.42
43.953,103.67
43.968,104.42
43.984,105.3
44.000,106.74
44.015,108.67
44.031,110.68
44.046,112.3
44.062,113.43
44.078,114.25
44.093,114.76
44.109,114.29
44.125,111.41
44.140,104.52
44.156,92.74
44.171,76.57
44.187,57.58
44.203,37.25
44.218,15.61
44.234,-9.23
44.250,-40.17
44.265,-78.95
44.281,-124.25
44.296,-171.06
44.312,-212.06
44.328,-240.33
44.343,-251.76
44.359,-246.24
44.375,-227.01
44.390,-198.85
44.406,-166.35
44.421,-132.94
44.437,-100.81
44.453,-71.28
44.468,-45.23
44.484,-23.11
44.500,-4.8
44.515,10.41
44.531,23.59
44.546,35.7
44.562,47.29
44.578,58.29
44.593,68.18
44.609,76.16
44.625,81.76
44.640,85.2
44.656,87.44
44.671,89.75
44.687,92.61
44.703,94.83
44.718,93.18
44.734,83.13
44.750,60.66
44.765,24.32
44.781,-23.5
44.796,-76.9
44.812,-128.27
44.828,-170.9
44.843,-201.03
44.859,-218.36
44.875,-225.19
44.890,-224.57
44.906,-218.74
44.921,-208.43
44.937,-193.39
44.953,-173.34
44.968,-148.89
44.984,-121.77
45.000,-94.35
45.015,-68.75
45.031,-46.03
45.046,-26.19
45.062,-8.56
45.078,7.48
45.093,22.04
45.109,34.63
45.125,44.59
45.140,51.66
45.156,56.29
45.171,59.7
45.187,63.36
45.203,68.51
45.218,75.63
45.234,84.31
45.250,93.46
45.265,101.91
45.281,108.89
45.296,114.42
45.312,119.2
45.328,124.21
45.343,130.12
45.359,136.96
45.375,143.98
45.390,150.07
45.406,154.23
45.421,156.12
45.437,156.22
45.453,155.47
45.468,154.82
45.484,154.62
45.500,154.32
45.515,152.43
45.531,146.9
45.546,135.46
45.562,116.23
45.578,88.34
45.593,52.41
45.609,10.88
45.625,-32.32
45.640,-72.54
45.656,-105.64
45.671,-129.11
45.687,-142.54
45.703,-147.39
45.718,-146.05
45.734,-140.97
45.750,-133.99
45.765,-126.1
45.781,-117.47
45.796,-107.49
45.812,-94.65
45.828,-76.94
45.843,-52.85
45.859,-22.68
45.875,10.6
45.890,41.61
45.906,64.47
45.921,75.2
45.937,73.57
45.953,63.03
45.968,48.9
45.984,35.9
46.000,26.7
46.015,21.98
46.031,21.62
46.046,25.61
46.062,33.84
46.078,44.98
46.093,55.63
46.109,60.81
46.125,56.1
46.140,40.09
46.156,15.48
46.171,-11.84
46.187,-35.16
46.203,-49.61
46.218,-53.56
46.234,-48.65
46.250,-38.78
46.265,-28.75
46.281,-23.3
46.296,-26.01
46.312,-38.39
46.328,-59.22
46.343,-84.65
46.359,-109.22
46.375,-127.55
46.390,-135.98
46.406,-133.61
46.421,-122.33
46.437,-105.94
46.453,-89.01
46.468,-75.49
46.484,-67.84
46.500,-66.41
46.515,-69.61
46.531,-74.81
46.546,-79.49
46.562,-82.38
46.578,-83.71
46.593,-84.64
46.609,-86.05
46.625,-87.71
46.640,-88.12
46.656,-85.18
46.671,-77.28
46.687,-63.99
46.703,-46.38
46.718,-26.61
46.734,-7.48
46.750,8.18
46.765,18.2
46.781,21.43
46.796,18.02
46.812,9.31
46.828,-2.53
46.843,-15.1
46.859,-26.26
46.875,-34.53
46.890,-39.04
46.906,-39.46
46.921,-36.08
46.937,-29.74
46.953,-21.94
46.968,-14.57
46.984,-9.49
47.000,-7.95
47.015,-10.21
47.031,-15.48
47.046,-22.3
47.062,-29.08
47.078,-34.56
47.093,-38.0
47.109,-39.09
47.125,-37.57
47.140,-33.14
47.156,-25.55
47.171,-14.71
47.187,-1.04
47.203,14.55
47.218,30.81
47.234,46.54
47.250,60.82
47.265,73.16
47.281,83.35
47.296,91.37
47.312,97.31
47.328,101.4
47.343,104.02
47.359,105.59
47.375,106.36
47.390,106.42
47.406,105.9
47.421,105.27
47.437,105.29
47.453,106.62
47.468,108.99
47.484,110.74
47.500,109.19
47.515,101.78
47.531,87.56
47.546,67.96
47.562,46.27
47.578,26.24
47.593,10.42
47.609,-0.45
47.625,-6.89
47.640,-9.44
47.656,-8.05
47.671,-2.4
47.687,7.03
47.703,17.95
47.718,26.52
47.734,28.63
47.750,21.72
47.765,5.89
47.781,-16.15
47.796,-40.1
47.812,-61.3
47.828,-75.72
47.843,-80.68
47.859,-75.28
47.875,-60.85
47.890,-40.85
47.906,-20.1
47.921,-3.33
47.937,6.4
47.953,8.55
47.968,4.83
47.984,-1.88
48.000,-8.56
48.015,-12.78
48.031,-12.89
48.046,-8.13
48.062,0.94
48.078,12.1
48.093,21.6
48.109,25.32
48.125,20.51
48.140,7.41
48.156,-10.54
48.171,-28.01
48.187,-39.89
48.203,-43.26
48.218,-38.19
48.234,-27.26
48.250,-14.27
48.265,-2.88
48.281,4.31
48.296,6.28
48.312,3.52
48.328,-2.33
48.343,-9.06
48.359,-14.64
48.375,-17.83
48.390,-18.35
48.406,-16.64
48.421,-13.33
48.437,-8.92
48.453,-3.79
48.468,1.51
48.484,5.96
48.500,8.29
48.515,7.67
48.531,4.38
48.546,-0.11
48.562,-3.79
48.578,-5.08
48.593,-3.58
48.609,0.14
48.625,5.4
48.640,12.28
48.656,21.62
48.671,34.11
48.687,48.98
48.703,63.42
48.718,73.38
48.734,75.43
48.750,68.61
48.765,54.99
48.781,38.58
48.796,23.45
48.812,12.16
48.828,5.45
48.843,2.9
48.859,3.88
48.875,7.7
48.890,13.27
48.906,18.55
48.921,20.9
48.937,17.98
48.953,9.07
48.968,-4.55
48.984,-20.13
49.000,-34.66
49.015,-46.0
49.031,-53.15
49.046,-56.09
49.062,-55.25
49.078,-51.48
49.093,-46.14
49.109,-41.12
49.125,-38.36
49.140,-39.03
49.156,-43.02
49.171,-49.0
49.187,-55.16
49.203,-60.18
49.218,-63.78
49.234,-66.63
49.250,-69.79
49.265,-73.93
49.281,-78.84
49.296,-83.39
49.312,-85.98
49.328,-85.04
49.343,-79.79
49.359,-70.49
49.375,-58.33
49.390,-44.73
49.406,-30.6
49.421,-16.05
49.437,-0.86
49.453,14.78
49.468,29.65
49.484,41.62
49.500,48.72
49.515,50.24
49.531,47.31
49.546,42.42
49.562,38.34
49.578,36.97
49.593,38.61
49.609,42.06
49.625,45.29
49.640,46.15
49.656,43.23
49.671,36.36
49.687,26.79
49.703,16.91
49.718,9.4
49.734,6.04
49.750,6.95
49.765,10.51
49.781,14.23
49.796,16.13
49.812,15.59
49.828,13.34
49.843,10.64
49.859,8.34
49.875,6.65
49.890,5.68
49.906,5.98
49.921,8.72
49.937,14.69
49.953,22.99
49.968,30.35
49.984,31.95
50.000,23.52
50.015,3.62
50.031,-25.3
50.046,-57.85
50.062,-87.97
50.078,-111.05
50.093,-124.98
50.109,-129.71
50.125,-126.09
50.140,-115.34
50.156,-99.08
50.171,-79.93
50.187,-61.38
50.203,-46.9
50.218,-38.51
50.234,-35.81
50.250,-36.22
50.265,-36.37
50.281,-33.75
50.296,-27.82
50.312,-19.82
50.328,-11.77
50.343,-5.26
50.359,-0.84
50.375,1.95
50.390,4.03
50.406,6.21
50.421,8.94
50.437,12.27
50.453,16.05
50.468,20.08
50.484,24.25
50.500,28.53
50.515,32.88
50.531,37.13
50.546,41.02
50.562,44.2
50.578,46.37
50.593,47.34
50.609,47.08
50.625,45.74
50.640,43.57
50.656,40.9
50.671,38.03
50.687,35.23
50.703,32.6
50.718,30.07
50.734,27.55
50.750,25.01
50.765,22.48
50.781,20.16
50.796,18.2
50.812,16.64
50.828,15.3
50.843,13.77
50.859,11.61
50.875,8.61
50.890,5.02
50.906,1.63
50.921,-0.39
50.937,0.26
50.953,4.61
50.968,13.37
50.984,27.0
51.000,45.73
51.015,69.47
51.031,97.11
51.046,126.02
51.062,151.98
51.078,170.15
51.093,176.72
51.109,170.55
51.125,153.84
51.140,131.31
51.156,108.44
51.171,89.55
51.187,76.92
51.203,70.96
51.218,70.89
51.234,75.31
51.250,82.18
51.265,88.81
51.281,92.09
51.296,89.43
51.312,79.9
51.328,64.87
51.343,47.44
51.359,31.25
51.375,19.08
51.390,12.06
51.406,9.64
51.421,10.13
51.437,11.31
51.453,10.89
51.468,6.91
51.484,-1.83
51.500,-15.42
51.515,-32.62
51.531,-51.28
51.546,-69.04
51.562,-83.92
51.578,-94.67
51.593,-100.75
51.609,-102.23
51.625,-99.92
51.640,-95.53
51.656,-91.56
51.671,-90.77
51.687,-95.04
51.703,-104.5
51.718,-117.15
51.734,-129.49
51.750,-137.93
51.765,-140.22
51.781,-136.36
51.796,-128.42
51.812,-119.61
51.828,-112.79
51.843,-109.32
51.859,-108.73
51.875,-109.16
51.890,-108.37
51.906,-104.48
51.921,-96.53
51.937,-84.41
51.953,-68.77
51.968,-50.77
51.984,-32.27
52.000,-15.69
52.015,-3.7
52.031,1.58
52.046,-0.51
52.062,-8.57
52.078,-19.34
52.093,-28.87
52.109,-33.89
52.125,-33.0
52.140,-26.92
52.156,-18.02
52.171,-9.16
52.187,-2.66
52.203,0.32
52.218,-0.1
52.234,-3.06
52.250,-7.3
52.265,-11.72
52.281,-15.37
52.296,-17.59
52.312,-17.94
52.328,-16.28
52.343,-12.87
52.359,-8.3
52.375,-3.33
52.390,1.41
52.406,5.59
52.421,9.2
52.437,12.35
52.453,15.06
52.468,17.19
52.484,18.61
52.500,19.36
52.515,19.64
52.531,19.63
52.546,19.27
52.562,18.07
52.578,15.45
52.593,11.22
52.609,6.0
52.625,1.1
52.640,-1.89
52.656,-1.75
52.671,2.16
52.687,10.26
52.703,23.1
52.718,41.26
52.734,64.47
52.750,90.49
52.765,114.75
52.781,131.35
52.796,135.38
52.812,125.07
52.828,102.86
52.843,74.31
52.859,45.67
52.875,21.6
52.890,4.27
52.906,-5.95
52.921,-9.07
52.937,-4.86
52.953,6.62
52.968,23.8
52.984,42.88
53.000,58.76
53.015,66.82
53.031,65.07
53.046,54.78
53.062,39.72
53.078,24.21
53.093,11.68
53.109,4.07
53.125,2.05
53.140,5.5
53.156,13.61
53.171,24.62
53.187,35.69
53.203,43.5
53.218,45.49
53.234,40.87
53.250,30.88
53.265,18.08
53.281,5.3
53.296,-5.09
53.312,-11.54
53.328,-13.24
53.343,-10.35
53.359,-4.35
53.375,1.79
53.390,4.29
53.406,0.15
53.421,-11.29
53.437,-27.63
53.453,-44.32
53.468,-56.51
53.484,-60.86
53.500,-56.33
53.515,-44.14
53.531,-27.04
53.546,-8.61
53.562,7.25
53.578,16.94
53.593,18.18
53.609,11.06
53.625,-1.55
53.640,-14.78
53.656,-23.66
53.671,-25.24
53.687,-19.85
53.703,-10.82
53.718,-2.79
53.734,0.34
53.750,-3.1
53.765,-12.29
53.781,-24.68
53.796,-37.27
53.812,-47.61
53.828,-54.2
53.843,-56.33
53.859,-53.75
53.875,-46.6
53.890,-35.62
53.906,-22.59
53.921,-10.32
53.937,-2.07
53.953,-0.28
53.968,-5.49
53.984,-15.82
54.000,-27.63
54.015,-36.93
54.031,-40.96
54.046,-39.09
54.062,-32.71
54.078,-24.28
54.093,-16.18
54.109,-9.81
54.125,-5.39
54.140,-2.35
54.156,0.08
54.171,2.52
54.187,5.32
54.203,8.89
54.218,14.01
54.234,21.76
54.250,32.9
54.265,46.91
54.281,61.48
54.296,72.93
54.312,77.64
54.328,73.72
54.343,62.13
54.359,46.37
54.375,30.88
54.390,19.3
54.406,13.5
54.421,13.75
54.437,19.57
54.453,30.41
54.468,45.42
54.484,62.84
54.500,79.61
54.515,91.96
54.531,96.97
54.546,94.0
54.562,85.21
54.578,74.69
54.593,66.71
54.609,63.97
54.625,66.72
54.640,72.79
54.656,78.52
54.671,80.08
54.687,74.63
54.703,61.16
54.718,40.67
54.734,15.77
54.750,-10.21
54.765,-34.19
54.781,-54.16
54.796,-69.27
54.812,-79.62
54.828,-85.74
54.843,-88.43
54.859,-88.68
54.875,-87.66
54.890,-86.61
54.906,-86.31
54.921,-86.7
54.937,-86.77
54.953,-85.16
54.968,-80.8
54.984,-73.69
55.000,-65.11
55.015,-57.25
55.031,-52.51
55.046,-52.6
55.062,-58.01
55.078,-67.84
55.093,-79.89
55.109,-91.13
55.125,-98.35
55.140,-98.97
55.156,-91.82
55.171,-77.74
55.187,-59.52
55.203,-40.93
55.218,-25.43
55.234,-14.82
55.250,-8.72
55.265,-5.13
55.281,-1.75
55.296,2.71
55.312,7.75
55.328,11.56
55.343,11.99
55.359,7.81
55.375,-0.56
55.390,-11.27
55.406,-21.69
55.421,-29.41
55.437,-32.89
55.453,-31.69
55.468,-26.41
55.484,-18.38
55.500,-9.43
55.515,-1.64
55.531,2.92
55.546,2.73
55.562,-2.5
55.578,-11.29
55.593,-20.59
55.609,-26.65
55.625,-26.71
55.640,-20.5
55.656,-10.77
55.671,-2.3
55.687,-0.04
55.703,-6.99
55.718,-23.17
55.734,-45.86
55.750,-71.02
55.765,-94.87
55.781,-115.04
55.796,-130.72
55.812,-142.26
55.828,-150.48
55.843,-156.34
55.859,-160.74
55.875,-164.53
55.890,-168.38
55.906,-172.46
55.921,-176.12
55.937,-177.9
55.953,-175.89
55.968,-168.43
55.984,-154.82
56.000,-135.68
56.015,-112.93
56.031,-89.25
56.046,-67.11
56.062,-47.95
56.078,-31.67
56.093,-16.76
56.109,-1.03
56.125,17.38
56.140,39.18
56.156,63.61
56.171,88.75
56.187,112.34
56.203,132.77
56.218,149.48
56.234,162.92
56.250,174.0
56.265,183.29
56.281,190.66
56.296,195.39
56.312,196.72
56.328,194.57
56.343,189.86
56.359,184.25
56.375,179.66
56.390,177.37
56.406,177.6
56.421,179.59
56.437,181.94
56.453,183.13
56.468,181.84
56.484,177.03
56.500,167.78
56.515,153.44
56.531,133.75
56.546,109.28
56.562,81.64
56.578,53.31
56.593,26.98
56.609,4.73
56.625,-12.65
56.640,-25.92
56.656,-36.9
56.671,-47.54
56.687,-59.23
56.703,-72.28
56.718,-86.07
56.734,-99.44
56.750,-111.1
56.765,-119.67
56.781,-123.61
56.796,-121.16
56.812,-110.89
56.828,-92.52
56.843,-67.69
56.859,-40.13
56.875,-14.76
56.890,3.87
56.906,13.13
56.921,13.07
56.937,6.06
56.953,-4.63
56.968,-16.22
56.984,-27.3
57.000,-37.58
57.015,-46.9
57.031,-54.21
57.046,-57.34
57.062,-53.83
57.078,-42.4
57.093,-24.23
57.109,-3.26
57.125,15.12
57.140,26.12
57.156,27.58
57.171,20.61
57.187,8.89
57.203,-3.27
57.218,-12.85
57.234,-19.08
57.250,-23.12
57.265,-26.8
57.281,-31.45
57.296,-37.22
57.312,-43.36
57.328,-48.83
57.343,-53.03
57.359,-55.95
57.375,-58.01
57.390,-59.64
57.406,-61.0
57.421,-61.99
57.437,-62.42
57.453,-62.35
57.468,-62.13
57.484,-62.39
57.500,-63.74
57.515,-66.39
57.531,-69.95
57.546,-73.36
57.562,-75.18
57.578,-73.92
57.593,-68.52
57.609,-58.63
57.625,-44.68
57.640,-27.8
57.656,-9.47
57.671,8.9
57.687,26.16
57.703,41.64
57.718,55.05
57.734,66.46
57.750,76.11
57.765,84.39
57.781,91.7
57.796,98.4
57.812,104.64
57.828,110.29
57.843,115.07
57.859,118.73
57.875,121.29
57.890,123.22
57.906,125.47
57.921,129.13
57.937,135.25
57.953,144.49
57.968,156.84
57.984,171.35
58.000,185.8
58.015,196.84
58.031,200.7
58.046,194.61
58.062,178.17
58.078,153.89
58.093,126.55
58.109,101.24
58.125,81.37
58.140,67.46
58.156,57.53
58.171,48.63
58.187,38.68
58.203,27.37
58.218,15.92
58.234,5.92
58.250,-1.83
58.265,-7.64
58.281,-12.71
58.296,-18.39
58.312,-25.66
58.328,-34.82
58.343,-45.32
58.359,-55.47
58.375,-62.45
58.390,-62.8
58.406,-53.59
58.421,-33.97
58.437,-6.19
58.453,24.64
58.468,52.26
58.484,71.58
58.500,80.51
58.515,80.24
58.531,73.97
58.546,64.96
58.562,55.16
58.578,45.36
58.593,36.16
58.609,28.89
58.625,25.44
58.640,27.04
58.656,32.82
58.671,39.51
58.687,42.66
58.703,38.91
58.718,27.72
58.734,11.72
58.750,-4.82
58.765,-18.16
58.781,-26.54
58.796,-30.26
58.812,-30.37
58.828,-27.33
58.843,-20.77
58.859,-10.39
58.875,2.71
58.890,15.53
58.906,23.95
58.921,24.76
58.937,17.15
58.953,3.17
58.968,-13.4
58.984,-28.97
59.000,-41.47
59.015,-50.39
59.031,-55.99
59.046,-58.35
59.062,-57.29
59.078,-53.18
59.093,-47.85
59.109,-44.57
59.125,-46.95
59.140,-57.14
59.156,-74.6
59.171,-96.11
59.187,-117.08
59.203,-133.24
59.218,-142.04
59.234,-143.06
59.250,-137.72
59.265,-128.5
59.281,-118.42
59.296,-110.38
59.312,-106.58
59.328,-107.96
59.343,-113.76
59.359,-121.79
59.375,-129.15
59.390,-133.38
59.406,-133.23
59.421,-128.88
59.437,-121.44
59.453,-112.18
59.468,-101.84
59.484,-90.5
59.500,-77.89
59.515,-63.82
59.531,-48.59
59.546,-32.95
59.562,-17.82
59.578,-3.88
59.593,8.67
59.609,20.06
59.625,30.61
59.640,40.39
59.656,49.01
59.671,55.84
59.687,60.32
59.703,62.38
59.718,62.42
59.734,61.11
59.750,58.85
59.765,55.57
59.781,50.72
59.796,43.68
59.812,34.24
59.828,22.86
59.843,10.62
59.859,-1.2
59.875,-11.51
59.890,-19.77
59.906,-26.03
59.921,-30.73
59.937,-34.54
59.953,-38.25
59.968,-42.62
59.984,-48.22
