timestamp,value
00.000,-43.86
00.015,-36.61
00.031,-27.99
00.046,-18.74
00.062,-9.48
00.078,-0.68
00.093,7.46
00.109,14.83
00.125,21.37
00.140,26.9
00.156,31.26
00.171,34.28
00.187,35.97
00.203,36.49
00.218,36.16
00.234,35.38
00.250,34.52
00.265,33.82
00.281,33.34
00.296,33.03
00.312,32.81
00.328,32.64
00.343,32.54
00.359,32.51
00.375,32.5
00.390,32.3
00.406,31.64
00.421,30.31
00.437,28.24
00.453,25.55
00.468,22.53
00.484,19.54
00.500,16.75
00.515,14.14
00.531,11.54
00.546,8.77
00.562,5.76
00.578,2.61
00.593,-0.58
00.609,-3.74
00.625,-6.88
00.640,-10.12
00.656,-13.49
00.671,-16.91
00.687,-20.22
00.703,-23.26
00.718,-26.03
00.734,-28.76
00.750,-31.82
00.765,-35.55
00.781,-40.06
00.796,-45.19
00.812,-50.55
00.828,-55.72
00.843,-60.13
00.859,-63.25
00.875,-64.52
00.890,-63.47
00.906,-59.92
00.921,-54.0
00.937,-46.27
00.953,-37.49
00.968,-28.49
00.984,-19.82
01.000,-11.72
01.015,-4.23
01.031,2.69
01.046,8.97
01.062,14.4
01.078,18.68
01.093,21.65
01.109,23.28
01.125,23.8
01.140,23.56
01.156,22.93
01.171,22.25
01.187,21.66
01.203,21.23
01.218,20.87
01.234,20.48
01.250,19.92
01.265,19.2
01.281,18.34
01.296,17.37
01.312,16.4
01.328,15.45
01.343,14.52
01.359,13.59
01.375,12.57
01.390,11.38
01.406,10.02
01.421,8.53
01.437,7.01
01.453,5.59
01.468,4.4
01.484,3.44
01.500,2.62
01.515,1.76
01.531,0.61
01.546,-0.96
01.562,-2.99
01.578,-5.33
01.593,-7.73
01.609,-9.95
01.625,-11.9
01.640,-13.69
01.656,-15.52
01.671,-17.62
01.687,-20.09
01.703,-22.89
01.718,-25.85
01.734,-28.84
01.750,-31.83
01.765,-34.73
01.781,-37.39
01.796,-39.43
01.812,-40.31
01.828,-39.5
01.843,-36.76
01.859,-32.28
01.875,-26.56
01.890,-20.29
01.906,-14.03
01.921,-8.15
01.937,-2.74
01.953,2.17
01.968,6.58
01.984,10.42
02.000,13.54
02.015,15.87
02.031,17.39
02.046,18.26
02.062,18.67
02.078,18.93
02.093,19.17
02.109,19.52
02.125,19.97
02.140,20.43
02.156,20.84
02.171,21.14
02.187,21.35
02.203,21.42
02.218,21.37
02.234,21.1
02.250,20.6
02.265,19.83
02.281,18.83
02.296,17.6
02.312,16.14
02.328,14.45
02.343,12.55
02.359,10.51
02.375,8.33
02.390,6.06
02.406,3.69
02.421,1.18
02.437,-1.48
02.453,-4.28
02.468,-7.1
02.484,-9.85
02.500,-12.49
02.515,-15.09
02.531,-17.7
02.546,-20.39
02.562,-23.15
02.578,-25.84
02.593,-28.42
02.609,-30.87
02.625,-33.28
02.640,-35.8
02.656,-38.54
02.671,-41.4
02.687,-44.08
02.703,-46.13
02.718,-46.94
02.734,-46.07
02.750,-43.26
02.765,-38.6
02.781,-32.45
02.796,-25.41
02.812,-18.1
02.828,-11.04
02.843,-4.57
02.859,1.26
02.875,6.42
02.890,10.99
02.906,14.91
02.921,18.1
02.937,20.45
02.953,21.97
02.968,22.78
02.984,23.17
03.000,23.42
03.015,23.72
03.031,24.11
03.046,24.5
03.062,24.8
03.078,24.97
03.093,25.07
03.109,25.22
03.125,25.51
03.140,25.89
03.156,26.16
03.171,26.05
03.187,25.28
03.203,23.75
03.218,21.47
03.234,18.61
03.250,15.44
03.265,12.24
03.281,9.25
03.296,6.68
03.312,4.58
03.328,2.86
03.343,1.26
03.359,-0.57
03.375,-2.91
03.390,-5.83
03.406,-9.19
03.421,-12.72
03.437,-16.08
03.453,-19.1
03.468,-21.8
03.484,-24.33
03.500,-26.97
03.515,-29.86
03.531,-33.08
03.546,-36.62
03.562,-40.31
03.578,-43.86
03.593,-46.85
03.609,-48.72
03.625,-48.87
03.640,-46.9
03.656,-42.63
03.671,-36.28
03.687,-28.38
03.703,-19.71
03.718,-11.05
03.734,-3.13
03.750,3.66
03.765,9.18
03.781,13.47
03.796,16.69
03.812,18.98
03.828,20.48
03.843,21.29
03.859,21.55
03.875,21.42
03.890,21.15
03.906,21.04
03.921,21.26
03.937,21.84
03.953,22.66
03.968,23.49
03.984,24.12
04.000,24.4
04.015,24.31
04.031,23.92
04.046,23.38
04.062,22.72
04.078,21.89
04.093,20.75
04.109,19.11
04.125,16.89
04.140,14.19
04.156,11.21
04.171,8.24
04.187,5.56
04.203,3.31
04.218,1.44
04.234,-0.29
04.250,-2.14
04.265,-4.37
04.281,-7.07
04.296,-10.18
04.312,-13.55
04.328,-16.94
04.343,-20.19
04.359,-23.2
04.375,-25.97
04.390,-28.57
04.406,-31.06
04.421,-33.57
04.437,-36.28
04.453,-39.37
04.468,-42.85
04.484,-46.54
04.500,-49.87
04.515,-52.09
04.531,-52.38
04.546,-50.18
04.562,-45.4
04.578,-38.46
04.593,-30.11
04.609,-21.26
04.625,-12.68
04.640,-4.88
04.656,1.91
04.671,7.69
04.687,12.57
04.703,16.67
04.718,20.06
04.734,22.75
04.750,24.73
04.765,25.96
04.781,26.55
04.796,26.66
04.812,26.51
04.828,26.32
04.843,26.26
04.859,26.4
04.875,26.76
04.890,27.31
04.906,27.92
04.921,28.46
04.937,28.69
04.953,28.45
04.968,27.67
04.984,26.44
05.000,24.99
05.015,23.5
05.031,22.03
05.046,20.5
05.062,18.74
05.078,16.64
05.093,14.27
05.109,11.85
05.125,9.68
05.140,7.88
05.156,6.31
05.171,4.7
05.187,2.71
05.203,0.13
05.218,-3.01
05.234,-6.49
05.250,-10.03
05.265,-13.46
05.281,-16.8
05.296,-20.21
05.312,-23.88
05.328,-27.86
05.343,-32.11
05.359,-36.47
05.375,-40.81
05.390,-44.98
05.406,-48.76
05.421,-51.75
05.437,-53.37
05.453,-52.96
05.468,-50.02
05.484,-44.53
05.500,-36.95
05.515,-28.19
05.531,-19.27
05.546,-10.97
05.562,-3.66
05.578,2.7
05.593,8.32
05.609,13.45
05.625,18.09
05.640,22.08
05.656,25.1
05.671,26.9
05.687,27.44
05.703,27.04
05.718,26.24
05.734,25.7
05.750,25.9
05.765,26.98
05.781,28.72
05.796,30.58
05.812,32.03
05.828,32.8
05.843,32.87
05.859,32.43
05.875,31.72
05.890,30.85
05.906,29.74
05.921,28.29
05.937,26.4
05.953,24.1
05.968,21.49
05.984,18.75
06.000,15.97
06.015,13.19
06.031,10.36
06.046,7.39
06.062,4.32
06.078,1.2
06.093,-1.81
06.109,-4.58
06.125,-7.08
06.140,-9.4
06.156,-11.73
06.171,-14.25
06.187,-17.02
06.203,-19.92
06.218,-22.74
06.234,-25.35
06.250,-27.79
06.265,-30.37
06.281,-33.49
06.296,-37.35
06.312,-41.74
06.328,-46.03
06.343,-49.26
06.359,-50.54
06.375,-49.33
06.390,-45.5
06.406,-39.43
06.421,-31.72
06.437,-23.05
06.453,-14.01
06.468,-5.14
06.484,3.09
06.500,10.26
06.515,16.06
06.531,20.4
06.546,23.41
06.562,25.38
06.578,26.69
06.593,27.7
06.609,28.59
06.625,29.39
06.640,29.97
06.656,30.15
06.671,29.83
06.687,29.0
06.703,27.83
06.718,26.58
06.734,25.52
06.750,24.82
06.765,24.53
06.781,24.55
06.796,24.6
06.812,24.42
06.828,23.7
06.843,22.28
06.859,20.13
06.875,17.37
06.890,14.27
06.906,11.16
06.921,8.31
06.937,5.87
06.953,3.8
06.968,1.89
06.984,-0.12
07.000,-2.49
07.015,-5.35
07.031,-8.67
07.046,-12.2
07.062,-15.67
07.078,-18.82
07.093,-21.47
07.109,-23.68
07.125,-25.71
07.140,-27.88
07.156,-30.55
07.171,-33.86
07.187,-37.69
07.203,-41.67
07.218,-45.15
07.234,-47.34
07.250,-47.51
07.265,-45.17
07.281,-40.24
07.296,-33.08
07.312,-24.45
07.328,-15.28
07.343,-6.46
07.359,1.41
07.375,8.06
07.390,13.53
07.406,18.01
07.421,21.66
07.437,24.56
07.453,26.69
07.468,28.04
07.484,28.68
07.500,28.8
07.515,28.65
07.531,28.4
07.546,28.12
07.562,27.69
07.578,26.97
07.593,25.82
07.609,24.32
07.625,22.7
07.640,21.21
07.656,20.05
07.671,19.21
07.687,18.5
07.703,17.65
07.718,16.44
07.734,14.75
07.750,12.65
07.765,10.31
07.781,7.92
07.796,5.62
07.812,3.5
07.828,1.54
07.843,-0.32
07.859,-2.19
07.875,-4.17
07.890,-6.27
07.906,-8.47
07.921,-10.7
07.937,-12.89
07.953,-15.03
07.968,-17.14
07.984,-19.31
08.000,-21.56
08.015,-23.99
08.031,-26.71
08.046,-29.87
08.062,-33.57
08.078,-37.69
08.093,-41.86
08.109,-45.39
08.125,-47.44
08.140,-47.27
08.156,-44.5
08.171,-39.22
08.187,-31.99
08.203,-23.62
08.218,-14.92
08.234,-6.6
08.250,0.85
08.265,7.16
08.281,12.21
08.296,16.04
08.312,18.78
08.328,20.65
08.343,21.93
08.359,22.87
08.375,23.59
08.390,24.11
08.406,24.33
08.421,24.22
08.437,23.83
08.453,23.34
08.468,22.9
08.484,22.6
08.500,22.42
08.515,22.3
08.531,22.19
08.546,22.06
08.562,21.87
08.578,21.52
08.593,20.83
08.609,19.63
08.625,17.82
08.640,15.48
08.656,12.82
08.671,10.18
08.687,7.79
08.703,5.68
08.718,3.71
08.734,1.6
08.750,-0.85
08.765,-3.77
08.781,-7.13
08.796,-10.82
08.812,-14.71
08.828,-18.66
08.843,-22.57
08.859,-26.37
08.875,-30.02
08.890,-33.49
08.906,-36.77
08.921,-39.76
08.937,-42.22
08.953,-43.72
08.968,-43.72
08.984,-41.74
09.000,-37.56
09.015,-31.38
09.031,-23.78
09.046,-15.54
09.062,-7.44
09.078,-0.01
09.093,6.41
09.109,11.71
09.125,15.8
09.140,18.68
09.156,20.39
09.171,21.08
09.187,21.1
09.203,20.83
09.218,20.69
09.234,20.9
09.250,21.49
09.265,22.28
09.281,23.04
09.296,23.61
09.312,23.96
09.328,24.23
09.343,24.49
09.359,24.73
09.375,24.77
09.390,24.42
09.406,23.47
09.421,21.94
09.437,20.0
09.453,17.84
09.468,15.62
09.484,13.27
09.500,10.62
09.515,7.49
09.531,3.86
09.546,-0.15
09.562,-4.23
09.578,-8.07
09.593,-11.53
09.609,-14.54
09.625,-17.24
09.640,-19.79
09.656,-22.3
09.671,-24.85
09.687,-27.46
09.703,-30.13
09.718,-32.83
09.734,-35.41
09.750,-37.49
09.765,-38.55
09.781,-37.98
09.796,-35.36
09.812,-30.63
09.828,-24.2
09.843,-16.81
09.859,-9.28
09.875,-2.28
09.890,3.86
09.906,8.99
09.921,13.12
09.937,16.26
09.953,18.38
09.968,19.45
09.984,19.57
10.000,19.02
10.015,18.15
10.031,17.37
10.046,16.95
10.062,17.05
10.078,17.63
10.093,18.57
10.109,19.71
10.125,20.92
10.140,22.09
10.156,23.05
10.171,23.64
10.187,23.61
10.203,22.79
10.218,21.15
10.234,18.86
10.250,16.18
10.265,13.43
10.281,10.81
10.296,8.32
10.312,5.86
10.328,3.2
10.343,0.19
10.359,-3.2
10.375,-6.85
10.390,-10.53
10.406,-14.01
10.421,-17.12
10.437,-19.89
10.453,-22.37
10.468,-24.77
10.484,-27.24
10.500,-29.95
10.515,-32.98
10.531,-36.25
10.546,-39.45
10.562,-42.0
10.578,-43.22
10.593,-42.4
10.609,-39.2
10.625,-33.72
10.640,-26.63
10.656,-18.91
10.671,-11.48
10.687,-4.95
10.703,0.52
10.718,5.11
10.734,9.19
10.750,12.97
10.765,16.55
10.781,19.81
10.796,22.64
10.812,24.95
10.828,26.78
10.843,28.22
10.859,29.32
10.875,30.09
10.890,30.39
10.906,30.09
10.921,29.15
10.937,27.65
10.953,25.8
10.968,23.89
10.984,22.14
11.000,20.62
11.015,19.31
11.031,18.02
11.046,16.55
11.062,14.8
11.078,12.8
11.093,10.71
11.109,8.71
11.125,6.92
11.140,5.21
11.156,3.39
11.171,1.21
11.187,-1.43
11.203,-4.41
11.218,-7.45
11.234,-10.28
11.250,-12.8
11.265,-15.13
11.281,-17.6
11.296,-20.53
11.312,-24.13
11.328,-28.42
11.343,-33.18
11.359,-38.07
11.375,-42.57
11.390,-46.11
11.406,-48.04
11.421,-47.84
11.437,-45.2
11.453,-40.19
11.468,-33.19
11.484,-24.86
11.500,-15.98
11.515,-7.21
11.531,0.97
11.546,8.34
11.562,14.78
11.578,20.2
11.593,24.51
11.609,27.61
11.625,29.49
11.640,30.24
11.656,30.16
11.671,29.62
11.687,28.99
11.703,28.53
11.718,28.31
11.734,28.28
11.750,28.36
11.765,28.49
11.781,28.57
11.796,28.54
11.812,28.34
11.828,27.89
11.843,27.11
11.859,25.94
11.875,24.38
11.890,22.4
11.906,19.99
11.921,17.18
11.937,14.07
11.953,10.79
11.968,7.5
11.984,4.32
12.000,1.3
12.015,-1.57
12.031,-4.36
12.046,-7.05
12.062,-9.59
12.078,-11.9
12.093,-13.98
12.109,-15.86
12.125,-17.65
12.140,-19.49
12.156,-21.49
12.171,-23.71
12.187,-26.17
12.203,-28.89
12.218,-31.92
12.234,-35.28
12.250,-38.9
12.265,-42.49
12.281,-45.58
12.296,-47.57
12.312,-47.82
12.328,-45.94
12.343,-41.83
12.359,-35.8
12.375,-28.46
12.390,-20.5
12.406,-12.52
12.421,-4.88
12.437,2.21
12.453,8.69
12.468,14.47
12.484,19.41
12.500,23.34
12.515,26.16
12.531,27.96
12.546,28.97
12.562,29.5
12.578,29.83
12.593,30.1
12.609,30.29
12.625,30.3
12.640,30.06
12.656,29.64
12.671,29.25
12.687,29.04
12.703,29.03
12.718,29.06
12.734,28.81
12.750,27.98
12.765,26.41
12.781,24.24
12.796,21.73
12.812,19.2
12.828,16.79
12.843,14.41
12.859,11.98
12.875,9.39
12.890,6.73
12.906,4.16
12.921,1.85
12.937,-0.21
12.953,-2.22
12.968,-4.44
12.984,-7.12
13.000,-10.21
13.015,-13.49
13.031,-16.63
13.046,-19.32
13.062,-21.56
13.078,-23.53
13.093,-25.6
13.109,-28.11
13.125,-31.31
13.140,-35.16
13.156,-39.46
13.171,-43.76
13.187,-47.41
13.203,-49.78
13.218,-50.25
13.234,-48.46
13.250,-44.37
13.265,-38.34
13.281,-31.01
13.296,-23.18
13.312,-15.55
13.328,-8.49
13.343,-2.19
13.359,3.43
13.375,8.49
13.390,13.05
13.406,17.05
13.421,20.41
13.437,23.08
13.453,25.08
13.468,26.6
13.484,27.81
13.500,28.8
13.515,29.63
13.531,30.23
13.546,30.51
13.562,30.44
13.578,30.02
13.593,29.33
13.609,28.53
13.625,27.68
13.640,26.8
13.656,25.88
13.671,24.77
13.687,23.36
13.703,21.55
13.718,19.27
13.734,16.65
13.750,13.93
13.765,11.35
13.781,9.09
13.796,7.2
13.812,5.52
13.828,3.93
13.843,2.33
13.859,0.72
13.875,-0.83
13.890,-2.32
13.906,-3.87
13.921,-5.62
13.937,-7.69
13.953,-10.07
13.968,-12.63
13.984,-15.2
14.000,-17.67
14.015,-20.15
14.031,-22.85
14.046,-26.0
14.062,-29.65
14.078,-33.66
14.093,-37.75
14.109,-41.56
14.125,-44.76
14.140,-47.04
14.156,-48.05
14.171,-47.43
14.187,-44.9
14.203,-40.32
14.218,-33.91
14.234,-26.17
14.250,-17.84
14.265,-9.69
14.281,-2.31
14.296,3.97
14.312,9.12
14.328,13.28
14.343,16.68
14.359,19.47
14.375,21.76
14.390,23.5
14.406,24.68
14.421,25.34
14.437,25.62
14.453,25.79
14.468,26.03
14.484,26.42
14.500,26.84
14.515,27.03
14.531,26.77
14.546,26.01
14.562,24.9
14.578,23.78
14.593,22.9
14.609,22.3
14.625,21.77
14.640,20.93
14.656,19.45
14.671,17.27
14.687,14.59
14.703,11.79
14.718,9.23
14.734,7.06
14.750,5.19
14.765,3.36
14.781,1.32
14.796,-1.06
14.812,-3.75
14.828,-6.65
14.843,-9.61
14.859,-12.52
14.875,-15.26
14.890,-17.71
14.906,-19.78
14.921,-21.48
14.937,-22.98
14.953,-24.55
14.968,-26.54
14.984,-29.13
15.000,-32.24
15.015,-35.52
15.031,-38.36
15.046,-40.06
15.062,-39.99
15.078,-37.76
15.093,-33.37
15.109,-27.21
15.125,-19.95
15.140,-12.38
15.156,-5.16
15.171,1.27
15.187,6.76
15.203,11.33
15.218,15.05
15.234,18.0
15.250,20.2
15.265,21.71
15.281,22.57
15.296,22.9
15.312,22.85
15.328,22.56
15.343,22.2
15.359,21.9
15.375,21.72
15.390,21.68
15.406,21.73
15.421,21.83
15.437,21.97
15.453,22.16
15.468,22.4
15.484,22.56
15.500,22.35
15.515,21.45
15.531,19.64
15.546,16.95
15.562,13.63
15.578,10.13
15.593,6.88
15.609,4.13
15.625,1.92
15.640,0.08
15.656,-1.64
15.671,-3.52
15.687,-5.69
15.703,-8.2
15.718,-10.93
15.734,-13.7
15.750,-16.34
15.765,-18.79
15.781,-21.14
15.796,-23.61
15.812,-26.48
15.828,-29.92
15.843,-33.88
15.859,-38.05
15.875,-41.88
15.890,-44.74
15.906,-45.96
15.921,-45.12
15.937,-42.0
15.953,-36.8
15.968,-29.99
15.984,-22.24
16.000,-14.3
16.015,-6.81
16.031,-0.14
16.046,5.57
16.062,10.31
16.078,14.16
16.093,17.11
16.109,19.2
16.125,20.54
16.140,21.32
16.156,21.89
16.171,22.52
16.187,23.37
16.203,24.4
16.218,25.46
16.234,26.32
16.250,26.87
16.265,27.07
16.281,26.92
16.296,26.5
16.312,25.85
16.328,25.04
16.343,24.05
16.359,22.88
16.375,21.45
16.390,19.71
16.406,17.64
16.421,15.29
16.437,12.81
16.453,10.41
16.468,8.24
16.484,6.3
16.500,4.48
16.515,2.57
16.531,0.39
16.546,-2.2
16.562,-5.18
16.578,-8.4
16.593,-11.65
16.609,-14.76
16.625,-17.62
16.640,-20.29
16.656,-22.91
16.671,-25.64
16.687,-28.56
16.703,-31.7
16.718,-35.01
16.734,-38.48
16.750,-42.0
16.765,-45.32
16.781,-47.94
16.796,-49.13
16.812,-48.22
16.828,-44.81
16.843,-39.04
16.859,-31.59
16.875,-23.45
16.890,-15.52
16.906,-8.33
16.921,-1.93
16.937,3.97
16.953,9.59
16.968,14.99
16.984,19.92
17.000,23.97
17.015,26.83
17.031,28.41
17.046,28.94
17.062,28.8
17.078,28.43
17.093,28.09
17.109,27.83
17.125,27.59
17.140,27.23
17.156,26.76
17.171,26.29
17.187,26.0
17.203,26.01
17.218,26.22
17.234,26.31
17.250,25.86
17.265,24.53
17.281,22.22
17.296,19.17
17.312,15.79
17.328,12.5
17.343,9.5
17.359,6.82
17.375,4.3
17.390,1.75
17.406,-0.89
17.421,-3.59
17.437,-6.24
17.453,-8.74
17.468,-11.11
17.484,-13.4
17.500,-15.73
17.515,-18.2
17.531,-20.89
17.546,-23.82
17.562,-27.03
17.578,-30.44
17.593,-33.98
17.609,-37.53
17.625,-40.88
17.640,-43.75
17.656,-45.75
17.671,-46.44
17.687,-45.33
17.703,-42.15
17.718,-36.85
17.734,-29.81
17.750,-21.72
17.765,-13.36
17.781,-5.39
17.796,1.82
17.812,8.22
17.828,13.89
17.843,18.85
17.859,23.0
17.875,26.16
17.890,28.2
17.906,29.17
17.921,29.33
17.937,29.02
17.953,28.51
17.968,27.94
17.984,27.29
18.000,26.5
18.015,25.59
18.031,24.66
18.046,23.83
18.062,23.22
18.078,22.79
18.093,22.45
18.109,22.1
18.125,21.54
18.140,20.64
18.156,19.3
18.171,17.41
18.187,15.01
18.203,12.19
18.218,9.15
18.234,6.14
18.250,3.38
18.265,0.92
18.281,-1.3
18.296,-3.46
18.312,-5.71
18.328,-8.15
18.343,-10.75
18.359,-13.45
18.375,-16.15
18.390,-18.81
18.406,-21.52
18.421,-24.42
18.437,-27.66
18.453,-31.3
18.468,-35.19
18.484,-38.99
18.500,-42.25
18.515,-44.45
18.531,-45.17
18.546,-44.14
18.562,-41.24
18.578,-36.55
18.593,-30.41
18.609,-23.24
18.625,-15.67
18.640,-8.3
18.656,-1.6
18.671,4.16
18.687,8.98
18.703,13.03
18.718,16.48
18.734,19.37
18.750,21.68
18.765,23.26
18.781,24.09
18.796,24.18
18.812,23.76
18.828,23.13
18.843,22.58
18.859,22.32
18.875,22.38
18.890,22.68
18.906,23.05
18.921,23.36
18.937,23.53
18.953,23.47
18.968,23.09
18.984,22.25
19.000,20.82
19.015,18.73
19.031,16.12
19.046,13.25
19.062,10.43
19.078,7.86
19.093,5.56
19.109,3.41
19.125,1.28
19.140,-0.88
19.156,-3.05
19.171,-5.14
19.187,-7.13
19.203,-9.03
19.218,-10.95
19.234,-12.94
19.250,-15.08
19.265,-17.37
19.281,-19.85
19.296,-22.56
19.312,-25.51
19.328,-28.65
19.343,-31.77
19.359,-34.48
19.375,-36.24
19.390,-36.45
19.406,-34.69
19.421,-30.87
19.437,-25.35
19.453,-18.82
19.468,-12.12
19.484,-5.94
19.500,-0.54
19.515,4.12
19.531,8.29
19.546,12.13
19.562,15.53
19.578,18.21
19.593,19.97
19.609,20.78
19.625,20.89
19.640,20.72
19.656,20.61
19.671,20.71
19.687,20.99
19.703,21.36
19.718,21.8
19.734,22.37
19.750,23.1
19.765,23.87
19.781,24.4
19.796,24.34
19.812,23.38
19.828,21.56
19.843,19.14
19.859,16.53
19.875,14.1
19.890,12.01
19.906,10.16
19.921,8.29
19.937,6.18
19.953,3.69
19.968,0.87
19.984,-2.17
20.000,-5.29
20.015,-8.42
20.031,-11.51
20.046,-14.56
20.062,-17.49
20.078,-20.29
20.093,-23.04
20.109,-25.94
20.125,-29.28
20.140,-33.26
20.156,-37.82
20.171,-42.52
20.187,-46.57
20.203,-49.05
20.218,-49.21
20.234,-46.73
20.250,-41.78
20.265,-34.94
20.281,-27.0
20.296,-18.67
20.312,-10.47
20.328,-2.68
20.343,4.51
20.359,10.96
20.375,16.48
20.390,20.94
20.406,24.24
20.421,26.41
20.437,27.58
20.453,27.88
20.468,27.49
20.484,26.61
20.500,25.5
20.515,24.4
20.531,23.57
20.546,23.18
20.562,23.29
20.578,23.83
20.593,24.53
20.609,25.09
20.625,25.24
20.640,24.79
20.656,23.7
20.671,21.99
20.687,19.75
20.703,17.09
20.718,14.2
20.734,11.23
20.750,8.36
20.765,5.7
20.781,3.26
20.796,0.94
20.812,-1.51
20.828,-4.2
20.843,-7.16
20.859,-10.21
20.875,-13.15
20.890,-15.78
20.906,-18.11
20.921,-20.25
20.937,-22.38
20.953,-24.64
20.968,-27.15
20.984,-29.99
21.000,-33.24
21.015,-36.81
21.031,-40.43
21.046,-43.58
21.062,-45.55
21.078,-45.64
21.093,-43.4
21.109,-38.83
21.125,-32.34
21.140,-24.65
21.156,-16.53
21.171,-8.57
21.187,-1.16
21.203,5.47
21.218,11.31
21.234,16.32
21.250,20.49
21.265,23.82
21.281,26.29
21.296,27.96
21.312,28.9
21.328,29.22
21.343,29.04
21.359,28.51
21.375,27.74
21.390,26.86
21.406,26.06
21.421,25.46
21.437,25.14
21.453,25.05
21.468,25.06
21.484,25.02
21.500,24.75
21.515,24.09
21.531,22.92
21.546,21.19
21.562,18.87
21.578,16.0
21.593,12.79
21.609,9.52
21.625,6.5
21.640,3.91
21.656,1.66
21.671,-0.5
21.687,-2.88
21.703,-5.68
21.718,-8.84
21.734,-12.06
21.750,-14.97
21.765,-17.33
21.781,-19.15
21.796,-20.75
21.812,-22.53
21.828,-24.84
21.843,-27.86
21.859,-31.48
21.875,-35.4
21.890,-39.19
21.906,-42.42
21.921,-44.62
21.937,-45.39
21.953,-44.36
21.968,-41.29
21.984,-36.15
22.000,-29.21
22.015,-21.13
22.031,-12.76
22.046,-4.9
22.062,1.86
22.078,7.32
22.093,11.62
22.109,15.05
22.125,17.85
22.140,20.08
22.156,21.66
22.171,22.51
22.187,22.65
22.203,22.28
22.218,21.75
22.234,21.34
22.250,21.22
22.265,21.32
22.281,21.45
22.296,21.42
22.312,21.09
22.328,20.43
22.343,19.46
22.359,18.27
22.375,16.89
22.390,15.37
22.406,13.73
22.421,12.05
22.437,10.42
22.453,8.9
22.468,7.51
22.484,6.15
22.500,4.72
22.515,3.11
22.531,1.26
22.546,-0.72
22.562,-2.71
22.578,-4.6
22.593,-6.41
22.609,-8.28
22.625,-10.4
22.640,-12.89
22.656,-15.83
22.671,-19.18
22.687,-22.87
22.703,-26.69
22.718,-30.36
22.734,-33.41
22.750,-35.25
22.765,-35.34
22.781,-33.34
22.796,-29.3
22.812,-23.68
22.828,-17.16
22.843,-10.47
22.859,-4.09
22.875,1.71
22.890,6.89
22.906,11.41
22.921,15.22
22.937,18.2
22.953,20.29
22.968,21.55
22.984,22.15
23.000,22.34
23.015,22.38
23.031,22.44
23.046,22.56
23.062,22.72
23.078,22.84
23.093,22.89
23.109,22.82
23.125,22.59
23.140,22.11
23.156,21.31
23.171,20.1
23.187,18.41
23.203,16.2
23.218,13.59
23.234,10.7
23.250,7.72
23.265,4.72
23.281,1.67
23.296,-1.51
23.312,-4.88
23.328,-8.37
23.343,-11.82
23.359,-15.03
23.375,-17.83
23.390,-20.2
23.406,-22.27
23.421,-24.33
23.437,-26.71
23.453,-29.7
23.468,-33.43
23.484,-37.71
23.500,-42.02
23.515,-45.54
23.531,-47.41
23.546,-47.01
23.562,-44.18
23.578,-39.2
23.593,-32.61
23.609,-25.03
23.625,-17.01
23.640,-9.04
23.656,-1.59
23.671,4.95
23.687,10.35
23.703,14.63
23.718,18.0
23.734,20.74
23.750,23.03
23.765,24.84
23.781,26.02
23.796,26.5
23.812,26.39
23.828,26.02
23.843,25.73
23.859,25.75
23.875,26.08
23.890,26.6
23.906,27.08
23.921,27.4
23.937,27.46
23.953,27.12
23.968,26.25
23.984,24.74
24.000,22.51
24.015,19.69
24.031,16.53
24.046,13.32
24.062,10.27
24.078,7.42
24.093,4.66
24.109,1.85
24.125,-1.1
24.140,-4.15
24.156,-7.21
24.171,-10.15
24.187,-12.93
24.203,-15.59
24.218,-18.21
24.234,-20.91
24.250,-23.84
24.265,-27.16
24.281,-30.98
24.296,-35.2
24.312,-39.51
24.328,-43.3
24.343,-45.81
24.359,-46.38
24.375,-44.64
24.390,-40.65
24.406,-34.86
24.421,-27.88
24.437,-20.25
24.453,-12.44
24.468,-4.71
24.484,2.76
24.500,9.78
24.515,16.14
24.531,21.75
24.546,26.48
24.562,30.3
24.578,33.2
24.593,35.15
24.609,36.21
24.625,36.48
24.640,36.13
24.656,35.38
24.671,34.38
24.687,33.23
24.703,31.92
24.718,30.47
24.734,29.01
24.750,27.76
24.765,26.96
24.781,26.62
24.796,26.54
24.812,26.28
24.828,25.42
24.843,23.69
24.859,21.17
24.875,18.27
24.890,15.44
24.906,13.0
24.921,10.94
24.937,8.96
24.953,6.68
24.968,3.84
24.984,0.47
25.000,-3.15
25.015,-6.71
25.031,-9.96
25.046,-12.92
25.062,-15.7
25.078,-18.41
25.093,-21.08
25.109,-23.61
25.125,-25.99
25.140,-28.29
25.156,-30.69
25.171,-33.33
25.187,-36.04
25.203,-38.33
25.218,-39.49
25.234,-38.88
25.250,-36.17
25.265,-31.52
25.281,-25.49
25.296,-18.82
25.312,-12.19
25.328,-6.05
25.343,-0.52
25.359,4.48
25.375,9.09
25.390,13.38
25.406,17.21
25.421,20.37
25.437,22.6
25.453,23.82
25.468,24.2
25.484,24.1
25.500,23.91
25.515,23.88
25.531,24.05
25.546,24.24
25.562,24.28
25.578,24.04
25.593,23.6
25.609,23.1
25.625,22.62
25.640,22.09
25.656,21.33
25.671,20.16
25.687,18.48
25.703,16.36
25.718,13.98
25.734,11.54
25.750,9.16
25.765,6.85
25.781,4.51
25.796,2.08
25.812,-0.47
25.828,-3.09
25.843,-5.74
25.859,-8.42
25.875,-11.22
25.890,-14.23
25.906,-17.49
25.921,-20.99
25.937,-24.65
25.953,-28.4
25.968,-32.21
25.984,-35.94
26.000,-39.23
26.015,-41.55
26.031,-42.22
26.046,-40.65
26.062,-36.66
26.078,-30.53
26.093,-22.99
26.109,-14.9
26.125,-7.0
26.140,0.31
26.156,6.88
26.171,12.67
26.187,17.59
26.203,21.43
26.218,24.0
26.234,25.22
26.250,25.28
26.265,24.55
26.281,23.48
26.296,22.5
26.312,21.86
26.328,21.68
26.343,21.93
26.359,22.54
26.375,23.35
26.390,24.19
26.406,24.82
26.421,25.04
26.437,24.7
26.453,23.76
26.468,22.29
26.484,20.37
26.500,18.12
26.515,15.68
26.531,13.15
26.546,10.72
26.562,8.51
26.578,6.63
26.593,5.02
26.609,3.39
26.625,1.37
26.640,-1.37
26.656,-4.96
26.671,-9.21
26.687,-13.68
26.703,-17.9
26.718,-21.49
26.734,-24.35
26.750,-26.62
26.765,-28.64
26.781,-30.81
26.796,-33.43
26.812,-36.56
26.828,-39.95
26.843,-43.06
26.859,-45.16
26.875,-45.63
26.890,-44.01
26.906,-40.27
26.921,-34.75
26.937,-28.08
26.953,-20.94
26.968,-13.87
26.984,-7.23
27.000,-1.09
27.015,4.57
27.031,9.82
27.046,14.68
27.062,19.07
27.078,22.79
27.093,25.65
27.109,27.55
27.125,28.52
27.140,28.74
27.156,28.44
27.171,27.84
27.187,27.07
27.203,26.14
27.218,25.1
27.234,24.04
27.250,23.11
27.265,22.39
27.281,21.89
27.296,21.39
27.312,20.58
27.328,19.22
27.343,17.21
27.359,14.72
27.375,12.09
27.390,9.67
27.406,7.61
27.421,5.89
27.437,4.3
27.453,2.61
27.468,0.67
27.484,-1.57
27.500,-4.05
27.515,-6.7
27.531,-9.43
27.546,-12.18
27.562,-14.86
27.578,-17.37
27.593,-19.66
27.609,-21.77
27.625,-23.86
27.640,-26.13
27.656,-28.8
27.671,-31.96
27.687,-35.44
27.703,-38.87
27.718,-41.65
27.734,-43.15
27.750,-42.8
27.765,-40.38
27.781,-36.0
27.796,-30.15
27.812,-23.51
27.828,-16.73
27.843,-10.28
27.859,-4.31
27.875,1.18
27.890,6.32
27.906,11.02
27.921,15.11
27.937,18.35
27.953,20.55
27.968,21.72
27.984,22.1
28.000,22.03
28.015,21.83
28.031,21.75
28.046,21.86
28.062,22.1
28.078,22.37
28.093,22.57
28.109,22.67
28.125,22.67
28.140,22.6
28.156,22.42
28.171,22.05
28.187,21.35
28.203,20.2
28.218,18.53
28.234,16.35
28.250,13.81
28.265,11.13
28.281,8.5
28.296,6.04
28.312,3.77
28.328,1.63
28.343,-0.46
28.359,-2.56
28.375,-4.75
28.390,-6.93
28.406,-9.07
28.421,-11.1
28.437,-12.96
28.453,-14.65
28.468,-16.21
28.484,-17.77
28.500,-19.52
28.515,-21.77
28.531,-24.78
28.546,-28.73
28.562,-33.52
28.578,-38.71
28.593,-43.52
28.609,-47.0
28.625,-48.32
28.640,-46.99
28.656,-43.06
28.671,-37.06
28.687,-29.8
28.703,-22.13
28.718,-14.65
28.734,-7.63
28.750,-1.14
28.765,4.83
28.781,10.22
28.796,14.85
28.812,18.45
28.828,20.85
28.843,22.03
28.859,22.24
28.875,21.8
28.890,21.08
28.906,20.35
28.921,19.78
28.937,19.49
28.953,19.47
28.968,19.72
28.984,20.22
29.000,20.86
29.015,21.46
29.031,21.86
29.046,21.91
29.062,21.52
29.078,20.62
29.093,19.19
29.109,17.25
29.125,14.9
29.140,12.31
29.156,9.71
29.171,7.26
29.187,5.0
29.203,2.82
29.218,0.49
29.234,-2.13
29.250,-5.08
29.265,-8.23
29.281,-11.35
29.296,-14.21
29.312,-16.7
29.328,-18.84
29.343,-20.75
29.359,-22.7
29.375,-24.97
29.390,-27.78
29.406,-31.28
29.421,-35.41
29.437,-39.83
29.453,-44.0
29.468,-47.18
29.484,-48.6
29.500,-47.69
29.515,-44.22
29.531,-38.39
29.546,-30.83
29.562,-22.37
29.578,-13.88
29.593,-6.03
29.609,0.82
29.625,6.6
29.640,11.42
29.656,15.44
29.671,18.75
29.687,21.33
29.703,23.16
29.718,24.28
29.734,24.83
29.750,25.09
29.765,25.35
29.781,25.78
29.796,26.44
29.812,27.21
29.828,27.88
29.843,28.33
29.859,28.58
29.875,28.73
29.890,28.92
29.906,29.2
29.921,29.43
29.937,29.39
29.953,28.79
29.968,27.46
29.984,25.39
30.000,22.69
30.015,19.55
30.031,16.16
30.046,12.7
30.062,9.26
30.078,5.91
30.093,2.62
30.109,-0.61
30.125,-3.82
30.140,-6.99
30.156,-10.12
30.171,-13.21
30.187,-16.32
30.203,-19.55
30.218,-22.98
30.234,-26.71
30.250,-30.72
30.265,-34.96
30.281,-39.37
30.296,-43.86
30.312,-48.31
30.328,-52.45
30.343,-55.85
30.359,-57.82
30.375,-57.65
30.390,-54.83
30.406,-49.27
30.421,-41.43
30.437,-32.16
30.453,-22.44
30.468,-13.13
30.484,-4.74
30.500,2.58
30.515,8.96
30.531,14.59
30.546,19.56
30.562,23.76
30.578,27.01
30.593,29.16
30.609,30.18
30.625,30.28
30.640,29.85
30.656,29.36
30.671,29.13
30.687,29.27
30.703,29.57
30.718,29.7
30.734,29.33
30.750,28.37
30.765,26.94
30.781,25.28
30.796,23.57
30.812,21.76
30.828,19.65
30.843,16.99
30.859,13.72
30.875,9.96
30.890,6.07
30.906,2.44
30.921,-0.72
30.937,-3.43
30.953,-5.83
30.968,-8.13
30.984,-10.44
31.000,-12.72
31.015,-14.9
31.031,-16.9
31.046,-18.68
31.062,-20.29
31.078,-21.76
31.093,-23.11
31.109,-24.42
31.125,-25.82
31.140,-27.54
31.156,-29.82
31.171,-32.79
31.187,-36.26
31.203,-39.74
31.218,-42.4
31.234,-43.43
31.250,-42.25
31.265,-38.72
31.281,-33.11
31.296,-26.03
31.312,-18.13
31.328,-10.0
31.343,-2.12
31.359,5.21
31.375,11.71
31.390,17.2
31.406,21.53
31.421,24.7
31.437,26.77
31.453,27.94
31.468,28.46
31.484,28.65
31.500,28.82
31.515,29.19
31.531,29.8
31.546,30.53
31.562,31.11
31.578,31.34
31.593,31.15
31.609,30.63
31.625,29.93
31.640,29.15
31.656,28.26
31.671,27.16
31.687,25.79
31.703,24.15
31.718,22.38
31.734,20.61
31.750,18.95
31.765,17.38
31.781,15.79
31.796,14.06
31.812,12.06
31.828,9.72
31.843,7.04
31.859,4.09
31.875,0.98
31.890,-2.15
31.906,-5.23
31.921,-8.3
31.937,-11.47
31.953,-14.9
31.968,-18.63
31.984,-22.59
32.000,-26.6
32.015,-30.49
32.031,-34.18
32.046,-37.59
32.062,-40.55
32.078,-42.67
32.093,-43.3
32.109,-41.81
32.125,-37.87
32.140,-31.69
32.156,-24.04
32.171,-15.92
32.187,-8.21
32.203,-1.35
32.218,4.68
32.234,10.11
32.250,15.13
32.265,19.64
32.281,23.32
32.296,25.89
32.312,27.21
32.328,27.45
32.343,26.98
32.359,26.22
32.375,25.47
32.390,24.9
32.406,24.54
32.421,24.35
32.437,24.25
32.453,24.19
32.468,24.1
32.484,23.88
32.500,23.4
32.515,22.49
32.531,21.04
32.546,19.05
32.562,16.67
32.578,14.14
32.593,11.75
32.609,9.67
32.625,7.85
32.640,6.09
32.656,4.1
32.671,1.69
32.687,-1.15
32.703,-4.26
32.718,-7.46
32.734,-10.64
32.750,-13.8
32.765,-17.05
32.781,-20.38
32.796,-23.74
32.812,-26.99
32.828,-30.11
32.843,-33.22
32.859,-36.64
32.875,-40.5
32.890,-44.63
32.906,-48.35
32.921,-50.59
32.937,-50.38
32.953,-47.15
32.968,-41.03
32.984,-32.79
33.000,-23.54
33.015,-14.33
33.031,-5.83
33.046,1.74
33.062,8.43
33.078,14.34
33.093,19.46
33.109,23.6
33.125,26.57
33.140,28.27
33.156,28.86
33.171,28.7
33.187,28.26
33.203,27.94
33.218,27.84
33.234,27.86
33.250,27.73
33.265,27.21
33.281,26.31
33.296,25.16
33.312,24.04
33.328,23.07
33.343,22.22
33.359,21.23
33.375,19.84
33.390,17.9
33.406,15.5
33.421,12.98
33.437,10.67
33.453,8.8
33.468,7.31
33.484,5.94
33.500,4.34
33.515,2.25
33.531,-0.35
33.546,-3.23
33.562,-6.03
33.578,-8.46
33.593,-10.32
33.609,-11.76
33.625,-13.09
33.640,-14.71
33.656,-16.96
33.671,-20.0
33.687,-23.8
33.703,-28.22
33.718,-33.01
33.734,-37.8
33.750,-42.08
33.765,-45.17
33.781,-46.27
33.796,-44.8
33.812,-40.54
33.828,-33.78
33.843,-25.32
33.859,-16.15
33.875,-7.21
33.890,0.89
33.906,7.89
33.921,13.79
33.937,18.63
33.953,22.43
33.968,25.16
33.984,26.8
34.000,27.45
34.015,27.33
34.031,26.82
34.046,26.3
34.062,26.11
34.078,26.39
34.093,27.07
34.109,27.91
34.125,28.61
34.140,28.96
34.156,28.91
34.171,28.55
34.187,28.05
34.203,27.47
34.218,26.69
34.234,25.52
34.250,23.77
34.265,21.4
34.281,18.54
34.296,15.45
34.312,12.33
34.328,9.35
34.343,6.52
34.359,3.78
34.375,1.06
34.390,-1.72
34.406,-4.68
34.421,-7.86
34.437,-11.23
34.453,-14.66
34.468,-17.99
34.484,-21.09
34.500,-24.03
34.515,-26.97
34.531,-30.11
34.546,-33.57
34.562,-37.18
34.578,-40.48
34.593,-42.84
34.609,-43.64
34.625,-42.42
34.640,-39.05
34.656,-33.73
34.671,-26.92
34.687,-19.29
34.703,-11.53
34.718,-4.25
34.734,2.09
34.750,7.27
34.765,11.23
34.781,14.05
34.796,15.89
34.812,16.93
34.828,17.4
34.843,17.53
34.859,17.49
34.875,17.43
34.890,17.46
34.906,17.64
34.921,18.02
34.937,18.65
34.953,19.52
34.968,20.53
34.984,21.51
35.000,22.23
35.015,22.48
35.031,22.19
35.046,21.33
35.062,19.97
35.078,18.21
35.093,16.14
35.109,13.84
35.125,11.42
35.140,8.88
35.156,6.25
35.171,3.45
35.187,0.43
35.203,-2.82
35.218,-6.2
35.234,-9.45
35.250,-12.33
35.265,-14.71
35.281,-16.72
35.296,-18.68
35.312,-21.03
35.328,-24.14
35.343,-28.14
35.359,-32.84
35.375,-37.73
35.390,-42.04
35.406,-44.94
35.421,-45.74
35.437,-43.98
35.453,-39.67
35.468,-33.2
35.484,-25.29
35.500,-16.76
35.515,-8.37
35.531,-0.65
35.546,6.18
35.562,11.99
35.578,16.77
35.593,20.52
35.609,23.26
35.625,25.15
35.640,26.42
35.656,27.34
35.671,28.14
35.687,28.92
35.703,29.61
35.718,30.05
35.734,30.05
35.750,29.58
35.765,28.74
35.781,27.72
35.796,26.8
35.812,26.07
35.828,25.54
35.843,24.94
35.859,23.97
35.875,22.35
35.890,20.04
35.906,17.24
35.921,14.25
35.937,11.43
35.953,8.92
35.968,6.66
35.984,4.47
36.000,2.18
36.015,-0.31
36.031,-2.97
36.046,-5.73
36.062,-8.56
36.078,-11.38
36.093,-14.14
36.109,-16.86
36.125,-19.53
36.140,-22.28
36.156,-25.25
36.171,-28.6
36.187,-32.4
36.203,-36.52
36.218,-40.62
36.234,-44.16
36.250,-46.48
36.265,-46.94
36.281,-45.08
36.296,-40.77
36.312,-34.32
36.328,-26.41
36.343,-17.97
36.359,-9.88
36.375,-2.72
36.390,3.35
36.406,8.54
36.421,13.18
36.437,17.42
36.453,21.17
36.468,24.12
36.484,25.99
36.500,26.75
36.515,26.63
36.531,26.06
36.546,25.53
36.562,25.25
36.578,25.28
36.593,25.52
36.609,25.8
36.625,26.0
36.640,26.04
36.656,25.83
36.671,25.31
36.687,24.45
36.703,23.24
36.718,21.77
36.734,20.15
36.750,18.44
36.765,16.63
36.781,14.62
36.796,12.35
36.812,9.88
36.828,7.4
36.843,5.07
36.859,2.96
36.875,0.98
36.890,-1.15
36.906,-3.72
36.921,-6.86
36.937,-10.43
36.953,-14.06
36.968,-17.35
36.984,-20.09
37.000,-22.39
37.015,-24.59
37.031,-27.1
37.046,-30.14
37.062,-33.67
37.078,-37.41
37.093,-40.98
37.109,-44.0
37.125,-46.06
37.140,-46.79
37.156,-45.74
37.171,-42.62
37.187,-37.33
37.203,-30.2
37.218,-21.88
37.234,-13.27
37.250,-5.15
37.265,2.0
37.281,8.0
37.296,12.9
37.312,16.8
37.328,19.76
37.343,21.8
37.359,22.97
37.375,23.43
37.390,23.43
37.406,23.27
37.421,23.17
37.437,23.27
37.453,23.54
37.468,23.89
37.484,24.24
37.500,24.47
37.515,24.57
37.531,24.5
37.546,24.23
37.562,23.64
37.578,22.64
37.593,21.08
37.609,18.88
37.625,16.08
37.640,12.89
37.656,9.67
37.671,6.81
37.687,4.54
37.703,2.8
37.718,1.31
37.734,-0.34
37.750,-2.48
37.765,-5.09
37.781,-7.92
37.796,-10.58
37.812,-12.78
37.828,-14.55
37.843,-16.17
37.859,-18.06
37.875,-20.58
37.890,-23.86
37.906,-27.77
37.921,-32.0
37.937,-36.1
37.953,-39.64
37.968,-42.16
37.984,-43.22
38.000,-42.44
38.015,-39.63
38.031,-34.85
38.046,-28.56
38.062,-21.46
38.078,-14.28
38.093,-7.65
38.109,-1.87
38.125,3.1
38.140,7.42
38.156,11.26
38.171,14.64
38.187,17.46
38.203,19.51
38.218,20.79
38.234,21.43
38.250,21.73
38.265,22.01
38.281,22.44
38.296,23.05
38.312,23.76
38.328,24.41
38.343,24.86
38.359,25.09
38.375,25.08
38.390,24.9
38.406,24.58
38.421,24.06
38.437,23.27
38.453,22.15
38.468,20.59
38.484,18.61
38.500,16.32
38.515,13.87
38.531,11.42
38.546,9.04
38.562,6.62
38.578,4.08
38.593,1.35
38.609,-1.59
38.625,-4.63
38.640,-7.62
38.656,-10.5
38.671,-13.25
38.687,-15.94
38.703,-18.65
38.718,-21.38
38.734,-24.13
38.750,-26.91
38.765,-29.8
38.781,-32.91
38.796,-36.4
38.812,-40.21
38.828,-43.93
38.843,-46.9
38.859,-48.21
38.875,-47.12
38.890,-43.29
38.906,-36.87
38.921,-28.55
38.937,-19.36
38.953,-10.3
38.968,-2.15
38.984,4.64
39.000,10.03
39.015,14.23
39.031,17.56
39.046,20.35
39.062,22.71
39.078,24.6
39.093,25.91
39.109,26.59
39.125,26.72
39.140,26.6
39.156,26.58
39.171,26.86
39.187,27.43
39.203,28.01
39.218,28.27
39.234,28.02
39.250,27.26
39.265,26.14
39.281,24.86
39.296,23.48
39.312,21.95
39.328,20.18
39.343,18.13
39.359,15.95
39.375,13.83
39.390,11.91
39.406,10.21
39.421,8.59
39.437,6.79
39.453,4.56
39.468,1.82
39.484,-1.36
39.500,-4.72
39.515,-7.9
39.531,-10.64
39.546,-12.8
39.562,-14.43
39.578,-15.81
39.593,-17.31
39.609,-19.25
39.625,-21.87
39.640,-25.18
39.656,-29.05
39.671,-33.19
39.687,-37.19
39.703,-40.53
39.718,-42.69
39.734,-43.15
39.750,-41.55
39.765,-37.78
39.781,-32.07
39.796,-24.93
39.812,-17.1
39.828,-9.31
39.843,-2.18
39.859,3.95
39.875,8.96
39.890,12.93
39.906,15.97
39.921,18.23
39.937,19.79
39.953,20.8
39.968,21.42
39.984,21.82
40.000,22.17
40.015,22.57
40.031,23.02
40.046,23.42
40.062,23.67
40.078,23.68
40.093,23.41
40.109,22.9
40.125,22.13
40.140,21.05
40.156,19.58
40.171,17.66
40.187,15.34
40.203,12.84
40.218,10.4
40.234,8.24
40.250,6.42
40.265,4.83
40.281,3.21
40.296,1.33
40.312,-0.9
40.328,-3.4
40.343,-5.96
40.359,-8.41
40.375,-10.71
40.390,-13.04
40.406,-15.66
40.421,-18.75
40.437,-22.32
40.453,-26.2
40.468,-30.07
40.484,-33.7
40.500,-36.8
40.515,-39.11
40.531,-40.28
40.546,-39.86
40.562,-37.47
40.578,-32.97
40.593,-26.6
40.609,-19.01
40.625,-11.05
40.640,-3.51
40.656,3.1
40.671,8.58
40.687,13.0
40.703,16.52
40.718,19.26
40.734,21.26
40.750,22.47
40.765,22.86
40.781,22.48
40.796,21.6
40.812,20.57
40.828,19.79
40.843,19.51
40.859,19.74
40.875,20.25
40.890,20.66
40.906,20.61
40.921,19.96
40.937,18.82
40.953,17.41
40.968,15.99
40.984,14.66
41.000,13.39
41.015,12.07
41.031,10.63
41.046,8.98
41.062,7.13
41.078,5.08
41.093,2.78
41.109,0.22
41.125,-2.58
41.140,-5.56
41.156,-8.59
41.171,-11.57
41.187,-14.44
41.203,-17.21
41.218,-20.01
41.234,-23.07
41.250,-26.56
41.265,-30.54
41.281,-34.86
41.296,-39.06
41.312,-42.42
41.328,-44.14
41.343,-43.61
41.359,-40.56
41.375,-35.2
41.390,-28.16
41.406,-20.24
41.421,-12.28
41.437,-4.87
41.453,1.74
41.468,7.6
41.484,12.86
41.500,17.63
41.515,21.89
41.531,25.5
41.546,28.27
41.562,30.14
41.578,31.23
41.593,31.8
41.609,32.16
41.625,32.62
41.640,33.34
41.656,34.41
41.671,35.84
41.687,37.5
41.703,39.24
41.718,40.82
41.734,42.0
41.750,42.65
41.765,42.86
41.781,42.84
41.796,42.85
41.812,43.02
41.828,43.29
41.843,43.43
41.859,43.21
41.875,42.6
41.890,41.79
41.906,41.22
41.921,41.38
41.937,42.56
41.953,44.71
41.968,47.51
41.984,50.43
42.000,52.97
42.015,54.92
42.031,56.34
42.046,57.72
42.062,59.84
42.078,63.74
42.093,70.37
42.109,80.32
42.125,93.56
42.140,109.34
42.156,126.49
42.171,143.77
42.187,160.4
42.203,176.34
42.218,192.12
42.234,208.27
42.250,224.83
42.265,241.01
42.281,255.11
42.296,264.94
42.312,268.21
42.328,263.04
42.343,248.29
42.359,223.86
42.375,190.73
42.390,150.84
42.406,106.75
42.421,60.98
42.437,15.62
42.453,-27.89
42.468,-68.55
42.484,-105.35
42.500,-136.94
42.515,-161.59
42.531,-177.67
42.546,-184.3
42.562,-181.93
42.578,-172.27
42.593,-158.02
42.609,-142.14
42.625,-127.14
42.640,-114.61
42.656,-105.15
42.671,-98.46
42.687,-93.78
42.703,-90.44
42.718,-88.06
42.734,-86.76
42.750,-86.82
42.765,-88.29
42.781,-90.56
42.796,-92.62
42.812,-93.43
42.828,-92.73
42.843,-91.48
42.859,-91.52
42.875,-94.73
42.890,-102.1
42.906,-113.12
42.921,-126.1
42.937,-138.97
42.953,-150.13
42.968,-158.72
42.984,-164.41
43.000,-166.63
43.015,-164.32
43.031,-156.17
43.046,-141.49
43.062,-120.89
43.078,-96.56
43.093,-71.66
43.109,-49.39
43.125,-31.95
43.140,-19.81
43.156,-11.87
43.171,-6.09
43.187,-0.46
43.203,6.12
43.218,13.46
43.234,20.39
43.250,25.44
43.265,27.59
43.281,26.84
43.296,24.08
43.312,20.54
43.328,17.41
43.343,15.35
43.359,14.51
43.375,14.71
43.390,15.62
43.406,16.62
43.421,16.77
43.437,14.75
43.453,9.2
43.468,-0.71
43.484,-14.71
43.500,-31.34
43.515,-48.28
43.531,-62.97
43.546,-73.46
43.562,-78.97
43.578,-79.89
43.593,-77.44
43.609,-73.07
43.625,-67.93
43.640,-62.72
43.656,-57.8
43.671,-53.46
43.687,-50.08
43.703,-48.13
43.718,-47.86
43.734,-49.09
43.750,-51.17
43.765,-53.17
43.781,-54.32
43.796,-54.12
43.812,-52.46
43.828,-49.43
43.843,-45.06
43.859,-39.28
43.875,-32.01
43.890,-23.34
43.906,-13.55
43.921,-3.19
43.937,7.24
43.953,17.31
43.968,26.62
43.984,34.72
44.000,41.08
44.015,45.09
44.031,46.42
44.046,45.3
44.062,42.49
44.078,39.17
44.093,36.5
44.109,35.26
44.125,35.69
44.140,37.6
44.156,40.66
44.171,44.56
44.187,49.14
44.203,54.1
44.218,58.84
44.234,62.38
44.250,63.55
44.265,61.32
44.281,55.32
44.296,46.03
44.312,34.88
44.328,23.76
44.343,14.57
44.359,8.52
44.375,5.84
44.390,5.71
44.406,6.59
44.421,6.72
44.437,4.63
44.453,-0.46
44.468,-8.46
44.484,-18.59
44.500,-29.64
44.515,-40.37
44.531,-49.77
44.546,-57.19
44.562,-62.41
44.578,-65.6
44.593,-67.23
44.609,-67.91
44.625,-68.17
44.640,-68.23
44.656,-67.92
44.671,-66.74
44.687,-64.14
44.703,-59.75
44.718,-53.57
44.734,-45.81
44.750,-36.83
44.765,-27.09
44.781,-17.21
44.796,-8.13
44.812,-1.04
44.828,2.85
44.843,2.8
44.859,-1.06
44.875,-7.67
44.890,-15.38
44.906,-22.37
44.921,-27.29
44.937,-29.61
44.953,-29.7
44.968,-28.54
44.984,-27.45
45.000,-27.68
45.015,-30.21
45.031,-35.49
45.046,-43.33
45.062,-52.97
45.078,-63.32
45.093,-73.42
45.109,-82.79
45.125,-91.64
45.140,-100.73
45.156,-110.89
45.171,-122.61
45.187,-135.77
45.203,-149.76
45.218,-163.76
45.234,-176.91
45.250,-188.47
45.265,-197.88
45.281,-204.75
45.296,-209.15
45.312,-211.65
45.328,-213.18
45.343,-214.61
45.359,-216.04
45.375,-216.43
45.390,-214.05
45.406,-207.11
45.421,-194.64
45.437,-176.83
45.453,-154.8
45.468,-129.99
45.484,-103.6
45.500,-76.61
45.515,-49.85
45.531,-24.33
45.546,-1.12
45.562,18.88
45.578,35.42
45.593,49.03
45.609,60.94
45.625,72.51
45.640,84.67
45.656,97.55
45.671,110.45
45.687,122.31
45.703,132.2
45.718,139.71
45.734,144.87
45.750,147.9
45.765,148.8
45.781,147.25
45.796,143.03
45.812,136.47
45.828,128.79
45.843,121.84
45.859,117.33
45.875,115.87
45.890,116.61
45.906,117.42
45.921,115.92
45.937,110.65
45.953,101.64
45.968,90.27
45.984,78.51
46.000,68.0
46.015,59.46
46.031,52.75
46.046,47.36
46.062,42.82
46.078,39.04
46.093,36.19
46.109,34.49
46.125,33.95
46.140,34.24
46.156,34.68
46.171,34.53
46.187,33.22
46.203,30.62
46.218,27.14
46.234,23.56
46.250,20.85
46.265,19.88
46.281,21.17
46.296,24.75
46.312,30.28
46.328,37.11
46.343,44.47
46.359,51.73
46.375,58.41
46.390,64.32
46.406,69.46
46.421,73.91
46.437,77.68
46.453,80.67
46.468,82.68
46.484,83.46
46.500,82.96
46.515,81.28
46.531,78.71
46.546,75.68
46.562,72.54
46.578,69.6
46.593,67.03
46.609,64.89
46.625,63.13
46.640,61.72
46.656,60.55
46.671,59.52
46.687,58.45
46.703,57.12
46.718,55.31
46.734,52.88
46.750,49.8
46.765,46.18
46.781,42.21
46.796,38.06
46.812,33.9
46.828,29.87
46.843,25.95
46.859,22.13
46.875,18.35
46.890,14.59
46.906,10.86
46.921,7.17
46.937,3.46
46.953,-0.43
46.968,-4.73
46.984,-9.6
47.000,-15.02
47.015,-20.58
47.031,-25.53
47.046,-28.94
47.062,-29.97
47.078,-28.12
47.093,-23.43
47.109,-16.4
47.125,-7.94
47.140,0.99
47.156,9.52
47.171,16.98
47.187,22.99
47.203,27.38
47.218,30.14
47.234,31.34
47.250,31.23
47.265,30.17
47.281,28.74
47.296,27.52
47.312,26.94
47.328,27.08
47.343,27.71
47.359,28.35
47.375,28.5
47.390,27.84
47.406,26.36
47.421,24.33
47.437,22.11
47.453,20.04
47.468,18.22
47.484,16.6
47.500,14.93
47.515,12.92
47.531,10.41
47.546,7.34
47.562,3.92
47.578,0.42
47.593,-2.89
47.609,-5.85
47.625,-8.4
47.640,-10.64
47.656,-12.76
47.671,-14.97
47.687,-17.51
47.703,-20.57
47.718,-24.27
47.734,-28.58
47.750,-33.23
47.765,-37.69
47.781,-41.2
47.796,-42.97
47.812,-42.34
47.828,-39.03
47.843,-33.18
47.859,-25.37
47.875,-16.42
47.890,-7.22
47.906,1.51
47.921,9.27
47.937,15.89
47.953,21.37
47.968,25.78
47.984,29.17
48.000,31.58
48.015,33.07
48.031,33.77
48.046,33.88
48.062,33.66
48.078,33.4
48.093,33.31
48.109,33.47
48.125,33.86
48.140,34.37
48.156,34.83
48.171,35.07
48.187,34.91
48.203,34.22
48.218,33.03
48.234,31.37
48.250,29.36
48.265,27.11
48.281,24.64
48.296,21.9
48.312,18.81
48.328,15.31
48.343,11.38
48.359,7.16
48.375,2.83
48.390,-1.42
48.406,-5.45
48.421,-9.25
48.437,-12.83
48.453,-16.26
48.468,-19.67
48.484,-23.2
48.500,-26.93
48.515,-30.96
48.531,-35.19
48.546,-39.27
48.562,-42.59
48.578,-44.3
48.593,-43.59
48.609,-40.01
48.625,-33.67
48.640,-25.21
48.656,-15.73
48.671,-6.31
48.687,2.26
48.703,9.62
48.718,15.77
48.734,20.88
48.750,25.02
48.765,28.14
48.781,30.14
48.796,30.96
48.812,30.82
48.828,30.05
48.843,28.99
48.859,27.87
48.875,26.66
48.890,25.28
48.906,23.58
48.921,21.61
48.937,19.53
48.953,17.61
48.968,16.08
48.984,15.03
49.000,14.34
49.015,13.72
49.031,12.77
49.046,11.2
49.062,8.97
49.078,6.28
49.093,3.53
49.109,1.12
49.125,-0.85
49.140,-2.5
49.156,-4.23
49.171,-6.4
49.187,-9.22
49.203,-12.57
49.218,-16.17
49.234,-19.76
49.250,-23.21
49.265,-26.55
49.281,-29.85
49.296,-33.15
49.312,-36.44
49.328,-39.79
49.343,-43.29
49.359,-47.04
49.375,-50.89
49.390,-54.23
49.406,-56.16
49.421,-55.6
49.437,-51.84
49.453,-44.8
49.468,-35.1
49.484,-23.76
49.500,-11.92
49.515,-0.41
49.531,10.32
49.546,20.02
49.562,28.53
49.578,35.66
49.593,41.14
49.609,44.75
49.625,46.49
49.640,46.57
49.656,45.34
49.671,43.26
49.687,40.71
49.703,37.85
49.718,34.8
49.734,31.58
49.750,28.31
49.765,25.23
49.781,22.55
49.796,20.46
49.812,18.94
49.828,17.78
49.843,16.68
49.859,15.37
49.875,13.75
49.890,11.88
49.906,9.86
49.921,7.79
49.937,5.73
49.953,3.62
49.968,1.4
49.984,-0.99
50.000,-3.56
50.015,-6.32
50.031,-9.28
50.046,-12.39
50.062,-15.63
50.078,-18.89
50.093,-21.99
50.109,-24.81
50.125,-27.27
50.140,-29.39
50.156,-31.34
50.171,-33.35
50.187,-35.62
50.203,-38.35
50.218,-41.51
50.234,-44.84
50.250,-47.91
50.265,-50.07
50.281,-50.63
50.296,-49.04
50.312,-45.05
50.328,-38.81
50.343,-30.86
50.359,-21.92
50.375,-12.64
50.390,-3.47
50.406,5.38
50.421,13.8
50.437,21.59
50.453,28.43
50.468,33.97
50.484,37.9
50.500,40.18
50.515,40.98
50.531,40.68
50.546,39.73
50.562,38.51
50.578,37.2
50.593,35.89
50.609,34.58
50.625,33.17
50.640,31.57
50.656,29.7
50.671,27.54
50.687,25.11
50.703,22.47
50.718,19.59
50.734,16.43
50.750,12.92
50.765,8.97
50.781,4.62
50.796,0.03
50.812,-4.53
50.828,-8.77
50.843,-12.47
50.859,-15.65
50.875,-18.45
50.890,-21.07
50.906,-23.65
50.921,-26.08
50.937,-28.1
50.953,-29.45
50.968,-30.07
50.984,-30.21
51.000,-30.34
51.015,-31.02
51.031,-32.64
51.046,-35.31
51.062,-38.71
51.078,-42.23
51.093,-45.1
51.109,-46.43
51.125,-45.57
51.140,-42.13
51.156,-36.14
51.171,-28.03
51.187,-18.6
51.203,-8.71
51.218,0.87
51.234,9.55
51.250,17.04
51.265,23.2
51.281,28.0
51.296,31.48
51.312,33.8
51.328,35.18
51.343,35.94
51.359,36.42
51.375,36.91
51.390,37.54
51.406,38.28
51.421,38.96
51.437,39.38
51.453,39.37
51.468,38.93
51.484,38.11
51.500,37.05
51.515,35.86
51.531,34.56
51.546,33.16
51.562,31.56
51.578,29.78
51.593,27.78
51.609,25.57
51.625,23.11
51.640,20.37
51.656,17.32
51.671,13.97
51.687,10.38
51.703,6.57
51.718,2.6
51.734,-1.52
51.750,-5.77
51.765,-10.05
51.781,-14.23
51.796,-18.24
51.812,-22.17
51.828,-26.24
51.843,-30.76
51.859,-35.88
51.875,-41.38
51.890,-46.7
51.906,-50.99
51.921,-53.3
51.937,-52.94
51.953,-49.61
51.968,-43.56
51.984,-35.54
52.000,-26.54
52.015,-17.6
52.031,-9.56
52.046,-2.87
52.062,2.34
52.078,6.13
52.093,8.66
52.109,10.08
52.125,10.47
52.140,9.99
52.156,8.85
52.171,7.37
52.187,5.88
52.203,4.65
52.218,3.79
52.234,3.31
52.250,3.1
52.265,3.04
52.281,3.06
52.296,3.15
52.312,3.32
52.328,3.53
52.343,3.74
52.359,3.75
52.375,3.41
52.390,2.56
52.406,1.17
52.421,-0.69
52.437,-2.8
52.453,-4.98
52.468,-7.05
52.484,-8.97
52.500,-10.83
52.515,-12.72
52.531,-14.77
52.546,-17.05
52.562,-19.53
52.578,-22.11
52.593,-24.69
52.609,-27.25
52.625,-29.79
52.640,-32.45
52.656,-35.33
52.671,-38.54
52.687,-42.14
52.703,-45.91
52.718,-49.38
52.734,-51.74
52.750,-52.1
52.765,-49.67
52.781,-44.18
52.796,-35.93
52.812,-25.79
52.828,-14.88
52.843,-4.27
52.859,5.37
52.875,13.75
52.890,20.92
52.906,27.02
52.921,32.09
52.937,36.14
52.953,39.14
52.968,41.16
52.984,42.43
53.000,43.29
53.015,43.98
53.031,44.61
53.046,45.13
53.062,45.37
53.078,45.25
53.093,44.86
53.109,44.36
53.125,44.01
53.140,43.94
53.156,44.07
53.171,44.11
53.187,43.63
53.203,42.22
53.218,39.69
53.234,36.05
53.250,31.57
53.265,26.68
53.281,21.82
53.296,17.28
53.312,13.07
53.328,8.93
53.343,4.39
53.359,-0.98
53.375,-7.36
53.390,-14.51
53.406,-21.8
53.421,-28.49
53.437,-34.0
53.453,-38.11
53.468,-41.05
53.484,-43.37
53.500,-45.67
53.515,-48.47
53.531,-52.09
53.546,-56.63
53.562,-61.96
53.578,-67.66
53.593,-72.91
53.609,-76.63
53.625,-77.66
53.640,-75.14
53.656,-68.94
53.671,-59.72
53.687,-48.68
53.703,-37.15
53.718,-26.04
53.734,-15.68
53.750,-6.01
53.765,3.09
53.781,11.53
53.796,18.97
53.812,24.97
53.828,29.3
53.843,32.1
53.859,33.78
53.875,34.79
53.890,35.42
53.906,35.7
53.921,35.57
53.937,34.96
53.953,34.0
53.968,32.92
53.984,32.01
54.000,31.37
54.015,30.93
54.031,30.4
54.046,29.49
54.062,27.98
54.078,25.87
54.093,23.33
54.109,20.54
54.125,17.65
54.140,14.72
54.156,11.81
54.171,8.97
54.187,6.32
54.203,4.0
54.218,1.98
54.234,0.1
54.250,-2.0
54.265,-4.6
54.281,-7.84
54.296,-11.56
54.312,-15.35
54.328,-18.8
54.343,-21.61
54.359,-23.77
54.375,-25.55
54.390,-27.39
54.406,-29.65
54.421,-32.61
54.437,-36.33
54.453,-40.65
54.468,-45.33
54.484,-49.93
54.500,-53.86
54.515,-56.37
54.531,-56.7
54.546,-54.2
54.562,-48.66
54.578,-40.38
54.593,-30.22
54.609,-19.36
54.625,-8.91
54.640,0.37
54.656,8.23
54.671,14.79
54.687,20.3
54.703,24.88
54.718,28.49
54.734,31.0
54.750,32.43
54.765,33.02
54.781,33.24
54.796,33.49
54.812,34.05
54.828,34.85
54.843,35.6
54.859,36.0
54.875,35.89
54.890,35.32
54.906,34.49
54.921,33.59
54.937,32.67
54.953,31.71
54.968,30.55
54.984,29.07
55.000,27.22
55.015,25.1
55.031,22.84
55.046,20.61
55.062,18.54
55.078,16.73
55.093,15.13
55.109,13.61
55.125,11.91
55.140,9.85
55.156,7.32
55.171,4.36
55.187,1.19
55.203,-1.89
55.218,-4.61
55.234,-6.78
55.250,-8.48
55.265,-9.93
55.281,-11.47
55.296,-13.41
55.312,-15.94
55.328,-19.12
55.343,-22.79
55.359,-26.58
55.375,-29.91
55.390,-32.0
55.406,-32.07
55.421,-29.54
55.437,-24.29
55.453,-16.76
55.468,-7.84
55.484,1.31
55.500,9.68
55.515,16.62
55.531,22.0
55.546,26.0
55.562,28.94
55.578,31.05
55.593,32.44
55.609,33.16
55.625,33.2
55.640,32.55
55.656,31.21
55.671,29.26
55.687,26.74
55.703,23.82
55.718,20.71
55.734,17.67
55.750,15.0
55.765,12.91
55.781,11.46
55.796,10.52
55.812,9.81
55.828,8.94
55.843,7.65
55.859,5.8
55.875,3.38
55.890,0.6
55.906,-2.35
55.921,-5.29
55.937,-8.12
55.953,-10.86
55.968,-13.57
55.984,-16.36
56.000,-19.28
56.015,-22.28
56.031,-25.17
56.046,-27.7
56.062,-29.61
56.078,-30.87
56.093,-31.69
56.109,-32.51
56.125,-33.93
56.140,-36.39
56.156,-40.02
56.171,-44.48
56.187,-49.01
56.203,-52.58
56.218,-54.1
56.234,-52.78
56.250,-48.35
56.265,-41.15
56.281,-32.11
56.296,-22.37
56.312,-13.02
56.328,-4.81
56.343,1.99
56.359,7.45
56.375,11.77
56.390,15.17
56.406,17.76
56.421,19.58
56.437,20.71
56.453,21.23
56.468,21.29
56.484,21.06
56.500,20.69
56.515,20.3
56.531,19.98
56.546,19.77
56.562,19.66
56.578,19.61
56.593,19.58
56.609,19.55
56.625,19.47
56.640,19.19
56.656,18.52
56.671,17.34
56.687,15.67
56.703,13.66
56.718,11.61
56.734,9.66
56.750,7.77
56.765,5.67
56.781,3.04
56.796,-0.29
56.812,-4.22
56.828,-8.4
56.843,-12.47
56.859,-16.13
56.875,-19.28
56.890,-22.01
56.906,-24.48
56.921,-26.91
56.937,-29.54
56.953,-32.59
56.968,-36.21
56.984,-40.25
57.000,-44.24
57.015,-47.33
57.031,-48.58
57.046,-47.28
57.062,-43.26
57.078,-36.98
57.093,-29.35
57.109,-21.38
57.125,-13.81
57.140,-6.92
57.156,-0.61
57.171,5.33
57.187,11.02
57.203,16.26
57.218,20.71
57.234,24.07
57.250,26.28
57.265,27.54
57.281,28.23
57.296,28.72
57.312,29.18
57.328,29.64
57.343,30.04
57.359,30.28
57.375,30.37
57.390,30.36
57.406,30.32
57.421,30.27
57.437,30.15
57.453,29.83
57.468,29.14
57.484,27.9
57.500,26.01
57.515,23.52
57.531,20.65
57.546,17.7
57.562,15.0
57.578,12.69
57.593,10.72
57.609,8.86
57.625,6.81
57.640,4.34
57.656,1.38
57.671,-1.95
57.687,-5.42
57.703,-8.79
57.718,-11.87
57.734,-14.61
57.750,-17.13
57.765,-19.66
57.781,-22.51
57.796,-25.96
57.812,-30.1
57.828,-34.82
57.843,-39.66
57.859,-43.95
57.875,-46.87
57.890,-47.68
57.906,-45.9
57.921,-41.47
57.937,-34.78
57.953,-26.57
57.968,-17.73
57.984,-9.0
58.000,-0.9
58.015,6.36
58.031,12.79
58.046,18.47
58.062,23.43
58.078,27.63
58.093,30.95
58.109,33.38
58.125,35.01
58.140,36.06
58.156,36.78
58.171,37.37
58.187,37.93
58.203,38.35
58.218,38.54
58.234,38.43
58.250,38.1
58.265,37.7
58.281,37.38
58.296,37.14
58.312,36.76
58.328,35.91
58.343,34.22
58.359,31.5
58.375,27.75
58.390,23.22
58.406,18.32
58.421,13.51
58.437,9.15
58.453,5.36
58.468,2.07
58.484,-1.0
58.500,-4.09
58.515,-7.39
58.531,-10.9
58.546,-14.48
58.562,-17.94
58.578,-21.18
58.593,-24.22
58.609,-27.17
58.625,-30.23
58.640,-33.54
58.656,-37.26
58.671,-41.51
58.687,-46.32
58.703,-51.52
58.718,-56.58
58.734,-60.69
58.750,-62.82
58.765,-62.08
58.781,-58.05
58.796,-50.97
58.812,-41.72
58.828,-31.53
58.843,-21.62
58.859,-12.75
58.875,-5.19
58.890,1.21
58.906,6.73
58.921,11.54
58.937,15.57
58.953,18.59
58.968,20.49
58.984,21.35
59.000,21.52
59.015,21.49
59.031,21.63
59.046,22.08
59.062,22.75
59.078,23.36
59.093,23.7
59.109,23.72
59.125,23.54
59.140,23.35
59.156,23.26
59.171,23.1
59.187,22.51
59.203,21.13
59.218,18.76
59.234,15.54
59.250,11.93
59.265,8.48
59.281,5.6
59.296,3.4
59.312,1.64
59.328,-0.06
59.343,-2.07
59.359,-4.51
59.375,-7.21
59.390,-9.89
59.406,-12.23
59.421,-14.08
59.437,-15.51
59.453,-16.84
59.468,-18.44
59.484,-20.66
59.500,-23.67
59.515,-27.44
59.531,-31.69
59.546,-35.95
59.562,-39.57
59.578,-41.87
59.593,-42.2
59.609,-40.13
59.625,-35.6
59.640,-28.93
59.656,-20.83
59.671,-12.19
59.687,-3.91
59.703,3.41
59.718,9.49
59.734,14.38
59.750,18.23
59.765,21.19
59.781,23.32
59.796,24.57
59.812,24.93
59.828,24.5
59.843,23.55
59.859,22.44
59.875,21.52
59.890,20.99
59.906,20.9
59.921,21.18
59.937,21.72
59.953,22.38
59.968,22.99
59.984,23.34
