timestamp,value
00.000,-11.68
00.015,-13.06
00.031,-14.64
00.046,-16.39
00.062,-18.21
00.078,-20.07
00.093,-21.95
00.109,-23.84
00.125,-25.78
00.140,-27.92
00.156,-30.4
00.171,-33.33
00.187,-36.72
00.203,-40.41
00.218,-44.18
00.234,-47.8
00.250,-51.16
00.265,-54.31
00.281,-57.53
00.296,-61.16
00.312,-65.48
00.328,-70.62
00.343,-76.29
00.359,-81.83
00.375,-86.15
00.390,-88.01
00.406,-86.29
00.421,-80.43
00.437,-70.59
00.453,-57.7
00.468,-43.17
00.484,-28.45
00.500,-14.78
00.515,-2.81
00.531,7.28
00.546,15.56
00.562,22.16
00.578,27.18
00.593,30.7
00.609,32.88
00.625,34.05
00.640,34.58
00.656,34.86
00.671,35.1
00.687,35.27
00.703,35.22
00.718,34.79
00.734,33.92
00.750,32.6
00.765,30.96
00.781,29.1
00.796,27.06
00.812,24.82
00.828,22.28
00.843,19.36
00.859,16.03
00.875,12.34
00.890,8.38
00.906,4.34
00.921,0.32
00.937,-3.6
00.953,-7.39
00.968,-11.1
00.984,-14.76
01.000,-18.39
01.015,-21.94
01.031,-25.39
01.046,-28.68
01.062,-31.87
01.078,-35.08
01.093,-38.43
01.109,-42.02
01.125,-45.78
01.140,-49.44
01.156,-52.49
01.171,-54.27
01.187,-54.01
01.203,-51.15
01.218,-45.49
01.234,-37.25
01.250,-27.13
01.265,-16.11
01.281,-5.24
01.296,4.58
01.312,12.81
01.328,19.27
01.343,24.04
01.359,27.39
01.375,29.58
01.390,30.84
01.406,31.36
01.421,31.27
01.437,30.71
01.453,29.84
01.468,28.83
01.484,27.8
01.500,26.9
01.515,26.2
01.531,25.68
01.546,25.28
01.562,24.87
01.578,24.25
01.593,23.26
01.609,21.79
01.625,19.86
01.640,17.52
01.656,14.86
01.671,11.9
01.687,8.66
01.703,5.14
01.718,1.42
01.734,-2.3
01.750,-5.79
01.765,-8.83
01.781,-11.31
01.796,-13.26
01.812,-14.9
01.828,-16.46
01.843,-18.2
01.859,-20.35
01.875,-22.98
01.890,-26.09
01.906,-29.46
01.921,-32.65
01.937,-34.98
01.953,-35.69
01.968,-34.07
01.984,-29.68
02.000,-22.64
02.015,-13.54
02.031,-3.4
02.046,6.66
02.062,15.7
02.078,23.24
02.093,29.18
02.109,33.78
02.125,37.31
02.140,39.94
02.156,41.64
02.171,42.32
02.187,41.99
02.203,40.83
02.218,39.25
02.234,37.62
02.250,36.2
02.265,35.03
02.281,33.95
02.296,32.8
02.312,31.5
02.328,30.1
02.343,28.68
02.359,27.25
02.375,25.69
02.390,23.79
02.406,21.42
02.421,18.56
02.437,15.35
02.453,12.0
02.468,8.65
02.484,5.29
02.500,1.87
02.515,-1.68
02.531,-5.36
02.546,-9.06
02.562,-12.63
02.578,-15.96
02.593,-19.0
02.609,-21.86
02.625,-24.7
02.640,-27.77
02.656,-31.22
02.671,-35.11
02.687,-39.27
02.703,-43.19
02.718,-46.18
02.734,-47.4
02.750,-46.17
02.765,-42.17
02.781,-35.59
02.796,-27.06
02.812,-17.5
02.828,-7.87
02.843,1.13
02.859,9.07
02.875,15.82
02.890,21.44
02.906,26.03
02.921,29.65
02.937,32.35
02.953,34.2
02.968,35.27
02.984,35.75
03.000,35.74
03.015,35.4
03.031,34.83
03.046,34.08
03.062,33.21
03.078,32.24
03.093,31.23
03.109,30.13
03.125,28.98
03.140,27.65
03.156,26.1
03.171,24.26
03.187,22.03
03.203,19.38
03.218,16.37
03.234,13.06
03.250,9.59
03.265,6.14
03.281,2.77
03.296,-0.45
03.312,-3.54
03.328,-6.6
03.343,-9.71
03.359,-12.96
03.375,-16.33
03.390,-19.78
03.406,-23.2
03.421,-26.45
03.437,-29.4
03.453,-31.98
03.468,-34.29
03.484,-36.52
03.500,-39.02
03.515,-42.07
03.531,-45.79
03.546,-49.95
03.562,-53.98
03.578,-57.03
03.593,-58.19
03.609,-56.84
03.625,-52.78
03.640,-46.35
03.656,-38.21
03.671,-29.15
03.687,-19.81
03.703,-10.66
03.718,-1.97
03.734,6.08
03.750,13.28
03.765,19.45
03.781,24.4
03.796,28.09
03.812,30.57
03.828,31.98
03.843,32.45
03.859,32.12
03.875,31.17
03.890,29.78
03.906,28.17
03.921,26.54
03.937,25.01
03.953,23.63
03.968,22.37
03.984,21.12
04.000,19.76
04.015,18.22
04.031,16.43
04.046,14.41
04.062,12.17
04.078,9.74
04.093,7.11
04.109,4.27
04.125,1.2
04.140,-2.08
04.156,-5.46
04.171,-8.8
04.187,-11.95
04.203,-14.83
04.218,-17.47
04.234,-19.96
04.250,-22.34
04.265,-24.63
04.281,-26.72
04.296,-28.5
04.312,-29.94
04.328,-31.16
04.343,-32.38
04.359,-33.92
04.375,-35.97
04.390,-38.63
04.406,-41.88
04.421,-45.58
04.437,-49.46
04.453,-53.15
04.468,-56.09
04.484,-57.54
04.500,-56.81
04.515,-53.36
04.531,-47.11
04.546,-38.5
04.562,-28.42
04.578,-17.94
04.593,-8.04
04.609,0.65
04.625,7.99
04.640,14.14
04.656,19.37
04.671,23.87
04.687,27.53
04.703,30.2
04.718,31.72
04.734,32.13
04.750,31.73
04.765,30.97
04.781,30.27
04.796,29.89
04.812,29.88
04.828,30.02
04.843,30.13
04.859,30.06
04.875,29.9
04.890,29.78
04.906,29.88
04.921,30.17
04.937,30.43
04.953,30.31
04.968,29.46
04.984,27.75
05.000,25.25
05.015,22.27
05.031,19.22
05.046,16.39
05.062,13.8
05.078,11.34
05.093,8.75
05.109,5.87
05.125,2.77
05.140,-0.34
05.156,-3.15
05.171,-5.43
05.187,-7.15
05.203,-8.61
05.218,-10.17
05.234,-12.24
05.250,-15.04
05.265,-18.56
05.281,-22.62
05.296,-26.93
05.312,-31.08
05.328,-34.62
05.343,-36.93
05.359,-37.41
05.375,-35.55
05.390,-31.18
05.406,-24.52
05.421,-16.28
05.437,-7.35
05.453,1.4
05.468,9.38
05.484,16.3
05.500,22.16
05.515,26.98
05.531,30.81
05.546,33.65
05.562,35.47
05.578,36.33
05.593,36.39
05.609,35.86
05.625,34.98
05.640,33.94
05.656,32.84
05.671,31.72
05.687,30.61
05.703,29.55
05.718,28.62
05.734,27.93
05.750,27.48
05.765,27.19
05.781,26.83
05.796,26.08
05.812,24.66
05.828,22.41
05.843,19.39
05.859,15.87
05.875,12.18
05.890,8.58
05.906,5.29
05.921,2.39
05.937,-0.2
05.953,-2.56
05.968,-4.84
05.984,-7.24
06.000,-9.85
06.015,-12.74
06.031,-15.84
06.046,-19.01
06.062,-22.07
06.078,-24.91
06.093,-27.43
06.109,-29.67
06.125,-31.75
06.140,-33.81
06.156,-36.15
06.171,-38.93
06.187,-42.15
06.203,-45.5
06.218,-48.34
06.234,-49.84
06.250,-49.23
06.265,-46.16
06.281,-40.68
06.296,-33.39
06.312,-25.06
06.328,-16.46
06.343,-8.11
06.359,-0.3
06.375,6.94
06.390,13.56
06.406,19.47
06.421,24.51
06.437,28.49
06.453,31.26
06.468,32.8
06.484,33.26
06.500,32.9
06.515,32.09
06.531,31.16
06.546,30.36
06.562,29.83
06.578,29.57
06.593,29.44
06.609,29.26
06.625,28.79
06.640,27.86
06.656,26.38
06.671,24.35
06.687,21.85
06.703,18.98
06.718,15.8
06.734,12.36
06.750,8.75
06.765,5.07
06.781,1.49
06.796,-1.83
06.812,-4.76
06.828,-7.34
06.843,-9.61
06.859,-11.8
06.875,-14.06
06.890,-16.54
06.906,-19.29
06.921,-22.27
06.937,-25.32
06.953,-28.33
06.968,-31.23
06.984,-34.0
07.000,-36.72
07.015,-39.48
07.031,-42.31
07.046,-45.23
07.062,-48.24
07.078,-51.29
07.093,-54.24
07.109,-56.81
07.125,-58.46
07.140,-58.54
07.156,-56.51
07.171,-52.13
07.187,-45.68
07.203,-37.78
07.218,-29.27
07.234,-20.89
07.250,-13.14
07.265,-6.26
07.281,-0.3
07.296,4.76
07.312,8.95
07.328,12.31
07.343,14.94
07.359,16.94
07.375,18.43
07.390,19.5
07.406,20.18
07.421,20.46
07.437,20.34
07.453,19.86
07.468,19.06
07.484,18.05
07.500,16.95
07.515,15.9
07.531,15.0
07.546,14.3
07.562,13.75
07.578,13.18
07.593,12.43
07.609,11.31
07.625,9.72
07.640,7.72
07.656,5.48
07.671,3.2
07.687,1.1
07.703,-0.74
07.718,-2.36
07.734,-3.86
07.750,-5.39
07.765,-7.09
07.781,-8.95
07.796,-10.92
07.812,-12.88
07.828,-14.73
07.843,-16.4
07.859,-17.96
07.875,-19.55
07.890,-21.41
07.906,-23.75
07.921,-26.67
07.937,-30.2
07.953,-34.1
07.968,-37.99
07.984,-41.29
08.000,-43.33
08.015,-43.42
08.031,-41.08
08.046,-36.17
08.062,-28.93
08.078,-20.06
08.093,-10.45
08.109,-1.03
08.125,7.47
08.140,14.58
08.156,20.22
08.171,24.48
08.187,27.53
08.203,29.6
08.218,30.88
08.234,31.57
08.250,31.87
08.265,31.97
08.281,32.0
08.296,32.03
08.312,32.01
08.328,31.83
08.343,31.42
08.359,30.74
08.375,29.92
08.390,29.09
08.406,28.4
08.421,27.84
08.437,27.31
08.453,26.58
08.468,25.46
08.484,23.87
08.500,21.85
08.515,19.59
08.531,17.3
08.546,15.07
08.562,12.89
08.578,10.64
08.593,8.14
08.609,5.28
08.625,2.03
08.640,-1.57
08.656,-5.3
08.671,-8.91
08.687,-12.19
08.703,-15.02
08.718,-17.42
08.734,-19.58
08.750,-21.78
08.765,-24.26
08.781,-27.1
08.796,-30.08
08.812,-32.65
08.828,-34.09
08.843,-33.76
08.859,-31.26
08.875,-26.64
08.890,-20.29
08.906,-12.85
08.921,-4.96
08.937,2.87
08.953,10.33
08.968,17.15
08.984,23.1
09.000,27.89
09.015,31.33
09.031,33.43
09.046,34.36
09.062,34.46
09.078,34.07
09.093,33.38
09.109,32.45
09.125,31.26
09.140,29.85
09.156,28.3
09.171,26.79
09.187,25.46
09.203,24.33
09.218,23.38
09.234,22.46
09.250,21.48
09.265,20.34
09.281,19.06
09.296,17.62
09.312,16.04
09.328,14.34
09.343,12.56
09.359,10.75
09.375,8.92
09.390,7.11
09.406,5.18
09.421,3.04
09.437,0.53
09.453,-2.43
09.468,-5.8
09.484,-9.45
09.500,-13.15
09.515,-16.7
09.531,-19.93
09.546,-22.89
09.562,-25.66
09.578,-28.43
09.593,-31.36
09.609,-34.54
09.625,-37.91
09.640,-41.21
09.656,-43.96
09.671,-45.54
09.687,-45.34
09.703,-42.95
09.718,-38.27
09.734,-31.64
09.750,-23.63
09.765,-15.04
09.781,-6.55
09.796,1.37
09.812,8.4
09.828,14.46
09.843,19.48
09.859,23.5
09.875,26.5
09.890,28.63
09.906,30.03
09.921,30.93
09.937,31.55
09.953,31.95
09.968,32.09
09.984,31.84
10.000,31.1
10.015,29.88
10.031,28.35
10.046,26.69
10.062,25.07
10.078,23.57
10.093,22.17
10.109,20.82
10.125,19.49
10.140,18.12
10.156,16.66
10.171,15.03
10.187,13.11
10.203,10.91
10.218,8.51
10.234,6.07
10.250,3.69
10.265,1.37
10.281,-1.06
10.296,-3.77
10.312,-6.88
10.328,-10.32
10.343,-13.87
10.359,-17.28
10.375,-20.37
10.390,-23.14
10.406,-25.77
10.421,-28.45
10.437,-31.38
10.453,-34.66
10.468,-38.21
10.484,-41.79
10.500,-44.93
10.515,-47.02
10.531,-47.4
10.546,-45.55
10.562,-41.29
10.578,-34.82
10.593,-26.69
10.609,-17.67
10.625,-8.46
10.640,0.36
10.656,8.43
10.671,15.61
10.687,21.82
10.703,27.08
10.718,31.4
10.734,34.85
10.750,37.4
10.765,39.1
10.781,39.97
10.796,40.25
10.812,40.35
10.828,40.77
10.843,41.98
10.859,44.19
10.875,47.31
10.890,50.97
10.906,54.71
10.921,58.18
10.937,61.28
10.953,64.22
10.968,67.36
10.984,71.06
11.000,75.45
11.015,80.37
11.031,85.4
11.046,89.92
11.062,93.38
11.078,95.43
11.093,96.08
11.109,95.65
11.125,94.8
11.140,94.32
11.156,94.86
11.171,96.63
11.187,98.82
11.203,99.54
11.218,96.05
11.234,85.63
11.250,66.71
11.265,39.67
11.281,6.96
11.296,-27.64
11.312,-60.14
11.328,-87.56
11.343,-108.35
11.359,-122.28
11.375,-129.94
11.390,-132.31
11.406,-130.56
11.421,-126.13
11.437,-120.78
11.453,-116.2
11.468,-113.56
11.484,-113.08
11.500,-113.92
11.515,-114.55
11.531,-113.35
11.546,-109.14
11.562,-101.5
11.578,-90.77
11.593,-77.72
11.609,-63.3
11.625,-48.33
11.640,-33.45
11.656,-18.98
11.671,-5.02
11.687,8.61
11.703,22.16
11.718,35.87
11.734,49.8
11.750,63.72
11.765,77.21
11.781,89.76
11.796,100.99
11.812,110.65
11.828,118.73
11.843,125.24
11.859,130.14
11.875,133.33
11.890,134.75
11.906,134.5
11.921,132.91
11.937,130.41
11.953,127.3
11.968,123.64
11.984,119.17
12.000,113.47
12.015,106.08
12.031,96.7
12.046,85.32
12.062,72.13
12.078,57.38
12.093,41.43
12.109,24.64
12.125,7.52
12.140,-9.24
12.156,-24.7
12.171,-37.77
12.187,-47.3
12.203,-52.39
12.218,-52.65
12.234,-48.42
12.250,-40.76
12.265,-31.15
12.281,-21.21
12.296,-12.17
12.312,-4.73
12.328,0.96
12.343,5.09
12.359,7.91
12.375,9.54
12.390,10.04
12.406,9.5
12.421,8.14
12.437,6.38
12.453,4.66
12.468,3.19
12.484,1.88
12.500,0.42
12.515,-1.63
12.531,-4.44
12.546,-7.87
12.562,-11.52
12.578,-14.9
12.593,-17.71
12.609,-19.94
12.625,-21.85
12.640,-23.8
12.656,-26.08
12.671,-28.78
12.687,-31.82
12.703,-35.06
12.718,-38.35
12.734,-41.66
12.750,-45.04
12.765,-48.55
12.781,-52.21
12.796,-55.98
12.812,-59.73
12.828,-63.39
12.843,-66.95
12.859,-70.45
12.875,-73.89
12.890,-77.2
12.906,-79.99
12.921,-81.73
12.937,-81.82
12.953,-79.79
12.968,-75.51
12.984,-69.26
13.000,-61.65
13.015,-53.38
13.031,-45.15
13.046,-37.42
13.062,-30.41
13.078,-24.3
13.093,-19.13
13.109,-14.94
13.125,-11.77
13.140,-9.59
13.156,-8.27
13.171,-7.66
13.187,-7.54
13.203,-7.73
13.218,-8.2
13.234,-8.93
13.250,-9.92
13.265,-11.11
13.281,-12.36
13.296,-13.44
13.312,-14.14
13.328,-14.38
13.343,-14.27
13.359,-14.2
13.375,-14.54
13.390,-15.64
13.406,-17.56
13.421,-20.03
13.437,-22.6
13.453,-24.81
13.468,-26.43
13.484,-27.45
13.500,-28.16
13.515,-28.93
13.531,-30.16
13.546,-32.23
13.562,-35.37
13.578,-39.66
13.593,-44.99
13.609,-50.92
13.625,-56.62
13.640,-61.2
13.656,-63.77
13.671,-63.92
13.687,-61.77
13.703,-57.92
13.718,-53.19
13.734,-48.39
13.750,-44.05
13.765,-40.33
13.781,-37.23
13.796,-34.58
13.812,-32.3
13.828,-30.37
13.843,-28.85
13.859,-27.73
13.875,-26.88
13.890,-26.04
13.906,-24.89
13.921,-23.17
13.937,-20.74
13.953,-17.58
13.968,-13.84
13.984,-9.76
14.000,-5.63
14.015,-1.77
14.031,1.43
14.046,3.62
14.062,4.53
14.078,4.05
14.093,2.33
14.109,-0.27
14.125,-3.29
14.140,-6.35
14.156,-9.25
14.171,-11.98
14.187,-14.65
14.203,-17.33
14.218,-19.98
14.234,-22.47
14.250,-24.61
14.265,-26.37
14.281,-27.85
14.296,-29.33
14.312,-31.16
14.328,-33.62
14.343,-36.76
14.359,-40.38
14.375,-43.97
14.390,-46.78
14.406,-48.01
14.421,-46.92
14.437,-43.07
14.453,-36.42
14.468,-27.33
14.484,-16.41
14.500,-4.41
14.515,7.92
14.531,19.88
14.546,30.89
14.562,40.46
14.578,48.21
14.593,53.92
14.609,57.55
14.625,59.26
14.640,59.29
14.656,57.92
14.671,55.38
14.687,51.86
14.703,47.53
14.718,42.64
14.734,37.41
14.750,32.12
14.765,26.98
14.781,22.13
14.796,17.58
14.812,13.28
14.828,9.12
14.843,4.98
14.859,0.82
14.875,-3.39
14.890,-7.62
14.906,-11.82
14.921,-16.0
14.937,-20.16
14.953,-24.23
14.968,-28.06
14.984,-31.36
15.000,-33.8
15.015,-35.1
15.031,-35.24
15.046,-34.47
15.062,-33.26
15.078,-32.15
15.093,-31.54
15.109,-31.69
15.125,-32.66
15.140,-34.34
15.156,-36.52
15.171,-38.8
15.187,-40.56
15.203,-40.96
15.218,-39.1
15.234,-34.29
15.250,-26.33
15.265,-15.69
15.281,-3.37
15.296,9.36
15.312,21.36
15.328,31.95
15.343,40.83
15.359,48.11
15.375,53.92
15.390,58.32
15.406,61.19
15.421,62.39
15.437,61.88
15.453,59.84
15.468,56.69
15.484,52.89
15.500,48.92
15.515,45.11
15.531,41.64
15.546,38.52
15.562,35.63
15.578,32.8
15.593,29.8
15.609,26.49
15.625,22.72
15.640,18.47
15.656,13.74
15.671,8.65
15.687,3.46
15.703,-1.55
15.718,-6.04
15.734,-9.79
15.750,-12.68
15.765,-14.82
15.781,-16.45
15.796,-17.9
15.812,-19.44
15.828,-21.13
15.843,-22.95
15.859,-24.8
15.875,-26.76
15.890,-28.98
15.906,-31.75
15.921,-35.24
15.937,-39.42
15.953,-43.9
15.968,-47.91
15.984,-50.53
16.000,-50.88
16.015,-48.43
16.031,-43.07
16.046,-35.17
16.062,-25.36
16.078,-14.38
16.093,-2.92
16.109,8.49
16.125,19.33
16.140,29.19
16.156,37.63
16.171,44.28
16.187,48.96
16.203,51.69
16.218,52.8
16.234,52.79
16.250,52.22
16.265,51.54
16.281,51.06
16.296,50.82
16.312,50.79
16.328,50.84
16.343,50.86
16.359,50.78
16.375,50.49
16.390,49.88
16.406,48.8
16.421,47.19
16.437,45.04
16.453,42.42
16.468,39.33
16.484,35.8
16.500,31.73
16.515,27.05
16.531,21.79
16.546,15.99
16.562,9.82
16.578,3.36
16.593,-3.32
16.609,-10.21
16.625,-17.18
16.640,-24.02
16.656,-30.55
16.671,-36.66
16.687,-42.36
16.703,-47.68
16.718,-52.55
16.734,-56.64
16.750,-59.35
16.765,-60.01
16.781,-58.14
16.796,-53.63
16.812,-46.84
16.828,-38.39
16.843,-29.05
16.859,-19.55
16.875,-10.52
16.890,-2.44
16.906,4.32
16.921,9.5
16.937,13.02
16.953,15.03
16.968,15.85
16.984,15.94
17.000,15.74
17.015,15.59
17.031,15.65
17.046,15.88
17.062,16.12
17.078,16.23
17.093,16.18
17.109,15.99
17.125,15.77
17.140,15.54
17.156,15.29
17.171,14.89
17.187,14.2
17.203,13.1
17.218,11.5
17.234,9.24
17.250,6.26
17.265,2.57
17.281,-1.64
17.296,-5.97
17.312,-9.96
17.328,-13.2
17.343,-15.48
17.359,-16.9
17.375,-17.72
17.390,-18.31
17.406,-18.89
17.421,-19.64
17.437,-20.61
17.453,-21.96
17.468,-23.87
17.484,-26.46
17.500,-29.65
17.515,-32.97
17.531,-35.63
17.546,-36.65
17.562,-35.3
17.578,-31.29
17.593,-25.0
17.609,-17.22
17.625,-8.87
17.640,-0.73
17.656,6.75
17.671,13.37
17.687,19.04
17.703,23.65
17.718,27.13
17.734,29.35
17.750,30.42
17.765,30.59
17.781,30.23
17.796,29.68
17.812,29.17
17.828,28.8
17.843,28.51
17.859,28.21
17.875,27.79
17.890,27.14
17.906,26.24
17.921,25.14
17.937,23.89
17.953,22.54
17.968,21.02
17.984,19.22
18.000,17.0
18.015,14.35
18.031,11.39
18.046,8.31
18.062,5.33
18.078,2.53
18.093,-0.17
18.109,-2.99
18.125,-6.21
18.140,-9.98
18.156,-14.31
18.171,-19.12
18.187,-24.3
18.203,-29.69
18.218,-35.13
18.234,-40.4
18.250,-45.24
18.265,-49.41
18.281,-52.68
18.296,-54.87
18.312,-55.78
18.328,-55.19
18.343,-52.85
18.359,-48.58
18.375,-42.41
18.390,-34.7
18.406,-26.07
18.421,-17.21
18.437,-8.72
18.453,-0.94
18.468,6.0
18.484,12.11
18.500,17.38
18.515,21.74
18.531,25.15
18.546,27.54
18.562,29.0
18.578,29.69
18.593,29.72
18.609,29.25
18.625,28.4
18.640,27.24
18.656,25.89
18.671,24.48
18.687,23.09
18.703,21.78
18.718,20.56
18.734,19.39
18.750,18.29
18.765,17.24
18.781,16.25
18.796,15.21
18.812,14.03
18.828,12.59
18.843,10.8
18.859,8.69
18.875,6.27
18.890,3.59
18.906,0.64
18.921,-2.6
18.937,-6.14
18.953,-9.9
18.968,-13.71
18.984,-17.41
19.000,-20.81
19.015,-23.89
19.031,-26.72
19.046,-29.51
19.062,-32.5
19.078,-35.86
19.093,-39.51
19.109,-43.09
19.125,-45.98
19.140,-47.46
19.156,-46.96
19.171,-44.26
19.187,-39.55
19.203,-33.38
19.218,-26.4
19.234,-19.23
19.250,-12.26
19.265,-5.74
19.281,0.23
19.296,5.56
19.312,10.14
19.328,13.94
19.343,16.91
19.359,19.1
19.375,20.56
19.390,21.37
19.406,21.59
19.421,21.3
19.437,20.59
19.453,19.6
19.468,18.52
19.484,17.57
19.500,16.93
19.515,16.77
19.531,17.06
19.546,17.65
19.562,18.14
19.578,18.1
19.593,17.15
19.609,15.13
19.625,12.18
19.640,8.64
19.656,4.93
19.671,1.28
19.687,-2.26
19.703,-5.81
19.718,-9.48
19.734,-13.29
19.750,-17.17
19.765,-21.0
19.781,-24.71
19.796,-28.36
19.812,-32.05
19.828,-35.87
19.843,-39.82
19.859,-43.85
19.875,-47.92
19.890,-52.06
19.906,-56.23
19.921,-60.15
19.937,-63.33
19.953,-64.94
19.968,-64.24
19.984,-60.73
20.000,-54.43
20.015,-45.85
20.031,-35.83
20.046,-25.25
20.062,-14.82
20.078,-5.0
20.093,3.9
20.109,11.6
20.125,17.82
20.140,22.29
20.156,24.89
20.171,25.72
20.187,25.12
20.203,23.62
20.218,21.8
20.234,20.12
20.250,18.82
20.265,17.94
20.281,17.45
20.296,17.3
20.312,17.59
20.328,18.39
20.343,19.66
20.359,21.06
20.375,22.03
20.390,21.9
20.406,20.14
20.421,16.66
20.437,11.79
20.453,6.16
20.468,0.36
20.484,-5.21
20.500,-10.46
20.515,-15.5
20.531,-20.43
20.546,-25.25
20.562,-29.78
20.578,-33.78
20.593,-37.08
20.609,-39.68
20.625,-41.76
20.640,-43.62
20.656,-45.64
20.671,-48.19
20.687,-51.49
20.703,-55.63
20.718,-60.41
20.734,-65.25
20.750,-69.25
20.765,-71.33
20.781,-70.5
20.796,-66.12
20.812,-58.14
20.828,-46.95
20.843,-33.36
20.859,-18.37
20.875,-2.92
20.890,12.13
20.906,26.07
20.921,38.35
20.937,48.65
20.953,56.79
20.968,62.89
20.984,67.24
21.000,70.2
21.015,72.15
21.031,73.39
21.046,74.15
21.062,74.61
21.078,74.92
21.093,75.23
21.109,75.63
21.125,76.08
21.140,76.42
21.156,76.4
21.171,75.8
21.187,74.51
21.203,72.59
21.218,70.2
21.234,67.57
21.250,64.86
21.265,62.17
21.281,59.57
21.296,57.12
21.312,54.88
21.328,52.95
21.343,51.35
21.359,49.98
21.375,48.69
21.390,47.32
21.406,45.79
21.421,44.07
21.437,42.25
21.453,40.39
21.468,38.52
21.484,36.61
21.500,34.6
21.515,32.39
21.531,29.92
21.546,27.23
21.562,24.43
21.578,21.64
21.593,19.0
21.609,16.56
21.625,14.32
21.640,12.22
21.656,10.16
21.671,8.09
21.687,5.95
21.703,3.76
21.718,1.53
21.734,-0.72
21.750,-2.99
21.765,-5.27
21.781,-7.5
21.796,-9.58
21.812,-11.34
21.828,-12.63
21.843,-13.29
21.859,-13.36
21.875,-13.01
21.890,-12.55
21.906,-12.34
21.921,-12.69
21.937,-13.83
21.953,-15.89
21.968,-18.86
21.984,-22.59
22.000,-26.78
22.015,-31.01
22.031,-34.81
22.046,-37.88
22.062,-40.09
22.078,-41.63
22.093,-42.89
22.109,-44.32
22.125,-46.22
22.140,-48.72
22.156,-51.71
22.171,-54.99
22.187,-58.31
22.203,-61.41
22.218,-64.19
22.234,-66.68
22.250,-69.09
22.265,-71.77
22.281,-75.13
22.296,-79.35
22.312,-84.17
22.328,-88.79
22.343,-91.94
22.359,-92.2
22.375,-88.48
22.390,-80.37
22.406,-68.32
22.421,-53.45
22.437,-37.23
22.453,-21.02
22.468,-5.89
22.484,7.49
22.500,18.73
22.515,27.58
22.531,33.9
22.546,37.75
22.562,39.35
22.578,39.19
22.593,37.91
22.609,36.16
22.625,34.56
22.640,33.47
22.656,32.99
22.671,32.94
22.687,32.96
22.703,32.69
22.718,31.97
22.734,30.89
22.750,29.69
22.765,28.65
22.781,27.71
22.796,26.51
22.812,24.39
22.828,20.73
22.843,15.25
22.859,8.14
22.875,-0.06
22.890,-8.76
22.906,-17.49
22.921,-26.09
22.937,-34.58
22.953,-43.05
22.968,-51.55
22.984,-60.08
23.000,-68.63
23.015,-77.09
23.031,-85.19
23.046,-92.25
23.062,-97.27
23.078,-99.02
23.093,-96.53
23.109,-89.43
23.125,-78.06
23.140,-63.46
23.156,-46.91
23.171,-29.61
23.187,-12.46
23.203,3.91
23.218,18.99
23.234,32.26
23.250,43.21
23.265,51.5
23.281,57.06
23.296,60.22
23.312,61.55
23.328,61.69
23.343,61.12
23.359,60.06
23.375,58.56
23.390,56.58
23.406,54.21
23.421,51.69
23.437,49.38
23.453,47.6
23.468,46.46
23.484,45.77
23.500,45.06
23.515,43.7
23.531,41.04
23.546,36.67
23.562,30.49
23.578,22.79
23.593,14.12
23.609,5.1
23.625,-3.75
23.640,-12.23
23.656,-20.5
23.671,-29.05
23.687,-38.42
23.703,-48.99
23.718,-60.64
23.734,-72.56
23.750,-83.3
23.765,-91.04
23.781,-94.17
23.796,-91.73
23.812,-83.73
23.828,-71.12
23.843,-55.42
23.859,-38.26
23.875,-21.01
23.890,-4.66
23.906,10.24
23.921,23.32
23.937,34.36
23.953,43.25
23.968,50.0
23.984,54.77
24.000,57.81
24.015,59.47
24.031,60.01
24.046,59.75
24.062,58.91
24.078,57.66
24.093,56.06
24.109,54.12
24.125,51.83
24.140,49.22
24.156,46.36
24.171,43.39
24.187,40.41
24.203,37.31
24.218,33.89
24.234,29.74
24.250,24.5
24.265,17.99
24.281,10.29
24.296,1.76
24.312,-7.06
24.328,-15.68
24.343,-23.86
24.359,-31.63
24.375,-39.34
24.390,-47.51
24.406,-56.63
24.421,-67.07
24.437,-78.82
24.453,-91.4
24.468,-103.75
24.484,-114.36
24.500,-121.4
24.515,-123.23
24.531,-118.79
24.546,-107.89
24.562,-91.29
24.578,-70.43
24.593,-47.12
24.609,-23.04
24.625,0.37
24.640,22.18
24.656,41.68
24.671,58.4
24.687,71.98
24.703,82.15
24.718,88.91
24.734,92.55
24.750,93.71
24.765,93.14
24.781,91.6
24.796,89.63
24.812,87.48
24.828,85.28
24.843,83.03
24.859,80.84
24.875,78.9
24.890,77.36
24.906,76.2
24.921,75.32
24.937,74.41
24.953,73.13
24.968,71.23
24.984,68.5
25.000,64.8
25.015,59.91
25.031,53.63
25.046,45.72
25.062,36.17
25.078,25.16
25.093,13.1
25.109,0.52
25.125,-12.15
25.140,-24.69
25.156,-37.11
25.171,-49.54
25.187,-62.11
25.203,-74.84
25.218,-87.58
25.234,-99.91
25.250,-111.06
25.265,-119.89
25.281,-125.02
25.296,-125.07
25.312,-119.14
25.328,-107.15
25.343,-89.93
25.359,-69.05
25.375,-46.28
25.390,-23.16
25.406,-0.79
25.421,20.26
25.437,39.65
25.453,57.12
25.468,72.34
25.484,85.02
25.500,94.97
25.515,102.19
25.531,107.06
25.546,110.04
25.562,111.67
25.578,112.29
25.593,112.01
25.609,110.75
25.625,108.46
25.640,105.21
25.656,101.29
25.671,97.12
25.687,93.06
25.703,89.22
25.718,85.38
25.734,81.15
25.750,76.13
25.765,70.1
25.781,63.09
25.796,55.34
25.812,47.1
25.828,38.49
25.843,29.46
25.859,19.81
25.875,9.34
25.890,-1.97
25.906,-13.89
25.921,-25.92
25.937,-37.46
25.953,-47.98
25.968,-57.22
25.984,-65.26
26.000,-72.52
26.015,-79.55
26.031,-86.94
26.046,-95.01
26.062,-103.67
26.078,-112.24
26.093,-119.43
26.109,-123.57
26.125,-123.08
26.140,-116.97
26.156,-105.08
26.171,-88.22
26.187,-67.76
26.203,-45.31
26.218,-22.28
26.234,0.3
26.250,21.68
26.265,41.3
26.281,58.65
26.296,73.32
26.312,85.02
26.328,93.73
26.343,99.7
26.359,103.39
26.375,105.29
26.390,105.86
26.406,105.44
26.421,104.28
26.437,102.56
26.453,100.47
26.468,98.22
26.484,96.05
26.500,94.14
26.515,92.47
26.531,90.86
26.546,88.95
26.562,86.35
26.578,82.75
26.593,77.98
26.609,72.09
26.625,65.33
26.640,58.1
26.656,50.89
26.671,44.07
26.687,37.77
26.703,31.74
26.718,25.45
26.734,18.32
26.750,9.97
26.765,0.47
26.781,-9.73
26.796,-19.96
26.812,-29.73
26.828,-38.89
26.843,-47.72
26.859,-56.73
26.875,-66.46
26.890,-77.25
26.906,-89.05
26.921,-101.43
26.937,-113.45
26.953,-123.81
26.968,-130.94
26.984,-133.41
27.000,-130.27
27.015,-121.46
27.031,-107.77
27.046,-90.63
27.062,-71.67
27.078,-52.28
27.093,-33.38
27.109,-15.36
27.125,1.51
27.140,16.96
27.156,30.52
27.171,41.61
27.187,49.87
27.203,55.21
27.218,57.95
27.234,58.71
27.250,58.21
27.265,57.06
27.281,55.69
27.296,54.37
27.312,53.26
27.328,52.46
27.343,52.04
27.359,51.98
27.375,52.15
27.390,52.38
27.406,52.44
27.421,52.15
27.437,51.34
27.453,49.89
27.468,47.64
27.484,44.53
27.500,40.54
27.515,35.76
27.531,30.38
27.546,24.62
27.562,18.64
27.578,12.51
27.593,6.13
27.609,-0.6
27.625,-7.67
27.640,-14.92
27.656,-22.03
27.671,-28.67
27.687,-34.53
27.703,-39.61
27.718,-44.12
27.734,-48.5
27.750,-53.31
27.765,-58.95
27.781,-65.69
27.796,-73.57
27.812,-82.29
27.828,-91.22
27.843,-99.25
27.859,-104.9
27.875,-106.54
27.890,-102.8
27.906,-93.09
27.921,-77.77
27.937,-58.16
27.953,-36.05
27.968,-13.31
27.984,8.61
28.000,28.76
28.015,46.62
28.031,61.93
28.046,74.45
28.062,83.9
28.078,90.16
28.093,93.33
28.109,93.79
28.125,92.19
28.140,89.31
28.156,85.84
28.171,82.31
28.187,78.99
28.203,75.93
28.218,73.06
28.234,70.26
28.250,67.44
28.265,64.56
28.281,61.61
28.296,58.55
28.312,55.28
28.328,51.73
28.343,47.85
28.359,43.66
28.375,39.2
28.390,34.54
28.406,29.71
28.421,24.73
28.437,19.53
28.453,14.08
28.468,8.46
28.484,2.8
28.500,-2.7
28.515,-8.03
28.531,-13.27
28.546,-18.67
28.562,-24.55
28.578,-31.05
28.593,-38.14
28.609,-45.52
28.625,-52.82
28.640,-59.69
28.656,-66.01
28.671,-71.91
28.687,-77.74
28.703,-84.05
28.718,-91.29
28.734,-99.71
28.750,-109.08
28.765,-118.59
28.781,-126.85
28.796,-132.1
28.812,-132.73
28.828,-127.71
28.843,-116.94
28.859,-101.23
28.875,-82.09
28.890,-61.28
28.906,-40.4
28.921,-20.64
28.937,-2.71
28.953,13.04
28.968,26.38
28.984,37.24
29.000,45.57
29.015,51.44
29.031,55.06
29.046,56.87
29.062,57.44
29.078,57.33
29.093,57.01
29.109,56.69
29.125,56.41
29.140,56.14
29.156,55.88
29.171,55.72
29.187,55.76
29.203,56.01
29.218,56.25
29.234,56.13
29.250,55.21
29.265,53.2
29.281,50.1
29.296,46.16
29.312,41.75
29.328,37.15
29.343,32.43
29.359,27.45
29.375,22.02
29.390,16.04
29.406,9.61
29.421,3.06
29.437,-3.27
29.453,-9.11
29.468,-14.46
29.484,-19.57
29.500,-24.72
29.515,-30.11
29.531,-35.73
29.546,-41.29
29.562,-46.37
29.578,-50.57
29.593,-53.61
29.609,-55.44
29.625,-56.29
29.640,-56.63
29.656,-57.1
29.671,-58.49
29.687,-61.3
29.703,-65.7
29.718,-71.14
29.734,-76.49
29.750,-80.3
29.765,-81.27
29.781,-78.73
29.796,-72.88
29.812,-64.55
29.828,-54.81
29.843,-44.49
29.859,-33.95
29.875,-23.11
29.890,-11.73
29.906,0.1
29.921,11.87
29.937,22.71
29.953,31.81
29.968,39.08
29.984,45.32
30.000,52.14
30.015,61.24
30.031,73.61
30.046,88.83
30.062,104.95
30.078,119.11
30.093,128.38
30.109,130.84
30.125,126.07
30.140,115.1
30.156,99.96
30.171,82.97
30.187,66.34
30.203,51.62
30.218,39.24
30.234,28.15
30.250,15.85
30.265,-0.84
30.281,-24.51
30.296,-55.77
30.312,-92.39
30.328,-129.53
30.343,-161.38
30.359,-183.36
30.375,-194.02
30.390,-195.34
30.406,-191.54
30.421,-187.1
30.437,-185.08
30.453,-186.38
30.468,-190.12
30.484,-194.63
30.500,-198.4
30.515,-200.53
30.531,-200.59
30.546,-198.36
30.562,-193.59
30.578,-185.8
30.593,-174.48
30.609,-159.2
30.625,-139.83
30.640,-116.66
30.656,-90.53
30.671,-62.79
30.687,-35.07
30.703,-8.88
30.718,14.87
30.734,35.89
30.750,54.37
30.765,70.49
30.781,84.28
30.796,95.54
30.812,103.98
30.828,109.5
30.843,112.39
30.859,113.41
30.875,113.49
30.890,113.47
30.906,113.72
30.921,114.17
30.937,114.32
30.953,113.65
30.968,111.86
30.984,109.17
31.000,106.12
31.015,103.24
31.031,100.77
31.046,98.49
31.062,95.84
31.078,92.17
31.093,87.2
31.109,80.98
31.125,73.95
31.140,66.66
31.156,59.44
31.171,52.3
31.187,45.01
31.203,37.3
31.218,29.02
31.234,20.32
31.250,11.56
31.265,3.18
31.281,-4.53
31.296,-11.49
31.312,-18.0
31.328,-24.56
31.343,-31.73
31.359,-39.92
31.375,-49.13
31.390,-58.74
31.406,-67.54
31.421,-73.87
31.437,-76.12
31.453,-73.1
31.468,-64.59
31.484,-51.36
31.500,-34.99
31.515,-17.32
31.531,0.04
31.546,16.09
31.562,30.47
31.578,43.23
31.593,54.51
31.609,64.31
31.625,72.39
31.640,78.48
31.656,82.4
31.671,84.21
31.687,84.23
31.703,82.95
31.718,80.87
31.734,78.4
31.750,75.86
31.765,73.38
31.781,71.05
31.796,68.91
31.812,67.0
31.828,65.31
31.843,63.73
31.859,61.96
31.875,59.6
31.890,56.33
31.906,51.92
31.921,46.49
31.937,40.36
31.953,33.97
31.968,27.73
31.984,21.8
32.000,16.08
32.015,10.28
32.031,4.12
32.046,-2.55
32.062,-9.64
32.078,-16.84
32.093,-23.8
32.109,-30.21
32.125,-36.03
32.140,-41.48
32.156,-46.99
32.171,-53.1
32.187,-60.15
32.203,-68.16
32.218,-76.6
32.234,-84.4
32.250,-90.01
32.265,-91.8
32.281,-88.52
32.296,-79.67
32.312,-65.84
32.328,-48.48
32.343,-29.55
32.359,-10.96
32.375,5.99
32.390,20.67
32.406,33.0
32.421,43.16
32.437,51.34
32.453,57.56
32.468,61.84
32.484,64.32
32.500,65.28
32.515,65.17
32.531,64.36
32.546,63.1
32.562,61.46
32.578,59.5
32.593,57.29
32.609,55.01
32.625,52.91
32.640,51.12
32.656,49.63
32.671,48.19
32.687,46.45
32.703,44.06
32.718,40.78
32.734,36.59
32.750,31.6
32.765,25.98
32.781,19.86
32.796,13.32
32.812,6.39
32.828,-0.83
32.843,-8.14
32.859,-15.28
32.875,-22.01
32.890,-28.17
32.906,-33.79
32.921,-39.06
32.937,-44.23
32.953,-49.62
32.968,-55.5
32.984,-61.95
33.000,-68.69
33.015,-74.96
33.031,-79.6
33.046,-81.18
33.062,-78.55
33.078,-71.14
33.093,-59.23
33.109,-44.0
33.125,-27.04
33.140,-10.0
33.156,5.92
33.171,20.07
33.187,32.3
33.203,42.7
33.218,51.43
33.234,58.55
33.250,64.06
33.265,68.0
33.281,70.41
33.296,71.54
33.312,71.69
33.328,71.27
33.343,70.7
33.359,70.36
33.375,70.51
33.390,71.21
33.406,72.39
33.421,73.84
33.437,75.31
33.453,76.58
33.468,77.44
33.484,77.75
33.500,77.46
33.515,76.61
33.531,75.32
33.546,73.87
33.562,72.53
33.578,71.62
33.593,71.33
33.609,71.74
33.625,72.8
33.640,74.38
33.656,76.36
33.671,78.6
33.687,81.03
33.703,83.57
33.718,86.16
33.734,88.82
33.750,91.67
33.765,94.94
33.781,98.88
33.796,103.64
33.812,109.18
33.828,115.21
33.843,121.33
33.859,127.18
33.875,132.6
33.890,137.6
33.906,142.28
33.921,146.6
33.937,150.27
33.953,152.66
33.968,152.74
33.984,149.27
34.000,140.9
34.015,126.49
34.031,105.48
34.046,78.17
34.062,45.89
34.078,10.71
34.093,-24.97
34.109,-59.12
34.125,-90.57
34.140,-119.15
34.156,-145.6
34.171,-171.13
34.187,-197.01
34.203,-224.02
34.218,-252.14
34.234,-280.31
34.250,-306.53
34.265,-328.41
34.281,-343.72
34.296,-351.07
34.312,-350.36
34.328,-342.63
34.343,-329.71
34.359,-313.65
34.375,-296.26
34.390,-278.89
34.406,-262.45
34.421,-247.58
34.437,-234.69
34.453,-224.04
34.468,-215.62
34.484,-208.97
34.500,-203.17
34.515,-196.82
34.531,-188.26
34.546,-175.97
34.562,-159.01
34.578,-137.39
34.593,-112.11
34.609,-84.88
34.625,-57.65
34.640,-32.08
34.656,-9.27
34.671,10.29
34.687,26.52
34.703,39.56
34.718,49.52
34.734,56.52
34.750,60.86
34.765,63.01
34.781,63.74
34.796,63.87
34.812,64.12
34.828,64.79
34.843,65.85
34.859,66.96
34.875,67.67
34.890,67.78
34.906,67.35
34.921,66.64
34.937,65.96
34.953,65.4
34.968,64.76
34.984,63.64
35.000,61.6
35.015,58.32
35.031,53.74
35.046,48.11
35.062,41.92
35.078,35.71
35.093,29.89
35.109,24.58
35.125,19.55
35.140,14.36
35.156,8.55
35.171,1.78
35.187,-5.92
35.203,-14.12
35.218,-22.05
35.234,-28.77
35.250,-33.28
35.265,-34.77
35.281,-32.79
35.296,-27.4
35.312,-19.08
35.328,-8.73
35.343,2.5
35.359,13.57
35.375,23.56
35.390,31.89
35.406,38.29
35.421,42.68
35.437,45.13
35.453,45.88
35.468,45.14
35.484,43.22
35.500,40.52
35.515,37.51
35.531,34.65
35.546,32.29
35.562,30.53
35.578,29.25
35.593,28.19
35.609,27.02
35.625,25.61
35.640,23.99
35.656,22.35
35.671,20.8
35.687,19.26
35.703,17.48
35.718,15.07
35.734,11.73
35.750,7.33
35.765,2.09
35.781,-3.6
35.796,-9.28
35.812,-14.61
35.828,-19.45
35.843,-23.84
35.859,-28.11
35.875,-32.64
35.890,-37.86
35.906,-43.95
35.921,-50.77
35.937,-57.72
35.953,-63.75
35.968,-67.63
35.984,-68.16
36.000,-64.63
36.015,-56.99
36.031,-45.94
36.046,-32.68
36.062,-18.67
36.078,-5.31
36.093,6.43
36.109,16.06
36.125,23.54
36.140,29.11
36.156,33.09
36.171,35.66
36.187,36.91
36.203,36.91
36.218,35.76
36.234,33.83
36.250,31.58
36.265,29.52
36.281,27.97
36.296,27.0
36.312,26.43
36.328,25.91
36.343,25.19
36.359,24.16
36.375,22.83
36.390,21.32
36.406,19.65
36.421,17.83
36.437,15.65
36.453,12.9
36.468,9.32
36.484,4.82
36.500,-0.52
36.515,-6.37
36.531,-12.32
36.546,-18.0
36.562,-23.12
36.578,-27.68
36.593,-31.84
36.609,-35.86
36.625,-40.07
36.640,-44.67
36.656,-49.85
36.671,-55.64
36.687,-61.83
36.703,-67.79
36.718,-72.49
36.734,-74.6
36.750,-72.97
36.765,-67.03
36.781,-57.06
36.796,-44.15
36.812,-29.87
36.828,-15.74
36.843,-2.85
36.859,8.3
36.875,17.64
36.890,25.32
36.906,31.45
36.921,36.03
36.937,39.1
36.953,40.81
36.968,41.43
36.984,41.35
37.000,40.93
37.015,40.35
37.031,39.66
37.046,38.74
37.062,37.54
37.078,36.05
37.093,34.38
37.109,32.67
37.125,30.97
37.140,29.23
37.156,27.29
37.171,24.99
37.187,22.22
37.203,19.0
37.218,15.4
37.234,11.51
37.250,7.39
37.265,3.04
37.281,-1.46
37.296,-6.06
37.312,-10.61
37.328,-15.02
37.343,-19.2
37.359,-23.2
37.375,-27.17
37.390,-31.34
37.406,-35.9
37.421,-40.99
37.437,-46.7
37.453,-52.94
37.468,-59.42
37.484,-65.59
37.500,-70.57
37.515,-73.26
37.531,-72.65
37.546,-68.07
37.562,-59.54
37.578,-47.81
37.593,-34.14
37.609,-19.93
37.625,-6.37
37.640,5.85
37.656,16.51
37.671,25.69
37.687,33.52
37.703,40.09
37.718,45.38
37.734,49.35
37.750,52.02
37.765,53.53
37.781,54.08
37.796,53.95
37.812,53.43
37.828,52.78
37.843,52.21
37.859,51.83
37.875,51.72
37.890,51.89
37.906,52.25
37.921,52.63
37.937,52.71
37.953,52.14
37.968,50.63
37.984,48.16
38.000,45.04
38.015,41.84
38.031,39.16
38.046,37.34
38.062,36.35
38.078,35.77
38.093,35.03
38.109,33.74
38.125,31.93
38.140,30.04
38.156,28.73
38.171,28.48
38.187,29.45
38.203,31.3
38.218,33.35
38.234,34.84
38.250,35.28
38.265,34.63
38.281,33.38
38.296,32.5
38.312,33.26
38.328,37.03
38.343,45.02
38.359,57.95
38.375,75.77
38.390,97.51
38.406,121.53
38.421,145.95
38.437,169.33
38.453,191.11
38.468,211.56
38.484,231.22
38.500,250.08
38.515,266.78
38.531,278.47
38.546,281.65
38.562,273.27
38.578,252.14
38.593,219.59
38.609,179.17
38.625,135.69
38.640,93.91
38.656,57.39
38.671,27.9
38.687,5.55
38.703,-10.86
38.718,-23.25
38.734,-33.75
38.750,-44.35
38.765,-56.59
38.781,-71.37
38.796,-88.64
38.812,-107.39
38.828,-125.73
38.843,-141.39
38.859,-152.42
38.875,-157.8
38.890,-157.75
38.906,-153.43
38.921,-146.44
38.937,-138.07
38.953,-128.81
38.968,-118.37
38.984,-106.08
39.000,-91.56
39.015,-75.13
39.031,-57.94
39.046,-41.7
39.062,-28.26
39.078,-19.26
39.093,-15.88
39.109,-18.67
39.125,-27.46
39.140,-41.33
39.156,-58.75
39.171,-77.92
39.187,-97.28
39.203,-115.85
39.218,-133.3
39.234,-149.69
39.250,-165.04
39.265,-178.93
39.281,-190.47
39.296,-198.61
39.312,-202.45
39.328,-201.58
39.343,-195.93
39.359,-185.64
39.375,-170.85
39.390,-151.89
39.406,-129.37
39.421,-104.49
39.437,-78.96
39.453,-54.52
39.468,-32.52
39.484,-13.57
39.500,2.44
39.515,16.09
39.531,28.08
39.546,39.02
39.562,49.36
39.578,59.39
39.593,69.23
39.609,78.65
39.625,87.0
39.640,93.23
39.656,96.23
39.671,95.28
39.687,90.44
39.703,82.53
39.718,73.01
39.734,63.49
39.750,55.37
39.765,49.74
39.781,47.19
39.796,47.68
39.812,50.27
39.828,52.98
39.843,53.16
39.859,48.09
39.875,36.0
39.890,16.77
39.906,-8.0
39.921,-35.42
39.937,-62.26
39.953,-85.61
39.968,-103.35
39.984,-114.06
40.000,-117.0
40.015,-112.17
40.031,-100.52
40.046,-84.07
40.062,-65.58
40.078,-48.0
40.093,-33.59
40.109,-23.38
40.125,-16.92
40.140,-12.55
40.156,-8.0
40.171,-1.12
40.187,9.41
40.203,23.65
40.218,40.2
40.234,56.57
40.250,69.79
40.265,77.38
40.281,78.07
40.296,72.22
40.312,61.67
40.328,49.19
40.343,37.84
40.359,30.33
40.375,28.44
40.390,32.55
40.406,41.45
40.421,52.51
40.437,62.26
40.453,67.42
40.468,65.83
40.484,57.11
40.500,42.66
40.515,25.23
40.531,8.08
40.546,-5.8
40.562,-14.45
40.578,-17.4
40.593,-15.82
40.609,-12.3
40.625,-10.15
40.640,-12.37
40.656,-20.72
40.671,-35.12
40.687,-53.8
40.703,-73.85
40.718,-92.14
40.734,-106.12
40.750,-114.48
40.765,-117.35
40.781,-116.24
40.796,-113.56
40.812,-111.98
40.828,-113.56
40.843,-119.14
40.859,-128.01
40.875,-137.98
40.890,-146.07
40.906,-149.25
40.921,-145.31
40.937,-133.35
40.953,-114.13
40.968,-89.88
40.984,-63.69
41.000,-38.8
41.015,-17.77
41.031,-1.98
41.046,8.5
41.062,14.61
41.078,17.89
41.093,20.07
41.109,22.71
41.125,27.01
41.140,33.51
41.156,41.95
41.171,51.26
41.187,59.8
41.203,65.96
41.218,68.66
41.234,67.71
41.250,63.81
41.265,58.29
41.281,52.67
41.296,48.43
41.312,46.77
41.328,48.24
41.343,52.58
41.359,58.48
41.375,63.85
41.390,66.36
41.406,64.23
41.421,56.79
41.437,44.74
41.453,29.92
41.468,14.7
41.484,1.41
41.500,-8.18
41.515,-13.15
41.531,-13.58
41.546,-10.67
41.562,-6.46
41.578,-3.34
41.593,-3.28
41.609,-7.36
41.625,-15.5
41.640,-26.73
41.656,-39.64
41.671,-52.8
41.687,-64.95
41.703,-75.1
41.718,-82.6
41.734,-87.41
41.750,-90.3
41.765,-92.65
41.781,-95.95
41.796,-101.09
41.812,-107.8
41.828,-114.68
41.843,-119.8
41.859,-121.42
41.875,-118.62
41.890,-111.37
41.906,-100.17
41.921,-85.75
41.937,-68.99
41.953,-50.97
41.968,-33.23
41.984,-17.64
42.000,-5.99
42.015,0.59
42.031,2.07
42.046,-0.37
42.062,-4.77
42.078,-9.03
42.093,-11.48
42.109,-11.37
42.125,-8.77
42.140,-4.3
42.156,1.27
42.171,7.38
42.187,13.82
42.203,20.64
42.218,27.84
42.234,35.13
42.250,41.7
42.265,46.38
42.281,47.91
42.296,45.5
42.312,39.18
42.328,29.87
42.343,19.14
42.359,8.71
42.375,-0.15
42.390,-6.84
42.406,-11.46
42.421,-14.53
42.437,-16.63
42.453,-18.18
42.468,-19.49
42.484,-20.8
42.500,-22.38
42.515,-24.47
42.531,-27.18
42.546,-30.51
42.562,-34.3
42.578,-38.41
42.593,-42.81
42.609,-47.62
42.625,-53.02
42.640,-59.0
42.656,-65.12
42.671,-70.37
42.687,-73.36
42.703,-72.65
42.718,-67.2
42.734,-56.84
42.750,-42.31
42.765,-25.16
42.781,-7.25
42.796,9.81
42.812,24.95
42.828,37.81
42.843,48.48
42.859,57.29
42.875,64.46
42.890,70.07
42.906,74.08
42.921,76.49
42.937,77.49
42.953,77.52
42.968,77.2
42.984,77.1
43.000,77.58
43.015,78.67
43.031,80.18
43.046,81.81
43.062,83.25
43.078,84.39
43.093,85.21
43.109,85.77
43.125,86.0
43.140,85.74
43.156,84.77
43.171,82.97
43.187,80.42
43.203,77.38
43.218,74.19
43.234,71.07
43.250,68.08
43.265,65.11
43.281,62.0
43.296,58.66
43.312,55.05
43.328,51.23
43.343,47.2
43.359,42.95
43.375,38.43
43.390,33.63
43.406,28.64
43.421,23.63
43.437,18.77
43.453,14.13
43.468,9.66
43.484,5.11
43.500,0.12
43.515,-5.7
43.531,-12.69
43.546,-20.85
43.562,-29.73
43.578,-38.38
43.593,-45.47
43.609,-49.68
43.625,-50.07
43.640,-46.41
43.656,-39.27
43.671,-29.79
43.687,-19.3
43.703,-8.88
43.718,0.79
43.734,9.53
43.750,17.51
43.765,24.88
43.781,31.67
43.796,37.8
43.812,43.03
43.828,47.18
43.843,50.26
43.859,52.38
43.875,53.74
43.890,54.58
43.906,55.06
43.921,55.33
43.937,55.58
43.953,55.92
43.968,56.47
43.984,57.17
44.000,57.8
44.015,58.05
44.031,57.56
44.046,56.05
44.062,53.42
44.078,49.78
44.093,45.31
44.109,40.28
44.125,34.92
44.140,29.43
44.156,23.98
44.171,18.74
44.187,13.83
44.203,9.37
44.218,5.3
44.234,1.47
44.250,-2.32
44.265,-6.35
44.281,-10.84
44.296,-15.85
44.312,-21.32
44.328,-26.97
44.343,-32.49
44.359,-37.53
44.375,-41.89
44.390,-45.52
44.406,-48.58
44.421,-51.44
44.437,-54.6
44.453,-58.48
44.468,-63.2
44.484,-68.37
44.500,-73.07
44.515,-75.98
44.531,-75.81
44.546,-71.68
44.562,-63.44
44.578,-51.76
44.593,-37.91
44.609,-23.33
44.625,-9.33
44.640,3.16
44.656,13.7
44.671,22.12
44.687,28.47
44.703,32.96
44.718,35.83
44.734,37.39
44.750,38.02
44.765,38.1
44.781,37.94
44.796,37.74
44.812,37.53
44.828,37.21
44.843,36.63
44.859,35.75
44.875,34.59
44.890,33.32
44.906,32.04
44.921,30.78
44.937,29.43
44.953,27.76
44.968,25.53
44.984,22.6
45.000,18.95
45.015,14.77
45.031,10.34
45.046,5.94
45.062,1.9
45.078,-1.56
45.093,-4.37
45.109,-6.64
45.125,-8.67
45.140,-10.89
45.156,-13.57
45.171,-16.82
45.187,-20.49
45.203,-24.25
45.218,-27.8
45.234,-30.93
45.250,-33.68
45.265,-36.21
45.281,-38.78
45.296,-41.59
45.312,-44.82
45.328,-48.43
45.343,-52.15
45.359,-55.38
45.375,-57.24
45.390,-56.72
45.406,-53.0
45.421,-45.78
45.437,-35.42
45.453,-22.92
45.468,-9.56
45.484,3.4
45.500,15.03
45.515,24.87
45.531,32.83
45.546,39.06
45.562,43.71
45.578,46.91
45.593,48.74
45.609,49.34
45.625,48.97
45.640,48.02
45.656,46.97
45.671,46.22
45.687,45.95
45.703,46.07
45.718,46.32
45.734,46.37
45.750,46.03
45.765,45.26
45.781,44.13
45.796,42.71
45.812,40.98
45.828,38.74
45.843,35.79
45.859,32.05
45.875,27.59
45.890,22.72
45.906,17.89
45.921,13.51
45.937,9.81
45.953,6.73
45.968,3.98
45.984,1.1
46.000,-2.22
46.015,-6.12
46.031,-10.39
46.046,-14.67
46.062,-18.61
46.078,-22.05
46.093,-25.12
46.109,-28.17
46.125,-31.66
46.140,-35.86
46.156,-40.78
46.171,-46.1
46.187,-51.15
46.203,-55.1
46.218,-57.03
46.234,-56.22
46.250,-52.32
46.265,-45.42
46.281,-36.04
46.296,-25.1
46.312,-13.57
46.328,-2.34
46.343,7.97
46.359,17.04
46.375,24.73
46.390,31.05
46.406,36.05
46.421,39.78
46.437,42.31
46.453,43.82
46.468,44.55
46.484,44.78
46.500,44.79
46.515,44.69
46.531,44.47
46.546,44.01
46.562,43.2
46.578,42.0
46.593,40.51
46.609,38.86
46.625,37.14
46.640,35.31
46.656,33.19
46.671,30.5
46.687,27.05
46.703,22.8
46.718,17.88
46.734,12.69
46.750,7.6
46.765,2.98
46.781,-1.0
46.796,-4.37
46.812,-7.36
46.828,-10.33
46.843,-13.56
46.859,-17.23
46.875,-21.27
46.890,-25.53
46.906,-29.72
46.921,-33.6
46.937,-37.04
46.953,-40.1
46.968,-43.02
46.984,-46.2
47.000,-50.03
47.015,-54.78
47.031,-60.34
47.046,-66.1
47.062,-71.09
47.078,-74.1
47.093,-74.09
47.109,-70.52
47.125,-63.49
47.140,-53.72
47.156,-42.34
47.171,-30.52
47.187,-19.17
47.203,-8.88
47.218,0.07
47.234,7.62
47.250,13.73
47.265,18.33
47.281,21.4
47.296,22.92
47.312,23.1
47.328,22.24
47.343,20.84
47.359,19.32
47.375,18.05
47.390,17.2
47.406,16.77
47.421,16.69
47.437,16.86
47.453,17.2
47.468,17.6
47.484,18.02
47.500,18.36
47.515,18.57
47.531,18.57
47.546,18.26
47.562,17.65
47.578,16.75
47.593,15.67
47.609,14.48
47.625,13.28
47.640,12.11
47.656,10.93
47.671,9.59
47.687,7.88
47.703,5.67
47.718,2.88
47.734,-0.4
47.750,-4.02
47.765,-7.77
47.781,-11.43
47.796,-14.82
47.812,-17.81
47.828,-20.38
47.843,-22.55
47.859,-24.48
47.875,-26.34
47.890,-28.34
47.906,-30.64
47.921,-33.19
47.937,-35.61
47.953,-37.19
47.968,-37.02
47.984,-34.24
48.000,-28.37
48.015,-19.54
48.031,-8.44
48.046,3.81
48.062,16.1
48.078,27.56
48.093,37.76
48.109,46.68
48.125,54.5
48.140,61.46
48.156,67.69
48.171,73.22
48.187,78.03
48.203,82.15
48.218,85.68
48.234,88.8
48.250,91.7
48.265,94.54
48.281,97.41
48.296,100.37
48.312,103.43
48.328,106.63
48.343,109.99
48.359,113.49
48.375,116.96
48.390,120.2
48.406,122.95
48.421,125.05
48.437,126.51
48.453,127.55
48.468,128.48
48.484,129.53
48.500,130.58
48.515,131.04
48.531,129.89
48.546,125.9
48.562,118.08
48.578,106.04
48.593,90.2
48.609,71.83
48.625,52.68
48.640,34.58
48.656,18.93
48.671,6.49
48.687,-2.77
48.703,-9.55
48.718,-14.8
48.734,-19.57
48.750,-24.48
48.765,-29.64
48.781,-34.63
48.796,-38.76
48.812,-41.45
48.828,-42.43
48.843,-41.91
48.859,-40.35
48.875,-38.42
48.890,-36.5
48.906,-34.72
48.921,-33.0
48.937,-31.21
48.953,-29.37
48.968,-27.7
48.984,-26.68
49.000,-26.93
49.015,-29.19
49.031,-34.09
49.046,-42.13
49.062,-53.5
49.078,-67.86
49.093,-84.31
49.109,-101.36
49.125,-117.17
49.140,-129.98
49.156,-138.51
49.171,-142.3
49.187,-141.8
49.203,-138.16
49.218,-132.77
49.234,-126.93
49.250,-121.57
49.265,-117.11
49.281,-113.59
49.296,-110.78
49.312,-108.38
49.328,-106.13
49.343,-103.85
49.359,-101.37
49.375,-98.59
49.390,-95.47
49.406,-92.01
49.421,-88.31
49.437,-84.55
49.453,-80.97
49.468,-77.82
49.484,-75.24
49.500,-73.38
49.515,-72.28
49.531,-71.96
49.546,-72.32
49.562,-73.05
49.578,-73.63
49.593,-73.24
49.609,-71.04
49.625,-66.28
49.640,-58.67
49.656,-48.38
49.671,-36.13
49.687,-22.9
49.703,-9.69
49.718,2.66
49.734,13.65
49.750,23.03
49.765,30.74
49.781,36.85
49.796,41.43
49.812,44.66
49.828,46.69
49.843,47.79
49.859,48.2
49.875,48.25
49.890,48.13
49.906,47.95
49.921,47.72
49.937,47.34
49.953,46.77
49.968,46.04
49.984,45.28
50.000,44.66
50.015,44.29
50.031,44.05
50.046,43.7
50.062,42.92
50.078,41.43
50.093,39.16
50.109,36.17
50.125,32.66
50.140,28.77
50.156,24.61
50.171,20.18
50.187,15.5
50.203,10.61
50.218,5.56
50.234,0.52
50.250,-4.41
50.265,-9.08
50.281,-13.44
50.296,-17.49
50.312,-21.41
50.328,-25.42
50.343,-29.75
50.359,-34.48
50.375,-39.32
50.390,-43.7
50.406,-46.74
50.421,-47.55
50.437,-45.44
50.453,-40.11
50.468,-31.75
50.484,-20.97
50.500,-8.64
50.515,4.37
50.531,17.25
50.546,29.43
50.562,40.6
50.578,50.6
50.593,59.47
50.609,67.31
50.625,74.27
50.640,80.48
50.656,86.05
50.671,90.97
50.687,95.22
50.703,98.82
50.718,101.88
50.734,104.62
50.750,107.35
50.765,110.31
50.781,113.54
50.796,116.87
50.812,119.88
50.828,122.09
50.843,123.05
50.859,122.39
50.875,119.9
50.890,115.47
50.906,109.13
50.921,101.0
50.937,91.28
50.953,80.22
50.968,68.09
50.984,55.05
51.000,41.17
51.015,26.48
51.031,10.98
51.046,-5.33
51.062,-22.34
51.078,-39.86
51.093,-57.62
51.109,-75.35
51.125,-92.82
51.140,-109.94
51.156,-126.78
51.171,-143.35
51.187,-159.5
51.203,-174.62
51.218,-187.63
51.234,-197.16
51.250,-201.98
51.265,-201.35
51.281,-195.26
51.296,-184.47
51.312,-170.17
51.328,-153.71
51.343,-136.26
51.359,-118.69
51.375,-101.6
51.390,-85.42
51.406,-70.51
51.421,-57.12
51.437,-45.38
51.453,-35.31
51.468,-26.77
51.484,-19.52
51.500,-13.22
51.515,-7.53
51.531,-2.12
51.546,3.23
51.562,8.52
51.578,13.64
51.593,18.31
51.609,22.26
51.625,25.35
51.640,27.52
51.656,28.8
51.671,29.26
51.687,28.97
51.703,27.99
51.718,26.38
51.734,24.26
51.750,21.7
51.765,18.71
51.781,15.2
51.796,11.08
51.812,6.32
51.828,1.16
51.843,-4.08
51.859,-9.03
51.875,-13.38
51.890,-17.11
51.906,-20.45
51.921,-23.81
51.937,-27.58
51.953,-32.03
51.968,-37.17
51.984,-42.65
52.000,-47.87
52.015,-51.94
52.031,-53.95
52.046,-53.1
52.062,-48.98
52.078,-41.63
52.093,-31.63
52.109,-19.9
52.125,-7.52
52.140,4.54
52.156,15.58
52.171,25.12
52.187,33.02
52.203,39.31
52.218,44.08
52.234,47.45
52.250,49.56
52.265,50.53
52.281,50.58
52.296,49.91
52.312,48.78
52.328,47.42
52.343,46.04
52.359,44.71
52.375,43.49
52.390,42.38
52.406,41.35
52.421,40.4
52.437,39.46
52.453,38.42
52.468,37.06
52.484,35.13
52.500,32.43
52.515,28.91
52.531,24.67
52.546,19.92
52.562,14.95
52.578,10.02
52.593,5.35
52.609,1.02
52.625,-3.06
52.640,-7.0
52.656,-10.98
52.671,-15.04
52.687,-19.17
52.703,-23.26
52.718,-27.2
52.734,-30.99
52.750,-34.79
52.765,-38.88
52.781,-43.53
52.796,-48.9
52.812,-54.85
52.828,-60.87
52.843,-66.11
52.859,-69.57
52.875,-70.26
52.890,-67.58
52.906,-61.45
52.921,-52.31
52.937,-41.04
52.953,-28.7
52.968,-16.27
52.984,-4.47
53.000,6.23
53.015,15.63
53.031,23.73
53.046,30.52
53.062,36.08
53.078,40.4
53.093,43.53
53.109,45.53
53.125,46.59
53.140,46.97
53.156,46.99
53.171,46.9
53.187,46.77
53.203,46.56
53.218,46.08
53.234,45.28
53.250,44.2
53.265,43.01
53.281,41.91
53.296,40.98
53.312,40.11
53.328,39.03
53.343,37.5
53.359,35.32
53.375,32.46
53.390,28.99
53.406,25.06
53.421,20.85
53.437,16.52
53.453,12.2
53.468,7.95
53.484,3.78
53.500,-0.42
53.515,-4.77
53.531,-9.36
53.546,-14.12
53.562,-18.82
53.578,-23.2
53.593,-27.03
53.609,-30.31
53.625,-33.24
53.640,-36.25
53.656,-39.73
53.671,-43.97
53.687,-48.97
53.703,-54.4
53.718,-59.57
53.734,-63.52
53.750,-65.27
53.765,-63.97
53.781,-59.2
53.796,-51.12
53.812,-40.39
53.828,-28.06
53.843,-15.29
53.859,-3.08
53.875,7.98
53.890,17.59
53.906,25.74
53.921,32.55
53.937,38.11
53.953,42.51
53.968,45.83
53.984,48.22
54.000,49.85
54.015,50.9
54.031,51.47
54.046,51.63
54.062,51.34
54.078,50.63
54.093,49.54
54.109,48.22
54.125,46.81
54.140,45.42
54.156,44.07
54.171,42.65
54.187,41.0
54.203,38.94
54.218,36.34
54.234,33.22
54.250,29.68
54.265,25.87
54.281,22.05
54.296,18.36
54.312,14.89
54.328,11.57
54.343,8.26
54.359,4.73
54.375,0.93
54.390,-3.11
54.406,-7.22
54.421,-11.12
54.437,-14.61
54.453,-17.61
54.468,-20.26
54.484,-22.87
54.500,-25.81
54.515,-29.37
54.531,-33.69
54.546,-38.59
54.562,-43.55
54.578,-47.76
54.593,-50.18
54.609,-49.92
54.625,-46.46
54.640,-39.8
54.656,-30.52
54.671,-19.64
54.687,-8.21
54.703,2.86
54.718,12.99
54.734,21.98
54.750,29.78
54.765,36.25
54.781,41.24
54.796,44.58
54.812,46.22
54.828,46.36
54.843,45.5
54.859,44.12
54.875,42.72
54.890,41.59
54.906,40.69
54.921,39.96
54.937,39.28
54.953,38.62
54.968,38.02
54.984,37.56
55.000,37.16
55.015,36.72
55.031,36.02
55.046,34.75
55.062,32.67
55.078,29.62
55.093,25.66
55.109,21.04
55.125,16.1
55.140,11.1
55.156,6.2
55.171,1.32
55.187,-3.74
55.203,-9.07
55.218,-14.62
55.234,-20.15
55.250,-25.35
55.265,-30.0
55.281,-34.21
55.296,-38.21
55.312,-42.38
55.328,-47.0
55.343,-52.09
55.359,-57.42
55.375,-62.56
55.390,-66.78
55.406,-69.36
55.421,-69.63
55.437,-67.16
55.453,-61.87
55.468,-54.1
55.484,-44.49
55.500,-33.87
55.515,-23.11
55.531,-12.83
55.546,-3.5
55.562,4.66
55.578,11.57
55.593,17.23
55.609,21.68
55.625,25.01
55.640,27.34
55.656,28.82
55.671,29.67
55.687,30.1
55.703,30.26
55.718,30.23
55.734,30.03
55.750,29.64
55.765,29.07
55.781,28.39
55.796,27.65
55.812,26.91
55.828,26.1
55.843,25.07
55.859,23.63
55.875,21.68
55.890,19.22
55.906,16.4
55.921,13.54
55.937,10.82
55.953,8.38
55.968,6.13
55.984,3.87
56.000,1.38
56.015,-1.44
56.031,-4.56
56.046,-7.79
56.062,-10.97
56.078,-14.05
56.093,-17.1
56.109,-20.29
56.125,-23.82
56.140,-27.8
56.156,-32.3
56.171,-37.27
56.187,-42.55
56.203,-47.73
56.218,-52.15
56.234,-54.99
56.250,-55.41
56.265,-52.92
56.281,-47.52
56.296,-39.76
56.312,-30.55
56.328,-20.82
56.343,-11.31
56.359,-2.42
56.375,5.68
56.390,12.93
56.406,19.18
56.421,24.26
56.437,27.99
56.453,30.37
56.468,31.57
56.484,31.92
56.500,31.77
56.515,31.42
56.531,31.04
56.546,30.64
56.562,30.2
56.578,29.69
56.593,29.19
56.609,28.78
56.625,28.49
56.640,28.23
56.656,27.77
56.671,26.83
56.687,25.2
56.703,22.84
56.718,19.92
56.734,16.69
56.750,13.41
56.765,10.22
56.781,7.01
56.796,3.62
56.812,-0.16
56.828,-4.34
56.843,-8.8
56.859,-13.25
56.875,-17.38
56.890,-20.98
56.906,-23.99
56.921,-26.59
56.937,-29.01
56.953,-31.49
56.968,-34.23
56.984,-37.28
57.000,-40.61
57.015,-44.02
57.031,-47.11
57.046,-49.32
57.062,-50.0
57.078,-48.61
57.093,-44.83
57.109,-38.79
57.125,-30.97
57.140,-22.11
57.156,-13.01
57.171,-4.36
57.187,3.4
57.203,9.99
57.218,15.23
57.234,19.12
57.250,21.71
57.265,23.22
57.281,24.03
57.296,24.67
57.312,25.68
57.328,27.45
57.343,30.03
57.359,33.13
57.375,36.29
57.390,38.99
57.406,40.99
57.421,42.24
57.437,42.88
57.453,43.04
57.468,42.78
57.484,42.05
57.500,40.85
57.515,39.32
57.531,37.64
57.546,36.02
57.562,34.45
57.578,32.7
57.593,30.34
57.609,26.98
57.625,22.46
57.640,16.89
57.656,10.66
57.671,4.2
57.687,-2.15
57.703,-8.2
57.718,-13.95
57.734,-19.55
57.750,-25.12
57.765,-30.75
57.781,-36.37
57.796,-41.73
57.812,-46.44
57.828,-49.92
57.843,-51.53
57.859,-50.75
57.875,-47.39
57.890,-41.64
57.906,-34.07
57.921,-25.54
57.937,-16.87
57.953,-8.69
57.968,-1.31
57.984,5.19
58.000,10.79
58.015,15.46
58.031,19.08
58.046,21.54
58.062,22.84
58.078,23.16
58.093,22.82
58.109,22.16
58.125,21.41
58.140,20.66
58.156,19.92
58.171,19.22
58.187,18.63
58.203,18.32
58.218,18.37
58.234,18.7
58.250,19.08
58.265,19.14
58.281,18.54
58.296,17.13
58.312,14.94
58.328,12.19
58.343,9.13
58.359,5.96
58.375,2.74
58.390,-0.58
58.406,-4.1
58.421,-7.89
58.437,-11.93
58.453,-16.04
58.468,-19.95
58.484,-23.43
58.500,-26.34
58.515,-28.83
58.531,-31.23
58.546,-33.93
58.562,-37.32
58.578,-41.46
58.593,-46.09
58.609,-50.57
58.625,-54.03
58.640,-55.58
58.656,-54.59
58.671,-50.84
58.687,-44.62
58.703,-36.68
58.718,-27.95
58.734,-19.26
58.750,-11.13
58.765,-3.82
58.781,2.7
58.796,8.46
58.812,13.47
58.828,17.72
58.843,21.17
58.859,23.87
58.875,25.92
58.890,27.47
58.906,28.58
58.921,29.26
58.937,29.4
58.953,29.0
58.968,28.16
58.984,27.09
59.000,26.03
59.015,25.16
59.031,24.5
59.046,23.9
59.062,23.16
59.078,22.0
59.093,20.31
59.109,18.07
59.125,15.39
59.140,12.43
59.156,9.32
59.171,6.14
59.187,2.93
59.203,-0.28
59.218,-3.54
59.234,-6.88
59.250,-10.32
59.265,-13.86
59.281,-17.44
59.296,-20.92
59.312,-24.25
59.328,-27.34
59.343,-30.25
59.359,-33.13
59.375,-36.21
59.390,-39.71
59.406,-43.69
59.421,-47.91
59.437,-51.81
59.453,-54.58
59.468,-55.35
59.484,-53.53
59.500,-48.92
59.515,-41.85
59.531,-33.05
59.546,-23.44
59.562,-13.84
59.578,-4.91
59.593,3.01
59.609,9.74
59.625,15.28
59.640,19.68
59.656,23.07
59.671,25.6
59.687,27.4
59.703,28.65
59.718,29.48
59.734,30.02
59.750,30.38
59.765,30.65
59.781,30.81
59.796,30.86
59.812,30.72
59.828,30.37
59.843,29.82
59.859,29.04
59.875,27.99
59.890,26.54
59.906,24.66
59.921,22.33
59.937,19.72
59.953,17.06
59.968,14.59
59.984,12.47
