timestamp,value
00.000,-41.04
00.015,-20.85
00.031,-4.96
00.046,6.56
00.062,13.95
00.078,17.57
00.093,17.89
00.109,15.76
00.125,12.38
00.140,9.21
00.156,7.53
00.171,7.96
00.187,10.26
00.203,13.46
00.218,16.29
00.234,17.71
00.250,17.3
00.265,15.28
00.281,12.22
00.296,8.67
00.312,4.85
00.328,0.61
00.343,-4.45
00.359,-10.78
00.375,-18.66
00.390,-28.11
00.406,-38.74
00.421,-49.67
00.437,-59.46
00.453,-66.36
00.468,-68.62
00.484,-65.06
00.500,-55.37
00.515,-40.27
00.531,-21.2
00.546,0.11
00.562,22.04
00.578,43.28
00.593,62.7
00.609,79.24
00.625,91.88
00.640,99.86
00.656,102.97
00.671,101.78
00.687,97.61
00.703,92.15
00.718,86.98
00.734,83.05
00.750,80.55
00.765,79.09
00.781,78.05
00.796,77.06
00.812,76.18
00.828,75.77
00.843,76.03
00.859,76.54
00.875,76.06
00.890,72.74
00.906,64.73
00.921,50.81
00.937,30.87
00.953,5.98
00.968,-21.72
00.984,-49.4
01.000,-73.88
01.015,-92.1
01.031,-101.66
01.046,-101.34
01.062,-91.58
01.078,-74.44
01.093,-53.14
01.109,-31.13
01.125,-11.19
01.140,5.17
01.156,17.68
01.171,26.8
01.187,33.05
01.203,36.62
01.218,37.39
01.234,35.31
01.250,30.79
01.265,24.84
01.281,18.83
01.296,13.95
01.312,10.73
01.328,8.82
01.343,7.32
01.359,5.27
01.375,2.09
01.390,-2.17
01.406,-7.12
01.421,-12.37
01.437,-17.89
01.453,-24.09
01.468,-31.66
01.484,-41.14
01.500,-52.72
01.515,-66.05
01.531,-80.23
01.546,-93.97
01.562,-105.72
01.578,-113.88
01.593,-117.01
01.609,-114.18
01.625,-105.14
01.640,-90.49
01.656,-71.51
01.671,-49.89
01.687,-27.43
01.703,-5.81
01.718,13.47
01.734,29.13
01.750,39.98
01.765,45.04
01.781,43.81
01.796,36.43
01.812,23.98
01.828,8.32
01.843,-8.34
01.859,-23.95
01.875,-37.21
01.890,-47.76
01.906,-56.04
01.921,-62.85
01.937,-68.87
01.953,-74.31
01.968,-78.96
01.984,-82.54
02.000,-84.97
02.015,-86.66
02.031,-88.41
02.046,-91.12
02.062,-95.45
02.078,-101.43
02.093,-108.22
02.109,-114.17
02.125,-117.05
02.140,-114.63
02.156,-105.3
02.171,-88.6
02.187,-65.27
02.203,-37.23
02.218,-6.98
02.234,22.89
02.250,50.08
02.265,72.88
02.281,90.18
02.296,101.38
02.312,106.35
02.328,105.42
02.343,99.35
02.359,89.39
02.375,77.23
02.390,64.73
02.406,53.68
02.421,45.29
02.437,39.9
02.453,36.93
02.468,35.21
02.484,33.5
02.500,30.97
02.515,27.49
02.531,23.37
02.546,18.99
02.562,14.41
02.578,9.11
02.593,2.24
02.609,-7.07
02.625,-19.3
02.640,-34.06
02.656,-50.02
02.671,-64.98
02.687,-76.29
02.703,-81.44
02.718,-78.71
02.734,-67.62
02.750,-49.04
02.765,-24.95
02.781,2.1
02.796,29.51
02.812,55.1
02.828,77.22
02.843,94.77
02.859,106.91
02.875,113.01
02.890,112.65
02.906,105.69
02.921,92.58
02.937,74.34
02.953,52.65
02.968,29.53
02.984,6.96
03.000,-13.43
03.015,-30.71
03.031,-44.55
03.046,-55.15
03.062,-62.9
03.078,-68.31
03.093,-71.86
03.109,-74.1
03.125,-75.63
03.140,-77.17
03.156,-79.43
03.171,-82.95
03.187,-87.91
03.203,-93.84
03.218,-99.53
03.234,-103.15
03.250,-102.69
03.265,-96.59
03.281,-84.3
03.296,-66.54
03.312,-45.12
03.328,-22.36
03.343,-0.41
03.359,19.23
03.375,35.85
03.390,49.27
03.406,59.54
03.421,66.69
03.437,70.81
03.453,72.14
03.468,71.18
03.484,68.53
03.500,64.81
03.515,60.4
03.531,55.44
03.546,49.97
03.562,44.04
03.578,37.93
03.593,32.02
03.609,26.57
03.625,21.49
03.640,16.35
03.656,10.52
03.671,3.38
03.687,-5.38
03.703,-15.89
03.718,-27.98
03.734,-41.25
03.750,-54.83
03.765,-67.38
03.781,-76.98
03.796,-81.58
03.812,-79.55
03.828,-70.24
03.843,-54.31
03.859,-33.45
03.875,-9.94
03.890,13.99
03.906,36.45
03.921,56.0
03.937,71.5
03.953,82.12
03.968,87.44
03.984,87.6
04.000,83.48
04.015,76.46
04.031,67.99
04.046,59.21
04.062,50.63
04.078,42.19
04.093,33.59
04.109,24.65
04.125,15.44
04.140,6.29
04.156,-2.52
04.171,-11.01
04.187,-19.49
04.203,-28.48
04.218,-38.38
04.234,-49.35
04.250,-61.2
04.265,-73.38
04.281,-85.04
04.296,-94.98
04.312,-101.64
04.328,-103.33
04.343,-98.57
04.359,-86.65
04.375,-67.99
04.390,-44.33
04.406,-18.3
04.421,7.12
04.437,29.41
04.453,46.97
04.468,59.18
04.484,66.27
04.500,68.84
04.515,67.68
04.531,63.63
04.546,57.6
04.562,50.56
04.578,43.52
04.593,37.37
04.609,32.68
04.625,29.7
04.640,28.22
04.656,27.77
04.671,27.83
04.687,27.91
04.703,27.7
04.718,27.17
04.734,26.57
04.750,26.25
04.765,26.51
04.781,27.31
04.796,28.13
04.812,28.11
04.828,26.4
04.843,22.68
04.859,17.56
04.875,12.55
04.890,9.66
04.906,10.69
04.921,16.56
04.937,26.96
04.953,40.48
04.968,55.06
04.984,68.58
05.000,79.3
05.015,86.08
05.031,88.45
05.046,86.55
05.062,81.02
05.078,72.92
05.093,63.56
05.109,54.17
05.125,45.55
05.140,37.83
05.156,30.48
05.171,22.59
05.187,13.36
05.203,2.49
05.218,-9.6
05.234,-21.9
05.250,-33.18
05.265,-42.49
05.281,-49.46
05.296,-54.54
05.312,-58.89
05.328,-64.13
05.343,-71.86
05.359,-83.2
05.375,-98.25
05.390,-115.88
05.406,-133.75
05.421,-148.87
05.437,-158.35
05.453,-160.17
05.468,-153.71
05.484,-139.84
05.500,-120.67
05.515,-98.9
05.531,-77.29
05.546,-58.12
05.562,-42.91
05.578,-32.38
05.593,-26.5
05.609,-24.65
05.625,-25.79
05.640,-28.6
05.656,-31.7
05.671,-33.86
05.687,-34.17
05.703,-32.31
05.718,-28.56
05.734,-23.63
05.750,-18.38
05.765,-13.45
05.781,-9.08
05.796,-5.12
05.812,-1.22
05.828,2.91
05.843,7.36
05.859,11.85
05.875,15.8
05.890,18.48
05.906,19.26
05.921,17.94
05.937,14.91
05.953,11.31
05.968,8.75
05.984,8.88
06.000,12.9
06.015,21.14
06.031,32.98
06.046,47.09
06.062,61.77
06.078,75.44
06.093,86.84
06.109,95.12
06.125,99.88
06.140,101.07
06.156,99.01
06.171,94.39
06.187,88.22
06.203,81.65
06.218,75.76
06.234,71.28
06.250,68.43
06.265,66.86
06.281,65.94
06.296,64.99
06.312,63.63
06.328,61.81
06.343,59.67
06.359,57.29
06.375,54.44
06.390,50.53
06.406,44.86
06.421,37.01
06.437,27.11
06.453,16.1
06.468,5.59
06.484,-2.47
06.500,-6.17
06.515,-4.12
06.531,4.22
06.546,18.39
06.562,36.96
06.578,57.69
06.593,78.0
06.609,95.48
06.625,108.38
06.640,116.09
06.656,119.0
06.671,118.28
06.687,115.21
06.703,110.63
06.718,104.61
06.734,96.54
06.750,85.58
06.765,71.09
06.781,53.17
06.796,32.58
06.812,10.64
06.828,-11.23
06.843,-31.76
06.859,-50.07
06.875,-65.56
06.890,-77.89
06.906,-86.91
06.921,-92.7
06.937,-95.73
06.953,-96.94
06.968,-97.73
06.984,-99.67
07.000,-104.12
07.015,-111.56
07.031,-121.19
07.046,-130.96
07.062,-138.05
07.078,-139.88
07.093,-135.15
07.109,-124.4
07.125,-109.93
07.140,-94.83
07.156,-81.88
07.171,-72.59
07.187,-66.96
07.203,-63.91
07.218,-62.05
07.234,-60.41
07.250,-58.65
07.265,-56.89
07.281,-55.27
07.296,-53.72
07.312,-51.96
07.328,-49.71
07.343,-47.01
07.359,-44.22
07.375,-41.84
07.390,-40.14
07.406,-38.91
07.421,-37.52
07.437,-35.16
07.453,-31.25
07.468,-25.82
07.484,-19.5
07.500,-13.43
07.515,-8.85
07.531,-6.67
07.546,-7.13
07.562,-9.64
07.578,-12.89
07.593,-15.05
07.609,-14.32
07.625,-9.34
07.640,0.31
07.656,14.08
07.671,30.65
07.687,48.31
07.703,65.42
07.718,80.78
07.734,93.6
07.750,103.45
07.765,110.14
07.781,113.59
07.796,114.01
07.812,111.95
07.828,108.41
07.843,104.53
07.859,101.39
07.875,99.67
07.890,99.48
07.906,100.39
07.921,101.61
07.937,102.27
07.953,101.66
07.968,99.33
07.984,95.14
08.000,89.26
08.015,82.02
08.031,73.76
08.046,64.82
08.062,55.3
08.078,45.17
08.093,34.33
08.109,22.82
08.125,11.0
08.140,-0.49
08.156,-10.82
08.171,-19.3
08.187,-25.55
08.203,-29.63
08.218,-31.94
08.234,-33.08
08.250,-33.6
08.265,-33.91
08.281,-34.28
08.296,-34.95
08.312,-36.2
08.328,-38.32
08.343,-41.6
08.359,-46.1
08.375,-51.64
08.390,-57.83
08.406,-64.21
08.421,-70.37
08.437,-76.11
08.453,-81.41
08.468,-86.3
08.484,-90.74
08.500,-94.45
08.515,-97.13
08.531,-98.53
08.546,-98.71
08.562,-98.15
08.578,-97.7
08.593,-98.34
08.609,-100.88
08.625,-105.6
08.640,-112.06
08.656,-119.11
08.671,-125.09
08.687,-128.24
08.703,-127.19
08.718,-121.26
08.734,-110.59
08.750,-96.12
08.765,-79.24
08.781,-61.52
08.796,-44.47
08.812,-29.25
08.828,-16.71
08.843,-7.2
08.859,-0.64
08.875,3.46
08.890,5.83
08.906,7.25
08.921,8.36
08.937,9.46
08.953,10.59
08.968,11.55
08.984,12.04
09.000,11.83
09.015,10.81
09.031,9.07
09.046,6.82
09.062,4.41
09.078,2.19
09.093,0.43
09.109,-0.77
09.125,-1.57
09.140,-2.36
09.156,-3.71
09.171,-6.17
09.187,-9.97
09.203,-14.84
09.218,-19.85
09.234,-23.59
09.250,-24.57
09.265,-21.69
09.281,-14.67
09.296,-4.19
09.312,8.38
09.328,21.41
09.343,33.45
09.359,43.52
09.375,51.09
09.390,55.9
09.406,57.83
09.421,56.88
09.437,53.31
09.453,47.77
09.468,41.27
09.484,34.94
09.500,29.69
09.515,25.96
09.531,23.7
09.546,22.53
09.562,22.07
09.578,22.09
09.593,22.55
09.609,23.42
09.625,24.51
09.640,25.41
09.656,25.62
09.671,24.69
09.687,22.5
09.703,19.22
09.718,15.44
09.734,11.99
09.750,9.92
09.765,10.26
09.781,13.82
09.796,20.94
09.812,31.27
09.828,43.86
09.843,57.22
09.859,69.77
09.875,80.15
09.890,87.56
09.906,91.78
09.921,93.0
09.937,91.62
09.953,87.98
09.968,82.29
09.984,74.68
10.000,65.29
10.015,54.43
10.031,42.55
10.046,30.2
10.062,17.82
10.078,5.73
10.093,-5.87
10.109,-16.86
10.125,-27.06
10.140,-36.34
10.156,-44.63
10.171,-52.07
10.187,-58.96
10.203,-65.67
10.218,-72.46
10.234,-79.33
10.250,-85.92
10.265,-91.48
10.281,-94.94
10.296,-95.16
10.312,-91.2
10.328,-82.55
10.343,-69.41
10.359,-52.66
10.375,-33.72
10.390,-14.21
10.406,4.39
10.421,20.88
10.437,34.52
10.453,45.0
10.468,52.41
10.484,57.14
10.500,59.84
10.515,61.24
10.531,62.0
10.546,62.51
10.562,62.87
10.578,62.97
10.593,62.68
10.609,62.1
10.625,61.61
10.640,61.97
10.656,63.98
10.671,68.18
10.687,74.6
10.703,82.51
10.718,90.48
10.734,96.76
10.750,99.72
10.765,98.57
10.781,93.74
10.796,86.9
10.812,80.66
10.828,77.81
10.843,80.44
10.859,89.35
10.875,103.87
10.890,122.08
10.906,141.5
10.921,159.76
10.937,175.13
10.953,186.69
10.968,194.25
10.984,198.04
11.000,198.38
11.015,195.58
11.031,189.84
11.046,181.46
11.062,170.93
11.078,158.98
11.093,146.54
11.109,134.6
11.125,123.88
11.140,114.63
11.156,106.46
11.171,98.28
11.187,88.51
11.203,75.5
11.218,58.08
11.234,36.09
11.250,10.55
11.265,-16.6
11.281,-42.99
11.296,-66.68
11.312,-86.56
11.328,-102.43
11.343,-114.63
11.359,-123.52
11.375,-129.21
11.390,-131.56
11.406,-130.58
11.421,-126.75
11.437,-121.03
11.453,-114.61
11.468,-108.45
11.484,-102.99
11.500,-98.33
11.515,-94.57
11.531,-92.23
11.546,-92.26
11.562,-95.7
11.578,-103.07
11.593,-113.94
11.609,-126.96
11.625,-140.21
11.640,-151.87
11.656,-160.71
11.671,-166.22
11.687,-168.52
11.703,-168.0
11.718,-165.12
11.734,-160.33
11.750,-153.96
11.765,-146.31
11.781,-137.57
11.796,-127.82
11.812,-117.19
11.828,-105.96
11.843,-94.74
11.859,-84.3
11.875,-75.38
11.890,-68.19
11.906,-62.28
11.921,-56.59
11.937,-49.92
11.953,-41.49
11.968,-31.25
11.984,-19.97
12.000,-8.84
12.015,1.05
12.031,9.14
12.046,15.44
12.062,20.29
12.078,24.05
12.093,26.85
12.109,28.59
12.125,29.14
12.140,28.65
12.156,27.68
12.171,27.04
12.187,27.51
12.203,29.37
12.218,32.23
12.234,35.08
12.250,36.64
12.265,35.85
12.281,32.28
12.296,26.17
12.312,18.27
12.328,9.44
12.343,0.33
12.359,-8.82
12.375,-18.05
12.390,-27.43
12.406,-36.78
12.421,-45.58
12.437,-53.01
12.453,-58.28
12.468,-60.79
12.484,-60.39
12.500,-57.32
12.515,-52.16
12.531,-45.63
12.546,-38.43
12.562,-31.27
12.578,-24.67
12.593,-19.08
12.609,-14.7
12.625,-11.46
12.640,-9.02
12.656,-6.82
12.671,-4.22
12.687,-0.74
12.703,3.77
12.718,9.1
12.734,14.73
12.750,20.09
12.765,24.76
12.781,28.63
12.796,31.97
12.812,35.2
12.828,38.76
12.843,42.83
12.859,47.3
12.875,51.78
12.890,55.72
12.906,58.64
12.921,60.27
12.937,60.76
12.953,60.63
12.968,60.81
12.984,62.41
13.000,66.54
13.015,73.98
13.031,84.98
13.046,99.15
13.062,115.55
13.078,132.89
13.093,149.91
13.109,165.59
13.125,179.19
13.140,190.13
13.156,197.71
13.171,201.06
13.187,199.31
13.203,191.9
13.218,178.94
13.234,161.18
13.250,139.85
13.265,116.17
13.281,91.08
13.296,65.19
13.312,39.06
13.328,13.45
13.343,-10.55
13.359,-31.72
13.375,-49.09
13.390,-62.21
13.406,-71.32
13.421,-77.05
13.437,-80.29
13.453,-81.92
13.468,-82.79
13.484,-83.63
13.500,-84.96
13.515,-86.92
13.531,-89.05
13.546,-90.37
13.562,-89.65
13.578,-85.87
13.593,-78.62
13.609,-68.27
13.625,-55.82
13.640,-42.55
13.656,-29.59
13.671,-17.66
13.687,-7.1
13.703,2.15
13.718,10.29
13.734,17.56
13.750,24.14
13.765,30.13
13.781,35.55
13.796,40.26
13.812,44.01
13.828,46.36
13.843,46.64
13.859,44.05
13.875,37.81
13.890,27.42
13.906,12.92
13.921,-4.92
13.937,-24.69
13.953,-44.59
13.968,-62.8
13.984,-77.94
14.000,-89.17
14.015,-96.17
14.031,-98.83
14.046,-97.14
14.062,-91.15
14.078,-81.24
14.093,-68.42
14.109,-54.37
14.125,-41.18
14.140,-30.83
14.156,-24.59
14.171,-22.71
14.187,-24.5
14.203,-28.75
14.218,-34.2
14.234,-39.95
14.250,-45.51
14.265,-50.63
14.281,-55.25
14.296,-59.31
14.312,-62.88
14.328,-66.13
14.343,-69.35
14.359,-72.78
14.375,-76.55
14.390,-80.52
14.406,-84.39
14.421,-87.85
14.437,-90.78
14.453,-93.32
14.468,-95.87
14.484,-98.95
14.500,-102.98
14.515,-107.93
14.531,-113.2
14.546,-117.58
14.562,-119.5
14.578,-117.4
14.593,-110.31
14.609,-98.14
14.625,-81.88
14.640,-63.25
14.656,-44.27
14.671,-26.75
14.687,-11.92
14.703,-0.36
14.718,7.94
14.734,13.37
14.750,16.57
14.765,18.34
14.781,19.49
14.796,20.66
14.812,22.25
14.828,24.23
14.843,26.25
14.859,27.8
14.875,28.48
14.890,28.19
14.906,27.26
14.921,26.36
14.937,26.32
14.953,27.77
14.968,30.97
14.984,35.48
15.000,40.3
15.015,44.0
15.031,45.17
15.046,42.94
15.062,37.33
15.078,29.47
15.093,21.38
15.109,15.49
15.125,13.9
15.140,17.79
15.156,26.89
15.171,39.56
15.187,53.14
15.203,64.72
15.218,71.98
15.234,73.81
15.250,70.51
15.265,63.59
15.281,55.09
15.296,46.96
15.312,40.55
15.328,36.32
15.343,33.86
15.359,32.19
15.375,29.97
15.390,25.88
15.406,19.04
15.421,9.28
15.437,-2.69
15.453,-15.43
15.468,-27.19
15.484,-36.59
15.500,-43.04
15.515,-47.05
15.531,-49.99
15.546,-53.5
15.562,-58.94
15.578,-66.89
15.593,-76.96
15.609,-87.87
15.625,-97.72
15.640,-104.39
15.656,-106.07
15.671,-101.76
15.687,-91.46
15.703,-76.27
15.718,-57.98
15.734,-38.61
15.750,-19.9
15.765,-3.14
15.781,10.75
15.796,21.11
15.812,27.52
15.828,29.9
15.843,28.84
15.859,25.74
15.875,22.58
15.890,21.44
15.906,23.79
15.921,30.1
15.937,39.66
15.953,51.02
15.968,62.39
15.984,72.35
16.000,80.04
16.015,85.39
16.031,88.82
16.046,91.09
16.062,92.86
16.078,94.5
16.093,95.93
16.109,96.7
16.125,96.19
16.140,93.96
16.156,90.13
16.171,85.56
16.187,81.76
16.203,80.54
16.218,83.47
16.234,91.22
16.250,103.2
16.265,117.54
16.281,131.58
16.296,142.62
16.312,148.61
16.328,148.71
16.343,143.2
16.359,133.26
16.375,120.42
16.390,106.2
16.406,91.91
16.421,78.69
16.437,67.58
16.453,59.51
16.468,55.26
16.484,55.37
16.500,59.94
16.515,68.26
16.531,78.55
16.546,87.86
16.562,92.54
16.578,89.18
16.593,75.67
16.609,51.83
16.625,19.44
16.640,-18.54
16.656,-58.98
16.671,-99.28
16.687,-137.56
16.703,-172.3
16.718,-202.0
16.734,-225.04
16.750,-240.09
16.765,-246.64
16.781,-245.42
16.796,-238.33
16.812,-227.87
16.828,-216.51
16.843,-206.0
16.859,-197.18
16.875,-189.98
16.890,-183.86
16.906,-178.23
16.921,-172.72
16.937,-167.3
16.953,-161.91
16.968,-156.48
16.984,-150.71
17.000,-144.37
17.015,-137.46
17.031,-130.35
17.046,-123.58
17.062,-117.52
17.078,-112.09
17.093,-106.66
17.109,-100.36
17.125,-92.48
17.140,-82.88
17.156,-71.99
17.171,-60.72
17.187,-50.1
17.203,-41.03
17.218,-34.22
17.234,-30.02
17.250,-28.5
17.265,-29.18
17.281,-30.95
17.296,-32.07
17.312,-30.42
17.328,-24.12
17.343,-12.0
17.359,5.93
17.375,28.44
17.390,53.33
17.406,77.98
17.421,99.94
17.437,117.35
17.453,129.26
17.468,135.56
17.484,136.94
17.500,134.47
17.515,129.41
17.531,122.85
17.546,115.66
17.562,108.45
17.578,101.53
17.593,95.07
17.609,89.12
17.625,83.74
17.640,79.1
17.656,75.65
17.671,74.05
17.687,74.93
17.703,78.54
17.718,84.41
17.734,91.2
17.750,96.83
17.765,98.87
17.781,95.21
17.796,84.79
17.812,68.29
17.828,48.33
17.843,28.97
17.859,14.53
17.875,7.88
17.890,9.08
17.906,15.07
17.921,20.65
17.937,20.58
17.953,11.67
17.968,-6.05
17.984,-29.62
18.000,-54.63
18.015,-76.87
18.031,-93.54
18.046,-103.47
18.062,-106.91
18.078,-105.16
18.093,-100.49
18.109,-95.98
18.125,-95.14
18.140,-100.78
18.156,-113.87
18.171,-132.75
18.187,-153.37
18.203,-170.54
18.218,-179.75
18.234,-178.63
18.250,-167.49
18.265,-148.87
18.281,-126.36
18.296,-103.52
18.312,-83.13
18.328,-66.95
18.343,-55.86
18.359,-49.94
18.375,-48.6
18.390,-50.6
18.406,-54.1
18.421,-56.95
18.437,-57.16
18.453,-53.42
18.468,-45.46
18.484,-34.06
18.500,-20.74
18.515,-7.21
18.531,5.02
18.546,15.05
18.562,22.47
18.578,27.27
18.593,29.59
18.609,29.65
18.625,27.71
18.640,24.19
18.656,19.77
18.671,15.26
18.687,11.5
18.703,9.12
18.718,8.42
18.734,9.28
18.750,11.27
18.765,13.8
18.781,16.31
18.796,18.42
18.812,19.95
18.828,20.86
18.843,21.22
18.859,21.05
18.875,20.29
18.890,18.77
18.906,16.33
18.921,12.98
18.937,9.06
18.953,5.3
18.968,2.81
18.984,2.72
19.000,5.84
19.015,12.32
19.031,21.55
19.046,32.36
19.062,43.33
19.078,53.24
19.093,61.23
19.109,66.85
19.125,69.92
19.140,70.4
19.156,68.34
19.171,64.03
19.187,58.05
19.203,51.36
19.218,45.05
19.234,40.1
19.250,37.12
19.265,36.28
19.281,37.29
19.296,39.6
19.312,42.44
19.328,44.95
19.343,46.31
19.359,45.87
19.375,43.41
19.390,39.18
19.406,33.8
19.421,27.94
19.437,22.01
19.453,15.99
19.468,9.58
19.484,2.6
19.500,-4.68
19.515,-11.39
19.531,-16.3
19.546,-18.31
19.562,-16.88
19.578,-12.26
19.593,-5.44
19.609,2.24
19.625,9.51
19.640,15.39
19.656,19.44
19.671,21.61
19.687,22.18
19.703,21.52
19.718,20.05
19.734,18.17
19.750,16.26
19.765,14.76
19.781,13.99
19.796,14.15
19.812,15.19
19.828,16.78
19.843,18.47
19.859,19.83
19.875,20.6
19.890,20.74
19.906,20.45
19.921,19.93
19.937,19.3
19.953,18.48
19.968,17.17
19.984,15.04
20.000,11.79
20.015,7.38
20.031,2.2
20.046,-2.9
20.062,-6.82
20.078,-8.48
20.093,-7.14
20.109,-2.8
20.125,3.9
20.140,11.79
20.156,19.66
20.171,26.52
20.187,31.88
20.203,35.66
20.218,38.05
20.234,39.25
20.250,39.4
20.265,38.59
20.281,37.0
20.296,34.9
20.312,32.63
20.328,30.48
20.343,28.61
20.359,26.99
20.375,25.46
20.390,23.83
20.406,22.01
20.421,20.01
20.437,17.92
20.453,15.86
20.468,13.82
20.484,11.72
20.500,9.43
20.515,6.77
20.531,3.58
20.546,-0.2
20.562,-4.6
20.578,-9.47
20.593,-14.43
20.609,-18.84
20.625,-21.89
20.640,-22.7
20.656,-20.65
20.671,-15.63
20.687,-8.05
20.703,1.19
20.718,10.95
20.734,20.17
20.750,28.06
20.765,34.12
20.781,38.14
20.796,40.08
20.812,40.11
20.828,38.54
20.843,35.88
20.859,32.74
20.875,29.71
20.890,27.21
20.906,25.47
20.921,24.51
20.937,24.23
20.953,24.48
20.968,25.09
20.984,25.81
21.000,26.39
21.015,26.48
21.031,25.8
21.046,24.18
21.062,21.55
21.078,17.92
21.093,13.42
21.109,8.24
21.125,2.73
21.140,-2.56
21.156,-6.96
21.171,-9.8
21.187,-10.55
21.203,-9.04
21.218,-5.46
21.234,-0.35
21.250,5.62
21.265,11.75
21.281,17.43
21.296,22.27
21.312,25.99
21.328,28.52
21.343,29.91
21.359,30.28
21.375,29.81
21.390,28.69
21.406,27.1
21.421,25.25
21.437,23.31
21.453,21.43
21.468,19.72
21.484,18.16
21.500,16.69
21.515,15.18
21.531,13.54
21.546,11.76
21.562,9.92
21.578,8.11
21.593,6.31
21.609,4.38
21.625,2.08
21.640,-0.82
21.656,-4.37
21.671,-8.31
21.687,-12.17
21.703,-15.3
21.718,-17.08
21.734,-17.07
21.750,-15.13
21.765,-11.37
21.781,-6.22
21.796,-0.24
21.812,6.01
21.828,12.01
21.843,17.41
21.859,21.97
21.875,25.56
21.890,28.1
21.906,29.52
21.921,29.82
21.937,29.09
21.953,27.59
21.968,25.67
21.984,23.71
22.000,22.01
22.015,20.72
22.031,19.77
22.046,18.98
22.062,18.13
22.078,17.08
22.093,15.79
22.109,14.33
22.125,12.79
22.140,11.21
22.156,9.47
22.171,7.43
22.187,4.89
22.203,1.75
22.218,-1.9
22.234,-5.77
22.250,-9.45
22.265,-12.49
22.281,-14.53
22.296,-15.34
22.312,-14.85
22.328,-13.17
22.343,-10.48
22.359,-7.11
22.375,-3.37
22.390,0.38
22.406,3.86
22.421,6.81
22.437,9.08
22.453,10.55
22.468,11.19
22.484,11.03
22.500,10.14
22.515,8.74
22.531,7.1
22.546,5.56
22.562,4.41
22.578,3.85
22.593,3.87
22.609,4.25
22.625,4.68
22.640,4.79
22.656,4.35
22.671,3.38
22.687,2.11
22.703,0.9
22.718,0.08
22.734,-0.27
22.750,-0.25
22.765,-0.14
22.781,-0.28
22.796,-0.77
22.812,-1.52
22.828,-2.23
22.843,-2.55
22.859,-2.26
22.875,-1.31
22.890,0.23
22.906,2.27
22.921,4.75
22.937,7.68
22.953,11.0
22.968,14.48
22.984,17.71
23.000,20.19
23.015,21.48
23.031,21.48
23.046,20.47
23.062,18.99
23.078,17.7
23.093,17.17
23.109,17.62
23.125,18.94
23.140,20.72
23.156,22.44
23.171,23.64
23.187,24.04
23.203,23.69
23.218,22.94
23.234,22.32
23.250,22.36
23.265,23.34
23.281,25.12
23.296,27.15
23.312,28.58
23.328,28.6
23.343,26.67
23.359,22.77
23.375,17.4
23.390,11.48
23.406,6.03
23.421,1.9
23.437,-0.5
23.453,-1.22
23.468,-0.67
23.484,0.53
23.500,1.79
23.515,2.61
23.531,2.67
23.546,1.88
23.562,0.35
23.578,-1.55
23.593,-3.21
23.609,-3.93
23.625,-3.11
23.640,-0.53
23.656,3.58
23.671,8.65
23.687,14.07
23.703,19.53
23.718,25.18
23.734,31.55
23.750,39.2
23.765,48.38
23.781,58.75
23.796,69.4
23.812,79.22
23.828,87.4
23.843,93.81
23.859,99.11
23.875,104.59
23.890,111.65
23.906,121.32
23.921,133.8
23.937,148.46
23.953,164.08
23.968,179.36
23.984,193.36
24.000,205.71
24.015,216.45
24.031,225.7
24.046,233.3
24.062,238.56
24.078,240.34
24.093,237.4
24.109,228.66
24.125,213.5
24.140,191.88
24.156,164.43
24.171,132.55
24.187,98.44
24.203,64.78
24.218,34.3
24.234,8.84
24.250,-11.44
24.265,-28.18
24.281,-44.12
24.296,-61.53
24.312,-80.74
24.328,-99.54
24.343,-113.9
24.359,-119.95
24.375,-115.96
24.390,-103.34
24.406,-86.04
24.421,-68.76
24.437,-54.81
24.453,-44.91
24.468,-37.34
24.484,-29.25
24.500,-18.22
24.515,-3.27
24.531,15.17
24.546,35.92
24.562,58.03
24.578,81.05
24.593,104.77
24.609,128.46
24.625,150.34
24.640,167.64
24.656,177.52
24.671,178.36
24.687,170.79
24.703,157.69
24.718,143.26
24.734,131.37
24.750,124.09
24.765,121.12
24.781,120.3
24.796,118.82
24.812,114.53
24.828,106.72
24.843,96.11
24.859,84.23
24.875,72.65
24.890,62.27
24.906,53.01
24.921,43.96
24.937,33.72
24.953,21.05
24.968,5.25
24.984,-13.67
25.000,-35.14
25.015,-58.52
25.031,-83.36
25.046,-109.74
25.062,-138.09
25.078,-169.0
25.093,-202.97
25.109,-240.43
25.125,-281.57
25.140,-326.06
25.156,-372.54
25.171,-418.21
25.187,-458.97
25.203,-490.31
25.218,-508.63
25.234,-512.54
25.250,-503.24
25.265,-483.94
25.281,-458.56
25.296,-430.45
25.312,-401.66
25.328,-373.05
25.343,-344.95
25.359,-317.62
25.375,-291.59
25.390,-267.5
25.406,-245.94
25.421,-227.19
25.437,-211.27
25.453,-197.85
25.468,-186.27
25.484,-175.48
25.500,-164.22
25.515,-151.37
25.531,-136.23
25.546,-118.93
25.562,-100.31
25.578,-81.72
25.593,-64.52
25.609,-49.66
25.625,-37.41
25.640,-27.44
25.656,-19.07
25.671,-11.49
25.687,-3.91
25.703,4.45
25.718,14.27
25.734,25.87
25.750,38.65
25.765,50.75
25.781,59.55
25.796,62.75
25.812,59.93
25.828,53.32
25.843,47.21
25.859,45.93
25.875,51.6
25.890,62.86
25.906,75.5
25.921,84.61
25.937,87.06
25.953,82.78
25.968,74.52
25.984,66.12
26.000,60.71
26.015,59.53
26.031,62.04
26.046,66.61
26.062,71.59
26.078,75.89
26.093,79.08
26.109,81.28
26.125,82.71
26.140,83.43
26.156,83.18
26.171,81.5
26.187,78.04
26.203,72.86
26.218,66.48
26.234,59.69
26.250,53.4
26.265,48.22
26.281,44.57
26.296,42.63
26.312,42.52
26.328,44.22
26.343,47.48
26.359,51.65
26.375,55.75
26.390,58.63
26.406,59.27
26.421,57.21
26.437,52.86
26.453,47.58
26.468,43.36
26.484,42.08
26.500,44.48
26.515,49.37
26.531,53.44
26.546,51.81
26.562,39.39
26.578,12.56
26.593,-29.57
26.609,-84.48
26.625,-146.5
26.640,-207.97
26.656,-260.88
26.671,-298.65
26.687,-317.5
26.703,-317.13
26.718,-300.44
26.734,-272.65
26.750,-239.88
26.765,-207.75
26.781,-180.25
26.796,-159.2
26.812,-144.23
26.828,-133.37
26.843,-124.02
26.859,-113.85
26.875,-101.69
26.890,-87.69
26.906,-72.97
26.921,-58.91
26.937,-46.47
26.953,-35.89
26.968,-26.87
26.984,-18.94
27.000,-11.9
27.015,-5.94
27.031,-1.49
27.046,1.07
27.062,1.71
27.078,0.81
27.093,-0.76
27.109,-1.91
27.125,-1.58
27.140,1.05
27.156,6.33
27.171,14.16
27.187,24.08
27.203,35.23
27.218,46.6
27.234,57.09
27.250,65.76
27.265,72.07
27.281,76.16
27.296,78.73
27.312,80.81
27.328,83.28
27.343,86.42
27.359,89.77
27.375,92.4
27.390,93.34
27.406,92.11
27.421,89.0
27.437,84.94
27.453,81.13
27.468,78.63
27.484,77.99
27.500,79.2
27.515,81.79
27.531,84.95
27.546,87.75
27.562,89.32
27.578,88.86
27.593,85.71
27.609,79.33
27.625,69.55
27.640,56.83
27.656,42.56
27.671,29.01
27.687,18.82
27.703,14.21
27.718,16.17
27.734,24.16
27.750,36.22
27.765,49.74
27.781,62.28
27.796,72.22
27.812,78.89
27.828,82.4
27.843,83.16
27.859,81.59
27.875,77.99
27.890,72.6
27.906,65.8
27.921,58.25
27.937,50.84
27.953,44.23
27.968,38.4
27.984,32.3
28.000,24.23
28.015,12.75
28.031,-2.29
28.046,-19.2
28.062,-35.1
28.078,-47.13
28.093,-54.04
28.109,-56.74
28.125,-57.76
28.140,-59.81
28.156,-64.22
28.171,-70.15
28.187,-74.98
28.203,-75.69
28.218,-70.25
28.234,-58.42
28.250,-41.79
28.265,-22.96
28.281,-4.64
28.296,11.15
28.312,23.4
28.328,32.05
28.343,37.58
28.359,40.58
28.375,41.44
28.390,40.41
28.406,37.88
28.421,34.53
28.437,31.24
28.453,28.65
28.468,26.63
28.484,24.23
28.500,20.09
28.515,13.23
28.531,3.72
28.546,-7.08
28.562,-17.17
28.578,-24.72
28.593,-28.81
28.609,-29.59
28.625,-27.93
28.640,-24.74
28.656,-20.67
28.671,-16.07
28.687,-11.17
28.703,-6.27
28.718,-1.68
28.734,2.42
28.750,6.04
28.765,9.19
28.781,11.7
28.796,13.01
28.812,12.31
28.828,8.95
28.843,2.76
28.859,-5.62
28.875,-14.86
28.890,-23.27
28.906,-29.31
28.921,-31.95
28.937,-30.92
28.953,-26.58
28.968,-19.76
28.984,-11.52
29.000,-2.95
29.015,5.05
29.031,11.8
29.046,16.96
29.062,20.5
29.078,22.68
29.093,23.87
29.109,24.45
29.125,24.7
29.140,24.7
29.156,24.42
29.171,23.73
29.187,22.45
29.203,20.43
29.218,17.6
29.234,14.12
29.250,10.4
29.265,7.2
29.281,5.37
29.296,5.64
29.312,8.32
29.328,13.08
29.343,19.04
29.359,25.02
29.375,29.81
29.390,32.48
29.406,32.54
29.421,30.03
29.437,25.38
29.453,19.29
29.468,12.53
29.484,5.83
29.500,-0.26
29.515,-5.37
29.531,-9.36
29.546,-12.28
29.562,-14.32
29.578,-15.81
29.593,-17.06
29.609,-18.34
29.625,-19.73
29.640,-21.07
29.656,-22.1
29.671,-22.52
29.687,-22.2
29.703,-21.23
29.718,-19.91
29.734,-18.57
29.750,-17.52
29.765,-16.9
29.781,-16.74
29.796,-17.03
29.812,-17.66
29.828,-18.47
29.843,-19.21
29.859,-19.51
29.875,-18.97
29.890,-17.24
29.906,-14.22
29.921,-10.11
29.937,-5.38
29.953,-0.64
29.968,3.52
29.984,6.73
30.000,8.85
30.015,10.03
30.031,10.5
30.046,10.52
30.062,10.2
30.078,9.65
30.093,8.93
30.109,8.18
30.125,7.64
30.140,7.52
30.156,8.02
30.171,9.19
30.187,10.95
30.203,13.13
30.218,15.45
30.234,17.64
30.250,19.41
30.265,20.67
30.281,21.54
30.296,22.4
30.312,23.71
30.328,25.76
30.343,28.38
30.359,30.76
30.375,31.77
30.390,30.3
30.406,25.92
30.421,19.21
30.437,11.59
30.453,4.9
30.468,0.69
30.484,-0.33
30.500,1.46
30.515,4.93
30.531,8.59
30.546,11.12
30.562,11.67
30.578,9.96
30.593,6.13
30.609,0.69
30.625,-5.68
30.640,-12.2
30.656,-18.12
30.671,-22.89
30.687,-26.26
30.703,-28.3
30.718,-29.34
30.734,-29.75
30.750,-29.87
30.765,-29.82
30.781,-29.64
30.796,-29.2
30.812,-28.44
30.828,-27.36
30.843,-26.06
30.859,-24.71
30.875,-23.44
30.890,-22.39
30.906,-21.54
30.921,-20.74
30.937,-19.68
30.953,-18.06
30.968,-15.64
30.984,-12.38
31.000,-8.46
31.015,-4.21
31.031,-0.08
31.046,3.57
31.062,6.48
31.078,8.59
31.093,9.98
31.109,10.88
31.125,11.58
31.140,12.36
31.156,13.42
31.171,14.86
31.187,16.64
31.203,18.52
31.218,20.16
31.234,21.18
31.250,21.33
31.265,20.58
31.281,19.09
31.296,17.21
31.312,15.32
31.328,13.74
31.343,12.57
31.359,11.76
31.375,11.11
31.390,10.47
31.406,9.7
31.421,8.79
31.437,7.82
31.453,6.93
31.468,6.37
31.484,6.41
31.500,7.37
31.515,9.44
31.531,12.67
31.546,16.89
31.562,21.73
31.578,26.71
31.593,31.28
31.609,35.0
31.625,37.51
31.640,38.63
31.656,38.35
31.671,36.83
31.687,34.46
31.703,31.8
31.718,29.46
31.734,27.84
31.750,27.06
31.765,26.73
31.781,26.13
31.796,24.43
31.812,20.92
31.828,15.39
31.843,8.11
31.859,-0.19
31.875,-8.65
31.890,-16.45
31.906,-23.1
31.921,-28.46
31.937,-32.7
31.953,-36.23
31.968,-39.51
31.984,-42.9
32.000,-46.58
32.015,-50.45
32.031,-54.17
32.046,-57.15
32.062,-58.81
32.078,-58.62
32.093,-56.36
32.109,-52.08
32.125,-46.09
32.140,-38.88
32.156,-30.93
32.171,-22.75
32.187,-14.69
32.203,-7.09
32.218,-0.19
32.234,5.7
32.250,10.35
32.265,13.56
32.281,15.28
32.296,15.7
32.312,15.28
32.328,14.69
32.343,14.68
32.359,15.81
32.375,18.24
32.390,21.62
32.406,25.08
32.421,27.49
32.437,27.8
32.453,25.37
32.468,20.21
32.484,13.05
32.500,5.05
32.515,-2.52
32.531,-8.73
32.546,-13.2
32.562,-16.15
32.578,-18.15
32.593,-19.75
32.609,-21.22
32.625,-22.38
32.640,-22.77
32.656,-21.85
32.671,-19.3
32.687,-15.16
32.703,-9.83
32.718,-3.87
32.734,2.13
32.750,7.7
32.765,12.56
32.781,16.65
32.796,20.0
32.812,22.74
32.828,24.95
32.843,26.68
32.859,27.87
32.875,28.34
32.890,27.8
32.906,26.01
32.921,22.94
32.937,18.9
32.953,14.59
32.968,10.9
32.984,8.59
33.000,8.01
33.015,8.93
33.031,10.63
33.046,12.24
33.062,13.05
33.078,12.71
33.093,11.29
33.109,9.13
33.125,6.59
33.140,3.97
33.156,1.45
33.171,-0.84
33.187,-2.67
33.203,-3.78
33.218,-3.93
33.234,-2.96
33.250,-0.94
33.265,1.83
33.281,4.87
33.296,7.71
33.312,10.02
33.328,11.68
33.343,12.75
33.359,13.41
33.375,13.77
33.390,13.85
33.406,13.5
33.421,12.51
33.437,10.58
33.453,7.4
33.468,2.73
33.484,-3.56
33.500,-11.32
33.515,-20.08
33.531,-29.04
33.546,-37.26
33.562,-43.77
33.578,-47.89
33.593,-49.33
33.609,-48.19
33.625,-44.94
33.640,-40.21
33.656,-34.7
33.671,-29.09
33.687,-23.91
33.703,-19.59
33.718,-16.35
33.734,-14.28
33.750,-13.32
33.765,-13.26
33.781,-13.85
33.796,-14.74
33.812,-15.51
33.828,-15.71
33.843,-14.91
33.859,-12.79
33.875,-9.23
33.890,-4.32
33.906,1.61
33.921,8.06
33.937,14.49
33.953,20.42
33.968,25.5
33.984,29.57
34.000,32.64
34.015,34.82
34.031,36.19
34.046,36.71
34.062,36.23
34.078,34.65
34.093,31.97
34.109,28.44
34.125,24.55
34.140,20.9
34.156,18.02
34.171,16.14
34.187,15.16
34.203,14.67
34.218,14.19
34.234,13.38
34.250,12.17
34.265,10.73
34.281,9.36
34.296,8.26
34.312,7.36
34.328,6.35
34.343,4.81
34.359,2.48
34.375,-0.49
34.390,-3.58
34.406,-5.96
34.421,-6.84
34.437,-5.76
34.453,-2.79
34.468,1.53
34.484,6.43
34.500,11.13
34.515,15.17
34.531,18.47
34.546,21.29
34.562,23.99
34.578,26.93
34.593,30.23
34.609,33.79
34.625,37.3
34.640,40.34
34.656,42.6
34.671,44.07
34.687,45.23
34.703,46.98
34.718,50.45
34.734,56.55
34.750,65.46
34.765,76.45
34.781,87.98
34.796,98.31
34.812,106.14
34.828,111.17
34.843,114.05
34.859,116.08
34.875,118.54
34.890,122.3
34.906,127.55
34.921,133.86
34.937,140.12
34.953,144.53
34.968,144.62
34.984,137.78
35.000,122.37
35.015,98.69
35.031,69.24
35.046,37.99
35.062,8.95
35.078,-15.0
35.093,-32.63
35.109,-43.7
35.125,-48.17
35.140,-45.8
35.156,-36.63
35.171,-22.06
35.187,-5.36
35.203,8.78
35.218,15.75
35.234,12.81
35.250,0.08
35.265,-19.73
35.281,-42.58
35.296,-64.59
35.312,-83.18
35.328,-97.22
35.343,-106.82
35.359,-112.9
35.375,-116.72
35.390,-119.48
35.406,-121.99
35.421,-124.54
35.437,-126.94
35.453,-128.75
35.468,-129.53
35.484,-129.09
35.500,-127.35
35.515,-124.12
35.531,-118.92
35.546,-110.94
35.562,-99.44
35.578,-84.19
35.593,-65.79
35.609,-45.7
35.625,-25.84
35.640,-8.01
35.656,6.6
35.671,17.56
35.687,25.08
35.703,29.59
35.718,31.63
35.734,31.85
35.750,31.16
35.765,30.74
35.781,31.91
35.796,35.71
35.812,42.54
35.828,51.98
35.843,62.94
35.859,74.16
35.875,84.73
35.890,94.28
35.906,102.91
35.921,110.71
35.937,117.36
35.953,122.0
35.968,123.54
35.984,121.26
36.000,115.4
36.015,107.35
36.031,99.34
36.046,93.79
36.062,92.64
36.078,96.9
36.093,106.67
36.109,121.42
36.125,140.44
36.140,162.91
36.156,187.79
36.171,213.31
36.187,236.78
36.203,254.78
36.218,263.95
36.234,262.04
36.250,248.85
36.265,226.41
36.281,198.47
36.296,169.15
36.312,141.66
36.328,117.46
36.343,96.23
36.359,76.6
36.375,57.19
36.390,37.28
36.406,17.03
36.421,-3.0
36.437,-22.38
36.453,-41.27
36.468,-60.44
36.484,-80.91
36.500,-103.58
36.515,-129.0
36.531,-157.47
36.546,-189.08
36.562,-223.37
36.578,-258.86
36.593,-292.73
36.609,-321.03
36.625,-339.82
36.640,-346.44
36.656,-340.59
36.671,-324.3
36.687,-300.92
36.703,-273.74
36.718,-244.85
36.734,-215.06
36.750,-184.4
36.765,-153.05
36.781,-121.78
36.796,-91.81
36.812,-64.3
36.828,-39.98
36.843,-19.15
36.859,-1.8
36.875,12.09
36.890,22.5
36.906,29.39
36.921,32.65
36.937,32.25
36.953,28.26
36.968,21.19
36.984,11.96
37.000,1.92
37.015,-7.55
37.031,-15.49
37.046,-21.76
37.062,-27.11
37.078,-32.62
37.093,-39.1
37.109,-46.62
37.125,-54.48
37.140,-61.75
37.156,-67.78
37.171,-72.62
37.187,-76.71
37.203,-80.5
37.218,-83.82
37.234,-85.95
37.250,-85.91
37.265,-83.17
37.281,-78.01
37.296,-71.51
37.312,-65.11
37.328,-59.93
37.343,-56.43
37.359,-54.43
37.375,-53.43
37.390,-52.96
37.406,-52.82
37.421,-52.91
37.437,-53.11
37.453,-53.26
37.468,-53.09
37.484,-52.5
37.500,-51.53
37.515,-50.37
37.531,-49.22
37.546,-48.24
37.562,-47.55
37.578,-47.23
37.593,-47.39
37.609,-48.04
37.625,-49.1
37.640,-50.44
37.656,-51.8
37.671,-53.04
37.687,-54.05
37.703,-54.87
37.718,-55.59
37.734,-56.33
37.750,-57.13
37.765,-57.89
37.781,-58.29
37.796,-57.71
37.812,-55.44
37.828,-50.87
37.843,-43.74
37.859,-34.32
37.875,-23.35
37.890,-11.8
37.906,-0.56
37.921,9.76
37.937,18.88
37.953,26.81
37.968,33.67
37.984,39.71
38.000,45.24
38.015,50.59
38.031,55.99
38.046,61.43
38.062,66.49
38.078,70.46
38.093,72.51
38.109,72.08
38.125,69.2
38.140,64.52
38.156,59.17
38.171,54.39
38.187,51.1
38.203,49.65
38.218,49.79
38.234,50.89
38.250,52.23
38.265,53.21
38.281,53.56
38.296,53.31
38.312,52.83
38.328,52.73
38.343,53.78
38.359,56.82
38.375,62.53
38.390,71.15
38.406,82.34
38.421,95.15
38.437,108.25
38.453,120.28
38.468,130.22
38.484,137.66
38.500,142.86
38.515,146.54
38.531,149.57
38.546,152.69
38.562,156.24
38.578,160.11
38.593,163.94
38.609,167.3
38.625,169.9
38.640,171.75
38.656,173.05
38.671,174.12
38.687,175.29
38.703,176.76
38.718,178.53
38.734,180.26
38.750,181.16
38.765,180.1
38.781,175.93
38.796,167.91
38.812,156.18
38.828,141.91
38.843,127.01
38.859,113.53
38.875,103.04
38.890,96.16
38.906,92.59
38.921,91.49
38.937,91.91
38.953,93.1
38.968,94.46
38.984,95.36
39.000,94.89
39.015,91.91
39.031,85.29
39.046,74.19
39.062,58.5
39.078,38.83
39.093,16.32
39.109,-7.76
39.125,-32.49
39.140,-57.52
39.156,-83.12
39.171,-109.95
39.187,-138.94
39.203,-171.14
39.218,-207.41
39.234,-247.86
39.250,-291.21
39.265,-334.46
39.281,-373.12
39.296,-402.4
39.312,-418.75
39.328,-421.18
39.343,-411.63
39.359,-394.21
39.375,-373.63
39.390,-353.69
39.406,-336.52
39.421,-322.48
39.437,-310.93
39.453,-300.73
39.468,-290.63
39.484,-279.31
39.500,-265.35
39.515,-247.56
39.531,-225.33
39.546,-199.03
39.562,-170.03
39.578,-140.34
39.593,-112.1
39.609,-86.99
39.625,-65.87
39.640,-48.76
39.656,-35.09
39.671,-24.07
39.687,-15.02
39.703,-7.49
39.718,-1.33
39.734,3.51
39.750,7.15
39.765,9.79
39.781,11.73
39.796,13.18
39.812,14.25
39.828,14.86
39.843,14.94
39.859,14.46
39.875,13.49
39.890,12.13
39.906,10.42
39.921,8.31
39.937,5.61
39.953,2.12
39.968,-2.38
39.984,-8.07
40.000,-15.04
40.015,-23.1
40.031,-31.64
40.046,-39.53
40.062,-45.28
40.078,-47.41
40.093,-44.99
40.109,-38.04
40.125,-27.51
40.140,-15.09
40.156,-2.48
40.171,8.93
40.187,18.35
40.203,25.51
40.218,30.37
40.234,32.97
40.250,33.41
40.265,31.85
40.281,28.68
40.296,24.54
40.312,20.16
40.328,16.23
40.343,13.15
40.359,10.89
40.375,9.08
40.390,7.18
40.406,4.72
40.421,1.51
40.437,-2.26
40.453,-6.17
40.468,-9.8
40.484,-12.92
40.500,-15.59
40.515,-18.19
40.531,-21.32
40.546,-25.63
40.562,-31.78
40.578,-39.96
40.593,-49.75
40.609,-59.83
40.625,-68.12
40.640,-72.28
40.656,-70.47
40.671,-62.02
40.687,-47.71
40.703,-29.52
40.718,-9.83
40.734,9.25
40.750,26.33
40.765,40.76
40.781,52.22
40.796,60.44
40.812,65.04
40.828,65.81
40.843,63.03
40.859,57.65
40.875,51.08
40.890,44.82
40.906,39.89
40.921,36.49
40.937,34.05
40.953,31.61
40.968,28.37
40.984,24.01
41.000,18.82
41.015,13.42
41.031,8.38
41.046,3.94
41.062,-0.13
41.078,-4.38
41.093,-9.47
41.109,-15.91
41.125,-23.95
41.140,-33.43
41.156,-43.74
41.171,-53.72
41.187,-61.73
41.203,-65.95
41.218,-64.89
41.234,-57.87
41.250,-45.33
41.265,-28.71
41.281,-10.02
41.296,8.77
41.312,26.17
41.328,41.22
41.343,53.42
41.359,62.4
41.375,67.87
41.390,69.7
41.406,68.17
41.421,64.09
41.437,58.67
41.453,53.18
41.468,48.55
41.484,45.08
41.500,42.43
41.515,39.91
41.531,36.87
41.546,32.96
41.562,28.27
41.578,23.16
41.593,18.05
41.609,13.2
41.625,8.55
41.640,3.8
41.656,-1.52
41.671,-7.88
41.687,-15.63
41.703,-24.76
41.718,-34.76
41.734,-44.46
41.750,-52.15
41.765,-55.97
41.781,-54.38
41.796,-46.8
41.812,-33.8
41.828,-16.98
41.843,1.52
41.859,19.71
41.875,36.15
41.890,50.09
41.906,61.23
41.921,69.42
41.937,74.39
41.953,75.92
41.968,74.06
41.984,69.41
42.000,63.15
42.015,56.7
42.031,51.32
42.046,47.61
42.062,45.4
42.078,43.87
42.093,42.03
42.109,39.15
42.125,35.06
42.140,30.14
42.156,25.01
42.171,20.23
42.187,16.03
42.203,12.27
42.218,8.5
42.234,4.12
42.250,-1.54
42.265,-9.1
42.281,-18.87
42.296,-30.59
42.312,-43.03
42.328,-54.02
42.343,-60.86
42.359,-61.17
42.375,-53.84
42.390,-39.53
42.406,-20.5
42.421,0.24
42.437,19.99
42.453,37.12
42.468,51.1
42.484,62.11
42.500,70.41
42.515,75.95
42.531,78.46
42.546,77.81
42.562,74.37
42.578,69.09
42.593,63.21
42.609,57.79
42.625,53.41
42.640,50.01
42.656,47.07
42.671,43.91
42.687,40.09
42.703,35.47
42.718,30.32
42.734,25.0
42.750,19.86
42.765,14.97
42.781,10.22
42.796,5.34
42.812,0.1
42.828,-5.61
42.843,-11.84
42.859,-18.64
42.875,-26.14
42.890,-34.48
42.906,-43.53
42.921,-52.6
42.937,-60.35
42.953,-64.96
42.968,-64.7
42.984,-58.53
43.000,-46.58
43.015,-30.11
43.031,-11.16
43.046,8.11
43.062,25.95
43.078,41.27
43.093,53.59
43.109,62.75
43.125,68.76
43.140,71.71
43.156,71.89
43.171,69.87
43.187,66.48
43.203,62.56
43.218,58.74
43.234,55.27
43.250,52.06
43.265,48.87
43.281,45.51
43.296,42.05
43.312,38.68
43.328,35.55
43.343,32.65
43.359,29.7
43.375,26.32
43.390,22.26
43.406,17.46
43.421,12.12
43.437,6.49
43.453,0.81
43.468,-4.84
43.484,-10.56
43.500,-16.56
43.515,-23.1
43.531,-30.45
43.546,-38.7
43.562,-47.58
43.578,-56.22
43.593,-63.16
43.609,-66.59
43.625,-64.9
43.640,-57.34
43.656,-44.39
43.671,-27.64
43.687,-9.31
43.703,8.5
43.718,24.29
43.734,37.32
43.750,47.44
43.765,54.69
43.781,59.16
43.796,60.94
43.812,60.36
43.828,58.02
43.843,54.74
43.859,51.33
43.875,48.26
43.890,45.62
43.906,43.17
43.921,40.63
43.937,37.85
43.953,34.96
43.968,32.18
43.984,29.72
44.000,27.5
44.015,25.2
44.031,22.34
44.046,18.6
44.062,13.91
44.078,8.55
44.093,2.98
44.109,-2.38
44.125,-7.3
44.140,-11.82
44.156,-16.23
44.171,-20.94
44.187,-26.36
44.203,-32.76
44.218,-40.13
44.234,-47.97
44.250,-55.23
44.265,-60.4
44.281,-61.89
44.296,-58.56
44.312,-50.17
44.328,-37.55
44.343,-22.36
44.359,-6.56
44.375,8.19
44.390,20.81
44.406,30.86
44.421,38.28
44.437,43.15
44.453,45.61
44.468,45.81
44.484,44.1
44.500,41.01
44.515,37.2
44.531,33.29
44.546,29.66
44.562,26.5
44.578,23.75
44.593,21.28
44.609,18.95
44.625,16.67
44.640,14.38
44.656,12.03
44.671,9.55
44.687,6.84
44.703,3.84
44.718,0.54
44.734,-3.03
44.750,-6.79
44.765,-10.64
44.781,-14.49
44.796,-18.37
44.812,-22.37
44.828,-26.75
44.843,-31.78
44.859,-37.59
44.875,-43.9
44.890,-49.92
44.906,-54.35
44.921,-55.73
44.937,-52.96
44.953,-45.7
44.968,-34.65
44.984,-21.26
45.000,-7.3
45.015,5.63
45.031,16.53
45.046,24.96
45.062,30.86
45.078,34.34
45.093,35.59
45.109,34.83
45.125,32.47
45.140,29.1
45.156,25.38
45.171,21.88
45.187,19.02
45.203,16.93
45.218,15.54
45.234,14.64
45.250,13.88
45.265,12.96
45.281,11.59
45.296,9.59
45.312,6.9
45.328,3.66
45.343,0.09
45.359,-3.59
45.375,-7.17
45.390,-10.57
45.406,-13.81
45.421,-17.02
45.437,-20.42
45.453,-24.3
45.468,-28.91
45.484,-34.26
45.500,-40.0
45.515,-45.23
45.531,-48.71
45.546,-49.12
45.562,-45.55
45.578,-37.88
45.593,-26.83
45.609,-13.84
45.625,-0.59
45.640,11.51
45.656,21.53
45.671,29.09
45.687,34.16
45.703,36.84
45.718,37.26
45.734,35.62
45.750,32.27
45.765,27.82
45.781,23.08
45.796,18.86
45.812,15.7
45.828,13.75
45.843,12.75
45.859,12.14
45.875,11.37
45.890,10.02
45.906,7.98
45.921,5.37
45.937,2.44
45.953,-0.59
45.968,-3.61
45.984,-6.68
46.000,-9.9
46.015,-13.42
46.031,-17.31
46.046,-21.58
46.062,-26.28
46.078,-31.46
46.093,-37.1
46.109,-43.01
46.125,-48.6
46.140,-52.91
46.156,-54.77
46.171,-53.27
46.187,-48.08
46.203,-39.65
46.218,-29.0
46.234,-17.39
46.250,-5.88
46.265,4.82
46.281,14.32
46.296,22.34
46.312,28.59
46.328,32.74
46.343,34.61
46.359,34.31
46.375,32.26
46.390,29.13
46.406,25.56
46.421,22.06
46.437,18.91
46.453,16.23
46.468,14.03
46.484,12.23
46.500,10.71
46.515,9.28
46.531,7.72
46.546,5.83
46.562,3.47
46.578,0.61
46.593,-2.72
46.609,-6.39
46.625,-10.27
46.640,-14.28
46.656,-18.45
46.671,-22.9
46.687,-27.87
46.703,-33.62
46.718,-40.27
46.734,-47.56
46.750,-54.73
46.765,-60.46
46.781,-63.25
46.796,-61.84
46.812,-55.69
46.828,-45.25
46.843,-31.8
46.859,-17.06
46.875,-2.66
46.890,10.24
46.906,21.09
46.921,29.75
46.937,36.24
46.953,40.58
46.968,42.72
46.984,42.73
47.000,40.86
47.015,37.65
47.031,33.77
47.046,29.88
47.062,26.43
47.078,23.58
47.093,21.22
47.109,19.07
47.125,16.91
47.140,14.58
47.156,12.09
47.171,9.48
47.187,6.74
47.203,3.81
47.218,0.57
47.234,-3.0
47.250,-6.84
47.265,-10.84
47.281,-14.92
47.296,-19.22
47.312,-24.05
47.328,-29.77
47.343,-36.53
47.359,-44.01
47.375,-51.26
47.390,-56.89
47.406,-59.39
47.421,-57.68
47.437,-51.41
47.453,-41.15
47.468,-28.19
47.484,-14.13
47.500,-0.44
47.515,11.84
47.531,22.23
47.546,30.61
47.562,37.01
47.578,41.46
47.593,43.95
47.609,44.5
47.625,43.29
47.640,40.73
47.656,37.34
47.671,33.74
47.687,30.41
47.703,27.66
47.718,25.63
47.734,24.31
47.750,23.47
47.765,22.69
47.781,21.39
47.796,18.94
47.812,14.94
47.828,9.43
47.843,2.95
47.859,-3.65
47.875,-9.54
47.890,-14.21
47.906,-17.72
47.921,-20.56
47.937,-23.46
47.953,-27.11
47.968,-31.94
47.984,-37.95
48.000,-44.71
48.015,-51.25
48.031,-56.23
48.046,-58.16
48.062,-55.84
48.078,-48.81
48.093,-37.58
48.109,-23.58
48.125,-8.63
48.140,5.58
48.156,17.88
48.171,27.75
48.187,35.17
48.203,40.26
48.218,43.17
48.234,44.07
48.250,43.16
48.265,40.86
48.281,37.74
48.296,34.43
48.312,31.47
48.328,29.18
48.343,27.65
48.359,26.74
48.375,26.2
48.390,25.71
48.406,24.95
48.421,23.71
48.437,21.91
48.453,19.61
48.468,17.04
48.484,14.43
48.500,11.99
48.515,9.74
48.531,7.59
48.546,5.33
48.562,2.68
48.578,-0.64
48.593,-4.76
48.609,-9.56
48.625,-14.48
48.640,-18.46
48.656,-20.14
48.671,-18.13
48.687,-11.53
48.703,-0.27
48.718,14.79
48.734,32.14
48.750,50.08
48.765,67.16
48.781,82.48
48.796,95.63
48.812,106.52
48.828,115.11
48.843,121.41
48.859,125.51
48.875,127.74
48.890,128.7
48.906,129.19
48.921,130.01
48.937,131.76
48.953,134.7
48.968,138.69
48.984,143.3
49.000,147.93
49.015,152.05
49.031,155.26
49.046,157.43
49.062,158.45
49.078,158.06
49.093,155.6
49.109,150.02
49.125,140.22
49.140,125.5
49.156,105.88
49.171,82.03
49.187,54.9
49.203,25.43
49.218,-5.37
49.234,-36.07
49.250,-64.32
49.265,-86.98
49.281,-100.84
49.296,-103.79
49.312,-95.86
49.328,-79.21
49.343,-57.33
49.359,-33.62
49.375,-10.3
49.390,11.72
49.406,32.29
49.421,51.24
49.437,67.98
49.453,81.67
49.468,91.82
49.484,98.62
49.500,102.8
49.515,104.86
49.531,104.32
49.546,99.47
49.562,87.89
49.578,67.59
49.593,38.11
49.609,1.15
49.625,-39.77
49.640,-80.14
49.656,-115.76
49.671,-143.8
49.687,-163.24
49.703,-174.51
49.718,-178.71
49.734,-176.73
49.750,-168.84
49.765,-154.87
49.781,-134.88
49.796,-109.85
49.812,-82.07
49.828,-54.89
49.843,-32.01
49.859,-16.51
49.875,-10.16
49.890,-13.13
49.906,-24.33
49.921,-41.97
49.937,-64.07
49.953,-88.77
49.968,-114.3
49.984,-139.0
50.000,-161.27
50.015,-179.68
50.031,-193.2
50.046,-201.43
50.062,-204.71
50.078,-203.94
50.093,-200.31
50.109,-194.76
50.125,-187.74
50.140,-179.15
50.156,-168.51
50.171,-155.31
50.187,-139.4
50.203,-121.19
50.218,-101.63
50.234,-82.02
50.250,-63.66
50.265,-47.57
50.281,-34.36
50.296,-24.11
50.312,-16.56
50.328,-11.21
50.343,-7.42
50.359,-4.45
50.375,-1.53
50.390,1.98
50.406,6.43
50.421,11.59
50.437,16.74
50.453,20.81
50.468,22.86
50.484,22.64
50.500,20.91
50.515,19.38
50.531,20.17
50.546,24.94
50.562,34.15
50.578,46.79
50.593,60.81
50.609,73.88
50.625,84.35
50.640,91.75
50.656,96.74
50.671,100.66
50.687,104.93
50.703,110.61
50.718,118.05
50.734,126.52
50.750,134.08
50.765,137.63
50.781,133.73
50.796,119.8
50.812,95.51
50.828,63.27
50.843,27.73
50.859,-5.85
50.875,-33.48
50.890,-53.72
50.906,-67.7
50.921,-78.01
50.937,-87.14
50.953,-96.39
50.968,-105.58
50.984,-113.66
51.000,-119.6
51.015,-122.98
51.031,-124.09
51.046,-123.51
51.062,-121.74
51.078,-118.92
51.093,-114.92
51.109,-109.49
51.125,-102.4
51.140,-93.45
51.156,-82.49
51.171,-69.38
51.187,-54.21
51.203,-37.44
51.218,-19.89
51.234,-2.7
51.250,13.12
51.265,26.9
51.281,38.36
51.296,47.31
51.312,53.36
51.328,55.83
51.343,53.98
51.359,47.51
51.375,36.79
51.390,22.87
51.406,6.96
51.421,-9.93
51.437,-27.34
51.453,-45.02
51.468,-62.59
51.484,-79.17
51.500,-93.49
51.515,-104.35
51.531,-111.18
51.546,-114.27
51.562,-114.68
51.578,-113.7
51.593,-112.4
51.609,-111.38
51.625,-110.78
51.640,-110.37
51.656,-109.75
51.671,-108.45
51.687,-106.02
51.703,-102.2
51.718,-97.06
51.734,-90.93
51.750,-84.2
51.765,-76.94
51.781,-68.78
51.796,-58.98
51.812,-46.91
51.828,-32.42
51.843,-16.13
51.859,0.83
51.875,17.22
51.890,32.08
51.906,44.98
51.921,55.88
51.937,64.86
51.953,71.93
51.968,76.97
51.984,79.8
52.000,80.5
52.015,79.44
52.031,77.28
52.046,74.75
52.062,72.39
52.078,70.4
52.093,68.56
52.109,66.45
52.125,63.66
52.140,60.0
52.156,55.56
52.171,50.66
52.187,45.63
52.203,40.71
52.218,35.89
52.234,31.01
52.250,25.82
52.265,20.05
52.281,13.49
52.296,5.99
52.312,-2.43
52.328,-11.51
52.343,-20.58
52.359,-28.59
52.375,-34.27
52.390,-36.54
52.406,-34.84
52.421,-29.39
52.437,-21.07
52.453,-11.1
52.468,-0.62
52.484,9.58
52.500,19.06
52.515,27.52
52.531,34.62
52.546,39.87
52.562,42.87
52.578,43.51
52.593,42.09
52.609,39.31
52.625,36.04
52.640,33.02
52.656,30.67
52.671,28.99
52.687,27.73
52.703,26.54
52.718,25.13
52.734,23.33
52.750,21.09
52.765,18.48
52.781,15.58
52.796,12.47
52.812,9.2
52.828,5.72
52.843,1.87
52.859,-2.58
52.875,-7.87
52.890,-14.1
52.906,-21.07
52.921,-28.15
52.937,-34.34
52.953,-38.4
52.968,-39.26
52.984,-36.34
53.000,-29.75
53.015,-20.28
53.031,-9.1
53.046,2.58
53.062,13.84
53.078,24.04
53.093,32.83
53.109,39.85
53.125,44.74
53.140,47.19
53.156,47.16
53.171,45.08
53.187,41.76
53.203,38.21
53.218,35.25
53.234,33.25
53.250,32.07
53.265,31.21
53.281,30.1
53.296,28.34
53.312,25.83
53.328,22.65
53.343,19.0
53.359,15.08
53.375,10.96
53.390,6.65
53.406,2.08
53.421,-2.89
53.437,-8.37
53.453,-14.51
53.468,-21.25
53.484,-28.19
53.500,-34.58
53.515,-39.37
53.531,-41.39
53.546,-39.83
53.562,-34.46
53.578,-25.74
53.593,-14.83
53.609,-3.05
53.625,8.41
53.640,18.74
53.656,27.59
53.671,34.84
53.687,40.38
53.703,44.09
53.718,45.87
53.734,45.78
53.750,44.2
53.765,41.77
53.781,39.17
53.796,36.82
53.812,34.84
53.828,33.02
53.843,31.02
53.859,28.56
53.875,25.55
53.890,22.15
53.906,18.67
53.921,15.38
53.937,12.46
53.953,9.91
53.968,7.51
53.984,4.84
54.000,1.43
54.015,-3.18
54.031,-9.23
54.046,-16.62
54.062,-24.78
54.078,-32.68
54.093,-38.98
54.109,-42.37
54.125,-41.93
54.140,-37.36
54.156,-29.13
54.171,-18.3
54.187,-6.26
54.203,5.7
54.218,16.64
54.234,26.06
54.250,33.86
54.265,40.13
54.281,44.99
54.296,48.48
54.312,50.58
54.328,51.34
54.343,50.91
54.359,49.63
54.375,47.99
54.390,46.43
54.406,45.17
54.421,44.2
54.437,43.25
54.453,41.98
54.468,40.2
54.484,37.86
54.500,35.09
54.515,32.07
54.531,28.85
54.546,25.37
54.562,21.45
54.578,16.98
54.593,11.91
54.609,6.32
54.625,0.27
54.640,-6.28
54.656,-13.29
54.671,-20.57
54.687,-27.51
54.703,-33.07
54.718,-35.96
54.734,-35.14
54.750,-30.17
54.765,-21.56
54.781,-10.58
54.796,1.18
54.812,12.28
54.828,21.84
54.843,29.57
54.859,35.59
54.875,40.06
54.890,43.13
54.906,44.85
54.921,45.32
54.937,44.82
54.953,43.74
54.968,42.49
54.984,41.32
55.000,40.22
55.015,39.04
55.031,37.6
55.046,35.81
55.062,33.67
55.078,31.26
55.093,28.55
55.109,25.46
55.125,21.86
55.140,17.72
55.156,13.14
55.171,8.39
55.187,3.78
55.203,-0.55
55.218,-4.58
55.234,-8.56
55.250,-12.8
55.265,-17.62
55.281,-23.21
55.296,-29.43
55.312,-35.77
55.328,-41.33
55.343,-44.98
55.359,-45.61
55.375,-42.57
55.390,-35.88
55.406,-26.31
55.421,-15.21
55.437,-4.05
55.453,5.99
55.468,14.24
55.484,20.55
55.500,25.1
55.515,28.11
55.531,29.79
55.546,30.29
55.562,29.81
55.578,28.6
55.593,26.99
55.609,25.36
55.625,24.0
55.640,23.04
55.656,22.42
55.671,21.9
55.687,21.19
55.703,20.05
55.718,18.35
55.734,16.12
55.750,13.55
55.765,10.85
55.781,8.16
55.796,5.51
55.812,2.83
55.828,0.03
55.843,-3.02
55.859,-6.37
55.875,-10.08
55.890,-14.27
55.906,-19.03
55.921,-24.33
55.937,-29.89
55.953,-35.05
55.968,-38.86
55.984,-40.33
56.000,-38.7
56.015,-33.79
56.031,-26.06
56.046,-16.56
56.062,-6.53
56.078,2.89
56.093,10.93
56.109,17.26
56.125,21.94
56.140,25.22
56.156,27.39
56.171,28.72
56.187,29.34
56.203,29.38
56.218,28.91
56.234,28.05
56.250,26.98
56.265,25.88
56.281,24.82
56.296,23.77
56.312,22.56
56.328,21.03
56.343,19.13
56.359,16.89
56.375,14.42
56.390,11.82
56.406,9.07
56.421,6.08
56.437,2.75
56.453,-0.91
56.468,-4.76
56.484,-8.6
56.500,-12.34
56.515,-16.05
56.531,-19.98
56.546,-24.42
56.562,-29.53
56.578,-35.13
56.593,-40.59
56.609,-44.95
56.625,-47.17
56.640,-46.49
56.656,-42.61
56.671,-35.87
56.687,-27.13
56.703,-17.41
56.718,-7.68
56.734,1.41
56.750,9.51
56.765,16.5
56.781,22.31
56.796,26.88
56.812,30.14
56.828,32.08
56.843,32.84
56.859,32.66
56.875,31.87
56.890,30.7
56.906,29.33
56.921,27.75
56.937,25.92
56.953,23.81
56.968,21.5
56.984,19.19
57.000,17.08
57.015,15.29
57.031,13.68
57.046,11.98
57.062,9.81
57.078,6.92
57.093,3.29
57.109,-0.85
57.125,-5.17
57.140,-9.35
57.156,-13.24
57.171,-16.9
57.187,-20.61
57.203,-24.7
57.218,-29.46
57.234,-34.96
57.250,-40.89
57.265,-46.6
57.281,-51.1
57.296,-53.39
57.312,-52.68
57.328,-48.73
57.343,-41.87
57.359,-32.95
57.375,-23.0
57.390,-12.98
57.406,-3.57
57.421,4.87
57.437,12.16
57.453,18.2
57.468,22.88
57.484,26.12
57.500,27.95
57.515,28.57
57.531,28.38
57.546,27.82
57.562,27.25
57.578,26.81
57.593,26.37
57.609,25.65
57.625,24.42
57.640,22.67
57.656,20.54
57.671,18.34
57.687,16.27
57.703,14.32
57.718,12.32
57.734,9.97
57.750,7.12
57.765,3.77
57.781,0.14
57.796,-3.51
57.812,-6.99
57.828,-10.27
57.843,-13.47
57.859,-16.79
57.875,-20.49
57.890,-24.78
57.906,-29.81
57.921,-35.49
57.937,-41.42
57.953,-46.83
57.968,-50.68
57.984,-51.95
58.000,-49.99
58.015,-44.79
58.031,-36.95
58.046,-27.52
58.062,-17.55
58.078,-7.81
58.093,1.31
58.109,9.71
58.125,17.32
58.140,24.0
58.156,29.41
58.171,33.3
58.187,35.6
58.203,36.52
58.218,36.56
58.234,36.3
58.250,36.19
58.265,36.44
58.281,36.97
58.296,37.5
58.312,37.74
58.328,37.56
58.343,37.0
58.359,36.29
58.375,35.65
58.390,35.18
58.406,34.76
58.421,34.2
58.437,33.29
58.453,32.02
58.468,30.5
58.484,28.97
58.500,27.65
58.515,26.62
58.531,25.79
58.546,25.02
58.562,24.1
58.578,22.89
58.593,21.33
58.609,19.47
58.625,17.41
58.640,15.35
58.656,13.46
58.671,11.89
58.687,10.69
58.703,9.78
58.718,9.01
58.734,8.21
58.750,7.24
58.765,6.03
58.781,4.56
58.796,2.88
58.812,1.04
58.828,-0.92
58.843,-2.98
58.859,-5.14
58.875,-7.44
58.890,-9.88
58.906,-12.43
58.921,-14.95
58.937,-17.29
58.953,-19.31
58.968,-20.99
58.984,-22.41
59.000,-23.74
59.015,-25.14
59.031,-26.76
59.046,-28.67
59.062,-30.91
59.078,-33.5
59.093,-36.43
59.109,-39.62
59.125,-42.94
59.140,-46.21
59.156,-49.27
59.171,-52.01
59.187,-54.49
59.203,-56.88
59.218,-59.52
59.234,-62.72
59.250,-66.7
59.265,-71.4
59.281,-76.28
59.296,-80.41
59.312,-82.54
59.328,-81.56
59.343,-76.85
59.359,-68.55
59.375,-57.55
59.390,-45.17
59.406,-32.8
59.421,-21.48
59.437,-11.83
59.453,-4.02
59.468,1.99
59.484,6.31
59.500,9.11
59.515,10.59
59.531,11.09
59.546,10.95
59.562,10.48
59.578,9.88
59.593,9.23
59.609,8.59
59.625,7.98
59.640,7.44
59.656,6.96
59.671,6.45
59.687,5.75
59.703,4.74
59.718,3.34
59.734,1.61
59.750,-0.3
59.765,-2.27
59.781,-4.23
59.796,-6.26
59.812,-8.48
59.828,-11.04
59.843,-14.09
59.859,-17.78
59.875,-22.22
59.890,-27.39
59.906,-33.03
59.921,-38.52
59.937,-42.95
59.953,-45.33
59.968,-44.86
59.984,-41.26
