timestamp,value
00.000,-10.59
00.015,-11.27
00.031,-12.44
00.046,-13.83
00.062,-15.13
00.078,-16.09
00.093,-16.59
00.109,-16.65
00.125,-16.38
00.140,-15.99
00.156,-15.66
00.171,-15.51
00.187,-15.63
00.203,-15.95
00.218,-16.19
00.234,-16.0
00.250,-14.91
00.265,-12.55
00.281,-8.81
00.296,-3.86
00.312,1.84
00.328,7.66
00.343,13.0
00.359,17.37
00.375,20.51
00.390,22.38
00.406,23.19
00.421,23.29
00.437,23.22
00.453,23.51
00.468,24.56
00.484,26.56
00.500,29.37
00.515,32.61
00.531,35.75
00.546,38.29
00.562,39.82
00.578,40.17
00.593,39.33
00.609,37.45
00.625,34.81
00.640,31.64
00.656,28.14
00.671,24.38
00.687,20.31
00.703,15.8
00.718,10.72
00.734,5.07
00.750,-1.03
00.765,-7.31
00.781,-13.36
00.796,-18.75
00.812,-23.1
00.828,-26.09
00.843,-27.51
00.859,-27.23
00.875,-25.22
00.890,-21.53
00.906,-16.28
00.921,-9.69
00.937,-2.02
00.953,6.41
00.968,15.11
00.984,23.38
01.000,30.26
01.015,34.68
01.031,35.73
01.046,33.16
01.062,27.56
01.078,20.34
01.093,13.31
01.109,8.04
01.125,5.32
01.140,4.95
01.156,6.0
01.171,7.27
01.187,7.78
01.203,7.05
01.218,5.09
01.234,2.18
01.250,-1.34
01.265,-5.15
01.281,-8.96
01.296,-12.44
01.312,-15.22
01.328,-16.84
01.343,-16.97
01.359,-15.44
01.375,-12.37
01.390,-8.16
01.406,-3.44
01.421,1.03
01.437,4.47
01.453,6.25
01.468,5.98
01.484,3.57
01.500,-0.77
01.515,-6.51
01.531,-12.89
01.546,-18.95
01.562,-23.7
01.578,-26.31
01.593,-26.36
01.609,-23.97
01.625,-19.84
01.640,-14.98
01.656,-10.42
01.671,-6.85
01.687,-4.53
01.703,-3.27
01.718,-2.69
01.734,-2.48
01.750,-2.41
01.765,-2.37
01.781,-2.25
01.796,-1.89
01.812,-1.13
01.828,0.11
01.843,1.71
01.859,3.33
01.875,4.48
01.890,4.71
01.906,3.84
01.921,2.03
01.937,-0.2
01.953,-2.21
01.968,-3.48
01.984,-3.84
02.000,-3.5
02.015,-2.91
02.031,-2.44
02.046,-2.2
02.062,-1.9
02.078,-1.1
02.093,0.59
02.109,3.26
02.125,6.63
02.140,10.18
02.156,13.43
02.171,16.04
02.187,17.88
02.203,18.97
02.218,19.34
02.234,19.0
02.250,17.93
02.265,16.19
02.281,13.93
02.296,11.34
02.312,8.6
02.328,5.75
02.343,2.72
02.359,-0.55
02.375,-4.04
02.390,-7.58
02.406,-10.93
02.421,-13.9
02.437,-16.43
02.453,-18.62
02.468,-20.61
02.484,-22.51
02.500,-24.4
02.515,-26.34
02.531,-28.34
02.546,-30.37
02.562,-32.26
02.578,-33.63
02.593,-33.98
02.609,-32.8
02.625,-29.87
02.640,-25.31
02.656,-19.62
02.671,-13.4
02.687,-7.19
02.703,-1.3
02.718,4.22
02.734,9.37
02.750,14.05
02.765,17.99
02.781,20.84
02.796,22.33
02.812,22.49
02.828,21.68
02.843,20.47
02.859,19.44
02.875,19.01
02.890,19.31
02.906,20.26
02.921,21.66
02.937,23.26
02.953,24.76
02.968,25.89
02.984,26.33
03.000,25.81
03.015,24.2
03.031,21.54
03.046,17.99
03.062,13.76
03.078,9.01
03.093,3.87
03.109,-1.52
03.125,-6.9
03.140,-11.98
03.156,-16.39
03.171,-19.86
03.187,-22.21
03.203,-23.41
03.218,-23.47
03.234,-22.45
03.250,-20.51
03.265,-17.92
03.281,-15.12
03.296,-12.56
03.312,-10.53
03.328,-9.0
03.343,-7.58
03.359,-5.79
03.375,-3.29
03.390,-0.12
03.406,3.28
03.421,6.36
03.437,8.75
03.453,10.44
03.468,11.77
03.484,13.1
03.500,14.49
03.515,15.53
03.531,15.44
03.546,13.53
03.562,9.52
03.578,3.91
03.593,-2.22
03.609,-7.57
03.625,-11.14
03.640,-12.66
03.656,-12.57
03.671,-11.76
03.687,-11.08
03.703,-10.94
03.718,-11.23
03.734,-11.52
03.750,-11.41
03.765,-10.81
03.781,-9.96
03.796,-9.24
03.812,-8.88
03.828,-8.76
03.843,-8.45
03.859,-7.43
03.875,-5.44
03.890,-2.56
03.906,0.82
03.921,4.15
03.937,6.97
03.953,8.99
03.968,10.13
03.984,10.4
04.000,9.92
04.015,8.76
04.031,7.08
04.046,5.05
04.062,2.91
04.078,0.9
04.093,-0.78
04.109,-2.01
04.125,-2.7
04.140,-2.85
04.156,-2.53
04.171,-1.9
04.187,-1.14
04.203,-0.41
04.218,0.26
04.234,0.98
04.250,1.87
04.265,3.0
04.281,4.18
04.296,5.01
04.312,5.0
04.328,3.78
04.343,1.32
04.359,-2.02
04.375,-5.61
04.390,-8.78
04.406,-10.93
04.421,-11.7
04.437,-11.02
04.453,-9.04
04.468,-6.12
04.484,-2.71
04.500,0.85
04.515,4.37
04.531,7.86
04.546,11.35
04.562,14.72
04.578,17.68
04.593,19.87
04.609,21.06
04.625,21.28
04.640,20.93
04.656,20.53
04.671,20.53
04.687,21.14
04.703,22.29
04.718,23.79
04.734,25.4
04.750,26.89
04.765,27.97
04.781,28.27
04.796,27.38
04.812,25.09
04.828,21.48
04.843,16.99
04.859,12.19
04.875,7.48
04.890,2.94
04.906,-1.86
04.921,-7.47
04.937,-14.35
04.953,-22.4
04.968,-30.86
04.984,-38.43
05.000,-43.71
05.015,-45.76
05.031,-44.4
05.046,-40.41
05.062,-35.08
05.078,-29.83
05.093,-25.6
05.109,-22.61
05.125,-20.39
05.140,-18.13
05.156,-15.16
05.171,-11.21
05.187,-6.57
05.203,-1.82
05.218,2.46
05.234,5.93
05.250,8.58
05.265,10.55
05.281,11.93
05.296,12.62
05.312,12.33
05.328,10.84
05.343,8.13
05.359,4.53
05.375,0.57
05.390,-3.2
05.406,-6.55
05.421,-9.49
05.437,-12.25
05.453,-14.96
05.468,-17.47
05.484,-19.39
05.500,-20.21
05.515,-19.68
05.531,-17.9
05.546,-15.37
05.562,-12.75
05.578,-10.57
05.593,-9.07
05.609,-8.19
05.625,-7.69
05.640,-7.29
05.656,-6.81
05.671,-6.14
05.687,-5.19
05.703,-3.83
05.718,-1.94
05.734,0.56
05.750,3.6
05.765,6.97
05.781,10.29
05.796,13.19
05.812,15.35
05.828,16.59
05.843,16.92
05.859,16.47
05.875,15.55
05.890,14.52
05.906,13.78
05.921,13.58
05.937,14.06
05.953,15.14
05.968,16.61
05.984,18.17
06.000,19.58
06.015,20.63
06.031,21.2
06.046,21.21
06.062,20.59
06.078,19.37
06.093,17.72
06.109,15.96
06.125,14.47
06.140,13.47
06.156,12.93
06.171,12.52
06.187,11.8
06.203,10.44
06.218,8.43
06.234,6.15
06.250,4.16
06.265,3.02
06.281,3.01
06.296,4.08
06.312,5.88
06.328,7.92
06.343,9.71
06.359,10.94
06.375,11.46
06.390,11.28
06.406,10.54
06.421,9.43
06.437,8.16
06.453,6.88
06.468,5.77
06.484,5.01
06.500,4.74
06.515,5.05
06.531,5.87
06.546,6.97
06.562,7.99
06.578,8.57
06.593,8.45
06.609,7.59
06.625,6.13
06.640,4.29
06.656,2.3
06.671,0.26
06.687,-1.78
06.703,-3.75
06.718,-5.55
06.734,-7.0
06.750,-7.9
06.765,-8.28
06.781,-8.38
06.796,-8.63
06.812,-9.49
06.828,-11.2
06.843,-13.7
06.859,-16.61
06.875,-19.47
06.890,-21.91
06.906,-23.81
06.921,-25.28
06.937,-26.44
06.953,-27.38
06.968,-27.96
06.984,-27.92
07.000,-27.05
07.015,-25.28
07.031,-22.81
07.046,-19.99
07.062,-17.16
07.078,-14.48
07.093,-11.99
07.109,-9.56
07.125,-7.07
07.140,-4.5
07.156,-2.02
07.171,0.09
07.187,1.55
07.203,2.16
07.218,1.99
07.234,1.23
07.250,0.27
07.265,-0.53
07.281,-0.89
07.296,-0.75
07.312,-0.15
07.328,0.74
07.343,1.81
07.359,3.1
07.375,4.64
07.390,6.53
07.406,8.76
07.421,11.2
07.437,13.65
07.453,15.89
07.468,17.77
07.484,19.18
07.500,20.12
07.515,20.57
07.531,20.57
07.546,20.07
07.562,19.05
07.578,17.49
07.593,15.42
07.609,12.99
07.625,10.46
07.640,8.24
07.656,6.68
07.671,6.01
07.687,6.14
07.703,6.78
07.718,7.5
07.734,7.96
07.750,7.99
07.765,7.58
07.781,6.85
07.796,5.86
07.812,4.58
07.828,2.94
07.843,0.93
07.859,-1.29
07.875,-3.47
07.890,-5.31
07.906,-6.64
07.921,-7.4
07.937,-7.64
07.953,-7.43
07.968,-6.78
07.984,-5.68
08.000,-4.16
08.015,-2.46
08.031,-0.91
08.046,0.1
08.062,0.33
08.078,-0.19
08.093,-1.17
08.109,-2.16
08.125,-2.83
08.140,-3.03
08.156,-2.93
08.171,-2.85
08.187,-3.09
08.203,-3.78
08.218,-4.82
08.234,-5.94
08.250,-6.85
08.265,-7.41
08.281,-7.66
08.296,-7.74
08.312,-7.81
08.328,-7.86
08.343,-7.81
08.359,-7.52
08.375,-6.98
08.390,-6.29
08.406,-5.69
08.421,-5.38
08.437,-5.49
08.453,-5.98
08.468,-6.72
08.484,-7.61
08.500,-8.59
08.515,-9.64
08.531,-10.69
08.546,-11.61
08.562,-12.25
08.578,-12.43
08.593,-12.09
08.609,-11.21
08.625,-9.85
08.640,-8.12
08.656,-6.16
08.671,-4.11
08.687,-2.21
08.703,-0.64
08.718,0.5
08.734,1.17
08.750,1.48
08.765,1.55
08.781,1.49
08.796,1.31
08.812,0.96
08.828,0.45
08.843,-0.19
08.859,-0.81
08.875,-1.31
08.890,-1.61
08.906,-1.73
08.921,-1.76
08.937,-1.85
08.953,-2.11
08.968,-2.56
08.984,-3.08
09.000,-3.49
09.015,-3.57
09.031,-3.12
09.046,-2.05
09.062,-0.42
09.078,1.59
09.093,3.72
09.109,5.72
09.125,7.42
09.140,8.7
09.156,9.48
09.171,9.73
09.187,9.47
09.203,8.84
09.218,8.16
09.234,7.82
09.250,8.15
09.265,9.29
09.281,11.18
09.296,13.47
09.312,15.75
09.328,17.67
09.343,19.04
09.359,19.91
09.375,20.51
09.390,21.13
09.406,22.01
09.421,23.19
09.437,24.47
09.453,25.44
09.468,25.65
09.484,24.79
09.500,22.87
09.515,20.13
09.531,17.0
09.546,13.83
09.562,10.8
09.578,7.93
09.593,5.19
09.609,2.65
09.625,0.56
09.640,-0.77
09.656,-1.12
09.671,-0.58
09.687,0.47
09.703,1.46
09.718,1.83
09.734,1.29
09.750,-0.12
09.765,-2.06
09.781,-4.07
09.796,-5.82
09.812,-7.23
09.828,-8.46
09.843,-9.75
09.859,-11.3
09.875,-13.08
09.890,-14.81
09.906,-16.2
09.921,-17.06
09.937,-17.42
09.953,-17.51
09.968,-17.55
09.984,-17.57
10.000,-17.38
10.015,-16.67
10.031,-15.19
10.046,-12.98
10.062,-10.35
10.078,-7.79
10.093,-5.68
10.109,-4.12
10.125,-2.9
10.140,-1.65
10.156,-0.08
10.171,1.87
10.187,4.01
10.203,6.02
10.218,7.59
10.234,8.57
10.250,9.04
10.265,9.2
10.281,9.34
10.296,9.62
10.312,10.1
10.328,10.65
10.343,11.07
10.359,11.15
10.375,10.71
10.390,9.73
10.406,8.26
10.421,6.44
10.437,4.45
10.453,2.44
10.468,0.55
10.484,-1.14
10.500,-2.56
10.515,-3.69
10.531,-4.54
10.546,-5.24
10.562,-5.96
10.578,-6.92
10.593,-8.26
10.609,-9.98
10.625,-11.95
10.640,-13.92
10.656,-15.65
10.671,-16.99
10.687,-17.95
10.703,-18.57
10.718,-18.97
10.734,-19.15
10.750,-19.11
10.765,-18.78
10.781,-18.11
10.796,-17.13
10.812,-15.9
10.828,-14.57
10.843,-13.24
10.859,-12.03
10.875,-10.97
10.890,-10.02
10.906,-9.08
10.921,-8.09
10.937,-7.02
10.953,-5.93
10.968,-4.93
10.984,-4.15
11.000,-3.71
11.015,-3.67
11.031,-4.01
11.046,-4.66
11.062,-5.57
11.078,-6.7
11.093,-8.0
11.109,-9.4
11.125,-10.8
11.140,-12.03
11.156,-12.91
11.171,-13.28
11.187,-13.07
11.203,-12.39
11.218,-11.52
11.234,-10.86
11.250,-10.71
11.265,-11.12
11.281,-11.89
11.296,-12.59
11.312,-12.78
11.328,-12.24
11.343,-11.01
11.359,-9.31
11.375,-7.32
11.390,-5.06
11.406,-2.39
11.421,0.8
11.437,4.4
11.453,8.01
11.468,11.05
11.484,13.02
11.500,13.71
11.515,13.28
11.531,12.14
11.546,10.74
11.562,9.39
11.578,8.26
11.593,7.33
11.609,6.54
11.625,5.85
11.640,5.24
11.656,4.64
11.671,3.98
11.687,3.13
11.703,1.98
11.718,0.49
11.734,-1.28
11.750,-3.12
11.765,-4.78
11.781,-5.98
11.796,-6.56
11.812,-6.51
11.828,-6.03
11.843,-5.4
11.859,-4.89
11.875,-4.73
11.890,-4.95
11.906,-5.49
11.921,-6.2
11.937,-6.93
11.953,-7.59
11.968,-8.1
11.984,-8.42
12.000,-8.41
12.015,-7.95
12.031,-6.87
12.046,-5.14
12.062,-2.85
12.078,-0.27
12.093,2.25
12.109,4.41
12.125,6.0
12.140,7.01
12.156,7.55
12.171,7.81
12.187,8.01
12.203,8.28
12.218,8.67
12.234,9.18
12.250,9.74
12.265,10.31
12.281,10.82
12.296,11.17
12.312,11.27
12.328,11.01
12.343,10.3
12.359,9.11
12.375,7.54
12.390,5.72
12.406,3.89
12.421,2.2
12.437,0.74
12.453,-0.48
12.468,-1.56
12.484,-2.61
12.500,-3.68
12.515,-4.78
12.531,-5.87
12.546,-6.9
12.562,-7.85
12.578,-8.71
12.593,-9.47
12.609,-10.11
12.625,-10.5
12.640,-10.46
12.656,-9.78
12.671,-8.32
12.687,-6.06
12.703,-3.16
12.718,0.09
12.734,3.37
12.750,6.37
12.765,8.89
12.781,10.79
12.796,12.04
12.812,12.62
12.828,12.55
12.843,11.88
12.859,10.74
12.875,9.32
12.890,7.85
12.906,6.51
12.921,5.4
12.937,4.49
12.953,3.73
12.968,3.06
12.984,2.48
13.000,2.09
13.015,1.99
13.031,2.23
13.046,2.69
13.062,3.14
13.078,3.32
13.093,3.0
13.109,2.12
13.125,0.75
13.140,-0.91
13.156,-2.64
13.171,-4.21
13.187,-5.48
13.203,-6.46
13.218,-7.27
13.234,-8.13
13.250,-9.26
13.265,-10.71
13.281,-12.34
13.296,-13.81
13.312,-14.74
13.328,-14.88
13.343,-14.19
13.359,-12.85
13.375,-11.11
13.390,-9.17
13.406,-7.07
13.421,-4.78
13.437,-2.27
13.453,0.27
13.468,2.58
13.484,4.34
13.500,5.42
13.515,5.88
13.531,6.04
13.546,6.21
13.562,6.62
13.578,7.3
13.593,8.13
13.609,8.92
13.625,9.55
13.640,9.98
13.656,10.24
13.671,10.36
13.687,10.33
13.703,10.16
13.718,9.81
13.734,9.3
13.750,8.67
13.765,7.97
13.781,7.3
13.796,6.71
13.812,6.21
13.828,5.75
13.843,5.18
13.859,4.36
13.875,3.19
13.890,1.68
13.921,-1.64
13.937,-3.01
13.953,-4.06
13.968,-4.81
13.984,-5.45
14.000,-6.14
14.015,-6.97
14.031,-7.88
14.046,-8.63
14.062,-8.88
14.078,-8.35
14.093,-6.91
14.109,-4.74
14.125,-2.19
14.140,0.3
14.156,2.43
14.171,4.14
14.187,5.55
14.203,6.77
14.218,7.74
14.234,8.25
14.250,8.02
14.265,6.99
14.281,5.46
14.296,4.02
14.312,3.23
14.328,3.41
14.343,4.46
14.359,5.83
14.375,7.01
14.390,7.64
14.406,7.77
14.421,7.74
14.437,7.95
14.453,8.54
14.468,9.34
14.484,9.97
14.500,10.06
14.515,9.51
14.531,8.45
14.546,7.2
14.562,6.04
14.578,5.07
14.593,4.13
14.609,2.99
14.625,1.53
14.640,-0.22
14.656,-1.95
14.671,-3.33
14.687,-4.11
14.703,-4.28
14.718,-4.06
14.734,-3.71
14.750,-3.39
14.765,-3.0
14.781,-2.32
14.796,-1.05
14.812,0.87
14.828,3.31
14.843,5.89
14.859,8.2
14.875,9.97
14.890,11.09
14.906,11.68
14.921,11.87
14.937,11.79
14.953,11.45
14.968,10.81
14.984,9.78
15.000,8.3
15.015,6.47
15.031,4.44
15.046,2.47
15.062,0.75
15.078,-0.59
15.093,-1.57
15.109,-2.33
15.125,-3.02
15.140,-3.77
15.156,-4.58
15.171,-5.45
15.187,-6.36
15.203,-7.32
15.218,-8.39
15.234,-9.55
15.250,-10.72
15.265,-11.74
15.281,-12.41
15.296,-12.6
15.312,-12.32
15.328,-11.61
15.343,-10.63
15.359,-9.55
15.375,-8.55
15.390,-7.79
15.406,-7.35
15.421,-7.26
15.437,-7.42
15.453,-7.67
15.468,-7.87
15.484,-7.94
15.500,-7.93
15.515,-7.92
15.531,-7.98
15.546,-8.04
15.562,-8.0
15.578,-7.78
15.593,-7.49
15.609,-7.38
15.625,-7.76
15.640,-8.79
15.656,-10.38
15.671,-12.11
15.687,-13.44
15.703,-13.92
15.718,-13.37
15.734,-11.97
15.750,-10.12
15.765,-8.28
15.781,-6.7
15.796,-5.43
15.812,-4.36
15.828,-3.33
15.843,-2.3
15.859,-1.31
15.875,-0.48
15.890,0.15
15.906,0.7
15.921,1.4
15.937,2.49
15.953,4.07
15.968,6.03
15.984,8.09
16.000,9.98
16.015,11.61
16.031,13.15
16.046,14.89
16.062,17.14
16.078,19.99
16.093,23.25
16.109,26.59
16.125,29.62
16.140,32.13
16.156,34.11
16.171,35.61
16.187,36.61
16.203,36.86
16.218,35.92
16.234,33.29
16.250,28.62
16.265,21.93
16.281,13.68
16.296,4.64
16.312,-4.28
16.328,-12.23
16.343,-18.62
16.359,-23.14
16.375,-25.79
16.390,-26.75
16.406,-26.42
16.421,-25.26
16.437,-23.82
16.453,-22.58
16.468,-21.89
16.484,-21.82
16.500,-22.13
16.515,-22.34
16.531,-21.87
16.546,-20.32
16.562,-17.58
16.578,-13.84
16.593,-9.54
16.609,-5.27
16.625,-1.58
16.640,1.09
16.656,2.54
16.671,2.85
16.687,2.32
16.703,1.42
16.718,0.65
16.734,0.34
16.750,0.65
16.765,1.52
16.781,2.81
16.796,4.39
16.812,6.21
16.828,8.2
16.843,10.29
16.859,12.33
16.875,14.13
16.890,15.56
16.906,16.54
16.921,17.1
16.937,17.26
16.953,16.98
16.968,16.1
16.984,14.44
17.000,11.88
17.015,8.47
17.031,4.6
17.046,0.87
17.062,-2.04
17.078,-3.6
17.093,-3.55
17.109,-2.08
17.125,0.34
17.140,3.13
17.156,5.86
17.171,8.34
17.187,10.62
17.203,12.76
17.218,14.71
17.234,16.23
17.250,16.91
17.265,16.36
17.281,14.35
17.296,10.96
17.312,6.59
17.328,1.85
17.343,-2.66
17.359,-6.42
17.375,-9.17
17.390,-10.9
17.406,-11.79
17.421,-12.03
17.437,-11.69
17.453,-10.7
17.468,-8.95
17.484,-6.39
17.500,-3.18
17.515,0.34
17.531,3.77
17.546,6.71
17.562,8.9
17.578,10.08
17.593,10.06
17.609,8.61
17.625,5.56
17.640,0.9
17.656,-5.06
17.671,-11.67
17.687,-18.15
17.703,-23.69
17.718,-27.77
17.734,-30.18
17.750,-31.02
17.765,-30.58
17.781,-29.21
17.796,-27.24
17.812,-24.89
17.828,-22.31
17.843,-19.58
17.859,-16.69
17.875,-13.57
17.890,-10.14
17.906,-6.4
17.921,-2.46
17.937,1.33
17.953,4.44
17.968,6.25
17.984,6.33
18.000,4.56
18.015,1.19
18.031,-3.2
18.046,-7.98
18.062,-12.59
18.078,-16.75
18.093,-20.33
18.109,-23.19
18.125,-25.16
18.140,-25.99
18.156,-25.5
18.171,-23.71
18.187,-20.87
18.203,-17.38
18.218,-13.64
18.234,-9.91
18.250,-6.2
18.265,-2.41
18.281,1.62
18.296,5.94
18.312,10.44
18.328,14.89
18.343,18.96
18.359,22.38
18.375,24.97
18.390,26.63
18.406,27.36
18.421,27.19
18.437,26.18
18.453,24.5
18.468,22.31
18.484,19.83
18.500,17.19
18.515,14.51
18.531,11.88
18.546,9.55
18.562,7.86
18.578,7.25
18.593,8.04
18.609,10.22
18.625,13.35
18.640,16.58
18.656,18.95
18.671,19.67
18.687,18.45
18.703,15.62
18.718,11.93
18.734,8.41
18.750,5.94
18.765,5.09
18.781,5.95
18.796,8.14
18.812,10.99
18.828,13.73
18.843,15.66
18.859,16.32
18.875,15.53
18.890,13.41
18.906,10.29
18.921,6.71
18.937,3.23
18.953,0.29
18.968,-1.82
18.984,-3.14
19.000,-3.95
19.015,-4.67
19.031,-5.65
19.046,-7.02
19.062,-8.65
19.078,-10.18
19.093,-11.32
19.109,-11.95
19.125,-12.23
19.140,-12.58
19.156,-13.46
19.171,-15.2
19.187,-17.85
19.203,-21.14
19.218,-24.64
19.234,-27.9
19.250,-30.68
19.265,-32.97
19.281,-34.97
19.296,-36.85
19.312,-38.66
19.328,-40.22
19.343,-41.17
19.359,-41.17
19.375,-40.04
19.390,-37.82
19.406,-34.78
19.421,-31.22
19.437,-27.33
19.453,-23.26
19.468,-19.09
19.484,-14.94
19.500,-11.08
19.515,-7.8
19.531,-5.41
19.546,-4.0
19.562,-3.39
19.578,-3.16
19.593,-2.85
19.609,-2.11
19.625,-0.81
19.640,0.85
19.656,2.53
19.671,3.9
19.687,4.78
19.703,5.16
19.718,5.15
19.734,4.85
19.750,4.31
19.765,3.55
19.781,2.55
19.796,1.45
19.812,0.48
19.828,-0.09
19.843,-0.1
19.859,0.44
19.875,1.27
19.890,2.0
19.906,2.28
19.921,1.87
19.937,0.87
19.953,-0.39
19.968,-1.4
19.984,-1.73
20.000,-1.12
20.015,0.41
20.031,2.6
20.046,5.07
20.062,7.46
20.078,9.58
20.093,11.42
20.109,13.06
20.125,14.62
20.140,16.15
20.156,17.62
20.171,18.96
20.187,20.18
20.203,21.33
20.218,22.54
20.234,23.85
20.250,25.12
20.265,25.99
20.281,26.1
20.296,25.17
20.312,23.24
20.328,20.64
20.343,17.78
20.359,14.93
20.375,12.11
20.390,9.14
20.406,5.82
20.421,2.24
20.437,-1.26
20.453,-4.18
20.468,-6.14
20.484,-7.16
20.500,-7.56
20.515,-7.87
20.531,-8.5
20.546,-9.6
20.562,-11.02
20.578,-12.44
20.593,-13.51
20.609,-13.98
20.625,-13.74
20.640,-12.78
20.656,-11.16
20.671,-9.03
20.687,-6.53
20.703,-3.85
20.718,-1.18
20.734,1.33
20.750,3.59
20.765,5.55
20.781,7.19
20.796,8.51
20.812,9.49
20.828,10.14
20.843,10.44
20.859,10.36
20.875,9.84
20.890,8.9
20.906,7.54
20.921,5.93
20.937,4.27
20.953,2.82
20.968,1.75
20.984,1.07
21.000,0.62
21.015,0.18
21.031,-0.44
21.046,-1.32
21.062,-2.37
21.078,-3.46
21.093,-4.45
21.109,-5.28
21.125,-6.03
21.140,-6.86
21.156,-7.98
21.171,-9.56
21.187,-11.61
21.203,-13.89
21.218,-15.98
21.234,-17.38
21.250,-17.7
21.265,-16.85
21.281,-15.06
21.296,-12.79
21.312,-10.45
21.328,-8.28
21.343,-6.33
21.359,-4.49
21.375,-2.71
21.390,-1.04
21.406,0.34
21.421,1.28
21.437,1.73
21.453,1.78
21.468,1.63
21.484,1.5
21.500,1.52
21.515,1.69
21.531,1.91
21.546,2.05
21.562,2.01
21.578,1.86
21.593,1.73
21.609,1.76
21.625,2.01
21.640,2.34
21.656,2.46
21.671,2.1
21.687,1.16
21.703,-0.23
21.718,-1.65
21.734,-2.73
21.750,-3.26
21.765,-3.36
21.781,-3.41
21.796,-3.86
21.812,-4.92
21.828,-6.4
21.843,-7.8
21.859,-8.51
21.875,-8.12
21.890,-6.55
21.906,-4.07
21.921,-1.11
21.937,1.94
21.953,4.82
21.968,7.51
21.984,10.0
22.000,12.26
22.015,14.11
22.031,15.3
22.046,15.62
22.062,15.04
22.078,13.82
22.093,12.35
22.109,11.05
22.125,10.17
22.140,9.72
22.156,9.5
22.171,9.3
22.187,9.03
22.203,8.75
22.218,8.62
22.234,8.73
22.250,9.04
22.265,9.32
22.281,9.37
22.296,9.03
22.312,8.37
22.328,7.59
22.343,6.89
22.359,6.38
22.375,5.95
22.390,5.4
22.406,4.47
22.421,3.08
22.437,1.34
22.453,-0.41
22.468,-1.7
22.484,-2.13
22.500,-1.51
22.515,0.11
22.531,2.4
22.546,4.89
22.562,7.2
22.578,9.12
22.593,10.63
22.609,11.88
22.625,12.97
22.640,13.92
22.656,14.59
22.671,14.74
22.687,14.24
22.703,13.12
22.718,11.56
22.734,9.86
22.750,8.28
22.765,6.94
22.781,5.83
22.796,4.87
22.812,4.02
22.828,3.31
22.843,2.83
22.859,2.62
22.875,2.63
22.890,2.77
22.906,2.9
22.921,2.97
22.937,3.0
22.953,3.07
22.968,3.23
22.984,3.44
23.000,3.52
23.015,3.26
23.031,2.47
23.046,1.09
23.062,-0.69
23.078,-2.52
23.093,-3.99
23.109,-4.77
23.125,-4.74
23.140,-4.0
23.156,-2.79
23.171,-1.36
23.187,0.12
23.203,1.56
23.218,2.93
23.234,4.18
23.250,5.21
23.265,5.89
23.281,6.17
23.296,6.12
23.312,5.89
23.328,5.67
23.343,5.56
23.359,5.55
23.375,5.54
23.390,5.39
23.406,5.03
23.421,4.44
23.437,3.7
23.453,2.9
23.468,2.19
23.484,1.68
23.500,1.39
23.515,1.25
23.531,1.06
23.546,0.58
23.562,-0.36
23.578,-1.8
23.593,-3.59
23.609,-5.47
23.625,-7.15
23.640,-8.44
23.656,-9.33
23.671,-9.97
23.687,-10.5
23.703,-10.98
23.718,-11.32
23.734,-11.35
23.750,-10.85
23.765,-9.72
23.781,-8.02
23.796,-5.95
23.812,-3.75
23.828,-1.58
23.843,0.46
23.859,2.39
23.875,4.22
23.890,5.92
23.906,7.35
23.921,8.3
23.937,8.68
23.953,8.47
23.968,7.84
23.984,6.99
24.000,6.09
24.015,5.22
24.031,4.34
24.046,3.38
24.062,2.3
24.078,1.18
24.093,0.09
24.109,-0.92
24.125,-1.89
24.140,-2.95
24.156,-4.18
24.171,-5.58
24.187,-6.98
24.203,-8.13
24.218,-8.8
24.234,-8.9
24.250,-8.57
24.265,-8.11
24.281,-7.89
24.296,-8.13
24.312,-8.87
24.328,-9.86
24.343,-10.64
24.359,-10.75
24.375,-9.9
24.390,-8.12
24.406,-5.72
24.421,-3.23
24.437,-1.1
24.453,0.38
24.468,1.19
24.484,1.44
24.500,1.27
24.515,0.74
24.531,-0.16
24.546,-1.38
24.562,-2.81
24.578,-4.21
24.593,-5.3
24.609,-5.86
24.625,-5.86
24.640,-5.45
24.656,-4.89
24.671,-4.4
24.687,-4.1
24.703,-3.84
24.718,-3.39
24.734,-2.51
24.750,-1.14
24.765,0.55
24.781,2.18
24.796,3.39
24.812,3.93
24.828,3.82
24.843,3.29
24.859,2.64
24.875,2.06
24.890,1.56
24.906,1.01
24.921,0.25
24.937,-0.7
24.953,-1.62
24.968,-2.14
24.984,-1.97
25.000,-1.02
25.015,0.52
25.031,2.23
25.046,3.66
25.062,4.55
25.078,4.88
25.093,4.84
25.109,4.74
25.125,4.81
25.140,5.12
25.156,5.61
25.171,6.13
25.187,6.54
25.203,6.78
25.218,6.81
25.234,6.65
25.250,6.35
25.265,5.93
25.281,5.32
25.296,4.47
25.312,3.37
25.328,2.07
25.343,0.75
25.359,-0.36
25.375,-1.1
25.390,-1.47
25.406,-1.65
25.421,-1.94
25.437,-2.61
25.453,-3.75
25.468,-5.29
25.484,-6.93
25.500,-8.39
25.515,-9.45
25.531,-10.05
25.546,-10.28
25.562,-10.3
25.578,-10.19
25.593,-9.91
25.609,-9.32
25.625,-8.19
25.640,-6.5
25.656,-4.43
25.671,-2.35
25.687,-0.65
25.703,0.51
25.718,1.21
25.734,1.76
25.750,2.41
25.765,3.23
25.781,3.99
25.796,4.37
25.812,4.12
25.828,3.31
25.843,2.26
25.859,1.42
25.875,1.12
25.890,1.37
25.906,1.9
25.921,2.24
25.937,2.07
25.953,1.32
25.968,0.23
25.984,-0.78
26.000,-1.36
26.015,-1.38
26.031,-1.02
26.046,-0.65
26.062,-0.65
26.078,-1.2
26.093,-2.2
26.109,-3.44
26.125,-4.7
26.140,-5.84
26.156,-6.86
26.171,-7.75
26.187,-8.41
26.203,-8.68
26.218,-8.3
26.234,-7.11
26.250,-5.14
26.265,-2.69
26.281,-0.18
26.296,1.9
26.312,3.26
26.328,3.85
26.343,3.92
26.359,3.84
26.375,3.98
26.390,4.49
26.406,5.29
26.421,6.1
26.437,6.59
26.453,6.61
26.468,6.18
26.484,5.51
26.500,4.83
26.515,4.25
26.531,3.76
26.546,3.21
26.562,2.53
26.578,1.68
26.593,0.82
26.609,0.16
26.625,-0.11
26.640,0.08
26.656,0.55
26.671,1.01
26.687,1.18
26.703,0.92
26.718,0.36
26.734,-0.21
26.750,-0.47
26.765,-0.29
26.781,0.23
26.796,0.75
26.812,0.94
26.828,0.57
26.843,-0.26
26.859,-1.27
26.875,-2.09
26.890,-2.47
26.906,-2.41
26.921,-2.13
26.937,-1.95
26.953,-2.07
26.968,-2.53
26.984,-3.16
27.000,-3.72
27.015,-4.06
27.031,-4.26
27.046,-4.56
27.062,-5.22
27.078,-6.35
27.093,-7.77
27.109,-9.14
27.125,-10.17
27.140,-10.73
27.156,-10.95
27.171,-11.15
27.187,-11.57
27.203,-12.31
27.218,-13.23
27.234,-14.08
27.250,-14.65
27.265,-14.89
27.281,-14.92
27.296,-14.93
27.312,-15.07
27.328,-15.39
27.343,-15.86
27.359,-16.4
27.375,-16.89
27.390,-17.2
27.406,-17.17
27.421,-16.61
27.437,-15.43
27.453,-13.53
27.468,-10.96
27.484,-7.81
27.500,-4.23
27.515,-0.41
27.531,3.4
27.546,6.91
27.562,9.78
27.578,11.71
27.593,12.61
27.609,12.55
27.625,11.85
27.640,10.87
27.656,9.95
27.671,9.26
27.687,8.83
27.703,8.63
27.718,8.61
27.734,8.83
27.750,9.3
27.765,10.04
27.781,10.91
27.796,11.72
27.812,12.19
27.828,12.13
27.843,11.53
27.859,10.55
27.875,9.49
27.890,8.57
27.906,7.9
27.921,7.35
27.937,6.65
27.953,5.56
27.968,4.03
27.984,2.3
28.000,0.83
28.015,0.03
28.031,0.13
28.046,1.04
28.062,2.39
28.078,3.82
28.093,5.08
28.109,6.16
28.125,7.16
28.140,8.15
28.156,9.03
28.171,9.56
28.187,9.47
28.203,8.71
28.218,7.42
28.234,5.96
28.250,4.67
28.265,3.75
28.281,3.2
28.296,2.8
28.312,2.28
28.328,1.43
28.343,0.23
28.359,-1.19
28.375,-2.61
28.390,-3.84
28.406,-4.81
28.421,-5.58
28.437,-6.29
28.453,-7.04
28.468,-7.81
28.484,-8.56
28.500,-9.26
28.515,-9.99
28.531,-10.9
28.546,-12.05
28.562,-13.34
28.578,-14.43
28.593,-14.86
28.609,-14.22
28.625,-12.37
28.640,-9.46
28.656,-5.92
28.671,-2.26
28.687,1.07
28.703,3.79
28.718,5.76
28.734,6.94
28.750,7.46
28.765,7.51
28.781,7.33
28.796,7.14
28.812,7.03
28.828,6.99
28.843,6.94
28.859,6.82
28.875,6.64
28.890,6.44
28.906,6.25
28.921,5.94
28.937,5.37
28.953,4.39
28.968,3.02
28.984,1.45
29.000,-0.01
29.015,-1.1
29.031,-1.78
29.046,-2.23
29.062,-2.85
29.078,-3.97
29.093,-5.79
29.109,-8.13
29.125,-10.56
29.140,-12.45
29.156,-13.28
29.171,-12.75
29.187,-10.98
29.203,-8.32
29.218,-5.2
29.234,-2.03
29.250,1.02
29.265,3.91
29.281,6.59
29.296,8.92
29.312,10.67
29.328,11.58
29.343,11.58
29.359,10.82
29.375,9.63
29.390,8.41
29.406,7.45
29.421,6.83
29.437,6.45
29.453,6.09
29.468,5.6
29.484,4.88
29.500,3.96
29.515,2.88
29.531,1.68
29.546,0.37
29.562,-1.08
29.578,-2.68
29.593,-4.37
29.609,-6.03
29.625,-7.47
29.640,-8.58
29.656,-9.37
29.671,-10.02
29.687,-10.76
29.703,-11.71
29.718,-12.82
29.734,-13.75
29.750,-14.09
29.765,-13.45
29.781,-11.7
29.796,-9.07
29.812,-5.98
29.828,-2.92
29.843,-0.26
29.859,1.9
29.875,3.66
29.890,5.18
29.906,6.59
29.921,7.88
29.937,8.89
29.953,9.43
29.968,9.4
29.984,8.87
30.000,8.14
30.015,7.56
30.031,7.35
30.046,7.46
30.062,7.64
30.078,7.51
30.093,6.82
30.109,5.57
30.125,4.01
30.140,2.48
30.156,1.23
30.171,0.22
30.187,-0.77
30.203,-1.9
30.218,-3.2
30.234,-4.44
30.250,-5.33
30.265,-5.67
30.281,-5.51
30.296,-5.09
30.312,-4.71
30.328,-4.55
30.343,-4.54
30.359,-4.39
30.375,-3.71
30.390,-2.23
30.406,0.14
30.421,3.17
30.437,6.5
30.453,9.68
30.468,12.42
30.484,14.59
30.500,16.28
30.515,17.66
30.531,18.93
30.546,20.12
30.562,21.14
30.578,21.85
30.593,22.13
30.609,21.96
30.625,21.43
30.640,20.63
30.656,19.64
30.671,18.44
30.687,16.97
30.703,15.16
30.718,13.1
30.734,11.01
30.750,9.28
30.765,8.26
30.781,8.1
30.796,8.66
30.812,9.46
30.828,9.97
30.843,9.8
30.859,8.93
30.875,7.69
30.890,6.5
30.906,5.67
30.921,5.15
30.937,4.63
30.953,3.8
30.968,2.52
30.984,1.05
31.000,-0.15
31.015,-0.63
31.031,-0.22
31.046,0.88
31.062,2.17
31.078,3.13
31.093,3.46
31.109,3.18
31.125,2.59
31.140,2.07
31.156,1.87
31.171,1.99
31.187,2.21
31.203,2.17
31.218,1.58
31.234,0.36
31.250,-1.37
31.265,-3.28
31.281,-5.0
31.296,-6.27
31.312,-7.0
31.328,-7.25
31.343,-7.23
31.359,-7.14
31.375,-7.07
31.390,-7.02
31.406,-6.91
31.421,-6.69
31.437,-6.49
31.453,-6.48
31.468,-6.9
31.484,-7.87
31.500,-9.36
31.515,-11.23
31.531,-13.26
31.546,-15.33
31.562,-17.38
31.578,-19.46
31.593,-21.5
31.609,-23.38
31.625,-24.82
31.640,-25.45
31.656,-24.98
31.671,-23.31
31.687,-20.53
31.703,-16.92
31.718,-12.9
31.734,-8.87
31.750,-5.15
31.765,-1.94
31.781,0.65
31.796,2.53
31.812,3.65
31.828,4.01
31.843,3.72
31.859,3.01
31.875,2.24
31.890,1.75
31.906,1.7
31.921,2.11
31.937,2.78
31.953,3.49
31.968,4.03
31.984,4.36
32.000,4.51
32.015,4.56
32.031,4.54
32.046,4.38
32.062,3.98
32.078,3.24
32.093,2.12
32.109,0.72
32.125,-0.78
32.140,-2.18
32.156,-3.33
32.171,-4.28
32.187,-5.18
32.203,-6.22
32.218,-7.55
32.234,-9.13
32.250,-10.74
32.265,-12.01
32.281,-12.61
32.296,-12.32
32.312,-11.14
32.328,-9.27
32.343,-7.03
32.359,-4.79
32.375,-2.83
32.390,-1.28
32.406,-0.13
32.421,0.75
32.437,1.44
32.453,2.01
32.468,2.4
32.484,2.58
32.500,2.53
32.515,2.36
32.531,2.2
32.546,2.11
32.562,2.03
32.578,1.78
32.593,1.2
32.609,0.24
32.625,-0.91
32.640,-1.98
32.656,-2.73
32.671,-3.12
32.687,-3.37
32.703,-3.8
32.718,-4.59
32.734,-5.65
32.750,-6.69
32.765,-7.35
32.781,-7.49
32.796,-7.25
32.812,-7.0
32.828,-7.18
32.843,-8.02
32.859,-9.42
32.875,-11.0
32.890,-12.3
32.906,-12.95
32.921,-12.82
32.937,-12.01
32.953,-10.74
32.968,-9.21
32.984,-7.48
33.000,-5.53
33.015,-3.25
33.031,-0.64
33.046,2.13
33.062,4.78
33.078,6.93
33.093,8.32
33.109,8.89
33.125,8.88
33.140,8.68
33.156,8.73
33.171,9.27
33.187,10.22
33.203,11.28
33.218,12.0
33.234,12.15
33.250,11.77
33.265,11.19
33.281,10.83
33.296,10.89
33.312,11.25
33.328,11.52
33.343,11.27
33.359,10.29
33.375,8.72
33.390,6.91
33.406,5.31
33.421,4.16
33.437,3.43
33.453,2.91
33.468,2.3
33.484,1.41
33.500,0.18
33.515,-1.32
33.531,-2.88
33.546,-4.26
33.562,-5.21
33.578,-5.53
33.593,-5.12
33.609,-4.01
33.625,-2.33
33.640,-0.27
33.656,1.94
33.671,4.07
33.687,5.91
33.703,7.26
33.718,7.97
33.734,8.04
33.750,7.6
33.765,6.92
33.781,6.29
33.796,5.91
33.812,5.81
33.828,5.85
33.843,5.83
33.859,5.57
33.875,5.1
33.890,4.54
33.906,4.09
33.921,3.88
33.937,3.87
33.953,3.89
33.968,3.66
33.984,3.0
34.000,1.94
34.015,0.67
34.031,-0.48
34.046,-1.26
34.062,-1.66
34.078,-1.86
34.093,-2.21
34.109,-2.97
34.125,-4.22
34.140,-5.82
34.156,-7.57
34.171,-9.25
34.187,-10.78
34.203,-12.2
34.218,-13.52
34.234,-14.62
34.250,-15.29
34.265,-15.27
34.281,-14.36
34.296,-12.52
34.312,-9.93
34.328,-6.89
34.343,-3.75
34.359,-0.81
34.375,1.73
34.390,3.84
34.406,5.58
34.421,7.04
34.437,8.29
34.453,9.24
34.468,9.74
34.484,9.66
34.500,8.98
34.515,7.91
34.531,6.78
34.546,5.93
34.562,5.55
34.578,5.56
34.593,5.77
34.609,5.91
34.625,5.88
34.640,5.71
34.656,5.53
34.671,5.41
34.687,5.25
34.703,4.88
34.718,4.04
34.734,2.61
34.750,0.69
34.765,-1.41
34.781,-3.31
34.796,-4.68
34.812,-5.44
34.828,-5.72
34.843,-5.83
34.859,-6.11
34.875,-6.77
34.890,-7.92
34.906,-9.47
34.921,-11.25
34.937,-13.03
34.953,-14.52
34.968,-15.45
34.984,-15.5
35.000,-14.46
35.015,-12.27
35.031,-9.09
35.046,-5.32
35.062,-1.52
35.078,1.74
35.093,4.1
35.109,5.46
35.125,6.04
35.140,6.22
35.156,6.35
35.171,6.61
35.187,6.98
35.203,7.3
35.218,7.35
35.234,7.09
35.250,6.55
35.265,5.93
35.281,5.36
35.296,4.93
35.312,4.58
35.328,4.21
35.343,3.72
35.359,3.08
35.375,2.32
35.390,1.48
35.406,0.59
35.421,-0.29
35.437,-1.18
35.453,-2.11
35.468,-3.11
35.484,-4.21
35.500,-5.41
35.515,-6.6
35.531,-7.63
35.546,-8.38
35.562,-8.86
35.578,-9.22
35.593,-9.74
35.609,-10.71
35.625,-12.19
35.640,-13.98
35.656,-15.59
35.671,-16.51
35.687,-16.36
35.703,-15.06
35.718,-12.78
35.734,-9.89
35.750,-6.77
35.765,-3.68
35.781,-0.68
35.796,2.25
35.812,5.16
35.828,8.01
35.843,10.57
35.859,12.56
35.875,13.68
35.890,13.86
35.906,13.26
35.921,12.24
35.937,11.19
35.953,10.37
35.968,9.78
35.984,9.31
36.000,8.84
36.015,8.41
36.031,8.19
36.046,8.33
36.062,8.81
36.078,9.37
36.093,9.68
36.109,9.42
36.125,8.53
36.140,7.19
36.156,5.69
36.171,4.31
36.187,3.15
36.203,2.15
36.218,1.16
36.234,0.1
36.250,-1.08
36.265,-2.3
36.281,-3.48
36.296,-4.57
36.312,-5.56
36.328,-6.54
36.343,-7.55
36.359,-8.57
36.375,-9.43
36.390,-9.89
36.406,-9.66
36.421,-8.49
36.437,-6.33
36.453,-3.34
36.468,0.09
36.484,3.45
36.500,6.34
36.515,8.55
36.531,10.14
36.546,11.34
36.562,12.41
36.578,13.49
36.593,14.48
36.609,15.11
36.625,15.16
36.640,14.6
36.656,13.65
36.671,12.7
36.687,12.05
36.703,11.76
36.718,11.59
36.734,11.21
36.750,10.36
36.765,9.03
36.781,7.44
36.796,5.91
36.812,4.66
36.828,3.75
36.843,3.07
36.859,2.43
36.875,1.69
36.890,0.77
36.906,-0.36
36.921,-1.69
36.937,-3.18
36.953,-4.74
36.968,-6.28
36.984,-7.74
37.000,-9.14
37.015,-10.53
37.031,-11.98
37.046,-13.49
37.062,-14.91
37.078,-16.01
37.093,-16.49
37.109,-16.12
37.125,-14.79
37.140,-12.58
37.156,-9.66
37.171,-6.33
37.187,-2.89
37.203,0.38
37.218,3.21
37.234,5.43
37.250,6.97
37.265,7.86
37.281,8.24
37.296,8.32
37.312,8.27
37.328,8.24
37.343,8.28
37.359,8.35
37.375,8.43
37.390,8.45
37.406,8.41
37.421,8.29
37.437,8.06
37.453,7.64
37.468,6.93
37.484,5.95
37.500,4.76
37.515,3.51
37.531,2.38
37.546,1.47
37.562,0.78
37.578,0.21
37.593,-0.34
37.609,-1.01
37.625,-1.87
37.640,-2.92
37.656,-4.12
37.671,-5.42
37.687,-6.77
37.703,-8.13
37.718,-9.53
37.734,-11.02
37.750,-12.65
37.765,-14.36
37.781,-16.02
37.796,-17.37
37.812,-18.11
37.828,-17.95
37.843,-16.78
37.859,-14.63
37.875,-11.67
37.890,-8.15
37.906,-4.31
37.921,-0.38
37.937,3.36
37.953,6.62
37.968,9.12
37.984,10.65
38.000,11.24
38.015,11.15
38.031,10.73
38.046,10.33
38.062,10.09
38.078,9.97
38.093,9.8
38.109,9.41
38.125,8.74
38.140,7.86
38.156,6.92
38.171,6.04
38.187,5.31
38.203,4.71
38.218,4.18
38.234,3.6
38.250,2.87
38.265,1.92
38.281,0.75
38.296,-0.53
38.312,-1.77
38.328,-2.84
38.343,-3.7
38.359,-4.48
38.375,-5.31
38.390,-6.29
38.406,-7.38
38.421,-8.46
38.437,-9.4
38.453,-10.2
38.468,-10.98
38.484,-11.98
38.500,-13.38
38.515,-15.11
38.531,-16.86
38.546,-18.1
38.562,-18.35
38.578,-17.33
38.593,-15.14
38.609,-12.11
38.625,-8.72
38.640,-5.36
38.656,-2.27
38.671,0.45
38.687,2.79
38.703,4.74
38.718,6.3
38.734,7.44
38.750,8.18
38.765,8.55
38.781,8.58
38.796,8.3
38.812,7.81
38.828,7.22
38.843,6.72
38.859,6.46
38.875,6.45
38.890,6.57
38.906,6.58
38.921,6.27
38.937,5.6
38.953,4.73
38.968,3.89
38.984,3.21
39.000,2.68
39.015,2.08
39.031,1.2
39.046,-0.02
39.062,-1.42
39.078,-2.75
39.093,-3.75
39.109,-4.42
39.125,-4.96
39.140,-5.68
39.156,-6.8
39.171,-8.32
39.187,-10.03
39.203,-11.62
39.218,-12.8
39.234,-13.43
39.250,-13.48
39.265,-12.99
39.281,-11.91
39.296,-10.15
39.312,-7.56
39.328,-4.14
39.343,-0.03
39.359,4.35
39.375,8.43
39.390,11.68
39.406,13.77
39.421,14.66
39.437,14.64
39.453,14.14
39.468,13.53
39.484,13.01
39.500,12.58
39.515,12.11
39.531,11.54
39.546,10.93
39.562,10.4
39.578,10.05
39.593,9.86
39.609,9.63
39.625,9.12
39.640,8.21
39.656,6.98
39.671,5.68
39.687,4.64
39.703,4.05
39.718,3.8
39.734,3.57
39.750,2.95
39.765,1.71
39.781,-0.12
39.796,-2.21
39.812,-4.1
39.828,-5.44
39.843,-6.11
39.859,-6.33
39.875,-6.5
39.890,-7.04
39.906,-8.17
39.921,-9.8
39.937,-11.57
39.953,-12.97
39.968,-13.53
39.984,-12.99
40.000,-11.34
40.015,-8.79
40.031,-5.63
40.046,-2.17
40.062,1.33
40.078,4.66
40.093,7.66
40.109,10.16
40.125,11.96
40.140,12.97
40.156,13.15
40.171,12.59
40.187,11.51
40.203,10.19
40.218,8.85
40.234,7.71
40.250,6.86
40.265,6.3
40.281,5.94
40.296,5.64
40.312,5.27
40.328,4.75
40.343,4.09
40.359,3.39
40.375,2.76
40.390,2.28
40.406,1.92
40.421,1.56
40.437,0.98
40.453,0.01
40.468,-1.43
40.484,-3.21
40.500,-5.13
40.515,-6.94
40.531,-8.51
40.546,-9.83
40.562,-11.01
40.578,-12.13
40.593,-13.28
40.609,-14.45
40.625,-15.6
40.640,-16.63
40.656,-17.42
40.671,-17.77
40.687,-17.4
40.703,-16.02
40.718,-13.49
40.734,-9.91
40.750,-5.65
40.765,-1.28
40.781,2.66
40.796,5.78
40.812,8.0
40.828,9.43
40.843,10.25
40.859,10.6
40.875,10.48
40.890,9.93
40.906,9.01
40.921,7.93
40.937,6.98
40.953,6.44
40.968,6.4
40.984,6.72
41.000,7.11
41.015,7.25
41.031,6.96
41.046,6.25
41.062,5.28
41.078,4.27
41.093,3.41
41.109,2.71
41.125,2.06
41.140,1.34
41.156,0.37
41.171,-0.85
41.187,-2.23
41.203,-3.59
41.218,-4.78
41.234,-5.73
41.250,-6.56
41.265,-7.52
41.281,-8.87
41.296,-10.78
41.312,-13.16
41.328,-15.69
41.343,-17.89
41.359,-19.25
41.375,-19.49
41.390,-18.64
41.406,-16.96
41.421,-14.77
41.437,-12.31
41.453,-9.64
41.468,-6.74
41.484,-3.65
41.500,-0.53
41.515,2.28
41.531,4.42
41.546,5.69
41.562,6.1
41.578,5.88
41.593,5.34
41.609,4.74
41.625,4.25
41.640,3.96
41.656,3.89
41.671,4.0
41.687,4.21
41.703,4.42
41.718,4.54
41.734,4.59
41.750,4.68
41.765,4.91
41.781,5.38
41.796,5.97
41.812,6.48
41.828,6.65
41.843,6.39
41.859,5.75
41.875,4.94
41.890,4.09
41.906,3.22
41.921,2.18
41.937,0.78
41.953,-1.01
41.968,-3.03
41.984,-4.99
42.000,-6.68
42.015,-8.06
42.031,-9.31
42.046,-10.6
42.062,-11.92
42.078,-12.89
42.093,-12.91
42.109,-11.41
42.125,-8.16
42.140,-3.43
42.156,2.18
42.171,7.99
42.187,13.54
42.203,18.64
42.218,23.3
42.234,27.49
42.250,31.09
42.265,33.85
42.281,35.67
42.296,36.66
42.312,37.25
42.328,37.97
42.343,39.17
42.359,40.9
42.375,42.83
42.390,44.5
42.406,45.51
42.421,45.67
42.437,45.02
42.453,43.62
42.468,41.47
42.484,38.5
42.500,34.64
42.515,29.97
42.531,24.84
42.546,19.78
42.562,15.37
42.578,12.2
42.593,10.68
42.609,11.07
42.625,13.41
42.640,17.4
42.656,22.35
42.671,27.23
42.687,30.93
42.703,32.55
42.718,31.7
42.734,28.53
42.750,23.58
42.765,17.42
42.781,10.42
42.796,2.63
42.812,-6.0
42.828,-15.34
42.843,-24.94
42.859,-34.01
42.875,-41.71
42.890,-47.42
42.906,-50.94
42.921,-52.52
42.937,-52.59
42.953,-51.6
42.968,-49.85
42.984,-47.46
43.000,-44.54
43.015,-41.29
43.031,-38.0
43.046,-34.97
43.062,-32.38
43.078,-30.15
43.093,-28.06
43.109,-25.85
43.125,-23.33
43.140,-20.59
43.156,-17.85
43.171,-15.44
43.187,-13.71
43.203,-12.93
43.218,-13.24
43.234,-14.68
43.250,-17.18
43.265,-20.48
43.281,-24.24
43.296,-28.0
43.312,-31.3
43.328,-33.82
43.343,-35.39
43.359,-36.07
43.375,-36.11
43.390,-35.83
43.406,-35.48
43.421,-35.14
43.437,-34.69
43.453,-33.89
43.468,-32.47
43.484,-30.28
43.500,-27.37
43.515,-23.94
43.531,-20.33
43.546,-16.82
43.562,-13.63
43.578,-10.82
43.593,-8.35
43.609,-6.11
43.625,-4.01
43.640,-2.03
43.656,-0.17
43.671,1.57
43.687,3.22
43.703,4.77
43.718,6.17
43.734,7.32
43.750,8.06
43.765,8.35
43.781,8.28
43.796,8.12
43.812,8.16
43.828,8.6
43.843,9.42
43.859,10.38
43.875,11.1
43.890,11.21
43.906,10.53
43.921,9.18
43.937,7.55
43.953,6.15
43.968,5.45
43.984,5.63
44.000,6.49
44.015,7.45
44.031,7.68
44.046,6.33
44.062,2.97
44.078,-2.27
44.093,-8.61
44.109,-14.89
44.125,-19.91
44.140,-22.8
44.156,-23.3
44.171,-21.73
44.187,-18.9
44.203,-15.74
44.218,-13.05
44.234,-11.32
44.250,-10.65
44.265,-10.89
44.281,-11.71
44.296,-12.81
44.312,-13.87
44.328,-14.59
44.343,-14.73
44.359,-14.14
44.375,-12.8
44.390,-10.85
44.406,-8.57
44.421,-6.26
44.437,-4.15
44.453,-2.22
44.468,-0.29
44.484,1.9
44.500,4.52
44.515,7.47
44.531,10.49
44.546,13.15
44.562,15.16
44.578,16.32
44.593,16.7
44.609,16.48
44.625,15.92
44.640,15.25
44.656,14.57
44.671,13.87
44.687,13.02
44.703,11.89
44.718,10.41
44.734,8.68
44.750,6.98
44.765,5.64
44.781,4.92
44.796,4.84
44.812,5.16
44.828,5.46
44.843,5.3
44.859,4.39
44.875,2.62
44.890,0.07
44.906,-3.04
44.921,-6.45
44.937,-9.84
44.953,-12.81
44.968,-14.95
44.984,-15.95
45.000,-15.7
45.015,-14.32
45.031,-12.12
45.046,-9.49
45.062,-6.7
45.078,-3.93
45.093,-1.12
45.109,1.83
45.125,5.02
45.140,8.48
45.156,12.15
45.171,15.87
45.187,19.42
45.203,22.57
45.218,25.08
45.234,26.73
45.250,27.41
45.265,27.2
45.281,26.42
45.296,25.55
45.312,25.13
45.328,25.56
45.343,26.93
45.359,29.04
45.375,31.45
45.390,33.75
45.406,35.65
45.421,37.06
45.437,37.96
45.453,38.32
45.468,37.96
45.484,36.65
45.500,34.15
45.515,30.4
45.531,25.53
45.546,19.83
45.562,13.63
45.578,7.2
45.593,0.8
45.609,-5.38
45.625,-11.1
45.640,-16.07
45.656,-20.06
45.671,-23.05
45.687,-25.13
45.703,-26.55
45.718,-27.55
45.734,-28.16
45.750,-28.25
45.765,-27.57
45.781,-25.93
45.796,-23.37
45.812,-20.15
45.828,-16.67
45.843,-13.25
45.859,-10.1
45.875,-7.28
45.890,-4.75
45.906,-2.44
45.921,-0.26
45.937,1.91
45.953,4.27
45.968,7.04
45.984,10.47
46.000,14.65
46.015,19.47
46.031,24.58
46.046,29.43
46.062,33.37
46.078,35.79
46.093,36.24
46.109,34.53
46.125,30.8
46.140,25.45
46.156,19.0
46.171,12.0
46.187,4.82
46.203,-2.34
46.218,-9.44
46.234,-16.51
46.250,-23.53
46.265,-30.27
46.281,-36.32
46.296,-41.11
46.312,-44.1
46.328,-44.98
46.343,-43.74
46.359,-40.78
46.375,-36.73
46.390,-32.24
46.406,-27.82
46.421,-23.66
46.437,-19.61
46.453,-15.31
46.468,-10.37
46.484,-4.56
46.500,1.88
46.515,8.18
46.531,12.95
46.546,14.54
46.562,11.56
46.578,3.54
46.593,-8.64
46.609,-22.82
46.625,-36.19
46.640,-46.28
46.656,-51.83
46.671,-53.09
46.687,-51.49
46.703,-48.81
46.718,-46.41
46.734,-44.92
46.750,-44.36
46.765,-44.59
46.781,-45.66
46.796,-47.67
46.812,-50.54
46.828,-53.66
46.843,-55.95
46.859,-56.15
46.875,-53.36
46.890,-47.44
46.906,-39.03
46.921,-29.43
46.937,-20.06
46.953,-12.07
46.968,-6.1
46.984,-2.22
47.000,-0.02
47.015,1.11
47.031,1.84
47.046,2.76
47.062,4.34
47.078,6.98
47.093,10.94
47.109,16.32
47.125,22.89
47.140,30.08
47.156,37.05
47.171,42.96
47.187,47.29
47.203,49.9
47.218,51.04
47.234,51.16
47.250,50.69
47.265,49.94
47.281,49.12
47.296,48.41
47.312,47.99
47.328,47.97
47.343,48.24
47.359,48.5
47.375,48.25
47.390,46.97
47.406,44.39
47.421,40.54
47.437,35.76
47.453,30.55
47.468,25.46
47.484,20.83
47.500,16.86
47.515,13.55
47.531,10.68
47.546,7.99
47.562,5.16
47.578,1.96
47.593,-1.69
47.609,-5.64
47.625,-9.53
47.640,-12.87
47.656,-15.14
47.671,-15.92
47.687,-14.96
47.703,-12.32
47.718,-8.33
47.734,-3.52
47.750,1.52
47.765,6.34
47.781,10.65
47.796,14.4
47.812,17.64
47.828,20.42
47.843,22.7
47.859,24.27
47.875,24.9
47.890,24.42
47.906,22.8
47.921,20.22
47.937,16.97
47.953,13.37
47.968,9.74
47.984,6.27
48.000,3.07
48.015,0.18
48.031,-2.43
48.046,-4.73
48.062,-6.67
48.078,-8.19
48.093,-9.23
48.109,-9.84
48.125,-10.1
48.140,-10.08
48.156,-9.82
48.171,-9.34
48.187,-8.68
48.203,-8.03
48.218,-7.64
48.234,-7.74
48.250,-8.35
48.265,-9.05
48.281,-9.05
48.296,-7.49
48.312,-3.77
48.328,2.18
48.343,9.79
48.359,18.1
48.375,26.08
48.390,32.98
48.406,38.52
48.421,42.77
48.437,46.09
48.453,48.81
48.468,51.21
48.484,53.45
48.500,55.59
48.515,57.65
48.531,59.62
48.546,61.47
48.562,63.15
48.578,64.56
48.593,65.68
48.609,66.54
48.625,67.2
48.640,67.77
48.656,68.24
48.671,68.51
48.687,68.38
48.703,67.69
48.718,66.45
48.734,64.83
48.750,63.24
48.765,62.08
48.781,61.54
48.796,61.56
48.812,61.73
48.828,61.53
48.843,60.49
48.859,58.44
48.875,55.55
48.890,52.43
48.906,49.91
48.921,48.82
48.937,49.76
48.953,52.85
48.968,57.81
48.984,64.06
49.000,71.06
49.015,78.55
49.031,86.59
49.046,95.29
49.062,104.36
49.078,112.88
49.093,119.39
49.109,122.4
49.125,120.89
49.140,114.57
49.156,103.72
49.171,88.95
49.187,71.1
49.203,51.34
49.218,31.44
49.234,13.66
49.250,0.28
49.265,-7.21
49.281,-8.76
49.296,-5.72
49.312,-0.12
49.328,6.42
49.343,13.44
49.359,21.33
49.375,30.29
49.390,39.31
49.406,45.7
49.421,45.79
49.437,36.25
49.453,15.26
49.468,-17.1
49.484,-59.3
49.500,-108.99
49.515,-163.37
49.531,-218.78
49.546,-270.52
49.562,-313.03
49.578,-340.98
49.593,-350.93
49.609,-342.58
49.625,-318.99
49.640,-285.66
49.656,-248.89
49.671,-214.05
49.687,-184.61
49.703,-161.77
49.718,-144.71
49.734,-131.29
49.750,-118.87
49.765,-105.16
49.781,-88.79
49.796,-69.38
49.812,-47.25
49.828,-22.94
49.843,3.19
49.859,30.93
49.875,59.88
49.890,89.25
49.906,117.82
49.921,144.27
49.937,167.4
49.953,186.19
49.968,199.77
49.984,207.48
50.000,209.16
50.015,205.22
50.031,196.48
50.046,183.42
50.062,165.76
50.078,142.71
50.093,114.1
50.109,81.62
50.125,49.42
50.140,23.15
50.156,7.86
50.171,5.51
50.187,13.64
50.203,25.99
50.218,34.75
50.234,33.48
50.250,19.23
50.265,-7.02
50.281,-41.38
50.296,-78.94
50.312,-115.27
50.328,-147.25
50.343,-172.91
50.359,-190.93
50.375,-200.25
50.390,-199.97
50.406,-189.87
50.421,-170.95
50.437,-145.59
50.453,-117.06
50.468,-88.7
50.484,-63.05
50.500,-41.38
50.515,-23.92
50.531,-10.46
50.546,-1.11
50.562,3.43
50.578,2.07
50.593,-5.68
50.609,-18.89
50.625,-34.77
50.640,-49.13
50.656,-57.67
50.671,-57.52
50.687,-48.42
50.703,-32.7
50.718,-14.35
50.734,2.7
50.750,15.95
50.765,24.81
50.781,30.08
50.796,32.91
50.812,33.93
50.828,33.09
50.843,30.18
50.859,25.34
50.875,19.27
50.890,12.82
50.906,6.37
50.921,-0.5
50.937,-8.82
50.953,-19.5
50.968,-32.57
50.984,-46.97
51.000,-60.85
51.015,-72.27
51.031,-79.89
51.046,-83.31
51.062,-82.94
51.078,-79.62
51.093,-74.3
51.109,-67.66
51.125,-60.19
51.140,-52.23
51.156,-44.0
51.171,-35.7
51.187,-27.53
51.203,-19.69
51.218,-12.4
51.234,-5.86
51.250,-0.21
51.265,4.4
51.281,7.86
51.296,10.05
51.312,10.92
51.328,10.58
51.343,9.38
51.359,7.97
51.375,7.13
51.390,7.52
51.406,9.4
51.421,12.46
51.437,15.98
51.453,18.96
51.468,20.62
51.484,20.63
51.500,19.25
51.515,17.02
51.531,14.6
51.546,12.39
51.562,10.46
51.578,8.58
51.593,6.48
51.609,4.07
51.625,1.54
51.640,-0.7
51.656,-2.21
51.671,-2.76
51.687,-2.54
51.703,-2.19
51.718,-2.74
51.734,-5.19
51.750,-10.2
51.765,-17.63
51.781,-26.45
51.796,-34.91
51.812,-41.1
51.828,-43.66
51.843,-42.31
51.859,-37.98
51.875,-32.45
51.890,-27.78
51.906,-25.53
51.921,-26.46
51.937,-30.28
51.953,-35.86
51.968,-41.58
51.984,-45.75
52.000,-47.01
52.015,-44.73
52.031,-39.18
52.046,-31.45
52.062,-23.06
52.078,-15.38
52.093,-9.04
52.109,-3.86
52.125,0.96
52.140,6.31
52.156,12.64
52.171,19.8
52.187,27.24
52.203,34.38
52.218,40.93
52.234,46.99
52.250,52.73
52.265,58.12
52.281,62.77
52.296,66.05
52.312,67.47
52.328,67.12
52.343,65.75
52.359,64.46
52.375,64.09
52.390,64.67
52.406,65.22
52.421,64.11
52.437,59.79
52.453,51.62
52.468,40.13
52.484,26.82
52.500,13.48
52.515,1.47
52.531,-8.62
52.546,-16.85
52.562,-23.56
52.578,-28.88
52.593,-32.64
52.609,-34.52
52.625,-34.38
52.640,-32.46
52.656,-29.33
52.671,-25.71
52.687,-22.21
52.703,-19.21
52.718,-16.87
52.734,-15.18
52.750,-14.07
52.765,-13.45
52.781,-13.19
52.796,-13.16
52.812,-13.24
52.828,-13.28
52.843,-13.2
52.859,-12.83
52.875,-12.05
52.890,-10.85
52.906,-9.41
52.921,-8.14
52.937,-7.49
52.953,-7.8
52.968,-9.0
52.984,-10.67
53.000,-12.2
53.015,-13.03
53.031,-13.0
53.046,-12.29
53.062,-11.36
53.078,-10.54
53.093,-9.9
53.109,-9.18
53.125,-8.08
53.140,-6.47
53.156,-4.53
53.171,-2.68
53.187,-1.32
53.203,-0.6
53.218,-0.34
53.234,-0.2
53.250,0.11
53.265,0.59
53.281,1.0
53.296,1.04
53.312,0.58
53.328,-0.29
53.343,-1.29
53.359,-2.17
53.375,-2.81
53.390,-3.26
53.406,-3.58
53.421,-3.83
53.437,-3.97
53.453,-3.97
53.468,-3.86
53.484,-3.81
53.500,-4.11
53.515,-5.03
53.531,-6.77
53.546,-9.38
53.562,-12.72
53.578,-16.54
53.593,-20.56
53.609,-24.55
53.625,-28.37
53.640,-31.94
53.656,-35.16
53.671,-37.81
53.687,-39.54
53.703,-40.04
53.718,-39.18
53.734,-37.21
53.750,-34.75
53.765,-32.62
53.781,-31.65
53.796,-32.25
53.812,-34.27
53.828,-36.98
53.843,-39.36
53.859,-40.43
53.875,-39.62
53.890,-36.88
53.906,-32.59
53.921,-27.33
53.937,-21.55
53.953,-15.5
53.968,-9.26
53.984,-2.94
54.000,3.12
54.015,8.43
54.031,12.51
54.046,15.12
54.062,16.44
54.078,16.99
54.093,17.39
54.109,18.05
54.125,19.07
54.140,20.28
54.156,21.44
54.171,22.42
54.187,23.28
54.203,24.11
54.218,24.93
54.234,25.6
54.250,25.8
54.265,25.32
54.281,24.05
54.296,22.16
54.312,19.97
54.328,17.81
54.343,15.84
54.359,14.09
54.375,12.45
54.390,10.77
54.406,9.02
54.421,7.17
54.437,5.24
54.453,3.26
54.468,1.3
54.484,-0.51
54.500,-1.91
54.515,-2.56
54.531,-2.06
54.546,-0.19
54.562,3.07
54.578,7.46
54.593,12.45
54.609,17.39
54.625,21.74
54.640,25.13
54.656,27.44
54.671,28.79
54.687,29.35
54.703,29.32
54.718,28.81
54.734,27.92
54.750,26.78
54.765,25.6
54.781,24.67
54.796,24.25
54.812,24.54
54.828,25.55
54.843,27.12
54.859,29.06
54.875,31.16
54.890,33.37
54.906,35.72
54.921,38.24
54.937,40.92
54.953,43.7
54.968,46.47
54.984,49.13
55.000,51.6
55.015,53.86
55.031,55.88
55.046,57.6
55.062,58.92
55.078,59.73
55.093,59.92
55.109,59.47
55.125,58.39
55.140,56.75
55.156,54.56
55.171,51.79
55.187,48.33
55.203,43.93
55.218,38.3
55.234,31.06
55.250,21.96
55.265,11.06
55.281,-1.26
55.296,-14.14
55.312,-26.48
55.328,-37.15
55.343,-45.3
55.359,-50.51
55.375,-52.88
55.390,-52.86
55.406,-51.05
55.421,-48.11
55.437,-44.67
55.453,-41.41
55.468,-38.96
55.484,-37.85
55.500,-38.3
55.515,-40.08
55.531,-42.61
55.546,-45.12
55.562,-46.96
55.578,-47.84
55.593,-47.97
55.609,-47.84
55.625,-48.01
55.640,-48.84
55.656,-50.38
55.671,-52.37
55.687,-54.35
55.703,-55.79
55.718,-56.16
55.734,-55.11
55.750,-52.53
55.765,-48.48
55.781,-43.28
55.796,-37.28
55.812,-30.83
55.828,-24.21
55.843,-17.73
55.859,-11.71
55.875,-6.48
55.890,-2.3
55.906,0.84
55.921,3.13
55.937,4.9
55.953,6.45
55.968,7.89
55.984,9.18
56.000,10.3
56.015,11.34
56.031,12.52
56.046,14.18
56.062,16.46
56.078,19.28
56.093,22.28
56.109,24.97
56.125,26.97
56.140,28.06
56.156,28.31
56.171,27.96
56.187,27.3
56.203,26.55
56.218,25.72
56.234,24.69
56.250,23.26
56.265,21.37
56.281,19.13
56.296,16.82
56.312,14.8
56.328,13.4
56.343,12.74
56.359,12.81
56.375,13.51
56.390,14.71
56.406,16.33
56.421,18.25
56.437,20.28
56.453,22.11
56.468,23.38
56.484,23.81
56.500,23.32
56.515,22.06
56.531,20.33
56.546,18.52
56.562,16.95
56.578,15.81
56.593,15.14
56.609,14.92
56.625,15.04
56.640,15.4
56.656,15.83
56.671,16.07
56.687,15.88
56.703,15.09
56.718,13.66
56.734,11.77
56.750,9.67
56.765,7.63
56.781,5.82
56.796,4.28
56.812,2.88
56.828,1.46
56.843,-0.07
56.859,-1.68
56.875,-3.17
56.890,-4.2
56.906,-4.35
56.921,-3.24
56.937,-0.68
56.953,3.21
56.968,8.05
56.984,13.26
57.000,18.26
57.015,22.61
57.031,26.05
57.046,28.5
57.062,29.91
57.078,30.22
57.093,29.39
57.109,27.4
57.125,24.43
57.140,20.77
57.156,16.93
57.171,13.46
57.187,10.83
57.203,9.23
57.218,8.6
57.234,8.51
57.250,8.38
57.265,7.63
57.281,5.91
57.296,3.21
57.312,-0.21
57.328,-4.07
57.343,-8.19
57.359,-12.67
57.375,-17.73
57.390,-23.56
57.406,-30.08
57.421,-36.98
57.437,-43.82
57.453,-50.24
57.468,-56.02
57.484,-61.04
57.500,-65.1
57.515,-67.74
57.531,-68.37
57.546,-66.41
57.562,-61.63
57.578,-54.27
57.593,-45.07
57.609,-35.02
57.625,-25.05
57.640,-15.91
57.656,-8.03
57.671,-1.61
57.687,3.3
57.703,6.8
57.718,9.12
57.734,10.61
57.750,11.69
57.765,12.77
57.781,14.1
57.796,15.76
57.812,17.72
57.828,19.85
57.843,22.05
57.859,24.25
57.875,26.41
57.890,28.49
57.906,30.43
57.921,32.14
57.937,33.47
57.953,34.32
57.968,34.52
57.984,33.98
58.000,32.7
58.015,30.74
58.031,28.36
58.046,25.87
58.062,23.58
58.078,21.73
58.093,20.4
58.109,19.44
58.125,18.58
58.140,17.49
58.156,16.0
58.171,14.2
58.187,12.47
58.203,11.36
58.218,11.29
58.234,12.41
58.250,14.43
58.265,16.8
58.281,18.95
58.296,20.51
58.312,21.41
58.328,21.78
58.343,21.79
58.359,21.46
58.375,20.68
58.390,19.23
58.406,17.01
58.421,14.11
58.437,10.81
58.453,7.53
58.468,4.64
58.484,2.43
58.500,0.96
58.515,0.13
58.531,-0.27
58.546,-0.4
58.562,-0.33
58.578,0.01
58.593,0.8
58.609,2.13
58.625,3.98
58.640,6.15
58.656,8.34
58.671,10.32
58.687,12.04
58.703,13.59
58.718,15.16
58.734,16.86
58.750,18.67
58.765,20.43
58.781,21.89
58.796,22.94
58.812,23.58
58.828,23.98
58.843,24.33
58.859,24.66
58.875,24.8
58.890,24.34
58.906,22.8
58.921,19.72
58.937,14.98
58.953,8.78
58.968,1.74
58.984,-5.38
59.000,-11.89
59.015,-17.38
59.031,-21.79
59.046,-25.37
59.062,-28.44
59.078,-31.25
59.093,-33.79
59.109,-35.9
59.125,-37.4
59.140,-38.23
59.156,-38.55
59.171,-38.58
59.187,-38.52
59.203,-38.4
59.218,-38.09
59.234,-37.49
59.250,-36.62
59.265,-35.67
59.281,-34.87
59.296,-34.46
59.312,-34.49
59.328,-34.88
59.343,-35.48
59.359,-36.11
59.375,-36.61
59.390,-36.92
59.406,-36.93
59.421,-36.59
59.437,-35.85
59.453,-34.71
59.468,-33.22
59.484,-31.48
59.500,-29.66
59.515,-27.9
59.531,-26.38
59.546,-25.12
59.562,-23.97
59.578,-22.58
59.593,-20.56
59.609,-17.56
59.625,-13.57
59.640,-8.83
59.656,-3.73
59.671,1.37
59.687,6.25
59.703,10.88
59.718,15.26
59.734,19.3
59.750,22.83
59.765,25.57
59.781,27.38
59.796,28.36
59.812,28.83
59.828,29.2
59.843,29.86
59.859,30.97
59.875,32.53
59.890,34.4
59.906,36.4
59.921,38.39
59.937,40.36
59.953,42.36
59.968,44.43
59.984,46.58
