timestamp,value
00.000,55.71
00.015,61.68
00.031,67.39
00.046,73.11
00.062,78.86
00.078,84.51
00.093,89.86
00.109,94.74
00.125,99.1
00.140,102.88
00.156,105.97
00.171,108.15
00.187,109.17
00.203,108.94
00.218,107.59
00.234,105.46
00.250,103.03
00.265,100.7
00.281,98.74
00.296,97.18
00.312,95.96
00.328,95.01
00.343,94.27
00.359,93.68
00.375,93.16
00.390,92.6
00.406,91.81
00.421,90.51
00.437,88.41
00.453,85.27
00.468,80.99
00.484,75.75
00.500,69.94
00.515,64.07
00.531,58.57
00.546,53.64
00.562,49.28
00.578,45.47
00.593,42.36
00.609,40.33
00.625,39.8
00.640,41.03
00.656,43.73
00.671,47.05
00.687,49.83
00.703,50.88
00.718,49.48
00.734,45.68
00.750,40.19
00.765,34.29
00.781,29.51
00.796,27.2
00.812,28.07
00.828,31.79
00.843,36.6
00.859,39.43
00.875,36.59
00.890,24.94
00.906,3.23
00.921,-27.12
00.937,-62.14
00.953,-96.49
00.968,-125.04
00.984,-144.39
01.000,-153.49
01.015,-153.3
01.031,-145.88
01.046,-133.35
01.062,-117.37
01.078,-99.22
01.093,-80.11
01.109,-61.53
01.125,-45.28
01.140,-33.06
01.156,-26.0
01.171,-24.14
01.187,-26.26
01.203,-30.13
01.218,-33.13
01.234,-33.07
01.250,-28.91
01.265,-21.18
01.281,-11.88
01.296,-3.98
01.312,-0.5
01.328,-3.47
01.343,-13.2
01.359,-27.94
01.375,-44.32
01.390,-58.17
01.406,-65.72
01.421,-64.61
01.437,-54.77
01.453,-38.56
01.468,-20.25
01.484,-4.79
01.500,3.79
01.515,3.84
01.531,-3.14
01.546,-13.11
01.562,-20.96
01.578,-22.39
01.593,-15.19
01.609,0.57
01.625,23.37
01.640,51.05
01.656,81.15
01.671,110.5
01.687,134.9
01.703,149.55
01.718,150.61
01.734,137.15
01.750,112.08
01.765,81.24
01.781,51.33
01.796,27.58
01.812,12.7
01.828,7.15
01.843,10.08
01.859,19.87
01.875,33.87
01.890,47.98
01.906,56.97
01.921,56.0
01.937,42.58
01.953,17.71
01.968,-14.2
01.984,-46.96
02.000,-74.71
02.015,-93.61
02.031,-102.47
02.046,-102.77
02.062,-97.82
02.078,-91.88
02.093,-89.02
02.109,-91.97
02.125,-101.43
02.140,-115.9
02.156,-132.33
02.171,-147.2
02.187,-157.58
02.203,-161.92
02.218,-160.41
02.234,-154.93
02.250,-148.59
02.265,-144.92
02.281,-146.58
02.296,-154.25
02.312,-166.11
02.328,-178.36
02.343,-186.73
02.359,-188.06
02.375,-181.38
02.390,-167.78
02.406,-149.69
02.421,-129.76
02.437,-110.23
02.453,-92.69
02.468,-78.09
02.484,-66.81
02.500,-58.6
02.515,-52.62
02.531,-47.6
02.546,-42.22
02.562,-35.53
02.578,-27.27
02.593,-17.88
02.609,-8.36
02.625,0.16
02.640,6.72
02.656,10.79
02.671,12.36
02.687,11.81
02.703,9.71
02.718,6.65
02.734,3.13
02.750,-0.49
02.765,-3.98
02.781,-7.22
02.796,-10.25
02.812,-13.26
02.828,-16.56
02.843,-20.56
02.859,-25.68
02.875,-32.33
02.890,-40.84
02.906,-51.26
02.921,-63.19
02.937,-75.51
02.953,-86.32
02.968,-93.25
02.984,-94.09
03.000,-87.57
03.015,-73.92
03.031,-54.88
03.046,-33.22
03.062,-11.79
03.078,7.26
03.093,22.84
03.109,34.87
03.125,43.76
03.140,49.91
03.156,53.55
03.171,54.75
03.187,53.82
03.203,51.43
03.218,48.66
03.234,46.78
03.250,46.7
03.265,48.72
03.281,52.3
03.296,56.37
03.312,59.69
03.328,61.44
03.343,61.45
03.359,60.23
03.375,58.7
03.390,57.65
03.406,57.53
03.421,58.16
03.437,59.02
03.453,59.52
03.468,59.25
03.484,58.02
03.500,55.82
03.515,52.44
03.531,47.5
03.546,40.42
03.562,30.76
03.578,18.49
03.593,4.18
03.609,-11.09
03.625,-25.96
03.640,-39.02
03.656,-49.01
03.671,-54.92
03.687,-55.93
03.703,-51.6
03.718,-41.96
03.734,-27.65
03.750,-9.93
03.765,9.45
03.781,28.65
03.796,46.05
03.812,60.6
03.828,71.91
03.843,80.11
03.859,85.74
03.875,89.44
03.890,91.89
03.906,93.62
03.921,95.08
03.937,96.69
03.953,98.84
03.968,101.88
03.984,105.98
04.000,110.98
04.015,116.22
04.031,120.58
04.046,122.78
04.062,121.93
04.078,117.87
04.093,111.4
04.109,103.95
04.125,97.02
04.140,91.8
04.156,89.02
04.171,89.21
04.187,92.84
04.203,100.18
04.218,110.96
04.234,124.21
04.250,138.34
04.265,151.54
04.281,162.18
04.296,168.85
04.312,170.0
04.328,163.88
04.343,148.8
04.359,124.09
04.375,90.87
04.390,52.38
04.406,13.31
04.421,-21.31
04.437,-47.31
04.453,-62.33
04.468,-66.25
04.484,-61.29
04.500,-51.58
04.515,-42.17
04.531,-37.68
04.546,-40.96
04.562,-52.23
04.578,-69.34
04.593,-88.58
04.609,-105.69
04.625,-116.69
04.640,-118.6
04.656,-110.3
04.671,-93.29
04.687,-72.04
04.703,-53.04
04.718,-42.74
04.734,-45.02
04.750,-59.67
04.765,-82.63
04.781,-107.81
04.796,-129.19
04.812,-142.35
04.828,-145.12
04.843,-137.71
04.859,-122.81
04.875,-105.38
04.890,-91.78
04.906,-87.97
04.921,-97.41
04.937,-119.6
04.953,-150.15
04.968,-182.4
04.984,-209.74
05.000,-227.71
05.015,-235.17
05.031,-234.48
05.046,-230.66
05.062,-230.01
05.078,-238.04
05.093,-257.53
05.109,-287.4
05.125,-322.79
05.140,-356.86
05.156,-383.1
05.171,-397.34
05.187,-398.2
05.203,-386.51
05.218,-364.07
05.234,-332.87
05.250,-294.85
05.265,-252.22
05.281,-207.47
05.296,-162.94
05.312,-120.37
05.328,-80.6
05.343,-43.63
05.359,-9.08
05.375,23.22
05.390,53.1
05.406,80.0
05.421,103.38
05.437,122.88
05.453,138.51
05.468,150.53
05.484,159.14
05.500,164.42
05.515,166.25
05.531,164.5
05.546,159.32
05.562,151.31
05.578,141.64
05.593,131.86
05.609,123.46
05.625,117.22
05.640,112.6
05.656,107.66
05.671,99.68
05.687,86.32
05.703,66.7
05.718,41.97
05.734,14.8
05.750,-11.64
05.765,-34.94
05.781,-53.9
05.796,-68.24
05.812,-77.93
05.828,-82.58
05.843,-81.57
05.859,-74.63
05.875,-62.43
05.890,-46.65
05.906,-29.47
05.921,-12.65
05.937,3.04
05.953,17.73
05.968,31.96
05.984,45.93
06.000,59.13
06.015,70.36
06.031,78.24
06.046,81.77
06.062,80.83
06.078,76.27
06.093,69.7
06.109,62.93
06.125,57.42
06.140,53.88
06.156,52.11
06.171,51.28
06.187,50.37
06.203,48.55
06.218,45.5
06.234,41.32
06.250,36.45
06.265,31.39
06.281,26.6
06.296,22.42
06.312,19.15
06.328,17.03
06.343,16.2
06.359,16.57
06.375,17.59
06.390,18.19
06.406,16.83
06.421,11.85
06.437,2.08
06.453,-12.72
06.468,-31.35
06.484,-51.28
06.500,-69.08
06.515,-81.21
06.531,-85.03
06.546,-79.41
06.562,-65.04
06.578,-44.1
06.593,-19.57
06.609,5.63
06.625,29.32
06.640,50.5
06.656,69.25
06.671,86.41
06.687,103.09
06.703,120.04
06.718,137.25
06.734,153.65
06.750,167.37
06.765,176.33
06.781,179.12
06.796,175.68
06.812,167.49
06.828,157.19
06.843,147.65
06.859,141.1
06.875,138.47
06.890,139.29
06.906,141.96
06.921,144.44
06.937,144.82
06.953,141.87
06.968,135.22
06.984,125.44
07.000,113.78
07.015,101.78
07.031,90.64
07.046,80.86
07.062,72.14
07.078,63.7
07.093,54.78
07.109,44.96
07.125,34.05
07.140,21.69
07.156,7.01
07.171,-11.28
07.187,-34.18
07.203,-61.41
07.218,-90.71
07.234,-118.07
07.250,-138.75
07.265,-149.1
07.281,-147.89
07.296,-136.72
07.312,-119.24
07.328,-99.64
07.343,-81.1
07.359,-65.06
07.375,-51.42
07.390,-39.23
07.406,-27.64
07.421,-16.27
07.437,-5.3
07.453,4.78
07.468,13.32
07.484,19.54
07.500,22.54
07.515,21.33
07.531,15.15
07.546,3.84
07.562,-11.83
07.578,-30.27
07.593,-49.42
07.609,-67.32
07.625,-82.49
07.640,-94.19
07.656,-102.11
07.671,-106.17
07.687,-106.28
07.703,-102.31
07.718,-94.23
07.734,-82.37
07.750,-67.53
07.765,-51.03
07.781,-34.51
07.796,-19.6
07.812,-7.56
07.828,1.02
07.843,6.26
07.859,8.87
07.875,9.93
07.890,10.53
07.906,11.59
07.921,13.75
07.937,17.4
07.953,22.61
07.968,29.21
07.984,36.69
08.000,44.26
08.015,51.03
08.031,56.25
08.046,59.48
08.062,60.8
08.078,60.65
08.093,59.68
08.109,58.48
08.125,57.48
08.140,56.94
08.156,57.07
08.171,58.1
08.187,60.33
08.203,64.06
08.218,69.51
08.234,76.76
08.250,85.62
08.265,95.61
08.281,105.83
08.296,114.99
08.312,121.55
08.328,124.12
08.343,121.97
08.359,115.39
08.375,105.69
08.390,94.78
08.406,84.64
08.421,76.82
08.437,72.11
08.453,70.64
08.468,72.0
08.484,75.34
08.500,79.41
08.515,82.67
08.531,83.54
08.546,80.81
08.562,74.09
08.578,64.08
08.593,52.45
08.609,41.4
08.625,33.0
08.640,28.55
08.656,28.17
08.671,30.79
08.687,34.45
08.703,36.95
08.718,36.48
08.734,32.26
08.750,24.89
08.765,16.23
08.781,9.03
08.796,6.17
08.812,10.07
08.828,22.04
08.843,42.03
08.859,68.57
08.875,99.18
08.890,130.88
08.906,161.0
08.921,187.67
08.937,210.07
08.953,228.28
08.968,242.84
08.984,254.31
09.000,262.71
09.015,267.42
09.031,267.21
09.046,260.7
09.062,246.95
09.078,226.02
09.093,199.18
09.109,168.56
09.125,136.55
09.140,105.02
09.156,74.81
09.171,45.76
09.187,17.1
09.203,-12.11
09.218,-42.61
09.234,-74.83
09.250,-108.48
09.265,-142.27
09.281,-173.78
09.296,-199.87
09.312,-217.7
09.328,-226.07
09.343,-226.03
09.359,-220.53
09.375,-213.17
09.390,-206.61
09.406,-201.63
09.421,-197.38
09.437,-192.42
09.453,-185.99
09.468,-178.66
09.484,-171.97
09.500,-167.64
09.515,-166.61
09.531,-168.75
09.546,-173.12
09.562,-178.61
09.578,-184.44
09.593,-190.4
09.609,-196.72
09.625,-203.54
09.640,-210.44
09.656,-216.16
09.671,-218.84
09.687,-216.56
09.703,-208.19
09.718,-193.93
09.734,-175.43
09.750,-155.17
09.765,-135.53
09.781,-118.05
09.796,-103.02
09.812,-89.93
09.828,-78.27
09.843,-68.26
09.859,-60.94
09.875,-57.71
09.890,-59.41
09.906,-65.49
09.921,-74.02
09.937,-82.27
09.953,-87.69
09.968,-88.76
09.984,-85.15
10.000,-77.52
10.015,-66.95
10.031,-54.43
10.046,-40.75
10.062,-26.44
10.078,-11.94
10.093,2.36
10.109,16.05
10.125,28.73
10.140,39.83
10.156,48.66
10.171,54.47
10.187,56.73
10.203,55.38
10.218,50.92
10.234,44.3
10.250,36.46
10.265,28.08
10.281,19.37
10.296,10.12
10.312,0.05
10.328,-11.03
10.343,-23.07
10.359,-35.68
10.375,-48.08
10.390,-59.2
10.406,-67.69
10.421,-72.17
10.437,-71.63
10.453,-65.74
10.468,-55.09
10.484,-40.94
10.500,-25.0
10.515,-8.9
10.531,6.04
10.546,18.93
10.562,29.21
10.578,36.64
10.593,41.18
10.609,43.04
10.625,42.68
10.640,40.72
10.656,37.86
10.671,34.75
10.687,31.95
10.703,29.89
10.718,28.79
10.734,28.74
10.750,29.71
10.765,31.68
10.781,34.78
10.796,39.18
10.812,45.09
10.828,52.46
10.843,60.9
10.859,69.63
10.875,77.62
10.890,83.9
10.906,87.85
10.921,89.36
10.937,88.86
10.953,87.15
10.968,85.17
10.984,83.64
11.000,82.82
11.015,82.36
11.031,81.43
11.046,79.08
11.062,74.61
11.078,67.91
11.093,59.6
11.109,50.8
11.125,42.75
11.140,36.42
11.156,32.25
11.171,30.22
11.187,29.99
11.203,31.21
11.218,33.7
11.234,37.5
11.250,42.69
11.265,49.22
11.281,56.78
11.296,64.82
11.312,72.79
11.328,80.33
11.343,87.42
11.359,94.33
11.375,101.42
11.390,108.87
11.406,116.66
11.421,124.54
11.437,132.17
11.453,139.06
11.468,144.55
11.484,147.72
11.500,147.52
11.515,143.04
11.531,133.97
11.546,120.8
11.562,104.72
11.578,87.22
11.593,69.69
11.609,53.18
11.625,38.58
11.640,26.76
11.656,18.59
11.671,14.55
11.687,14.36
11.703,16.96
11.718,21.04
11.734,25.83
11.750,31.54
11.765,38.76
11.781,47.64
11.796,56.7
11.812,62.63
11.828,61.27
11.843,49.08
11.859,24.25
11.875,-13.02
11.890,-61.11
11.906,-117.3
11.921,-177.52
11.937,-235.57
11.953,-282.88
11.968,-309.85
11.984,-309.02
12.000,-278.65
12.015,-224.77
12.031,-160.03
12.046,-99.52
12.062,-55.28
12.078,-32.44
12.093,-28.43
12.109,-35.62
12.125,-45.53
12.140,-52.38
12.156,-54.33
12.171,-52.38
12.187,-48.26
12.203,-42.64
12.218,-34.88
12.234,-23.78
12.250,-8.84
12.265,8.89
12.281,27.11
12.296,43.03
12.312,54.31
12.328,59.65
12.343,58.93
12.359,52.8
12.375,42.26
12.390,28.1
12.406,10.76
12.421,-9.4
12.437,-31.43
12.453,-53.3
12.468,-71.81
12.484,-83.5
12.500,-86.1
12.515,-79.96
12.531,-68.49
12.546,-57.39
12.562,-52.7
12.578,-58.61
12.593,-76.07
12.609,-102.46
12.625,-132.57
12.640,-160.08
12.656,-179.22
12.671,-186.04
12.687,-179.15
12.703,-159.93
12.718,-132.07
12.734,-100.51
12.750,-70.12
12.765,-44.45
12.781,-25.02
12.796,-11.23
12.812,-0.97
12.828,8.4
12.843,18.98
12.859,31.45
12.875,44.66
12.890,55.9
12.906,61.89
12.921,60.0
12.937,49.41
12.953,31.4
12.968,8.87
12.984,-14.81
13.000,-36.77
13.015,-55.19
13.031,-69.17
13.046,-78.27
13.062,-82.31
13.078,-81.56
13.093,-77.14
13.109,-71.21
13.125,-66.47
13.140,-65.32
13.156,-68.83
13.171,-76.27
13.187,-85.52
13.203,-94.01
13.218,-99.82
13.234,-102.34
13.250,-102.32
13.265,-101.38
13.281,-101.25
13.296,-103.14
13.312,-107.3
13.328,-112.88
13.343,-118.13
13.359,-120.79
13.375,-118.84
13.390,-111.16
13.406,-98.11
13.421,-81.41
13.437,-63.6
13.453,-46.96
13.468,-32.72
13.484,-20.77
13.500,-10.05
13.515,0.57
13.531,11.58
13.546,22.62
13.562,32.76
13.578,41.1
13.593,47.18
13.609,51.07
13.625,53.29
13.640,54.53
13.656,55.49
13.671,56.62
13.687,57.96
13.703,59.07
13.718,59.22
13.734,57.87
13.750,55.01
13.765,51.37
13.781,48.13
13.796,46.27
13.812,45.97
13.828,46.39
13.843,46.13
13.859,43.97
13.875,39.6
13.890,33.77
13.906,27.86
13.921,23.1
13.937,19.95
13.953,17.9
13.968,15.88
13.984,12.77
14.000,7.97
14.015,1.68
14.031,-5.16
14.046,-11.11
14.062,-14.62
14.078,-14.32
14.093,-9.33
14.109,0.62
14.125,15.15
14.140,33.35
14.156,54.06
14.171,76.12
14.187,98.52
14.203,120.36
14.218,140.71
14.234,158.46
14.250,172.42
14.265,181.59
14.281,185.59
14.296,184.94
14.312,180.99
14.328,175.53
14.343,170.34
14.359,166.76
14.375,165.71
14.390,167.64
14.406,172.73
14.421,180.68
14.437,190.7
14.453,201.33
14.468,210.79
14.484,217.33
14.500,219.84
14.515,218.0
14.531,212.23
14.546,203.32
14.562,192.0
14.578,178.74
14.593,163.66
14.609,146.44
14.625,126.48
14.640,102.96
14.656,75.3
14.671,43.61
14.687,9.14
14.703,-25.77
14.718,-58.23
14.734,-85.8
14.750,-107.28
14.765,-122.99
14.781,-134.44
14.796,-143.36
14.812,-151.0
14.828,-157.68
14.843,-162.92
14.859,-165.53
14.875,-163.84
14.890,-155.85
14.906,-139.89
14.921,-115.61
14.937,-85.03
14.953,-52.88
14.968,-25.54
14.984,-9.03
15.000,-6.61
15.015,-17.5
15.031,-37.24
15.046,-59.69
15.062,-79.38
15.078,-93.17
15.093,-100.47
15.109,-102.18
15.125,-99.44
15.140,-92.77
15.156,-82.27
15.171,-68.21
15.187,-51.62
15.203,-34.23
15.218,-18.04
15.234,-4.55
15.250,5.65
15.265,12.93
15.281,18.19
15.296,22.35
15.312,25.92
15.328,28.94
15.343,31.14
15.359,32.25
15.375,32.36
15.390,31.89
15.406,31.47
15.421,31.64
15.437,32.43
15.453,33.36
15.468,33.54
15.484,32.05
15.500,28.39
15.515,22.76
15.531,16.03
15.546,9.51
15.562,4.48
15.578,1.73
15.593,1.47
15.609,3.37
15.625,6.89
15.640,11.72
15.656,18.09
15.671,26.54
15.687,37.43
15.703,50.23
15.718,63.17
15.734,73.67
15.750,79.24
15.765,78.79
15.781,73.23
15.796,65.19
15.812,57.99
15.828,54.3
15.843,55.33
15.859,60.85
15.875,69.82
15.890,81.03
15.906,93.26
15.921,105.11
15.937,114.69
15.953,119.78
15.968,118.47
15.984,110.1
16.000,95.84
16.015,78.39
16.031,60.98
16.046,46.23
16.062,35.68
16.078,30.05
16.093,29.93
16.109,35.9
16.125,47.87
16.140,63.96
16.156,79.81
16.171,89.09
16.187,85.33
16.203,64.4
16.218,26.32
16.234,-24.32
16.250,-79.83
16.265,-131.76
16.281,-173.32
16.296,-200.85
16.312,-214.02
16.328,-215.04
16.343,-207.58
16.359,-195.62
16.375,-182.66
16.390,-171.21
16.406,-162.68
16.421,-157.41
16.437,-154.95
16.453,-154.16
16.468,-153.45
16.484,-151.22
16.500,-146.39
16.515,-138.96
16.531,-130.27
16.546,-122.62
16.562,-118.35
16.578,-118.75
16.593,-123.22
16.609,-129.23
16.625,-133.14
16.640,-131.37
16.656,-121.61
16.671,-103.48
16.687,-78.41
16.703,-49.04
16.718,-18.38
16.734,10.98
16.750,37.25
16.765,59.54
16.781,77.73
16.796,92.19
16.812,103.54
16.828,112.44
16.843,119.57
16.859,125.62
16.875,131.42
16.890,137.89
16.906,145.88
16.921,155.91
16.937,167.82
16.953,180.75
16.968,193.33
16.984,204.17
17.000,212.38
17.015,217.89
17.031,221.38
17.046,223.87
17.062,226.14
17.078,228.38
17.093,230.04
17.109,229.85
17.125,226.05
17.140,216.73
17.156,200.41
17.171,176.75
17.187,147.11
17.203,114.52
17.218,82.8
17.234,55.13
17.250,32.77
17.265,15.08
17.281,0.53
17.296,-11.82
17.312,-21.58
17.328,-27.53
17.343,-29.27
17.359,-28.63
17.375,-29.81
17.390,-38.18
17.406,-58.21
17.421,-91.76
17.437,-137.36
17.453,-190.74
17.468,-245.76
17.484,-295.62
17.500,-333.65
17.515,-354.1
17.531,-352.79
17.546,-328.1
17.562,-281.85
17.578,-219.87
17.593,-151.49
17.609,-88.06
17.625,-40.47
17.640,-16.13
17.656,-16.72
17.671,-37.61
17.687,-69.48
17.703,-101.71
17.718,-125.87
17.734,-137.91
17.750,-138.11
17.765,-129.29
17.781,-114.65
17.796,-96.55
17.812,-76.62
17.828,-56.42
17.843,-38.03
17.859,-23.73
17.875,-15.12
17.890,-12.27
17.906,-13.53
17.921,-16.13
17.937,-17.17
17.953,-14.66
17.968,-7.92
17.984,2.44
18.000,15.2
18.015,29.08
18.031,43.28
18.046,57.55
18.062,71.92
18.078,86.12
18.093,99.11
18.109,109.14
18.125,114.22
18.140,112.99
18.156,105.48
18.171,93.33
18.187,79.28
18.203,66.16
18.218,55.86
18.234,48.74
18.250,43.65
18.265,38.61
18.281,31.78
18.296,22.21
18.312,10.46
18.328,-1.54
18.343,-10.95
18.359,-14.82
18.375,-11.2
18.390,0.31
18.406,18.23
18.421,39.74
18.437,61.68
18.453,81.48
18.468,97.56
18.484,109.22
18.500,116.06
18.515,117.46
18.531,112.63
18.546,101.02
18.562,83.02
18.578,60.12
18.593,34.58
18.609,8.76
18.625,-15.32
18.640,-35.81
18.656,-50.69
18.671,-57.77
18.687,-55.62
18.703,-44.9
18.718,-29.41
18.734,-15.57
18.750,-10.37
18.765,-18.53
18.781,-40.27
18.796,-71.27
18.812,-104.45
18.828,-132.94
18.843,-152.37
18.859,-161.58
18.875,-161.81
18.890,-155.13
18.906,-143.38
18.921,-128.02
18.937,-110.61
18.953,-93.08
18.968,-77.72
18.984,-66.47
19.000,-60.15
19.015,-58.26
19.031,-59.15
19.046,-61.02
19.062,-62.57
19.078,-63.64
19.093,-64.98
19.109,-67.8
19.125,-73.06
19.140,-80.91
19.156,-90.4
19.171,-99.69
19.187,-106.49
19.203,-108.75
19.218,-105.26
19.234,-95.91
19.250,-81.71
19.265,-64.27
19.281,-45.23
19.296,-25.69
19.312,-6.1
19.328,13.54
19.343,33.14
19.359,52.04
19.375,68.93
19.390,82.23
19.406,90.6
19.421,93.54
19.437,91.62
19.453,86.26
19.468,79.28
19.484,72.47
19.500,67.26
19.515,64.65
19.531,65.24
19.546,69.28
19.562,76.67
19.578,86.88
19.593,98.97
19.609,111.62
19.625,123.35
19.640,132.74
19.656,138.93
19.671,141.93
19.687,142.74
19.703,142.97
19.718,144.1
19.734,146.57
19.750,149.28
19.765,149.91
19.781,145.93
19.796,135.84
19.812,119.84
19.828,99.66
19.843,77.51
19.859,55.4
19.875,34.72
19.890,16.58
19.906,2.02
19.921,-8.49
19.937,-15.93
19.953,-23.47
19.968,-35.87
19.984,-57.5
20.000,-89.81
20.015,-129.87
20.031,-170.92
20.046,-205.04
20.062,-226.4
20.078,-233.3
20.093,-228.05
20.109,-215.05
20.125,-198.43
20.140,-180.61
20.156,-162.49
20.171,-144.3
20.187,-126.59
20.203,-110.4
20.218,-96.75
20.234,-85.98
20.250,-77.48
20.265,-69.99
20.281,-62.28
20.296,-53.79
20.312,-44.64
20.328,-35.46
20.343,-26.83
20.359,-18.92
20.375,-11.42
20.390,-3.76
20.406,4.52
20.421,13.41
20.437,22.32
20.453,30.22
20.468,35.99
20.484,38.82
20.500,38.56
20.515,35.61
20.531,30.78
20.546,24.88
20.562,18.46
20.578,11.69
20.593,4.54
20.609,-3.05
20.625,-10.97
20.640,-18.87
20.656,-26.32
20.671,-32.93
20.687,-38.56
20.703,-43.48
20.718,-48.3
20.734,-53.79
20.750,-60.62
20.765,-69.18
20.781,-79.18
20.796,-89.67
20.812,-99.05
20.828,-105.31
20.843,-106.51
20.859,-101.31
20.875,-89.34
20.890,-71.39
20.906,-49.25
20.921,-25.23
20.937,-1.63
20.953,19.79
20.968,37.95
20.984,52.54
21.000,63.81
21.015,72.36
21.031,78.96
21.046,84.41
21.062,89.43
21.078,94.5
21.093,99.79
21.109,105.11
21.125,110.0
21.140,113.94
21.156,116.51
21.171,117.53
21.187,117.07
21.203,115.41
21.218,112.92
21.234,109.92
21.250,106.67
21.265,103.36
21.281,100.16
21.296,97.24
21.312,94.82
21.328,93.07
21.343,92.06
21.359,91.63
21.375,91.29
21.390,90.3
21.406,87.76
21.421,82.92
21.437,75.3
21.453,64.96
21.468,52.42
21.484,38.5
21.500,24.04
21.515,9.7
21.531,-4.29
21.546,-18.13
21.562,-32.32
21.578,-47.44
21.593,-63.81
21.609,-81.14
21.625,-98.38
21.640,-113.72
21.656,-125.06
21.671,-130.57
21.687,-129.23
21.703,-121.29
21.718,-108.12
21.734,-91.82
21.750,-74.66
21.765,-58.44
21.781,-44.33
21.796,-32.75
21.812,-23.6
21.828,-16.47
21.843,-10.81
21.859,-5.99
21.875,-1.38
21.890,3.59
21.906,9.31
21.921,15.94
21.937,23.3
21.953,30.97
21.968,38.37
21.984,44.97
22.000,50.4
22.015,54.59
22.031,57.64
22.046,59.69
22.062,60.8
22.078,60.83
22.093,59.53
22.109,56.73
22.125,52.52
22.140,47.3
22.156,41.71
22.171,36.37
22.187,31.61
22.203,27.31
22.218,22.97
22.234,17.95
22.250,11.81
22.265,4.51
22.281,-3.49
22.296,-11.4
22.312,-18.49
22.328,-24.32
22.343,-28.94
22.359,-32.9
22.375,-37.02
22.390,-42.03
22.406,-48.23
22.421,-55.35
22.437,-62.45
22.453,-68.09
22.468,-70.7
22.484,-68.95
22.500,-62.14
22.515,-50.42
22.531,-34.78
22.546,-16.87
22.562,1.36
22.578,18.04
22.593,31.71
22.609,41.45
22.625,46.95
22.640,48.41
22.656,46.36
22.671,41.66
22.687,35.23
22.703,28.04
22.718,20.99
22.734,14.82
22.750,10.11
22.765,7.26
22.781,6.47
22.796,7.66
22.812,10.48
22.828,14.35
22.843,18.51
22.859,22.18
22.875,24.74
22.890,25.81
22.906,25.36
22.921,23.56
22.937,20.7
22.953,17.08
22.968,12.87
22.984,8.22
23.000,3.32
23.015,-1.57
23.031,-6.09
23.046,-10.04
23.062,-13.47
23.078,-16.79
23.093,-20.61
23.109,-25.55
23.125,-31.99
23.140,-39.93
23.156,-49.09
23.171,-58.93
23.187,-68.71
23.203,-77.48
23.218,-84.06
23.234,-87.1
23.250,-85.49
23.265,-78.69
23.281,-67.04
23.296,-51.83
23.312,-34.94
23.328,-18.36
23.343,-3.66
23.359,8.28
23.375,17.32
23.390,23.83
23.406,28.44
23.421,31.85
23.437,34.65
23.453,37.2
23.468,39.81
23.484,42.67
23.500,45.93
23.515,49.7
23.531,53.98
23.546,58.56
23.562,63.05
23.578,66.89
23.593,69.59
23.609,70.92
23.625,71.11
23.640,70.73
23.656,70.58
23.671,71.36
23.687,73.38
23.703,76.57
23.718,80.52
23.734,84.81
23.750,89.24
23.765,93.93
23.781,99.12
23.796,104.98
23.812,111.28
23.828,117.49
23.843,122.86
23.859,126.95
23.875,129.8
23.890,132.1
23.906,134.98
23.921,139.64
23.937,146.99
23.953,157.2
23.968,169.52
23.984,182.16
24.000,192.56
24.015,197.95
24.031,196.03
24.046,185.79
24.062,167.89
24.078,144.56
24.093,118.87
24.109,93.92
24.125,72.0
24.140,54.3
24.156,41.05
24.171,31.8
24.187,25.88
24.203,22.49
24.218,20.82
24.234,20.06
24.250,19.51
24.265,18.66
24.281,17.29
24.296,15.25
24.312,12.39
24.328,8.43
24.343,2.99
24.359,-4.12
24.375,-12.79
24.390,-22.49
24.406,-32.49
24.421,-42.12
24.437,-51.04
24.453,-59.2
24.468,-66.79
24.484,-73.95
24.500,-80.69
24.515,-86.89
24.531,-92.56
24.546,-97.92
24.562,-103.43
24.578,-109.44
24.593,-115.97
24.609,-122.49
24.625,-128.09
24.640,-131.98
24.656,-133.98
24.671,-134.88
24.687,-136.26
24.703,-140.04
24.718,-147.71
24.734,-159.82
24.750,-175.69
24.765,-193.6
24.781,-211.13
24.796,-225.64
24.812,-234.62
24.828,-236.16
24.843,-229.27
24.859,-214.04
24.875,-191.7
24.890,-164.3
24.906,-134.1
24.921,-103.0
24.937,-71.93
24.953,-40.94
24.968,-9.67
24.984,21.91
25.000,52.76
25.015,80.65
25.031,102.67
25.046,116.25
25.062,120.15
25.078,114.94
25.093,102.82
25.109,86.82
25.125,69.88
25.140,54.31
25.156,41.63
25.171,32.87
25.187,28.79
25.203,29.79
25.218,35.69
25.234,45.35
25.250,56.7
25.265,67.17
25.281,74.4
25.296,76.87
25.312,74.23
25.328,67.15
25.343,56.91
25.359,44.99
25.375,32.63
25.390,20.68
25.406,9.55
25.421,-0.79
25.437,-10.79
25.453,-21.22
25.468,-32.89
25.484,-46.37
25.500,-61.59
25.515,-77.72
25.531,-93.26
25.546,-106.42
25.562,-115.75
25.578,-120.56
25.593,-121.15
25.609,-118.66
25.625,-114.63
25.640,-110.59
25.656,-107.72
25.671,-106.63
25.687,-107.42
25.703,-109.82
25.718,-113.31
25.734,-117.4
25.750,-121.68
25.765,-125.88
25.781,-129.84
25.796,-133.4
25.812,-136.35
25.828,-138.42
25.843,-139.49
25.859,-139.71
25.875,-139.53
25.890,-139.63
25.906,-140.58
25.921,-142.58
25.937,-145.29
25.953,-147.92
25.968,-149.49
25.984,-149.15
26.000,-146.37
26.015,-141.04
26.031,-133.37
26.046,-123.76
26.062,-112.76
26.078,-100.99
26.093,-89.09
26.109,-77.73
26.125,-67.48
26.140,-58.82
26.156,-52.15
26.171,-47.79
26.187,-45.95
26.203,-46.69
26.218,-49.76
26.234,-54.45
26.250,-59.54
26.265,-63.35
26.281,-64.1
26.296,-60.32
26.312,-51.31
26.328,-37.36
26.343,-19.74
26.359,-0.34
26.375,18.87
26.390,36.3
26.406,51.12
26.421,63.21
26.437,72.97
26.453,80.9
26.468,87.37
26.484,92.49
26.500,96.24
26.515,98.57
26.531,99.62
26.546,99.67
26.562,98.99
26.578,97.78
26.593,96.01
26.609,93.54
26.625,90.26
26.640,86.25
26.656,81.92
26.671,77.82
26.687,74.46
26.703,72.1
26.718,70.53
26.734,69.16
26.750,67.21
26.765,64.01
26.781,59.27
26.796,53.17
26.812,46.22
26.828,39.04
26.843,32.06
26.859,25.33
26.875,18.64
26.890,11.59
26.906,3.85
26.921,-4.82
26.937,-14.39
26.953,-24.62
26.968,-34.91
26.984,-44.28
27.000,-51.4
27.015,-54.85
27.031,-53.48
27.046,-46.85
27.062,-35.46
27.078,-20.59
27.093,-3.97
27.109,12.79
27.125,28.54
27.140,42.68
27.156,55.04
27.171,65.55
27.187,74.08
27.203,80.36
27.218,84.15
27.234,85.45
27.250,84.57
27.265,82.13
27.281,78.91
27.296,75.57
27.312,72.63
27.328,70.28
27.343,68.57
27.359,67.37
27.375,66.56
27.390,66.01
27.406,65.62
27.421,65.3
27.437,64.9
27.453,64.16
27.468,62.69
27.484,60.05
27.500,55.91
27.515,50.16
27.531,43.16
27.546,35.52
27.562,28.02
27.578,21.3
27.593,15.65
27.609,10.98
27.625,6.87
27.640,2.73
27.656,-2.11
27.671,-8.23
27.687,-16.03
27.703,-25.54
27.718,-36.29
27.734,-47.14
27.750,-56.34
27.765,-61.98
27.781,-62.43
27.796,-56.96
27.812,-45.95
27.828,-30.83
27.843,-13.62
27.859,3.72
27.875,19.68
27.890,33.51
27.906,45.05
27.921,54.47
27.937,61.96
27.953,67.63
27.968,71.52
27.984,73.75
28.000,74.63
28.015,74.63
28.031,74.24
28.046,73.77
28.062,73.3
28.078,72.67
28.093,71.63
28.109,70.01
28.125,67.86
28.140,65.37
28.156,62.84
28.171,60.47
28.187,58.31
28.203,56.23
28.218,54.04
28.234,51.53
28.250,48.63
28.265,45.35
28.281,41.82
28.296,38.24
28.312,34.75
28.328,31.41
28.343,28.06
28.359,24.31
28.375,19.64
28.390,13.59
28.406,5.99
28.421,-2.98
28.437,-12.87
28.453,-23.18
28.468,-33.53
28.484,-43.64
28.500,-53.17
28.515,-61.47
28.531,-67.52
28.546,-70.09
28.562,-68.16
28.578,-61.38
28.593,-50.31
28.609,-36.26
28.625,-20.92
28.640,-5.76
28.656,8.26
28.671,20.77
28.687,31.73
28.703,41.14
28.718,48.79
28.734,54.29
28.750,57.27
28.765,57.71
28.781,56.01
28.796,52.98
28.812,49.56
28.828,46.48
28.843,44.04
28.859,42.13
28.875,40.39
28.890,38.52
28.906,36.47
28.921,34.38
28.937,32.44
28.953,30.71
28.968,29.02
28.984,26.96
29.000,24.08
29.015,20.06
29.031,14.85
29.046,8.73
29.062,2.23
29.078,-4.03
29.093,-9.52
29.109,-13.99
29.125,-17.53
29.140,-20.48
29.156,-23.4
29.171,-26.84
29.187,-31.21
29.203,-36.68
29.218,-43.13
29.234,-50.08
29.250,-56.61
29.265,-61.42
29.281,-63.03
29.296,-60.24
29.312,-52.47
29.328,-40.22
29.343,-24.87
29.359,-8.48
29.375,7.0
29.390,20.18
29.406,30.54
29.421,38.28
29.437,43.94
29.453,48.03
29.468,50.73
29.484,52.0
29.500,51.83
29.515,50.45
29.531,48.36
29.546,46.21
29.562,44.51
29.578,43.52
29.593,43.18
29.609,43.25
29.625,43.46
29.640,43.66
29.656,43.77
29.671,43.7
29.687,43.32
29.703,42.42
29.718,40.82
29.734,38.43
29.750,35.36
29.765,31.84
29.781,28.14
29.796,24.48
29.812,20.95
29.828,17.56
29.843,14.22
29.859,10.88
29.875,7.5
29.890,4.09
29.906,0.65
29.921,-2.76
29.937,-6.12
29.953,-9.57
29.968,-13.32
29.984,-17.64
30.000,-22.68
30.015,-28.21
30.031,-33.46
30.046,-37.16
30.062,-37.7
30.078,-33.59
30.093,-23.91
30.109,-8.57
30.125,11.62
30.140,35.22
30.156,60.46
30.171,85.55
30.187,108.91
30.203,129.2
30.218,145.41
30.234,156.8
30.250,163.1
30.265,164.65
30.281,162.5
30.296,158.3
30.312,153.96
30.328,151.11
30.343,150.59
30.359,152.34
30.375,155.58
30.390,159.46
30.406,163.59
30.421,168.28
30.437,174.3
30.453,182.28
30.468,192.07
30.484,202.55
30.500,211.82
30.515,217.8
30.531,218.79
30.546,213.84
30.562,202.8
30.578,186.15
30.593,164.67
30.609,139.37
30.625,111.19
30.640,81.02
30.656,49.54
30.671,17.22
30.687,-15.58
30.703,-48.29
30.718,-79.9
30.734,-108.93
30.750,-133.82
30.765,-153.56
30.781,-168.27
30.796,-179.13
30.812,-187.85
30.828,-195.55
30.843,-202.02
30.859,-205.56
30.875,-203.73
30.890,-194.5
30.906,-177.4
30.921,-153.84
30.937,-126.66
30.953,-99.22
30.968,-74.34
30.984,-53.61
31.000,-37.34
31.015,-24.81
31.031,-14.85
31.046,-6.39
31.062,1.11
31.078,7.59
31.093,12.51
31.109,15.33
31.125,15.87
31.140,14.56
31.156,12.39
31.171,10.64
31.187,10.6
31.203,13.55
31.218,20.47
31.234,31.7
31.250,46.31
31.265,61.7
31.281,73.89
31.296,78.63
31.312,73.12
31.328,57.35
31.343,34.4
31.359,9.46
31.375,-12.01
31.390,-26.09
31.406,-31.57
31.421,-29.86
31.437,-24.21
31.453,-18.52
31.468,-16.32
31.484,-19.85
31.500,-29.72
31.515,-44.81
31.531,-62.6
31.546,-79.79
31.562,-93.34
31.578,-101.39
31.593,-103.86
31.609,-102.51
31.625,-100.29
31.640,-100.23
31.656,-104.28
31.671,-112.54
31.687,-123.1
31.703,-132.62
31.718,-137.48
31.734,-134.92
31.750,-123.99
31.765,-105.75
31.781,-83.0
31.796,-59.5
31.812,-39.0
31.828,-24.34
31.843,-16.87
31.859,-16.23
31.875,-20.55
31.890,-27.13
31.906,-33.33
31.921,-37.29
31.937,-38.49
31.953,-37.72
31.968,-36.69
31.984,-37.25
32.000,-40.73
32.015,-47.35
32.031,-56.25
32.046,-65.75
32.062,-74.01
32.078,-79.81
32.093,-82.84
32.109,-83.74
32.125,-83.63
32.140,-83.63
32.156,-84.38
32.171,-85.96
32.187,-88.13
32.203,-90.58
32.218,-93.17
32.234,-95.95
32.250,-99.07
32.265,-102.46
32.281,-105.81
32.296,-108.54
32.312,-110.12
32.328,-110.19
32.343,-108.79
32.359,-106.2
32.375,-102.85
32.390,-99.03
32.406,-94.97
32.421,-90.84
32.437,-86.81
32.453,-83.01
32.468,-79.43
32.484,-75.71
32.500,-71.17
32.515,-64.9
32.531,-56.07
32.546,-44.19
32.562,-29.4
32.578,-12.57
32.593,4.9
32.609,21.39
32.625,35.58
32.640,46.88
32.656,55.58
32.671,62.67
32.687,69.45
32.703,76.94
32.718,85.54
32.734,95.02
32.750,104.62
32.765,113.48
32.781,120.87
32.796,126.27
32.812,129.41
32.828,130.17
32.843,128.54
32.859,124.6
32.875,118.5
32.890,110.44
32.906,100.64
32.921,89.28
32.937,76.63
32.953,63.16
32.968,49.58
32.984,36.88
33.000,25.92
33.015,17.09
33.031,9.91
33.046,3.0
33.062,-5.61
33.078,-17.71
33.093,-34.29
33.109,-55.01
33.125,-78.3
33.140,-101.88
33.156,-123.39
33.171,-141.12
33.187,-154.22
33.203,-162.64
33.218,-166.94
33.234,-167.95
33.250,-166.66
33.265,-163.94
33.281,-160.45
33.296,-156.51
33.312,-151.97
33.328,-146.32
33.343,-138.9
33.359,-129.14
33.375,-116.79
33.390,-102.12
33.406,-85.82
33.421,-68.9
33.437,-52.48
33.453,-37.61
33.468,-25.06
33.484,-15.23
33.500,-8.17
33.515,-3.53
33.531,-0.82
33.546,0.54
33.562,0.99
33.578,0.87
33.593,0.37
33.609,-0.34
33.625,-1.02
33.640,-1.35
33.656,-0.98
33.671,0.41
33.687,2.88
33.703,6.25
33.718,10.05
33.734,13.61
33.750,16.24
33.765,17.38
33.781,16.76
33.796,14.41
33.812,10.69
33.828,6.17
33.843,1.49
33.859,-2.75
33.875,-6.2
33.890,-8.81
33.906,-10.79
33.921,-12.53
33.937,-14.36
33.953,-16.44
33.968,-18.82
33.984,-21.45
34.000,-24.37
34.015,-27.79
34.031,-32.0
34.046,-37.27
34.062,-43.68
34.078,-51.03
34.093,-58.83
34.109,-66.37
34.125,-72.75
34.140,-77.0
34.156,-78.1
34.171,-75.25
34.187,-68.04
34.203,-56.72
34.218,-42.25
34.234,-26.09
34.250,-9.9
34.265,4.98
34.281,17.77
34.296,28.34
34.312,36.94
34.328,43.95
34.343,49.55
34.359,53.75
34.375,56.49
34.390,57.77
34.406,57.77
34.421,56.74
34.437,54.91
34.453,52.45
34.468,49.43
34.484,45.98
34.500,42.35
34.515,38.86
34.531,35.82
34.546,33.44
34.562,31.73
34.578,30.5
34.593,29.47
34.609,28.31
34.625,26.8
34.640,24.87
34.656,22.56
34.671,19.96
34.687,17.14
34.703,14.05
34.718,10.54
34.734,6.47
34.750,1.9
34.765,-2.85
34.781,-7.22
34.796,-10.61
34.812,-12.65
34.828,-13.35
34.843,-13.15
34.859,-12.88
34.875,-13.41
34.890,-15.39
34.906,-18.99
34.921,-23.7
34.937,-28.32
34.953,-31.33
34.968,-31.18
34.984,-26.76
35.000,-17.65
35.015,-4.2
35.031,12.65
35.046,31.68
35.062,51.66
35.078,71.53
35.093,90.43
35.109,107.64
35.125,122.64
35.140,135.03
35.156,144.71
35.171,151.87
35.187,157.05
35.203,161.09
35.218,164.88
35.234,169.24
35.250,174.67
35.265,181.39
35.281,189.27
35.296,198.01
35.312,207.28
35.328,216.85
35.343,226.72
35.359,237.16
35.375,248.55
35.390,261.19
35.406,274.93
35.421,288.81
35.437,300.91
35.453,308.5
35.468,308.63
35.484,298.93
35.500,278.42
35.515,247.93
35.531,210.03
35.546,168.21
35.562,125.96
35.578,85.76
35.593,48.66
35.609,14.39
35.625,-17.97
35.640,-49.34
35.656,-80.15
35.671,-110.24
35.687,-139.06
35.703,-165.78
35.718,-189.36
35.734,-208.5
35.750,-221.7
35.765,-227.65
35.781,-225.82
35.796,-216.93
35.812,-202.99
35.828,-186.85
35.843,-171.28
35.859,-158.06
35.875,-147.62
35.890,-139.22
35.906,-131.62
35.921,-123.86
35.937,-115.7
35.953,-107.68
35.968,-100.8
35.984,-95.94
36.000,-93.56
36.015,-93.58
36.031,-95.5
36.046,-98.71
36.062,-102.79
36.078,-107.59
36.093,-113.12
36.109,-119.42
36.125,-126.24
36.140,-133.06
36.156,-139.04
36.171,-143.19
36.187,-144.61
36.203,-142.7
36.218,-137.32
36.234,-128.87
36.250,-118.18
36.265,-106.25
36.281,-94.08
36.296,-82.35
36.312,-71.33
36.328,-60.97
36.343,-51.06
36.359,-41.53
36.375,-32.6
36.390,-24.83
36.406,-19.03
36.421,-16.06
36.437,-16.62
36.453,-21.03
36.468,-29.11
36.484,-40.02
36.500,-52.27
36.515,-63.87
36.531,-72.68
36.546,-76.96
36.562,-75.77
36.578,-69.21
36.593,-58.38
36.609,-44.95
36.625,-30.62
36.640,-16.81
36.656,-4.41
36.671,6.2
36.687,14.94
36.703,21.94
36.718,27.41
36.734,31.59
36.750,34.63
36.765,36.68
36.781,37.8
36.796,38.09
36.812,37.73
36.828,37.14
36.843,36.88
36.859,37.57
36.875,39.7
36.890,43.46
36.906,48.64
36.921,54.69
36.937,60.89
36.953,66.48
36.968,70.93
36.984,73.98
37.000,75.66
37.015,76.21
37.031,75.93
37.046,75.16
37.062,74.24
37.078,73.5
37.093,73.27
37.109,73.8
37.125,75.15
37.140,77.18
37.156,79.58
37.171,81.97
37.187,84.04
37.203,85.71
37.218,87.01
37.234,88.04
37.250,88.86
37.265,89.45
37.281,89.9
37.296,90.62
37.312,92.44
37.328,96.61
37.343,104.46
37.359,116.94
37.375,134.09
37.390,154.8
37.406,176.94
37.421,197.88
37.437,215.09
37.453,226.8
37.468,232.1
37.484,230.78
37.500,222.86
37.515,208.34
37.531,187.1
37.546,159.2
37.562,125.15
37.578,85.82
37.593,42.1
37.609,-5.37
37.625,-56.09
37.640,-108.84
37.656,-160.81
37.671,-207.26
37.687,-242.41
37.703,-261.27
37.718,-261.63
37.734,-244.92
37.750,-215.63
37.765,-179.29
37.781,-140.55
37.796,-101.95
37.812,-64.22
37.828,-27.42
37.843,7.96
37.859,40.73
37.875,69.49
37.890,93.61
37.906,113.78
37.921,131.77
37.937,149.75
37.953,169.61
37.968,192.47
37.984,218.45
38.000,246.52
38.015,274.38
38.031,298.65
38.046,315.4
38.062,321.25
38.078,314.49
38.093,295.67
38.109,267.39
38.125,233.16
38.140,196.19
38.156,158.55
38.171,121.22
38.187,84.65
38.203,49.43
38.218,16.44
38.234,-13.59
38.250,-40.69
38.265,-65.99
38.281,-91.48
38.296,-119.51
38.312,-151.85
38.328,-189.03
38.343,-229.85
38.359,-271.17
38.375,-308.53
38.390,-337.11
38.406,-353.12
38.421,-354.97
38.437,-343.72
38.453,-322.45
38.468,-295.01
38.484,-264.59
38.500,-233.06
38.515,-201.08
38.531,-169.01
38.546,-137.76
38.562,-109.01
38.578,-84.78
38.593,-66.47
38.609,-54.2
38.625,-46.65
38.640,-41.59
38.656,-36.79
38.671,-30.7
38.687,-22.97
38.703,-14.12
38.718,-5.19
38.734,2.87
38.750,9.48
38.765,14.43
38.781,17.71
38.796,19.29
38.812,19.12
38.828,17.26
38.843,14.27
38.859,11.42
38.875,10.55
38.890,13.69
38.906,22.29
38.921,36.66
38.937,55.58
38.953,76.56
38.968,96.58
38.984,112.95
39.000,123.97
39.015,128.97
39.031,127.77
39.046,120.0
39.062,104.86
39.078,81.48
39.093,49.89
39.109,11.9
39.125,-28.63
39.140,-66.5
39.156,-96.44
39.171,-114.53
39.187,-119.14
39.203,-110.96
39.218,-92.44
39.234,-67.03
39.250,-38.45
39.265,-10.29
39.281,14.4
39.296,33.43
39.312,45.9
39.328,52.42
39.343,54.93
39.359,56.12
39.375,58.64
39.390,64.28
39.406,73.4
39.421,84.94
39.437,97.12
39.453,108.4
39.468,118.31
39.484,127.56
39.500,137.14
39.515,147.05
39.531,155.36
39.546,158.25
39.562,151.17
39.578,130.73
39.593,96.22
39.609,50.24
39.625,-1.87
39.640,-53.29
39.656,-97.08
39.671,-127.6
39.687,-141.74
39.703,-139.96
39.718,-126.52
39.734,-108.7
39.750,-94.61
39.765,-90.64
39.781,-99.25
39.796,-118.53
39.812,-143.21
39.828,-166.93
39.843,-184.42
39.859,-192.97
39.875,-192.9
39.890,-187.03
39.906,-179.53
39.921,-174.65
39.937,-175.35
39.953,-182.39
39.968,-194.13
39.984,-207.14
40.000,-217.58
40.015,-222.55
40.031,-220.86
40.046,-212.94
40.062,-200.12
40.078,-183.93
40.093,-165.61
40.109,-146.32
40.125,-127.14
40.140,-109.19
40.156,-93.38
40.171,-80.06
40.187,-68.99
40.203,-59.45
40.218,-50.85
40.234,-43.13
40.250,-36.95
40.265,-33.33
40.281,-33.01
40.296,-35.65
40.312,-39.61
40.328,-42.26
40.343,-40.84
40.359,-33.57
40.375,-20.28
40.390,-2.54
40.406,17.0
40.421,35.43
40.437,50.53
40.453,61.27
40.468,67.79
40.484,71.04
40.500,72.19
40.515,72.16
40.531,71.33
40.546,69.65
40.562,66.88
40.578,62.96
40.593,58.19
40.609,53.16
40.625,48.57
40.640,44.94
40.656,42.49
40.671,41.2
40.687,40.9
40.703,41.63
40.718,43.47
40.734,46.58
40.750,50.8
40.765,55.54
40.781,59.68
40.796,61.98
40.812,61.56
40.828,58.39
40.843,53.45
40.859,48.36
40.875,44.77
40.890,43.62
40.906,44.74
40.921,46.93
40.937,48.51
40.953,48.07
40.968,45.06
40.984,40.15
41.000,35.0
41.015,31.85
41.031,32.8
41.046,39.21
41.062,51.12
41.078,66.75
41.093,82.51
41.109,93.44
41.125,94.36
41.140,81.33
41.156,53.18
41.171,12.15
41.187,-36.45
41.203,-85.83
41.218,-129.69
41.234,-163.83
41.250,-186.67
41.265,-198.78
41.281,-201.71
41.296,-197.05
41.312,-186.11
41.328,-170.16
41.343,-150.88
41.359,-130.28
41.375,-110.36
41.390,-92.35
41.406,-76.4
41.421,-61.67
41.437,-46.98
41.453,-31.55
41.468,-15.5
41.484,0.18
41.500,14.03
41.515,24.88
41.531,32.28
41.546,36.6
41.562,38.98
41.578,40.7
41.593,42.69
41.609,45.17
41.625,47.58
41.640,48.71
41.656,47.02
41.671,41.18
41.687,30.38
41.703,14.89
41.718,-3.9
41.734,-23.55
41.750,-41.08
41.765,-53.7
41.781,-59.56
41.796,-58.14
41.812,-50.18
41.828,-37.23
41.843,-21.02
41.859,-3.01
41.875,15.6
41.890,33.76
41.906,50.33
41.921,64.18
41.937,74.42
41.953,80.78
41.968,83.79
41.984,84.63
42.000,84.74
42.015,85.39
42.031,87.37
42.046,90.86
42.062,95.7
42.078,101.57
42.093,108.3
42.109,115.83
42.125,124.05
42.140,132.71
42.156,141.23
42.171,148.9
42.187,155.04
42.203,159.23
42.218,161.37
42.234,161.53
42.250,159.72
42.265,155.78
42.281,149.27
42.296,139.56
42.312,126.0
42.328,107.91
42.343,84.76
42.359,56.41
42.375,23.46
42.390,-12.48
42.406,-48.75
42.421,-82.06
42.437,-109.25
42.453,-128.14
42.468,-138.04
42.484,-139.79
42.500,-135.42
42.515,-127.31
42.531,-117.56
42.546,-107.59
42.562,-97.93
42.578,-88.38
42.593,-78.3
42.609,-66.99
42.625,-53.98
42.640,-39.28
42.656,-23.42
42.671,-7.26
42.687,8.18
42.703,21.98
42.718,33.4
42.734,41.92
42.750,47.21
42.765,49.19
42.781,48.04
42.796,44.28
42.812,38.73
42.828,32.38
42.843,26.18
42.859,20.93
42.875,17.11
42.890,14.93
42.906,14.38
42.921,15.29
42.937,17.46
42.953,20.68
42.968,24.8
42.984,29.69
43.000,35.16
43.015,40.81
43.031,45.94
43.046,49.66
43.062,51.21
43.078,50.28
43.093,47.29
43.109,43.32
43.125,39.73
43.140,37.66
43.156,37.71
43.171,39.91
43.187,43.89
43.203,49.13
43.218,55.05
43.234,60.96
43.250,65.93
43.265,68.77
43.281,68.28
43.296,63.66
43.312,54.82
43.328,42.56
43.343,28.25
43.359,13.47
43.375,-0.48
43.390,-12.86
43.406,-23.44
43.421,-32.41
43.437,-40.06
43.453,-46.7
43.468,-52.53
43.484,-57.77
43.500,-62.67
43.515,-67.48
43.531,-72.4
43.546,-77.41
43.562,-82.24
43.578,-86.34
43.593,-89.0
43.609,-89.48
43.625,-87.31
43.640,-82.45
43.656,-75.35
43.671,-66.91
43.687,-58.32
43.703,-50.82
43.718,-45.46
43.734,-43.02
43.750,-43.95
43.765,-48.41
43.781,-56.38
43.796,-67.58
43.812,-81.52
43.828,-97.37
43.843,-113.83
43.859,-129.14
43.875,-141.2
43.890,-147.87
43.906,-147.48
43.921,-139.32
43.937,-123.9
43.953,-102.88
43.968,-78.57
43.984,-53.3
44.000,-28.73
44.015,-5.65
44.031,15.91
44.046,36.34
44.062,55.86
44.078,74.38
44.093,91.39
44.109,106.26
44.125,118.58
44.140,128.31
44.156,135.87
44.171,142.0
44.187,147.58
44.203,153.39
44.218,159.94
44.234,167.37
44.250,175.47
44.265,183.82
44.281,192.01
44.296,199.81
44.312,207.06
44.328,213.58
44.343,219.03
44.359,223.26
44.375,226.58
44.390,229.83
44.406,233.85
44.421,238.39
44.437,241.24
44.453,238.4
44.468,225.57
44.484,200.46
44.500,164.61
44.515,123.27
44.531,83.49
44.546,51.26
44.562,29.39
44.578,17.18
44.593,11.49
44.609,8.53
44.625,5.16
44.640,-0.74
44.656,-10.31
44.671,-23.79
44.687,-40.31
44.703,-57.76
44.718,-73.25
44.734,-84.08
44.750,-88.85
44.765,-88.0
44.781,-83.43
44.796,-77.5
44.812,-72.02
44.828,-67.53
44.843,-63.33
44.859,-57.85
44.875,-49.46
44.890,-37.46
44.906,-22.95
44.921,-8.93
44.937,0.64
44.953,2.58
44.968,-3.71
44.984,-15.77
45.000,-28.97
45.015,-38.8
45.031,-42.87
45.046,-41.89
45.062,-38.81
45.078,-36.9
45.093,-37.71
45.109,-40.02
45.125,-40.48
45.140,-35.34
45.156,-22.78
45.171,-4.4
45.187,14.65
45.203,27.32
45.218,27.4
45.234,12.34
45.250,-15.44
45.265,-49.44
45.281,-81.79
45.296,-106.54
45.312,-121.79
45.328,-129.87
45.343,-135.43
45.359,-142.9
45.375,-154.21
45.390,-167.9
45.406,-179.54
45.421,-183.5
45.437,-175.05
45.453,-152.37
45.468,-117.65
45.484,-76.57
45.500,-36.53
45.515,-4.06
45.531,17.28
45.546,27.67
45.562,30.0
45.578,27.88
45.593,23.74
45.609,17.96
45.625,9.5
45.640,-2.61
45.656,-18.04
45.671,-34.87
45.687,-50.27
45.703,-61.82
45.718,-68.34
45.734,-69.97
45.750,-67.55
45.765,-61.81
45.781,-53.2
45.796,-42.4
45.812,-31.19
45.828,-22.75
45.843,-21.02
45.859,-29.03
45.875,-47.35
45.890,-73.44
45.906,-102.42
45.921,-128.89
45.937,-148.86
45.953,-160.72
45.968,-165.19
45.984,-164.32
46.000,-160.48
46.015,-155.63
46.031,-151.2
46.046,-148.17
46.062,-147.14
46.078,-148.38
46.093,-151.62
46.109,-155.98
46.125,-159.77
46.140,-160.61
46.156,-155.88
46.171,-143.4
46.187,-122.34
46.203,-93.74
46.218,-60.52
46.234,-26.61
46.250,4.36
46.265,30.15
46.281,50.39
46.296,66.1
46.312,78.7
46.328,89.07
46.343,97.17
46.359,102.46
46.375,104.58
46.390,103.99
46.406,101.99
46.421,100.2
46.437,99.91
46.453,101.39
46.468,104.0
46.484,106.46
46.500,107.6
46.515,106.81
46.531,104.28
46.546,100.83
46.562,97.52
46.578,95.21
46.593,94.34
46.609,94.85
46.625,96.3
46.640,98.16
46.656,99.92
46.671,101.22
46.687,101.86
46.703,101.74
46.718,100.75
46.734,98.85
46.750,96.14
46.765,92.95
46.781,89.87
46.796,87.6
46.812,86.71
46.828,87.41
46.843,89.42
46.859,92.09
46.875,94.61
46.890,96.39
46.906,97.27
46.921,97.62
46.937,98.24
46.953,100.06
46.968,103.87
46.984,109.83
47.000,117.18
47.015,123.95
47.031,127.29
47.046,124.21
47.062,112.58
47.078,92.05
47.093,64.34
47.109,32.77
47.125,1.23
47.140,-26.89
47.156,-49.41
47.171,-65.57
47.187,-75.67
47.203,-80.75
47.218,-82.2
47.234,-81.66
47.250,-80.79
47.265,-80.99
47.281,-82.99
47.296,-86.56
47.312,-90.59
47.328,-93.56
47.343,-94.25
47.359,-92.31
47.375,-88.58
47.390,-84.78
47.406,-82.84
47.421,-84.08
47.437,-88.58
47.453,-95.21
47.468,-102.12
47.484,-107.63
47.500,-110.93
47.515,-112.29
47.531,-112.85
47.546,-114.04
47.562,-116.98
47.578,-122.27
47.593,-129.7
47.609,-138.28
47.625,-146.24
47.640,-151.2
47.656,-150.81
47.671,-143.31
47.687,-128.25
47.703,-106.77
47.718,-81.29
47.734,-54.71
47.750,-29.67
47.765,-7.92
47.781,9.69
47.796,22.97
47.812,32.12
47.828,37.49
47.843,39.66
47.859,39.48
47.875,38.07
47.890,36.55
47.906,35.77
47.921,36.06
47.937,37.28
47.953,38.93
47.968,40.39
47.984,41.19
48.000,41.13
48.015,40.26
48.031,38.77
48.046,36.96
48.062,35.03
48.078,33.08
48.093,31.01
48.109,28.63
48.125,25.7
48.140,22.13
48.156,18.11
48.171,14.06
48.187,10.56
48.203,8.05
48.218,6.58
48.234,5.64
48.250,4.36
48.265,1.74
48.281,-2.92
48.296,-9.7
48.312,-17.92
48.328,-26.23
48.343,-33.04
48.359,-36.88
48.375,-36.85
48.390,-32.74
48.406,-25.01
48.421,-14.58
48.437,-2.5
48.453,10.18
48.468,22.52
48.484,33.56
48.500,42.48
48.515,48.63
48.531,51.75
48.546,52.09
48.562,50.39
48.578,47.66
48.593,44.72
48.609,42.04
48.625,39.52
48.640,36.74
48.656,33.19
48.671,28.69
48.687,23.4
48.703,17.82
48.718,12.45
48.734,7.57
48.750,3.17
48.765,-1.01
48.781,-5.24
48.796,-9.65
48.812,-14.19
48.828,-18.72
48.843,-23.15
48.859,-27.54
48.875,-32.07
48.890,-36.95
48.906,-42.35
48.921,-48.35
48.937,-54.99
48.953,-62.27
48.968,-70.09
48.984,-78.16
49.000,-85.71
49.015,-91.53
49.031,-94.07
49.046,-91.84
49.062,-83.95
49.078,-70.52
49.093,-52.76
49.109,-32.66
49.125,-12.46
49.140,6.05
49.156,21.87
49.171,34.8
49.187,45.18
49.203,53.43
49.218,59.73
49.234,63.96
49.250,65.85
49.265,65.24
49.281,62.36
49.296,57.78
49.312,52.3
49.328,46.62
49.343,41.11
49.359,35.82
49.375,30.63
49.390,25.57
49.406,20.98
49.421,17.47
49.437,15.66
49.453,15.77
49.468,17.56
49.484,20.14
49.500,22.46
49.515,23.55
49.531,22.9
49.546,20.5
49.562,16.75
49.578,12.13
49.593,6.93
49.609,1.14
49.625,-5.44
49.640,-13.13
49.656,-22.02
49.671,-31.82
49.687,-41.83
49.703,-50.99
49.718,-58.13
49.734,-62.17
49.750,-62.43
49.765,-58.72
49.781,-51.31
49.796,-40.77
49.812,-27.7
49.828,-12.61
49.843,4.13
49.859,22.16
49.875,40.87
49.890,59.37
49.906,76.48
49.921,90.92
49.937,101.69
49.953,108.39
49.968,111.39
49.984,111.85
50.000,111.35
50.015,111.49
50.031,113.35
50.046,117.12
50.062,121.88
50.078,125.76
50.093,126.37
50.109,121.51
50.125,110.13
50.140,93.05
50.156,73.44
50.171,56.24
50.187,46.79
50.203,48.78
50.218,62.42
50.234,83.7
50.250,105.6
50.265,120.55
50.281,123.31
50.296,112.82
50.312,92.13
50.328,66.74
50.343,42.15
50.359,22.02
50.375,7.63
50.390,-1.64
50.406,-7.36
50.421,-11.23
50.437,-14.73
50.453,-19.15
50.468,-25.52
50.484,-34.44
50.500,-45.74
50.515,-58.26
50.531,-69.92
50.546,-78.19
50.562,-80.84
50.578,-76.7
50.593,-66.21
50.609,-51.37
50.625,-35.14
50.640,-20.41
50.656,-8.86
50.671,-0.39
50.687,6.82
50.703,15.36
50.718,27.27
50.734,42.85
50.750,60.21
50.765,75.82
50.781,85.74
50.796,87.17
50.812,79.42
50.828,64.24
50.843,45.15
50.859,26.16
50.875,10.52
50.890,-0.1
50.906,-5.76
50.921,-7.76
50.937,-7.86
50.953,-7.66
50.968,-8.22
50.984,-10.02
51.000,-13.1
51.015,-17.06
51.031,-21.25
51.046,-24.75
51.062,-26.6
51.078,-26.12
51.093,-23.31
51.109,-19.25
51.125,-16.02
51.140,-16.3
51.156,-22.38
51.171,-35.26
51.187,-54.15
51.203,-76.64
51.218,-99.45
51.234,-119.46
51.250,-134.38
51.265,-143.09
51.281,-145.56
51.296,-142.48
51.312,-135.07
51.328,-125.0
51.343,-114.42
51.359,-105.8
51.375,-101.6
51.390,-103.56
51.406,-111.99
51.421,-125.4
51.437,-140.65
51.453,-153.71
51.468,-160.92
51.484,-159.99
51.500,-150.65
51.515,-134.42
51.531,-113.83
51.546,-91.37
51.562,-68.76
51.578,-46.77
51.593,-25.49
51.609,-4.94
51.625,14.55
51.640,32.23
51.656,47.14
51.671,58.55
51.687,66.32
51.703,71.02
51.718,73.87
51.734,76.35
51.750,79.75
51.765,84.73
51.781,91.16
51.796,98.15
51.812,104.41
51.828,108.69
51.843,110.16
51.859,108.85
51.875,105.85
51.890,103.36
51.906,104.12
51.921,110.4
51.937,122.67
51.953,138.57
51.968,153.03
51.984,159.71
52.000,153.44
52.015,132.46
52.031,99.32
52.046,59.89
52.062,20.91
52.078,-12.55
52.093,-38.55
52.109,-57.8
52.125,-72.16
52.140,-82.81
52.156,-89.41
52.171,-90.47
52.187,-84.31
52.203,-70.04
52.218,-48.14
52.234,-20.77
52.250,8.18
52.265,33.33
52.281,48.67
52.296,49.23
52.312,33.12
52.328,2.84
52.343,-34.93
52.359,-71.55
52.375,-99.39
52.390,-114.4
52.406,-116.67
52.421,-109.17
52.437,-95.37
52.453,-77.54
52.468,-56.41
52.484,-31.91
52.500,-4.26
52.515,25.55
52.531,55.7
52.546,83.76
52.562,106.81
52.578,121.74
52.593,125.78
52.609,117.61
52.625,98.29
52.640,71.36
52.656,41.84
52.671,14.33
52.687,-8.47
52.703,-26.15
52.718,-39.56
52.734,-49.22
52.750,-54.05
52.765,-51.34
52.781,-38.01
52.796,-12.46
52.812,23.69
52.828,65.01
52.843,103.16
52.859,129.23
52.875,136.66
52.890,123.8
52.906,94.62
52.921,57.04
52.937,19.77
52.953,-11.06
52.968,-33.55
52.984,-49.35
53.000,-61.29
53.015,-70.96
53.031,-77.65
53.046,-79.08
53.062,-73.0
53.078,-58.45
53.093,-36.33
53.109,-9.17
53.125,19.28
53.140,44.13
53.156,59.75
53.171,60.72
53.187,43.55
53.203,8.48
53.218,-39.74
53.234,-92.91
53.250,-141.68
53.265,-178.26
53.281,-198.12
53.296,-200.21
53.312,-186.16
53.328,-159.12
53.343,-123.22
53.359,-83.27
53.375,-44.57
53.390,-12.16
53.406,10.4
53.421,21.98
53.437,24.29
53.453,21.11
53.468,16.93
53.484,15.41
53.500,18.44
53.515,26.02
53.531,36.79
53.546,48.85
53.562,60.46
53.578,70.65
53.593,79.28
53.609,86.99
53.625,94.81
53.640,103.76
53.656,114.36
53.671,126.51
53.687,139.5
53.703,152.24
53.718,163.59
53.734,172.51
53.750,178.14
53.765,179.69
53.781,176.3
53.796,167.17
53.812,151.67
53.828,129.77
53.843,102.24
53.859,70.69
53.875,37.25
53.890,4.16
53.906,-26.69
53.921,-53.95
53.937,-76.73
53.953,-94.5
53.968,-106.95
53.984,-114.11
54.000,-116.51
54.015,-115.4
54.031,-112.63
54.046,-110.32
54.062,-110.25
54.078,-113.35
54.093,-119.37
54.109,-126.96
54.125,-134.04
54.140,-138.39
54.156,-138.23
54.171,-132.66
54.187,-121.77
54.203,-106.53
54.218,-88.39
54.234,-68.89
54.250,-49.33
54.265,-30.68
54.281,-13.55
54.296,1.68
54.312,14.76
54.328,25.58
54.343,34.23
54.359,41.01
54.375,46.45
54.390,51.13
54.406,55.53
54.421,59.79
54.437,63.71
54.453,66.84
54.468,68.73
54.484,69.23
54.500,68.65
54.515,67.71
54.531,67.22
54.546,67.76
54.562,69.38
54.578,71.51
54.593,73.24
54.609,73.6
54.625,71.93
54.640,68.09
54.656,62.45
54.671,55.73
54.687,48.76
54.703,42.21
54.718,36.43
54.734,31.28
54.750,26.08
54.765,19.58
54.781,10.26
54.796,-3.22
54.812,-21.47
54.828,-43.97
54.843,-69.13
54.859,-94.83
54.875,-119.07
54.890,-140.66
54.906,-159.4
54.921,-175.81
54.937,-190.45
54.953,-203.45
54.968,-214.06
54.984,-220.93
55.000,-222.51
55.015,-217.69
55.031,-206.45
55.046,-189.91
55.062,-170.12
55.078,-149.3
55.093,-129.22
55.109,-110.6
55.125,-93.27
55.140,-76.61
55.156,-60.35
55.171,-44.9
55.187,-31.29
55.203,-20.53
55.218,-13.06
55.234,-8.29
55.250,-4.94
55.265,-1.6
55.281,2.67
55.296,7.93
55.312,13.55
55.328,18.7
55.343,22.79
55.359,25.81
55.375,28.24
55.390,30.64
55.406,33.31
55.421,36.09
55.437,38.49
55.453,40.0
55.468,40.51
55.484,40.39
55.500,40.32
55.515,40.93
55.531,42.5
55.546,44.74
55.562,46.97
55.578,48.42
55.593,48.52
55.609,47.06
55.625,44.19
55.640,40.2
55.656,35.45
55.671,30.2
55.687,24.65
55.703,18.92
55.718,13.07
55.734,7.12
55.750,1.06
55.765,-5.14
55.781,-11.49
55.796,-17.99
55.812,-24.75
55.828,-32.03
55.843,-40.26
55.859,-49.89
55.875,-60.99
55.890,-72.9
55.906,-84.13
55.921,-92.42
55.937,-95.44
55.953,-91.47
55.968,-80.01
55.984,-61.98
56.000,-39.39
56.015,-14.7
56.031,9.88
56.046,32.85
56.062,53.58
56.078,72.03
56.093,88.52
56.109,103.38
56.125,116.87
56.140,129.13
56.156,140.33
56.171,150.61
56.187,160.14
56.203,169.04
56.218,177.34
56.234,184.97
56.250,191.67
56.265,197.21
56.281,201.48
56.296,204.7
56.312,207.32
56.328,209.64
56.343,211.14
56.359,210.11
56.375,203.9
56.390,189.75
56.406,166.19
56.421,133.89
56.437,95.91
56.453,56.67
56.468,20.52
56.484,-9.58
56.500,-32.67
56.515,-49.34
56.531,-60.94
56.546,-68.68
56.562,-73.26
56.578,-74.85
56.593,-73.46
56.609,-69.14
56.625,-62.06
56.640,-52.63
56.656,-41.42
56.671,-29.18
56.687,-16.81
56.703,-5.29
56.718,4.5
56.734,12.09
56.750,17.68
56.765,22.61
56.781,29.35
56.796,41.07
56.812,60.39
56.828,87.76
56.843,120.22
56.859,151.38
56.875,172.98
56.890,177.47
56.906,160.75
56.921,123.77
56.937,72.25
56.953,14.9
56.968,-39.22
56.984,-82.81
57.000,-111.4
57.015,-123.26
57.031,-118.94
57.046,-100.88
57.062,-73.41
57.078,-42.49
57.093,-14.77
57.109,3.95
57.125,10.55
57.140,5.31
57.156,-8.36
57.171,-25.47
57.187,-41.41
57.203,-53.32
57.218,-60.51
57.234,-64.0
57.250,-65.56
57.265,-66.99
57.281,-69.75
57.296,-74.74
57.312,-82.21
57.328,-91.73
57.343,-102.18
57.359,-112.25
57.375,-120.85
57.390,-127.67
57.406,-133.05
57.421,-137.73
57.437,-142.42
57.453,-147.48
57.468,-152.93
57.484,-158.48
57.500,-163.59
57.515,-167.33
57.531,-168.44
57.546,-165.45
57.562,-157.18
57.578,-143.25
57.593,-124.5
57.609,-102.95
57.625,-81.32
57.640,-62.28
57.656,-47.69
57.671,-38.11
57.687,-32.9
57.703,-30.55
57.718,-29.35
57.734,-27.85
57.750,-25.18
57.765,-21.03
57.781,-15.63
57.796,-9.45
57.812,-3.13
57.828,2.64
57.843,7.39
57.859,10.86
57.875,13.19
57.890,14.88
57.906,16.64
57.921,19.2
57.937,23.09
57.953,28.54
57.968,35.37
57.984,43.19
58.000,51.52
58.015,60.02
58.031,68.46
58.046,76.74
58.062,84.72
58.078,92.07
58.093,98.38
58.109,103.33
58.125,106.91
58.140,109.67
58.156,112.63
58.171,117.07
58.187,124.03
58.203,134.01
58.218,146.7
58.234,161.15
58.250,176.07
58.265,190.3
58.281,203.13
58.296,214.47
58.312,224.74
58.328,234.66
58.343,244.93
58.359,256.03
58.375,268.07
58.390,280.64
58.406,292.72
58.421,302.58
58.437,308.01
58.453,306.9
58.468,297.97
58.484,281.47
58.500,259.36
58.515,234.88
58.531,211.35
58.546,190.88
58.562,173.61
58.578,157.73
58.593,140.53
58.609,119.58
58.625,93.67
58.640,62.9
58.656,28.0
58.671,-10.34
58.687,-51.77
58.703,-95.72
58.718,-140.5
58.734,-182.84
58.750,-218.29
58.765,-242.55
58.781,-253.07
58.796,-250.07
58.812,-236.49
58.828,-216.86
58.843,-195.77
58.859,-176.63
58.875,-161.05
58.890,-149.09
58.906,-139.88
58.921,-132.29
58.937,-125.39
58.953,-118.62
58.968,-111.73
58.984,-104.61
59.000,-97.24
59.015,-89.54
59.031,-81.5
59.046,-73.31
59.062,-65.4
59.078,-58.51
59.093,-53.34
59.109,-50.32
59.125,-49.43
59.140,-50.19
59.156,-51.83
59.171,-53.76
59.187,-55.79
59.203,-58.35
59.218,-62.35
59.234,-68.86
59.250,-78.56
59.265,-91.56
59.281,-107.18
59.296,-124.22
59.312,-141.23
59.328,-156.84
59.343,-169.81
59.359,-179.1
59.375,-183.77
59.390,-183.09
59.406,-176.73
59.421,-164.87
59.437,-148.31
59.453,-128.28
59.468,-106.16
59.484,-83.26
59.500,-60.68
59.515,-39.32
59.531,-19.93
59.546,-3.13
59.562,10.66
59.578,21.26
59.593,28.73
59.609,33.34
59.625,35.54
59.640,35.93
59.656,35.31
59.671,34.56
59.687,34.49
59.703,35.59
59.718,37.79
59.734,40.6
59.750,43.3
59.765,45.4
59.781,46.88
59.796,48.29
59.812,50.48
59.828,54.21
59.843,59.95
59.859,67.75
59.875,77.46
59.890,88.88
59.906,101.77
59.921,115.76
59.937,130.14
59.953,143.91
59.968,155.9
59.984,165.35
