timestamp,value
00.000,-14.37
00.015,-11.61
00.031,-8.87
00.046,-6.23
00.062,-3.76
00.078,-1.47
00.093,0.62
00.109,2.55
00.125,4.29
00.140,5.82
00.156,7.15
00.171,8.33
00.187,9.51
00.203,10.79
00.218,12.2
00.234,13.65
00.250,14.96
00.265,15.93
00.281,16.44
00.296,16.44
00.312,15.97
00.328,15.07
00.343,13.75
00.359,12.02
00.375,9.88
00.390,7.38
00.406,4.63
00.421,1.75
00.437,-1.17
00.453,-4.1
00.468,-7.06
00.484,-10.11
00.500,-13.25
00.515,-16.42
00.531,-19.53
00.546,-22.48
00.562,-25.22
00.578,-27.8
00.593,-30.31
00.609,-32.78
00.625,-35.11
00.640,-37.07
00.656,-38.33
00.671,-38.61
00.687,-37.75
00.703,-35.78
00.718,-32.9
00.734,-29.31
00.750,-25.26
00.765,-20.91
00.781,-16.48
00.796,-12.18
00.812,-8.31
00.828,-5.12
00.843,-2.73
00.859,-1.11
00.875,-0.02
00.890,0.85
00.906,1.81
00.921,3.06
00.937,4.67
00.953,6.52
00.968,8.5
00.984,10.36
01.000,11.94
01.015,13.13
01.031,13.91
01.046,14.28
01.062,14.28
01.078,14.02
01.093,13.53
01.109,12.9
01.125,12.19
01.140,11.39
01.156,10.48
01.171,9.44
01.187,8.33
01.203,7.22
01.218,6.3
01.234,5.63
01.250,5.22
01.265,4.96
01.281,4.65
01.296,4.07
01.312,3.08
01.328,1.62
01.343,-0.29
01.359,-2.6
01.375,-5.3
01.390,-8.31
01.406,-11.52
01.421,-14.65
01.437,-17.34
01.453,-19.25
01.468,-20.15
01.484,-20.05
01.500,-19.1
01.515,-17.54
01.531,-15.57
01.546,-13.33
01.562,-10.86
01.578,-8.22
01.593,-5.53
01.609,-3.02
01.625,-0.91
01.640,0.68
01.656,1.78
01.671,2.57
01.687,3.25
01.703,4.02
01.718,4.93
01.734,5.96
01.750,7.01
01.765,7.97
01.781,8.74
01.796,9.26
01.812,9.54
01.828,9.57
01.843,9.42
01.859,9.08
01.875,8.57
01.890,7.92
01.906,7.08
01.921,6.04
01.937,4.79
01.953,3.42
01.968,2.0
01.984,0.62
02.000,-0.7
02.015,-1.98
02.031,-3.22
02.046,-4.4
02.062,-5.48
02.078,-6.4
02.093,-7.15
02.109,-7.83
02.125,-8.66
02.140,-9.84
02.156,-11.45
02.171,-13.35
02.187,-15.16
02.203,-16.36
02.218,-16.5
02.234,-15.32
02.250,-12.89
02.265,-9.52
02.281,-5.65
02.296,-1.72
02.312,1.99
02.328,5.32
02.343,8.27
02.359,10.89
02.375,13.18
02.390,15.15
02.406,16.7
02.421,17.74
02.437,18.2
02.453,18.12
02.468,17.59
02.484,16.77
02.500,15.82
02.515,14.82
02.531,13.83
02.546,12.86
02.562,11.95
02.578,11.17
02.593,10.59
02.609,10.23
02.625,10.02
02.640,9.83
02.656,9.49
02.671,8.87
02.687,7.89
02.703,6.56
02.718,4.88
02.734,2.93
02.750,0.78
02.765,-1.47
02.781,-3.78
02.796,-6.06
02.812,-8.31
02.828,-10.52
02.843,-12.71
02.859,-14.91
02.875,-17.18
02.890,-19.54
02.906,-22.05
02.921,-24.61
02.937,-26.99
02.953,-28.77
02.968,-29.5
02.984,-28.82
03.000,-26.62
03.015,-23.04
03.031,-18.48
03.046,-13.4
03.062,-8.2
03.078,-3.09
03.093,1.84
03.109,6.55
03.125,10.94
03.140,14.87
03.156,18.17
03.171,20.66
03.187,22.25
03.203,22.94
03.218,22.86
03.234,22.22
03.250,21.28
03.265,20.24
03.281,19.31
03.296,18.6
03.312,18.1
03.328,17.76
03.343,17.44
03.359,16.92
03.375,15.99
03.390,14.52
03.406,12.42
03.421,9.78
03.437,6.79
03.453,3.71
03.468,0.78
03.484,-1.86
03.500,-4.18
03.515,-6.3
03.531,-8.28
03.546,-10.29
03.562,-12.43
03.578,-14.84
03.593,-17.57
03.609,-20.62
03.625,-23.89
03.640,-27.24
03.656,-30.39
03.671,-33.03
03.687,-34.84
03.703,-35.49
03.718,-34.78
03.734,-32.7
03.750,-29.4
03.765,-25.25
03.781,-20.66
03.796,-15.97
03.812,-11.33
03.828,-6.82
03.843,-2.39
03.859,1.91
03.875,5.91
03.890,9.38
03.906,12.11
03.921,13.95
03.937,14.95
03.953,15.22
03.968,14.91
03.984,14.17
04.000,13.12
04.015,11.82
04.031,10.38
04.046,8.93
04.062,7.56
04.078,6.34
04.093,5.25
04.109,4.18
04.125,3.01
04.140,1.61
04.156,-0.06
04.171,-2.04
04.187,-4.29
04.203,-6.77
04.218,-9.44
04.234,-12.17
04.250,-14.84
04.265,-17.23
04.281,-19.19
04.296,-20.72
04.312,-21.92
04.328,-23.07
04.343,-24.46
04.359,-26.28
04.375,-28.51
04.390,-30.98
04.406,-33.34
04.421,-35.23
04.437,-36.32
04.453,-36.32
04.468,-35.09
04.484,-32.63
04.500,-29.11
04.515,-24.84
04.531,-20.24
04.546,-15.62
04.562,-11.17
04.578,-6.9
04.593,-2.69
04.609,1.59
04.625,5.98
04.640,10.37
04.656,14.53
04.671,18.19
04.687,21.18
04.703,23.52
04.718,25.29
04.734,26.68
04.750,27.85
04.765,28.94
04.781,30.02
04.796,31.18
04.812,32.41
04.828,33.71
04.843,34.93
04.859,35.78
04.875,35.96
04.890,35.13
04.906,33.19
04.921,30.18
04.937,26.36
04.953,22.07
04.968,17.6
04.984,13.12
05.000,8.64
05.015,4.12
05.031,-0.53
05.046,-5.29
05.062,-10.13
05.078,-14.95
05.093,-19.66
05.109,-24.18
05.125,-28.4
05.140,-32.24
05.156,-35.55
05.171,-38.18
05.187,-39.95
05.203,-40.61
05.218,-39.86
05.234,-37.44
05.250,-33.14
05.265,-27.0
05.281,-19.28
05.296,-10.48
05.312,-1.23
05.328,7.94
05.343,16.73
05.359,25.12
05.375,33.33
05.390,41.72
05.406,50.5
05.421,59.69
05.437,69.04
05.453,78.15
05.468,86.66
05.484,94.39
05.500,101.42
05.515,107.99
05.531,114.4
05.546,120.88
05.562,127.63
05.578,134.77
05.593,142.4
05.609,150.37
05.625,158.16
05.640,164.69
05.656,168.58
05.671,168.49
05.687,163.79
05.703,155.02
05.718,143.89
05.734,132.72
05.750,123.59
05.765,117.37
05.781,113.3
05.796,109.2
05.812,102.2
05.828,89.61
05.843,69.85
05.859,42.7
05.875,9.2
05.890,-28.62
05.906,-68.02
05.921,-105.79
05.937,-138.29
05.953,-161.88
05.968,-173.7
05.984,-172.57
06.000,-159.86
06.015,-139.49
06.031,-117.11
06.046,-98.44
06.062,-87.55
06.078,-85.68
06.093,-91.23
06.109,-100.84
06.125,-110.92
06.140,-119.02
06.156,-124.33
06.171,-127.5
06.187,-129.78
06.203,-132.29
06.218,-135.34
06.234,-138.56
06.250,-141.09
06.265,-142.05
06.281,-140.84
06.296,-137.23
06.312,-131.19
06.328,-122.81
06.343,-112.22
06.359,-99.73
06.375,-85.93
06.390,-71.85
06.406,-58.84
06.421,-48.22
06.437,-40.83
06.453,-36.62
06.468,-34.62
06.484,-33.31
06.500,-31.26
06.515,-27.6
06.531,-22.26
06.546,-15.79
06.562,-8.9
06.578,-2.07
06.593,4.65
06.609,11.53
06.625,18.85
06.640,26.63
06.656,34.58
06.671,42.14
06.687,48.84
06.703,54.55
06.718,59.57
06.734,64.53
06.750,70.21
06.765,77.2
06.781,85.7
06.796,95.4
06.812,105.55
06.828,115.03
06.843,122.61
06.859,127.24
06.875,128.14
06.890,124.9
06.906,117.46
06.921,105.91
06.937,90.46
06.953,71.42
06.968,49.39
06.984,25.3
07.000,0.49
07.015,-23.56
07.031,-45.59
07.046,-64.93
07.062,-81.51
07.078,-95.54
07.093,-107.17
07.109,-116.01
07.125,-121.31
07.140,-122.25
07.156,-118.54
07.171,-110.65
07.187,-99.86
07.203,-87.86
07.218,-76.21
07.234,-66.01
07.250,-57.81
07.265,-51.71
07.281,-47.55
07.296,-45.04
07.312,-43.8
07.328,-43.25
07.343,-42.84
07.359,-42.04
07.375,-40.54
07.390,-38.35
07.406,-35.65
07.421,-32.7
07.437,-29.74
07.453,-26.93
07.468,-24.3
07.484,-21.76
07.500,-19.1
07.515,-15.98
07.531,-12.02
07.546,-6.9
07.562,-0.54
07.578,6.83
07.593,14.62
07.609,22.17
07.625,28.9
07.640,34.54
07.656,39.24
07.671,43.4
07.687,47.46
07.703,51.71
07.718,56.19
07.734,60.69
07.750,64.93
07.765,68.72
07.781,72.02
07.796,75.02
07.812,77.94
07.828,81.09
07.843,84.73
07.859,89.11
07.875,94.49
07.890,101.18
07.906,109.3
07.921,118.81
07.937,129.34
07.953,140.16
07.968,150.3
07.984,158.76
08.000,164.85
08.015,168.46
08.031,170.12
08.046,170.68
08.062,170.95
08.078,171.27
08.093,171.28
08.109,170.17
08.125,167.04
08.140,161.39
08.156,153.46
08.171,144.13
08.187,134.68
08.203,126.38
08.218,120.11
08.234,116.37
08.250,115.41
08.265,117.25
08.281,121.7
08.296,128.21
08.312,135.66
08.328,142.45
08.343,146.75
08.359,146.96
08.375,142.33
08.390,133.26
08.406,121.21
08.421,108.12
08.437,95.69
08.453,84.86
08.468,75.47
08.484,66.56
08.500,56.9
08.515,45.73
08.531,33.12
08.546,19.98
08.562,7.68
08.578,-2.63
08.593,-10.59
08.609,-16.69
08.625,-22.01
08.640,-27.75
08.656,-34.75
08.671,-43.18
08.687,-52.74
08.703,-62.88
08.718,-73.14
08.734,-83.1
08.750,-92.05
08.765,-98.9
08.781,-102.67
08.796,-103.04
08.812,-100.94
08.828,-98.47
08.843,-98.29
08.859,-102.75
08.875,-113.23
08.890,-130.0
08.906,-152.74
08.921,-181.04
08.937,-214.58
08.953,-252.45
08.968,-292.28
08.984,-329.88
09.000,-359.79
09.015,-376.67
09.031,-376.97
09.046,-360.13
09.062,-328.53
09.078,-286.68
09.093,-239.83
09.109,-192.81
09.125,-149.21
09.140,-111.29
09.156,-80.29
09.171,-56.83
09.187,-41.21
09.203,-33.27
09.218,-32.24
09.234,-36.72
09.250,-44.76
09.265,-53.94
09.281,-61.69
09.296,-65.89
09.312,-65.3
09.328,-59.85
09.343,-50.45
09.359,-38.59
09.375,-25.73
09.390,-12.89
09.406,-0.49
09.421,11.4
09.437,22.71
09.453,33.03
09.468,41.5
09.484,47.19
09.500,49.39
09.515,48.04
09.531,43.92
09.546,38.56
09.562,33.96
09.578,32.17
09.593,34.75
09.609,42.27
09.625,53.88
09.640,67.18
09.656,78.63
09.671,84.48
09.687,82.02
09.703,70.67
09.718,52.3
09.734,30.73
09.750,10.47
09.765,-4.72
09.781,-12.63
09.796,-12.77
09.812,-5.81
09.828,7.13
09.843,24.84
09.859,45.89
09.875,68.29
09.890,89.32
09.906,105.91
09.921,115.46
09.937,116.87
09.953,110.94
09.968,100.35
09.984,88.79
10.000,80.0
10.015,76.68
10.031,79.89
10.046,88.84
10.062,101.12
10.078,113.37
10.093,122.11
10.109,124.61
10.125,119.35
10.140,106.17
10.156,85.93
10.171,60.2
10.187,30.86
10.203,0.06
10.218,-29.94
10.234,-57.12
10.250,-80.21
10.265,-99.42
10.281,-116.65
10.296,-135.19
10.312,-158.5
10.328,-188.71
10.343,-225.42
10.359,-265.2
10.375,-302.2
10.390,-329.56
10.406,-341.14
10.421,-333.11
10.437,-304.83
10.453,-258.95
10.468,-200.64
10.484,-136.39
10.500,-72.63
10.515,-14.84
10.531,33.12
10.546,69.14
10.562,92.78
10.578,105.01
10.593,107.91
10.609,104.2
10.625,96.55
10.640,87.12
10.656,77.37
10.671,68.34
10.687,61.05
10.703,56.56
10.718,55.66
10.734,58.1
10.750,62.32
10.765,65.77
10.781,66.16
10.796,62.69
10.812,56.44
10.828,49.86
10.843,45.14
10.859,42.99
10.875,42.24
10.890,40.74
10.906,37.05
10.921,31.68
10.937,26.96
10.953,25.37
10.968,27.71
10.984,31.66
11.000,32.33
11.015,24.09
11.031,2.89
11.046,-32.2
11.062,-79.06
11.078,-133.71
11.093,-191.55
11.109,-247.7
11.125,-296.69
11.140,-332.34
11.156,-348.79
11.171,-342.64
11.187,-314.87
11.203,-271.6
11.218,-222.25
11.234,-176.26
11.250,-139.78
11.265,-114.28
11.281,-97.4
11.296,-85.29
11.312,-74.97
11.328,-65.15
11.343,-55.99
11.359,-47.97
11.375,-41.04
11.390,-34.58
11.406,-27.87
11.421,-20.63
11.437,-13.07
11.453,-5.91
11.468,0.35
11.484,5.59
11.500,10.38
11.515,15.68
11.531,22.49
11.546,31.37
11.562,42.22
11.578,54.26
11.593,66.26
11.609,76.94
11.625,85.36
11.640,91.16
11.656,94.53
11.671,96.01
11.687,96.48
11.703,96.94
11.718,98.42
11.734,101.78
11.750,107.54
11.765,115.64
11.781,125.51
11.796,136.16
11.812,146.48
11.828,155.55
11.843,162.6
11.859,167.11
11.875,168.79
11.890,167.77
11.906,164.69
11.921,160.62
11.937,156.52
11.953,152.39
11.968,146.99
11.984,138.17
12.000,124.16
12.015,105.03
12.031,83.53
12.046,64.22
12.062,51.77
12.078,48.63
12.093,54.02
12.109,64.55
12.125,76.08
12.140,85.54
12.156,91.59
12.171,93.92
12.187,92.26
12.203,85.84
12.218,73.95
12.234,56.92
12.250,36.66
12.265,15.82
12.281,-3.64
12.296,-21.63
12.312,-39.56
12.328,-58.56
12.343,-77.7
12.359,-93.66
12.375,-102.45
12.390,-102.34
12.406,-96.04
12.421,-90.58
12.437,-94.51
12.453,-113.86
12.468,-149.18
12.484,-195.07
12.500,-242.37
12.515,-281.8
12.531,-306.97
12.546,-315.78
12.562,-309.83
12.578,-292.84
12.593,-269.4
12.609,-244.21
12.625,-221.79
12.640,-205.82
12.656,-198.07
12.671,-197.59
12.687,-200.55
12.703,-201.47
12.718,-195.35
12.734,-179.7
12.750,-155.32
12.765,-125.64
12.781,-95.01
12.796,-66.99
12.812,-43.77
12.828,-26.1
12.843,-13.93
12.859,-6.67
12.875,-3.18
12.890,-1.69
12.906,-0.11
12.921,3.33
12.937,9.24
12.953,16.8
12.968,24.25
12.984,29.76
13.000,32.3
13.015,31.85
13.031,29.21
13.046,25.44
13.062,21.34
13.078,17.25
13.093,13.09
13.109,8.55
13.125,3.37
13.140,-2.64
13.156,-9.52
13.171,-17.1
13.187,-25.11
13.203,-33.17
13.218,-40.86
13.234,-47.79
13.250,-53.71
13.265,-58.5
13.281,-62.19
13.296,-64.88
13.312,-66.73
13.328,-67.97
13.343,-68.92
13.359,-69.98
13.375,-71.57
13.390,-73.95
13.406,-77.08
13.421,-80.42
13.437,-82.92
13.453,-83.21
13.468,-79.99
13.484,-72.5
13.500,-60.7
13.515,-45.4
13.531,-27.99
13.546,-10.06
13.562,7.08
13.578,22.6
13.593,36.26
13.609,48.23
13.625,58.81
13.640,68.3
13.656,76.82
13.671,84.35
13.687,90.83
13.703,96.28
13.718,100.68
13.734,103.98
13.750,106.02
13.765,106.5
13.781,105.22
13.796,102.25
13.812,98.09
13.828,93.58
13.843,89.59
13.859,86.76
13.875,85.31
13.890,85.1
13.906,85.83
13.921,87.28
13.937,89.35
13.953,91.99
13.968,94.96
13.984,97.8
14.000,99.92
14.015,100.96
14.031,100.98
14.046,100.48
14.062,100.26
14.078,101.04
14.093,103.07
14.109,106.08
14.125,109.33
14.140,111.87
14.156,112.91
14.171,112.22
14.187,110.18
14.203,108.06
14.218,107.7
14.234,111.08
14.250,119.7
14.265,133.86
14.281,152.23
14.296,171.92
14.312,189.27
14.328,200.89
14.343,204.88
14.359,201.27
14.375,191.82
14.390,179.12
14.406,165.42
14.421,151.85
14.437,137.98
14.453,122.23
14.468,102.56
14.484,77.53
14.500,47.04
14.515,12.8
14.531,-22.08
14.546,-54.05
14.562,-80.39
14.578,-100.06
14.593,-113.74
14.609,-122.91
14.625,-128.76
14.640,-131.35
14.656,-129.98
14.671,-124.04
14.687,-114.23
14.703,-102.73
14.718,-92.49
14.734,-85.87
14.750,-83.42
14.765,-83.78
14.781,-84.51
14.796,-83.48
14.812,-79.96
14.828,-74.8
14.843,-69.71
14.859,-66.14
14.875,-64.4
14.890,-63.55
14.906,-61.94
14.921,-58.02
14.937,-51.17
14.953,-41.79
14.968,-31.1
14.984,-20.29
15.000,-10.05
15.015,-0.25
15.031,9.89
15.046,21.28
15.062,34.72
15.078,50.59
15.093,68.71
15.109,88.34
15.125,108.29
15.140,127.02
15.156,143.01
15.171,155.29
15.187,163.86
15.203,169.98
15.218,175.87
15.234,183.96
15.250,195.81
15.265,211.29
15.281,228.31
15.296,243.39
15.312,252.92
15.328,254.42
15.343,247.59
15.359,234.51
15.375,218.8
15.390,204.13
15.406,192.72
15.421,184.28
15.437,176.28
15.453,165.19
15.468,147.91
15.484,123.11
15.500,91.39
15.515,54.85
15.531,16.05
15.546,-22.67
15.562,-59.33
15.578,-92.03
15.593,-118.64
15.609,-136.96
15.625,-145.3
15.640,-143.13
15.656,-131.51
15.671,-112.98
15.687,-91.13
15.703,-69.83
15.718,-52.48
15.734,-41.2
15.750,-36.26
15.765,-35.84
15.781,-36.5
15.796,-34.31
15.812,-26.16
15.828,-10.88
15.843,10.53
15.859,35.6
15.875,61.34
15.890,85.01
15.906,104.47
15.921,117.74
15.937,122.83
15.953,118.16
15.968,103.12
15.984,78.72
16.000,47.46
16.015,12.65
16.031,-22.12
16.046,-53.28
16.062,-77.25
16.078,-90.96
16.093,-92.67
16.109,-83.55
16.125,-68.31
16.140,-54.45
16.156,-50.03
16.171,-60.88
16.187,-88.7
16.203,-130.78
16.218,-181.43
16.234,-233.74
16.250,-280.94
16.265,-317.21
16.281,-338.12
16.296,-341.26
16.312,-327.17
16.328,-299.6
16.343,-264.73
16.359,-229.39
16.375,-198.88
16.390,-175.91
16.406,-160.48
16.421,-150.92
16.437,-145.14
16.453,-141.44
16.468,-138.75
16.484,-136.53
16.500,-134.53
16.515,-132.66
16.531,-130.96
16.546,-129.41
16.562,-127.69
16.578,-125.12
16.593,-120.69
16.609,-113.28
16.625,-102.02
16.640,-86.62
16.656,-67.42
16.671,-45.44
16.687,-22.13
16.703,0.92
16.718,22.3
16.734,40.96
16.750,56.49
16.765,69.09
16.781,79.39
16.796,88.29
16.812,96.61
16.828,104.95
16.843,113.63
16.859,122.65
16.875,131.86
16.890,140.98
16.906,149.76
16.921,157.95
16.937,165.5
16.953,172.62
16.968,179.84
16.984,187.93
17.000,197.48
17.015,208.6
17.031,220.58
17.046,231.99
17.062,241.18
17.078,247.04
17.093,249.6
17.109,250.22
17.125,251.14
17.140,254.49
17.156,261.22
17.171,270.5
17.187,279.85
17.203,285.91
17.218,285.58
17.234,277.11
17.250,260.46
17.265,237.13
17.281,209.31
17.296,179.11
17.312,147.94
17.328,116.5
17.343,85.0
17.359,53.41
17.375,21.47
17.390,-11.46
17.406,-46.01
17.421,-81.65
17.437,-115.54
17.453,-142.3
17.468,-155.7
17.484,-151.67
17.500,-131.28
17.515,-101.52
17.531,-73.15
17.546,-56.37
17.562,-56.74
17.578,-73.71
17.593,-102.5
17.609,-137.9
17.625,-177.44
17.640,-221.54
17.656,-270.72
17.671,-322.1
17.687,-367.91
17.703,-397.52
17.718,-402.37
17.734,-380.33
17.750,-337.45
17.765,-285.57
17.781,-237.38
17.796,-201.48
17.812,-179.9
17.828,-169.07
17.843,-163.13
17.859,-157.68
17.875,-151.47
17.890,-146.09
17.906,-143.83
17.921,-145.69
17.937,-150.57
17.953,-155.88
17.968,-159.1
17.984,-158.99
18.000,-156.32
18.015,-153.17
18.031,-151.96
18.046,-154.17
18.062,-159.69
18.078,-167.05
18.093,-174.12
18.109,-179.07
18.125,-180.92
18.140,-179.65
18.156,-175.6
18.171,-169.05
18.187,-159.78
18.203,-147.19
18.218,-130.77
18.234,-110.51
18.250,-87.38
18.265,-63.18
18.281,-40.21
18.296,-20.44
18.312,-4.89
18.328,6.7
18.343,15.43
18.359,22.47
18.375,28.35
18.390,32.63
18.406,34.34
18.421,32.87
18.437,28.63
18.453,23.28
18.468,19.17
18.484,18.39
18.500,21.82
18.515,28.94
18.531,38.11
18.546,47.25
18.562,54.58
18.578,59.0
18.593,60.14
18.609,58.17
18.625,53.61
18.640,47.1
18.656,39.37
18.671,31.17
18.687,23.27
18.703,16.48
18.718,11.37
18.734,8.17
18.750,6.58
18.765,5.9
18.781,5.26
18.796,3.92
18.812,1.45
18.828,-2.31
18.843,-7.21
18.859,-13.09
18.875,-19.59
18.890,-26.22
18.906,-32.08
18.921,-35.95
18.937,-36.4
18.953,-32.31
18.968,-23.21
18.984,-9.4
19.000,8.0
19.015,27.56
19.031,47.87
19.046,67.91
19.062,87.16
19.078,105.49
19.093,122.91
19.109,139.35
19.125,154.44
19.140,167.71
19.156,178.74
19.171,187.49
19.187,194.36
19.203,200.06
19.218,205.35
19.234,210.72
19.250,216.38
19.265,222.41
19.281,228.81
19.296,235.64
19.312,242.9
19.328,250.22
19.343,256.8
19.359,261.41
19.375,262.72
19.390,259.69
19.406,251.88
19.421,239.59
19.437,223.76
19.453,205.85
19.468,187.63
19.484,170.83
19.500,156.8
19.515,146.02
19.531,137.87
19.546,130.59
19.562,121.62
19.578,108.22
19.593,88.24
19.609,60.8
19.625,26.48
19.640,-12.49
19.656,-52.75
19.671,-90.22
19.687,-120.92
19.703,-141.81
19.718,-151.57
19.734,-150.94
19.750,-142.57
19.765,-130.2
19.781,-117.46
19.796,-106.86
19.812,-99.25
19.828,-94.02
19.843,-89.87
19.859,-85.67
19.875,-81.08
19.890,-76.54
19.906,-72.75
19.921,-70.11
19.937,-68.31
19.953,-66.4
19.968,-63.24
19.984,-58.03
20.000,-50.61
20.015,-41.38
20.031,-31.03
20.046,-20.13
20.062,-8.95
20.078,2.45
20.093,13.77
20.109,24.35
20.125,33.12
20.140,38.86
20.156,40.67
20.171,38.3
20.187,32.23
20.203,23.49
20.218,13.34
20.234,2.85
20.250,-7.29
20.265,-16.79
20.281,-25.74
20.296,-34.35
20.312,-42.83
20.328,-51.26
20.343,-59.58
20.359,-67.71
20.375,-75.64
20.390,-83.52
20.406,-91.59
20.421,-99.97
20.437,-108.5
20.453,-116.53
20.468,-122.94
20.484,-126.38
20.500,-125.65
20.515,-120.1
20.531,-109.87
20.546,-95.9
20.562,-79.71
20.578,-62.9
20.593,-46.74
20.609,-31.92
20.625,-18.54
20.640,-6.38
20.656,4.88
20.671,15.37
20.687,25.06
20.703,33.73
20.718,41.2
20.734,47.39
20.750,52.39
20.765,56.4
20.781,59.7
20.796,62.62
20.812,65.43
20.828,68.35
20.843,71.43
20.859,74.59
20.875,77.67
20.890,80.45
20.906,82.73
20.921,84.32
20.937,85.18
20.953,85.22
20.968,84.5
20.984,83.06
21.000,80.97
21.015,78.25
21.031,74.92
21.046,70.99
21.062,66.52
21.078,61.72
21.093,56.87
21.109,52.28
21.125,48.15
21.140,44.59
21.156,41.47
21.171,38.63
21.187,35.89
21.203,33.03
21.218,29.84
21.234,26.1
21.250,21.74
21.265,16.95
21.281,12.28
21.296,8.6
21.312,6.74
21.328,7.31
21.343,10.25
21.359,14.94
21.375,20.31
21.390,25.31
21.406,29.26
21.421,31.93
21.437,33.59
21.453,34.68
21.468,35.59
21.484,36.45
21.500,37.17
21.515,37.53
21.531,37.4
21.546,36.77
21.562,35.76
21.578,34.52
21.593,33.19
21.609,31.78
21.625,30.27
21.640,28.68
21.656,27.09
21.671,25.7
21.687,24.67
21.703,24.12
21.718,23.97
21.734,23.98
21.750,23.93
21.765,23.51
21.781,22.65
21.796,21.3
21.812,19.55
21.828,17.55
21.843,15.42
21.859,13.32
21.875,11.3
21.890,9.41
21.906,7.62
21.921,5.91
21.937,4.24
21.953,2.59
21.968,1.07
21.984,-0.26
22.000,-1.29
22.015,-1.96
22.031,-2.13
22.046,-1.56
22.062,0.21
22.078,3.7
22.093,9.33
22.109,17.28
22.125,27.28
22.140,38.69
22.156,50.67
22.171,62.44
22.187,73.51
22.203,83.73
22.218,93.21
22.234,102.04
22.250,110.25
22.265,117.63
22.281,123.93
22.296,128.96
22.312,132.67
22.328,135.17
22.343,136.61
22.359,136.98
22.375,136.05
22.390,133.36
22.406,128.42
22.421,120.97
22.437,111.13
22.453,99.34
22.468,86.21
22.484,72.2
22.500,57.49
22.515,41.91
22.531,25.08
22.546,6.62
22.562,-13.65
22.578,-35.6
22.593,-58.8
22.609,-82.54
22.625,-106.01
22.640,-128.4
22.656,-148.95
22.671,-167.1
22.687,-182.45
22.703,-194.8
22.718,-204.14
22.734,-210.59
22.750,-214.36
22.765,-215.65
22.781,-214.58
22.796,-211.06
22.812,-204.87
22.828,-195.72
22.843,-183.39
22.859,-168.12
22.875,-150.58
22.890,-131.95
22.906,-113.54
22.921,-96.43
22.937,-81.12
22.953,-67.39
22.968,-54.43
22.984,-41.23
23.000,-27.2
23.015,-12.39
23.031,2.34
23.046,15.59
23.062,25.86
23.078,31.98
23.093,33.26
23.109,29.71
23.125,21.79
23.140,10.34
23.156,-3.62
23.171,-18.81
23.187,-33.79
23.203,-46.94
23.218,-56.79
23.234,-62.28
23.250,-63.17
23.265,-60.05
23.281,-54.24
23.296,-47.33
23.312,-40.75
23.328,-35.48
23.343,-31.88
23.359,-29.81
23.375,-28.89
23.390,-28.65
23.406,-28.77
23.421,-29.03
23.437,-29.33
23.453,-29.66
23.468,-30.07
23.484,-30.65
23.500,-31.56
23.515,-33.02
23.531,-35.12
23.546,-37.79
23.562,-40.62
23.578,-42.9
23.593,-43.73
23.609,-42.4
23.625,-38.59
23.640,-32.57
23.656,-25.06
23.671,-16.96
23.687,-9.06
23.703,-1.77
23.718,4.77
23.734,10.66
23.750,15.95
23.765,20.67
23.781,24.68
23.796,27.88
23.812,30.18
23.828,31.69
23.843,32.6
23.859,33.21
23.875,33.81
23.890,34.6
23.906,35.63
23.921,36.84
23.937,38.08
23.953,39.17
23.968,40.0
23.984,40.55
24.000,40.85
24.015,40.86
24.031,40.52
24.046,39.69
24.062,38.3
24.078,36.37
24.093,34.12
24.109,31.77
24.125,29.59
24.140,27.67
24.156,25.94
24.171,24.2
24.187,22.18
24.203,19.69
24.218,16.63
24.234,13.08
24.250,9.22
24.265,5.39
24.281,2.0
24.296,-0.47
24.312,-1.6
24.328,-1.14
24.343,0.92
24.359,4.31
24.375,8.58
24.390,13.28
24.406,18.01
24.421,22.58
24.437,26.97
24.453,31.22
24.468,35.3
24.484,39.01
24.500,42.12
24.515,44.43
24.531,45.9
24.546,46.71
24.562,47.2
24.578,47.7
24.593,48.42
24.609,49.28
24.625,50.09
24.640,50.57
24.656,50.64
24.671,50.42
24.687,50.18
24.703,50.22
24.718,50.61
24.734,51.14
24.750,51.28
24.765,50.36
24.781,47.7
24.796,42.92
24.812,35.91
24.828,26.92
24.843,16.44
24.859,5.1
24.875,-6.41
24.890,-17.53
24.906,-27.86
24.921,-37.19
24.937,-45.41
24.953,-52.41
24.968,-57.9
24.984,-61.52
25.000,-62.88
25.015,-61.77
25.031,-58.27
25.046,-52.9
25.062,-46.34
25.078,-39.26
25.093,-32.16
25.109,-25.3
25.125,-18.73
25.140,-12.55
25.156,-6.86
25.171,-1.77
25.187,2.64
25.203,6.41
25.218,9.59
25.234,12.22
25.250,14.2
25.265,15.41
25.281,15.72
25.296,15.14
25.312,13.9
25.328,12.28
25.343,10.58
25.359,8.96
25.375,7.44
25.390,5.99
25.406,4.53
25.421,2.99
25.437,1.31
25.453,-0.55
25.468,-2.61
25.484,-4.81
25.500,-7.02
25.515,-9.03
25.531,-10.65
25.546,-11.77
25.562,-12.48
25.578,-12.97
25.593,-13.45
25.609,-14.16
25.625,-15.18
25.640,-16.44
25.656,-17.67
25.671,-18.39
25.687,-18.06
25.703,-16.16
25.718,-12.33
25.734,-6.52
25.750,0.96
25.765,9.51
25.781,18.34
25.796,26.72
25.812,34.1
25.828,40.28
25.843,45.33
25.859,49.52
25.875,53.14
25.890,56.39
25.906,59.32
25.921,61.94
25.937,64.29
25.953,66.61
25.968,69.21
25.984,72.36
26.000,76.16
26.015,80.47
26.031,84.99
26.046,89.51
26.062,93.95
26.078,98.49
26.093,103.45
26.109,109.06
26.125,115.24
26.140,121.61
26.156,127.65
26.171,132.78
26.187,136.76
26.203,139.58
26.218,141.42
26.234,142.41
26.250,142.38
26.265,140.85
26.281,137.19
26.296,130.87
26.312,121.68
26.328,109.77
26.343,95.58
26.359,79.65
26.375,62.56
26.390,44.95
26.406,27.54
26.421,11.04
26.437,-4.2
26.453,-18.56
26.468,-33.11
26.484,-49.4
26.500,-68.7
26.515,-91.3
26.531,-116.17
26.546,-141.11
26.562,-163.39
26.578,-180.66
26.593,-191.57
26.609,-195.98
26.625,-194.71
26.640,-189.17
26.656,-180.84
26.671,-171.01
26.687,-160.65
26.703,-150.32
26.718,-140.3
26.734,-130.79
26.750,-121.9
26.765,-113.82
26.781,-106.87
26.796,-101.35
26.812,-97.47
26.828,-95.26
26.843,-94.46
26.859,-94.54
26.875,-94.89
26.890,-94.91
26.906,-94.2
26.921,-92.62
26.937,-90.14
26.953,-86.87
26.968,-83.06
26.984,-79.0
27.000,-74.96
27.015,-70.93
27.031,-66.5
27.046,-60.73
27.062,-52.4
27.078,-40.42
27.093,-24.49
27.109,-5.43
27.125,14.98
27.140,34.58
27.156,51.83
27.171,66.35
27.187,79.13
27.203,91.93
27.218,106.49
27.234,123.64
27.250,143.11
27.265,163.74
27.281,183.85
27.296,201.85
27.312,216.55
27.328,227.35
27.343,234.13
27.359,237.18
27.375,236.93
27.390,233.86
27.406,228.28
27.421,220.37
27.437,210.25
27.453,198.26
27.468,185.08
27.484,171.66
27.500,158.86
27.515,147.19
27.531,136.6
27.546,126.66
27.562,116.93
27.578,107.21
27.593,97.51
27.609,87.96
27.625,78.56
27.640,69.22
27.656,59.98
27.671,51.28
27.687,44.01
27.703,39.27
27.718,37.83
27.734,39.77
27.750,44.3
27.765,50.13
27.781,55.96
27.796,60.86
27.812,64.36
27.828,66.25
27.843,66.41
27.859,64.72
27.875,61.3
27.890,56.71
27.906,52.04
27.921,48.73
27.937,47.96
27.953,50.09
27.968,54.42
27.984,59.26
28.000,62.56
28.015,62.44
28.031,57.7
28.046,47.96
28.062,33.57
28.078,15.33
28.093,-5.76
28.109,-28.67
28.125,-52.43
28.140,-75.98
28.156,-98.12
28.171,-117.47
28.187,-132.82
28.203,-143.58
28.218,-150.13
28.234,-153.82
28.250,-156.36
28.265,-159.11
28.281,-162.37
28.296,-165.31
28.312,-166.4
28.328,-164.27
28.343,-158.3
28.359,-148.71
28.375,-136.23
28.390,-121.46
28.406,-104.77
28.421,-86.39
28.437,-66.67
28.453,-46.21
28.468,-25.64
28.484,-5.24
28.500,15.22
28.515,36.25
28.531,57.98
28.546,79.7
28.562,99.56
28.578,115.05
28.593,123.86
28.609,124.94
28.625,119.04
28.640,108.55
28.656,96.43
28.671,84.94
28.687,74.67
28.703,64.41
28.718,51.89
28.734,35.14
28.750,13.46
28.765,-12.27
28.781,-40.13
28.796,-68.25
28.812,-95.64
28.828,-122.6
28.843,-150.35
28.859,-180.45
28.875,-214.09
28.890,-251.59
28.906,-292.02
28.921,-333.0
28.937,-371.01
28.953,-402.0
28.968,-422.62
28.984,-431.27
29.000,-428.84
29.015,-418.46
29.031,-404.58
29.046,-391.45
29.062,-381.62
29.078,-375.28
29.093,-370.42
29.109,-363.87
29.125,-352.65
29.140,-335.0
29.156,-310.77
29.171,-281.05
29.187,-247.45
29.203,-211.53
29.218,-174.61
29.234,-137.62
29.250,-101.19
29.265,-65.31
29.281,-29.22
29.296,8.56
29.312,49.36
29.328,93.23
29.343,138.11
29.359,179.78
29.375,213.28
29.390,234.59
29.406,242.19
29.421,237.42
29.437,223.67
29.453,204.91
29.468,184.47
29.484,164.38
29.500,145.48
29.515,127.8
29.531,111.06
29.546,94.91
29.562,79.06
29.578,63.35
29.593,47.79
29.609,32.59
29.625,18.24
29.640,5.46
29.656,-4.87
29.671,-11.94
29.687,-15.04
29.703,-13.94
29.718,-9.01
29.734,-1.18
29.750,8.07
29.765,17.2
29.781,24.96
29.796,30.73
29.812,34.56
29.828,37.05
29.843,38.94
29.859,40.75
29.875,42.66
29.890,44.44
29.906,45.69
29.921,46.11
29.937,45.7
29.953,44.66
29.968,43.45
29.984,42.51
30.000,42.26
30.015,43.0
30.031,44.91
30.046,47.94
30.062,51.66
30.078,55.28
30.093,57.67
30.109,57.84
30.125,55.27
30.140,50.45
30.156,44.88
30.171,40.67
30.187,39.84
30.203,43.62
30.218,51.96
30.234,63.58
30.250,76.44
30.265,88.32
30.281,97.56
30.296,103.51
30.312,106.69
30.328,108.64
30.343,111.45
30.359,117.17
30.375,127.12
30.390,141.58
30.406,159.68
30.421,179.69
30.437,199.62
30.453,217.68
30.468,232.6
30.484,243.69
30.500,250.81
30.515,254.23
30.531,254.75
30.546,253.63
30.562,252.28
30.578,251.76
30.593,252.16
30.609,252.31
30.625,249.9
30.640,242.27
30.656,227.51
30.671,205.18
30.687,176.56
30.703,144.01
30.718,109.96
30.734,75.94
30.750,42.38
30.765,8.76
30.781,-25.57
30.796,-60.73
30.812,-96.1
30.828,-130.71
30.843,-163.76
30.859,-195.14
30.875,-225.51
30.890,-255.82
30.906,-286.97
30.921,-319.46
30.937,-353.5
30.953,-389.11
30.968,-425.85
30.984,-462.3
31.000,-495.66
31.015,-521.99
31.031,-537.33
31.046,-539.16
31.062,-527.51
31.078,-504.98
31.093,-475.4
31.109,-442.22
31.125,-407.4
31.140,-371.65
31.156,-335.85
31.171,-302.55
31.187,-276.22
31.203,-261.96
31.218,-263.31
31.234,-280.37
31.250,-309.53
31.265,-344.91
31.281,-380.53
31.296,-412.02
31.312,-436.91
31.328,-453.91
31.343,-461.64
31.359,-458.16
31.375,-441.68
31.390,-411.6
31.406,-369.69
31.421,-319.93
31.437,-267.45
31.453,-216.86
31.468,-170.95
31.484,-130.26
31.500,-93.7
31.515,-59.53
31.531,-26.32
31.546,6.43
31.562,38.39
31.578,68.78
31.593,96.94
31.609,122.72
31.625,146.55
31.640,169.28
31.656,191.83
31.671,214.91
31.687,239.08
31.703,264.76
31.718,292.27
31.734,321.39
31.750,350.85
31.765,378.03
31.781,399.39
31.796,411.51
31.812,412.51
31.828,402.85
31.843,385.14
31.859,363.02
31.875,339.63
31.890,316.63
31.906,294.2
31.921,271.92
31.937,249.63
31.953,227.89
31.968,207.61
31.984,189.4
32.000,173.04
32.015,157.69
32.031,142.55
32.046,127.46
32.062,113.17
32.078,100.72
32.093,90.84
32.109,83.28
32.125,76.79
32.140,69.69
32.156,60.7
32.171,49.48
32.187,36.8
32.203,24.1
32.218,12.79
32.234,3.67
32.250,-3.4
32.265,-9.28
32.281,-15.17
32.296,-21.92
32.312,-29.69
32.328,-37.8
32.343,-44.91
32.359,-49.52
32.375,-50.48
32.390,-47.36
32.406,-40.51
32.421,-30.85
32.437,-19.5
32.453,-7.46
32.468,4.42
32.484,15.5
32.500,25.22
32.515,33.09
32.531,38.71
32.546,41.91
32.562,42.8
32.578,41.82
32.593,39.65
32.609,37.17
32.625,35.17
32.640,34.31
32.656,34.9
32.671,36.81
32.687,39.55
32.703,42.39
32.718,44.66
32.734,45.87
32.750,45.83
32.765,44.54
32.781,42.07
32.796,38.5
32.812,33.99
32.828,28.79
32.843,23.35
32.859,18.18
32.875,13.58
32.890,9.51
32.906,5.49
32.921,0.76
32.937,-5.36
32.953,-13.14
32.968,-22.16
32.984,-31.32
33.000,-39.08
33.015,-43.92
33.031,-44.78
33.046,-41.38
33.062,-34.34
33.078,-24.99
33.093,-14.93
33.109,-5.59
33.125,2.16
33.140,8.24
33.156,13.11
33.171,17.58
33.187,22.33
33.203,27.56
33.218,32.95
33.234,37.74
33.250,41.07
33.265,42.34
33.281,41.47
33.296,38.9
33.312,35.39
33.328,31.85
33.343,28.96
33.359,27.14
33.375,26.42
33.390,26.64
33.406,27.37
33.421,28.09
33.437,28.09
33.453,26.64
33.468,23.22
33.484,17.78
33.500,10.94
33.515,3.88
33.531,-2.09
33.546,-6.01
33.562,-7.76
33.578,-8.01
33.593,-7.98
33.609,-8.99
33.625,-12.08
33.640,-17.69
33.656,-25.63
33.671,-34.95
33.687,-44.07
33.703,-50.97
33.718,-53.78
33.734,-51.36
33.750,-43.74
33.765,-32.26
33.781,-19.03
33.796,-6.22
33.812,4.6
33.828,12.7
33.843,18.21
33.859,21.71
33.875,23.87
33.890,25.35
33.906,26.62
33.921,28.08
33.937,29.93
33.953,32.16
33.968,34.45
33.984,36.23
34.000,36.91
34.015,35.97
34.031,33.41
34.046,29.72
34.062,25.84
34.078,22.72
34.093,20.99
34.109,20.67
34.125,21.13
34.140,21.44
34.156,20.7
34.171,18.35
34.187,14.31
34.203,8.89
34.218,2.65
34.234,-3.7
34.250,-9.45
34.265,-14.0
34.281,-17.05
34.296,-18.72
34.312,-19.52
34.328,-20.26
34.343,-21.75
34.359,-24.41
34.375,-28.12
34.390,-32.14
34.406,-35.31
34.421,-36.36
34.437,-34.35
34.453,-28.97
34.468,-20.66
34.484,-10.55
34.515,9.74
34.531,17.81
34.546,23.86
34.562,27.93
34.578,30.29
34.593,31.35
34.609,31.52
34.625,31.23
34.640,30.82
34.656,30.58
34.671,30.68
34.687,31.17
34.703,31.92
34.718,32.62
34.734,32.79
34.750,31.88
34.765,29.51
34.781,25.75
34.796,21.18
34.812,16.68
34.828,13.05
34.843,10.58
34.859,8.97
34.875,7.57
34.890,5.84
34.906,3.66
34.921,1.29
34.937,-1.02
34.953,-3.35
34.968,-6.23
34.984,-10.3
35.000,-15.86
35.015,-22.56
35.031,-29.54
35.046,-35.77
35.062,-40.51
35.078,-43.4
35.093,-44.32
35.109,-43.13
35.125,-39.6
35.140,-33.62
35.156,-25.56
35.171,-16.39
35.187,-7.53
35.203,-0.23
35.218,4.87
35.234,8.14
35.250,10.54
35.265,13.17
35.281,16.61
35.296,20.78
35.312,25.03
35.328,28.67
35.343,31.25
35.359,32.82
35.375,33.7
35.390,34.08
35.406,33.8
35.421,32.32
35.437,29.13
35.453,24.21
35.468,18.25
35.484,12.52
35.500,8.32
35.515,6.4
35.531,6.62
35.546,8.1
35.562,9.71
35.578,10.67
35.593,10.72
35.609,10.09
35.625,8.95
35.640,7.16
35.656,4.12
35.671,-0.79
35.687,-7.77
35.703,-16.19
35.718,-24.81
35.734,-32.13
35.750,-37.16
35.765,-39.73
35.781,-40.51
35.796,-40.5
35.812,-40.38
35.828,-40.11
35.843,-38.9
35.859,-35.79
35.875,-30.33
35.890,-23.08
35.906,-15.43
35.921,-9.03
35.937,-4.89
35.953,-2.89
35.968,-1.84
35.984,-0.24
36.000,2.92
36.015,7.67
36.031,13.1
36.046,18.07
36.062,21.82
36.078,24.39
36.093,26.43
36.109,28.64
36.125,31.21
36.140,33.54
36.156,34.63
36.171,33.57
36.187,30.08
36.203,24.9
36.218,19.28
36.234,14.62
36.250,11.73
36.265,10.66
36.281,10.74
36.296,11.15
36.312,11.29
36.328,11.1
36.343,10.98
36.359,11.29
36.375,12.01
36.390,12.43
36.406,11.46
36.421,8.11
36.437,2.07
36.453,-5.96
36.468,-14.56
36.484,-22.11
36.500,-27.58
36.515,-30.94
36.531,-32.92
36.546,-34.53
36.562,-36.2
36.578,-37.44
36.593,-37.03
36.609,-33.73
36.625,-27.09
36.640,-18.01
36.656,-8.36
36.671,-0.23
36.687,5.0
36.703,7.26
36.718,7.71
36.734,7.95
36.750,9.22
36.765,11.86
36.781,15.28
36.796,18.55
36.812,21.04
36.828,22.75
36.843,24.26
36.859,26.28
36.875,28.97
36.890,31.8
36.906,33.67
36.921,33.51
36.937,30.85
36.953,26.23
36.968,20.91
36.984,16.35
37.000,13.57
37.015,12.7
37.031,13.24
37.046,14.32
37.062,15.26
37.078,15.87
37.093,16.39
37.109,17.01
37.125,17.66
37.140,17.86
37.156,16.86
37.171,14.1
37.187,9.5
37.203,3.56
37.218,-2.73
37.234,-8.32
37.250,-12.59
37.265,-15.49
37.281,-17.57
37.296,-19.52
37.312,-21.74
37.328,-24.0
37.343,-25.55
37.359,-25.38
37.375,-22.9
37.390,-18.3
37.406,-12.64
37.421,-7.43
37.437,-3.95
37.453,-2.66
37.468,-3.0
37.484,-3.72
37.500,-3.54
37.515,-1.75
37.531,1.5
37.546,5.45
37.562,9.18
37.578,12.13
37.593,14.28
37.609,16.01
37.625,17.61
37.640,19.01
37.656,19.66
37.671,18.86
37.687,16.28
37.703,12.23
37.718,7.62
37.734,3.69
37.750,1.41
37.765,1.14
37.781,2.57
37.796,4.89
37.812,7.3
37.828,9.34
37.843,10.94
37.859,12.21
37.875,13.11
37.890,13.33
37.906,12.23
37.921,9.28
37.937,4.33
37.953,-2.12
37.968,-8.98
37.984,-15.04
38.000,-19.5
38.015,-22.24
38.031,-23.86
38.046,-25.27
38.062,-27.09
38.078,-29.36
38.093,-31.34
38.109,-31.98
38.125,-30.41
38.140,-26.45
38.156,-20.7
38.171,-14.38
38.187,-8.69
38.203,-4.32
38.218,-1.28
38.234,1.12
38.250,3.7
38.265,6.96
38.281,10.88
38.296,14.94
38.312,18.46
38.328,21.06
38.343,22.88
38.359,24.39
38.375,26.09
38.390,27.99
38.406,29.61
38.421,30.1
38.437,28.8
38.453,25.65
38.468,21.31
38.484,16.98
38.500,13.73
38.515,12.13
38.531,11.98
38.546,12.58
38.562,13.16
38.578,13.31
38.593,13.14
38.609,13.08
38.625,13.46
38.640,14.11
38.656,14.41
38.671,13.38
38.687,10.32
38.703,5.03
38.718,-1.96
38.734,-9.52
38.750,-16.44
38.765,-21.86
38.781,-25.68
38.796,-28.42
38.812,-30.9
38.828,-33.6
38.843,-36.34
38.859,-38.2
38.875,-37.96
38.890,-34.87
38.906,-29.02
38.921,-21.53
38.937,-14.0
38.953,-7.81
38.968,-3.52
38.984,-0.72
39.000,1.6
39.015,4.48
39.031,8.35
39.046,12.95
39.062,17.53
39.078,21.36
39.093,24.1
39.109,25.98
39.125,27.58
39.140,29.35
39.156,31.27
39.171,32.64
39.187,32.52
39.203,30.15
39.218,25.5
39.234,19.44
39.250,13.4
39.265,8.84
39.281,6.48
39.296,6.16
39.312,7.0
39.328,8.04
39.343,8.67
39.359,8.98
39.375,9.37
39.390,10.12
39.406,11.04
39.421,11.28
39.437,9.71
39.453,5.56
39.468,-1.06
39.484,-9.11
39.500,-16.99
39.515,-23.24
39.531,-27.23
39.546,-29.22
39.562,-30.26
39.578,-31.41
39.593,-33.2
39.609,-35.26
39.625,-36.59
39.640,-36.07
39.656,-33.13
39.671,-28.13
39.687,-22.12
39.703,-16.32
39.718,-11.4
39.734,-7.22
39.750,-3.05
39.765,1.91
39.781,7.93
39.796,14.55
39.812,20.79
39.828,25.76
39.843,29.04
39.859,30.94
39.875,32.12
39.890,33.02
39.906,33.6
39.921,33.33
39.937,31.51
39.953,27.81
39.968,22.68
39.984,17.17
40.000,12.62
40.015,10.08
40.031,9.79
40.046,11.23
40.062,13.36
40.078,15.2
40.093,16.17
40.109,16.22
40.125,15.56
40.140,14.35
40.156,12.45
40.171,9.45
40.187,4.99
40.203,-0.93
40.218,-7.66
40.234,-14.2
40.250,-19.53
40.265,-23.11
40.281,-25.09
40.296,-26.13
40.312,-27.12
40.328,-28.49
40.343,-30.06
40.359,-31.02
40.375,-30.33
40.390,-27.38
40.406,-22.32
40.421,-16.08
40.437,-9.96
40.453,-5.01
40.468,-1.46
40.484,1.25
40.500,4.13
40.515,7.99
40.531,12.91
40.546,18.2
40.562,22.81
40.578,25.93
40.593,27.46
40.609,27.97
40.625,28.21
40.640,28.53
40.656,28.55
40.671,27.33
40.687,24.11
40.703,18.9
40.718,12.76
40.734,7.35
40.750,4.11
40.765,3.41
40.781,4.5
40.796,5.97
40.812,6.62
40.828,6.09
40.843,4.92
40.859,3.99
40.875,3.82
40.890,4.05
40.906,3.58
40.921,1.21
40.937,-3.62
40.953,-10.43
40.968,-17.94
40.984,-24.65
41.000,-29.63
41.015,-32.74
41.031,-34.45
41.046,-35.26
41.062,-35.19
41.078,-33.68
41.093,-29.98
41.109,-23.73
41.125,-15.37
41.140,-6.26
41.156,1.94
41.171,7.88
41.187,11.12
41.203,12.26
41.218,12.55
41.234,13.22
41.250,14.87
41.265,17.36
41.281,19.95
41.296,21.84
41.312,22.7
41.328,22.76
41.343,22.67
41.359,22.96
41.375,23.7
41.390,24.23
41.406,23.61
41.421,21.06
41.437,16.58
41.453,11.0
41.468,5.69
41.484,1.88
41.500,0.01
41.515,-0.35
41.531,-0.27
41.546,-0.73
41.562,-2.14
41.578,-4.12
41.593,-5.98
41.609,-7.21
41.625,-7.92
41.640,-8.93
41.656,-11.21
41.671,-15.39
41.687,-21.24
41.703,-27.74
41.718,-33.55
41.734,-37.62
41.750,-39.57
41.765,-39.56
41.781,-38.04
41.796,-35.24
41.812,-31.08
41.828,-25.32
41.843,-17.92
41.859,-9.36
41.875,-0.72
41.890,6.68
41.906,11.76
41.921,14.16
41.937,14.44
41.953,13.7
41.968,13.17
41.984,13.57
42.000,14.87
42.015,16.51
42.031,17.81
42.046,18.5
42.062,18.83
42.078,19.44
42.093,20.74
42.109,22.55
42.125,24.05
42.140,24.04
42.156,21.63
42.171,16.72
42.187,10.18
42.203,3.47
42.218,-1.96
42.234,-5.29
42.250,-6.52
42.265,-6.33
42.281,-5.62
42.296,-5.02
42.312,-4.69
42.328,-4.51
42.343,-4.38
42.359,-4.54
42.375,-5.67
42.390,-8.59
42.406,-13.88
42.421,-21.44
42.437,-30.27
42.453,-38.89
42.468,-45.74
42.484,-49.77
42.500,-50.72
42.515,-48.96
42.531,-45.15
42.546,-39.73
42.562,-32.85
42.578,-24.45
42.593,-14.69
42.609,-4.33
42.625,5.3
42.640,12.68
42.656,16.74
42.671,17.32
42.687,15.41
42.703,12.58
42.718,10.43
42.734,9.93
42.750,11.14
42.765,13.47
42.781,16.12
42.796,18.46
42.812,20.27
42.828,21.66
42.843,22.72
42.859,23.27
42.875,22.8
42.890,20.63
42.906,16.42
42.921,10.48
42.937,3.85
42.953,-2.05
42.968,-6.03
42.984,-7.62
43.000,-7.27
43.015,-6.1
43.031,-5.24
43.046,-5.35
43.062,-6.36
43.078,-7.78
43.093,-9.2
43.109,-10.76
43.125,-12.98
43.140,-16.47
43.156,-21.22
43.171,-26.53
43.187,-31.22
43.203,-34.37
43.218,-35.97
43.234,-36.85
43.250,-38.2
43.265,-40.76
43.281,-44.17
43.296,-47.0
43.312,-47.53
43.328,-44.72
43.343,-38.97
43.359,-32.02
43.375,-26.12
43.390,-22.83
43.406,-22.32
43.421,-23.46
43.437,-24.57
43.453,-24.32
43.468,-22.24
43.484,-18.62
43.500,-14.01
43.515,-9.02
43.531,-4.62
43.546,-2.52
43.562,-5.04
43.578,-14.14
43.593,-30.01
43.609,-50.29
43.625,-70.52
43.640,-86.04
43.656,-94.19
43.671,-95.43
43.687,-92.91
43.703,-90.44
43.718,-90.5
43.734,-93.14
43.750,-96.38
43.765,-97.45
43.781,-94.24
43.796,-85.85
43.812,-72.28
43.828,-53.74
43.843,-30.38
43.859,-2.65
43.875,28.23
43.890,59.94
43.906,89.57
43.921,114.31
43.937,132.16
43.953,142.13
43.968,143.99
43.984,138.13
44.000,125.77
44.015,109.48
44.031,93.26
44.046,81.66
44.062,78.13
44.078,83.29
44.093,94.12
44.109,105.03
44.125,110.35
44.140,106.96
44.156,95.45
44.171,79.47
44.187,63.32
44.203,49.92
44.218,39.9
44.234,32.33
44.250,26.31
44.265,22.2
44.281,21.76
44.296,26.92
44.312,38.48
44.328,55.26
44.343,74.24
44.359,91.68
44.375,104.51
44.390,111.21
44.406,112.05
44.421,108.49
44.437,102.49
44.453,95.67
44.468,89.12
44.484,83.43
44.500,78.84
44.515,75.3
44.531,72.43
44.546,69.49
44.562,65.4
44.578,59.04
44.593,49.59
44.609,36.94
44.625,21.91
44.640,6.1
44.656,-8.55
44.671,-20.07
44.687,-26.94
44.703,-28.26
44.718,-23.8
44.734,-14.12
44.750,-0.42
44.765,15.66
44.781,32.38
44.796,48.16
44.812,61.71
44.828,71.93
44.843,77.69
44.859,77.93
44.875,72.09
44.890,60.88
44.906,46.68
44.921,33.22
44.937,24.43
44.953,22.75
44.968,27.83
44.984,36.23
45.000,42.49
45.015,41.11
45.031,28.48
45.046,4.15
45.062,-29.35
45.078,-67.58
45.093,-105.82
45.109,-140.35
45.125,-169.04
45.140,-190.9
45.156,-205.52
45.171,-212.51
45.187,-211.52
45.203,-202.79
45.218,-187.66
45.234,-168.81
45.250,-149.65
45.265,-133.29
45.281,-121.39
45.296,-113.69
45.312,-108.55
45.328,-103.93
45.343,-98.44
45.359,-91.83
45.375,-84.84
45.390,-78.49
45.406,-73.49
45.421,-69.85
45.437,-66.97
45.453,-64.14
45.468,-60.9
45.484,-57.29
45.500,-53.77
45.515,-50.97
45.531,-49.35
45.546,-49.02
45.562,-49.78
45.578,-51.22
45.593,-52.87
45.609,-54.18
45.625,-54.64
45.640,-53.69
45.656,-50.9
45.671,-46.01
45.687,-39.13
45.703,-30.79
45.718,-21.79
45.734,-12.99
45.750,-4.97
45.765,1.99
45.781,7.95
45.796,13.09
45.812,17.57
45.828,21.39
45.843,24.37
45.859,26.35
45.875,27.3
45.890,27.41
45.906,27.04
45.921,26.52
45.937,26.09
45.953,25.76
45.968,25.41
45.984,24.91
46.000,24.24
46.015,23.53
46.031,22.97
46.046,22.62
46.062,22.33
46.078,21.83
46.093,20.82
46.109,19.21
46.125,17.07
46.140,14.69
46.156,12.22
46.171,9.68
46.187,6.94
46.203,3.9
46.218,0.58
46.234,-2.79
46.250,-5.93
46.265,-8.7
46.281,-11.14
46.296,-13.48
46.312,-15.98
46.328,-18.74
46.343,-21.75
46.359,-24.94
46.375,-28.19
46.390,-31.34
46.406,-34.14
46.421,-36.1
46.437,-36.58
46.453,-34.95
46.468,-30.95
46.484,-24.79
46.500,-17.23
46.515,-9.22
46.531,-1.57
46.546,5.27
46.562,11.21
46.578,16.34
46.593,20.68
46.609,24.12
46.625,26.5
46.640,27.75
46.656,28.12
46.671,28.03
46.687,27.92
46.703,28.12
46.718,28.69
46.734,29.52
46.750,30.48
46.765,31.5
46.781,32.49
46.796,33.37
46.812,33.8
46.828,33.41
46.843,31.99
46.859,29.54
46.875,26.44
46.890,23.21
46.906,20.27
46.921,17.71
46.937,15.35
46.953,12.83
46.968,9.93
46.984,6.74
47.000,3.52
47.015,0.64
47.031,-1.77
47.046,-3.87
47.062,-6.1
47.078,-8.9
47.093,-12.55
47.109,-17.0
47.125,-21.91
47.140,-26.83
47.156,-31.12
47.171,-34.23
47.187,-35.68
47.203,-35.05
47.218,-32.07
47.234,-26.68
47.250,-19.19
47.265,-10.25
47.281,-0.86
47.296,7.99
47.312,15.47
47.328,21.18
47.343,25.2
47.359,27.95
47.375,29.93
47.390,31.53
47.406,32.91
47.421,33.97
47.437,34.58
47.453,34.7
47.468,34.51
47.484,34.31
47.500,34.43
47.515,34.92
47.531,35.58
47.546,35.97
47.562,35.64
47.578,34.39
47.593,32.31
47.609,29.72
47.625,27.04
47.640,24.52
47.656,22.17
47.671,19.87
47.687,17.52
47.703,15.12
47.718,12.84
47.734,10.82
47.750,9.05
47.765,7.31
47.781,5.24
47.796,2.49
47.812,-1.01
47.828,-5.04
47.843,-9.17
47.859,-12.97
47.875,-16.24
47.890,-19.11
47.906,-21.93
47.921,-25.07
47.937,-28.59
47.953,-32.08
47.968,-34.69
47.984,-35.37
48.000,-33.22
48.015,-27.95
48.031,-19.94
48.046,-10.14
48.062,0.19
48.078,10.0
48.093,18.66
48.109,26.06
48.125,32.41
48.140,38.07
48.156,43.27
48.171,48.0
48.187,52.16
48.203,55.66
48.218,58.5
48.234,60.75
48.250,62.44
48.265,63.56
48.281,64.11
48.296,64.21
48.312,64.26
48.328,64.7
48.343,65.94
48.359,68.09
48.375,70.92
48.390,74.11
48.406,77.43
48.421,81.05
48.437,85.43
48.453,91.08
48.468,98.04
48.484,105.81
48.500,113.56
48.515,120.44
48.531,125.9
48.546,129.78
48.562,132.11
48.578,133.14
48.593,133.24
48.609,133.05
48.625,133.67
48.640,136.71
48.656,143.91
48.671,156.37
48.687,173.79
48.703,193.93
48.718,212.94
48.734,226.27
48.750,229.99
48.765,221.95
48.781,202.5
48.796,174.22
48.812,141.07
48.828,107.26
48.843,76.32
48.859,50.94
48.875,32.86
48.890,22.92
48.906,20.73
48.921,24.4
48.937,30.31
48.953,33.94
48.968,31.07
48.984,19.18
49.000,-1.51
49.015,-28.11
49.031,-56.03
49.046,-80.56
49.062,-98.34
49.078,-108.02
49.093,-109.94
49.109,-105.29
49.125,-95.28
49.140,-80.82
49.156,-62.57
49.171,-41.51
49.187,-19.04
49.203,3.1
49.218,23.38
49.234,40.99
49.250,56.12
49.265,69.35
49.281,81.1
49.296,91.09
49.312,98.18
49.328,101.15
49.343,99.13
49.359,92.21
49.375,81.38
49.390,68.19
49.406,53.98
49.421,39.57
49.437,25.05
49.453,10.1
49.468,-5.54
49.484,-21.87
49.500,-38.43
49.515,-54.44
49.531,-69.1
49.546,-81.8
49.562,-92.01
49.578,-99.36
49.593,-103.52
49.609,-104.2
49.625,-101.09
49.640,-93.92
49.656,-82.32
49.671,-65.94
49.687,-44.82
49.703,-20.06
49.718,5.76
49.734,28.59
49.750,43.84
49.765,47.83
49.781,39.04
49.796,18.64
49.812,-10.33
49.828,-43.99
49.843,-78.75
49.859,-111.52
49.875,-139.58
49.890,-160.39
49.906,-172.19
49.921,-175.0
49.937,-171.2
49.953,-165.21
49.968,-161.8
49.984,-163.98
50.000,-171.86
50.015,-182.9
50.031,-193.58
50.046,-201.38
50.062,-205.9
50.078,-208.5
50.093,-211.02
50.109,-214.35
50.125,-217.79
50.140,-219.5
50.156,-217.53
50.171,-210.69
50.187,-198.99
50.203,-183.55
50.218,-165.95
50.234,-147.85
50.250,-130.73
50.265,-115.84
50.281,-104.21
50.296,-96.66
50.312,-93.52
50.328,-94.41
50.343,-98.0
50.359,-102.12
50.375,-104.19
50.390,-102.03
50.406,-94.49
50.421,-81.92
50.437,-65.94
50.453,-48.79
50.468,-32.59
50.484,-18.62
50.500,-7.13
50.515,2.38
50.531,10.65
50.546,18.29
50.562,25.54
50.578,32.41
50.593,38.95
50.609,45.38
50.625,52.13
50.640,59.78
50.656,68.71
50.671,79.03
50.687,90.43
50.703,102.15
50.718,113.0
50.734,121.57
50.750,126.51
50.765,127.06
50.781,123.52
50.796,117.23
50.812,110.25
50.828,104.42
50.843,100.61
50.859,98.25
50.875,95.59
50.890,90.79
50.906,83.04
50.921,73.19
50.937,63.4
50.953,55.8
50.968,50.81
50.984,46.39
51.000,38.42
51.015,22.34
51.031,-5.0
51.046,-44.33
51.062,-94.13
51.078,-151.47
51.093,-212.67
51.109,-273.14
51.125,-326.76
51.140,-365.72
51.156,-382.12
51.171,-370.86
51.187,-332.72
51.203,-275.28
51.218,-210.96
51.234,-152.57
51.250,-108.58
51.265,-80.84
51.281,-65.25
51.296,-55.28
51.312,-45.7
51.328,-34.79
51.343,-23.92
51.359,-15.28
51.375,-9.68
51.390,-5.51
51.406,0.29
51.421,10.37
51.437,25.28
51.453,42.92
51.468,59.63
51.484,72.03
51.500,78.81
51.515,81.3
51.531,82.74
51.546,86.52
51.562,94.43
51.578,105.7
51.593,117.39
51.609,125.87
51.625,128.34
51.640,123.69
51.656,112.48
51.671,96.21
51.687,76.81
51.703,56.5
51.718,37.83
51.734,23.17
51.750,13.69
51.765,8.0
51.781,1.8
51.796,-10.87
51.812,-35.07
51.828,-72.19
51.843,-118.86
51.859,-167.78
51.875,-210.29
51.890,-239.16
51.906,-250.13
51.921,-242.1
51.937,-216.3
51.953,-175.57
51.968,-124.24
51.984,-68.11
52.000,-14.05
52.015,31.55
52.031,64.48
52.046,84.04
52.062,93.07
52.078,96.41
52.093,98.81
52.109,103.14
52.125,109.77
52.140,117.01
52.156,122.38
52.171,123.93
52.187,120.94
52.203,114.2
52.218,105.57
52.234,97.27
52.250,91.24
52.265,88.63
52.281,89.54
52.296,93.06
52.312,97.43
52.328,100.49
52.343,100.08
52.359,94.52
52.375,83.03
52.390,65.86
52.406,44.41
52.421,20.8
52.437,-2.51
52.453,-23.47
52.468,-40.86
52.484,-54.36
52.500,-64.36
52.515,-71.42
52.531,-75.95
52.546,-78.07
52.562,-77.76
52.578,-75.15
52.593,-70.79
52.609,-65.99
52.625,-62.88
52.640,-64.06
52.656,-71.82
52.671,-86.77
52.687,-106.67
52.703,-126.35
52.718,-138.96
52.734,-138.4
52.750,-121.93
52.765,-91.52
52.781,-52.94
52.796,-13.31
52.812,21.94
52.828,50.78
52.843,74.23
52.859,94.34
52.875,112.29
52.890,127.51
52.906,138.5
52.921,144.57
52.937,146.77
52.953,147.58
52.968,149.26
52.984,152.0
53.000,153.51
53.015,150.04
53.031,138.76
53.046,119.58
53.062,95.56
53.078,71.39
53.093,51.18
53.109,36.57
53.125,26.42
53.140,18.34
53.156,10.38
53.171,2.35
53.187,-4.3
53.203,-7.61
53.218,-6.4
53.234,-0.79
53.250,8.2
53.265,19.14
53.281,30.78
53.296,41.65
53.312,49.55
53.328,51.12
53.343,42.56
53.359,20.89
53.375,-14.29
53.390,-59.79
53.406,-109.31
53.421,-155.36
53.437,-191.62
53.453,-214.67
53.468,-224.08
53.484,-221.18
53.500,-207.27
53.515,-182.67
53.531,-146.85
53.546,-99.85
53.562,-43.86
53.578,16.07
53.593,72.89
53.609,119.64
53.625,151.66
53.640,167.9
53.656,170.77
53.671,164.67
53.687,154.12
53.703,142.36
53.718,130.89
53.734,119.75
53.750,108.22
53.765,95.26
53.781,79.67
53.796,59.99
53.812,34.65
53.828,2.44
53.843,-36.67
53.859,-80.92
53.875,-126.83
53.890,-169.9
53.906,-205.66
53.921,-230.61
53.937,-242.77
53.953,-241.64
53.968,-228.14
53.984,-204.37
54.000,-173.41
54.015,-139.06
54.031,-105.2
54.046,-74.97
54.062,-50.13
54.078,-30.83
54.093,-16.1
54.109,-4.61
54.125,4.6
54.140,11.88
54.156,17.25
54.171,20.81
54.187,22.71
54.203,22.82
54.218,20.4
54.234,14.18
54.250,3.09
54.265,-12.77
54.281,-31.59
54.296,-50.18
54.312,-65.11
54.328,-74.1
54.343,-76.75
54.359,-74.19
54.375,-68.13
54.390,-59.68
54.406,-49.02
54.421,-35.85
54.437,-20.04
54.453,-2.26
54.468,16.25
54.484,34.24
54.500,51.18
54.515,67.43
54.531,83.81
54.546,100.97
54.562,118.58
54.578,135.26
54.593,149.07
54.609,158.44
54.625,163.08
54.640,164.49
54.656,165.64
54.671,170.07
54.687,180.62
54.703,198.17
54.718,221.02
54.734,244.88
54.750,263.89
54.765,272.18
54.781,265.41
54.796,242.04
54.812,204.08
54.828,156.95
54.843,108.43
54.859,66.7
54.875,37.54
54.890,22.09
54.906,16.06
54.921,11.24
54.937,-0.98
54.953,-25.75
54.968,-62.45
54.984,-105.27
55.000,-146.32
55.015,-179.42
55.031,-202.53
55.046,-217.64
55.062,-228.58
55.078,-238.19
55.093,-246.78
55.109,-252.24
55.125,-251.48
55.140,-241.89
55.156,-222.16
55.171,-192.27
55.187,-153.25
55.203,-107.05
55.218,-56.5
55.234,-5.16
55.250,43.29
55.265,86.04
55.281,121.93
55.296,151.58
55.312,176.51
55.328,198.02
55.343,216.25
55.359,230.19
55.375,238.32
55.390,239.59
55.406,233.93
55.421,222.04
55.437,204.67
55.453,181.93
55.468,153.4
55.484,119.08
55.500,80.46
55.515,40.85
55.531,4.58
55.546,-24.63
55.562,-45.38
55.578,-59.19
55.593,-69.7
55.609,-80.73
55.625,-94.23
55.640,-109.08
55.656,-121.6
55.671,-127.25
55.687,-122.69
55.703,-107.17
55.718,-82.7
55.734,-53.09
55.750,-22.55
55.765,5.48
55.781,28.77
55.796,46.4
55.812,58.45
55.828,66.11
55.843,71.39
55.859,76.5
55.875,82.93
55.890,90.36
55.906,96.09
55.921,95.72
55.937,84.47
55.953,58.76
55.968,17.29
55.984,-38.52
56.000,-104.42
56.015,-173.7
56.031,-237.74
56.046,-287.42
56.062,-315.08
56.078,-316.58
56.093,-292.73
56.109,-249.06
56.125,-194.23
56.140,-137.33
56.156,-85.59
56.171,-43.2
56.187,-11.34
56.203,10.87
56.218,25.4
56.234,34.43
56.250,39.97
56.265,43.55
56.281,46.21
56.296,48.63
56.312,51.27
56.328,54.72
56.343,59.49
56.359,65.61
56.375,72.4
56.390,78.53
56.406,82.52
56.421,83.4
56.437,81.18
56.453,76.75
56.468,71.5
56.484,66.66
56.500,62.96
56.515,60.44
56.531,58.48
56.546,56.01
56.562,51.72
56.578,44.45
56.593,33.61
56.609,19.56
56.625,3.62
56.640,-12.31
56.656,-26.35
56.671,-37.31
56.687,-44.73
56.703,-48.94
56.718,-50.43
56.734,-49.54
56.750,-46.32
56.765,-40.68
56.781,-32.76
56.796,-23.16
56.812,-13.06
56.828,-3.92
56.843,2.73
56.859,5.85
56.875,5.3
56.890,2.08
56.906,-1.5
56.921,-2.29
56.937,2.93
56.953,16.44
56.968,38.62
56.984,67.47
57.000,98.98
57.015,128.08
57.031,150.0
57.046,161.73
57.062,162.72
57.078,154.76
57.093,141.25
57.109,125.75
57.125,110.56
57.140,95.8
57.156,79.33
57.171,57.83
57.187,28.63
57.203,-8.62
57.218,-51.22
57.234,-93.89
57.250,-130.43
57.265,-155.66
57.281,-166.96
57.296,-164.59
57.312,-151.15
57.328,-130.28
57.343,-105.74
57.359,-80.89
57.375,-58.61
57.390,-41.31
57.406,-30.56
57.421,-26.61
57.437,-28.07
57.453,-32.18
57.468,-35.43
57.484,-34.8
57.500,-28.7
57.515,-17.52
57.531,-3.52
57.546,9.98
57.562,19.84
57.578,24.31
57.593,23.54
57.609,19.42
57.625,14.6
57.640,11.19
57.656,9.87
57.671,9.63
57.687,8.29
57.703,3.44
57.718,-6.85
57.734,-23.77
57.750,-47.62
57.765,-77.65
57.781,-111.61
57.796,-145.34
57.812,-173.04
57.828,-188.52
57.843,-187.2
57.859,-167.91
57.875,-133.56
57.890,-90.18
57.906,-44.85
57.921,-3.5
57.937,30.43
57.953,55.93
57.968,73.5
57.984,84.06
58.000,88.42
58.015,87.37
58.031,82.21
58.046,74.88
58.062,67.68
58.078,62.68
58.093,60.88
58.109,61.98
58.125,64.77
58.140,67.89
58.156,70.72
58.171,73.68
58.187,77.79
58.203,83.78
58.218,91.26
58.234,98.38
58.250,102.42
58.265,100.85
58.281,92.51
58.296,78.13
58.312,60.2
58.328,42.02
58.343,26.58
58.359,15.68
58.375,9.56
58.390,7.15
58.406,6.65
58.421,6.21
58.437,4.39
58.453,0.47
58.468,-5.64
58.484,-13.7
58.500,-23.27
58.515,-34.02
58.531,-45.72
58.546,-58.27
58.562,-71.65
58.578,-85.81
58.593,-100.64
58.609,-115.71
58.625,-130.23
58.640,-142.83
58.656,-151.86
58.671,-155.62
58.687,-152.96
58.703,-143.55
58.718,-128.07
58.734,-107.97
58.750,-84.98
58.765,-60.75
58.781,-36.33
58.796,-12.2
58.812,11.63
58.828,35.3
58.843,58.81
58.859,81.88
58.875,103.97
58.890,124.53
58.906,142.99
58.921,158.98
58.937,172.12
58.953,181.93
58.968,188.02
58.984,190.27
59.000,189.29
59.015,186.51
59.031,184.03
59.046,183.84
59.062,187.21
59.078,194.13
59.093,203.33
59.109,212.92
59.125,220.96
59.140,226.12
59.156,227.78
59.171,225.99
59.187,221.17
59.203,213.81
59.218,204.46
59.234,193.55
59.250,181.36
59.265,167.9
59.281,152.78
59.296,135.27
59.312,114.48
59.328,89.59
59.343,60.06
59.359,25.76
59.375,-13.04
59.390,-55.6
59.406,-100.86
59.421,-147.44
59.437,-193.47
59.453,-236.61
59.468,-274.02
59.484,-302.71
59.500,-320.26
59.515,-325.65
59.531,-319.72
59.546,-305.12
59.562,-285.44
59.578,-263.99
59.593,-242.88
59.609,-222.7
59.625,-203.02
59.640,-183.41
59.656,-164.18
59.671,-146.54
59.687,-132.09
59.703,-122.02
59.718,-116.41
59.734,-114.14
59.750,-113.31
59.765,-111.83
59.781,-108.16
59.796,-101.57
59.812,-92.16
59.828,-80.54
59.843,-67.51
59.859,-53.78
59.875,-39.77
59.890,-25.77
59.906,-12.05
59.921,0.99
59.937,12.94
59.953,23.56
59.968,32.95
59.984,41.71
