timestamp,value
00.000,-0.04
00.015,17.09
00.031,33.07
00.046,46.94
00.062,58.41
00.078,67.76
00.093,75.49
00.109,82.04
00.125,87.62
00.140,92.26
00.156,95.93
00.171,98.69
00.187,100.67
00.203,101.97
00.218,102.57
00.234,102.29
00.250,100.98
00.265,98.63
00.281,95.47
00.296,91.85
00.312,88.0
00.328,83.85
00.343,79.03
00.359,73.06
00.375,65.58
00.390,56.63
00.406,46.64
00.421,36.21
00.437,25.87
00.453,15.77
00.468,5.7
00.484,-4.75
00.500,-15.94
00.515,-28.06
00.531,-41.1
00.546,-54.92
00.562,-69.16
00.578,-83.24
00.593,-96.18
00.609,-106.77
00.625,-113.85
00.640,-116.68
00.656,-115.2
00.671,-110.0
00.687,-102.06
00.703,-92.32
00.718,-81.48
00.734,-69.98
00.750,-58.31
00.765,-47.1
00.781,-37.22
00.796,-29.53
00.812,-24.61
00.828,-22.62
00.843,-23.29
00.859,-26.08
00.875,-30.33
00.890,-35.38
00.906,-40.65
00.921,-45.61
00.937,-49.85
00.953,-53.06
00.968,-55.15
00.984,-56.24
01.000,-56.67
01.015,-56.98
01.031,-57.77
01.046,-59.52
01.062,-62.36
01.078,-65.99
01.093,-69.77
01.109,-72.97
01.125,-75.09
01.140,-76.08
01.156,-76.37
01.171,-76.6
01.187,-77.4
01.203,-78.99
01.218,-81.09
01.234,-82.87
01.250,-83.07
01.265,-80.27
01.281,-73.28
01.296,-61.43
01.312,-44.86
01.328,-24.56
01.343,-2.08
01.359,20.8
01.375,42.62
01.390,62.39
01.406,79.69
01.421,94.46
01.437,106.82
01.453,116.93
01.468,124.92
01.484,131.01
01.500,135.47
01.515,138.69
01.531,141.04
01.546,142.8
01.562,144.07
01.578,144.71
01.593,144.33
01.609,142.41
01.625,138.37
01.640,131.69
01.656,122.01
01.671,109.05
01.687,92.68
01.703,72.92
01.718,50.21
01.734,25.52
01.750,0.5
01.765,-22.72
01.781,-42.01
01.796,-55.74
01.812,-63.34
01.828,-65.42
01.843,-63.53
01.859,-59.61
01.875,-55.37
01.890,-51.75
01.906,-48.84
01.921,-45.92
01.937,-41.93
01.953,-35.87
01.968,-27.23
01.984,-16.21
02.000,-3.7
02.015,9.05
02.031,20.86
02.046,30.98
02.062,39.17
02.078,45.6
02.093,50.52
02.109,54.08
02.125,56.24
02.140,56.94
02.156,56.34
02.171,54.91
02.187,53.19
02.203,51.62
02.218,50.25
02.234,48.68
02.250,46.22
02.265,42.19
02.281,36.02
02.296,27.35
02.312,15.98
02.328,1.69
02.343,-15.67
02.359,-36.13
02.375,-59.4
02.390,-84.7
02.406,-110.54
02.421,-134.95
02.437,-155.85
02.453,-171.54
02.468,-181.38
02.484,-185.97
02.500,-186.93
02.515,-186.33
02.531,-185.83
02.546,-186.03
02.562,-186.4
02.578,-185.59
02.593,-182.04
02.609,-174.56
02.625,-162.47
02.640,-145.67
02.656,-124.55
02.671,-100.05
02.687,-73.86
02.703,-48.29
02.718,-26.05
02.734,-9.38
02.750,0.6
02.765,4.34
02.781,3.6
02.796,0.81
02.812,-1.59
02.828,-1.55
02.843,2.45
02.859,11.35
02.875,25.4
02.890,43.75
02.906,64.28
02.921,83.81
02.937,99.01
02.953,107.59
02.968,109.1
02.984,105.0
03.000,97.96
03.015,90.61
03.031,84.58
03.046,80.19
03.062,76.82
03.078,73.71
03.093,70.6
03.109,67.94
03.125,66.57
03.140,67.27
03.156,70.3
03.171,75.36
03.187,81.79
03.203,89.04
03.218,96.84
03.234,105.24
03.250,114.47
03.265,124.66
03.281,135.74
03.296,147.37
03.312,158.91
03.328,169.5
03.343,178.18
03.359,183.98
03.375,186.16
03.390,184.32
03.406,178.5
03.421,169.11
03.437,156.78
03.453,142.25
03.468,126.23
03.484,109.47
03.500,92.71
03.515,76.69
03.531,61.96
03.546,48.84
03.562,37.32
03.578,27.21
03.593,18.34
03.609,10.69
03.625,4.49
03.640,0.08
03.656,-2.32
03.671,-2.76
03.687,-1.66
03.703,0.24
03.718,2.11
03.734,3.23
03.750,3.14
03.765,1.72
03.781,-0.87
03.796,-4.28
03.812,-8.06
03.828,-11.83
03.843,-15.36
03.859,-18.59
03.875,-21.63
03.890,-24.64
03.906,-27.79
03.921,-31.12
03.937,-34.46
03.953,-37.4
03.968,-39.34
03.984,-39.63
04.000,-37.73
04.015,-33.45
04.031,-27.04
04.046,-19.11
04.062,-10.47
04.078,-1.92
04.093,6.02
04.109,13.03
04.125,19.07
04.140,24.16
04.156,28.33
04.171,31.58
04.187,33.92
04.203,35.33
04.218,35.78
04.234,35.25
04.250,33.67
04.265,31.03
04.281,27.44
04.296,23.23
04.312,18.89
04.328,15.02
04.343,12.08
04.359,10.15
04.375,8.64
04.390,6.26
04.406,1.33
04.421,-7.73
04.437,-21.84
04.453,-40.77
04.468,-63.28
04.484,-87.55
04.500,-111.87
04.515,-135.18
04.531,-157.14
04.546,-177.67
04.562,-196.32
04.578,-211.88
04.593,-222.44
04.609,-226.03
04.625,-221.38
04.640,-208.44
04.656,-188.4
04.671,-163.24
04.687,-135.12
04.703,-105.85
04.718,-76.79
04.734,-48.88
04.750,-22.95
04.765,0.28
04.781,20.19
04.796,36.63
04.812,50.02
04.828,61.34
04.843,71.87
04.859,82.65
04.875,94.0
04.890,105.28
04.906,115.15
04.921,122.11
04.937,125.28
04.953,124.8
04.968,121.88
04.984,118.31
05.000,115.69
05.015,114.79
05.031,115.15
05.046,115.3
05.062,113.29
05.078,107.48
05.093,97.29
05.109,83.63
05.125,68.77
05.140,55.63
05.156,46.81
05.171,43.62
05.187,45.67
05.203,51.1
05.218,57.41
05.234,62.27
05.250,64.14
05.265,62.4
05.281,57.08
05.296,48.61
05.312,37.78
05.328,25.67
05.343,13.79
05.359,3.78
05.375,-2.94
05.390,-5.64
05.406,-4.47
05.421,-0.37
05.437,5.31
05.453,11.22
05.468,16.39
05.484,20.25
05.500,22.67
05.515,23.8
05.531,23.94
05.546,23.5
05.562,22.86
05.578,22.35
05.593,22.19
05.609,22.44
05.625,22.97
05.640,23.45
05.656,23.34
05.671,21.93
05.687,18.46
05.703,12.38
05.718,3.61
05.734,-7.31
05.750,-19.31
05.765,-31.1
05.781,-41.41
05.796,-49.29
05.812,-54.0
05.828,-55.05
05.843,-52.06
05.859,-45.1
05.875,-34.99
05.890,-23.56
05.906,-13.4
05.921,-7.14
05.937,-6.52
05.953,-11.73
05.968,-21.37
05.984,-33.12
06.000,-44.68
06.015,-54.38
06.031,-61.4
06.046,-65.41
06.062,-66.2
06.078,-63.47
06.093,-57.0
06.109,-47.01
06.125,-34.33
06.140,-20.37
06.156,-6.7
06.171,5.39
06.187,15.07
06.203,22.04
06.218,26.26
06.234,27.8
06.250,26.79
06.265,23.52
06.281,18.54
06.296,12.74
06.312,7.13
06.328,2.53
06.343,-0.64
06.359,-2.52
06.375,-3.64
06.390,-4.71
06.406,-6.46
06.421,-9.45
06.437,-14.02
06.453,-20.26
06.468,-27.84
06.484,-35.96
06.500,-43.43
06.515,-48.93
06.531,-51.46
06.546,-50.68
06.562,-46.99
06.578,-41.29
06.593,-34.51
06.609,-27.35
06.625,-20.01
06.640,-12.46
06.656,-4.73
06.671,2.96
06.687,10.11
06.703,16.19
06.718,20.87
06.734,24.18
06.750,26.58
06.765,28.72
06.781,31.23
06.796,34.49
06.812,38.49
06.828,42.92
06.843,47.36
06.859,51.45
06.875,55.0
06.890,57.98
06.906,60.43
06.921,62.34
06.937,63.64
06.953,64.27
06.968,64.18
06.984,63.47
07.000,62.32
07.015,61.04
07.031,59.89
07.046,59.01
07.062,58.33
07.078,57.61
07.093,56.55
07.109,54.89
07.125,52.6
07.140,49.84
07.156,46.79
07.171,43.55
07.187,39.98
07.203,35.68
07.218,30.15
07.234,22.93
07.250,13.65
07.265,1.93
07.281,-12.57
07.296,-30.21
07.312,-51.07
07.328,-74.76
07.343,-100.29
07.359,-126.12
07.375,-150.61
07.390,-172.37
07.406,-190.51
07.421,-204.54
07.437,-214.16
07.453,-218.86
07.468,-217.98
07.484,-210.99
07.500,-197.9
07.515,-179.55
07.531,-157.54
07.546,-133.81
07.562,-110.18
07.578,-87.98
07.593,-67.98
07.609,-50.46
07.625,-35.5
07.640,-23.09
07.656,-13.2
07.671,-5.7
07.687,-0.25
07.703,3.64
07.718,6.63
07.734,9.34
07.750,12.33
07.765,15.85
07.781,19.87
07.796,24.11
07.812,28.13
07.828,31.56
07.843,34.18
07.859,35.92
07.875,36.78
07.890,36.74
07.906,35.71
07.921,33.59
07.937,30.37
07.953,26.16
07.968,21.26
07.984,15.98
08.000,10.69
08.015,5.55
08.031,0.6
08.046,-4.4
08.062,-9.83
08.078,-16.12
08.093,-23.53
08.109,-32.0
08.125,-41.03
08.140,-49.65
08.156,-56.65
08.171,-60.81
08.187,-61.16
08.203,-57.32
08.218,-49.54
08.234,-38.75
08.250,-26.3
08.265,-13.63
08.281,-1.99
08.296,7.78
08.312,15.36
08.328,20.75
08.343,24.16
08.359,25.85
08.375,26.07
08.390,25.08
08.406,23.25
08.421,20.99
08.437,18.69
08.453,16.65
08.468,14.99
08.484,13.64
08.500,12.48
08.515,11.38
08.531,10.27
08.546,9.18
08.562,8.11
08.578,7.02
08.593,5.73
08.609,3.99
08.625,1.5
08.640,-1.86
08.656,-6.01
08.671,-10.69
08.687,-15.56
08.703,-20.35
08.718,-25.0
08.734,-29.73
08.750,-34.86
08.765,-40.74
08.781,-47.4
08.796,-54.48
08.812,-61.11
08.828,-66.07
08.843,-68.01
08.859,-65.8
08.875,-58.94
08.890,-47.72
08.906,-33.26
08.921,-17.22
08.937,-1.36
08.953,12.89
08.968,24.73
08.984,34.07
09.000,41.28
09.015,46.88
09.031,51.28
09.046,54.58
09.062,56.71
09.078,57.52
09.093,57.12
09.109,55.93
09.125,54.66
09.140,54.14
09.156,55.03
09.171,57.54
09.187,61.39
09.203,65.75
09.218,69.53
09.234,71.74
09.250,71.8
09.265,69.77
09.281,66.44
09.296,63.04
09.312,60.76
09.328,60.23
09.343,61.03
09.359,61.42
09.375,58.66
09.390,49.6
09.406,31.6
09.421,3.53
09.437,-33.56
09.453,-76.36
09.468,-119.76
09.484,-158.0
09.500,-186.08
09.515,-200.85
09.531,-201.62
09.546,-189.96
09.562,-168.97
09.578,-142.21
09.593,-113.05
09.609,-84.06
09.625,-57.03
09.640,-32.93
09.656,-11.95
09.671,6.34
09.687,22.81
09.703,38.37
09.718,53.66
09.734,68.76
09.750,83.33
09.765,96.85
09.781,108.91
09.796,119.37
09.812,128.22
09.828,135.6
09.843,141.78
09.859,147.29
09.875,152.86
09.890,159.25
09.906,166.66
09.921,174.2
09.937,179.99
09.953,181.71
09.968,177.74
09.984,168.08
10.000,154.52
10.015,139.71
10.031,125.74
10.046,112.91
10.062,99.43
10.078,82.55
10.093,60.18
10.109,32.36
10.125,1.43
10.140,-28.92
10.156,-55.26
10.171,-75.58
10.187,-89.4
10.203,-97.19
10.218,-99.48
10.234,-96.42
10.250,-88.06
10.265,-74.87
10.281,-58.12
10.296,-39.75
10.312,-21.67
10.328,-5.24
10.343,9.11
10.359,21.49
10.375,32.13
10.390,40.94
10.406,47.43
10.421,51.04
10.437,51.44
10.453,48.8
10.468,43.76
10.484,37.18
10.500,29.93
10.515,22.69
10.531,15.86
10.546,9.64
10.562,4.17
10.578,-0.5
10.593,-4.45
10.609,-7.97
10.625,-11.43
10.640,-15.17
10.656,-19.3
10.671,-23.66
10.687,-27.88
10.703,-31.63
10.718,-34.86
10.734,-37.78
10.750,-40.81
10.765,-44.52
10.781,-49.54
10.796,-56.66
10.812,-66.72
10.828,-80.53
10.843,-98.57
10.859,-120.71
10.875,-145.96
10.890,-172.43
10.906,-197.5
10.921,-218.25
10.937,-232.1
10.953,-237.48
10.968,-234.18
10.984,-223.49
11.000,-207.65
11.015,-189.19
11.031,-170.16
11.046,-151.73
11.062,-134.2
11.078,-117.48
11.093,-101.52
11.109,-86.5
11.125,-72.76
11.140,-60.47
11.156,-49.48
11.171,-39.32
11.187,-29.48
11.203,-19.68
11.218,-9.96
11.234,-0.73
11.250,7.57
11.265,14.62
11.281,20.39
11.296,25.07
11.312,28.92
11.328,32.14
11.343,34.73
11.359,36.52
11.375,37.28
11.390,36.78
11.406,34.97
11.421,31.99
11.437,28.19
11.453,23.99
11.468,19.82
11.484,15.93
11.500,12.4
11.515,9.05
11.531,5.59
11.546,1.62
11.562,-3.2
11.578,-9.04
11.593,-15.88
11.609,-23.39
11.625,-30.94
11.640,-37.55
11.656,-42.02
11.671,-43.19
11.687,-40.26
11.703,-33.02
11.718,-22.03
11.734,-8.52
11.750,6.01
11.765,20.14
11.781,32.93
11.796,43.98
11.812,53.35
11.828,61.28
11.843,67.96
11.859,73.38
11.875,77.4
11.890,79.94
11.906,81.06
11.921,81.03
11.937,80.25
11.953,79.1
11.968,77.79
11.984,76.38
12.000,74.78
12.015,72.94
12.031,70.86
12.046,68.62
12.062,66.38
12.078,64.17
12.093,61.91
12.109,59.41
12.125,56.42
12.140,52.78
12.156,48.5
12.171,43.75
12.187,38.8
12.203,33.95
12.218,29.41
12.234,25.25
12.250,21.36
12.265,17.57
12.281,13.62
12.296,9.33
12.312,4.62
12.328,-0.44
12.343,-5.64
12.359,-10.68
12.375,-15.32
12.390,-19.46
12.406,-23.24
12.421,-27.02
12.437,-31.29
12.453,-36.47
12.468,-42.67
12.484,-49.49
12.500,-55.99
12.515,-60.85
12.531,-62.72
12.546,-60.62
12.562,-54.28
12.578,-44.21
12.593,-31.62
12.609,-18.0
12.625,-4.78
12.640,7.07
12.656,17.15
12.671,25.55
12.687,32.65
12.703,38.78
12.718,44.1
12.734,48.49
12.750,51.77
12.765,53.8
12.781,54.7
12.796,54.83
12.812,54.6
12.828,54.39
12.843,54.3
12.859,54.27
12.875,54.1
12.890,53.66
12.906,52.92
12.921,51.88
12.937,50.55
12.953,48.85
12.968,46.67
12.984,43.96
13.000,40.75
13.015,37.21
13.031,33.52
13.046,29.82
13.062,26.2
13.078,22.71
13.093,19.42
13.109,16.4
13.125,13.68
13.140,11.22
13.156,8.84
13.171,6.29
13.187,3.35
13.203,-0.06
13.218,-3.83
13.234,-7.71
13.250,-11.46
13.265,-14.89
13.281,-17.99
13.296,-20.94
13.312,-23.98
13.328,-27.38
13.343,-31.32
13.359,-35.85
13.375,-40.84
13.390,-45.97
13.406,-50.69
13.421,-54.26
13.437,-55.85
13.453,-54.75
13.468,-50.54
13.484,-43.27
13.500,-33.54
13.515,-22.33
13.531,-10.79
13.546,0.01
13.562,9.41
13.578,17.18
13.593,23.51
13.609,28.74
13.625,33.16
13.640,36.87
13.656,39.76
13.671,41.71
13.687,42.69
13.703,42.91
13.718,42.71
13.734,42.39
13.750,42.12
13.765,41.86
13.781,41.49
13.796,40.91
13.812,40.16
13.828,39.35
13.843,38.58
13.859,37.83
13.875,36.91
13.890,35.63
13.906,33.84
13.921,31.5
13.937,28.72
13.953,25.69
13.968,22.6
13.984,19.57
14.000,16.64
14.015,13.76
14.031,10.88
14.046,7.99
14.062,5.16
14.078,2.47
14.093,0.01
14.109,-2.24
14.125,-4.38
14.140,-6.6
14.156,-9.1
14.171,-11.97
14.187,-15.17
14.203,-18.53
14.218,-21.82
14.234,-24.9
14.250,-27.75
14.265,-30.53
14.281,-33.48
14.296,-36.86
14.312,-40.76
14.328,-45.09
14.343,-49.48
14.359,-53.28
14.375,-55.69
14.390,-55.91
14.406,-53.35
14.421,-47.8
14.437,-39.6
14.453,-29.53
14.468,-18.71
14.484,-8.22
14.500,1.14
14.515,8.97
14.531,15.24
14.546,20.16
14.562,24.02
14.578,27.05
14.593,29.38
14.609,31.13
14.625,32.36
14.640,33.14
14.656,33.52
14.671,33.56
14.687,33.3
14.703,32.81
14.718,32.15
14.734,31.39
14.750,30.6
14.765,29.84
14.781,29.13
14.796,28.52
14.812,27.96
14.828,27.38
14.843,26.61
14.859,25.51
14.875,23.97
14.890,22.04
14.906,19.81
14.921,17.5
14.937,15.27
14.953,13.2
14.968,11.24
14.984,9.32
15.000,7.3
15.015,5.11
15.031,2.77
15.046,0.31
15.062,-2.18
15.078,-4.66
15.093,-7.14
15.109,-9.65
15.125,-12.23
15.140,-14.89
15.156,-17.62
15.171,-20.37
15.187,-23.12
15.203,-25.85
15.218,-28.63
15.234,-31.58
15.250,-34.84
15.265,-38.53
15.281,-42.66
15.296,-47.02
15.312,-51.08
15.328,-54.09
15.343,-55.16
15.359,-53.58
15.375,-49.02
15.390,-41.74
15.406,-32.52
15.421,-22.47
15.437,-12.67
15.453,-3.96
15.468,3.27
15.484,9.0
15.500,13.49
15.515,17.06
15.531,19.98
15.546,22.4
15.562,24.4
15.578,25.99
15.593,27.18
15.609,27.98
15.625,28.41
15.640,28.47
15.656,28.17
15.671,27.6
15.687,26.87
15.703,26.14
15.718,25.58
15.734,25.28
15.750,25.21
15.765,25.26
15.781,25.2
15.796,24.79
15.812,23.9
15.828,22.47
15.843,20.62
15.859,18.49
15.875,16.27
15.890,14.08
15.906,11.93
15.921,9.79
15.937,7.61
15.953,5.38
15.968,3.15
15.984,1.03
16.000,-0.95
16.015,-2.84
16.031,-4.74
16.046,-6.82
16.062,-9.15
16.078,-11.72
16.093,-14.41
16.109,-17.06
16.125,-19.59
16.140,-21.96
16.156,-24.26
16.171,-26.61
16.187,-29.16
16.203,-32.09
16.218,-35.47
16.234,-39.28
16.250,-43.27
16.265,-46.89
16.281,-49.37
16.296,-49.86
16.312,-47.73
16.328,-42.87
16.343,-35.71
16.359,-27.19
16.375,-18.38
16.390,-10.18
16.406,-3.05
16.421,2.97
16.437,8.08
16.453,12.5
16.468,16.33
16.484,19.52
16.500,21.96
16.515,23.68
16.531,24.79
16.546,25.56
16.562,26.16
16.578,26.7
16.593,27.16
16.609,27.41
16.625,27.39
16.640,27.09
16.656,26.64
16.671,26.18
16.687,25.84
16.703,25.68
16.718,25.62
16.734,25.52
16.750,25.16
16.765,24.39
16.781,23.08
16.796,21.23
16.812,18.95
16.828,16.5
16.843,14.15
16.859,12.14
16.875,10.57
16.890,9.31
16.906,8.12
16.921,6.72
16.937,4.93
16.953,2.73
16.968,0.22
16.984,-2.45
17.000,-5.2
17.015,-7.98
17.031,-10.77
17.046,-13.53
17.062,-16.2
17.078,-18.8
17.093,-21.42
17.109,-24.28
17.125,-27.6
17.140,-31.5
17.156,-35.82
17.171,-40.1
17.187,-43.62
17.203,-45.59
17.218,-45.32
17.234,-42.5
17.250,-37.22
17.265,-29.94
17.281,-21.4
17.296,-12.36
17.312,-3.5
17.328,4.73
17.343,12.01
17.359,18.21
17.375,23.26
17.390,27.16
17.406,30.0
17.421,31.96
17.437,33.18
17.453,33.85
17.468,34.08
17.484,33.92
17.500,33.43
17.515,32.7
17.531,31.89
17.546,31.16
17.562,30.61
17.578,30.21
17.593,29.83
17.609,29.25
17.625,28.31
17.640,26.97
17.656,25.33
17.671,23.52
17.687,21.65
17.703,19.76
17.718,17.81
17.734,15.75
17.750,13.55
17.765,11.28
17.781,9.02
17.796,6.8
17.812,4.62
17.828,2.4
17.843,0.06
17.859,-2.45
17.875,-5.13
17.890,-7.95
17.906,-10.81
17.921,-13.62
17.937,-16.28
17.953,-18.75
17.968,-21.03
17.984,-23.2
18.000,-25.4
18.015,-27.78
18.031,-30.47
18.046,-33.55
18.062,-36.99
18.078,-40.61
18.093,-44.09
18.109,-46.94
18.125,-48.48
18.140,-48.07
18.156,-45.25
18.171,-39.93
18.187,-32.52
18.203,-23.73
18.218,-14.43
18.234,-5.39
18.250,2.91
18.265,10.25
18.281,16.6
18.296,21.94
18.312,26.21
18.328,29.31
18.343,31.21
18.359,32.0
18.375,31.9
18.390,31.25
18.406,30.34
18.421,29.38
18.437,28.43
18.453,27.45
18.468,26.4
18.484,25.3
18.500,24.25
18.515,23.4
18.531,22.86
18.546,22.58
18.562,22.32
18.578,21.78
18.593,20.66
18.609,18.83
18.625,16.35
18.640,13.42
18.656,10.34
18.671,7.4
18.687,4.79
18.703,2.58
18.718,0.7
18.734,-1.05
18.750,-2.95
18.765,-5.18
18.781,-7.79
18.796,-10.7
18.812,-13.66
18.828,-16.49
18.843,-19.06
18.859,-21.35
18.875,-23.43
18.890,-25.48
18.906,-27.71
18.921,-30.37
18.937,-33.63
18.953,-37.46
18.968,-41.5
18.984,-45.08
19.000,-47.3
19.015,-47.37
19.031,-44.82
19.046,-39.7
19.062,-32.49
19.078,-23.95
19.093,-14.84
19.109,-5.74
19.125,2.93
19.140,10.96
19.156,18.17
19.171,24.42
19.187,29.53
19.203,33.37
19.218,35.89
19.234,37.2
19.250,37.55
19.265,37.25
19.281,36.59
19.296,35.78
19.312,34.94
19.328,34.13
19.343,33.37
19.359,32.72
19.375,32.13
19.390,31.55
19.406,30.81
19.421,29.76
19.437,28.29
19.453,26.35
19.468,23.95
19.484,21.15
19.500,18.01
19.515,14.62
19.531,11.11
19.546,7.6
19.562,4.2
19.578,0.97
19.593,-2.17
19.609,-5.34
19.625,-8.7
19.640,-12.27
19.656,-16.03
19.671,-19.82
19.687,-23.47
19.703,-26.85
19.718,-29.87
19.734,-32.56
19.750,-35.02
19.765,-37.45
19.781,-40.07
19.796,-43.08
19.812,-46.51
19.828,-50.11
19.843,-53.33
19.859,-55.4
19.875,-55.51
19.890,-53.1
19.906,-48.05
19.921,-40.73
19.937,-31.88
19.953,-22.38
19.968,-13.02
19.984,-4.33
20.000,3.35
20.015,9.9
20.031,15.21
20.046,19.25
20.062,21.99
20.078,23.51
20.093,24.03
20.109,23.84
20.125,23.23
20.140,22.44
20.156,21.59
20.171,20.67
20.187,19.6
20.203,18.3
20.218,16.79
20.234,15.18
20.250,13.64
20.265,12.31
20.281,11.21
20.296,10.21
20.312,9.12
20.328,7.74
20.343,6.0
20.359,3.96
20.375,1.74
20.390,-0.55
20.406,-2.86
20.421,-5.18
20.437,-7.49
20.453,-9.73
20.468,-11.75
20.484,-13.45
20.500,-14.82
20.515,-15.95
20.531,-17.06
20.546,-18.38
20.562,-20.14
20.578,-22.44
20.593,-25.34
20.609,-28.64
20.625,-32.0
20.640,-34.82
20.656,-36.36
20.671,-35.94
20.687,-33.14
20.703,-27.94
20.718,-20.8
20.734,-12.5
20.750,-3.9
20.765,4.27
20.781,11.52
20.796,17.61
20.812,22.46
20.828,26.07
20.843,28.46
20.859,29.69
20.875,29.85
20.890,29.14
20.906,27.81
20.921,26.15
20.937,24.38
20.953,22.69
20.968,21.18
20.984,19.86
21.000,18.72
21.015,17.7
21.031,16.74
21.046,15.81
21.062,14.88
21.078,13.89
21.093,12.77
21.109,11.44
21.125,9.73
21.140,7.54
21.156,4.82
21.171,1.62
21.187,-1.93
21.203,-5.62
21.218,-9.25
21.234,-12.64
21.250,-15.68
21.265,-18.34
21.281,-20.66
21.296,-22.78
21.312,-24.91
21.328,-27.27
21.343,-30.01
21.359,-33.04
21.375,-35.97
21.390,-38.13
21.406,-38.74
21.421,-37.17
21.437,-33.16
21.453,-26.92
21.468,-19.09
21.484,-10.5
21.500,-1.94
21.515,6.02
21.531,13.04
21.546,18.95
21.562,23.67
21.578,27.13
21.593,29.3
21.609,30.29
21.625,30.3
21.640,29.68
21.656,28.75
21.671,27.77
21.687,26.89
21.703,26.12
21.718,25.43
21.734,24.77
21.750,24.12
21.765,23.45
21.781,22.75
21.796,21.94
21.812,20.93
21.828,19.66
21.843,18.06
21.859,16.11
21.875,13.74
21.890,10.89
21.906,7.51
21.921,3.59
21.937,-0.69
21.953,-5.08
21.968,-9.26
21.984,-13.0
22.000,-16.22
22.015,-19.02
22.031,-21.65
22.046,-24.41
22.062,-27.51
22.078,-31.03
22.093,-34.82
22.109,-38.48
22.125,-41.38
22.140,-42.8
22.156,-42.09
22.171,-38.82
22.187,-33.02
22.203,-25.12
22.218,-15.87
22.234,-6.14
22.250,3.31
22.265,11.92
22.281,19.34
22.296,25.38
22.312,29.92
22.328,32.86
22.343,34.21
22.359,34.07
22.375,32.64
22.390,30.23
22.406,27.09
22.421,23.4
22.437,19.23
22.453,14.64
22.468,9.73
22.484,4.71
22.500,-0.11
22.515,-4.43
22.531,-8.03
22.546,-10.85
22.562,-12.97
22.578,-14.53
22.593,-15.64
22.609,-16.41
22.625,-16.91
22.640,-17.2
22.656,-17.44
22.671,-17.75
22.687,-18.22
22.703,-18.85
22.718,-19.54
22.734,-20.16
22.750,-20.59
22.765,-20.83
22.781,-21.02
22.796,-21.4
22.812,-22.22
22.828,-23.71
22.843,-25.95
22.859,-28.87
22.875,-32.23
22.890,-35.59
22.906,-38.37
22.921,-39.89
22.937,-39.51
22.953,-36.76
22.968,-31.53
22.984,-24.15
23.000,-15.28
23.015,-5.82
23.031,3.4
23.046,11.75
23.062,18.92
23.078,24.82
23.093,29.49
23.109,32.95
23.125,35.26
23.140,36.45
23.156,36.61
23.171,35.86
23.187,34.4
23.203,32.41
23.218,30.09
23.234,27.69
23.250,25.37
23.265,23.28
23.281,21.41
23.296,19.66
23.312,17.83
23.328,15.79
23.343,13.54
23.359,11.24
23.375,9.06
23.390,7.17
23.406,5.6
23.421,4.26
23.437,3.1
23.453,2.06
23.468,1.17
23.484,0.44
23.500,-0.23
23.515,-1.04
23.531,-2.22
23.546,-3.92
23.562,-6.13
23.578,-8.62
23.593,-11.15
23.609,-13.55
23.625,-15.89
23.640,-18.43
23.656,-21.53
23.671,-25.43
23.687,-30.05
23.703,-34.99
23.718,-39.51
23.734,-42.78
23.750,-43.99
23.765,-42.61
23.781,-38.49
23.796,-31.87
23.812,-23.37
23.828,-13.83
23.843,-4.1
23.859,5.09
23.875,13.28
23.890,20.26
23.906,25.96
23.921,30.4
23.937,33.55
23.953,35.4
23.968,36.03
23.984,35.64
24.000,34.54
24.015,33.05
24.031,31.44
24.046,29.78
24.062,28.07
24.078,26.26
24.093,24.4
24.109,22.62
24.125,21.08
24.140,19.86
24.156,18.9
24.171,18.04
24.187,17.07
24.203,15.83
24.218,14.24
24.234,12.29
24.250,9.99
24.265,7.37
24.281,4.42
24.296,1.15
24.312,-2.41
24.328,-6.17
24.343,-9.98
24.359,-13.7
24.375,-17.17
24.390,-20.37
24.406,-23.31
24.421,-26.09
24.437,-28.82
24.453,-31.67
24.468,-34.74
24.484,-38.13
24.500,-41.81
24.515,-45.6
24.531,-49.08
24.546,-51.57
24.562,-52.26
24.578,-50.47
24.593,-45.84
24.609,-38.55
24.625,-29.27
24.640,-18.95
24.656,-8.53
24.671,1.25
24.687,9.97
24.703,17.41
24.718,23.41
24.734,27.87
24.750,30.68
24.765,31.88
24.781,31.72
24.796,30.58
24.812,28.91
24.828,27.11
24.843,25.43
24.859,23.96
24.875,22.69
24.890,21.58
24.906,20.57
24.921,19.62
24.937,18.7
24.953,17.79
24.968,16.87
24.984,15.92
25.000,14.91
25.015,13.83
25.031,12.6
25.046,11.21
25.062,9.59
25.078,7.7
25.093,5.55
25.109,3.13
25.125,0.5
25.140,-2.29
25.156,-5.13
25.171,-7.92
25.187,-10.54
25.203,-12.92
25.218,-15.01
25.234,-16.88
25.250,-18.66
25.265,-20.56
25.281,-22.84
25.296,-25.74
25.312,-29.34
25.328,-33.48
25.343,-37.67
25.359,-41.13
25.375,-42.98
25.390,-42.48
25.406,-39.24
25.421,-33.41
25.437,-25.56
25.453,-16.56
25.468,-7.32
25.484,1.4
25.500,9.07
25.515,15.44
25.531,20.46
25.546,24.21
25.562,26.78
25.578,28.3
25.593,28.87
25.609,28.64
25.625,27.74
25.640,26.38
25.656,24.78
25.671,23.17
25.687,21.71
25.703,20.47
25.718,19.46
25.734,18.59
25.750,17.79
25.765,16.95
25.781,16.02
25.796,14.92
25.812,13.63
25.828,12.08
25.843,10.25
25.859,8.11
25.875,5.66
25.890,2.92
25.906,-0.06
25.921,-3.19
25.937,-6.38
25.953,-9.56
25.968,-12.64
25.984,-15.53
26.000,-18.21
26.015,-20.71
26.031,-23.16
26.046,-25.76
26.062,-28.69
26.078,-32.04
26.093,-35.69
26.109,-39.19
26.125,-41.91
26.140,-43.07
26.156,-42.04
26.171,-38.48
26.187,-32.47
26.203,-24.53
26.218,-15.44
26.234,-6.09
26.250,2.75
26.265,10.53
26.281,16.96
26.296,21.95
26.312,25.55
26.328,27.85
26.343,29.0
26.359,29.11
26.375,28.41
26.390,27.12
26.406,25.53
26.421,23.9
26.437,22.37
26.453,20.97
26.468,19.62
26.484,18.24
26.500,16.82
26.515,15.44
26.531,14.28
26.546,13.44
26.562,12.81
26.578,12.16
26.593,11.07
26.609,9.24
26.625,6.57
26.640,3.23
26.656,-0.42
26.671,-4.02
26.687,-7.32
26.703,-10.29
26.718,-13.02
26.734,-15.7
26.750,-18.47
26.765,-21.44
26.781,-24.69
26.796,-28.25
26.812,-32.1
26.828,-36.09
26.843,-39.84
26.859,-42.7
26.875,-43.95
26.890,-42.88
26.906,-39.1
26.921,-32.72
26.937,-24.32
26.953,-14.82
26.968,-5.19
26.984,3.76
27.000,11.58
27.015,18.12
27.031,23.44
27.046,27.63
27.062,30.69
27.078,32.54
27.093,33.14
27.109,32.58
27.125,31.12
27.140,29.14
27.156,27.03
27.171,25.07
27.187,23.37
27.203,21.91
27.218,20.63
27.234,19.46
27.250,18.35
27.265,17.27
27.281,16.16
27.296,14.99
27.312,13.68
27.328,12.18
27.343,10.44
27.359,8.4
27.375,5.97
27.390,3.1
27.406,-0.2
27.421,-3.82
27.437,-7.55
27.453,-11.16
27.468,-14.45
27.484,-17.38
27.500,-20.07
27.515,-22.76
27.531,-25.73
27.546,-29.18
27.562,-33.15
27.578,-37.45
27.593,-41.63
27.609,-45.09
27.625,-47.12
27.640,-47.06
27.656,-44.44
27.671,-39.16
27.687,-31.51
27.703,-22.23
27.718,-12.26
27.734,-2.59
27.750,6.0
27.765,13.11
27.781,18.72
27.796,23.03
27.812,26.29
27.828,28.65
27.843,30.16
27.859,30.8
27.875,30.65
27.890,29.87
27.906,28.72
27.921,27.44
27.937,26.16
27.953,24.89
27.968,23.62
27.984,22.32
28.000,21.05
28.015,19.87
28.031,18.8
28.046,17.79
28.062,16.65
28.078,15.23
28.093,13.39
28.109,11.1
28.125,8.39
28.140,5.34
28.156,2.0
28.171,-1.54
28.187,-5.21
28.203,-8.87
28.218,-12.39
28.234,-15.61
28.250,-18.45
28.265,-20.92
28.281,-23.09
28.296,-25.16
28.312,-27.32
28.328,-29.83
28.343,-32.84
28.359,-36.44
28.375,-40.43
28.390,-44.41
28.406,-47.71
28.421,-49.57
28.437,-49.26
28.453,-46.29
28.468,-40.57
28.484,-32.46
28.500,-22.71
28.515,-12.3
28.531,-2.14
28.546,7.04
28.562,14.86
28.578,21.23
28.593,26.27
28.609,30.1
28.625,32.87
28.640,34.63
28.656,35.43
28.671,35.41
28.687,34.76
28.703,33.69
28.718,32.4
28.734,31.03
28.750,29.62
28.765,28.19
28.781,26.78
28.796,25.46
28.812,24.33
28.828,23.41
28.843,22.65
28.859,21.88
28.875,20.92
28.890,19.59
28.906,17.81
28.921,15.59
28.937,13.01
28.953,10.2
28.968,7.24
28.984,4.18
29.000,1.05
29.015,-2.19
29.031,-5.53
29.046,-8.96
29.062,-12.4
29.078,-15.75
29.093,-18.88
29.109,-21.73
29.125,-24.3
29.140,-26.72
29.156,-29.21
29.171,-31.99
29.187,-35.26
29.203,-39.01
29.218,-43.04
29.234,-46.89
29.250,-49.89
29.265,-51.29
29.281,-50.41
29.296,-46.89
29.312,-40.73
29.328,-32.4
29.343,-22.71
29.359,-12.6
29.375,-2.85
29.390,5.96
29.406,13.61
29.421,20.05
29.437,25.31
29.453,29.41
29.468,32.33
29.484,34.05
29.500,34.7
29.515,34.51
29.531,33.8
29.546,32.83
29.562,31.77
29.578,30.63
29.593,29.33
29.609,27.86
29.625,26.23
29.640,24.59
29.656,23.12
29.671,21.92
29.687,20.96
29.703,20.08
29.718,19.01
29.734,17.51
29.750,15.41
29.765,12.67
29.781,9.4
29.796,5.83
29.812,2.25
29.828,-1.07
29.843,-4.0
29.859,-6.54
29.875,-8.86
29.890,-11.16
29.906,-13.63
29.921,-16.37
29.937,-19.32
29.953,-22.34
29.968,-25.27
29.984,-28.05
30.000,-30.67
30.015,-33.25
30.031,-35.95
30.046,-38.99
30.062,-42.53
30.078,-46.57
30.093,-50.87
30.109,-54.85
30.125,-57.68
30.140,-58.49
30.156,-56.63
30.171,-51.83
30.187,-44.35
30.203,-34.89
30.218,-24.34
30.234,-13.64
30.250,-3.52
30.265,5.53
30.281,13.26
30.296,19.6
30.312,24.61
30.328,28.41
30.343,31.13
30.359,32.93
30.375,34.0
30.390,34.51
30.406,34.63
30.421,34.52
30.437,34.26
30.453,33.87
30.468,33.31
30.484,32.5
30.500,31.44
30.515,30.14
30.531,28.73
30.546,27.39
30.562,26.21
30.578,25.2
30.593,24.18
30.609,22.87
30.625,20.99
30.640,18.39
30.656,15.14
30.671,11.49
30.687,7.82
30.703,4.46
30.718,1.56
30.734,-0.95
30.750,-3.3
30.765,-5.78
30.781,-8.53
30.796,-11.54
30.812,-14.66
30.828,-17.67
30.843,-20.5
30.859,-23.21
30.875,-25.94
30.890,-28.89
30.906,-32.16
30.921,-35.8
30.937,-39.79
30.953,-44.04
30.968,-48.36
30.984,-52.4
31.000,-55.56
31.015,-57.05
31.031,-56.11
31.046,-52.21
31.062,-45.32
31.078,-35.97
31.093,-25.12
31.109,-13.87
31.125,-3.22
31.140,6.23
31.156,14.25
31.171,20.88
31.187,26.2
31.203,30.33
31.218,33.24
31.234,34.93
31.250,35.51
31.265,35.21
31.281,34.4
31.296,33.41
31.312,32.41
31.328,31.4
31.343,30.26
31.359,28.92
31.375,27.47
31.390,26.13
31.406,25.15
31.421,24.64
31.437,24.46
31.453,24.25
31.468,23.59
31.484,22.14
31.500,19.83
31.515,16.85
31.531,13.53
31.546,10.21
31.562,7.1
31.578,4.27
31.593,1.66
31.609,-0.91
31.625,-3.59
31.640,-6.48
31.656,-9.62
31.671,-12.95
31.687,-16.38
31.703,-19.81
31.718,-23.17
31.734,-26.45
31.750,-29.69
31.765,-32.99
31.781,-36.44
31.796,-40.13
31.812,-43.99
31.828,-47.75
31.843,-50.85
31.859,-52.54
31.875,-52.03
31.890,-48.77
31.906,-42.71
31.921,-34.3
31.937,-24.37
31.953,-13.85
31.968,-3.54
31.984,6.01
32.000,14.47
32.015,21.64
32.031,27.34
32.046,31.45
32.062,33.97
32.078,35.07
32.093,35.08
32.109,34.39
32.125,33.36
32.140,32.2
32.156,30.98
32.171,29.69
32.187,28.27
32.203,26.72
32.218,25.14
32.234,23.73
32.250,22.72
32.265,22.22
32.281,22.18
32.296,22.34
32.312,22.28
32.328,21.61
32.343,20.08
32.359,17.69
32.375,14.66
32.390,11.36
32.406,8.1
32.421,5.04
32.437,2.21
32.453,-0.53
32.468,-3.33
32.484,-6.32
32.500,-9.49
32.515,-12.77
32.531,-15.99
32.546,-18.99
32.562,-21.7
32.578,-24.16
32.593,-26.53
32.609,-29.03
32.625,-31.92
32.640,-35.39
32.656,-39.49
32.671,-44.07
32.687,-48.68
32.703,-52.6
32.718,-54.95
32.734,-54.9
32.750,-51.84
32.765,-45.66
32.781,-36.77
32.796,-26.06
32.812,-14.62
32.828,-3.49
32.843,6.59
32.859,15.18
32.875,22.12
32.890,27.41
32.906,31.15
32.921,33.44
32.937,34.43
32.953,34.33
32.968,33.41
32.984,31.97
33.000,30.33
33.015,28.75
33.031,27.44
33.046,26.47
33.062,25.85
33.078,25.46
33.093,25.17
33.109,24.82
33.125,24.36
33.140,23.76
33.156,22.98
33.171,21.98
33.187,20.62
33.203,18.78
33.218,16.42
33.234,13.62
33.250,10.58
33.265,7.55
33.281,4.69
33.296,2.03
33.312,-0.53
33.328,-3.15
33.343,-5.91
33.359,-8.84
33.375,-11.83
33.390,-14.8
33.406,-17.69
33.421,-20.47
33.437,-23.21
33.453,-25.97
33.468,-28.88
33.484,-32.06
33.500,-35.57
33.515,-39.38
33.531,-43.19
33.546,-46.4
33.562,-48.2
33.578,-47.75
33.593,-44.44
33.609,-38.15
33.625,-29.21
33.640,-18.46
33.656,-6.9
33.671,4.44
33.687,14.72
33.703,23.4
33.718,30.19
33.734,35.0
33.750,37.88
33.765,38.97
33.781,38.41
33.796,36.39
33.812,33.18
33.828,29.17
33.843,24.8
33.859,20.5
33.875,16.52
33.890,12.89
33.906,9.46
33.921,5.95
33.937,2.09
33.953,-2.37
33.968,-7.57
33.984,-13.51
34.000,-19.9
34.015,-26.11
34.031,-31.09
34.046,-33.64
34.062,-32.69
34.078,-27.75
34.093,-19.04
34.109,-7.32
34.125,6.44
34.140,21.35
34.156,36.72
34.171,51.84
34.187,65.96
34.203,78.3
34.218,88.36
34.234,96.24
34.250,102.75
34.265,109.16
34.281,116.66
34.296,125.93
34.312,137.02
34.328,149.64
34.343,163.55
34.359,178.82
34.375,195.66
34.390,214.09
34.406,233.54
34.421,252.96
34.437,271.21
34.453,287.49
34.468,301.59
34.484,313.65
34.500,323.62
34.515,330.76
34.531,333.61
34.546,330.47
34.562,320.24
34.578,303.08
34.593,280.5
34.609,254.87
34.625,228.57
34.640,203.35
34.656,180.01
34.671,158.61
34.687,138.87
34.703,120.51
34.718,103.31
34.734,86.98
34.750,71.11
34.765,55.09
34.781,38.42
34.796,20.84
34.812,2.45
34.828,-16.41
34.843,-35.37
34.859,-54.32
34.875,-73.45
34.890,-93.32
34.906,-114.68
34.921,-138.26
34.937,-164.44
34.953,-192.81
34.968,-222.02
34.984,-249.83
35.000,-273.76
35.015,-291.89
35.031,-303.56
35.046,-309.59
35.062,-311.67
35.078,-311.53
35.093,-310.05
35.109,-306.91
35.125,-300.97
35.140,-290.88
35.156,-275.87
35.171,-256.07
35.187,-232.48
35.203,-206.63
35.218,-180.24
35.234,-154.86
35.250,-131.73
35.265,-111.63
35.281,-94.82
35.296,-81.04
35.312,-69.66
35.328,-59.78
35.343,-50.36
35.359,-40.45
35.375,-29.24
35.390,-16.25
35.406,-1.37
35.421,15.13
35.437,32.52
35.453,49.79
35.468,65.6
35.484,78.52
35.500,87.18
35.515,90.61
35.531,88.44
35.546,81.09
35.562,69.69
35.578,55.92
35.593,41.81
35.609,29.39
35.625,20.36
35.640,15.5
35.656,14.22
35.671,14.26
35.687,11.94
35.703,3.05
35.718,-15.88
35.734,-46.26
35.750,-86.73
35.765,-133.16
35.781,-179.48
35.796,-219.07
35.812,-246.4
35.828,-258.37
35.843,-254.93
35.859,-238.94
35.875,-215.15
35.890,-188.82
35.906,-164.37
35.921,-144.5
35.937,-130.2
35.953,-121.05
35.968,-115.95
35.984,-113.48
36.000,-112.28
36.015,-110.95
36.031,-108.37
36.046,-103.76
36.062,-96.97
36.078,-88.47
36.093,-79.1
36.109,-69.7
36.125,-60.7
36.140,-52.04
36.156,-43.22
36.171,-33.68
36.187,-23.08
36.203,-11.54
36.218,0.34
36.234,11.65
36.250,21.41
36.265,28.92
36.281,33.84
36.296,36.31
36.312,36.74
36.328,35.64
36.343,33.29
36.359,29.62
36.375,24.27
36.390,16.71
36.406,6.56
36.421,-6.23
36.437,-21.3
36.453,-38.03
36.468,-55.64
36.484,-73.21
36.500,-89.77
36.515,-104.11
36.531,-114.84
36.546,-120.62
36.562,-120.43
36.578,-113.94
36.593,-101.78
36.609,-85.43
36.625,-66.91
36.640,-48.32
36.656,-31.34
36.671,-16.91
36.687,-5.19
36.703,4.25
36.718,12.07
36.734,18.85
36.750,24.87
36.765,30.07
36.781,34.18
36.796,36.91
36.812,38.11
36.828,37.92
36.843,36.67
36.859,34.83
36.875,32.93
36.890,31.37
36.906,30.44
36.921,30.27
36.937,30.82
36.953,31.9
36.968,33.18
36.984,34.24
37.000,34.58
37.015,33.76
37.031,31.43
37.046,27.48
37.062,22.06
37.078,15.54
37.093,8.44
37.109,1.24
37.125,-5.74
37.140,-12.43
37.156,-18.87
37.171,-25.25
37.187,-31.65
37.203,-38.18
37.218,-44.93
37.234,-52.02
37.250,-59.56
37.265,-67.4
37.281,-74.95
37.296,-81.09
37.312,-84.33
37.328,-83.26
37.343,-77.08
37.359,-65.89
37.375,-50.76
37.390,-33.36
37.406,-15.43
37.421,1.67
37.437,17.17
37.453,30.86
37.468,42.9
37.484,53.47
37.500,62.71
37.515,70.58
37.531,76.98
37.546,81.79
37.562,85.02
37.578,86.86
37.593,87.66
37.609,87.93
37.625,88.17
37.640,88.8
37.656,90.05
37.671,91.96
37.687,94.39
37.703,97.05
37.718,99.61
37.734,101.7
37.750,103.0
37.765,103.28
37.781,102.5
37.796,100.77
37.812,98.31
37.828,95.36
37.843,92.08
37.859,88.51
37.875,84.71
37.890,80.77
37.906,76.85
37.921,73.12
37.937,69.6
37.953,66.03
37.968,61.86
37.984,56.25
38.000,48.32
38.015,37.36
38.031,23.05
38.046,5.67
38.062,-13.84
38.078,-33.88
38.093,-52.48
38.109,-67.78
38.125,-78.5
38.140,-84.29
38.156,-85.75
38.171,-84.13
38.187,-80.85
38.203,-77.02
38.218,-73.25
38.234,-69.6
38.250,-65.86
38.265,-61.71
38.281,-56.92
38.296,-51.42
38.312,-45.3
38.328,-38.79
38.343,-32.29
38.359,-26.27
38.375,-21.14
38.390,-17.15
38.406,-14.25
38.421,-12.15
38.437,-10.31
38.453,-8.2
38.468,-5.41
38.484,-1.73
38.500,2.78
38.515,7.8
38.531,12.83
38.546,17.26
38.562,20.54
38.578,22.26
38.593,22.36
38.609,21.08
38.625,18.94
38.640,16.53
38.656,14.23
38.671,12.13
38.687,10.0
38.703,7.47
38.718,4.25
38.734,0.31
38.750,-4.18
38.765,-8.89
38.781,-13.54
38.796,-18.03
38.812,-22.45
38.828,-27.09
38.843,-32.32
38.859,-38.47
38.875,-45.71
38.890,-53.81
38.906,-61.97
38.921,-68.86
38.937,-72.82
38.953,-72.33
38.968,-66.5
38.984,-55.36
39.000,-39.87
39.015,-21.66
39.031,-2.54
39.046,15.93
39.062,32.74
39.078,47.37
39.093,59.7
39.109,69.78
39.125,77.75
39.140,83.74
39.156,87.97
39.171,90.79
39.187,92.59
39.203,93.84
39.218,94.9
39.234,95.99
39.250,97.09
39.265,98.03
39.281,98.61
39.296,98.75
39.312,98.58
39.328,98.35
39.343,98.28
39.359,98.37
39.375,98.4
39.390,97.91
39.406,96.4
39.421,93.54
39.437,89.25
39.453,83.75
39.468,77.34
39.484,70.39
39.500,63.11
39.515,55.63
39.531,47.92
39.546,39.84
39.562,31.2
39.578,21.62
39.593,10.67
39.609,-2.21
39.625,-17.44
39.640,-35.28
39.656,-55.65
39.671,-78.19
39.687,-102.33
39.703,-127.27
39.718,-151.97
39.734,-175.03
39.750,-194.61
39.765,-208.59
39.781,-215.01
39.796,-212.64
39.812,-201.5
39.828,-182.87
39.843,-159.02
39.859,-132.58
39.875,-105.83
39.890,-80.41
39.906,-57.27
39.921,-36.84
39.937,-19.31
39.953,-4.76
39.968,6.91
39.984,16.03
40.000,23.22
40.015,29.23
40.031,34.81
40.046,40.46
40.062,46.3
40.078,52.12
40.093,57.66
40.109,62.76
40.125,67.51
40.140,72.26
40.156,77.4
40.171,83.15
40.187,89.34
40.203,95.48
40.218,100.95
40.234,105.3
40.250,108.49
40.265,110.89
40.281,113.17
40.296,115.95
40.312,119.54
40.328,123.82
40.343,128.31
40.359,132.36
40.375,135.5
40.390,137.59
40.406,138.92
40.421,140.04
40.437,141.55
40.453,143.72
40.468,146.41
40.484,149.02
40.500,150.67
40.515,150.42
40.531,147.56
40.546,141.73
40.562,133.13
40.578,122.5
40.593,111.13
40.609,100.59
40.625,92.35
40.640,87.21
40.656,84.94
40.671,84.15
40.687,82.8
40.703,78.9
40.718,71.21
40.734,59.63
40.750,44.95
40.765,28.2
40.781,10.21
40.796,-8.73
40.812,-28.64
40.828,-49.31
40.843,-69.95
40.859,-89.08
40.875,-104.86
40.890,-115.62
40.906,-120.46
40.921,-119.57
40.937,-114.16
40.953,-106.22
40.968,-97.96
40.984,-91.22
41.000,-87.08
41.015,-85.75
41.031,-86.71
41.046,-89.19
41.062,-92.53
41.078,-96.35
41.093,-100.5
41.109,-104.77
41.125,-108.73
41.140,-111.74
41.156,-113.18
41.171,-112.73
41.187,-110.5
41.203,-106.97
41.218,-102.73
41.234,-98.31
41.250,-94.02
41.265,-90.22
41.281,-87.51
41.296,-86.85
41.312,-89.4
41.328,-95.91
41.343,-106.07
41.359,-118.14
41.375,-129.17
41.390,-135.79
41.406,-135.31
41.421,-126.6
41.437,-110.41
41.453,-89.0
41.468,-65.36
41.484,-42.32
41.500,-22.04
41.515,-5.89
41.531,5.33
41.546,11.3
41.562,12.13
41.578,8.48
41.593,1.61
41.609,-6.74
41.625,-14.81
41.640,-21.21
41.656,-25.25
41.671,-27.0
41.687,-27.01
41.703,-25.97
41.718,-24.47
41.734,-22.8
41.750,-21.06
41.765,-19.28
41.781,-17.47
41.796,-15.65
41.812,-13.89
41.828,-12.25
41.843,-10.88
41.859,-9.98
41.875,-9.78
41.890,-10.44
41.906,-12.02
41.921,-14.34
41.937,-17.11
41.953,-20.04
41.968,-22.92
41.984,-25.79
42.000,-28.86
42.015,-32.5
42.031,-37.04
42.046,-42.69
42.062,-49.27
42.078,-56.21
42.093,-62.48
42.109,-66.76
42.125,-67.75
42.140,-64.43
42.156,-56.33
42.171,-43.64
42.187,-27.13
42.203,-8.02
42.218,12.21
42.234,32.02
42.250,50.01
42.265,65.0
42.281,76.22
42.296,83.28
42.312,86.17
42.328,85.28
42.343,81.3
42.359,75.17
42.375,67.99
42.390,60.83
42.406,54.59
42.421,49.79
42.437,46.52
42.453,44.44
42.468,43.02
42.484,41.69
42.500,40.13
42.515,38.26
42.531,36.19
42.546,34.04
42.562,31.78
42.578,29.17
42.593,25.75
42.609,21.08
42.625,14.92
42.640,7.35
42.656,-1.18
42.671,-10.06
42.687,-18.76
42.703,-26.98
42.718,-34.71
42.734,-42.24
42.750,-49.94
42.765,-58.18
42.781,-67.13
42.796,-76.66
42.812,-86.3
42.828,-95.1
42.843,-101.79
42.859,-105.01
42.875,-103.59
42.890,-96.96
42.906,-85.32
42.921,-69.69
42.937,-51.64
42.953,-32.95
42.968,-15.15
42.984,0.69
43.000,14.04
43.015,24.79
43.031,33.05
43.046,39.03
43.062,42.92
43.078,45.0
43.093,45.63
43.109,45.33
43.125,44.62
43.140,43.9
43.156,43.32
43.171,42.76
43.187,42.01
43.203,40.91
43.218,39.55
43.234,38.17
43.250,37.12
43.265,36.58
43.281,36.43
43.296,36.25
43.312,35.48
43.328,33.66
43.343,30.56
43.359,26.29
43.375,21.15
43.390,15.58
43.406,9.89
43.421,4.24
43.437,-1.41
43.453,-7.27
43.468,-13.65
43.484,-20.9
43.500,-29.25
43.515,-38.7
43.531,-48.83
43.546,-58.74
43.562,-67.09
43.578,-72.33
43.593,-73.06
43.609,-68.38
43.625,-58.23
43.640,-43.38
43.656,-25.37
43.671,-6.03
43.687,12.81
43.703,29.75
43.718,43.99
43.734,55.25
43.750,63.63
43.765,69.33
43.781,72.57
43.796,73.6
43.812,72.78
43.828,70.65
43.843,67.92
43.859,65.23
43.875,62.98
43.890,61.18
43.906,59.56
43.921,57.76
43.937,55.59
43.953,53.12
43.968,50.67
43.984,48.57
44.000,47.02
44.015,45.88
44.031,44.77
44.046,43.18
44.062,40.62
44.078,36.79
44.093,31.68
44.109,25.5
44.125,18.7
44.140,11.76
44.156,5.01
44.171,-1.41
44.187,-7.61
44.203,-13.89
44.218,-20.61
44.234,-28.11
44.250,-36.54
44.265,-45.77
44.281,-55.25
44.296,-63.95
44.312,-70.51
44.328,-73.38
44.343,-71.28
44.359,-63.51
44.375,-50.33
44.390,-32.87
44.406,-12.93
44.421,7.57
44.437,27.01
44.453,44.46
44.468,59.66
44.484,72.82
44.500,84.3
44.515,94.35
44.531,103.0
44.546,110.19
44.562,115.94
44.578,120.41
44.593,123.92
44.609,126.79
44.625,129.25
44.640,131.4
44.656,133.22
44.671,134.68
44.687,135.77
44.703,136.53
44.718,136.97
44.734,137.06
44.750,136.72
44.765,135.93
44.781,134.75
44.796,133.29
44.812,131.67
44.828,129.99
44.843,128.33
44.859,126.82
44.875,125.69
44.890,125.25
44.906,125.72
44.921,127.1
44.937,129.0
44.953,130.72
44.968,131.36
44.984,130.0
45.000,125.88
45.015,118.56
45.031,107.95
45.046,94.47
45.062,79.15
45.078,63.73
45.093,50.42
45.109,41.56
45.125,39.02
45.140,43.64
45.156,54.99
45.171,71.5
45.187,90.84
45.203,110.55
45.218,128.6
45.234,143.65
45.250,155.22
45.265,163.49
45.281,169.06
45.296,172.64
45.312,174.69
45.328,175.26
45.343,173.91
45.359,169.81
45.375,162.09
45.390,150.08
45.406,133.61
45.421,113.07
45.437,89.34
45.453,63.56
45.468,37.0
45.484,11.01
45.500,-12.94
45.515,-33.32
45.531,-48.76
45.546,-58.35
45.562,-62.09
45.578,-61.07
45.593,-57.39
45.609,-53.79
45.625,-52.97
45.640,-56.94
45.656,-66.59
45.671,-81.6
45.687,-100.61
45.703,-121.74
45.718,-143.07
45.734,-163.11
45.750,-180.97
45.765,-196.41
45.781,-209.71
45.796,-221.45
45.812,-232.41
45.828,-243.34
45.843,-254.69
45.859,-266.31
45.875,-277.11
45.890,-285.11
45.906,-287.8
45.921,-282.95
45.937,-269.54
45.953,-248.17
45.968,-221.12
45.984,-191.58
46.000,-162.8
46.015,-137.2
46.031,-115.99
46.046,-99.29
46.062,-86.6
46.078,-77.3
46.093,-70.92
46.109,-67.2
46.125,-65.93
46.140,-66.76
46.156,-69.19
46.171,-72.66
46.187,-76.74
46.203,-81.22
46.218,-86.12
46.234,-91.56
46.250,-97.53
46.265,-103.83
46.281,-110.03
46.296,-115.69
46.312,-120.58
46.328,-124.84
46.343,-128.96
46.359,-133.69
46.375,-139.75
46.390,-147.67
46.406,-157.6
46.421,-169.15
46.437,-181.35
46.453,-192.68
46.468,-201.21
46.484,-205.07
46.500,-203.08
46.515,-195.09
46.531,-182.2
46.546,-166.39
46.562,-150.03
46.578,-135.26
46.593,-123.4
46.609,-114.7
46.625,-108.3
46.640,-102.45
46.656,-95.05
46.671,-84.23
46.687,-68.98
46.703,-49.44
46.718,-26.85
46.734,-3.13
46.750,19.72
46.765,40.06
46.781,56.77
46.796,69.19
46.812,77.03
46.828,80.38
46.843,79.8
46.859,76.38
46.875,71.6
46.890,66.91
46.906,63.32
46.921,61.25
46.937,60.5
46.953,60.52
46.968,60.76
46.984,60.99
47.000,61.3
47.015,62.02
47.031,63.38
47.046,65.29
47.062,67.12
47.078,67.94
47.093,66.76
47.109,62.97
47.125,56.6
47.140,48.34
47.156,39.25
47.171,30.26
47.187,21.84
47.203,13.85
47.218,5.77
47.234,-3.03
47.250,-12.87
47.265,-23.7
47.281,-35.11
47.296,-46.58
47.312,-57.64
47.328,-68.01
47.343,-77.63
47.359,-86.65
47.375,-95.42
47.390,-104.47
47.406,-114.35
47.421,-125.41
47.437,-137.44
47.453,-149.45
47.468,-159.72
47.484,-166.16
47.500,-167.01
47.515,-161.31
47.531,-149.27
47.546,-132.15
47.562,-111.81
47.578,-90.22
47.593,-69.02
47.609,-49.32
47.625,-31.73
47.640,-16.47
47.656,-3.49
47.671,7.45
47.687,16.69
47.703,24.59
47.718,31.47
47.734,37.57
47.750,43.12
47.765,48.44
47.781,53.99
47.796,60.32
47.812,67.91
47.828,76.97
47.843,87.45
47.859,99.09
47.875,111.7
47.890,125.25
47.906,139.68
47.921,154.71
47.937,169.65
47.953,183.4
47.968,194.85
47.984,203.45
48.000,209.45
48.015,213.87
48.031,217.97
48.046,222.61
48.062,227.83
48.078,232.94
48.093,236.86
48.109,238.77
48.125,238.34
48.140,235.89
48.156,231.99
48.171,227.13
48.187,221.44
48.203,214.59
48.218,206.1
48.234,195.59
48.250,182.99
48.265,168.68
48.281,153.32
48.296,137.72
48.312,122.67
48.328,108.93
48.343,97.16
48.359,87.87
48.375,81.46
48.390,78.19
48.406,78.12
48.421,80.83
48.437,85.25
48.453,89.72
48.468,92.4
48.484,91.89
48.500,87.89
48.515,81.32
48.531,73.87
48.546,67.15
48.562,61.83
48.578,57.47
48.593,52.95
48.609,47.4
48.625,40.92
48.640,34.57
48.656,29.8
48.671,27.54
48.687,27.65
48.703,28.97
48.718,29.91
48.734,29.14
48.750,25.91
48.765,20.12
48.781,12.05
48.796,2.1
48.812,-9.4
48.828,-22.12
48.843,-35.56
48.859,-49.03
48.875,-61.75
48.890,-73.12
48.906,-82.92
48.921,-91.36
48.937,-98.94
48.953,-106.17
48.968,-113.25
48.984,-120.01
49.000,-125.91
49.015,-130.23
49.031,-132.41
49.046,-132.21
49.062,-129.88
49.078,-126.16
49.093,-121.97
49.109,-118.09
49.125,-114.73
49.140,-111.41
49.156,-107.04
49.171,-100.45
49.187,-90.91
49.203,-78.6
49.218,-64.72
49.234,-51.22
49.250,-40.19
49.265,-33.29
49.281,-31.24
49.296,-33.7
49.312,-39.39
49.328,-46.43
49.343,-52.87
49.359,-57.16
49.375,-58.52
49.390,-56.94
49.406,-53.03
49.421,-47.63
49.437,-41.58
49.453,-35.52
49.468,-29.95
49.484,-25.2
49.500,-21.46
49.515,-18.6
49.531,-16.14
49.546,-13.35
49.562,-9.5
49.578,-4.3
49.593,1.88
49.609,8.04
49.625,12.89
49.640,15.41
49.656,15.28
49.671,13.09
49.687,10.04
49.703,7.58
49.718,6.87
49.734,8.53
49.750,12.53
49.765,18.45
49.781,25.61
49.796,33.32
49.812,40.98
49.828,48.01
49.843,54.0
49.859,58.68
49.875,62.03
49.890,64.23
49.906,65.63
49.921,66.59
49.937,67.34
49.953,67.92
49.968,68.24
49.984,68.16
50.000,67.49
50.015,66.17
50.031,64.16
50.046,61.51
50.062,58.35
50.078,54.94
50.093,51.59
50.109,48.6
50.125,46.08
50.140,43.89
50.156,41.69
50.171,39.08
50.187,35.85
50.203,32.13
50.218,28.39
50.234,25.36
50.250,23.77
50.265,24.17
50.281,26.75
50.296,31.33
50.312,37.29
50.328,43.64
50.343,49.04
50.359,52.05
50.375,51.36
50.390,46.21
50.406,36.67
50.421,23.66
50.437,8.8
50.453,-6.14
50.468,-19.65
50.484,-30.82
50.500,-39.49
50.515,-45.99
50.531,-50.92
50.546,-54.89
50.562,-58.33
50.578,-61.57
50.593,-64.71
50.609,-67.71
50.625,-70.4
50.640,-72.58
50.656,-74.14
50.671,-75.19
50.687,-76.12
50.703,-77.44
50.718,-79.55
50.734,-82.52
50.750,-85.96
50.765,-89.13
50.781,-91.16
50.796,-91.37
50.812,-89.41
50.828,-85.32
50.843,-79.4
50.859,-72.06
50.875,-63.76
50.890,-54.95
50.906,-46.09
50.921,-37.67
50.937,-30.08
50.953,-23.63
50.968,-18.37
50.984,-14.2
51.000,-10.88
51.015,-8.16
51.031,-5.87
51.046,-3.9
51.062,-2.17
51.078,-0.68
51.093,0.53
51.109,1.38
51.125,1.74
51.140,1.46
51.156,0.47
51.171,-1.25
51.187,-3.62
51.203,-6.52
51.218,-9.79
51.234,-13.28
51.250,-16.81
51.265,-20.21
51.281,-23.38
51.296,-26.28
51.312,-29.03
51.328,-31.81
51.343,-34.79
51.359,-38.14
51.375,-41.87
51.390,-45.91
51.406,-50.15
51.421,-54.55
51.437,-59.2
51.453,-64.27
51.468,-69.83
51.484,-75.68
51.500,-81.17
51.515,-85.24
51.531,-86.67
51.546,-84.51
51.562,-78.37
51.578,-68.69
51.593,-56.54
51.609,-43.27
51.625,-30.1
51.640,-17.85
51.656,-6.9
51.671,2.6
51.687,10.48
51.703,16.45
51.718,20.27
51.734,21.91
51.750,21.76
51.765,20.6
51.781,19.28
51.796,18.49
51.812,18.49
51.828,19.2
51.843,20.38
51.859,21.91
51.875,23.93
51.890,26.72
51.906,30.52
51.921,35.22
51.937,40.32
51.953,45.03
51.968,48.57
51.984,50.44
52.000,50.62
52.015,49.5
52.031,47.67
52.046,45.64
52.062,43.64
52.078,41.51
52.093,38.79
52.109,34.86
52.125,29.03
52.140,20.71
52.156,9.62
52.171,-3.93
52.187,-18.83
52.203,-33.18
52.218,-44.7
52.234,-51.48
52.250,-52.63
52.265,-48.65
52.281,-41.31
52.296,-33.02
52.312,-26.02
52.328,-21.75
52.343,-20.6
52.359,-22.07
52.375,-25.1
52.390,-28.55
52.406,-31.53
52.421,-33.54
52.437,-34.42
52.453,-34.29
52.468,-33.26
52.484,-31.35
52.500,-28.49
52.515,-24.6
52.531,-19.71
52.546,-14.07
52.562,-8.03
52.578,-1.93
52.593,4.06
52.609,10.01
52.625,16.02
52.640,22.03
52.656,27.74
52.671,32.63
52.687,36.17
52.703,38.14
52.718,38.77
52.734,38.71
52.750,38.86
52.765,40.0
52.781,42.45
52.796,46.03
52.812,50.12
52.828,54.01
52.843,57.17
52.859,59.41
52.875,60.97
52.890,62.19
52.906,63.42
52.921,64.73
52.937,65.97
52.953,66.86
52.968,67.16
52.984,66.82
53.000,65.94
53.015,64.69
53.031,63.27
53.046,61.77
53.062,60.22
53.078,58.66
53.093,57.17
53.109,55.87
53.125,54.99
53.140,54.74
53.156,55.37
53.171,57.07
53.187,59.91
53.203,63.7
53.218,67.97
53.234,72.06
53.250,75.32
53.265,77.42
53.281,78.49
53.296,79.11
53.312,79.98
53.328,81.59
53.343,84.0
53.359,86.8
53.375,89.33
53.390,90.85
53.406,90.7
53.421,88.38
53.437,83.6
53.453,76.36
53.468,67.1
53.484,56.58
53.500,45.61
53.515,34.53
53.531,22.87
53.546,9.38
53.562,-7.33
53.578,-27.91
53.593,-51.55
53.609,-75.85
53.625,-97.53
53.640,-113.63
53.656,-122.55
53.671,-124.52
53.687,-121.24
53.703,-115.01
53.718,-107.8
53.734,-100.79
53.750,-94.45
53.765,-89.1
53.781,-85.44
53.796,-84.51
53.812,-87.24
53.828,-93.67
53.843,-102.42
53.859,-110.94
53.875,-116.39
53.890,-116.78
53.906,-111.74
53.921,-102.59
53.937,-91.53
53.953,-80.54
53.968,-70.63
53.984,-61.73
54.000,-53.2
54.015,-44.58
54.031,-36.1
54.046,-28.59
54.062,-23.03
54.078,-19.98
54.093,-19.32
54.109,-20.34
54.125,-22.04
54.140,-23.57
54.156,-24.43
54.171,-24.51
54.187,-24.04
54.203,-23.43
54.218,-23.11
54.234,-23.47
54.250,-24.72
54.265,-26.79
54.281,-29.25
54.296,-31.22
54.312,-31.52
54.328,-28.73
54.343,-21.6
54.359,-9.42
54.375,7.69
54.390,28.66
54.406,51.67
54.421,74.48
54.437,94.96
54.453,111.37
54.468,122.55
54.484,127.77
54.500,126.73
54.515,119.57
54.531,107.06
54.546,90.81
54.562,73.16
54.578,56.76
54.593,43.67
54.609,34.72
54.625,29.03
54.640,24.46
54.656,18.48
54.671,9.26
54.687,-3.67
54.703,-19.31
54.718,-35.78
54.734,-51.23
54.750,-64.48
54.765,-75.32
54.781,-84.28
54.796,-92.22
54.812,-99.97
54.828,-108.11
54.843,-116.95
54.859,-126.62
54.875,-137.09
54.890,-148.02
54.906,-158.61
54.921,-167.48
54.937,-172.86
54.953,-172.96
54.968,-166.5
54.984,-153.21
55.000,-134.02
55.015,-110.84
55.031,-86.09
55.046,-62.06
55.062,-40.36
55.078,-21.76
55.093,-6.16
55.109,6.94
55.125,18.18
55.140,27.93
55.156,36.17
55.171,42.58
55.187,46.79
55.203,48.62
55.218,48.34
55.234,46.58
55.250,44.21
55.265,42.01
55.281,40.47
55.296,39.64
55.312,39.22
55.328,38.69
55.343,37.54
55.359,35.37
55.375,31.99
55.390,27.32
55.406,21.47
55.421,14.58
55.437,6.92
55.453,-1.21
55.468,-9.54
55.484,-17.96
55.500,-26.65
55.515,-36.0
55.531,-46.54
55.546,-58.48
55.562,-71.37
55.578,-83.91
55.593,-94.03
55.609,-99.43
55.625,-98.29
55.640,-89.89
55.656,-74.83
55.671,-54.86
55.687,-32.23
55.703,-9.1
55.718,12.95
55.734,33.08
55.750,51.01
55.765,66.72
55.781,80.23
55.796,91.49
55.812,100.36
55.828,106.76
55.843,110.71
55.859,112.37
55.875,112.01
55.890,109.95
55.906,106.55
55.921,102.21
55.937,97.37
55.953,92.49
55.968,87.97
55.984,84.04
56.000,80.71
56.015,77.75
56.031,74.75
56.046,71.33
56.062,67.22
56.078,62.36
56.093,56.79
56.109,50.57
56.125,43.67
56.140,36.09
56.156,27.88
56.171,19.3
56.187,10.8
56.203,2.84
56.218,-4.34
56.234,-10.81
56.250,-16.98
56.265,-23.46
56.281,-30.86
56.296,-39.55
56.312,-49.55
56.328,-60.37
56.343,-70.95
56.359,-79.67
56.375,-84.57
56.390,-83.79
56.406,-76.15
56.421,-61.6
56.437,-41.31
56.453,-17.36
56.468,7.86
56.484,32.3
56.500,54.66
56.515,74.44
56.531,91.75
56.546,106.87
56.562,120.11
56.578,131.55
56.593,141.16
56.609,148.81
56.625,154.35
56.640,157.63
56.656,158.57
56.671,157.23
56.687,153.84
56.703,148.79
56.718,142.62
56.734,135.99
56.750,129.56
56.765,123.94
56.781,119.56
56.796,116.48
56.812,114.4
56.828,112.68
56.843,110.44
56.859,106.81
56.875,101.18
56.890,93.27
56.906,83.13
56.921,71.04
56.937,57.38
56.953,42.65
56.968,27.55
56.984,13.05
57.000,0.35
57.015,-9.28
57.031,-14.88
57.046,-16.09
57.062,-13.4
57.078,-8.09
57.093,-1.94
57.109,3.21
57.125,5.91
57.140,5.38
57.156,1.56
57.171,-5.11
57.187,-13.97
57.203,-24.52
57.218,-36.55
57.234,-50.2
57.250,-65.8
57.265,-83.73
57.281,-104.08
57.296,-126.26
57.312,-148.64
57.328,-168.53
57.343,-182.51
57.359,-187.29
57.375,-180.73
57.390,-162.74
57.406,-135.53
57.421,-103.13
57.437,-70.24
57.453,-40.92
57.468,-17.62
57.484,-0.94
57.500,10.11
57.515,17.29
57.531,22.46
57.546,27.09
57.562,31.89
57.578,36.77
57.593,40.73
57.609,42.1
57.625,39.07
57.640,30.32
57.656,15.72
57.671,-3.37
57.687,-24.24
57.703,-43.65
57.718,-58.65
57.734,-67.46
57.750,-69.71
57.765,-66.25
57.781,-58.6
57.796,-48.41
57.812,-37.02
57.828,-25.32
57.843,-13.87
57.859,-3.13
57.875,6.36
57.890,13.9
57.906,18.79
57.921,20.54
57.937,19.12
57.953,15.03
57.968,9.2
57.984,2.73
58.000,-3.31
58.015,-8.05
58.031,-10.89
58.046,-11.44
58.062,-9.7
58.078,-6.04
58.093,-1.25
58.109,3.61
58.125,7.56
58.140,9.86
58.156,10.11
58.171,8.18
58.187,3.88
58.203,-3.14
58.218,-13.4
58.234,-27.27
58.250,-44.5
58.265,-63.99
58.281,-83.88
58.296,-101.87
58.312,-115.85
58.328,-124.31
58.343,-126.72
58.359,-123.57
58.375,-116.4
58.390,-107.55
58.406,-99.77
58.421,-95.57
58.437,-96.38
58.453,-102.05
58.468,-110.69
58.484,-119.4
58.500,-125.2
58.515,-126.11
58.531,-121.68
58.546,-112.79
58.562,-100.99
58.578,-87.68
58.593,-73.72
58.609,-59.49
58.625,-45.28
58.640,-31.53
58.656,-18.93
58.671,-8.07
58.687,0.76
58.703,7.73
58.718,13.22
58.734,17.58
58.750,20.95
58.765,23.37
58.781,24.9
58.796,25.87
58.812,26.73
58.828,27.89
58.843,29.49
58.859,31.25
58.875,32.75
58.890,33.64
58.906,33.83
58.921,33.37
58.937,32.44
58.953,31.07
58.968,29.28
58.984,27.11
59.000,24.74
59.015,22.5
59.031,20.66
59.046,19.28
59.062,18.09
59.078,16.7
59.093,14.65
59.109,11.7
59.125,7.79
59.140,2.98
59.156,-2.7
59.171,-9.3
59.187,-16.88
59.203,-25.42
59.218,-34.52
59.234,-43.36
59.250,-50.72
59.265,-55.33
59.281,-56.17
59.296,-52.84
59.312,-45.59
59.328,-35.25
59.343,-22.94
59.359,-9.83
59.375,3.01
59.390,14.81
59.406,25.07
59.421,33.55
59.437,40.32
59.453,45.52
59.468,49.36
59.484,51.99
59.500,53.51
59.515,54.08
59.531,53.94
59.546,53.51
59.562,53.23
59.578,53.44
59.593,54.26
59.609,55.52
59.625,56.87
59.640,57.94
59.656,58.39
59.671,58.11
59.687,57.13
59.703,55.61
59.718,53.67
59.734,51.33
59.750,48.56
59.765,45.27
59.781,41.49
59.796,37.35
59.812,33.12
59.828,29.08
59.843,25.42
59.859,22.16
59.875,19.17
59.890,16.19
59.906,13.04
59.921,9.57
59.937,5.73
59.953,1.54
59.968,-3.0
59.984,-7.87
