timestamp,value
00.000,185.93
00.015,178.86
00.031,167.86
00.046,153.9
00.062,139.21
00.078,126.46
00.093,117.54
00.109,112.6
00.125,109.74
00.140,105.53
00.156,96.17
00.171,78.81
00.187,52.27
00.203,17.26
00.218,-24.12
00.234,-69.08
00.250,-114.81
00.265,-158.68
00.281,-198.29
00.296,-231.24
00.312,-255.36
00.328,-269.0
00.343,-271.6
00.359,-264.18
00.375,-249.33
00.390,-230.76
00.406,-212.21
00.421,-196.32
00.437,-183.77
00.453,-173.3
00.468,-162.55
00.484,-149.33
00.500,-132.79
00.515,-113.69
00.531,-93.93
00.546,-75.53
00.562,-59.55
00.578,-45.65
00.593,-32.3
00.609,-17.65
00.625,-0.44
00.640,19.4
00.656,40.88
00.671,62.42
00.687,82.63
00.703,100.59
00.718,115.91
00.734,128.32
00.750,137.38
00.765,142.46
00.781,142.89
00.796,138.27
00.812,128.61
00.828,114.39
00.843,96.34
00.859,75.35
00.875,52.39
00.890,28.45
00.906,4.58
00.921,-18.06
00.937,-38.28
00.953,-54.91
00.968,-66.96
00.984,-73.88
01.000,-75.75
01.015,-73.51
01.031,-68.79
01.046,-63.64
01.062,-60.03
01.078,-59.5
01.093,-62.85
01.109,-70.04
01.125,-80.19
01.140,-91.58
01.156,-101.91
01.171,-108.76
01.187,-110.15
01.203,-105.12
01.218,-93.96
01.234,-78.04
01.250,-59.21
01.265,-39.18
01.281,-19.13
01.296,0.31
01.312,18.84
01.328,36.05
01.343,51.35
01.359,64.04
01.375,73.59
01.390,79.99
01.406,83.98
01.421,87.05
01.437,91.13
01.453,98.12
01.468,109.34
01.484,125.14
01.500,144.69
01.515,166.24
01.531,187.46
01.546,205.95
01.562,219.7
01.578,227.37
01.593,228.36
01.609,222.85
01.625,211.67
01.640,196.12
01.656,177.69
01.671,157.8
01.687,137.55
01.703,117.62
01.718,98.16
01.734,78.85
01.750,59.16
01.765,38.59
01.781,17.09
01.796,-4.8
01.812,-26.09
01.828,-45.73
01.843,-63.29
01.859,-79.21
01.875,-94.77
01.890,-111.54
01.906,-130.43
01.921,-151.16
01.937,-171.96
01.953,-190.0
01.968,-202.32
01.984,-206.76
02.000,-202.59
02.015,-190.74
02.031,-173.32
02.046,-153.07
02.062,-132.47
02.078,-113.21
02.093,-95.8
02.109,-79.67
02.125,-63.48
02.140,-45.64
02.156,-24.87
02.171,-0.7
02.187,26.18
02.203,53.72
02.218,78.87
02.234,98.52
02.250,110.47
02.265,114.39
02.281,112.0
02.296,106.55
02.312,101.61
02.328,99.92
02.343,102.59
02.359,109.05
02.375,117.6
02.390,126.08
02.406,132.59
02.421,135.68
02.437,134.44
02.453,128.46
02.468,117.87
02.484,103.52
02.500,87.11
02.515,71.13
02.531,58.38
02.546,51.38
02.562,51.65
02.578,59.1
02.593,72.03
02.609,87.44
02.625,101.92
02.640,112.6
02.656,117.83
02.671,117.46
02.687,112.62
02.703,105.29
02.718,97.62
02.734,91.5
02.750,88.3
02.765,88.72
02.781,92.76
02.796,99.83
02.812,108.77
02.828,118.04
02.843,125.96
02.859,131.04
02.875,132.27
02.890,129.35
02.906,122.6
02.921,112.8
02.937,100.8
02.953,87.39
02.968,73.22
02.984,58.92
03.000,45.2
03.015,32.85
03.031,22.58
03.046,14.77
03.062,9.37
03.078,5.99
03.093,3.91
03.109,2.26
03.125,-0.05
03.140,-4.21
03.156,-11.35
03.171,-22.21
03.187,-36.59
03.203,-53.06
03.218,-69.07
03.234,-81.83
03.250,-89.4
03.265,-91.61
03.281,-90.26
03.296,-88.35
03.312,-88.72
03.328,-92.78
03.343,-100.01
03.359,-108.51
03.375,-116.09
03.390,-121.42
03.406,-124.59
03.421,-126.84
03.437,-129.76
03.453,-134.6
03.468,-141.74
03.484,-150.73
03.500,-160.43
03.515,-169.4
03.531,-176.1
03.546,-179.1
03.562,-177.49
03.578,-170.98
03.593,-160.05
03.609,-145.81
03.625,-129.61
03.640,-112.76
03.656,-96.32
03.671,-81.03
03.687,-67.32
03.703,-55.44
03.718,-45.39
03.734,-37.02
03.750,-30.01
03.765,-23.93
03.781,-18.32
03.796,-12.76
03.812,-6.96
03.828,-0.72
03.843,6.05
03.859,13.35
03.875,20.92
03.890,28.15
03.906,34.02
03.921,37.35
03.937,37.25
03.953,33.61
03.968,27.42
03.984,20.55
04.000,15.22
04.015,13.13
04.031,14.79
04.046,19.39
04.062,25.13
04.078,30.11
04.093,32.98
04.109,33.25
04.125,31.12
04.140,27.08
04.156,21.67
04.171,15.59
04.187,9.85
04.203,5.86
04.218,5.16
04.234,8.75
04.250,16.7
04.265,28.09
04.281,41.46
04.296,55.54
04.312,69.77
04.328,84.35
04.343,99.75
04.359,116.14
04.375,133.01
04.390,149.32
04.406,163.8
04.421,175.39
04.437,183.35
04.453,187.03
04.468,185.72
04.484,178.72
04.500,165.64
04.515,146.9
04.531,123.91
04.546,98.91
04.562,74.4
04.578,52.35
04.593,33.74
04.609,18.45
04.625,5.73
04.640,-5.19
04.656,-14.6
04.671,-22.21
04.687,-27.45
04.703,-29.99
04.718,-30.0
04.734,-28.22
04.750,-25.66
04.765,-23.09
04.781,-20.88
04.796,-18.95
04.812,-17.15
04.828,-15.48
04.843,-14.24
04.859,-13.97
04.875,-15.07
04.890,-17.61
04.906,-21.26
04.921,-25.4
04.937,-29.41
04.953,-32.93
04.968,-35.93
04.984,-38.67
05.000,-41.57
05.015,-44.92
05.031,-48.74
05.046,-52.69
05.062,-56.02
05.078,-57.75
05.093,-56.97
05.109,-53.11
05.125,-46.21
05.140,-36.92
05.156,-26.29
05.171,-15.46
05.187,-5.33
05.203,3.5
05.218,10.75
05.234,16.27
05.250,19.97
05.265,21.77
05.281,21.72
05.296,20.11
05.312,17.46
05.328,14.47
05.343,11.83
05.359,10.06
05.375,9.34
05.390,9.54
05.406,10.36
05.421,11.48
05.437,12.72
05.453,14.06
05.468,15.59
05.484,17.35
05.500,19.2
05.515,20.84
05.531,21.93
05.546,22.25
05.562,21.93
05.578,21.39
05.593,21.22
05.609,21.96
05.625,23.82
05.640,26.67
05.656,30.04
05.671,33.33
05.687,36.05
05.703,37.85
05.718,38.68
05.734,38.67
05.750,38.04
05.765,37.05
05.781,35.92
05.796,34.78
05.812,33.67
05.828,32.49
05.843,30.9
05.859,28.47
05.875,24.66
05.890,19.05
05.906,11.55
05.921,2.51
05.937,-7.3
05.953,-16.88
05.968,-25.34
05.984,-32.09
06.000,-37.0
06.015,-40.32
06.031,-42.51
06.046,-44.03
06.062,-45.23
06.078,-46.31
06.093,-47.36
06.109,-48.3
06.125,-48.92
06.140,-48.9
06.156,-47.96
06.171,-46.01
06.187,-43.28
06.203,-40.4
06.218,-38.2
06.234,-37.44
06.250,-38.51
06.265,-41.29
06.281,-45.26
06.296,-49.7
06.312,-53.94
06.328,-57.6
06.343,-60.63
06.359,-63.3
06.375,-66.14
06.390,-69.74
06.406,-74.64
06.421,-81.0
06.437,-88.44
06.453,-95.89
06.468,-101.72
06.484,-104.29
06.500,-102.49
06.515,-96.26
06.531,-86.6
06.546,-75.06
06.562,-63.07
06.578,-51.49
06.593,-40.57
06.609,-30.38
06.625,-21.17
06.640,-13.45
06.656,-7.73
06.671,-4.03
06.687,-1.67
06.703,0.58
06.718,3.91
06.734,9.0
06.750,15.85
06.765,24.05
06.781,33.25
06.796,43.35
06.812,54.44
06.828,66.43
06.843,78.76
06.859,90.42
06.875,100.4
06.890,108.08
06.906,113.52
06.921,117.44
06.937,120.77
06.953,124.24
06.968,128.01
06.984,131.75
07.000,134.74
07.015,136.14
07.031,135.15
07.046,130.98
07.062,122.94
07.078,110.54
07.093,93.81
07.109,73.45
07.125,50.86
07.140,27.82
07.156,6.09
07.171,-12.91
07.187,-28.27
07.203,-39.48
07.218,-46.3
07.234,-48.77
07.250,-47.31
07.265,-42.71
07.281,-36.19
07.296,-29.15
07.312,-22.79
07.328,-17.93
07.343,-14.95
07.359,-13.9
07.375,-14.62
07.390,-16.91
07.406,-20.48
07.421,-24.91
07.437,-29.63
07.453,-34.05
07.468,-37.69
07.484,-40.37
07.500,-42.3
07.515,-43.92
07.531,-45.77
07.546,-48.28
07.562,-51.64
07.578,-55.82
07.593,-60.67
07.609,-66.05
07.625,-71.8
07.640,-77.74
07.656,-83.57
07.671,-89.0
07.687,-93.92
07.703,-98.51
07.718,-103.35
07.734,-109.06
07.750,-115.97
07.765,-123.76
07.781,-131.28
07.796,-136.9
07.812,-139.04
07.828,-136.66
07.843,-129.67
07.859,-118.85
07.875,-105.47
07.890,-90.85
07.906,-75.98
07.921,-61.44
07.937,-47.56
07.953,-34.55
07.968,-22.75
07.984,-12.53
08.000,-4.23
08.015,2.07
08.031,6.58
08.046,9.77
08.062,12.19
08.078,14.25
08.093,16.12
08.109,17.77
08.125,19.06
08.140,19.89
08.156,20.34
08.171,20.6
08.187,20.92
08.203,21.4
08.218,21.91
08.234,22.13
08.250,21.64
08.265,20.09
08.281,17.42
08.296,13.85
08.312,9.84
08.328,5.88
08.343,2.27
08.359,-1.01
08.375,-4.34
08.390,-8.27
08.406,-13.41
08.421,-20.11
08.437,-28.37
08.453,-37.68
08.468,-47.1
08.484,-55.35
08.500,-61.06
08.515,-63.12
08.531,-60.88
08.546,-54.38
08.562,-44.27
08.578,-31.68
08.593,-17.91
08.609,-4.1
08.625,8.88
08.640,20.52
08.656,30.51
08.671,38.62
08.687,44.69
08.703,48.66
08.718,50.68
08.734,51.18
08.750,50.75
08.765,50.01
08.781,49.33
08.796,48.75
08.812,48.05
08.828,46.87
08.843,45.02
08.859,42.57
08.875,39.88
08.890,37.41
08.906,35.55
08.921,34.34
08.937,33.42
08.953,32.14
08.968,29.74
08.984,25.69
09.000,19.89
09.015,12.77
09.031,5.11
09.046,-2.27
09.062,-8.81
09.078,-14.42
09.093,-19.45
09.109,-24.56
09.125,-30.37
09.140,-37.22
09.156,-45.0
09.171,-53.07
09.187,-60.38
09.203,-65.67
09.218,-67.79
09.234,-65.98
09.250,-60.06
09.265,-50.48
09.281,-38.22
09.296,-24.48
09.312,-10.45
09.328,2.94
09.343,15.03
09.359,25.38
09.375,33.71
09.390,39.8
09.406,43.61
09.421,45.32
09.437,45.41
09.453,44.57
09.468,43.48
09.484,42.65
09.500,42.22
09.515,42.09
09.531,42.0
09.546,41.7
09.562,41.12
09.578,40.32
09.593,39.46
09.609,38.61
09.625,37.75
09.640,36.72
09.656,35.27
09.671,33.14
09.687,30.12
09.703,26.16
09.718,21.39
09.734,16.1
09.750,10.69
09.765,5.45
09.781,0.52
09.796,-4.21
09.812,-9.02
09.828,-14.3
09.843,-20.4
09.859,-27.55
09.875,-35.8
09.890,-44.83
09.906,-53.9
09.921,-61.79
09.937,-67.02
09.953,-68.24
09.968,-64.63
09.984,-56.32
10.000,-44.27
10.015,-30.03
10.031,-15.18
10.046,-1.0
10.062,11.77
10.078,22.81
10.093,32.1
10.109,39.63
10.125,45.4
10.140,49.39
10.156,51.66
10.171,52.42
10.187,51.98
10.203,50.78
10.218,49.22
10.234,47.66
10.250,46.34
10.265,45.32
10.281,44.54
10.296,43.85
10.312,43.13
10.328,42.35
10.343,41.5
10.359,40.58
10.375,39.45
10.390,37.9
10.406,35.67
10.421,32.62
10.437,28.73
10.453,24.19
10.468,19.26
10.484,14.22
10.500,9.26
10.515,4.5
10.531,0.04
10.546,-4.1
10.562,-7.99
10.578,-11.88
10.593,-16.17
10.609,-21.33
10.625,-27.7
10.640,-35.21
10.656,-43.28
10.671,-50.76
10.687,-56.25
10.703,-58.41
10.718,-56.42
10.734,-50.18
10.750,-40.38
10.765,-28.26
10.781,-15.22
10.796,-2.44
10.812,9.27
10.828,19.52
10.843,28.19
10.859,35.24
10.875,40.56
10.890,44.09
10.906,45.84
10.921,46.06
10.937,45.23
10.953,43.95
10.968,42.78
10.984,42.04
11.000,41.82
11.015,41.91
11.031,41.99
11.046,41.75
11.062,41.07
11.078,39.92
11.093,38.42
11.109,36.7
11.125,34.81
11.140,32.73
11.156,30.32
11.171,27.43
11.187,23.93
11.203,19.75
11.218,14.96
11.234,9.75
11.250,4.4
11.265,-0.82
11.281,-5.69
11.296,-10.13
11.312,-14.22
11.328,-18.18
11.343,-22.34
11.359,-27.03
11.375,-32.54
11.390,-38.93
11.406,-45.91
11.421,-52.8
11.437,-58.52
11.453,-61.87
11.468,-61.8
11.484,-57.84
11.500,-50.18
11.515,-39.73
11.531,-27.72
11.546,-15.44
11.562,-3.8
11.578,6.72
11.593,15.92
11.609,23.73
11.625,30.0
11.640,34.55
11.656,37.24
11.671,38.2
11.687,37.82
11.703,36.67
11.718,35.34
11.734,34.25
11.750,33.61
11.765,33.39
11.781,33.46
11.796,33.66
11.812,33.83
11.828,33.78
11.843,33.37
11.859,32.46
11.875,31.02
11.890,29.11
11.906,26.86
11.921,24.39
11.937,21.73
11.953,18.77
11.968,15.38
11.984,11.51
12.000,7.22
12.015,2.74
12.031,-1.73
12.046,-6.04
12.062,-10.24
12.078,-14.5
12.093,-19.04
12.109,-24.01
12.125,-29.48
12.140,-35.43
12.156,-41.7
12.171,-47.93
12.187,-53.44
12.203,-57.31
12.218,-58.53
12.234,-56.32
12.250,-50.44
12.265,-41.28
12.281,-29.83
12.296,-17.34
12.312,-4.99
12.328,6.31
12.343,15.98
12.359,23.7
12.375,29.3
12.390,32.77
12.406,34.22
12.421,33.96
12.437,32.44
12.453,30.17
12.468,27.61
12.484,25.09
12.500,22.84
12.515,21.01
12.531,19.66
12.546,18.8
12.562,18.32
12.578,18.0
12.593,17.57
12.609,16.79
12.625,15.5
12.640,13.73
12.656,11.57
12.671,9.13
12.687,6.51
12.703,3.74
12.718,0.84
12.734,-2.14
12.750,-5.15
12.765,-8.13
12.781,-11.06
12.796,-13.99
12.812,-17.03
12.828,-20.31
12.843,-23.96
12.859,-28.04
12.875,-32.56
12.890,-37.5
12.906,-42.83
12.921,-48.47
12.937,-54.18
12.953,-59.46
12.968,-63.54
12.984,-65.41
13.000,-64.16
13.015,-59.32
13.031,-51.06
13.046,-40.22
13.062,-28.04
13.078,-15.79
13.093,-4.38
13.109,5.71
13.125,14.36
13.140,21.59
13.156,27.34
13.171,31.49
13.187,34.0
13.203,35.0
13.218,34.88
13.234,34.24
13.250,33.63
13.265,33.43
13.281,33.7
13.296,34.31
13.312,35.03
13.328,35.66
13.343,36.09
13.359,36.28
13.375,36.15
13.390,35.64
13.406,34.65
13.421,33.16
13.437,31.24
13.453,28.99
13.468,26.46
13.484,23.64
13.500,20.44
13.515,16.73
13.531,12.47
13.546,7.79
13.562,2.89
13.578,-1.99
13.593,-6.67
13.609,-11.05
13.625,-15.17
13.640,-19.15
13.656,-23.18
13.671,-27.54
13.687,-32.49
13.703,-38.17
13.718,-44.44
13.734,-50.76
13.750,-56.22
13.765,-59.69
13.781,-60.19
13.796,-57.13
13.812,-50.62
13.828,-41.36
13.843,-30.49
13.859,-19.19
13.875,-8.39
13.890,1.32
13.906,9.71
13.921,16.64
13.937,22.02
13.953,25.71
13.968,27.65
13.984,27.98
14.000,27.14
14.015,25.79
14.031,24.55
14.046,23.88
14.062,23.81
14.078,24.1
14.093,24.38
14.109,24.37
14.125,23.96
14.140,23.25
14.156,22.42
14.171,21.56
14.187,20.65
14.203,19.48
14.218,17.84
14.234,15.59
14.250,12.77
14.265,9.57
14.281,6.21
14.296,2.91
14.312,-0.24
14.328,-3.28
14.343,-6.29
14.359,-9.37
14.375,-12.57
14.390,-15.95
14.406,-19.55
14.421,-23.48
14.437,-27.85
14.453,-32.76
14.468,-38.2
14.484,-43.86
14.500,-49.18
14.515,-53.3
14.531,-55.32
14.546,-54.49
14.562,-50.59
14.578,-43.87
14.593,-35.09
14.609,-25.19
14.625,-15.1
14.640,-5.53
14.656,3.09
14.671,10.52
14.687,16.61
14.703,21.25
14.718,24.42
14.734,26.21
14.750,26.83
14.765,26.61
14.781,25.88
14.796,24.94
14.812,23.96
14.828,23.03
14.843,22.17
14.859,21.39
14.875,20.73
14.890,20.21
14.906,19.81
14.921,19.42
14.937,18.92
14.953,18.08
14.968,16.81
14.984,15.07
15.000,12.98
15.015,10.64
15.031,8.13
15.046,5.45
15.062,2.52
15.078,-0.7
15.093,-4.18
15.109,-7.8
15.125,-11.4
15.140,-14.86
15.156,-18.15
15.171,-21.39
15.187,-24.82
15.203,-28.71
15.218,-33.32
15.234,-38.79
15.250,-45.01
15.265,-51.53
15.281,-57.56
15.296,-62.02
15.312,-63.82
15.328,-62.23
15.343,-57.08
15.359,-48.84
15.375,-38.5
15.390,-27.24
15.406,-16.13
15.421,-5.93
15.437,2.93
15.453,10.28
15.468,16.06
15.484,20.3
15.500,23.15
15.515,24.84
15.531,25.65
15.546,25.91
15.562,25.78
15.578,25.33
15.593,24.62
15.609,23.7
15.625,22.75
15.640,22.04
15.656,21.77
15.671,22.0
15.687,22.54
15.703,23.04
15.718,23.14
15.734,22.62
15.750,21.45
15.765,19.76
15.781,17.73
15.796,15.44
15.812,12.83
15.828,9.78
15.843,6.21
15.859,2.18
15.875,-2.11
15.890,-6.4
15.906,-10.5
15.921,-14.34
15.937,-18.0
15.953,-21.64
15.968,-25.41
15.984,-29.46
16.000,-33.92
16.015,-38.92
16.031,-44.52
16.046,-50.57
16.062,-56.62
16.078,-61.87
16.093,-65.28
16.109,-65.88
16.125,-63.03
16.140,-56.67
16.156,-47.39
16.171,-36.17
16.187,-24.22
16.203,-12.55
16.218,-1.88
16.234,7.4
16.250,15.19
16.265,21.46
16.281,26.26
16.296,29.61
16.312,31.62
16.328,32.49
16.343,32.52
16.359,32.05
16.375,31.41
16.390,30.82
16.406,30.38
16.421,30.04
16.437,29.72
16.453,29.32
16.468,28.82
16.484,28.26
16.500,27.72
16.515,27.18
16.531,26.54
16.546,25.6
16.562,24.14
16.578,22.06
16.593,19.38
16.609,16.25
16.625,12.91
16.640,9.48
16.656,5.92
16.671,2.07
16.687,-2.2
16.703,-6.9
16.718,-11.87
16.734,-16.79
16.750,-21.4
16.765,-25.59
16.781,-29.49
16.796,-33.4
16.812,-37.74
16.828,-42.82
16.843,-48.75
16.859,-55.25
16.875,-61.57
16.890,-66.68
16.906,-69.4
16.921,-68.79
16.937,-64.43
16.953,-56.58
16.968,-46.06
16.984,-34.06
17.000,-21.72
17.015,-9.96
17.031,0.62
17.046,9.79
17.062,17.48
17.078,23.73
17.093,28.66
17.109,32.35
17.125,34.93
17.140,36.54
17.156,37.33
17.171,37.46
17.187,37.1
17.203,36.42
17.218,35.6
17.234,34.82
17.250,34.23
17.265,33.93
17.281,33.95
17.296,34.19
17.312,34.39
17.328,34.24
17.343,33.41
17.359,31.75
17.375,29.28
17.390,26.21
17.406,22.85
17.421,19.52
17.437,16.35
17.453,13.32
17.468,10.2
17.484,6.78
17.500,2.86
17.515,-1.54
17.531,-6.29
17.546,-11.15
17.562,-15.91
17.578,-20.48
17.593,-24.88
17.609,-29.24
17.625,-33.76
17.640,-38.64
17.656,-44.03
17.671,-49.88
17.687,-55.88
17.703,-61.34
17.718,-65.26
17.734,-66.49
17.750,-64.15
17.765,-57.92
17.781,-48.2
17.796,-36.1
17.812,-23.07
17.828,-10.49
17.843,0.7
17.859,10.09
17.875,17.72
17.890,23.82
17.906,28.61
17.921,32.13
17.937,34.34
17.953,35.22
17.968,34.92
17.984,33.81
18.000,32.35
18.015,30.98
18.031,29.96
18.046,29.29
18.062,28.81
18.078,28.32
18.093,27.71
18.109,26.97
18.125,26.16
18.140,25.25
18.156,24.06
18.171,22.32
18.187,19.83
18.203,16.56
18.218,12.73
18.234,8.69
18.250,4.78
18.265,1.11
18.281,-2.41
18.296,-6.01
18.312,-9.84
18.328,-13.88
18.343,-17.92
18.359,-21.68
18.375,-25.04
18.390,-28.1
18.406,-31.17
18.421,-34.71
18.437,-39.07
18.453,-44.4
18.468,-50.48
18.484,-56.72
18.500,-62.18
18.515,-65.71
18.531,-66.26
18.546,-63.19
18.562,-56.49
18.578,-46.81
18.593,-35.25
18.609,-23.05
18.625,-11.23
18.640,-0.43
18.656,9.08
18.671,17.21
18.687,23.93
18.703,29.17
18.718,32.88
18.734,35.13
18.750,36.18
18.765,36.42
18.781,36.29
18.796,36.13
18.812,36.1
18.828,36.2
18.843,36.34
18.859,36.43
18.875,36.54
18.890,36.75
18.906,37.15
18.921,37.66
18.937,38.05
18.953,37.93
18.968,36.94
18.984,34.98
19.000,32.15
19.015,28.8
19.031,25.29
19.046,21.8
19.062,18.25
19.078,14.42
19.093,10.08
19.109,5.24
19.125,0.16
19.140,-4.78
19.156,-9.23
19.171,-13.13
19.187,-16.71
19.203,-20.45
19.218,-24.82
19.234,-30.19
19.250,-36.59
19.265,-43.68
19.281,-50.76
19.296,-56.85
19.312,-60.87
19.328,-61.9
19.343,-59.33
19.359,-53.2
19.375,-44.07
19.390,-32.98
19.406,-21.1
19.421,-9.5
19.437,1.09
19.453,10.27
19.468,17.98
19.484,24.26
19.500,29.21
19.515,32.95
19.531,35.62
19.546,37.35
19.562,38.34
19.578,38.81
19.593,38.96
19.609,38.91
19.625,38.8
19.640,38.63
19.656,38.4
19.671,38.01
19.687,37.37
19.703,36.36
19.718,34.96
19.734,33.26
19.750,31.4
19.765,29.48
19.781,27.56
19.796,25.5
19.812,23.15
19.828,20.29
19.843,16.85
19.859,12.87
19.875,8.56
19.890,4.17
19.906,-0.09
19.921,-4.17
19.937,-8.15
19.953,-12.3
19.968,-16.85
19.984,-21.98
20.000,-27.69
20.015,-33.86
20.031,-40.19
20.046,-46.23
20.062,-51.31
20.078,-54.66
20.093,-55.43
20.109,-53.01
20.125,-47.18
20.140,-38.39
20.156,-27.65
20.171,-16.27
20.187,-5.49
20.203,3.81
20.218,11.3
20.234,17.01
20.250,21.16
20.265,23.97
20.281,25.57
20.296,26.04
20.312,25.53
20.328,24.38
20.343,23.01
20.359,21.88
20.375,21.24
20.390,21.13
20.406,21.3
20.421,21.4
20.437,21.1
20.453,20.25
20.468,18.91
20.484,17.33
20.500,15.76
20.515,14.33
20.531,12.99
20.546,11.45
20.562,9.37
20.578,6.49
20.593,2.78
20.609,-1.49
20.625,-5.88
20.640,-9.94
20.656,-13.41
20.671,-16.32
20.687,-19.03
20.703,-21.97
20.718,-25.54
20.734,-29.93
20.750,-35.05
20.765,-40.49
20.781,-45.62
20.796,-49.64
20.812,-51.74
20.828,-51.19
20.843,-47.6
20.859,-40.96
20.875,-31.81
20.890,-21.03
20.906,-9.71
20.921,1.15
20.937,10.83
20.953,18.94
20.968,25.39
20.984,30.25
21.000,33.6
21.015,35.48
21.031,35.98
21.046,35.27
21.062,33.7
21.078,31.77
21.093,29.95
21.109,28.62
21.125,27.88
21.140,27.59
21.156,27.48
21.171,27.25
21.187,26.74
21.203,25.91
21.218,24.83
21.234,23.55
21.250,22.07
21.265,20.27
21.281,17.97
21.296,15.01
21.312,11.3
21.328,6.93
21.343,2.11
21.359,-2.82
21.375,-7.56
21.390,-11.9
21.406,-15.87
21.421,-19.66
21.437,-23.62
21.453,-28.13
21.468,-33.44
21.484,-39.6
21.500,-46.37
21.515,-53.18
21.531,-59.15
21.546,-63.27
21.562,-64.56
21.578,-62.4
21.593,-56.69
21.609,-47.92
21.625,-37.01
21.640,-25.07
21.656,-13.13
21.671,-1.94
21.687,7.97
21.703,16.33
21.718,23.04
21.734,28.09
21.750,31.61
21.765,33.84
21.781,35.04
21.796,35.47
21.812,35.4
21.828,35.03
21.843,34.57
21.859,34.11
21.875,33.69
21.890,33.18
21.906,32.41
21.921,31.23
21.937,29.6
21.953,27.67
21.968,25.63
21.984,23.66
22.000,21.78
22.015,19.84
22.031,17.59
22.046,14.82
22.062,11.42
22.078,7.52
22.093,3.33
22.109,-0.86
22.125,-4.83
22.140,-8.46
22.156,-11.87
22.171,-15.28
22.187,-19.03
22.203,-23.42
22.218,-28.64
22.234,-34.64
22.250,-41.1
22.265,-47.44
22.281,-52.83
22.296,-56.35
22.312,-57.13
22.328,-54.62
22.343,-48.73
22.359,-39.9
22.375,-29.06
22.390,-17.39
22.406,-6.06
22.421,4.06
22.437,12.48
22.453,19.09
22.468,24.01
22.484,27.48
22.500,29.73
22.515,30.95
22.531,31.36
22.546,31.18
22.562,30.67
22.578,30.07
22.593,29.54
22.609,29.1
22.625,28.71
22.640,28.24
22.656,27.56
22.671,26.65
22.687,25.47
22.703,24.07
22.718,22.51
22.734,20.79
22.750,18.92
22.765,16.85
22.781,14.54
22.796,11.91
22.812,8.98
22.828,5.76
22.843,2.34
22.859,-1.18
22.875,-4.75
22.890,-8.38
22.906,-12.23
22.921,-16.5
22.937,-21.41
22.953,-27.07
22.968,-33.42
22.984,-40.11
23.000,-46.57
23.015,-52.0
23.031,-55.52
23.046,-56.39
23.062,-54.16
23.078,-48.82
23.093,-40.8
23.109,-30.9
23.125,-20.07
23.140,-9.27
23.156,0.75
23.171,9.46
23.187,16.53
23.203,21.81
23.218,25.31
23.234,27.13
23.250,27.52
23.265,26.85
23.281,25.58
23.296,24.15
23.312,22.95
23.328,22.19
23.343,21.89
23.359,21.89
23.375,21.95
23.390,21.87
23.406,21.55
23.421,20.99
23.437,20.27
23.453,19.4
23.468,18.25
23.484,16.59
23.500,14.18
23.515,10.9
23.531,6.82
23.546,2.19
23.562,-2.63
23.578,-7.32
23.593,-11.7
23.609,-15.73
23.625,-19.56
23.640,-23.39
23.656,-27.45
23.671,-31.98
23.687,-37.12
23.703,-42.86
23.718,-48.9
23.734,-54.63
23.750,-59.07
23.765,-61.17
23.781,-60.08
23.796,-55.46
23.812,-47.62
23.828,-37.39
23.843,-25.93
23.859,-14.27
23.875,-3.19
23.890,6.89
23.906,15.77
23.921,23.34
23.937,29.51
23.953,34.23
23.968,37.56
23.984,39.71
24.000,40.99
24.015,41.73
24.031,42.12
24.046,42.3
24.062,42.31
24.078,42.23
24.093,42.14
24.109,42.14
24.125,42.26
24.140,42.47
24.156,42.61
24.171,42.5
24.187,42.02
24.203,41.14
24.218,40.0
24.234,38.8
24.250,37.72
24.265,36.85
24.281,36.12
24.296,35.34
24.312,34.28
24.328,32.82
24.343,30.98
24.359,28.93
24.375,26.84
24.390,24.85
24.406,23.01
24.421,21.28
24.437,19.63
24.453,18.08
24.468,16.73
24.484,15.66
24.500,14.85
24.515,14.26
24.531,13.69
24.546,12.96
24.562,11.99
24.578,10.79
24.593,9.46
24.609,8.14
24.625,6.94
24.640,5.85
24.656,4.82
24.671,3.79
24.687,2.72
24.703,1.62
24.718,0.56
24.734,-0.41
24.750,-1.29
24.765,-2.11
24.781,-2.96
24.796,-3.95
24.812,-5.13
24.828,-6.53
24.843,-8.13
24.859,-9.92
24.875,-11.87
24.890,-13.94
24.906,-16.05
24.921,-18.17
24.937,-20.31
24.953,-22.49
24.968,-24.81
24.984,-27.35
25.000,-30.21
25.015,-33.42
25.031,-36.98
25.046,-40.85
25.062,-44.87
25.078,-48.85
25.093,-52.57
25.109,-55.88
25.125,-58.83
25.140,-61.72
25.156,-65.09
25.171,-69.52
25.187,-75.41
25.203,-82.66
25.218,-90.46
25.234,-97.39
25.250,-101.67
25.265,-101.75
25.281,-96.81
25.296,-87.07
25.312,-73.77
25.328,-58.71
25.343,-43.64
25.359,-29.76
25.375,-17.58
25.390,-7.1
25.406,1.81
25.421,9.14
25.437,14.73
25.453,18.45
25.468,20.48
25.484,21.3
25.500,21.61
25.515,21.97
25.531,22.58
25.546,23.27
25.562,23.66
25.578,23.44
25.593,22.57
25.609,21.27
25.625,19.92
25.640,18.83
25.656,18.09
25.671,17.61
25.687,17.13
25.703,16.37
25.718,15.11
25.734,13.25
25.750,10.83
25.765,7.97
25.781,4.9
25.796,1.79
25.812,-1.21
25.828,-4.08
25.843,-6.91
25.859,-9.93
25.875,-13.42
25.890,-17.72
25.906,-23.0
25.921,-29.12
25.937,-35.52
25.953,-41.21
25.968,-45.02
25.984,-45.88
26.000,-43.26
26.015,-37.31
26.031,-28.75
26.046,-18.67
26.062,-8.09
26.078,2.23
26.093,11.74
26.109,20.12
26.125,27.04
26.140,32.19
26.156,35.36
26.171,36.6
26.187,36.23
26.203,34.84
26.218,33.06
26.234,31.39
26.250,30.07
26.265,29.08
26.281,28.22
26.296,27.28
26.312,26.15
26.328,24.86
26.343,23.54
26.359,22.36
26.375,21.37
26.390,20.47
26.406,19.42
26.421,17.86
26.437,15.55
26.453,12.39
26.468,8.59
26.484,4.52
26.500,0.6
26.515,-2.9
26.531,-6.01
26.546,-9.06
26.562,-12.51
26.578,-16.76
26.593,-22.04
26.609,-28.29
26.625,-35.22
26.640,-42.29
26.656,-48.69
26.671,-53.47
26.687,-55.65
26.703,-54.49
26.718,-49.78
26.734,-41.94
26.750,-31.93
26.765,-20.99
26.781,-10.23
26.796,-0.45
26.812,8.0
26.828,14.99
26.843,20.47
26.859,24.38
26.875,26.65
26.890,27.38
26.906,26.92
26.921,25.78
26.937,24.56
26.953,23.63
26.968,23.13
26.984,22.94
27.000,22.8
27.015,22.55
27.031,22.15
27.046,21.72
27.062,21.36
27.078,21.02
27.093,20.51
27.109,19.54
27.125,17.89
27.140,15.43
27.156,12.24
27.171,8.46
27.187,4.31
27.203,0.02
27.218,-4.15
27.234,-8.02
27.250,-11.52
27.265,-14.81
27.281,-18.35
27.296,-22.69
27.312,-28.3
27.328,-35.22
27.343,-42.88
27.359,-50.15
27.375,-55.66
27.390,-58.12
27.406,-56.75
27.421,-51.48
27.437,-42.92
27.453,-32.19
27.468,-20.53
27.484,-8.99
27.500,1.73
27.515,11.25
27.531,19.39
27.546,26.0
27.562,30.92
27.578,34.04
27.593,35.44
27.609,35.5
27.625,34.86
27.640,34.16
27.656,33.89
27.671,34.19
27.687,34.83
27.703,35.42
27.718,35.64
27.734,35.34
27.750,34.61
27.765,33.63
27.781,32.51
27.796,31.19
27.812,29.47
27.828,27.12
27.843,24.08
27.859,20.47
27.875,16.61
27.890,12.86
27.906,9.46
27.921,6.5
27.937,3.84
27.953,1.27
27.968,-1.5
27.984,-4.69
28.000,-8.48
28.015,-12.89
28.031,-17.67
28.046,-22.31
28.062,-25.92
28.078,-27.41
28.093,-25.8
28.109,-20.5
28.125,-11.55
28.140,0.39
28.156,14.24
28.171,28.83
28.187,43.23
28.203,56.86
28.218,69.44
28.234,80.84
28.250,90.92
28.265,99.51
28.281,106.55
28.296,112.28
28.312,117.25
28.328,122.29
28.343,128.2
28.359,135.48
28.375,144.2
28.390,153.95
28.406,164.04
28.421,173.73
28.437,182.41
28.453,189.59
28.468,194.89
28.484,197.85
28.500,197.88
28.515,194.38
28.531,186.89
28.546,175.24
28.562,159.68
28.578,140.78
28.593,119.36
28.609,96.39
28.625,73.16
28.640,51.44
28.656,33.48
28.671,21.64
28.687,17.67
28.703,22.01
28.718,33.58
28.734,50.16
28.750,69.39
28.765,89.64
28.781,110.29
28.796,131.2
28.812,151.74
28.828,169.98
28.843,182.81
28.859,186.87
28.875,179.98
28.890,162.14
28.906,135.64
28.921,104.2
28.937,71.44
28.953,39.83
28.968,10.05
28.984,-18.58
29.000,-47.27
29.015,-77.04
29.031,-108.45
29.046,-141.79
29.062,-177.28
29.078,-214.77
29.093,-253.13
29.109,-289.67
29.125,-320.55
29.140,-341.94
29.156,-351.73
29.171,-350.67
29.187,-342.04
29.203,-330.09
29.218,-318.02
29.234,-306.75
29.250,-295.15
29.265,-281.45
29.281,-264.75
29.296,-245.73
29.312,-226.15
29.328,-207.71
29.343,-191.22
29.359,-176.56
29.375,-163.31
29.390,-151.41
29.406,-141.19
29.421,-132.8
29.437,-125.61
29.453,-117.82
29.468,-107.19
29.484,-91.91
29.500,-71.68
29.515,-48.07
29.531,-23.98
29.546,-2.79
29.562,12.76
29.578,21.11
29.593,22.17
29.609,17.37
29.625,9.46
29.640,1.99
29.656,-1.46
29.671,1.52
29.687,11.07
29.703,24.74
29.718,38.18
29.734,46.9
29.750,48.14
29.765,42.03
29.781,31.41
29.796,20.29
29.812,12.04
29.828,8.01
29.843,7.52
29.859,8.68
29.875,9.75
29.890,10.0
29.906,9.79
29.921,10.07
29.937,11.66
29.953,14.91
29.968,19.57
29.984,25.2
30.000,31.54
30.015,38.55
30.031,46.26
30.046,54.5
30.062,62.76
30.078,70.32
30.093,76.51
30.109,81.1
30.125,84.36
30.140,86.99
30.156,89.81
30.171,93.38
30.187,97.8
30.203,102.69
30.218,107.42
30.234,111.4
30.250,114.27
30.265,116.02
30.281,116.71
30.296,116.38
30.312,114.84
30.328,111.69
30.343,106.45
30.359,98.84
30.375,88.86
30.390,76.91
30.406,63.63
30.421,49.9
30.437,36.98
30.453,26.62
30.468,20.96
30.484,21.89
30.500,29.95
30.515,43.31
30.531,57.64
30.546,67.12
30.562,66.67
30.578,54.02
30.593,30.85
30.609,2.09
30.625,-26.02
30.640,-48.2
30.656,-61.47
30.671,-65.1
30.687,-59.99
30.703,-47.9
30.718,-31.56
30.734,-14.84
30.750,-2.55
30.765,0.56
30.781,-8.51
30.796,-29.92
30.812,-60.68
30.828,-95.77
30.843,-129.58
30.859,-157.33
30.875,-175.9
30.890,-184.07
30.906,-182.75
30.921,-174.86
30.937,-164.8
30.953,-157.24
30.968,-155.46
30.984,-159.99
31.000,-168.46
31.015,-176.89
31.031,-181.78
31.046,-181.83
31.062,-178.24
31.078,-173.69
31.093,-170.54
31.109,-169.59
31.125,-169.94
31.140,-169.84
31.156,-167.89
31.171,-163.73
31.187,-158.02
31.203,-151.68
31.218,-145.13
31.234,-137.98
31.250,-129.44
31.265,-118.94
31.281,-106.71
31.296,-93.84
31.312,-81.67
31.328,-71.1
31.343,-61.95
31.359,-53.07
31.375,-42.85
31.390,-29.92
31.406,-13.88
31.421,4.6
31.437,24.17
31.453,43.4
31.468,61.42
31.484,78.03
31.500,93.52
31.515,108.28
31.531,122.49
31.546,135.93
31.562,148.27
31.578,159.2
31.593,168.56
31.609,176.34
31.625,182.54
31.640,187.01
31.656,189.55
31.671,190.08
31.687,188.84
31.703,186.45
31.718,183.75
31.734,181.58
31.750,180.43
31.765,180.38
31.781,181.2
31.796,182.52
31.812,184.02
31.828,185.35
31.843,185.88
31.859,184.44
31.875,179.16
31.890,167.77
31.906,148.14
31.921,118.93
31.937,80.15
31.953,33.45
31.968,-17.99
31.984,-69.87
32.000,-117.46
32.015,-156.37
32.031,-183.37
32.046,-196.92
32.062,-197.44
32.078,-187.09
32.093,-169.13
32.109,-147.1
32.125,-124.07
32.140,-102.25
32.156,-82.89
32.171,-66.54
32.187,-53.26
32.203,-42.98
32.218,-35.58
32.234,-30.87
32.250,-28.62
32.265,-28.49
32.281,-29.98
32.296,-32.54
32.312,-35.53
32.328,-38.35
32.343,-40.5
32.359,-41.62
32.375,-41.52
32.390,-40.07
32.406,-37.12
32.421,-32.49
32.437,-26.09
32.453,-18.02
32.468,-8.71
32.484,1.09
32.500,10.44
32.515,18.57
32.531,25.1
32.546,30.24
32.562,34.63
32.578,39.03
32.593,43.9
32.609,49.12
32.625,54.02
32.640,57.68
32.656,59.34
32.671,58.76
32.687,56.25
32.703,52.37
32.718,47.44
32.734,41.25
32.750,33.24
32.765,23.12
32.781,11.43
32.796,-0.48
32.812,-10.95
32.828,-19.03
32.843,-25.04
32.859,-30.39
32.875,-36.52
32.890,-43.77
32.906,-50.81
32.921,-55.24
32.937,-54.94
32.953,-49.2
32.968,-38.93
32.984,-25.68
33.000,-10.66
33.015,5.81
33.031,23.43
33.046,40.9
33.062,55.35
33.078,63.11
33.093,61.46
33.109,50.08
33.125,31.46
33.140,9.81
33.156,-10.69
33.171,-27.27
33.187,-39.0
33.203,-46.26
33.218,-50.05
33.234,-51.6
33.250,-52.4
33.265,-54.23
33.281,-58.86
33.296,-67.41
33.312,-79.81
33.328,-94.79
33.343,-110.35
33.359,-124.54
33.375,-135.9
33.390,-143.51
33.406,-146.7
33.421,-144.84
33.437,-137.45
33.453,-124.48
33.468,-106.66
33.484,-85.5
33.500,-62.95
33.515,-40.82
33.531,-20.33
33.546,-1.81
33.562,14.99
33.578,30.58
33.593,45.2
33.609,58.58
33.625,70.03
33.640,78.82
33.656,84.6
33.671,87.7
33.687,89.18
33.703,90.61
33.718,93.56
33.734,99.15
33.750,107.63
33.765,118.31
33.781,129.77
33.796,140.23
33.812,148.12
33.828,152.39
33.843,152.68
33.859,149.24
33.875,142.72
33.890,133.89
33.906,123.64
33.921,112.99
33.937,103.21
33.953,95.58
33.968,90.86
33.984,88.59
34.000,86.82
34.015,82.61
34.031,73.18
34.046,57.37
34.062,36.47
34.078,13.97
34.093,-5.66
34.109,-18.85
34.125,-24.2
34.140,-22.92
34.156,-17.94
34.171,-12.61
34.187,-9.41
34.203,-9.32
34.218,-12.07
34.234,-16.66
34.250,-22.05
34.265,-27.7
34.281,-33.76
34.296,-41.04
34.312,-50.57
34.328,-63.04
34.343,-78.22
34.359,-94.99
34.375,-111.68
34.390,-126.99
34.406,-140.66
34.421,-153.57
34.437,-167.08
34.453,-181.87
34.468,-197.11
34.484,-210.51
34.500,-219.55
34.515,-222.8
34.531,-220.91
34.546,-216.39
34.562,-212.33
34.578,-210.79
34.593,-211.92
34.609,-214.04
34.625,-214.65
34.640,-211.64
34.656,-204.08
34.671,-192.25
34.687,-177.27
34.703,-160.34
34.718,-142.35
34.734,-123.78
34.750,-104.86
34.765,-85.95
34.781,-67.73
34.796,-51.19
34.812,-37.4
34.828,-27.07
34.843,-20.15
34.859,-15.8
34.875,-12.69
34.890,-9.57
34.906,-5.74
34.921,-1.17
34.937,3.77
34.953,8.73
34.968,13.77
34.984,19.45
35.000,26.56
35.015,35.78
35.031,47.36
35.046,60.92
35.062,75.56
35.078,89.99
35.093,102.94
35.109,113.46
35.125,121.2
35.140,126.46
35.156,129.93
35.171,132.38
35.187,134.34
35.203,136.05
35.218,137.64
35.234,139.48
35.250,142.31
35.265,147.18
35.281,155.03
35.296,166.24
35.312,180.38
35.328,196.19
35.343,212.01
35.359,226.3
35.375,238.14
35.390,247.61
35.406,255.91
35.421,264.95
35.437,276.56
35.453,291.25
35.468,307.16
35.484,319.93
35.500,323.79
35.515,313.85
35.531,288.4
35.546,250.15
35.562,205.39
35.578,161.74
35.593,125.31
35.609,98.87
35.625,81.66
35.640,70.62
35.656,62.22
35.671,53.59
35.687,42.91
35.703,29.15
35.718,12.08
35.734,-7.52
35.750,-27.52
35.765,-44.7
35.781,-55.84
35.796,-59.04
35.812,-54.57
35.828,-44.64
35.843,-32.13
35.859,-19.13
35.875,-6.01
35.890,8.19
35.906,24.4
35.921,42.11
35.937,58.76
35.953,70.49
35.968,73.76
35.984,66.92
36.000,50.81
36.015,28.3
36.031,3.0
36.046,-21.99
36.062,-44.82
36.078,-64.88
36.093,-82.32
36.109,-97.42
36.125,-110.33
36.140,-121.11
36.156,-129.82
36.171,-136.54
36.187,-141.39
36.203,-144.55
36.218,-146.34
36.234,-147.44
36.250,-148.91
36.265,-151.87
36.281,-157.27
36.296,-165.67
36.312,-177.1
36.328,-191.08
36.343,-206.4
36.359,-221.12
36.375,-232.76
36.390,-238.78
36.406,-237.42
36.421,-228.29
36.437,-212.64
36.453,-192.83
36.468,-171.48
36.484,-150.63
36.500,-131.31
36.515,-113.77
36.531,-98.07
36.546,-84.58
36.562,-74.28
36.578,-68.44
36.593,-68.14
36.609,-73.75
36.625,-84.57
36.640,-98.76
36.656,-113.63
36.671,-126.24
36.687,-134.19
36.703,-136.26
36.718,-132.59
36.734,-124.29
36.750,-112.73
36.765,-98.81
36.781,-82.82
36.796,-64.8
36.812,-45.1
36.828,-24.82
36.843,-5.83
36.859,9.72
36.875,20.1
36.890,24.57
36.906,23.48
36.921,18.05
36.937,9.97
36.953,0.93
36.968,-7.77
36.984,-15.26
37.000,-21.2
37.015,-25.57
37.031,-28.55
37.046,-30.33
37.062,-31.03
37.078,-30.81
37.093,-29.94
37.109,-28.91
37.125,-28.36
37.140,-28.82
37.156,-30.59
37.171,-33.58
37.187,-37.47
37.203,-41.84
37.218,-46.35
37.234,-50.72
37.250,-54.61
37.265,-57.5
37.281,-58.56
37.296,-56.9
37.312,-51.84
37.328,-43.24
37.343,-31.73
37.359,-18.51
37.375,-5.09
37.390,7.2
37.406,17.51
37.421,25.6
37.437,31.67
37.453,36.12
37.468,39.38
37.484,41.79
37.500,43.62
37.515,45.13
37.531,46.53
37.546,47.91
37.562,49.25
37.578,50.47
37.593,51.51
37.609,52.49
37.625,53.6
37.640,55.06
37.656,56.93
37.671,59.07
37.687,61.16
37.703,62.76
37.718,63.57
37.734,63.43
37.750,62.37
37.765,60.56
37.781,58.15
37.796,55.3
37.812,52.14
37.828,48.79
37.843,45.4
37.859,42.1
37.875,38.96
37.890,36.02
37.906,33.21
37.921,30.34
37.937,27.19
37.953,23.44
37.968,18.77
37.984,12.84
38.000,5.47
38.015,-3.24
38.031,-12.75
38.046,-22.15
38.062,-30.26
38.078,-35.9
38.093,-38.06
38.109,-36.18
38.125,-30.15
38.140,-20.35
38.156,-7.62
38.171,6.91
38.187,21.95
38.203,36.3
38.218,49.07
38.234,59.73
38.250,68.13
38.265,74.4
38.281,78.82
38.296,81.66
38.312,83.19
38.328,83.68
38.343,83.4
38.359,82.63
38.375,81.6
38.390,80.55
38.406,79.63
38.421,78.98
38.437,78.69
38.453,78.74
38.468,79.07
38.484,79.44
38.500,79.6
38.515,79.21
38.531,78.02
38.546,75.84
38.562,72.65
38.578,68.52
38.593,63.61
38.609,58.19
38.625,52.49
38.640,46.71
38.656,40.95
38.671,35.23
38.687,29.51
38.703,23.86
38.718,18.42
38.734,13.32
38.750,8.71
38.765,4.52
38.781,0.55
38.796,-3.58
38.812,-8.32
38.828,-14.05
38.843,-20.9
38.859,-28.62
38.875,-36.58
38.890,-43.71
38.906,-48.84
38.921,-50.82
38.937,-48.91
38.953,-42.99
38.968,-33.54
38.984,-21.54
39.000,-8.16
39.015,5.45
39.031,18.42
39.046,30.12
39.062,40.15
39.078,48.27
39.093,54.35
39.109,58.41
39.125,60.6
39.140,61.26
39.156,60.82
39.171,59.74
39.187,58.39
39.203,57.0
39.218,55.7
39.234,54.51
39.250,53.5
39.265,52.79
39.281,52.49
39.296,52.61
39.312,52.97
39.328,53.24
39.343,52.98
39.359,51.84
39.375,49.66
39.390,46.58
39.406,42.86
39.421,38.85
39.437,34.8
39.453,30.84
39.468,26.99
39.484,23.24
39.500,19.53
39.515,15.74
39.531,11.75
39.546,7.45
39.562,2.81
39.578,-1.99
39.593,-6.68
39.609,-10.94
39.625,-14.61
39.640,-17.8
39.656,-20.84
39.671,-24.23
39.687,-28.48
39.703,-33.89
39.718,-40.42
39.734,-47.64
39.750,-54.7
39.765,-60.48
39.781,-63.79
39.796,-63.71
39.812,-59.85
39.828,-52.42
39.843,-42.21
39.859,-30.26
39.875,-17.61
39.890,-5.12
39.906,6.61
39.921,17.17
39.937,26.27
39.953,33.71
39.968,39.41
39.984,43.39
40.000,45.87
40.015,47.15
40.031,47.61
40.046,47.55
40.062,47.22
40.078,46.77
40.093,46.25
40.109,45.73
40.125,45.22
40.140,44.74
40.156,44.3
40.171,43.83
40.187,43.29
40.203,42.56
40.218,41.53
40.234,40.08
40.250,38.18
40.265,35.88
40.281,33.27
40.296,30.55
40.312,27.86
40.328,25.27
40.343,22.76
40.359,20.21
40.375,17.49
40.390,14.46
40.406,11.02
40.421,7.13
40.437,2.83
40.453,-1.74
40.468,-6.33
40.484,-10.65
40.500,-14.44
40.515,-17.68
40.531,-20.61
40.546,-23.72
40.562,-27.53
40.578,-32.39
40.593,-38.26
40.609,-44.71
40.625,-51.0
40.640,-56.2
40.656,-59.45
40.671,-60.06
40.687,-57.6
40.703,-52.03
40.718,-43.66
40.734,-33.19
40.750,-21.56
40.765,-9.76
40.781,1.34
40.796,11.2
40.812,19.59
40.828,26.56
40.843,32.21
40.859,36.59
40.875,39.66
40.890,41.35
40.906,41.71
40.921,40.97
40.937,39.53
40.953,37.89
40.968,36.49
40.984,35.55
41.000,35.14
41.015,35.1
41.031,35.22
41.046,35.32
41.062,35.27
41.078,35.07
41.093,34.74
41.109,34.31
41.125,33.74
41.140,32.92
41.156,31.69
41.171,29.93
41.187,27.64
41.203,24.95
41.218,22.09
41.234,19.31
41.250,16.78
41.265,14.45
41.281,12.1
41.296,9.45
41.312,6.31
41.328,2.68
41.343,-1.22
41.359,-4.99
41.375,-8.29
41.390,-10.94
41.406,-13.08
41.421,-15.04
41.437,-17.27
41.453,-20.15
41.468,-23.84
41.484,-28.32
41.500,-33.25
41.515,-38.12
41.531,-42.17
41.546,-44.57
41.562,-44.48
41.578,-41.35
41.593,-35.03
41.609,-25.92
41.625,-14.83
41.640,-2.8
41.656,9.14
41.671,20.26
41.687,30.14
41.703,38.72
41.718,46.18
41.734,52.79
41.750,58.7
41.765,63.92
41.781,68.29
41.796,71.62
41.812,73.9
41.828,75.42
41.843,76.7
41.859,78.27
41.875,80.43
41.890,82.93
41.906,85.12
41.921,86.17
41.937,85.55
41.953,83.28
41.968,80.11
41.984,77.09
42.000,75.29
42.015,75.35
42.031,77.3
42.046,80.77
42.062,85.2
42.078,90.25
42.093,95.83
42.109,102.1
42.125,109.25
42.140,117.36
42.156,126.37
42.171,136.2
42.187,146.75
42.203,157.68
42.218,168.07
42.234,176.11
42.250,179.34
42.265,175.21
42.281,161.96
42.296,139.32
42.312,108.52
42.328,71.85
42.343,31.87
42.359,-9.16
42.375,-49.32
42.390,-86.82
42.406,-119.79
42.421,-146.33
42.437,-164.99
42.453,-175.24
42.468,-177.63
42.484,-173.63
42.500,-165.09
42.515,-153.83
42.531,-141.48
42.546,-129.58
42.562,-119.56
42.578,-112.66
42.593,-109.69
42.609,-110.79
42.625,-115.41
42.640,-122.53
42.656,-131.02
42.671,-139.92
42.687,-148.48
42.703,-156.14
42.718,-162.4
42.734,-166.86
42.750,-169.26
42.765,-169.57
42.781,-167.89
42.796,-164.41
42.812,-159.2
42.828,-152.15
42.843,-143.14
42.859,-132.19
42.875,-119.69
42.890,-106.39
42.906,-93.31
42.921,-81.46
42.937,-71.61
42.953,-64.12
42.968,-58.88
42.984,-55.5
43.000,-53.41
43.015,-52.11
43.031,-51.23
43.046,-50.45
43.062,-49.54
43.078,-48.21
43.093,-46.2
43.109,-43.4
43.125,-40.0
43.140,-36.47
43.156,-33.56
43.171,-31.93
43.187,-31.92
43.203,-33.36
43.218,-35.57
43.234,-37.52
43.250,-38.2
43.265,-36.83
43.281,-33.03
43.296,-26.87
43.312,-18.83
43.328,-9.56
43.343,0.16
43.359,9.65
43.375,18.42
43.390,26.09
43.406,32.47
43.421,37.4
43.437,40.85
43.453,42.87
43.468,43.68
43.484,43.61
43.500,43.07
43.515,42.41
43.531,41.82
43.546,41.31
43.562,40.84
43.578,40.33
43.593,39.78
43.609,39.23
43.625,38.76
43.640,38.39
43.656,38.09
43.671,37.77
43.687,37.29
43.703,36.55
43.718,35.41
43.734,33.82
43.750,31.78
43.765,29.35
43.781,26.63
43.796,23.73
43.812,20.74
43.828,17.7
43.843,14.68
43.859,11.71
43.875,8.84
43.890,6.01
43.906,3.1
43.921,-0.07
43.937,-3.62
43.953,-7.57
43.968,-11.79
43.984,-16.14
44.000,-20.55
44.015,-25.08
44.031,-29.93
44.046,-35.24
44.062,-40.97
44.078,-46.79
44.093,-52.01
44.109,-55.8
44.125,-57.31
44.140,-56.01
44.156,-51.78
44.171,-44.96
44.187,-36.23
44.203,-26.47
44.218,-16.55
44.234,-7.14
44.250,1.26
44.265,8.35
44.281,13.95
44.296,17.96
44.312,20.45
44.328,21.68
44.343,22.07
44.359,22.12
44.375,22.22
44.390,22.51
44.406,22.9
44.421,23.13
44.437,23.0
44.453,22.55
44.468,22.03
44.484,21.81
44.500,22.1
44.515,22.86
44.531,23.8
44.546,24.47
44.562,24.56
44.578,23.97
44.593,22.8
44.609,21.28
44.625,19.53
44.640,17.58
44.656,15.35
44.671,12.76
44.687,9.79
44.703,6.53
44.718,3.05
44.734,-0.6
44.750,-4.44
44.765,-8.43
44.781,-12.51
44.796,-16.54
44.812,-20.44
44.828,-24.21
44.843,-28.04
44.859,-32.24
44.875,-37.12
44.890,-42.84
44.906,-49.14
44.921,-55.32
44.937,-60.31
44.953,-62.91
44.968,-62.15
44.984,-57.65
45.000,-49.76
45.015,-39.45
45.031,-28.01
45.046,-16.59
45.062,-6.03
45.078,3.3
45.093,11.33
45.109,18.07
45.125,23.48
45.140,27.51
45.156,30.16
45.171,31.65
45.187,32.36
45.203,32.8
45.218,33.35
45.234,34.15
45.250,35.11
45.265,36.03
45.281,36.69
45.296,37.12
45.312,37.48
45.328,38.01
45.343,38.87
45.359,39.98
45.375,41.0
45.390,41.51
45.406,41.15
45.421,39.83
45.437,37.77
45.453,35.45
45.468,33.41
45.484,32.03
45.500,31.42
45.515,31.33
45.531,31.31
45.546,30.9
45.562,29.86
45.578,28.2
45.593,26.21
45.609,24.3
45.625,22.81
45.640,21.89
45.656,21.51
45.671,21.45
45.687,21.45
45.703,21.25
45.718,20.61
45.734,19.47
45.750,17.91
45.765,16.37
45.781,15.62
45.796,16.7
45.812,20.65
45.828,28.18
45.843,39.52
45.859,54.24
45.875,71.52
45.890,90.37
45.906,110.01
45.921,129.97
45.937,150.06
45.953,170.1
45.968,189.55
45.984,207.32
46.000,221.89
46.015,231.79
46.031,236.04
46.046,234.46
46.062,227.6
46.078,216.22
46.093,200.87
46.109,181.69
46.125,158.64
46.140,131.96
46.156,102.66
46.171,72.57
46.187,43.98
46.203,18.99
46.218,-1.02
46.234,-15.68
46.250,-25.51
46.265,-31.65
46.281,-35.57
46.296,-38.72
46.312,-42.43
46.328,-47.69
46.343,-55.01
46.359,-64.27
46.375,-74.83
46.390,-85.71
46.406,-95.93
46.421,-104.84
46.437,-112.12
46.453,-117.74
46.468,-121.68
46.484,-123.7
46.500,-123.51
46.515,-120.99
46.531,-116.6
46.546,-111.49
46.562,-107.31
46.578,-105.59
46.593,-107.19
46.609,-111.92
46.625,-118.59
46.640,-125.48
46.656,-130.82
46.671,-133.22
46.687,-131.75
46.703,-126.09
46.718,-116.43
46.734,-103.65
46.750,-89.15
46.765,-74.73
46.781,-62.16
46.796,-52.58
46.812,-46.23
46.828,-42.24
46.843,-38.96
46.859,-34.48
46.875,-27.2
46.890,-16.47
46.906,-2.99
46.921,11.03
46.937,22.26
46.953,27.04
46.968,22.6
46.984,8.22
47.000,-14.27
47.015,-40.87
47.031,-66.65
47.046,-87.26
47.062,-100.1
47.078,-104.75
47.093,-102.46
47.109,-95.39
47.125,-85.73
47.140,-75.25
47.156,-65.19
47.171,-56.39
47.187,-49.35
47.203,-44.42
47.218,-41.87
47.234,-41.81
47.250,-43.99
47.265,-47.58
47.281,-51.16
47.296,-53.07
47.312,-51.94
47.328,-47.4
47.343,-40.32
47.359,-32.59
47.375,-26.35
47.390,-23.21
47.406,-23.7
47.421,-27.2
47.437,-32.39
47.453,-37.72
47.468,-41.88
47.484,-43.92
47.500,-43.34
47.515,-39.95
47.531,-33.87
47.546,-25.54
47.562,-15.66
47.578,-5.19
47.593,4.82
47.609,13.31
47.625,19.58
47.640,23.42
47.656,25.25
47.671,26.04
47.687,26.88
47.703,28.69
47.718,31.84
47.734,36.06
47.750,40.65
47.765,44.8
47.781,47.9
47.796,49.76
47.812,50.59
47.828,50.83
47.843,50.89
47.859,50.91
47.875,50.77
47.890,50.18
47.906,48.84
47.921,46.68
47.937,43.85
47.953,40.62
47.968,37.28
47.984,33.92
48.000,30.49
48.015,26.87
48.031,22.92
48.046,18.66
48.062,14.25
48.078,9.89
48.093,5.77
48.109,1.91
48.125,-1.78
48.140,-5.5
48.156,-9.39
48.171,-13.6
48.187,-18.21
48.203,-23.26
48.218,-28.78
48.234,-34.71
48.250,-40.75
48.265,-46.27
48.281,-50.33
48.296,-51.88
48.312,-50.14
48.328,-44.88
48.343,-36.6
48.359,-26.42
48.375,-15.66
48.390,-5.51
48.406,3.33
48.421,10.67
48.437,16.63
48.453,21.39
48.468,24.97
48.484,27.3
48.500,28.3
48.515,28.1
48.531,27.08
48.546,25.75
48.562,24.6
48.578,23.91
48.593,23.74
48.609,23.9
48.625,24.25
48.640,24.67
48.656,25.17
48.671,25.79
48.687,26.47
48.703,26.98
48.718,27.0
48.734,26.23
48.750,24.51
48.765,21.95
48.781,18.86
48.796,15.6
48.812,12.47
48.828,9.51
48.843,6.56
48.859,3.33
48.875,-0.36
48.890,-4.5
48.906,-8.86
48.921,-13.1
48.937,-16.99
48.953,-20.47
48.968,-23.75
48.984,-27.21
49.000,-31.25
49.015,-36.03
49.031,-41.37
49.046,-46.68
49.062,-51.03
49.078,-53.41
49.093,-53.01
49.109,-49.44
49.125,-42.91
49.140,-34.12
49.156,-24.04
49.171,-13.62
49.187,-3.61
49.203,5.55
49.218,13.52
49.234,20.11
49.250,25.12
49.265,28.44
49.281,30.15
49.296,30.61
49.312,30.33
49.328,29.86
49.343,29.61
49.359,29.71
49.375,30.07
49.390,30.5
49.406,30.8
49.421,30.89
49.437,30.72
49.453,30.34
49.468,29.72
49.484,28.87
49.500,27.7
49.515,26.19
49.531,24.31
49.546,22.06
49.562,19.47
49.578,16.51
49.593,13.16
49.609,9.4
49.625,5.3
49.640,0.96
49.656,-3.43
49.671,-7.67
49.687,-11.65
49.703,-15.43
49.718,-19.19
49.734,-23.21
49.750,-27.72
49.765,-32.82
49.781,-38.31
49.796,-43.71
49.812,-48.31
49.828,-51.26
49.843,-51.84
49.859,-49.57
49.875,-44.42
49.890,-36.8
49.906,-27.51
49.921,-17.43
49.937,-7.46
49.953,1.81
49.968,10.0
49.984,16.93
50.000,22.54
50.015,26.74
50.031,29.5
50.046,30.85
50.062,31.0
50.078,30.32
50.093,29.22
50.109,28.03
50.125,27.01
50.140,26.24
50.156,25.71
50.171,25.38
50.187,25.19
50.203,25.0
50.218,24.66
50.234,24.03
50.250,23.07
50.265,21.8
50.281,20.33
50.296,18.73
50.312,16.96
50.328,14.86
50.343,12.28
50.359,9.15
50.375,5.61
50.390,1.96
50.406,-1.42
50.421,-4.27
50.437,-6.55
50.453,-8.48
50.468,-10.52
50.484,-13.14
50.500,-16.68
50.515,-21.21
50.531,-26.42
50.546,-31.69
50.562,-36.19
50.578,-39.03
50.593,-39.49
50.609,-37.18
50.625,-32.1
50.640,-24.66
50.656,-15.56
50.671,-5.64
50.687,4.28
50.703,13.52
50.718,21.54
50.734,27.99
50.750,32.66
50.765,35.5
50.781,36.64
50.796,36.35
50.812,35.08
50.828,33.33
50.843,31.54
50.859,30.05
50.875,29.04
50.890,28.52
50.906,28.47
50.921,28.87
50.937,29.67
50.953,30.86
50.968,32.3
50.984,33.79
51.000,35.06
51.015,35.86
51.031,36.07
51.046,35.66
51.062,34.74
51.078,33.47
51.093,32.02
51.109,30.53
51.125,29.11
51.140,27.83
51.156,26.71
51.171,25.65
51.187,24.51
51.203,23.14
51.218,21.49
51.234,19.64
51.250,17.77
51.265,16.11
51.281,14.81
51.296,13.95
51.312,13.47
51.328,13.23
51.343,13.04
51.359,12.72
51.375,12.18
51.390,11.47
51.406,10.71
51.421,10.06
51.437,9.64
51.453,9.4
51.468,9.15
51.484,8.65
51.500,7.69
51.515,6.23
51.531,4.45
51.546,2.61
51.562,0.98
51.578,-0.35
51.593,-1.43
51.609,-2.45
51.625,-3.62
51.640,-5.03
51.656,-6.69
51.671,-8.48
51.687,-10.32
51.703,-12.17
51.718,-14.03
51.734,-15.9
51.750,-17.77
51.765,-19.59
51.781,-21.32
51.796,-22.98
51.812,-24.72
51.828,-26.76
51.843,-29.3
51.859,-32.41
51.875,-35.97
51.890,-39.71
51.906,-43.33
51.921,-46.72
51.937,-50.01
51.953,-53.58
51.968,-57.93
51.984,-63.34
52.000,-69.62
52.015,-75.96
52.031,-81.1
52.046,-83.62
52.062,-82.43
52.078,-77.11
52.093,-67.99
52.109,-56.03
52.125,-42.52
52.140,-28.73
52.156,-15.68
52.171,-4.04
52.187,5.8
52.203,13.69
52.218,19.59
52.234,23.6
52.250,25.9
52.265,26.82
52.281,26.76
52.296,26.12
52.312,25.25
52.328,24.35
52.343,23.56
52.359,22.85
52.375,22.24
52.390,21.72
52.406,21.32
52.421,21.05
52.437,20.91
52.453,20.83
52.468,20.65
52.484,20.18
52.500,19.25
52.515,17.76
52.531,15.69
52.546,13.15
52.562,10.31
52.578,7.39
52.593,4.53
52.609,1.78
52.625,-0.93
52.640,-3.73
52.656,-6.8
52.671,-10.31
52.687,-14.41
52.703,-19.14
52.718,-24.31
52.734,-29.45
52.750,-33.81
52.765,-36.45
52.781,-36.55
52.796,-33.69
52.812,-28.05
52.828,-20.3
52.843,-11.42
52.859,-2.35
52.875,6.2
52.890,13.82
52.906,20.29
52.921,25.42
52.937,29.09
52.953,31.19
52.968,31.79
52.984,31.19
53.000,29.86
53.015,28.33
53.031,27.05
53.046,26.21
53.062,25.73
53.078,25.35
53.093,24.77
53.109,23.8
53.125,22.5
53.140,21.09
53.156,19.89
53.171,19.06
53.187,18.54
53.203,17.97
53.218,16.93
53.234,15.05
53.250,12.21
53.265,8.61
53.281,4.6
53.296,0.61
53.312,-3.11
53.328,-6.49
53.343,-9.66
53.359,-12.75
53.375,-15.96
53.390,-19.42
53.406,-23.29
53.421,-27.68
53.437,-32.54
53.453,-37.5
53.468,-41.77
53.484,-44.31
53.500,-44.11
53.515,-40.59
53.531,-33.85
53.546,-24.71
53.562,-14.48
53.578,-4.49
53.593,4.29
53.609,11.43
53.625,16.99
53.640,21.28
53.656,24.57
53.671,26.93
53.687,28.26
53.703,28.46
53.718,27.61
53.734,26.04
53.750,24.27
53.765,22.8
53.781,21.91
53.796,21.53
53.812,21.35
53.828,21.01
53.843,20.3
53.859,19.28
53.875,18.16
53.890,17.16
53.906,16.3
53.921,15.39
53.937,14.11
53.953,12.22
53.968,9.63
53.984,6.53
54.000,3.24
54.015,0.03
54.031,-2.96
54.046,-5.79
54.062,-8.6
54.078,-11.61
54.093,-14.94
54.109,-18.61
54.125,-22.65
54.140,-27.12
54.156,-32.02
54.171,-37.26
54.187,-42.49
54.203,-47.04
54.218,-50.01
54.234,-50.52
54.250,-48.04
54.265,-42.54
54.281,-34.57
54.296,-25.11
54.312,-15.22
54.328,-5.81
54.343,2.52
54.359,9.55
54.375,15.27
54.390,19.78
54.406,23.13
54.421,25.32
54.437,26.36
54.453,26.35
54.468,25.57
54.484,24.43
54.500,23.38
54.515,22.75
54.531,22.61
54.546,22.78
54.562,23.0
54.578,22.96
54.593,22.55
54.609,21.76
54.625,20.68
54.640,19.38
54.656,17.84
54.671,15.97
54.687,13.69
54.703,10.99
54.718,7.99
54.734,4.9
54.750,1.93
54.765,-0.77
54.781,-3.15
54.796,-5.33
54.812,-7.47
54.828,-9.79
54.843,-12.42
54.859,-15.46
54.875,-18.89
54.890,-22.68
54.906,-26.83
54.921,-31.3
54.937,-35.94
54.953,-40.4
54.968,-43.99
54.984,-45.88
55.000,-45.3
55.015,-41.81
55.031,-35.61
55.046,-27.46
55.062,-18.41
55.078,-9.46
55.093,-1.29
55.109,5.89
55.125,12.1
55.140,17.44
55.156,21.8
55.171,24.95
55.187,26.68
55.203,26.98
55.218,26.16
55.234,24.79
55.250,23.45
55.265,22.56
55.281,22.24
55.296,22.32
55.312,22.49
55.328,22.45
55.343,22.08
55.359,21.43
55.375,20.64
55.390,19.85
55.406,19.07
55.421,18.22
55.437,17.13
55.453,15.64
55.468,13.59
55.484,11.01
55.500,7.99
55.515,4.71
55.531,1.41
55.546,-1.74
55.562,-4.65
55.578,-7.34
55.593,-9.89
55.609,-12.44
55.625,-15.17
55.640,-18.31
55.656,-22.1
55.671,-26.62
55.687,-31.7
55.703,-36.78
55.718,-40.93
55.734,-43.14
55.750,-42.52
55.765,-38.78
55.781,-32.25
55.796,-23.84
55.812,-14.72
55.828,-5.9
55.843,1.98
55.859,8.78
55.875,14.61
55.890,19.68
55.906,24.06
55.921,27.63
55.937,30.17
55.953,31.54
55.968,31.81
55.984,31.32
56.000,30.5
56.015,29.77
56.031,29.32
56.046,29.16
56.062,29.17
56.078,29.23
56.093,29.33
56.109,29.48
56.125,29.71
56.140,30.0
56.156,30.2
56.171,30.16
56.187,29.81
56.203,29.2
56.218,28.46
56.234,27.78
56.250,27.25
56.265,26.87
56.281,26.53
56.296,26.09
56.312,25.42
56.328,24.46
56.343,23.27
56.359,21.95
56.375,20.62
56.390,19.34
56.406,18.12
56.421,16.9
56.437,15.59
56.453,14.21
56.468,12.9
56.484,11.85
56.500,11.29
56.515,11.31
56.531,11.82
56.546,12.54
56.562,13.2
56.578,13.65
56.593,13.95
56.609,14.37
56.625,15.2
56.640,16.57
56.656,18.34
56.671,20.18
56.687,21.72
56.703,22.79
56.718,23.51
56.734,24.23
56.750,25.33
56.765,27.02
56.781,29.28
56.796,31.83
56.812,34.34
56.828,36.55
56.843,38.51
56.859,40.43
56.875,42.73
56.890,45.82
56.906,49.99
56.921,55.35
56.937,61.77
56.953,68.91
56.968,76.24
56.984,83.27
57.000,89.66
57.015,95.46
57.031,101.09
57.046,107.2
57.062,114.37
57.078,122.71
57.093,131.57
57.109,139.29
57.125,143.5
57.140,141.45
57.156,130.73
57.171,110.14
57.187,80.26
57.203,43.79
57.218,5.19
57.234,-30.27
57.250,-57.82
57.265,-74.45
57.281,-79.44
57.296,-74.22
57.312,-61.48
57.328,-44.21
57.343,-24.95
57.359,-5.73
57.375,11.68
57.390,25.4
57.406,33.44
57.421,34.07
57.437,26.49
57.453,11.29
57.468,-9.52
57.484,-32.92
57.500,-55.61
57.515,-74.79
57.531,-88.73
57.546,-96.95
57.562,-100.09
57.578,-99.46
57.593,-96.57
57.609,-92.76
57.625,-88.94
57.640,-85.63
57.656,-83.1
57.671,-81.53
57.687,-81.07
57.703,-81.78
57.718,-83.5
57.734,-85.82
57.750,-88.16
57.765,-89.9
57.781,-90.67
57.796,-90.47
57.812,-89.7
57.828,-89.0
57.843,-89.07
57.859,-90.37
57.875,-92.97
57.890,-96.63
57.906,-100.83
57.921,-104.97
57.937,-108.57
57.953,-111.18
57.968,-112.41
57.984,-111.91
58.000,-109.31
58.015,-104.39
58.031,-97.11
58.046,-87.8
58.062,-77.05
58.078,-65.54
58.093,-53.85
58.109,-42.32
58.125,-31.11
58.140,-20.35
58.156,-10.23
58.171,-1.03
58.187,7.02
58.203,13.98
58.218,20.23
58.234,26.44
58.250,33.25
58.265,41.03
58.281,49.76
58.296,59.03
58.312,68.38
58.328,77.55
58.343,86.61
58.359,95.92
58.375,105.92
58.390,116.82
58.406,128.53
58.421,140.64
58.437,152.63
58.453,164.06
58.468,174.79
58.484,184.97
58.500,195.0
58.515,205.39
58.531,216.83
58.546,230.16
58.562,246.15
58.578,265.0
58.593,285.62
58.609,305.31
58.625,320.04
58.640,325.61
58.656,319.21
58.671,300.62
58.687,272.37
58.703,238.7
58.718,203.91
58.734,170.77
58.750,140.04
58.765,110.97
58.781,82.42
58.796,53.92
58.812,25.87
58.828,-0.77
58.843,-25.23
58.859,-47.55
58.875,-68.56
58.890,-89.54
58.906,-111.83
58.921,-136.52
58.937,-164.18
58.953,-194.79
58.968,-227.55
58.984,-260.62
59.000,-291.23
59.015,-316.03
59.031,-332.02
59.046,-337.67
59.062,-333.75
59.078,-323.42
59.093,-311.41
59.109,-302.53
59.125,-300.05
59.140,-304.79
59.156,-315.08
59.171,-327.58
59.187,-338.52
59.203,-344.88
59.218,-345.05
59.234,-338.9
59.250,-327.46
59.265,-312.38
59.281,-295.39
59.296,-278.14
59.312,-262.01
59.328,-247.97
59.343,-236.41
59.359,-226.99
59.375,-218.71
59.390,-210.22
59.406,-200.18
59.421,-187.8
59.437,-173.13
59.453,-157.08
59.468,-141.03
59.484,-126.33
59.500,-113.85
59.515,-103.73
59.531,-95.55
59.546,-88.82
59.562,-83.38
59.578,-79.66
59.593,-78.29
59.609,-79.51
59.625,-82.62
59.640,-85.85
59.656,-86.92
59.671,-84.04
59.687,-76.74
59.703,-66.24
59.718,-54.9
59.734,-45.28
59.750,-39.09
59.765,-36.77
59.781,-37.5
59.796,-39.81
59.812,-42.13
59.828,-43.2
59.843,-42.16
59.859,-38.49
59.875,-31.99
59.890,-22.88
59.906,-11.7
59.921,0.67
59.937,13.32
59.953,25.47
59.968,36.67
59.984,46.85
