timestamp,value
00.000,22.85
00.015,21.26
00.031,19.55
00.046,17.85
00.062,16.28
00.078,15.0
00.093,14.1
00.109,13.56
00.125,13.26
00.140,12.97
00.156,12.47
00.171,11.6
00.187,10.33
00.203,8.7
00.218,6.81
00.234,4.77
00.250,2.64
00.265,0.49
00.281,-1.65
00.296,-3.78
00.312,-5.89
00.328,-8.03
00.343,-10.24
00.359,-12.55
00.375,-14.95
00.390,-17.38
00.406,-19.7
00.421,-21.79
00.437,-23.64
00.453,-25.3
00.468,-26.97
00.484,-28.89
00.500,-31.22
00.515,-33.95
00.531,-36.83
00.546,-39.31
00.562,-40.71
00.578,-40.35
00.593,-37.77
00.609,-32.93
00.625,-26.22
00.640,-18.35
00.656,-10.11
00.671,-2.24
00.687,4.78
00.703,10.7
00.718,15.51
00.734,19.28
00.750,22.1
00.765,24.08
00.781,25.32
00.796,25.91
00.812,25.95
00.828,25.51
00.843,24.67
00.859,23.53
00.875,22.2
00.890,20.82
00.906,19.55
00.921,18.54
00.937,17.87
00.953,17.5
00.968,17.34
00.984,17.2
01.000,16.88
01.015,16.22
01.031,15.13
01.046,13.66
01.062,11.89
01.078,10.0
01.093,8.12
01.109,6.33
01.125,4.57
01.140,2.73
01.156,0.71
01.171,-1.5
01.187,-3.82
01.203,-6.11
01.218,-8.3
01.234,-10.34
01.250,-12.33
01.265,-14.32
01.281,-16.32
01.296,-18.26
01.312,-20.07
01.328,-21.66
01.343,-23.05
01.359,-24.36
01.375,-25.78
01.390,-27.49
01.406,-29.64
01.421,-32.17
01.437,-34.82
01.453,-37.06
01.468,-38.26
01.484,-37.8
01.500,-35.34
01.515,-30.85
01.531,-24.74
01.546,-17.58
01.562,-10.04
01.578,-2.69
01.593,4.08
01.609,10.04
01.625,15.08
01.640,19.12
01.656,22.14
01.671,24.14
01.687,25.13
01.703,25.22
01.718,24.61
01.734,23.53
01.750,22.19
01.765,20.75
01.781,19.34
01.796,18.03
01.812,16.91
01.828,16.07
01.843,15.58
01.859,15.41
01.875,15.43
01.890,15.45
01.906,15.22
01.921,14.6
01.937,13.52
01.953,12.06
01.968,10.34
01.984,8.53
02.000,6.75
02.015,5.05
02.031,3.39
02.046,1.7
02.062,-0.1
02.078,-2.01
02.093,-3.96
02.109,-5.86
02.125,-7.61
02.140,-9.2
02.156,-10.68
02.171,-12.11
02.187,-13.53
02.203,-14.89
02.218,-16.14
02.234,-17.24
02.250,-18.31
02.265,-19.5
02.281,-21.03
02.296,-23.01
02.312,-25.47
02.328,-28.25
02.343,-31.07
02.359,-33.57
02.375,-35.34
02.390,-35.98
02.406,-35.15
02.421,-32.64
02.437,-28.42
02.453,-22.66
02.468,-15.76
02.484,-8.27
02.500,-0.83
02.515,5.95
02.531,11.63
02.546,15.99
02.562,19.02
02.578,20.88
02.593,21.82
02.609,22.08
02.625,21.87
02.640,21.35
02.656,20.64
02.671,19.83
02.687,18.96
02.703,18.05
02.718,17.15
02.734,16.3
02.750,15.54
02.765,14.94
02.781,14.5
02.796,14.17
02.812,13.82
02.828,13.32
02.843,12.6
02.859,11.65
02.875,10.54
02.890,9.38
02.906,8.2
02.921,6.99
02.937,5.68
02.953,4.18
02.968,2.47
02.984,0.62
03.000,-1.26
03.015,-3.05
03.031,-4.66
03.046,-6.12
03.062,-7.5
03.078,-8.92
03.093,-10.46
03.109,-12.19
03.125,-14.06
03.140,-16.03
03.156,-17.98
03.171,-19.85
03.187,-21.57
03.203,-23.16
03.218,-24.72
03.234,-26.42
03.250,-28.44
03.265,-30.92
03.281,-33.8
03.296,-36.8
03.312,-39.44
03.328,-41.13
03.343,-41.29
03.359,-39.57
03.375,-35.92
03.390,-30.61
03.406,-24.17
03.421,-17.25
03.437,-10.48
03.453,-4.33
03.468,0.91
03.484,5.09
03.500,8.18
03.515,10.18
03.531,11.18
03.546,11.34
03.562,10.88
03.578,10.08
03.593,9.23
03.609,8.54
03.625,8.12
03.640,7.98
03.656,8.02
03.671,8.14
03.687,8.28
03.703,8.41
03.718,8.57
03.734,8.78
03.750,9.04
03.765,9.3
03.781,9.46
03.796,9.4
03.812,9.01
03.828,8.2
03.843,6.98
03.859,5.4
03.875,3.55
03.890,1.56
03.906,-0.42
03.921,-2.29
03.937,-3.99
03.953,-5.52
03.968,-6.93
03.984,-8.25
04.000,-9.54
04.015,-10.85
04.031,-12.21
04.046,-13.64
04.062,-15.13
04.078,-16.65
04.093,-18.2
04.109,-19.79
04.125,-21.48
04.140,-23.31
04.156,-25.17
04.171,-26.79
04.187,-27.7
04.203,-27.38
04.218,-25.41
04.234,-21.69
04.250,-16.45
04.265,-10.2
04.281,-3.64
04.296,2.62
04.312,8.13
04.328,12.7
04.343,16.31
04.359,19.0
04.375,20.83
04.390,21.82
04.406,21.98
04.421,21.36
04.437,20.16
04.453,18.65
04.468,17.14
04.484,15.85
04.500,14.87
04.515,14.19
04.531,13.71
04.546,13.37
04.562,13.16
04.578,13.1
04.593,13.14
04.609,13.19
04.625,13.06
04.640,12.52
04.656,11.42
04.671,9.72
04.687,7.5
04.703,4.95
04.718,2.28
04.734,-0.34
04.750,-2.82
04.765,-5.15
04.781,-7.37
04.796,-9.52
04.812,-11.65
04.828,-13.74
04.843,-15.79
04.859,-17.78
04.875,-19.78
04.890,-21.91
04.906,-24.28
04.921,-26.9
04.937,-29.6
04.953,-32.01
04.968,-33.61
04.984,-33.88
05.000,-32.42
05.015,-29.09
05.031,-24.06
05.046,-17.74
05.062,-10.66
05.078,-3.39
05.093,3.57
05.109,9.8
05.125,14.97
05.140,18.9
05.156,21.47
05.171,22.78
05.187,23.05
05.203,22.6
05.218,21.74
05.234,20.71
05.250,19.59
05.265,18.41
05.281,17.19
05.296,16.01
05.312,15.04
05.328,14.39
05.343,14.07
05.359,13.94
05.375,13.79
05.390,13.34
05.406,12.47
05.421,11.16
05.437,9.48
05.453,7.59
05.468,5.55
05.484,3.4
05.500,1.14
05.515,-1.17
05.531,-3.43
05.546,-5.53
05.562,-7.36
05.578,-8.91
05.593,-10.28
05.609,-11.58
05.625,-12.91
05.640,-14.34
05.656,-15.98
05.671,-17.94
05.687,-20.39
05.703,-23.39
05.718,-26.81
05.734,-30.18
05.750,-32.8
05.765,-33.85
05.781,-32.76
05.796,-29.29
05.812,-23.68
05.828,-16.44
05.843,-8.25
05.859,0.2
05.875,8.35
05.890,15.7
05.906,21.87
05.921,26.65
05.937,29.99
05.953,32.07
05.968,33.16
05.984,33.55
06.000,33.49
06.015,33.08
06.031,32.4
06.046,31.55
06.062,30.63
06.078,29.8
06.093,29.13
06.109,28.64
06.125,28.26
06.140,27.95
06.156,27.67
06.171,27.44
06.187,27.28
06.203,27.1
06.218,26.82
06.234,26.29
06.250,25.45
06.265,24.32
06.281,23.02
06.296,21.73
06.312,20.65
06.328,19.9
06.343,19.42
06.359,19.06
06.375,18.66
06.390,18.11
06.406,17.43
06.421,16.71
06.437,16.02
06.453,15.28
06.468,14.22
06.484,12.53
06.500,9.98
06.515,6.58
06.531,2.62
06.546,-1.45
06.562,-5.25
06.578,-8.43
06.593,-10.78
06.609,-12.12
06.625,-12.26
06.640,-11.15
06.656,-9.01
06.671,-6.28
06.687,-3.48
06.703,-0.96
06.718,1.18
06.734,2.99
06.750,4.44
06.765,5.3
06.781,5.13
06.796,3.7
06.812,1.13
06.828,-1.95
06.843,-4.78
06.859,-6.85
06.875,-8.11
06.890,-8.91
06.906,-9.68
06.921,-10.59
06.937,-11.5
06.953,-12.13
06.968,-12.37
06.984,-12.44
07.000,-12.68
07.015,-13.4
07.031,-14.69
07.046,-16.45
07.062,-18.56
07.078,-20.96
07.093,-23.75
07.109,-26.97
07.125,-30.58
07.140,-34.37
07.156,-38.07
07.171,-41.54
07.187,-44.81
07.203,-47.99
07.218,-51.27
07.234,-54.68
07.250,-58.15
07.265,-61.54
07.281,-64.64
07.296,-67.27
07.312,-69.29
07.328,-70.68
07.343,-71.54
07.359,-72.16
07.375,-72.85
07.390,-73.75
07.406,-74.69
07.421,-75.0
07.437,-73.66
07.453,-69.54
07.468,-61.78
07.484,-50.15
07.500,-35.12
07.515,-17.77
07.531,0.46
07.546,18.17
07.562,34.23
07.578,48.03
07.593,59.47
07.609,68.86
07.625,76.73
07.640,83.55
07.656,89.55
07.671,94.57
07.687,98.15
07.703,99.73
07.718,98.85
07.734,95.32
07.750,89.35
07.765,81.36
07.781,71.96
07.796,61.85
07.812,51.69
07.828,42.14
07.843,33.74
07.859,26.87
07.875,21.61
07.890,17.72
07.906,14.74
07.921,12.13
07.937,9.44
07.953,6.44
07.968,3.2
07.984,-0.07
08.000,-3.06
08.015,-5.57
08.031,-7.5
08.046,-8.96
08.062,-10.17
08.078,-11.4
08.093,-12.86
08.109,-14.63
08.125,-16.59
08.140,-18.5
08.156,-20.08
08.171,-21.14
08.187,-21.68
08.203,-21.9
08.218,-22.12
08.234,-22.71
08.250,-23.91
08.265,-25.74
08.281,-27.97
08.296,-30.21
08.312,-32.03
08.328,-33.06
08.343,-33.01
08.359,-31.71
08.375,-28.99
08.390,-24.65
08.406,-18.51
08.421,-10.49
08.437,-0.71
08.453,10.37
08.468,22.05
08.484,33.42
08.500,43.47
08.515,51.17
08.531,55.57
08.546,55.95
08.562,52.01
08.578,44.08
08.593,33.11
08.609,20.62
08.625,8.41
08.640,-1.81
08.656,-8.63
08.671,-11.16
08.687,-9.02
08.703,-2.44
08.718,7.78
08.734,20.26
08.750,33.24
08.765,44.89
08.781,53.81
08.796,59.39
08.812,62.0
08.828,62.96
08.843,64.13
08.859,67.45
08.875,74.29
08.890,84.99
08.906,98.55
08.921,112.75
08.937,124.68
08.953,131.69
08.968,132.37
08.984,127.2
09.000,118.55
09.015,109.8
09.031,104.15
09.046,103.4
09.062,107.59
09.078,115.3
09.093,124.62
09.109,134.13
09.125,143.38
09.140,152.92
09.156,163.62
09.171,176.02
09.187,189.71
09.203,203.33
09.218,214.87
09.234,222.22
09.250,223.89
09.265,219.36
09.281,209.21
09.296,194.77
09.312,177.69
09.328,159.42
09.343,141.11
09.359,123.6
09.375,107.73
09.390,94.29
09.406,83.71
09.421,75.69
09.437,68.87
09.453,61.11
09.468,50.16
09.484,34.63
09.500,14.49
09.515,-8.9
09.531,-33.4
09.546,-57.06
09.562,-78.86
09.578,-98.95
09.593,-118.54
09.609,-139.3
09.625,-163.02
09.640,-190.97
09.656,-223.27
09.671,-258.17
09.687,-291.82
09.703,-318.75
09.718,-333.47
09.734,-332.49
09.750,-315.95
09.765,-287.85
09.781,-254.65
09.796,-222.82
09.812,-196.68
09.828,-177.47
09.843,-163.99
09.859,-154.29
09.875,-147.02
09.890,-141.9
09.906,-139.13
09.921,-138.5
09.937,-138.8
09.953,-138.23
09.968,-135.35
09.984,-129.84
10.000,-122.7
10.015,-115.74
10.031,-110.59
10.046,-107.81
10.062,-106.63
10.078,-105.33
10.093,-102.04
10.109,-95.56
10.125,-85.75
10.140,-73.56
10.156,-60.57
10.171,-48.36
10.187,-38.05
10.203,-30.01
10.218,-23.88
10.234,-18.99
10.250,-14.73
10.265,-10.88
10.281,-7.78
10.296,-6.02
10.312,-6.14
10.328,-8.23
10.343,-11.78
10.359,-15.89
10.375,-19.56
10.390,-22.11
10.406,-23.36
10.421,-23.66
10.437,-23.6
10.453,-23.83
10.468,-24.75
10.484,-26.43
10.500,-28.64
10.515,-31.0
10.531,-33.13
10.546,-34.84
10.562,-36.12
10.578,-37.14
10.593,-38.19
10.609,-39.48
10.625,-41.13
10.640,-43.16
10.656,-45.55
10.671,-48.2
10.687,-51.07
10.703,-54.05
10.718,-56.93
10.734,-59.43
10.750,-61.31
10.765,-62.52
10.781,-63.25
10.796,-63.79
10.812,-64.41
10.828,-65.08
10.843,-65.36
10.859,-64.54
10.875,-61.88
10.890,-56.91
10.906,-49.61
10.921,-40.41
10.937,-30.02
10.953,-19.12
10.968,-8.24
10.984,2.28
11.000,12.32
11.015,21.72
11.031,30.3
11.046,37.76
11.062,43.83
11.078,48.38
11.093,51.52
11.109,53.53
11.125,54.8
11.140,55.64
11.156,56.12
11.171,56.16
11.187,55.66
11.203,54.68
11.218,53.34
11.234,51.8
11.250,50.05
11.265,47.89
11.281,45.0
11.296,41.1
11.312,36.04
11.328,29.81
11.343,22.42
11.359,13.92
11.375,4.38
11.390,-5.96
11.406,-16.66
11.421,-27.2
11.437,-37.13
11.453,-46.35
11.468,-55.11
11.484,-63.9
11.500,-73.02
11.515,-82.4
11.531,-91.36
11.546,-98.78
11.562,-103.35
11.578,-103.93
11.593,-99.95
11.609,-91.55
11.625,-79.62
11.640,-65.59
11.656,-51.01
11.671,-37.16
11.687,-24.83
11.703,-14.29
11.718,-5.53
11.734,1.51
11.750,6.79
11.765,10.15
11.781,11.58
11.796,11.27
11.812,9.69
11.828,7.56
11.843,5.66
11.859,4.78
11.875,5.44
11.890,7.96
11.906,12.28
11.921,17.99
11.937,24.39
11.953,30.53
11.968,35.38
11.984,38.06
12.000,37.94
12.015,34.75
12.031,28.53
12.046,19.67
12.062,8.73
12.078,-3.49
12.093,-16.09
12.109,-28.09
12.125,-38.47
12.140,-46.32
12.156,-51.08
12.171,-52.63
12.187,-51.4
12.203,-48.36
12.218,-44.72
12.234,-41.65
12.250,-39.89
12.265,-39.42
12.281,-39.54
12.296,-39.03
12.312,-36.67
12.328,-31.69
12.343,-24.1
12.359,-14.58
12.375,-4.25
12.390,5.86
12.406,15.11
12.421,23.38
12.437,30.82
12.453,37.66
12.468,43.96
12.484,49.58
12.500,54.34
12.515,58.11
12.531,60.94
12.546,63.04
12.562,64.61
12.578,65.85
12.593,66.77
12.609,67.29
12.625,67.25
12.640,66.55
12.656,65.27
12.671,63.67
12.687,62.11
12.703,60.89
12.718,60.04
12.734,59.22
12.750,57.88
12.765,55.4
12.781,51.37
12.796,45.79
12.812,38.98
12.828,31.47
12.843,23.85
12.859,16.56
12.875,9.91
12.890,4.14
12.906,-0.61
12.921,-4.23
12.937,-6.72
12.953,-8.28
12.968,-9.28
12.984,-10.26
13.000,-11.81
13.015,-14.49
13.031,-18.77
13.046,-24.96
13.062,-33.0
13.078,-42.37
13.093,-51.93
13.109,-59.98
13.125,-64.57
13.140,-64.02
13.156,-57.47
13.171,-45.2
13.187,-28.58
13.203,-9.59
13.218,9.73
13.234,27.81
13.250,43.85
13.265,57.68
13.281,69.55
13.296,79.91
13.312,89.19
13.328,97.7
13.343,105.65
13.359,113.06
13.375,119.8
13.390,125.64
13.406,130.42
13.421,134.06
13.437,136.67
13.453,138.4
13.468,139.38
13.484,139.55
13.500,138.71
13.515,136.66
13.531,133.31
13.546,128.76
13.562,123.19
13.578,116.75
13.593,109.31
13.609,100.44
13.625,89.58
13.640,76.27
13.656,60.58
13.671,43.13
13.687,25.02
13.703,7.49
13.718,-8.55
13.734,-22.79
13.750,-35.65
13.765,-47.98
13.781,-60.74
13.796,-74.6
13.812,-89.67
13.828,-105.43
13.843,-120.82
13.859,-134.42
13.875,-144.75
13.890,-150.67
13.906,-151.74
13.921,-148.43
13.937,-142.18
13.953,-134.94
13.968,-128.56
13.984,-124.07
14.000,-121.36
14.015,-119.13
14.031,-115.42
14.046,-108.4
14.062,-97.01
14.078,-81.36
14.093,-62.58
14.109,-42.36
14.125,-22.35
14.140,-3.74
14.156,12.91
14.171,27.54
14.187,40.23
14.203,51.03
14.218,59.82
14.234,66.38
14.250,70.69
14.265,72.99
14.281,73.83
14.296,73.95
14.312,74.04
14.328,74.49
14.343,75.46
14.359,76.86
14.375,78.49
14.390,80.04
14.406,81.07
14.421,81.01
14.437,79.35
14.453,75.82
14.468,70.7
14.484,64.85
14.500,59.39
14.515,55.36
14.531,53.22
14.546,52.7
14.562,53.0
14.578,53.15
14.593,52.48
14.609,50.81
14.625,48.46
14.640,45.97
14.656,43.81
14.671,42.1
14.687,40.34
14.703,37.41
14.718,31.69
14.734,21.49
14.750,5.57
14.765,-16.26
14.781,-42.87
14.796,-71.89
14.812,-100.3
14.828,-125.3
14.843,-145.0
14.859,-158.8
14.875,-167.24
14.890,-171.41
14.906,-172.27
14.921,-170.31
14.937,-165.51
14.953,-157.68
14.968,-146.92
14.984,-133.73
15.000,-118.98
15.015,-103.55
15.031,-88.0
15.046,-72.52
15.062,-57.07
15.078,-41.73
15.093,-26.86
15.109,-13.11
15.125,-1.15
15.140,8.59
15.156,16.18
15.171,22.15
15.187,27.27
15.203,32.22
15.218,37.33
15.234,42.47
15.250,47.18
15.265,50.84
15.281,53.0
15.296,53.46
15.312,52.33
15.328,49.98
15.343,46.9
15.359,43.6
15.375,40.54
15.390,38.05
15.406,36.23
15.421,35.0
15.437,34.18
15.453,33.51
15.468,32.88
15.484,32.24
15.500,31.57
15.515,30.72
15.531,29.37
15.546,27.11
15.562,23.64
15.578,18.99
15.593,13.6
15.609,8.19
15.625,3.42
15.640,-0.35
15.656,-3.19
15.671,-5.49
15.687,-7.74
15.703,-10.3
15.718,-13.27
15.734,-16.57
15.750,-19.88
15.765,-22.76
15.781,-24.62
15.796,-24.7
15.812,-22.23
15.828,-16.69
15.843,-8.0
15.859,3.32
15.875,16.24
15.890,29.51
15.906,42.02
15.921,53.0
15.937,62.19
15.953,69.66
15.968,75.67
15.984,80.53
16.000,84.4
16.015,87.34
16.031,89.29
16.046,90.21
16.062,90.11
16.078,89.13
16.093,87.48
16.109,85.38
16.125,83.02
16.140,80.44
16.156,77.63
16.171,74.6
16.187,71.4
16.203,68.12
16.218,64.73
16.234,61.06
16.250,56.8
16.265,51.6
16.281,45.28
16.296,38.01
16.312,30.21
16.328,22.48
16.343,15.36
16.359,9.09
16.375,3.59
16.390,-1.52
16.406,-6.75
16.421,-12.59
16.437,-19.3
16.453,-26.9
16.468,-35.09
16.484,-43.34
16.500,-51.09
16.515,-57.92
16.531,-63.74
16.546,-68.8
16.562,-73.61
16.578,-78.73
16.593,-84.57
16.609,-91.15
16.625,-98.02
16.640,-104.31
16.656,-108.83
16.671,-110.39
16.687,-108.13
16.703,-101.67
16.718,-91.31
16.734,-77.94
16.750,-62.78
16.765,-47.03
16.781,-31.75
16.796,-17.61
16.812,-5.05
16.828,5.67
16.843,14.36
16.859,20.99
16.875,25.7
16.890,28.88
16.906,31.13
16.921,33.0
16.937,34.95
16.953,37.03
16.968,39.01
16.984,40.43
17.000,40.91
17.015,40.32
17.031,38.92
17.046,37.21
17.062,35.75
17.078,34.91
17.093,34.71
17.109,34.76
17.125,34.49
17.140,33.31
17.156,30.93
17.171,27.46
17.187,23.38
17.203,19.33
17.218,15.87
17.234,13.18
17.250,11.05
17.265,9.0
17.281,6.53
17.296,3.34
17.312,-0.43
17.328,-4.36
17.343,-7.84
17.359,-10.35
17.375,-11.65
17.390,-11.84
17.406,-11.29
17.421,-10.57
17.437,-10.24
17.453,-10.7
17.468,-12.1
17.484,-14.23
17.500,-16.58
17.515,-18.43
17.531,-19.02
17.546,-17.81
17.562,-14.56
17.578,-9.42
17.593,-2.79
17.609,4.78
17.625,12.78
17.640,20.74
17.656,28.34
17.671,35.33
17.687,41.45
17.703,46.45
17.718,50.05
17.734,52.07
17.750,52.47
17.765,51.47
17.781,49.48
17.796,47.02
17.812,44.56
17.828,42.42
17.843,40.68
17.859,39.34
17.875,38.41
17.890,38.01
17.906,38.31
17.921,39.41
17.937,41.11
17.953,42.92
17.968,44.17
17.984,44.25
18.000,42.84
18.015,40.11
18.031,36.63
18.046,33.15
18.062,30.36
18.078,28.64
18.093,27.93
18.109,27.85
18.125,27.81
18.140,27.27
18.156,25.93
18.171,23.78
18.187,21.22
18.203,18.86
18.218,17.38
18.234,17.3
18.250,18.68
18.265,20.93
18.281,22.91
18.296,23.25
18.312,20.84
18.328,15.49
18.343,8.06
18.359,0.36
18.375,-5.51
18.390,-7.92
18.406,-6.22
18.421,-0.94
18.437,6.59
18.453,14.77
18.468,22.28
18.484,28.41
18.500,32.99
18.515,36.15
18.531,38.08
18.546,38.83
18.562,38.27
18.578,36.22
18.593,32.54
18.609,27.23
18.625,20.45
18.640,12.49
18.656,3.61
18.671,-5.97
18.687,-16.16
18.703,-26.93
18.718,-38.18
18.734,-49.7
18.750,-61.04
18.765,-71.61
18.781,-80.87
18.796,-88.41
18.812,-94.15
18.828,-98.35
18.843,-101.4
18.859,-103.72
18.875,-105.57
18.890,-107.0
18.906,-107.97
18.921,-108.46
18.937,-108.56
18.953,-108.38
18.968,-108.0
18.984,-107.35
19.000,-106.16
19.015,-104.18
19.031,-101.26
19.046,-97.57
19.062,-93.52
19.078,-89.75
19.093,-86.88
19.109,-85.41
19.125,-85.5
19.140,-86.93
19.156,-89.06
19.171,-90.94
19.187,-91.54
19.203,-90.04
19.218,-86.09
19.234,-79.88
19.250,-71.97
19.265,-62.95
19.281,-53.25
19.296,-42.98
19.312,-32.07
19.328,-20.55
19.343,-8.69
19.359,3.02
19.375,13.91
19.390,23.38
19.406,31.02
19.421,36.66
19.437,40.32
19.453,42.22
19.468,42.63
19.484,41.97
19.500,40.66
19.515,39.12
19.531,37.76
19.546,36.96
19.562,36.97
19.578,37.86
19.593,39.43
19.609,41.22
19.625,42.63
19.640,43.14
19.656,42.46
19.671,40.66
19.687,38.05
19.703,35.04
19.718,31.95
19.734,28.9
19.750,25.88
19.765,22.82
19.781,19.68
19.796,16.51
19.812,13.4
19.828,10.47
19.843,7.83
19.859,5.54
19.875,3.63
19.890,2.02
19.906,0.6
19.921,-0.88
19.937,-2.72
19.953,-5.15
19.968,-8.17
19.984,-11.41
20.000,-14.16
20.015,-15.48
20.031,-14.59
20.046,-11.16
20.062,-5.5
20.078,1.57
20.093,9.02
20.109,16.0
20.125,22.0
20.140,26.9
20.156,30.73
20.171,33.44
20.187,34.82
20.203,34.54
20.218,32.42
20.234,28.57
20.250,23.45
20.265,17.82
20.281,12.44
20.296,7.98
20.312,4.84
20.328,3.22
20.343,3.13
20.359,4.42
20.375,6.82
20.390,9.83
20.406,12.85
20.421,15.24
20.437,16.53
20.453,16.58
20.468,15.62
20.484,14.18
20.500,12.83
20.515,12.06
20.531,12.11
20.546,12.97
20.562,14.5
20.578,16.48
20.593,18.69
20.609,20.99
20.625,23.24
20.640,25.3
20.656,27.07
20.671,28.46
20.687,29.46
20.703,30.07
20.718,30.28
20.734,29.95
20.750,28.82
20.765,26.58
20.781,23.07
20.796,18.54
20.812,13.71
20.828,9.66
20.843,7.48
20.859,7.81
20.875,10.63
20.890,15.31
20.906,20.9
20.921,26.57
20.937,31.83
20.953,36.55
20.968,40.71
20.984,44.23
21.000,46.8
21.015,48.04
21.031,47.73
21.046,45.94
21.062,43.06
21.078,39.64
21.093,36.13
21.109,32.75
21.125,29.54
21.140,26.43
21.156,23.43
21.171,20.63
21.187,18.18
21.203,16.05
21.218,13.94
21.234,11.31
21.250,7.54
21.265,2.2
21.281,-4.78
21.296,-13.06
21.312,-22.01
21.328,-30.96
21.343,-39.34
21.359,-46.89
21.375,-53.62
21.390,-59.71
21.406,-65.36
21.421,-70.66
21.437,-75.46
21.453,-79.46
21.468,-82.29
21.484,-83.71
21.500,-83.77
21.515,-82.88
21.531,-81.66
21.546,-80.78
21.562,-80.63
21.578,-81.18
21.593,-81.89
21.609,-81.83
21.625,-79.96
21.640,-75.43
21.656,-67.88
21.671,-57.51
21.687,-45.06
21.703,-31.51
21.718,-17.84
21.734,-4.75
21.750,7.29
21.765,18.07
21.781,27.48
21.796,35.42
21.812,41.87
21.828,46.84
21.843,50.48
21.859,53.02
21.875,54.71
21.890,55.69
21.906,56.05
21.921,55.8
21.937,55.01
21.953,53.85
21.968,52.61
21.984,51.58
22.000,51.0
22.015,50.91
22.031,51.13
22.046,51.3
22.062,51.1
22.078,50.32
22.093,49.05
22.109,47.65
22.125,46.62
22.140,46.43
22.156,47.33
22.171,49.24
22.187,51.66
22.203,53.75
22.218,54.47
22.234,52.83
22.250,48.04
22.265,39.78
22.281,28.2
22.296,13.93
22.312,-2.15
22.328,-19.09
22.343,-36.1
22.359,-52.67
22.375,-68.6
22.390,-83.88
22.406,-98.43
22.421,-111.96
22.437,-123.79
22.453,-132.91
22.468,-138.21
22.484,-138.89
22.500,-134.73
22.515,-126.3
22.531,-114.77
22.546,-101.64
22.562,-88.24
22.578,-75.5
22.593,-63.76
22.609,-52.92
22.625,-42.66
22.640,-32.79
22.656,-23.36
22.671,-14.66
22.687,-7.0
22.703,-0.55
22.718,4.81
22.734,9.44
22.750,13.75
22.765,17.95
22.781,21.99
22.796,25.61
22.812,28.51
22.828,30.56
22.843,31.88
22.859,32.71
22.875,33.29
22.890,33.72
22.906,33.9
22.921,33.69
22.937,32.93
22.953,31.61
22.968,29.93
22.984,28.15
23.000,26.57
23.015,25.34
23.031,24.43
23.046,23.63
23.062,22.74
23.078,21.65
23.093,20.46
23.109,19.51
23.125,19.15
23.140,19.59
23.156,20.81
23.171,22.48
23.187,24.06
23.203,24.89
23.218,24.42
23.234,22.32
23.250,18.63
23.265,13.87
23.281,9.08
23.296,5.61
23.312,4.81
23.328,7.59
23.343,14.08
23.359,23.55
23.375,34.74
23.390,46.19
23.406,56.72
23.421,65.59
23.437,72.56
23.453,77.72
23.468,81.32
23.484,83.69
23.500,85.14
23.515,85.92
23.531,86.16
23.546,85.92
23.562,85.12
23.578,83.71
23.593,81.66
23.609,78.97
23.625,75.68
23.640,71.79
23.656,67.3
23.671,62.16
23.687,56.32
23.703,49.63
23.718,41.93
23.734,33.12
23.750,23.26
23.765,12.75
23.781,2.32
23.796,-7.08
23.812,-14.65
23.828,-19.98
23.843,-23.26
23.859,-25.27
23.875,-27.0
23.890,-29.38
23.906,-32.94
23.921,-37.73
23.937,-43.36
23.953,-49.27
23.968,-54.88
23.984,-59.73
24.000,-63.47
24.015,-65.88
24.031,-66.86
24.046,-66.48
24.062,-65.07
24.078,-63.07
24.093,-60.89
24.109,-58.53
24.125,-55.55
24.140,-51.1
24.156,-44.33
24.171,-34.85
24.187,-22.9
24.203,-9.43
24.218,4.29
24.234,16.99
24.250,27.76
24.265,36.13
24.281,41.9
24.296,45.03
24.312,45.4
24.328,42.86
24.343,37.33
24.359,28.91
24.375,18.03
24.390,5.52
24.406,-7.54
24.421,-19.95
24.437,-30.7
24.453,-39.17
24.468,-45.25
24.484,-49.25
24.500,-51.68
24.515,-53.05
24.531,-53.7
24.546,-53.81
24.562,-53.54
24.578,-53.06
24.593,-52.61
24.609,-52.36
24.625,-52.34
24.640,-52.35
24.656,-52.14
24.671,-51.58
24.687,-50.8
24.703,-50.12
24.718,-49.84
24.734,-49.99
24.750,-50.3
24.765,-50.36
24.781,-49.89
24.796,-48.99
24.812,-48.13
24.828,-47.95
24.843,-48.91
24.859,-50.99
24.875,-53.68
24.890,-56.12
24.906,-57.43
24.921,-56.89
24.937,-54.16
24.953,-49.21
24.968,-42.3
24.984,-33.97
25.000,-24.88
25.015,-15.8
25.031,-7.46
25.046,-0.35
25.062,5.31
25.078,9.56
25.093,12.62
25.109,14.75
25.125,16.17
25.140,17.06
25.156,17.62
25.171,18.1
25.187,18.78
25.203,19.87
25.218,21.4
25.234,23.29
25.250,25.39
25.265,27.62
25.281,29.99
25.296,32.57
25.312,35.37
25.328,38.26
25.343,40.99
25.359,43.27
25.375,44.91
25.390,45.84
25.406,46.13
25.421,45.96
25.437,45.53
25.453,45.08
25.468,44.85
25.484,45.02
25.500,45.69
25.515,46.8
25.531,48.26
25.546,49.88
25.562,51.54
25.578,53.18
25.593,54.71
25.609,55.98
25.625,56.69
25.640,56.48
25.656,54.92
25.671,51.78
25.687,47.08
25.703,41.14
25.718,34.53
25.734,27.94
25.750,22.01
25.765,17.31
25.781,14.19
25.796,12.78
25.812,12.94
25.828,14.23
25.843,16.09
25.859,17.92
25.875,19.3
25.890,20.01
25.906,20.02
25.921,19.34
25.937,17.94
25.953,15.85
25.968,13.17
25.984,10.23
26.000,7.55
26.015,5.63
26.031,4.76
26.046,4.83
26.062,5.49
26.078,6.32
26.093,7.1
26.109,7.89
26.125,8.86
26.140,10.13
26.156,11.56
26.171,12.72
26.187,13.18
26.203,12.64
26.218,11.19
26.234,9.27
26.250,7.45
26.265,6.2
26.281,5.7
26.296,5.74
26.312,5.94
26.328,5.89
26.343,5.27
26.359,3.89
26.375,1.63
26.390,-1.61
26.406,-5.86
26.421,-10.99
26.437,-16.74
26.453,-22.7
26.468,-28.53
26.484,-34.03
26.500,-39.18
26.515,-44.0
26.531,-48.42
26.546,-52.18
26.562,-54.94
26.578,-56.39
26.593,-56.4
26.609,-55.09
26.625,-52.7
26.640,-49.5
26.656,-45.66
26.671,-41.36
26.687,-36.78
26.703,-32.16
26.718,-27.82
26.734,-23.96
26.750,-20.62
26.765,-17.58
26.781,-14.47
26.796,-10.8
26.812,-6.2
26.828,-0.43
26.843,6.49
26.859,14.36
26.875,22.86
26.890,31.62
26.906,40.3
26.921,48.69
26.937,56.69
26.953,64.2
26.968,71.2
26.984,77.55
27.000,83.06
27.015,87.55
27.031,90.84
27.046,92.81
27.062,93.45
27.078,92.78
27.093,90.86
27.109,87.77
27.125,83.49
27.140,77.95
27.156,70.93
27.171,62.12
27.187,51.2
27.203,37.88
27.218,22.11
27.234,4.09
27.250,-15.76
27.265,-36.83
27.281,-58.45
27.296,-79.94
27.312,-100.53
27.328,-119.35
27.343,-135.32
27.359,-147.31
27.375,-154.31
27.390,-155.68
27.406,-151.47
27.421,-142.4
27.437,-129.66
27.453,-114.7
27.468,-98.81
27.484,-82.94
27.500,-67.69
27.515,-53.39
27.531,-40.2
27.546,-28.18
27.562,-17.33
27.578,-7.58
27.593,1.17
27.609,8.99
27.625,15.83
27.640,21.58
27.656,26.08
27.671,29.27
27.687,31.22
27.703,32.11
27.718,32.19
27.734,31.67
27.750,30.68
27.765,29.24
27.781,27.36
27.796,25.04
27.812,22.29
27.828,19.18
27.843,15.81
27.859,12.36
27.875,9.02
27.890,5.97
27.906,3.3
27.921,0.96
27.937,-1.2
27.953,-3.34
27.968,-5.56
27.984,-7.88
28.000,-10.19
28.015,-12.33
28.031,-14.23
28.046,-15.83
28.062,-17.13
28.078,-18.07
28.093,-18.6
28.109,-18.69
28.125,-18.42
28.140,-18.04
28.156,-17.9
28.171,-18.41
28.187,-19.84
28.203,-22.35
28.218,-25.97
28.234,-30.64
28.250,-36.16
28.265,-42.19
28.281,-48.18
28.296,-53.41
28.312,-57.16
28.328,-58.88
28.343,-58.38
28.359,-55.87
28.375,-51.79
28.390,-46.65
28.406,-40.86
28.421,-34.65
28.437,-28.14
28.453,-21.43
28.468,-14.7
28.484,-8.21
28.500,-2.29
28.515,2.83
28.531,6.99
28.546,10.07
28.562,12.02
28.578,12.85
28.593,12.71
28.609,11.86
28.625,10.62
28.640,9.33
28.656,8.2
28.671,7.26
28.687,6.41
28.703,5.5
28.718,4.38
28.734,3.0
28.750,1.34
28.765,-0.61
28.781,-2.88
28.796,-5.41
28.812,-8.02
28.828,-10.43
28.843,-12.33
28.859,-13.53
28.875,-14.06
28.890,-14.12
28.906,-14.03
28.921,-14.07
28.937,-14.39
28.953,-14.98
28.968,-15.73
28.984,-16.55
29.000,-17.35
29.015,-18.12
29.031,-18.85
29.046,-19.53
29.062,-20.13
29.078,-20.67
29.093,-21.22
29.109,-21.92
29.125,-22.95
29.140,-24.48
29.156,-26.52
29.171,-28.93
29.187,-31.3
29.203,-33.07
29.218,-33.59
29.234,-32.25
29.250,-28.65
29.265,-22.72
29.281,-14.78
29.296,-5.42
29.312,4.56
29.328,14.44
29.343,23.67
29.359,31.96
29.375,39.27
29.390,45.72
29.406,51.43
29.421,56.44
29.437,60.74
29.453,64.29
29.468,67.13
29.484,69.38
29.500,71.33
29.515,73.25
29.531,75.35
29.546,77.66
29.562,80.06
29.578,82.32
29.593,84.25
29.609,85.73
29.625,86.75
29.640,87.39
29.656,87.72
29.671,87.77
29.687,87.58
29.703,87.17
29.718,86.6
29.734,85.92
29.750,85.14
29.765,84.17
29.781,82.88
29.796,81.09
29.812,78.7
29.828,75.68
29.843,72.13
29.859,68.16
29.875,63.81
29.890,59.05
29.906,53.73
29.921,47.67
29.937,40.76
29.953,32.99
29.968,24.47
29.984,15.44
30.000,6.13
30.015,-3.24
30.031,-12.6
30.046,-22.05
30.062,-31.84
30.078,-42.21
30.093,-53.24
30.109,-64.69
30.125,-75.92
30.140,-85.99
30.156,-93.94
30.171,-99.05
30.187,-101.01
30.203,-99.97
30.218,-96.39
30.234,-90.89
30.250,-84.03
30.265,-76.25
30.281,-67.86
30.296,-59.09
30.312,-50.13
30.328,-41.13
30.343,-32.24
30.359,-23.64
30.375,-15.51
30.390,-8.09
30.406,-1.6
30.421,3.87
30.437,8.38
30.453,12.21
30.468,15.73
30.484,19.31
30.500,23.19
30.515,27.39
30.531,31.76
30.546,35.97
30.562,39.69
30.578,42.58
30.593,44.37
30.609,44.93
30.625,44.28
30.640,42.56
30.656,40.02
30.671,36.91
30.687,33.39
30.703,29.54
30.718,25.4
30.734,21.0
30.750,16.33
30.765,11.29
30.781,5.63
30.796,-1.07
30.812,-9.2
30.828,-18.9
30.843,-29.89
30.859,-41.37
30.875,-52.31
30.890,-61.67
30.906,-68.9
30.921,-73.91
30.937,-77.09
30.953,-79.03
30.968,-80.15
30.984,-80.6
31.000,-80.21
31.015,-78.65
31.031,-75.58
31.046,-70.78
31.062,-64.1
31.078,-55.48
31.093,-44.9
31.109,-32.43
31.125,-18.29
31.140,-2.88
31.156,13.18
31.171,29.15
31.187,44.17
31.203,57.41
31.218,68.17
31.234,75.91
31.250,80.44
31.265,81.96
31.281,80.97
31.296,78.18
31.312,74.37
31.328,70.33
31.343,66.9
31.359,65.04
31.375,65.71
31.390,69.54
31.406,76.45
31.421,85.4
31.437,94.69
31.453,102.46
31.468,107.44
31.484,109.36
31.500,108.85
31.515,106.88
31.531,104.23
31.546,101.26
31.562,98.02
31.578,94.65
31.593,91.55
31.609,89.1
31.625,87.23
31.640,84.83
31.656,79.93
31.671,70.3
31.687,54.34
31.703,31.82
31.718,4.12
31.734,-26.24
31.750,-56.41
31.765,-84.01
31.781,-107.58
31.796,-126.38
31.812,-140.19
31.828,-149.0
31.843,-153.17
31.859,-153.51
31.875,-151.39
31.890,-148.34
31.906,-145.44
31.921,-142.83
31.937,-139.66
31.953,-134.77
31.968,-127.4
31.984,-117.86
32.000,-107.3
32.015,-97.16
32.031,-88.34
32.046,-80.81
32.062,-73.78
32.078,-66.31
32.093,-57.83
32.109,-48.37
32.125,-38.25
32.140,-27.89
32.156,-17.56
32.171,-7.44
32.187,2.27
32.203,11.43
32.218,20.02
32.234,28.34
32.250,36.95
32.265,46.54
32.281,57.57
32.296,70.0
32.312,83.24
32.328,96.17
32.343,107.5
32.359,116.03
32.375,120.98
32.390,122.17
32.406,120.22
32.421,116.37
32.437,112.23
32.453,109.16
32.468,107.55
32.484,106.5
32.500,103.94
32.515,97.47
32.531,85.33
32.546,67.24
32.562,44.46
32.578,19.21
32.593,-6.31
32.609,-30.8
32.625,-53.98
32.640,-76.19
32.656,-97.71
32.671,-118.1
32.687,-136.22
32.703,-150.63
32.718,-160.2
32.734,-164.61
32.750,-164.4
32.765,-160.73
32.781,-154.88
32.796,-147.82
32.812,-140.06
32.828,-131.78
32.843,-123.0
32.859,-113.86
32.875,-104.67
32.890,-95.91
32.906,-87.94
32.921,-80.94
32.937,-74.8
32.953,-69.22
32.968,-63.84
32.984,-58.38
33.000,-52.75
33.015,-47.01
33.031,-41.38
33.046,-36.1
33.062,-31.38
33.078,-27.32
33.093,-23.9
33.109,-21.07
33.125,-18.79
33.140,-17.12
33.156,-16.18
33.171,-16.09
33.187,-16.8
33.203,-18.1
33.218,-19.63
33.234,-21.06
33.250,-22.15
33.265,-22.9
33.281,-23.47
33.296,-24.11
33.312,-24.97
33.328,-26.12
33.343,-27.52
33.359,-29.1
33.375,-30.82
33.390,-32.68
33.406,-34.65
33.421,-36.55
33.437,-38.06
33.453,-38.73
33.468,-38.05
33.484,-35.68
33.500,-31.49
33.515,-25.63
33.531,-18.51
33.546,-10.65
33.562,-2.63
33.578,5.05
33.593,12.04
33.609,18.16
33.625,23.37
33.640,27.72
33.656,31.28
33.671,34.02
33.687,35.88
33.703,36.82
33.718,36.93
33.734,36.42
33.750,35.63
33.765,34.87
33.781,34.32
33.796,33.97
33.812,33.71
33.828,33.4
33.843,33.02
33.859,32.59
33.875,32.15
33.890,31.63
33.906,30.88
33.921,29.71
33.937,27.93
33.953,25.54
33.968,22.61
33.984,19.31
34.000,15.81
34.015,12.26
34.031,8.78
34.046,5.4
34.062,2.14
34.078,-1.02
34.093,-4.19
34.109,-7.52
34.125,-11.16
34.140,-15.14
34.156,-19.34
34.171,-23.38
34.187,-26.69
34.203,-28.63
34.218,-28.69
34.234,-26.61
34.250,-22.53
34.265,-16.89
34.281,-10.27
34.296,-3.27
34.312,3.63
34.328,10.09
34.343,15.86
34.359,20.82
34.375,24.91
34.390,28.11
34.406,30.48
34.421,32.07
34.437,32.92
34.453,33.11
34.468,32.72
34.484,31.92
34.500,30.93
34.515,29.95
34.531,29.09
34.546,28.36
34.562,27.67
34.578,26.93
34.593,26.14
34.609,25.34
34.625,24.56
34.640,23.8
34.656,22.91
34.671,21.72
34.687,20.06
34.703,17.92
34.718,15.44
34.734,12.94
34.750,10.69
34.765,8.91
34.781,7.55
34.796,6.41
34.812,5.2
34.828,3.65
34.843,1.73
34.859,-0.43
34.875,-2.57
34.890,-4.48
34.906,-6.17
34.921,-7.82
34.937,-9.78
34.953,-12.3
34.968,-15.35
34.984,-18.59
35.000,-21.38
35.015,-22.99
35.031,-22.83
35.046,-20.63
35.062,-16.48
35.078,-10.82
35.093,-4.21
35.109,2.73
35.125,9.5
35.140,15.73
35.156,21.2
35.171,25.8
35.187,29.42
35.203,31.98
35.218,33.33
35.234,33.35
35.250,31.97
35.265,29.27
35.281,25.52
35.296,21.17
35.312,16.78
35.328,12.9
35.343,9.91
35.359,8.02
35.375,7.2
35.390,7.25
35.406,7.93
35.421,9.05
35.437,10.44
35.453,12.01
35.468,13.6
35.484,15.04
35.500,16.08
35.515,16.54
35.531,16.38
35.546,15.71
35.562,14.78
35.578,13.87
35.593,13.15
35.609,12.61
35.625,12.14
35.640,11.5
35.656,10.51
35.671,9.03
35.687,7.07
35.703,4.69
35.718,2.02
35.734,-0.79
35.750,-3.65
35.765,-6.51
35.781,-9.41
35.796,-12.38
35.812,-15.5
35.828,-18.8
35.843,-22.33
35.859,-26.05
35.875,-29.73
35.890,-32.97
35.906,-35.15
35.921,-35.68
35.937,-34.14
35.953,-30.52
35.968,-25.24
35.984,-18.98
36.000,-12.48
36.015,-6.27
36.031,-0.62
36.046,4.45
36.062,9.02
36.078,13.16
36.093,16.86
36.109,20.11
36.125,22.88
36.140,25.15
36.156,27.01
36.171,28.5
36.187,29.7
36.203,30.66
36.218,31.39
36.234,31.85
36.250,32.08
36.265,32.17
36.281,32.27
36.296,32.49
36.312,32.84
36.328,33.19
36.343,33.3
36.359,32.97
36.375,32.09
36.390,30.76
36.406,29.19
36.421,27.6
36.437,26.16
36.453,24.95
36.468,23.92
36.484,22.99
36.500,22.04
36.515,20.93
36.531,19.59
36.546,18.01
36.562,16.29
36.578,14.58
36.593,13.05
36.609,11.79
36.625,10.81
36.640,10.01
36.656,9.25
36.671,8.44
36.687,7.56
36.703,6.65
36.718,5.77
36.734,4.93
36.750,4.13
36.765,3.31
36.781,2.42
36.796,1.44
36.812,0.34
36.828,-0.9
36.843,-2.26
36.859,-3.62
36.875,-4.7
36.890,-5.05
36.906,-4.14
36.921,-1.53
36.937,2.94
36.953,9.12
36.968,16.57
36.984,24.69
37.000,32.94
37.015,40.9
37.031,48.37
37.046,55.29
37.062,61.73
37.078,67.85
37.093,73.83
37.109,79.82
37.125,85.93
37.140,92.24
37.156,98.74
37.171,105.45
37.187,112.32
37.203,119.34
37.218,126.59
37.234,134.21
37.250,142.42
37.265,151.37
37.281,161.18
37.296,171.83
37.312,183.23
37.328,195.27
37.343,207.78
37.359,220.51
37.375,232.86
37.390,243.89
37.406,252.3
37.421,256.86
37.437,256.81
37.453,252.28
37.468,244.22
37.484,234.07
37.500,222.97
37.515,211.18
37.531,197.88
37.546,181.5
37.562,160.52
37.578,134.18
37.593,103.01
37.609,68.69
37.625,33.33
37.640,-1.17
37.656,-33.83
37.671,-64.58
37.687,-94.06
37.703,-123.17
37.718,-152.82
37.734,-183.97
37.750,-217.5
37.765,-253.89
37.781,-292.46
37.796,-330.82
37.812,-364.87
37.828,-389.73
37.843,-401.45
37.859,-398.44
37.875,-382.19
37.890,-356.52
37.906,-326.1
37.921,-294.79
37.937,-264.81
37.953,-236.81
37.968,-210.73
37.984,-186.57
38.000,-164.68
38.015,-145.53
38.031,-129.16
38.046,-114.99
38.062,-101.97
38.078,-89.12
38.093,-76.01
38.109,-62.89
38.125,-50.65
38.140,-40.32
38.156,-32.68
38.171,-27.95
38.187,-25.72
38.203,-25.1
38.218,-25.05
38.234,-24.67
38.250,-23.46
38.265,-21.36
38.281,-18.72
38.296,-16.0
38.312,-13.64
38.328,-11.77
38.343,-10.26
38.359,-8.86
38.375,-7.39
38.390,-5.9
38.406,-4.66
38.421,-4.01
38.437,-4.14
38.453,-4.97
38.468,-6.22
38.484,-7.63
38.500,-9.04
38.515,-10.57
38.531,-12.49
38.546,-15.07
38.562,-18.42
38.578,-22.42
38.593,-26.74
38.609,-30.94
38.625,-34.51
38.640,-36.92
38.656,-37.73
38.671,-36.68
38.687,-33.77
38.703,-29.29
38.718,-23.72
38.734,-17.55
38.750,-11.17
38.765,-4.79
38.781,1.51
38.796,7.64
38.812,13.49
38.828,18.88
38.843,23.59
38.859,27.46
38.875,30.33
38.890,32.11
38.906,32.83
38.921,32.65
38.937,31.93
38.953,31.11
38.968,30.61
38.984,30.65
39.000,31.18
39.015,31.93
39.031,32.52
39.046,32.64
39.062,32.11
39.078,30.95
39.093,29.27
39.109,27.27
39.125,25.14
39.140,23.06
39.156,21.09
39.171,19.16
39.187,17.05
39.203,14.51
39.218,11.38
39.234,7.73
39.250,3.86
39.265,0.16
39.281,-3.07
39.296,-5.76
39.312,-8.08
39.328,-10.35
39.343,-12.82
39.359,-15.61
39.375,-18.64
39.390,-21.72
39.406,-24.56
39.421,-26.84
39.437,-28.2
39.453,-28.28
39.468,-26.79
39.484,-23.65
39.500,-19.05
39.515,-13.47
39.531,-7.59
39.546,-2.04
39.562,2.69
39.578,6.42
39.593,9.2
39.609,11.24
39.625,12.8
39.640,14.05
39.656,15.02
39.671,15.68
39.687,15.94
39.703,15.75
39.718,15.17
39.734,14.36
39.750,13.51
39.765,12.79
39.781,12.31
39.796,12.05
39.812,11.99
39.828,12.04
39.843,12.11
39.859,12.09
39.875,11.86
39.890,11.32
39.906,10.43
39.921,9.16
39.937,7.52
39.953,5.53
39.968,3.26
39.984,0.79
40.000,-1.78
40.015,-4.33
40.031,-6.78
40.046,-9.04
40.062,-11.12
40.078,-13.13
40.093,-15.23
40.109,-17.64
40.125,-20.54
40.140,-23.94
40.156,-27.59
40.171,-30.97
40.187,-33.41
40.203,-34.21
40.218,-32.95
40.234,-29.54
40.250,-24.26
40.265,-17.66
40.281,-10.33
40.296,-2.9
40.312,4.13
40.328,10.38
40.343,15.54
40.359,19.44
40.375,22.03
40.390,23.43
40.406,23.86
40.421,23.64
40.437,23.07
40.453,22.42
40.468,21.86
40.484,21.45
40.500,21.14
40.515,20.87
40.531,20.56
40.546,20.2
40.562,19.85
40.578,19.55
40.593,19.29
40.609,18.97
40.625,18.42
40.640,17.48
40.656,16.07
40.671,14.21
40.687,11.94
40.703,9.34
40.718,6.43
40.734,3.23
40.750,-0.26
40.765,-3.92
40.781,-7.62
40.796,-11.22
40.812,-14.65
40.828,-17.91
40.843,-21.1
40.859,-24.34
40.875,-27.72
40.890,-31.26
40.906,-34.88
40.921,-38.31
40.937,-41.15
40.953,-42.83
40.968,-42.78
40.984,-40.58
41.000,-36.09
41.015,-29.57
41.031,-21.62
41.046,-12.98
41.062,-4.35
41.078,3.74
41.093,10.98
41.109,17.2
41.125,22.32
41.140,26.21
41.156,28.81
41.171,30.12
41.187,30.3
41.203,29.67
41.218,28.59
41.234,27.4
41.250,26.35
41.265,25.5
41.281,24.86
41.296,24.34
41.312,23.93
41.328,23.61
41.343,23.41
41.359,23.31
41.375,23.23
41.390,23.03
41.406,22.49
41.421,21.44
41.437,19.8
41.453,17.61
41.468,15.02
41.484,12.18
41.500,9.2
41.515,6.08
41.531,2.8
41.546,-0.65
41.562,-4.22
41.578,-7.78
41.593,-11.16
41.609,-14.22
41.625,-16.94
41.640,-19.39
41.656,-21.83
41.671,-24.53
41.687,-27.74
41.703,-31.58
41.718,-35.95
41.734,-40.49
41.750,-44.65
41.765,-47.71
41.781,-48.98
41.796,-47.9
41.812,-44.17
41.828,-37.87
41.843,-29.42
41.859,-19.57
41.875,-9.21
41.890,0.81
41.906,9.83
41.921,17.5
41.937,23.73
41.953,28.62
41.968,32.32
41.984,34.97
42.000,36.67
42.015,37.52
42.031,37.64
42.046,37.2
42.062,36.38
42.078,35.37
42.093,34.25
42.109,33.08
42.125,31.86
42.140,30.63
42.156,29.45
42.171,28.4
42.187,27.57
42.203,26.96
42.218,26.52
42.234,26.05
42.250,25.3
42.265,24.04
42.281,22.1
42.296,19.47
42.312,16.28
42.328,12.74
42.343,9.09
42.359,5.55
42.375,2.23
42.390,-0.82
42.406,-3.64
42.421,-6.33
42.437,-9.01
42.453,-11.74
42.468,-14.56
42.484,-17.49
42.500,-20.48
42.515,-23.52
42.531,-26.63
42.546,-29.91
42.562,-33.47
42.578,-37.41
42.593,-41.71
42.609,-46.1
42.625,-49.99
42.640,-52.58
42.656,-53.02
42.671,-50.6
42.687,-45.06
42.703,-36.71
42.718,-26.33
42.734,-15.01
42.750,-3.8
42.765,6.48
42.781,15.34
42.796,22.63
42.812,28.4
42.828,32.79
42.843,35.97
42.859,38.08
42.875,39.25
42.890,39.63
42.906,39.37
42.921,38.57
42.937,37.33
42.953,35.74
42.968,33.87
42.984,31.85
43.000,29.86
43.015,28.09
43.031,26.74
43.046,25.89
43.062,25.49
43.078,25.29
43.093,24.98
43.109,24.18
43.125,22.59
43.140,20.08
43.156,16.76
43.171,12.93
43.187,9.0
43.203,5.35
43.218,2.17
43.234,-0.52
43.250,-2.98
43.265,-5.49
43.281,-8.31
43.296,-11.49
43.312,-14.89
43.328,-18.25
43.343,-21.28
43.359,-23.86
43.375,-26.07
43.390,-28.16
43.406,-30.5
43.421,-33.33
43.437,-36.75
43.453,-40.54
43.468,-44.22
43.484,-47.1
43.500,-48.43
43.515,-47.55
43.531,-44.03
43.546,-37.81
43.562,-29.2
43.578,-18.91
43.593,-7.86
43.609,2.98
43.625,12.77
43.640,20.94
43.656,27.27
43.671,31.84
43.687,34.87
43.703,36.62
43.718,37.29
43.734,37.03
43.750,36.0
43.765,34.4
43.781,32.54
43.796,30.66
43.812,28.95
43.828,27.43
43.843,26.04
43.859,24.74
43.875,23.62
43.890,22.8
43.906,22.44
43.921,22.46
43.937,22.61
43.953,22.43
43.968,21.49
43.984,19.55
44.000,16.68
44.015,13.17
44.031,9.39
44.046,5.65
44.062,2.19
44.078,-0.96
44.093,-3.78
44.109,-6.34
44.125,-8.73
44.140,-11.06
44.156,-13.45
44.171,-15.97
44.187,-18.62
44.203,-21.34
44.218,-24.04
44.234,-26.66
44.250,-29.26
44.265,-32.0
44.281,-35.08
44.296,-38.59
44.312,-42.38
44.328,-45.97
44.343,-48.63
44.359,-49.52
44.375,-47.93
44.390,-43.51
44.406,-36.36
44.421,-27.04
44.437,-16.43
44.453,-5.51
44.468,4.83
44.484,13.86
44.500,21.16
44.515,26.56
44.531,30.13
44.546,32.1
44.562,32.8
44.578,32.59
44.593,31.79
44.609,30.63
44.625,29.26
44.640,27.76
44.656,26.21
44.671,24.67
44.687,23.23
44.703,22.0
44.718,21.05
44.734,20.39
44.750,19.98
44.765,19.75
44.781,19.54
44.796,19.24
44.812,18.67
44.828,17.67
44.843,16.09
44.859,13.88
44.875,11.14
44.890,8.13
44.906,5.15
44.921,2.49
44.937,0.21
44.953,-1.82
44.968,-3.9
44.984,-6.28
45.000,-9.07
45.015,-12.15
45.031,-15.22
45.046,-17.97
45.062,-20.2
45.078,-21.98
45.093,-23.62
45.109,-25.52
45.125,-28.05
45.140,-31.37
45.156,-35.38
45.171,-39.7
45.187,-43.74
45.203,-46.75
45.218,-48.02
45.234,-46.95
45.250,-43.24
45.265,-36.96
45.281,-28.59
45.296,-18.94
45.312,-8.92
45.328,0.63
45.343,9.11
45.359,16.22
45.375,21.88
45.390,26.11
45.406,28.93
45.421,30.37
45.437,30.54
45.453,29.7
45.468,28.24
45.484,26.59
45.500,25.12
45.515,24.0
45.531,23.17
45.546,22.51
45.562,21.93
45.578,21.45
45.593,21.13
45.609,21.06
45.625,21.17
45.640,21.23
45.656,20.95
45.671,20.0
45.687,18.27
45.703,15.8
45.718,12.79
45.734,9.52
45.750,6.26
45.765,3.2
45.781,0.4
45.796,-2.18
45.812,-4.68
45.828,-7.2
45.843,-9.83
45.859,-12.55
45.875,-15.22
45.890,-17.72
45.906,-19.98
45.921,-22.03
45.937,-23.97
45.953,-25.97
45.968,-28.17
45.984,-30.68
46.000,-33.52
46.015,-36.62
46.031,-39.69
46.046,-42.21
46.062,-43.47
46.078,-42.71
46.093,-39.4
46.109,-33.45
46.125,-25.29
46.140,-15.78
46.156,-5.85
46.171,3.66
46.187,12.22
46.203,19.53
46.218,25.45
46.234,29.87
46.250,32.69
46.265,33.93
46.281,33.76
46.296,32.54
46.312,30.71
46.328,28.65
46.343,26.59
46.359,24.62
46.375,22.7
46.390,20.77
46.406,18.86
46.421,17.04
46.437,15.44
46.453,14.11
46.468,13.02
46.484,12.01
46.500,10.85
46.515,9.33
46.531,7.35
46.546,4.98
46.562,2.39
46.578,-0.22
46.593,-2.68
46.609,-4.96
46.625,-7.12
46.640,-9.29
46.656,-11.62
46.671,-14.16
46.687,-16.9
46.703,-19.68
46.718,-22.39
46.734,-24.9
46.750,-27.23
46.765,-29.53
46.781,-32.06
46.796,-35.13
46.812,-38.89
46.828,-43.24
46.843,-47.71
46.859,-51.54
46.875,-53.86
46.890,-53.95
46.906,-51.43
46.921,-46.36
46.937,-39.23
46.953,-30.75
46.968,-21.67
46.984,-12.62
47.000,-4.09
47.015,3.56
47.031,10.06
47.046,15.22
47.062,18.98
47.078,21.41
47.093,22.7
47.109,23.11
47.125,22.88
47.140,22.27
47.156,21.46
47.171,20.67
47.187,20.08
47.203,19.86
47.218,20.04
47.234,20.58
47.250,21.33
47.265,22.06
47.281,22.6
47.296,22.78
47.312,22.51
47.328,21.77
47.343,20.62
47.359,19.13
47.375,17.44
47.390,15.73
47.406,14.1
47.421,12.63
47.437,11.23
47.453,9.74
47.468,7.96
47.484,5.76
47.500,3.12
47.515,0.21
47.531,-2.74
47.546,-5.54
47.562,-8.21
47.578,-10.87
47.593,-13.78
47.609,-17.01
47.625,-20.36
47.640,-23.25
47.656,-24.93
47.671,-24.67
47.687,-22.07
47.703,-17.2
47.718,-10.58
47.734,-3.03
47.750,4.57
47.765,11.49
47.781,17.25
47.796,21.55
47.812,24.28
47.828,25.39
47.843,24.93
47.859,23.05
47.875,19.99
47.890,16.13
47.906,11.86
47.921,7.6
47.937,3.68
47.953,0.36
47.968,-2.19
47.984,-3.86
48.000,-4.61
48.015,-4.49
48.031,-3.65
48.046,-2.35
48.062,-0.87
48.078,0.47
48.093,1.37
48.109,1.65
48.125,1.2
48.140,0.01
48.156,-1.84
48.171,-4.2
48.187,-6.87
48.203,-9.63
48.218,-12.28
48.234,-14.69
48.250,-16.83
48.265,-18.82
48.281,-20.84
48.296,-23.13
48.312,-25.89
48.328,-29.17
48.343,-32.84
48.359,-36.56
48.375,-39.79
48.390,-41.88
48.406,-42.2
48.421,-40.25
48.437,-35.85
48.453,-29.17
48.468,-20.73
48.484,-11.31
48.500,-1.76
48.515,7.12
48.531,14.73
48.546,20.69
48.562,24.85
48.578,27.28
48.593,28.17
48.609,27.85
48.625,26.71
48.640,25.13
48.656,23.46
48.671,21.96
48.687,20.81
48.703,20.05
48.718,19.66
48.734,19.53
48.750,19.52
48.765,19.48
48.781,19.3
48.796,18.91
48.812,18.27
48.828,17.37
48.843,16.16
48.859,14.55
48.875,12.46
48.890,9.8
48.906,6.63
48.921,3.07
48.937,-0.63
48.953,-4.27
48.968,-7.66
48.984,-10.76
49.000,-13.61
49.015,-16.33
49.031,-19.12
49.046,-22.18
49.062,-25.63
49.078,-29.46
49.093,-33.44
49.109,-37.11
49.125,-39.8
49.140,-40.83
49.156,-39.59
49.171,-35.75
49.187,-29.33
49.203,-20.77
49.218,-10.85
49.234,-0.53
49.250,9.23
49.265,17.7
49.281,24.48
49.296,29.51
49.312,32.98
49.328,35.17
49.343,36.31
49.359,36.51
49.375,35.88
49.390,34.56
49.406,32.75
49.421,30.75
49.437,28.81
49.453,27.08
49.468,25.57
49.484,24.2
49.500,22.88
49.515,21.59
49.531,20.36
49.546,19.16
49.562,17.89
49.578,16.34
49.593,14.3
49.609,11.69
49.625,8.58
49.640,5.17
49.656,1.74
49.671,-1.58
49.687,-4.78
49.703,-7.93
49.718,-11.08
49.734,-14.21
49.750,-17.22
49.765,-20.01
49.781,-22.59
49.796,-25.11
49.812,-27.76
49.828,-30.75
49.843,-34.18
49.859,-38.07
49.875,-42.24
49.890,-46.35
49.906,-49.83
49.921,-51.97
49.937,-51.97
49.953,-49.24
49.968,-43.54
49.984,-35.11
50.000,-24.65
50.015,-13.16
50.031,-1.69
50.046,8.89
50.062,17.97
50.078,25.35
50.093,31.06
50.109,35.26
50.125,38.12
50.140,39.73
50.156,40.12
50.171,39.36
50.187,37.62
50.203,35.21
50.218,32.52
50.234,29.9
50.250,27.6
50.265,25.74
50.281,24.3
50.296,23.22
50.312,22.42
50.328,21.8
50.343,21.21
50.359,20.47
50.375,19.42
50.390,17.96
50.406,16.06
50.421,13.81
50.437,11.26
50.453,8.47
50.468,5.44
50.484,2.15
50.500,-1.39
50.515,-5.14
50.531,-8.97
50.546,-12.72
50.562,-16.22
50.578,-19.32
50.593,-21.98
50.609,-24.22
50.625,-26.23
50.640,-28.29
50.656,-30.74
50.671,-33.8
50.687,-37.46
50.703,-41.36
50.718,-44.8
50.734,-46.81
50.750,-46.46
50.765,-43.15
50.781,-36.78
50.796,-27.85
50.812,-17.29
50.828,-6.15
50.843,4.59
50.859,14.26
50.875,22.48
50.890,29.09
50.906,34.0
50.921,37.26
50.937,38.94
50.953,39.31
50.968,38.71
50.984,37.53
51.000,36.07
51.015,34.51
51.031,32.85
51.046,31.06
51.062,29.15
51.078,27.19
51.093,25.34
51.109,23.72
51.125,22.39
51.140,21.26
51.156,20.19
51.171,18.98
51.187,17.49
51.203,15.67
51.218,13.49
51.234,11.01
51.250,8.29
51.265,5.41
51.281,2.47
51.296,-0.48
51.312,-3.37
51.328,-6.16
51.343,-8.88
51.359,-11.57
51.375,-14.28
51.390,-17.0
51.406,-19.65
51.421,-22.08
51.437,-24.2
51.453,-26.02
51.468,-27.75
51.484,-29.76
51.500,-32.38
51.515,-35.78
51.531,-39.75
51.546,-43.7
51.562,-46.74
51.578,-47.99
51.593,-46.73
51.609,-42.65
51.625,-35.93
51.640,-27.08
51.656,-16.95
51.671,-6.45
51.687,3.6
51.703,12.53
51.718,19.96
51.734,25.72
51.750,29.85
51.765,32.49
51.781,33.88
51.796,34.19
51.812,33.61
51.828,32.35
51.843,30.65
51.859,28.82
51.875,27.15
51.890,25.85
51.906,24.95
51.921,24.32
51.937,23.7
51.953,22.91
51.968,21.87
51.984,20.58
52.000,19.14
52.015,17.58
52.031,15.84
52.046,13.84
52.062,11.48
52.078,8.81
52.093,6.03
52.109,3.42
52.125,1.22
52.140,-0.43
52.156,-1.61
52.171,-2.59
52.187,-3.72
52.203,-5.23
52.218,-7.22
52.234,-9.6
52.250,-12.2
52.265,-14.84
52.281,-17.41
52.296,-19.83
52.312,-22.11
52.328,-24.29
52.343,-26.49
52.359,-28.93
52.375,-31.87
52.390,-35.49
52.406,-39.63
52.421,-43.72
52.437,-46.84
52.453,-47.97
52.468,-46.33
52.484,-41.62
52.500,-34.18
52.515,-24.8
52.531,-14.47
52.546,-4.14
52.562,5.46
52.578,13.83
52.593,20.71
52.609,25.95
52.625,29.53
52.640,31.5
52.656,32.07
52.671,31.49
52.687,30.13
52.703,28.37
52.718,26.53
52.734,24.83
52.750,23.37
52.765,22.1
52.781,20.98
52.796,19.97
52.812,19.15
52.828,18.66
52.843,18.58
52.859,18.87
52.875,19.29
52.890,19.46
52.906,18.98
52.921,17.61
52.937,15.37
52.953,12.49
52.968,9.36
52.984,6.33
53.000,3.61
53.015,1.25
53.031,-0.89
53.046,-3.0
53.062,-5.29
53.078,-7.86
53.093,-10.7
53.109,-13.68
53.125,-16.57
53.140,-19.21
53.156,-21.51
53.171,-23.57
53.187,-25.58
53.203,-27.83
53.218,-30.5
53.234,-33.63
53.250,-37.01
53.265,-40.18
53.281,-42.51
53.296,-43.35
53.312,-42.15
53.328,-38.64
53.343,-32.83
53.359,-25.09
53.375,-16.03
53.390,-6.43
53.406,2.94
53.421,11.38
53.437,18.41
53.453,23.8
53.468,27.54
53.484,29.76
53.500,30.71
53.515,30.61
53.531,29.69
53.546,28.2
53.562,26.41
53.578,24.58
53.593,22.96
53.609,21.65
53.625,20.65
53.640,19.84
53.656,19.14
53.671,18.5
53.687,18.01
53.703,17.76
53.718,17.75
53.734,17.78
53.750,17.52
53.765,16.61
53.781,14.8
53.796,12.13
53.812,8.9
53.828,5.55
53.843,2.49
53.859,-0.1
53.875,-2.29
53.890,-4.36
53.906,-6.57
53.921,-9.1
53.937,-11.95
53.953,-14.93
53.968,-17.8
53.984,-20.4
54.000,-22.64
54.015,-24.59
54.031,-26.45
54.046,-28.45
54.062,-30.79
54.078,-33.6
54.093,-36.76
54.109,-39.96
54.125,-42.61
54.140,-44.0
54.156,-43.48
54.171,-40.63
54.187,-35.46
54.203,-28.3
54.218,-19.8
54.234,-10.67
54.250,-1.6
54.265,6.84
54.281,14.18
54.296,20.08
54.312,24.31
54.328,26.85
54.343,27.92
54.359,27.86
54.375,27.15
54.390,26.13
54.406,25.04
54.421,23.89
54.437,22.62
54.453,21.21
54.468,19.74
54.484,18.43
54.500,17.52
54.515,17.17
54.531,17.35
54.546,17.87
54.562,18.41
54.578,18.61
54.593,18.22
54.609,17.1
54.625,15.25
54.640,12.81
54.656,9.97
54.671,6.91
54.687,3.83
54.703,0.84
54.718,-2.01
54.734,-4.72
54.750,-7.32
54.765,-9.85
54.781,-12.32
54.796,-14.73
54.812,-17.08
54.828,-19.39
54.843,-21.68
54.859,-23.97
54.875,-26.24
54.890,-28.58
54.906,-31.03
54.921,-33.7
54.937,-36.54
54.953,-39.3
54.968,-41.46
54.984,-42.26
55.000,-40.94
55.015,-36.97
55.031,-30.26
55.046,-21.29
55.062,-10.99
55.078,-0.51
55.093,9.08
55.109,17.03
55.125,23.09
55.140,27.39
55.156,30.35
55.171,32.34
55.187,33.61
55.203,34.18
55.218,34.01
55.234,33.21
55.250,32.12
55.265,31.26
55.281,31.16
55.296,32.09
55.312,34.11
55.328,37.25
55.343,41.78
55.359,48.34
55.375,57.74
55.390,70.38
55.406,85.91
55.421,103.22
55.437,121.03
55.453,138.52
55.468,155.72
55.484,173.2
55.500,191.33
55.515,209.67
55.531,226.88
55.546,241.47
55.562,252.76
55.578,261.38
55.593,268.95
55.609,276.94
55.625,285.43
55.640,292.71
55.656,295.79
55.671,291.74
55.687,279.02
55.703,258.1
55.718,231.04
55.734,200.57
55.750,169.04
55.765,137.84
55.781,107.46
55.796,77.99
55.812,49.6
55.828,22.86
55.843,-1.4
55.859,-22.28
55.875,-39.27
55.890,-52.42
55.906,-62.31
55.921,-69.94
55.937,-76.41
55.953,-82.77
55.968,-89.99
55.984,-99.03
56.000,-110.9
56.015,-126.36
56.031,-145.47
56.046,-166.98
56.062,-188.27
56.078,-206.02
56.093,-217.28
56.109,-220.65
56.125,-216.84
56.140,-208.21
56.156,-197.68
56.171,-187.57
56.187,-178.91
56.203,-171.64
56.218,-165.25
56.234,-159.43
56.250,-154.25
56.265,-149.95
56.281,-146.39
56.296,-142.92
56.312,-138.53
56.328,-132.27
56.343,-123.8
56.359,-113.47
56.375,-102.31
56.390,-91.65
56.406,-82.69
56.421,-76.1
56.437,-71.89
56.453,-69.52
56.468,-68.06
56.484,-66.65
56.500,-64.71
56.515,-62.03
56.531,-58.61
56.546,-54.57
56.562,-49.83
56.578,-44.23
56.593,-37.63
56.609,-30.05
56.625,-21.94
56.640,-14.02
56.656,-7.09
56.671,-1.73
56.687,1.8
56.703,3.69
56.718,4.31
56.734,4.05
56.750,3.19
56.765,1.86
56.781,0.16
56.796,-1.78
56.812,-3.72
56.828,-5.31
56.843,-6.22
56.859,-6.11
56.875,-4.72
56.890,-1.8
56.906,2.8
56.921,9.04
56.937,16.58
56.953,24.72
56.968,32.44
56.984,38.66
57.000,42.59
57.015,43.98
57.031,43.29
57.046,41.53
57.062,39.96
57.078,39.64
57.093,41.11
57.109,44.26
57.125,48.49
57.140,52.91
57.156,56.69
57.171,59.33
57.187,60.77
57.203,61.46
57.218,62.11
57.234,63.28
57.250,64.94
57.265,66.11
57.281,64.88
57.296,58.91
57.312,46.25
57.328,26.22
57.343,-0.14
57.359,-30.12
57.375,-60.06
57.390,-86.25
57.406,-105.81
57.421,-117.15
57.437,-119.97
57.453,-114.92
57.468,-103.32
57.484,-86.82
57.500,-67.36
57.515,-47.05
57.531,-27.95
57.546,-11.84
57.562,0.12
57.578,7.58
57.593,10.95
57.609,11.16
57.625,9.26
57.640,6.05
57.656,1.93
57.671,-3.1
57.687,-9.21
57.703,-16.51
57.718,-24.87
57.734,-33.85
57.750,-42.92
57.765,-51.65
57.781,-60.0
57.796,-68.24
57.812,-76.71
57.828,-85.43
57.843,-93.86
57.859,-100.98
57.875,-105.8
57.890,-107.99
57.906,-108.32
57.921,-108.57
57.937,-110.83
57.953,-116.61
57.968,-126.11
57.984,-138.05
58.000,-150.06
58.015,-159.38
58.031,-163.71
58.046,-161.59
58.062,-152.72
58.078,-137.91
58.093,-118.97
58.109,-98.45
58.125,-79.17
58.140,-63.54
58.156,-52.89
58.171,-47.12
58.187,-44.74
58.203,-43.55
58.218,-41.48
58.234,-37.33
58.250,-31.03
58.265,-23.34
58.281,-15.34
58.296,-7.97
58.312,-1.88
58.328,2.58
58.343,5.17
58.359,5.82
58.375,4.73
58.390,2.39
58.406,-0.45
58.421,-3.12
58.437,-5.46
58.453,-8.05
58.468,-12.19
58.484,-19.45
58.500,-31.02
58.515,-47.1
58.531,-66.61
58.546,-87.24
58.562,-106.03
58.578,-120.11
58.593,-127.49
58.609,-127.49
58.625,-120.69
58.640,-108.5
58.656,-92.51
58.671,-73.97
58.687,-53.6
58.703,-31.76
58.718,-8.79
58.734,14.65
58.750,37.58
58.765,58.88
58.781,77.49
58.796,92.78
58.812,104.56
58.828,113.09
58.843,118.93
58.859,122.79
58.875,125.4
58.890,127.41
58.906,129.34
58.921,131.51
58.937,133.89
58.953,136.11
58.968,137.56
58.984,137.54
59.000,135.56
59.015,131.59
59.031,126.08
59.046,119.82
59.062,113.64
59.078,108.17
59.093,103.59
59.109,99.5
59.125,94.95
59.140,88.54
59.156,78.94
59.171,65.46
59.187,48.7
59.203,30.62
59.218,14.02
59.234,1.42
59.250,-5.89
59.265,-8.2
59.281,-6.91
59.296,-3.65
59.312,0.36
59.328,4.36
59.343,7.69
59.359,9.33
59.375,8.07
59.390,3.15
59.406,-5.08
59.421,-14.9
59.437,-23.9
59.453,-30.02
59.468,-32.48
59.484,-31.9
59.500,-29.84
59.515,-27.93
59.531,-27.17
59.546,-27.63
59.562,-28.57
59.578,-28.73
59.593,-26.83
59.609,-22.08
59.625,-14.66
59.640,-5.9
59.656,1.92
59.671,6.42
59.687,6.22
59.703,1.71
59.718,-4.89
59.734,-10.57
59.750,-12.94
59.765,-11.51
59.781,-7.83
59.796,-4.8
59.812,-5.16
59.828,-10.25
59.843,-19.51
59.859,-30.89
59.875,-41.87
59.890,-50.35
59.906,-55.1
59.921,-55.63
59.937,-51.84
59.953,-43.82
59.968,-31.91
59.984,-16.89
