timestamp,value
18.171,0.01
18.187,0.01
18.218,-0.03
18.234,-0.05
18.250,-0.05
18.281,0.13
18.296,0.36
18.312,0.66
18.328,1.01
18.343,1.37
18.359,1.72
18.375,2.06
18.390,2.4
18.406,2.79
18.421,3.24
18.437,3.8
18.453,4.42
18.468,5.06
18.484,5.66
18.500,6.2
18.515,6.68
18.531,7.15
18.546,7.68
18.562,8.31
18.578,9.14
18.593,10.09
18.609,11.04
18.625,11.88
18.640,12.56
18.656,13.14
18.671,13.76
18.687,14.65
18.703,15.96
18.718,17.91
18.734,20.32
18.750,22.9
18.765,25.38
18.781,27.58
18.796,29.57
18.812,31.68
18.828,34.32
18.843,37.81
18.859,42.54
18.875,48.15
18.890,54.1
18.906,59.83
18.921,64.97
18.937,69.58
18.953,74.14
18.968,79.34
18.984,85.71
19.000,93.76
19.015,103.0
19.031,112.62
19.046,121.73
19.062,129.77
19.078,136.75
19.093,143.3
19.109,150.75
19.125,157.77
19.140,166.64
19.156,177.95
19.171,191.79
19.187,206.97
19.203,220.57
19.218,228.25
19.234,225.36
19.250,208.53
19.265,176.87
19.281,132.76
19.296,80.05
19.312,23.07
19.328,-34.94
19.343,-92.44
19.359,-149.16
19.375,-205.23
19.390,-260.37
19.406,-313.74
19.421,-363.87
19.437,-409.82
19.453,-450.88
19.468,-486.45
19.484,-515.67
19.500,-537.13
19.515,-549.08
19.531,-549.78
19.546,-538.14
19.562,-513.93
19.578,-478.34
19.593,-433.49
19.609,-381.99
19.625,-326.5
19.640,-269.25
19.656,-211.97
19.671,-155.93
19.687,-102.14
19.703,-51.48
19.718,-4.93
19.734,36.64
19.750,72.59
19.765,102.62
19.781,126.88
19.796,145.89
19.812,160.34
19.828,170.95
19.843,178.35
19.859,182.92
19.875,184.96
19.890,184.7
19.906,182.41
19.921,178.43
19.937,173.18
19.953,167.08
19.968,160.45
19.984,153.56
20.000,146.54
20.015,139.47
20.031,132.39
20.046,125.34
20.062,118.39
20.078,111.6
20.093,105.05
20.109,98.79
20.125,92.85
20.140,87.25
20.156,82.01
20.171,77.12
20.187,72.6
20.203,68.46
20.218,64.7
20.234,61.33
20.250,58.36
20.265,55.79
20.281,53.6
20.296,51.79
20.312,50.34
20.328,49.2
20.343,48.29
20.359,47.52
20.375,46.77
20.390,45.86
20.406,44.62
20.421,42.89
20.437,40.51
20.453,37.38
20.468,33.45
20.484,28.74
20.500,23.3
20.515,17.29
20.531,10.91
20.546,4.42
20.562,-1.92
20.578,-7.86
20.593,-13.17
20.609,-17.67
20.625,-21.24
20.640,-23.84
20.656,-25.45
20.671,-26.16
20.687,-26.06
20.703,-25.29
20.718,-23.99
20.734,-22.28
20.750,-20.28
20.765,-18.07
20.781,-15.72
20.796,-13.26
20.812,-10.73
20.828,-8.16
20.843,-5.57
20.859,-2.94
20.875,-0.3
20.890,2.38
20.906,5.09
20.921,7.85
20.937,10.7
20.953,13.59
20.968,16.51
20.984,19.47
21.000,22.46
21.015,25.53
21.031,28.71
21.046,32.04
21.062,35.56
21.078,39.36
21.093,43.35
21.109,47.49
21.125,51.75
21.140,56.12
21.156,60.59
21.171,65.2
21.187,69.96
21.203,74.95
21.218,80.24
21.234,85.7
21.250,91.25
21.265,96.84
21.281,102.46
21.296,108.1
21.312,113.75
21.328,119.43
21.343,125.15
21.359,130.97
21.375,136.61
21.390,141.84
21.406,146.45
21.421,150.2
21.437,152.82
21.453,153.92
21.468,153.02
21.484,149.41
21.500,144.39
21.515,138.43
21.531,131.83
21.546,124.79
21.562,117.46
21.578,109.99
21.593,102.5
21.609,95.12
21.625,88.0
21.640,81.34
21.656,75.0
21.671,68.93
21.687,63.12
21.703,57.58
21.718,52.32
21.734,47.36
21.750,42.74
21.765,38.53
21.781,34.79
21.796,31.37
21.812,28.2
21.828,25.22
21.843,22.41
21.859,19.78
21.875,17.33
21.890,15.09
21.906,13.13
21.921,11.5
21.937,10.11
21.953,8.92
21.968,7.91
21.984,7.03
22.000,6.28
22.015,5.61
22.031,5.03
22.046,4.51
22.062,4.06
22.078,3.6
22.093,3.13
22.109,2.61
22.125,2.05
22.140,1.45
22.156,0.79
22.171,0.08
22.187,-0.65
22.203,-1.38
22.218,-2.09
22.234,-2.73
22.250,-3.29
22.265,-3.77
22.281,-4.19
22.296,-4.62
22.312,-5.12
22.328,-5.74
22.343,-6.5
22.359,-7.37
22.375,-8.31
22.390,-9.24
22.406,-10.15
22.421,-11.02
22.437,-11.9
22.453,-12.86
22.468,-13.95
22.484,-15.17
22.500,-16.47
22.515,-17.75
22.531,-18.92
22.546,-19.99
22.562,-21.04
22.578,-22.27
22.593,-23.91
22.609,-26.1
22.625,-28.82
22.640,-31.91
22.656,-35.06
22.671,-38.01
22.687,-40.64
22.703,-43.12
22.718,-45.81
22.734,-49.2
22.750,-53.61
22.765,-59.09
22.781,-65.36
22.796,-71.92
22.812,-78.3
22.828,-84.33
22.843,-90.23
22.859,-96.62
22.875,-104.22
22.890,-113.53
22.906,-124.62
22.921,-137.03
22.937,-150.03
22.953,-162.89
22.968,-175.23
22.984,-187.15
23.000,-199.17
23.015,-212.08
23.031,-226.87
23.046,-244.55
23.062,-265.81
23.078,-290.48
23.093,-316.96
23.109,-342.05
23.125,-361.48
23.140,-371.21
23.156,-368.91
23.171,-354.85
23.187,-331.79
23.203,-303.93
23.218,-275.33
23.234,-248.73
23.250,-225.22
23.265,-204.69
23.281,-186.57
23.296,-170.47
23.312,-156.16
23.328,-143.46
23.343,-131.92
23.359,-120.95
23.375,-110.09
23.390,-99.34
23.406,-89.21
23.421,-80.56
23.437,-74.2
23.453,-70.38
23.468,-68.56
23.484,-67.39
23.500,-65.09
23.515,-60.02
23.531,-51.21
23.546,-38.71
23.562,-23.46
23.578,-7.07
23.593,8.83
23.609,23.02
23.625,34.89
23.640,44.44
23.656,51.92
23.671,57.67
23.687,61.84
23.703,64.5
23.718,65.7
23.734,65.64
23.750,64.68
23.765,63.27
23.781,61.83
23.796,60.52
23.812,59.35
23.828,58.08
23.843,56.53
23.859,54.55
23.875,52.17
23.890,49.46
23.906,46.52
23.921,43.35
23.937,39.91
23.953,36.15
23.968,32.08
23.984,27.75
24.000,23.29
24.015,18.82
24.031,14.47
24.046,10.35
24.062,6.54
24.078,3.01
24.093,-0.43
24.109,-4.12
24.125,-8.5
24.140,-13.87
24.156,-20.11
24.171,-26.54
24.187,-31.97
24.203,-34.99
24.218,-34.49
24.234,-29.99
24.250,-21.87
24.265,-11.17
24.281,0.77
24.296,12.73
24.312,23.82
24.328,33.52
24.343,41.54
24.359,47.7
24.375,51.8
24.390,53.8
24.406,53.86
24.421,52.39
24.437,50.02
24.453,47.38
24.468,44.94
24.484,42.92
24.500,41.25
24.515,39.73
24.531,38.18
24.546,36.52
24.562,34.83
24.578,33.26
24.593,31.94
24.609,30.83
24.625,29.7
24.640,28.21
24.656,26.01
24.671,22.93
24.687,19.12
24.703,14.89
24.718,10.67
24.734,6.76
24.750,3.24
24.765,-0.09
24.781,-3.56
24.796,-7.57
24.812,-12.37
24.828,-18.06
24.843,-24.48
24.859,-31.16
24.875,-37.32
24.890,-41.92
24.906,-43.84
24.921,-42.26
24.937,-36.9
24.953,-28.17
24.968,-17.09
24.984,-5.0
25.000,6.83
25.015,17.48
25.031,26.46
25.046,33.61
25.062,38.96
25.078,42.55
25.093,44.46
25.109,44.85
25.125,44.07
25.140,42.58
25.156,40.85
25.171,39.17
25.187,37.62
25.203,36.05
25.218,34.3
25.234,32.34
25.250,30.3
25.265,28.43
25.281,26.92
25.296,25.73
25.312,24.56
25.328,22.95
25.343,20.48
25.359,16.94
25.375,12.41
25.390,7.25
25.406,2.01
25.421,-2.82
25.437,-6.91
25.453,-10.28
25.468,-13.31
25.484,-16.64
25.500,-20.96
25.515,-26.64
25.531,-33.52
25.546,-40.68
25.562,-46.7
25.578,-49.96
25.593,-49.14
25.609,-43.77
25.625,-34.26
25.640,-21.84
25.656,-8.12
25.671,5.35
25.687,17.43
25.703,27.49
25.718,35.34
25.734,41.04
25.750,44.75
25.765,46.68
25.781,47.19
25.796,46.7
25.812,45.71
25.828,44.73
25.843,44.09
25.859,44.0
25.875,44.47
25.890,45.35
25.906,46.44
25.921,47.52
25.937,48.4
25.953,48.94
25.968,49.14
25.984,49.01
26.000,48.59
26.015,47.87
26.031,46.77
26.046,45.25
26.062,43.31
26.078,41.08
26.093,38.82
26.109,36.74
26.125,34.9
26.140,33.23
26.156,31.51
26.171,29.56
26.187,27.35
26.203,24.97
26.218,22.63
26.234,20.5
26.250,18.64
26.265,16.97
26.281,15.34
26.296,13.64
26.312,11.79
26.328,9.84
26.343,7.85
26.359,5.91
26.375,4.09
26.390,2.42
26.406,0.9
26.421,-0.46
26.437,-1.72
26.453,-2.95
26.468,-4.23
26.484,-5.65
26.500,-7.24
26.515,-9.0
26.531,-10.9
26.546,-12.89
26.562,-14.95
26.578,-17.13
26.593,-19.48
26.609,-22.06
26.625,-24.87
26.640,-27.84
26.656,-30.83
26.671,-33.7
26.687,-36.27
26.703,-38.45
26.718,-40.28
26.734,-42.0
26.750,-43.99
26.765,-46.78
26.781,-50.82
26.796,-56.33
26.812,-63.02
26.828,-70.0
26.843,-75.82
26.859,-78.83
26.875,-77.61
26.890,-71.44
26.906,-60.64
26.921,-46.44
26.937,-30.64
26.953,-15.12
26.968,-1.28
26.984,10.1
27.000,18.8
27.015,24.97
27.031,28.81
27.046,30.51
27.062,30.33
27.078,28.66
27.093,26.09
27.109,23.23
27.125,20.64
27.140,18.59
27.156,17.12
27.171,16.07
27.187,15.23
27.203,14.43
27.218,13.56
27.234,12.58
27.250,11.43
27.265,10.07
27.281,8.44
27.296,6.54
27.312,4.39
27.328,2.04
27.343,-0.48
27.359,-3.25
27.375,-6.41
27.390,-10.23
27.406,-14.88
27.421,-20.34
27.437,-26.2
27.453,-31.72
27.468,-35.86
27.484,-37.61
27.500,-36.24
27.515,-31.57
27.531,-24.02
27.546,-14.36
27.562,-3.53
27.578,7.67
27.593,18.66
27.609,29.0
27.625,38.33
27.640,46.24
27.656,52.32
27.671,56.38
27.687,58.53
27.703,59.29
27.718,59.54
27.734,60.22
27.750,62.03
27.765,65.3
27.781,69.92
27.796,75.46
27.812,81.06
27.828,85.66
27.843,88.04
27.859,87.09
27.875,82.23
27.890,73.74
27.906,62.74
27.921,50.94
27.937,39.92
27.953,30.62
27.968,23.01
27.984,16.23
28.000,9.2
28.015,1.21
28.031,-7.63
28.046,-16.36
28.062,-23.57
28.078,-27.92
28.093,-28.57
28.109,-25.41
28.125,-19.06
28.140,-10.58
28.156,-1.23
28.171,7.9
28.187,16.07
28.203,22.97
28.218,28.69
28.234,33.51
28.250,37.49
28.265,40.28
28.281,41.07
28.296,38.76
28.312,32.43
28.328,21.87
28.343,7.56
28.359,-9.52
28.375,-28.21
28.390,-47.42
28.406,-66.04
28.421,-82.85
28.437,-96.52
28.453,-106.0
28.468,-110.95
28.484,-111.84
28.500,-109.66
28.515,-105.27
28.531,-98.95
28.546,-90.47
28.562,-79.6
28.578,-66.6
28.593,-52.47
28.609,-38.49
28.625,-25.62
28.640,-13.91
28.656,-2.66
28.671,9.08
28.687,21.82
28.703,35.35
28.718,49.2
28.734,63.14
28.750,77.72
28.765,94.22
28.781,114.02
28.796,137.44
28.812,162.94
28.828,186.77
28.843,203.43
28.859,207.25
28.875,193.89
28.890,161.62
28.906,111.95
28.921,49.49
28.937,-18.86
28.953,-85.35
28.968,-143.19
28.984,-188.34
29.000,-220.46
29.015,-242.68
29.031,-259.91
29.046,-276.54
29.062,-294.41
29.078,-311.94
29.093,-325.07
29.109,-329.22
29.125,-321.4
29.140,-301.42
29.156,-271.85
29.171,-236.75
29.187,-200.23
29.203,-165.46
29.218,-134.26
29.234,-107.44
29.250,-85.12
29.265,-67.1
29.281,-53.0
29.296,-42.36
29.312,-34.3
29.328,-27.72
29.343,-21.67
29.359,-15.7
29.375,-10.13
29.390,-5.93
29.406,-4.18
29.421,-5.37
29.437,-9.05
29.453,-13.75
29.468,-17.52
29.484,-18.53
29.500,-15.63
29.515,-8.63
29.531,1.8
29.546,14.48
29.562,28.09
29.578,41.46
29.593,53.76
29.609,64.44
29.625,73.18
29.640,79.89
29.656,84.8
29.671,88.42
29.687,91.4
29.703,94.24
29.718,96.96
29.734,99.07
29.750,99.66
29.765,97.93
29.781,93.58
29.796,87.06
29.812,79.42
29.828,71.88
29.843,65.34
29.859,60.07
29.875,55.98
29.890,52.96
29.906,51.39
29.921,52.13
29.937,56.21
29.953,64.25
29.968,75.87
29.984,89.78
30.000,104.17
30.015,117.42
30.031,128.53
30.046,137.26
30.062,143.81
30.078,148.38
30.093,151.05
30.109,151.65
30.125,150.01
30.140,145.97
30.156,139.09
30.171,128.51
30.187,113.07
30.203,91.57
30.218,63.39
30.234,29.37
30.250,-7.79
30.265,-43.51
30.281,-72.11
30.296,-88.26
30.312,-88.78
30.328,-74.09
30.343,-48.74
30.359,-20.28
30.375,2.89
30.390,13.82
30.406,8.54
30.421,-13.53
30.437,-50.14
30.453,-97.06
30.468,-149.0
30.484,-200.31
30.500,-245.68
30.515,-280.78
30.531,-303.04
30.546,-311.81
30.562,-308.18
30.578,-294.33
30.593,-272.88
30.609,-246.65
30.625,-218.58
30.640,-191.54
30.656,-167.92
30.671,-149.12
30.687,-134.92
30.703,-123.75
30.718,-113.55
30.734,-102.77
30.750,-91.07
30.765,-79.26
30.781,-68.7
30.796,-60.64
30.812,-55.63
30.828,-53.35
30.843,-53.03
30.859,-53.87
30.875,-55.33
30.890,-57.26
30.906,-59.59
30.921,-61.86
30.937,-63.0
30.953,-61.44
30.968,-55.54
30.984,-44.19
31.000,-27.25
31.015,-5.54
31.031,19.45
31.046,46.07
31.062,72.89
31.078,98.81
31.093,122.94
31.109,144.47
31.125,162.55
31.140,176.36
31.156,185.28
31.171,189.04
31.187,187.68
31.203,181.53
31.218,171.14
31.234,157.27
31.250,141.01
31.265,123.8
31.281,107.41
31.296,93.69
31.312,84.22
31.328,79.9
31.343,80.69
31.359,85.55
31.375,92.88
31.390,100.89
31.406,108.14
31.421,113.71
31.437,117.17
31.453,118.43
31.468,117.54
31.484,114.65
31.500,110.04
31.515,104.28
31.531,98.14
31.546,92.41
31.562,87.67
31.578,84.03
31.593,81.18
31.609,78.52
31.625,75.5
31.640,71.85
31.656,67.64
31.671,63.24
31.687,58.99
31.703,55.02
31.718,51.2
31.734,47.24
31.750,42.81
31.765,37.79
31.781,32.28
31.796,26.58
31.812,20.97
31.828,15.62
31.843,10.43
31.859,5.07
31.875,-0.93
31.890,-7.89
31.906,-15.79
31.921,-24.0
31.937,-31.29
31.953,-36.04
31.968,-36.83
31.984,-32.86
32.000,-24.36
32.015,-12.49
32.031,1.02
32.046,14.46
32.062,26.63
32.078,36.94
32.093,45.27
32.109,51.67
32.125,56.1
32.140,58.44
32.156,58.74
32.171,57.42
32.187,55.23
32.203,53.07
32.218,51.61
32.234,51.08
32.250,51.24
32.265,51.64
32.281,51.85
32.296,51.73
32.312,51.3
32.328,50.67
32.343,49.84
32.359,48.67
32.375,46.98
32.390,44.7
32.406,41.98
32.421,39.1
32.437,36.35
32.453,33.9
32.468,31.74
32.484,29.73
32.500,27.72
32.515,25.63
32.531,23.54
32.546,21.63
32.562,20.1
32.578,19.07
32.593,18.49
32.609,18.11
32.625,17.68
32.640,16.91
32.656,15.72
32.671,14.2
32.687,12.53
32.703,10.93
32.718,9.49
32.734,8.22
32.750,6.97
32.765,5.68
32.781,4.3
32.796,2.91
32.812,1.64
32.828,0.57
32.843,-0.27
32.859,-0.95
32.875,-1.64
32.890,-2.55
32.906,-3.84
32.921,-5.57
32.937,-7.7
32.953,-10.01
32.968,-12.3
32.984,-14.4
33.000,-16.31
33.015,-18.17
33.031,-20.25
33.046,-22.8
33.062,-25.98
33.078,-29.74
33.093,-33.84
33.109,-37.96
33.125,-41.79
33.140,-45.14
33.156,-48.04
33.171,-50.69
33.187,-53.46
33.203,-56.77
33.218,-61.05
33.234,-66.51
33.250,-73.05
33.265,-80.04
33.281,-86.21
33.296,-89.91
33.312,-89.47
33.328,-83.77
33.343,-72.72
33.359,-57.39
33.375,-39.67
33.390,-21.7
33.406,-5.22
33.421,8.7
33.437,19.71
33.453,27.91
33.468,33.49
33.484,36.65
33.500,37.62
33.515,36.79
33.531,34.78
33.546,32.31
33.562,30.06
33.578,28.44
33.593,27.54
33.609,27.14
33.625,26.92
33.640,26.63
33.656,26.14
33.671,25.49
33.687,24.8
33.703,24.11
33.718,23.33
33.734,22.26
33.750,20.65
33.765,18.31
33.781,15.27
33.796,11.71
33.812,7.93
33.828,4.13
33.843,0.29
33.859,-3.9
33.875,-8.82
33.890,-14.71
33.906,-21.34
33.921,-27.87
33.937,-33.02
33.953,-35.47
33.968,-34.33
33.984,-29.52
34.000,-21.75
34.015,-12.26
34.031,-2.43
34.046,6.68
34.062,14.38
34.078,20.38
34.093,24.6
34.109,27.04
34.125,27.78
34.140,26.98
34.156,25.0
34.171,22.3
34.187,19.35
34.203,16.59
34.218,14.28
34.234,12.52
34.250,11.28
34.265,10.39
34.281,9.63
34.296,8.75
34.312,7.53
34.328,5.92
34.343,3.98
34.359,1.83
34.375,-0.37
34.390,-2.5
34.406,-4.53
34.421,-6.49
34.437,-8.44
34.453,-10.47
34.468,-12.77
34.484,-15.6
34.500,-19.19
34.515,-23.58
34.531,-28.37
34.546,-32.74
34.562,-35.49
34.578,-35.53
34.593,-32.13
34.609,-25.25
34.625,-15.49
34.640,-3.93
34.656,8.22
34.671,19.89
34.687,30.27
34.703,38.84
34.718,45.29
34.734,49.58
34.750,51.96
34.765,52.9
34.781,53.11
34.796,53.31
34.812,54.07
34.828,55.59
34.843,57.76
34.859,60.27
34.875,62.83
34.890,65.37
34.906,68.14
34.921,71.55
34.937,75.95
34.953,81.38
34.968,87.44
34.984,93.55
35.000,98.99
35.015,103.37
35.031,106.73
35.046,109.57
35.062,112.84
35.078,117.74
35.093,125.58
35.109,137.44
35.125,153.37
35.140,171.89
35.156,189.79
35.171,202.83
35.187,207.06
35.203,200.39
35.218,183.32
35.234,158.53
35.250,129.54
35.265,99.28
35.281,69.48
35.296,41.02
35.312,14.96
35.328,-6.78
35.343,-21.57
35.359,-26.91
35.375,-21.46
35.390,-5.63
35.406,18.72
35.421,48.72
35.437,81.07
35.453,112.2
35.468,138.51
35.484,156.8
35.500,165.06
35.515,163.15
35.531,152.93
35.546,137.53
35.562,120.1
35.578,102.66
35.593,85.7
35.609,68.73
35.625,51.19
35.640,33.19
35.656,15.63
35.671,-0.41
35.687,-14.44
35.703,-27.02
35.718,-39.59
35.734,-53.81
35.750,-70.91
35.765,-91.47
35.781,-115.55
35.796,-142.66
35.812,-171.3
35.828,-198.42
35.843,-219.39
35.859,-229.27
35.875,-225.01
35.890,-207.56
35.906,-182.58
35.921,-158.84
35.937,-144.79
35.953,-145.18
35.968,-159.2
35.984,-181.18
36.000,-203.13
36.015,-217.63
36.031,-219.58
36.046,-206.51
36.062,-177.94
36.078,-134.86
36.093,-79.89
36.109,-17.83
36.125,44.19
36.140,97.71
36.156,134.95
36.171,151.13
36.187,146.01
36.203,123.93
36.218,92.32
36.234,59.13
36.250,30.33
36.265,8.48
36.281,-7.34
36.296,-20.21
36.312,-33.4
36.328,-48.63
36.343,-65.26
36.359,-80.69
36.375,-91.66
36.390,-95.59
36.406,-91.54
36.421,-80.35
36.437,-64.11
36.453,-45.35
36.468,-26.42
36.484,-9.33
36.500,4.31
36.515,13.13
36.531,16.29
36.546,13.73
36.562,6.44
36.578,-3.66
36.593,-14.22
36.609,-23.06
36.625,-28.67
36.640,-30.49
36.656,-28.85
36.671,-24.45
36.687,-17.75
36.703,-8.47
36.718,4.4
36.734,22.05
36.750,44.69
36.765,70.58
36.781,95.77
36.796,114.89
36.812,122.82
36.828,116.26
36.843,94.78
36.859,60.69
36.875,18.31
36.890,-27.05
36.906,-69.89
36.921,-104.94
36.937,-127.93
36.953,-136.32
36.968,-130.19
36.984,-112.52
37.000,-88.39
37.015,-63.46
37.031,-42.14
37.046,-26.58
37.062,-16.6
37.078,-10.61
37.093,-6.66
37.109,-3.19
37.125,0.76
37.140,5.78
37.156,12.14
37.171,19.71
37.187,27.8
37.203,35.02
37.218,39.61
37.234,40.09
37.250,35.89
37.265,27.68
37.281,17.26
37.296,6.8
37.312,-1.87
37.328,-7.97
37.343,-11.75
37.359,-14.11
37.375,-15.9
37.390,-17.34
37.406,-17.87
37.421,-16.48
37.437,-12.32
37.453,-5.31
37.468,3.63
37.484,12.86
37.500,20.77
37.515,26.47
37.531,30.21
37.546,33.07
37.562,36.34
37.578,40.68
37.593,45.68
37.609,50.01
37.625,52.05
37.640,50.43
37.656,44.27
37.671,33.0
37.687,16.01
37.703,-7.37
37.718,-37.26
37.734,-72.44
37.750,-109.81
37.765,-144.69
37.781,-171.98
37.796,-187.81
37.812,-190.7
37.828,-181.77
37.843,-164.14
37.859,-141.69
37.875,-118.1
37.890,-96.14
37.906,-77.5
37.921,-62.78
37.937,-51.41
37.953,-41.79
37.968,-31.69
37.984,-19.03
38.000,-2.71
38.015,16.81
38.031,37.55
38.046,56.75
38.062,71.95
38.078,82.16
38.093,88.19
38.109,92.37
38.125,97.7
38.140,106.7
38.156,120.76
38.171,139.71
38.187,162.01
38.203,185.08
38.218,205.86
38.234,221.48
38.250,230.03
38.265,231.02
38.281,225.41
38.296,214.81
38.312,200.53
38.328,182.86
38.343,161.28
38.359,135.57
38.375,106.9
38.390,78.34
38.406,53.82
38.421,36.04
38.437,24.63
38.453,15.83
38.468,4.03
38.484,-15.45
38.500,-44.04
38.515,-79.43
38.531,-117.02
38.546,-152.56
38.562,-184.2
38.578,-213.05
38.593,-242.14
38.609,-274.69
38.625,-312.6
38.640,-355.68
38.656,-401.49
38.671,-445.74
38.687,-483.09
38.703,-508.16
38.718,-516.92
38.734,-507.76
38.750,-481.88
38.765,-442.72
38.781,-394.48
38.796,-340.64
38.812,-283.15
38.828,-222.79
38.843,-160.46
38.859,-98.53
38.875,-41.38
38.890,5.37
38.906,36.93
38.921,51.35
38.937,50.98
38.953,42.32
38.968,34.14
38.984,34.64
39.000,48.51
39.015,75.28
39.031,109.9
39.046,145.16
39.062,174.79
39.078,195.85
39.093,209.1
39.109,217.38
39.125,223.14
39.140,226.59
39.156,225.74
39.171,218.11
39.187,202.63
39.203,180.83
39.218,156.12
39.234,132.11
39.250,111.23
39.265,94.34
39.281,81.52
39.296,72.97
39.312,69.02
39.328,69.13
39.343,71.19
39.359,71.73
39.375,67.44
39.390,56.86
39.406,40.89
39.421,21.31
39.437,-1.43
39.453,-29.43
39.468,-66.33
39.484,-114.2
39.500,-170.91
39.515,-229.86
39.531,-282.58
39.546,-322.56
39.562,-347.85
39.578,-360.81
39.593,-365.38
39.609,-364.11
39.625,-356.66
39.640,-340.92
39.656,-315.42
39.671,-280.92
39.687,-240.61
39.703,-198.25
39.718,-156.06
39.734,-113.84
39.750,-70.09
39.765,-24.68
39.781,18.98
39.796,54.05
39.812,72.97
39.828,71.21
39.843,50.13
39.859,16.97
39.875,-18.17
39.890,-46.46
39.906,-63.41
39.921,-69.18
39.937,-66.36
39.953,-56.96
39.968,-40.95
39.984,-16.78
40.000,16.54
40.015,57.85
40.031,103.65
40.046,149.35
40.062,190.89
40.078,225.28
40.093,250.22
40.109,263.62
40.125,263.95
40.140,251.23
40.156,227.85
40.171,198.32
40.187,167.81
40.203,140.38
40.218,118.05
40.234,101.47
40.250,91.37
40.265,89.55
40.281,98.36
40.296,118.66
40.312,147.95
40.328,179.89
40.343,206.01
40.359,218.85
40.375,214.67
40.390,194.74
40.406,164.28
40.421,130.11
40.437,98.1
40.453,71.32
40.468,49.3
40.484,28.69
40.500,5.2
40.515,-24.03
40.531,-58.45
40.546,-94.0
40.562,-124.93
40.578,-146.8
40.593,-158.95
40.609,-164.75
40.625,-169.31
40.640,-175.95
40.656,-183.59
40.671,-186.88
40.687,-178.82
40.703,-154.53
40.718,-113.83
40.734,-61.54
40.750,-5.49
40.765,46.4
40.781,88.21
40.796,116.85
40.812,131.76
40.828,134.22
40.843,126.54
40.859,111.47
40.875,91.5
40.890,68.64
40.906,44.28
40.921,19.59
40.937,-4.11
40.953,-25.07
40.968,-41.45
40.984,-52.03
41.000,-56.78
41.015,-56.89
41.031,-54.1
41.046,-49.78
41.062,-44.26
41.078,-37.05
41.093,-27.58
41.109,-16.15
41.125,-4.29
41.140,5.81
41.156,12.31
41.171,14.62
41.187,13.6
41.203,11.08
41.218,8.96
41.234,8.46
41.250,9.82
41.265,12.46
41.281,15.48
41.296,18.06
41.312,19.72
41.328,20.38
41.343,20.11
41.359,19.01
41.375,16.98
41.390,13.68
41.406,8.58
41.421,1.3
41.437,-8.14
41.453,-19.04
41.468,-29.96
41.484,-39.04
41.500,-44.49
41.515,-45.16
41.531,-40.89
41.546,-32.55
41.562,-21.62
41.578,-9.69
41.593,1.93
41.609,12.46
41.625,21.46
41.640,28.76
41.656,34.23
41.671,37.92
41.687,40.07
41.703,41.18
41.718,41.89
41.734,42.7
41.750,43.84
41.765,45.14
41.781,46.25
41.796,46.79
41.812,46.58
41.828,45.71
41.843,44.42
41.859,43.0
41.875,41.69
41.890,40.61
41.906,39.84
41.921,39.36
41.937,39.06
41.953,38.71
41.968,37.94
41.984,36.36
42.000,33.68
42.015,29.81
42.031,24.9
42.046,19.31
42.062,13.47
42.078,7.77
42.093,2.49
42.109,-2.24
42.125,-6.42
42.140,-10.15
42.156,-13.63
42.171,-17.22
42.187,-21.42
42.203,-26.68
42.218,-33.19
42.234,-40.53
42.250,-47.66
42.265,-53.07
42.281,-55.24
42.296,-53.18
42.312,-46.84
42.328,-37.08
42.343,-25.29
42.359,-12.93
42.375,-0.98
42.390,10.14
42.406,20.39
42.421,29.83
42.437,38.37
42.453,45.7
42.468,51.51
42.484,55.68
42.500,58.41
42.515,60.15
42.531,61.43
42.546,62.59
42.562,63.69
42.578,64.56
42.593,64.85
42.609,64.3
42.625,62.85
42.640,60.67
42.656,58.03
42.671,55.22
42.687,52.39
42.703,49.52
42.718,46.47
42.734,43.06
42.750,39.18
42.765,34.82
42.781,30.04
42.796,24.94
42.812,19.65
42.828,14.23
42.843,8.82
42.859,3.57
42.875,-1.39
42.890,-5.98
42.906,-10.27
42.921,-14.55
42.937,-19.23
42.953,-24.73
42.968,-31.28
42.984,-38.66
43.000,-46.15
43.015,-52.56
43.031,-56.55
43.046,-57.03
43.062,-53.55
43.078,-46.45
43.093,-36.72
43.109,-25.71
43.125,-14.64
43.140,-4.37
43.156,4.71
43.171,12.56
43.187,19.25
43.203,24.76
43.218,29.03
43.234,31.99
43.250,33.74
43.265,34.53
43.281,34.75
43.296,34.73
43.312,34.66
43.328,34.54
43.343,34.25
43.359,33.72
43.375,32.94
43.390,32.04
43.406,31.21
43.421,30.48
43.437,29.79
43.453,28.85
43.468,27.38
43.484,25.16
43.500,22.14
43.515,18.45
43.531,14.3
43.546,9.87
43.562,5.3
43.578,0.68
43.593,-3.89
43.609,-8.27
43.625,-12.3
43.640,-15.9
43.656,-19.07
43.671,-22.04
43.687,-25.14
43.703,-28.84
43.718,-33.53
43.734,-39.35
43.750,-46.01
43.765,-52.75
43.781,-58.39
43.796,-61.68
43.812,-61.67
43.828,-58.04
43.843,-51.22
43.859,-42.12
43.875,-31.87
43.890,-21.44
43.906,-11.48
43.921,-2.36
43.937,5.69
43.953,12.49
43.968,17.89
43.984,21.86
44.000,24.54
44.015,26.23
44.031,27.29
44.046,27.99
44.062,28.47
44.078,28.74
44.093,28.77
44.109,28.64
44.125,28.49
44.140,28.45
44.156,28.56
44.171,28.65
44.187,28.42
44.203,27.58
44.218,25.97
44.234,23.69
44.250,21.03
44.265,18.34
44.281,15.83
44.296,13.51
44.312,11.19
44.328,8.67
44.343,5.75
44.359,2.43
44.375,-1.16
44.390,-4.82
44.406,-8.43
44.421,-11.93
44.437,-15.39
44.453,-18.98
44.468,-22.87
44.484,-27.23
44.500,-32.11
44.515,-37.45
44.531,-42.97
44.546,-48.15
44.562,-52.29
44.578,-54.53
44.593,-54.18
44.609,-50.87
44.625,-44.76
44.640,-36.47
44.656,-26.94
44.671,-17.15
44.687,-7.81
44.703,0.64
44.718,8.05
44.734,14.39
44.750,19.61
44.765,23.62
44.781,26.38
44.796,28.0
44.812,28.72
44.828,28.92
44.843,28.96
44.859,29.05
44.875,29.27
44.890,29.59
44.906,29.91
44.921,30.15
44.937,30.23
44.953,30.02
44.968,29.46
44.984,28.51
45.000,27.27
45.015,25.92
45.031,24.66
45.046,23.58
45.062,22.6
45.078,21.53
45.093,20.09
45.109,18.05
45.125,15.35
45.140,12.06
45.156,8.42
45.171,4.69
45.187,1.11
45.203,-2.22
45.218,-5.31
45.234,-8.29
45.250,-11.38
45.265,-14.8
45.281,-18.76
45.296,-23.33
45.312,-28.4
45.328,-33.59
45.343,-38.2
45.359,-41.34
45.375,-42.15
45.390,-40.09
45.406,-35.14
45.421,-27.93
45.437,-19.46
45.453,-10.82
45.468,-2.79
45.484,4.23
45.500,10.19
45.515,15.15
45.531,19.09
45.546,21.94
45.562,23.56
45.578,24.02
45.593,23.59
45.609,22.77
45.625,22.04
45.640,21.76
45.656,21.96
45.671,22.4
45.687,22.72
45.703,22.59
45.718,21.91
45.734,20.83
45.750,19.69
45.765,18.8
45.781,18.34
45.796,18.19
45.812,18.03
45.828,17.43
45.843,16.01
45.859,13.67
45.875,10.56
45.890,6.98
45.906,3.31
45.921,-0.23
45.937,-3.57
45.953,-6.8
45.968,-10.09
45.984,-13.63
46.000,-17.55
46.015,-21.92
46.031,-26.75
46.046,-31.87
46.062,-36.89
46.078,-41.13
46.093,-43.74
46.109,-43.95
46.125,-41.35
46.140,-36.02
46.156,-28.56
46.171,-19.92
46.187,-11.08
46.203,-2.83
46.218,4.34
46.234,10.18
46.250,14.59
46.265,17.55
46.281,19.09
46.296,19.36
46.312,18.66
46.328,17.47
46.343,16.29
46.359,15.53
46.375,15.37
46.390,15.75
46.406,16.35
46.421,16.81
46.437,16.82
46.453,16.26
46.468,15.2
46.484,13.83
46.500,12.38
46.515,11.01
46.531,9.75
46.546,8.46
46.562,6.93
46.578,4.93
46.593,2.38
46.609,-0.64
46.625,-3.91
46.640,-7.11
46.656,-10.03
46.671,-12.63
46.687,-15.07
46.703,-17.66
46.718,-20.73
46.734,-24.51
46.750,-29.05
46.765,-34.19
46.781,-39.47
46.796,-44.16
46.812,-47.39
46.828,-48.33
46.843,-46.46
46.859,-41.8
46.875,-34.91
46.890,-26.75
46.906,-18.31
46.921,-10.34
46.937,-3.21
46.953,3.05
46.968,8.5
46.984,13.1
47.000,16.7
47.015,19.11
47.031,20.3
47.046,20.55
47.062,20.31
47.078,20.06
47.093,20.11
47.109,20.44
47.125,20.85
47.140,21.09
47.156,21.0
47.171,20.58
47.187,19.99
47.203,19.38
47.218,18.84
47.234,18.36
47.250,17.85
47.265,17.13
47.281,16.04
47.296,14.36
47.312,11.95
47.328,8.77
47.343,4.95
47.359,0.72
47.375,-3.57
47.390,-7.71
47.406,-11.62
47.421,-15.38
47.437,-19.25
47.453,-23.54
47.468,-28.51
47.484,-34.23
47.500,-40.5
47.515,-46.7
47.531,-51.9
47.546,-55.02
47.562,-55.19
47.578,-52.08
47.593,-46.02
47.609,-37.9
47.625,-28.82
47.640,-19.75
47.656,-11.25
47.671,-3.59
47.687,3.17
47.703,8.97
47.718,13.63
47.734,17.05
47.750,19.22
47.765,20.39
47.781,20.97
47.796,21.41
47.812,22.01
47.828,22.83
47.843,23.77
47.859,24.63
47.875,25.24
47.890,25.52
47.906,25.5
47.921,25.25
47.937,24.83
47.953,24.28
47.968,23.55
47.984,22.52
48.000,21.07
48.015,19.02
48.031,16.31
48.046,13.0
48.062,9.26
48.078,5.39
48.093,1.65
48.109,-1.78
48.125,-4.91
48.140,-7.91
48.156,-11.1
48.171,-14.77
48.187,-19.17
48.203,-24.38
48.218,-30.31
48.234,-36.62
48.250,-42.69
48.265,-47.66
48.281,-50.61
48.296,-50.76
48.312,-47.77
48.328,-41.89
48.343,-33.94
48.359,-25.03
48.375,-16.19
48.390,-8.12
48.406,-1.03
48.421,5.15
48.437,10.6
48.453,15.34
48.468,19.24
48.484,22.14
48.500,24.0
48.515,24.99
48.531,25.45
48.546,25.74
48.562,26.1
48.578,26.62
48.593,27.18
48.609,27.58
48.625,27.63
48.640,27.3
48.656,26.65
48.671,25.84
48.687,25.02
48.703,24.21
48.718,23.29
48.734,21.96
48.750,19.95
48.765,17.05
48.781,13.33
48.796,9.11
48.812,4.87
48.828,1.05
48.843,-2.14
48.859,-4.78
48.875,-7.17
48.890,-9.74
48.906,-12.82
48.921,-16.57
48.937,-21.02
48.953,-26.05
48.968,-31.36
48.984,-36.49
49.000,-40.72
49.015,-43.23
49.031,-43.27
49.046,-40.48
49.062,-35.11
49.078,-27.88
49.093,-19.81
49.109,-11.79
49.125,-4.4
49.140,2.2
49.156,8.05
49.171,13.17
49.187,17.43
49.203,20.61
49.218,22.54
49.234,23.28
49.250,23.19
49.265,22.76
49.281,22.45
49.296,22.5
49.312,22.85
49.328,23.26
49.343,23.41
49.359,23.08
49.375,22.3
49.390,21.25
49.406,20.13
49.421,19.08
49.437,18.02
49.453,16.69
49.468,14.84
49.484,12.28
49.500,9.05
49.515,5.38
49.531,1.66
49.546,-1.76
49.562,-4.67
49.578,-7.1
49.593,-9.28
49.609,-11.58
49.625,-14.37
49.640,-17.99
49.656,-22.62
49.671,-28.21
49.687,-34.39
49.703,-40.39
49.718,-45.19
49.734,-47.72
49.750,-47.19
49.765,-43.42
49.781,-36.92
49.796,-28.71
49.812,-19.91
49.828,-11.44
49.843,-3.76
49.859,2.99
49.875,8.84
49.890,13.75
49.906,17.56
49.921,20.09
49.937,21.34
49.953,21.57
49.968,21.24
49.984,20.86
50.000,20.78
50.015,21.11
50.031,21.67
50.046,22.15
50.062,22.25
50.078,21.82
50.093,20.91
50.109,19.73
50.125,18.49
50.140,17.32
50.156,16.14
50.171,14.71
50.187,12.74
50.203,10.07
50.218,6.71
50.234,2.9
50.250,-1.06
50.265,-4.85
50.281,-8.27
50.296,-11.27
50.312,-14.0
50.328,-16.75
50.343,-19.93
50.359,-23.91
50.375,-28.87
50.390,-34.55
50.406,-40.24
50.421,-44.88
50.437,-47.36
50.453,-46.92
50.468,-43.38
50.484,-37.21
50.500,-29.3
50.515,-20.62
50.531,-12.01
50.546,-4.01
50.562,3.06
50.578,9.03
50.593,13.72
50.609,17.03
50.625,18.99
50.640,19.84
50.656,20.02
50.671,20.04
50.687,20.31
50.703,20.95
50.718,21.87
50.734,22.73
50.750,23.21
50.765,23.11
50.781,22.5
50.796,21.66
50.812,20.88
50.828,20.32
50.843,19.84
50.859,19.1
50.875,17.7
50.890,15.4
50.906,12.16
50.921,8.25
50.937,4.06
50.953,-0.01
50.968,-3.71
50.984,-6.98
51.000,-9.93
51.015,-12.77
51.031,-15.76
51.046,-19.18
51.062,-23.33
51.078,-28.36
51.093,-34.24
51.109,-40.56
51.125,-46.47
51.140,-50.79
51.156,-52.34
51.171,-50.38
51.187,-44.92
51.203,-36.81
51.218,-27.37
51.234,-17.92
51.250,-9.34
51.265,-1.94
51.281,4.46
51.296,10.08
51.312,14.95
51.328,18.84
51.343,21.46
51.359,22.71
51.375,22.81
51.390,22.3
51.406,21.82
51.421,21.82
51.437,22.44
51.453,23.49
51.468,24.59
51.484,25.35
51.500,25.54
51.515,25.16
51.531,24.36
51.546,23.32
51.562,22.15
51.578,20.88
51.593,19.37
51.609,17.45
51.625,15.0
51.640,11.97
51.656,8.43
51.671,4.6
51.687,0.71
51.703,-3.0
51.718,-6.4
51.734,-9.47
51.750,-12.32
51.765,-15.13
51.781,-18.17
51.796,-21.72
51.812,-25.95
51.828,-30.91
51.843,-36.28
51.859,-41.37
51.875,-45.24
51.890,-46.91
51.906,-45.76
51.921,-41.73
51.937,-35.37
51.953,-27.6
51.968,-19.35
51.984,-11.31
52.000,-3.8
52.015,3.06
52.031,9.22
52.046,14.5
52.062,18.67
52.078,21.52
52.093,23.07
52.109,23.6
52.125,23.58
52.140,23.51
52.156,23.77
52.171,24.5
52.187,25.61
52.203,26.86
52.218,27.94
52.234,28.58
52.250,28.63
52.265,28.09
52.281,27.05
52.296,25.75
52.312,24.34
52.328,22.88
52.343,21.25
52.359,19.18
52.375,16.44
52.390,12.93
52.406,8.84
52.421,4.53
52.437,0.4
52.453,-3.31
52.468,-6.61
52.484,-9.72
52.500,-12.93
52.515,-16.54
52.531,-20.71
52.546,-25.49
52.562,-30.74
52.578,-36.05
52.593,-40.72
52.609,-43.84
52.625,-44.52
52.640,-42.23
52.656,-37.03
52.671,-29.59
52.687,-20.99
52.703,-12.31
52.718,-4.36
52.734,2.47
52.750,8.11
52.765,12.66
52.781,16.1
52.796,18.41
52.812,19.58
52.828,19.75
52.843,19.32
52.859,18.78
52.875,18.57
52.890,18.91
52.906,19.69
52.921,20.57
52.937,21.11
52.953,20.99
52.968,20.12
52.984,18.66
53.000,16.97
53.015,15.44
53.031,14.34
53.046,13.74
53.062,13.42
53.078,13.04
53.093,12.14
53.109,10.41
53.125,7.76
53.140,4.37
53.156,0.59
53.171,-3.21
53.187,-6.8
53.203,-10.16
53.218,-13.55
53.234,-17.4
53.250,-22.07
53.265,-27.71
53.281,-33.98
53.296,-40.1
53.312,-44.93
53.328,-47.33
53.343,-46.53
53.359,-42.42
53.375,-35.55
53.390,-26.97
53.406,-17.8
53.421,-8.9
53.437,-0.8
53.453,6.28
53.468,12.18
53.484,16.73
53.500,19.74
53.515,21.23
53.531,21.49
53.546,21.07
53.562,20.61
53.578,20.57
53.593,21.09
53.609,22.0
53.625,22.96
53.640,23.62
53.656,23.79
53.671,23.44
53.687,22.66
53.703,21.63
53.718,20.48
53.734,19.3
53.750,18.06
53.765,16.61
53.781,14.72
53.796,12.19
53.812,8.99
53.828,5.3
53.843,1.54
53.859,-1.86
53.875,-4.62
53.890,-6.81
53.906,-8.82
53.921,-11.24
53.937,-14.66
53.953,-19.47
53.968,-25.73
53.984,-33.04
54.000,-40.6
54.015,-47.27
54.031,-51.88
54.046,-53.43
54.062,-51.46
54.078,-46.2
54.093,-38.48
54.109,-29.5
54.125,-20.37
54.140,-11.9
54.156,-4.4
54.171,2.15
54.187,7.82
54.203,12.6
54.218,16.37
54.234,19.04
54.250,20.65
54.265,21.49
54.281,21.94
54.296,22.32
54.312,22.7
54.328,22.94
54.343,22.81
54.359,22.18
54.375,21.16
54.390,19.99
54.406,18.99
54.421,18.26
54.437,17.71
54.453,17.09
54.468,16.05
54.484,14.39
54.500,12.04
54.515,9.11
54.531,5.79
54.546,2.31
54.562,-1.12
54.578,-4.4
54.593,-7.5
54.609,-10.6
54.625,-13.86
54.640,-17.5
54.656,-21.64
54.671,-26.28
54.687,-31.31
54.703,-36.43
54.718,-41.16
54.734,-44.79
54.750,-46.55
54.765,-45.76
54.781,-42.18
54.796,-36.04
54.812,-28.09
54.828,-19.31
54.843,-10.63
54.859,-2.65
54.875,4.44
54.890,10.62
54.906,15.94
54.921,20.36
54.937,23.74
54.953,26.03
54.968,27.33
54.984,27.91
55.000,28.16
55.015,28.38
55.031,28.73
55.046,29.16
55.062,29.52
55.078,29.59
55.093,29.33
55.109,28.83
55.125,28.33
55.140,28.06
55.156,28.11
55.171,28.33
55.187,28.35
55.203,27.76
55.218,26.22
55.234,23.65
55.250,20.24
55.265,16.36
55.281,12.4
55.296,8.62
55.312,5.11
55.328,1.79
55.343,-1.49
55.359,-4.91
55.375,-8.67
55.390,-12.89
55.406,-17.52
55.421,-22.21
55.437,-26.27
55.453,-28.76
55.468,-28.81
55.484,-25.89
55.500,-20.07
55.515,-12.05
55.531,-2.9
55.546,6.27
55.562,14.69
55.578,22.01
55.593,28.24
55.609,33.53
55.625,38.02
55.640,41.75
55.656,44.72
55.671,47.09
55.687,49.14
55.703,51.25
55.718,53.73
55.734,56.63
55.750,59.73
55.765,62.65
55.781,64.91
55.796,66.14
55.812,66.08
55.828,64.44
55.843,60.87
55.859,54.89
55.875,46.01
55.890,34.03
55.906,19.26
55.921,2.64
55.937,-14.38
55.953,-30.31
55.968,-44.09
55.984,-55.36
56.000,-64.56
56.015,-72.71
56.031,-80.94
56.046,-90.07
56.062,-100.26
56.078,-110.83
56.093,-120.51
56.109,-127.67
56.125,-130.88
56.140,-129.19
56.156,-122.39
56.171,-110.93
56.187,-95.67
56.203,-77.64
56.218,-57.85
56.234,-37.25
56.250,-16.83
56.265,2.45
56.281,19.64
56.296,33.99
56.312,45.08
56.328,52.84
56.343,57.43
56.359,59.25
56.375,58.78
56.390,56.53
56.406,53.15
56.421,49.28
56.437,45.59
56.453,42.68
56.468,41.0
56.484,40.73
56.500,41.82
56.515,44.01
56.531,46.89
56.546,50.07
56.562,53.22
56.578,56.11
56.593,58.52
56.609,60.26
56.625,61.13
56.640,61.0
56.656,59.9
56.671,58.0
56.687,55.55
56.703,52.81
56.718,49.99
56.734,47.12
56.750,44.07
56.765,40.63
56.781,36.58
56.796,31.8
56.812,26.29
56.828,20.24
56.843,13.91
56.859,7.56
56.875,1.5
56.890,-3.93
56.906,-8.08
56.921,-10.01
56.937,-8.61
56.953,-3.12
56.968,6.52
56.984,19.4
57.000,33.9
57.015,48.35
57.031,61.67
57.046,73.67
57.062,84.84
57.078,95.67
57.093,106.15
57.109,115.48
57.125,122.47
57.140,126.18
57.156,126.39
57.171,123.6
57.187,118.65
57.203,112.15
57.218,104.36
57.234,95.38
57.250,85.61
57.265,75.99
57.281,67.8
57.296,62.03
57.312,58.81
57.328,57.26
57.343,55.97
57.359,53.65
57.375,49.68
57.390,44.09
57.406,37.16
57.421,28.91
57.437,19.01
57.453,7.01
57.468,-7.16
57.484,-22.65
57.500,-37.58
57.515,-49.27
57.531,-54.98
57.546,-52.92
57.562,-43.16
57.578,-28.02
57.593,-11.33
57.609,2.99
57.625,12.77
57.640,18.78
57.656,24.54
57.671,34.64
57.687,52.29
57.703,77.36
57.718,105.85
57.734,131.51
57.750,148.37
57.765,153.3
57.781,146.94
57.796,132.98
57.812,115.92
57.828,99.01
57.843,83.05
57.859,66.81
57.875,48.42
57.890,27.01
57.906,3.18
57.921,-21.44
57.937,-45.23
57.953,-67.0
57.968,-85.9
57.984,-100.68
58.000,-109.75
58.015,-111.77
58.031,-106.99
58.046,-98.03
58.062,-89.34
58.078,-85.67
58.093,-90.2
58.109,-103.54
58.125,-124.36
58.140,-150.86
58.156,-182.4
58.171,-219.41
58.187,-261.79
58.203,-306.69
58.218,-347.31
58.234,-373.8
58.250,-376.13
58.265,-347.85
58.281,-289.21
58.296,-208.0
58.312,-118.01
58.328,-35.08
58.343,27.26
58.359,61.14
58.375,65.23
58.390,43.43
58.406,2.5
58.421,-49.78
58.437,-105.32
58.453,-155.51
58.468,-191.23
58.484,-203.93
58.500,-188.12
58.515,-143.91
58.531,-78.33
58.546,-4.51
58.562,61.94
58.578,107.44
58.593,124.03
58.609,110.85
58.625,72.97
58.640,18.89
58.656,-42.48
58.671,-103.97
58.687,-160.76
58.703,-209.67
58.718,-248.14
58.734,-273.13
58.750,-281.37
58.765,-270.19
58.781,-239.15
58.796,-190.68
58.812,-129.75
58.828,-62.21
58.843,7.07
58.859,75.13
58.875,140.32
58.890,200.81
58.906,253.01
58.921,291.43
58.937,310.15
58.953,305.19
58.968,276.58
58.984,228.71
59.000,168.88
59.015,104.63
59.031,41.47
59.046,-18.16
59.062,-74.0
59.078,-126.01
59.093,-172.6
59.109,-210.15
59.125,-233.73
59.140,-239.01
59.156,-223.8
59.171,-188.68
59.187,-136.37
59.203,-70.35
59.218,5.84
59.234,88.18
59.250,170.78
59.265,245.08
59.281,300.46
59.296,326.92
59.312,319.42
59.328,280.88
59.343,223.01
59.359,163.05
59.375,117.56
59.390,96.06
59.406,97.4
59.421,110.96
59.437,122.02
59.453,118.73
59.468,97.25
59.484,63.32
59.500,29.28
59.515,8.61
59.531,10.33
59.546,35.64
59.562,77.84
59.578,125.3
59.593,165.89
59.609,190.65
59.625,195.79
59.640,182.18
59.656,153.63
59.671,114.68
59.687,69.16
59.703,20.21
59.718,-28.95
59.734,-74.44
59.750,-112.38
59.765,-140.35
59.781,-158.99
59.796,-172.56
59.812,-186.99
59.828,-207.25
59.843,-234.71
59.859,-266.24
59.875,-295.62
59.890,-316.34
59.906,-324.55
59.921,-320.65
59.937,-308.77
59.953,-294.89
59.968,-284.42
59.984,-280.42
