timestamp,value
00.000,6.78
00.015,6.43
00.031,6.18
00.046,5.76
00.062,4.97
00.078,3.83
00.093,2.43
00.109,0.88
00.125,-0.72
00.140,-2.37
00.156,-4.11
00.171,-5.9
00.187,-7.63
00.203,-9.2
00.218,-10.53
00.234,-11.67
00.250,-12.77
00.265,-14.03
00.281,-15.56
00.296,-17.34
00.312,-19.17
00.328,-20.73
00.343,-21.7
00.359,-21.73
00.375,-20.6
00.390,-18.17
00.406,-14.5
00.421,-9.79
00.437,-4.41
00.453,1.12
00.468,6.22
00.484,10.42
00.500,13.54
00.515,15.65
00.531,17.02
00.546,17.96
00.562,18.7
00.578,19.32
00.593,19.8
00.609,20.17
00.625,20.53
00.640,21.04
00.656,21.83
00.671,22.87
00.687,24.01
00.703,25.11
00.718,26.12
00.734,27.15
00.750,28.41
00.765,30.09
00.781,32.17
00.796,34.4
00.812,36.39
00.828,37.76
00.843,38.33
00.859,38.23
00.875,37.84
00.890,37.77
00.906,38.56
00.921,40.6
00.937,43.92
00.953,48.24
00.968,53.01
00.984,57.58
01.000,61.48
01.015,64.5
01.031,66.9
01.046,69.27
01.062,72.44
01.078,77.26
01.093,84.26
01.109,93.43
01.125,103.98
01.140,114.31
01.156,122.3
01.171,125.82
01.187,123.43
01.203,114.89
01.218,101.33
01.234,84.76
01.250,67.38
01.265,50.82
01.281,35.64
01.296,21.5
01.312,7.75
01.328,-5.72
01.343,-18.12
01.359,-27.85
01.375,-33.16
01.390,-32.99
01.406,-27.42
01.421,-17.68
01.437,-5.73
01.453,6.35
01.468,16.81
01.484,24.35
01.500,28.16
01.515,27.83
01.531,23.49
01.546,15.89
01.562,6.35
01.578,-3.54
01.593,-12.34
01.609,-19.13
01.625,-23.59
01.640,-25.73
01.656,-25.5
01.671,-22.73
01.687,-17.19
01.703,-8.87
01.718,1.74
01.734,13.63
01.750,25.53
01.765,36.15
01.781,44.64
01.796,50.6
01.812,53.9
01.828,54.45
01.843,52.07
01.859,46.56
01.875,38.03
01.890,27.08
01.906,14.84
01.921,2.8
01.937,-7.67
01.953,-15.73
01.968,-21.23
01.984,-24.68
02.000,-26.89
02.015,-28.67
02.031,-30.6
02.046,-32.92
02.062,-35.67
02.078,-38.7
02.093,-41.84
02.109,-44.85
02.125,-47.48
02.140,-49.46
02.156,-50.53
02.171,-50.51
02.187,-49.29
02.203,-46.88
02.218,-43.37
02.234,-38.9
02.250,-33.56
02.265,-27.46
02.281,-20.68
02.296,-13.41
02.312,-5.94
02.328,1.35
02.343,8.05
02.359,13.96
02.375,19.02
02.390,23.44
02.406,27.45
02.421,31.27
02.437,35.04
02.453,38.83
02.468,42.66
02.484,46.37
02.500,49.59
02.515,51.78
02.531,52.36
02.546,50.89
02.562,47.21
02.578,41.39
02.593,33.77
02.609,24.87
02.625,15.35
02.640,5.92
02.656,-2.98
02.671,-11.42
02.687,-20.1
02.703,-30.0
02.718,-41.81
02.734,-55.34
02.750,-69.28
02.765,-81.77
02.781,-91.18
02.796,-97.08
02.812,-100.26
02.828,-102.24
02.843,-104.27
02.859,-106.69
02.875,-108.84
02.890,-109.68
02.906,-108.44
02.921,-105.08
02.937,-100.26
02.953,-94.88
02.968,-89.54
02.984,-84.41
03.000,-79.24
03.015,-73.75
03.031,-67.95
03.046,-62.21
03.062,-57.03
03.078,-52.81
03.093,-49.59
03.109,-46.96
03.125,-44.4
03.140,-41.37
03.156,-37.76
03.171,-33.84
03.187,-30.26
03.203,-27.62
03.218,-26.25
03.234,-26.0
03.250,-26.29
03.265,-26.28
03.281,-25.16
03.296,-22.52
03.312,-18.44
03.328,-13.41
03.343,-8.22
03.359,-3.76
03.375,-0.86
03.390,-0.16
03.406,-1.75
03.421,-5.04
03.437,-8.91
03.453,-12.1
03.468,-13.6
03.484,-13.16
03.500,-11.25
03.515,-8.67
03.531,-6.11
03.546,-3.84
03.562,-1.71
03.578,0.53
03.593,2.85
03.609,5.08
03.625,7.02
03.640,8.83
03.656,11.11
03.671,14.6
03.687,19.74
03.703,26.46
03.718,34.17
03.734,42.05
03.750,49.34
03.765,55.5
03.781,60.2
03.796,63.29
03.812,64.67
03.828,64.29
03.843,62.33
03.859,59.15
03.875,55.35
03.890,51.57
03.906,48.29
03.921,45.78
03.937,43.99
03.953,42.45
03.968,40.32
03.984,36.57
04.000,30.18
04.015,20.55
04.031,7.77
04.046,-7.26
04.062,-23.0
04.078,-37.73
04.093,-50.09
04.109,-59.4
04.125,-65.68
04.140,-69.4
04.156,-71.14
04.171,-71.37
04.187,-70.4
04.203,-68.53
04.218,-66.02
04.234,-63.16
04.250,-60.12
04.265,-57.0
04.281,-53.72
04.296,-50.31
04.312,-46.85
04.328,-43.56
04.343,-40.68
04.359,-38.23
04.375,-36.07
04.390,-33.91
04.406,-31.53
04.421,-28.81
04.437,-25.77
04.453,-22.49
04.468,-19.03
04.484,-15.45
04.500,-11.85
04.515,-8.48
04.531,-5.66
04.546,-3.69
04.562,-2.66
04.578,-2.4
04.593,-2.56
04.609,-2.63
04.625,-2.33
04.640,-1.58
04.656,-0.6
04.671,0.21
04.687,0.51
04.703,0.13
04.718,-0.87
04.734,-2.15
04.750,-3.33
04.765,-4.13
04.781,-4.45
04.796,-4.39
04.812,-4.18
04.828,-3.9
04.843,-3.58
04.859,-3.07
04.875,-2.2
04.890,-0.88
04.906,0.85
04.921,2.83
04.937,4.81
04.953,6.53
04.968,7.88
04.984,8.86
05.000,9.62
05.015,10.25
05.031,10.81
05.046,11.24
05.062,11.54
05.078,11.91
05.093,12.83
05.109,15.06
05.125,19.35
05.140,26.12
05.156,35.23
05.171,46.0
05.187,57.41
05.203,68.47
05.218,78.46
05.234,87.05
05.250,94.07
05.265,99.43
05.281,102.98
05.296,104.65
05.312,104.6
05.328,103.23
05.343,101.17
05.359,98.89
05.375,96.39
05.390,93.0
05.406,87.69
05.421,79.57
05.437,68.49
05.453,55.23
05.468,41.16
05.484,27.6
05.500,15.25
05.515,3.87
05.531,-7.35
05.546,-19.16
05.562,-31.75
05.578,-44.52
05.593,-56.42
05.609,-66.34
05.625,-73.56
05.640,-77.66
05.656,-78.59
05.671,-76.42
05.687,-71.44
05.703,-64.44
05.718,-56.78
05.734,-50.17
05.750,-46.33
05.765,-46.29
05.781,-50.05
05.796,-56.56
05.812,-64.04
05.828,-70.61
05.843,-74.77
05.859,-75.61
05.875,-72.85
05.890,-66.82
05.906,-58.32
05.921,-48.61
05.937,-39.23
05.953,-31.67
05.968,-27.07
05.984,-25.85
06.000,-27.61
06.015,-31.33
06.031,-35.74
06.046,-39.85
06.062,-43.08
06.078,-45.3
06.093,-46.57
06.109,-46.79
06.125,-45.64
06.140,-42.69
06.156,-37.71
06.171,-30.9
06.187,-23.0
06.203,-15.08
06.218,-8.3
06.234,-3.5
06.250,-1.01
06.265,-0.61
06.281,-1.66
06.296,-3.42
06.312,-5.23
06.328,-6.66
06.343,-7.59
06.359,-8.18
06.375,-8.94
06.390,-10.53
06.406,-13.63
06.421,-18.63
06.437,-25.35
06.453,-33.05
06.468,-40.53
06.484,-46.51
06.500,-50.07
06.515,-50.84
06.531,-49.02
06.546,-45.18
06.562,-39.97
06.578,-33.91
06.593,-27.42
06.609,-20.82
06.625,-14.39
06.640,-8.38
06.656,-2.96
06.671,1.78
06.687,5.7
06.703,8.7
06.718,10.7
06.734,11.69
06.750,11.77
06.765,11.09
06.781,9.87
06.796,8.4
06.812,6.98
06.828,5.98
06.843,5.81
06.859,6.72
06.875,8.69
06.890,11.34
06.906,14.05
06.921,16.1
06.937,17.01
06.953,16.53
06.968,14.7
06.984,11.72
07.000,7.74
07.015,2.84
07.031,-3.04
07.046,-9.93
07.062,-17.82
07.078,-26.44
07.093,-35.24
07.109,-43.38
07.125,-49.89
07.140,-53.94
07.156,-55.09
07.171,-53.3
07.187,-48.88
07.203,-42.24
07.218,-33.65
07.234,-23.22
07.250,-11.0
07.265,2.8
07.281,17.62
07.296,32.69
07.312,47.21
07.328,60.57
07.343,72.45
07.359,82.64
07.375,90.83
07.390,96.47
07.406,98.89
07.421,97.44
07.437,91.74
07.453,81.88
07.468,68.31
07.484,51.97
07.500,34.11
07.515,16.33
07.531,0.33
07.546,-12.32
07.562,-20.64
07.578,-24.69
07.593,-25.64
07.609,-25.57
07.625,-26.64
07.640,-30.41
07.656,-37.18
07.671,-45.95
07.687,-54.86
07.703,-61.87
07.718,-65.52
07.734,-65.24
07.750,-61.45
07.765,-55.02
07.781,-47.02
07.796,-38.41
07.812,-30.12
07.828,-23.13
07.843,-18.39
07.859,-16.63
07.875,-18.09
07.890,-22.32
07.906,-28.11
07.921,-33.68
07.937,-37.19
07.953,-37.14
07.968,-32.88
07.984,-24.67
08.000,-13.61
08.015,-1.28
08.031,10.78
08.046,21.42
08.062,30.13
08.078,36.85
08.093,41.77
08.109,44.96
08.125,46.35
08.140,45.83
08.156,43.5
08.171,39.85
08.187,35.51
08.203,31.09
08.218,26.77
08.234,22.39
08.250,17.4
08.265,11.36
08.281,4.09
08.296,-4.19
08.312,-13.02
08.328,-21.88
08.343,-30.4
08.359,-38.27
08.375,-45.13
08.390,-50.69
08.406,-54.71
08.421,-57.09
08.437,-57.99
08.453,-57.61
08.468,-55.97
08.484,-52.89
08.500,-47.93
08.515,-40.73
08.531,-31.27
08.546,-20.07
08.562,-8.01
08.578,3.78
08.593,14.25
08.609,22.67
08.625,28.75
08.640,32.75
08.656,35.49
08.671,38.08
08.687,41.74
08.703,47.39
08.718,55.4
08.734,65.63
08.750,77.5
08.765,90.29
08.781,103.33
08.796,116.21
08.812,128.68
08.828,140.64
08.843,152.11
08.859,163.03
08.875,172.97
08.890,180.94
08.906,185.45
08.921,185.08
08.937,179.22
08.953,168.49
08.968,154.85
08.984,140.59
09.000,127.43
09.015,115.72
09.031,104.47
09.046,92.11
09.062,77.48
09.078,60.43
09.093,41.67
09.109,22.35
09.125,3.35
09.140,-14.86
09.156,-31.93
09.171,-47.24
09.187,-59.74
09.203,-68.29
09.218,-72.16
09.234,-71.68
09.250,-68.08
09.265,-63.25
09.281,-58.94
09.296,-56.14
09.312,-54.93
09.328,-54.58
09.343,-54.08
09.359,-52.67
09.375,-50.32
09.390,-47.9
09.406,-46.97
09.421,-49.2
09.437,-55.71
09.453,-66.65
09.468,-81.11
09.484,-97.36
09.500,-113.22
09.515,-126.57
09.531,-135.57
09.546,-138.92
09.562,-135.91
09.578,-126.66
09.593,-112.21
09.609,-94.39
09.625,-75.46
09.640,-57.34
09.656,-41.08
09.671,-26.72
09.687,-13.7
09.703,-1.5
09.718,9.88
09.734,19.88
09.750,27.88
09.765,33.6
09.781,37.4
09.796,40.12
09.812,42.63
09.828,45.31
09.843,47.87
09.859,49.59
09.875,49.7
09.890,47.88
09.906,44.27
09.921,39.37
09.937,33.64
09.953,27.2
09.968,19.7
09.984,10.47
10.000,-1.14
10.015,-15.29
10.031,-31.47
10.046,-48.42
10.062,-64.36
10.078,-77.37
10.093,-85.84
10.109,-88.87
10.125,-86.58
10.140,-80.02
10.156,-70.86
10.171,-60.83
10.187,-51.14
10.203,-42.29
10.218,-34.14
10.234,-26.41
10.250,-19.09
10.265,-12.62
10.281,-7.65
10.296,-4.85
10.312,-4.55
10.328,-6.83
10.343,-11.48
10.359,-18.08
10.375,-25.93
10.390,-33.99
10.406,-40.91
10.421,-45.29
10.437,-46.12
10.453,-43.07
10.468,-36.59
10.484,-27.73
10.500,-17.69
10.515,-7.48
10.531,2.12
10.546,10.59
10.562,17.57
10.578,22.81
10.593,26.32
10.609,28.37
10.625,29.44
10.640,30.05
10.656,30.61
10.671,31.33
10.687,32.15
10.703,32.83
10.718,33.0
10.734,32.44
10.750,31.13
10.765,29.28
10.781,27.25
10.796,25.4
10.812,23.98
10.828,23.0
10.843,22.27
10.859,21.56
10.875,20.72
10.890,19.77
10.906,18.87
10.921,18.14
10.937,17.53
10.953,16.79
10.968,15.53
10.984,13.52
11.000,10.78
11.015,7.6
11.031,4.51
11.046,1.99
11.062,0.26
11.078,-0.83
11.093,-1.81
11.109,-3.35
11.125,-6.0
11.140,-9.92
11.156,-14.85
11.171,-20.09
11.187,-24.64
11.203,-27.47
11.218,-27.67
11.234,-24.61
11.250,-17.95
11.265,-7.72
11.281,5.53
11.296,20.74
11.312,36.47
11.328,51.22
11.343,63.88
11.359,73.94
11.375,81.58
11.390,87.38
11.406,92.02
11.421,95.78
11.437,98.54
11.453,99.91
11.468,99.57
11.484,97.63
11.500,94.79
11.515,92.09
11.531,90.6
11.546,91.09
11.562,93.92
11.578,99.01
11.593,105.98
11.609,114.25
11.625,123.05
11.640,131.51
11.656,138.73
11.671,143.91
11.687,146.61
11.703,146.82
11.718,144.94
11.734,141.46
11.750,136.72
11.765,130.72
11.781,123.18
11.796,113.67
11.812,101.82
11.828,87.45
11.843,70.64
11.859,51.69
11.875,31.15
11.890,9.72
11.906,-11.65
11.921,-32.02
11.937,-50.59
11.953,-66.89
11.968,-80.92
11.984,-93.05
12.000,-103.78
12.015,-113.38
12.031,-121.74
12.046,-128.36
12.062,-132.65
12.078,-134.29
12.093,-133.51
12.109,-131.1
12.125,-128.01
12.140,-125.09
12.156,-122.69
12.171,-120.68
12.187,-118.64
12.203,-116.22
12.218,-113.24
12.234,-109.86
12.250,-106.43
12.265,-103.39
12.281,-101.07
12.296,-99.64
12.312,-99.0
12.328,-98.7
12.343,-97.95
12.359,-95.65
12.375,-90.64
12.390,-82.1
12.406,-69.8
12.421,-54.35
12.437,-36.98
12.453,-19.18
12.468,-2.27
12.484,12.7
12.500,25.05
12.515,34.41
12.531,40.69
12.546,44.27
12.562,46.03
12.578,47.22
12.593,49.01
12.609,51.96
12.625,55.75
12.640,59.42
12.656,62.0
12.671,63.12
12.687,63.24
12.703,63.4
12.718,64.59
12.734,67.11
12.750,70.42
12.765,73.39
12.781,74.55
12.796,72.52
12.812,66.12
12.828,54.59
12.843,37.91
12.859,17.18
12.875,-5.4
12.890,-26.93
12.906,-44.49
12.921,-56.05
12.937,-60.88
12.953,-59.61
12.968,-53.77
12.984,-45.51
13.000,-37.06
13.015,-30.43
13.031,-27.07
13.046,-27.51
13.062,-31.24
13.078,-36.69
13.093,-41.9
13.109,-45.09
13.125,-45.31
13.140,-42.56
13.156,-37.41
13.171,-30.4
13.187,-21.9
13.203,-12.04
13.218,-1.02
13.234,10.6
13.250,21.83
13.265,31.48
13.281,38.42
13.296,41.86
13.312,41.5
13.328,37.48
13.343,30.1
13.359,19.86
13.375,7.5
13.390,-6.06
13.406,-19.61
13.421,-31.87
13.437,-41.76
13.453,-48.74
13.468,-52.93
13.484,-55.04
13.500,-55.99
13.515,-56.56
13.531,-57.13
13.546,-57.73
13.562,-58.22
13.578,-58.57
13.593,-59.01
13.609,-59.83
13.625,-61.21
13.640,-62.94
13.656,-64.44
13.671,-64.83
13.687,-63.24
13.703,-59.15
13.718,-52.56
13.734,-44.05
13.750,-34.47
13.765,-24.77
13.781,-15.59
13.796,-7.26
13.812,0.15
13.828,6.72
13.843,12.43
13.859,17.15
13.875,20.68
13.890,22.96
13.906,24.05
13.921,24.19
13.937,23.69
13.953,22.83
13.968,21.82
13.984,20.75
14.000,19.68
14.015,18.65
14.031,17.79
14.046,17.18
14.062,16.89
14.078,16.9
14.093,17.18
14.109,17.68
14.125,18.26
14.140,18.86
14.156,19.4
14.171,19.8
14.187,20.02
14.203,20.04
14.218,19.96
14.234,19.96
14.250,20.35
14.265,21.42
14.281,23.29
14.296,25.89
14.312,28.84
14.328,31.63
14.343,33.82
14.359,35.26
14.375,36.11
14.390,36.81
14.406,37.83
14.421,39.53
14.437,42.01
14.453,45.21
14.468,49.03
14.484,53.41
14.500,58.41
14.515,64.1
14.531,70.45
14.546,77.07
14.562,83.33
14.578,88.37
14.593,91.52
14.609,92.56
14.625,91.63
14.640,89.02
14.656,85.05
14.671,79.87
14.687,73.59
14.703,66.69
14.718,60.26
14.734,55.72
14.750,53.97
14.765,54.52
14.781,55.46
14.796,54.22
14.812,49.04
14.828,39.92
14.843,28.6
14.859,17.48
14.875,8.25
14.890,0.95
14.906,-5.81
14.921,-13.65
14.937,-23.33
14.953,-34.26
14.968,-44.94
14.984,-53.87
15.000,-60.36
15.015,-64.5
15.031,-66.78
15.046,-67.59
15.062,-67.02
15.078,-65.23
15.093,-62.73
15.109,-60.49
15.125,-59.65
15.140,-61.2
15.156,-65.39
15.171,-71.59
15.187,-78.35
15.203,-83.81
15.218,-86.36
15.234,-85.05
15.250,-79.94
15.265,-71.93
15.281,-62.5
15.296,-53.11
15.312,-44.87
15.328,-38.31
15.343,-33.57
15.359,-30.75
15.375,-30.04
15.390,-31.88
15.406,-36.68
15.421,-44.6
15.437,-55.33
15.453,-68.03
15.468,-81.57
15.484,-94.7
15.500,-106.3
15.515,-115.34
15.531,-120.92
15.546,-122.37
15.562,-119.4
15.578,-112.26
15.593,-101.82
15.609,-89.48
15.625,-76.87
15.640,-65.45
15.656,-56.25
15.671,-49.72
15.687,-45.68
15.703,-43.59
15.718,-42.78
15.734,-42.53
15.750,-42.44
15.765,-42.29
15.781,-42.08
15.796,-41.97
15.812,-42.2
15.828,-43.0
15.843,-44.59
15.859,-47.11
15.875,-50.5
15.890,-54.41
15.906,-58.09
15.921,-60.44
15.937,-60.31
15.953,-56.73
15.968,-49.28
15.984,-38.31
16.000,-24.84
16.015,-10.28
16.031,4.03
16.046,17.12
16.062,28.57
16.078,38.48
16.093,47.2
16.109,55.04
16.125,62.1
16.140,68.16
16.156,72.94
16.171,76.13
16.187,77.66
16.203,77.75
16.218,76.83
16.234,75.49
16.250,74.21
16.265,73.32
16.281,72.84
16.296,72.61
16.312,72.35
16.328,71.79
16.343,70.78
16.359,69.28
16.375,67.31
16.390,64.93
16.406,62.2
16.421,59.18
16.437,55.91
16.453,52.4
16.468,48.61
16.484,44.45
16.500,39.86
16.515,34.84
16.531,29.55
16.546,24.27
16.562,19.28
16.578,14.69
16.593,10.37
16.609,6.02
16.625,1.19
16.640,-4.45
16.656,-10.97
16.671,-18.12
16.687,-25.27
16.703,-31.5
16.718,-35.8
16.734,-37.26
16.750,-35.35
16.765,-30.11
16.781,-22.13
16.796,-12.41
16.812,-2.04
16.828,8.2
16.843,17.93
16.859,27.06
16.875,35.55
16.890,43.29
16.906,49.95
16.921,55.27
16.937,59.1
16.953,61.66
16.968,63.47
16.984,65.11
17.000,67.05
17.015,69.38
17.031,71.92
17.046,74.32
17.062,76.33
17.078,77.94
17.093,79.36
17.109,81.02
17.125,83.2
17.140,85.96
17.156,89.01
17.171,91.91
17.187,94.27
17.203,95.97
17.218,97.32
17.234,98.82
17.250,101.04
17.265,104.23
17.281,108.28
17.296,112.74
17.312,116.98
17.328,120.47
17.343,122.87
17.359,124.12
17.375,124.38
17.390,123.96
17.406,123.14
17.421,122.0
17.437,120.28
17.453,117.28
17.468,111.89
17.484,102.78
17.500,88.76
17.515,69.16
17.531,44.28
17.546,15.54
17.562,-14.62
17.578,-43.19
17.593,-67.33
17.609,-85.03
17.625,-95.49
17.640,-99.09
17.656,-97.06
17.671,-90.92
17.687,-82.08
17.703,-71.69
17.718,-60.68
17.734,-49.93
17.750,-40.22
17.765,-32.17
17.781,-26.11
17.796,-22.07
17.812,-19.8
17.828,-18.91
17.843,-19.05
17.859,-19.92
17.875,-21.33
17.890,-23.22
17.906,-25.48
17.921,-27.95
17.937,-30.48
17.953,-32.83
17.968,-34.77
17.984,-36.17
18.000,-36.97
18.015,-37.23
18.031,-37.16
18.046,-36.97
18.062,-36.86
18.078,-36.97
18.093,-37.34
18.109,-37.96
18.125,-38.72
18.140,-39.43
18.156,-39.85
18.171,-39.81
18.187,-39.28
18.203,-38.46
18.218,-37.68
18.234,-37.31
18.250,-37.52
18.265,-38.25
18.281,-39.22
18.296,-40.11
18.312,-40.75
18.328,-41.15
18.343,-41.52
18.359,-42.14
18.375,-43.2
18.390,-44.85
18.406,-47.19
18.421,-50.33
18.437,-54.26
18.453,-58.76
18.468,-63.22
18.484,-66.66
18.500,-68.04
18.515,-66.54
18.531,-61.87
18.546,-54.43
18.562,-45.09
18.578,-34.89
18.593,-24.78
18.609,-15.39
18.625,-7.0
18.640,0.25
18.656,6.3
18.671,11.07
18.687,14.55
18.703,16.84
18.718,18.23
18.734,19.05
18.750,19.61
18.765,20.04
18.781,20.33
18.796,20.35
18.812,20.01
18.828,19.31
18.843,18.34
18.859,17.25
18.875,16.17
18.890,15.18
18.906,14.34
18.921,13.67
18.937,13.16
18.953,12.68
18.968,12.01
18.984,10.92
19.000,9.24
19.015,6.9
19.031,4.08
19.046,1.0
19.062,-2.13
19.078,-5.18
19.093,-8.23
19.109,-11.37
19.125,-14.71
19.140,-18.24
19.156,-21.87
19.171,-25.41
19.187,-28.69
19.203,-31.63
19.218,-34.25
19.234,-36.66
19.250,-38.95
19.265,-41.3
19.281,-43.81
19.296,-46.62
19.312,-49.91
19.328,-53.72
19.343,-57.89
19.359,-61.93
19.375,-65.05
19.390,-66.39
19.406,-65.35
19.421,-61.82
19.437,-56.18
19.453,-49.23
19.468,-41.76
19.484,-34.35
19.500,-27.27
19.515,-20.5
19.531,-13.98
19.546,-7.77
19.562,-2.14
19.578,2.6
19.593,6.09
19.609,8.13
19.625,8.64
19.640,7.74
19.656,5.69
19.671,2.89
19.687,-0.22
19.703,-3.2
19.718,-5.7
19.734,-7.52
19.750,-8.65
19.765,-9.18
19.781,-9.24
19.796,-8.84
19.812,-7.92
19.828,-6.41
19.843,-4.36
19.859,-1.99
19.875,0.28
19.890,2.01
19.906,2.91
19.921,2.81
19.937,1.72
19.953,-0.32
19.968,-3.16
19.984,-6.63
20.000,-10.36
20.015,-13.97
20.031,-17.07
20.046,-19.36
20.062,-20.83
20.078,-21.55
20.093,-21.71
20.109,-21.48
20.125,-21.14
20.140,-21.07
20.156,-21.79
20.171,-23.76
20.187,-27.25
20.203,-32.08
20.218,-37.66
20.234,-43.13
20.250,-47.58
20.265,-50.3
20.281,-50.77
20.296,-48.75
20.312,-44.17
20.328,-37.15
20.343,-28.13
20.359,-17.85
20.375,-7.22
20.390,2.83
20.406,11.61
20.421,18.82
20.437,24.49
20.453,28.77
20.468,31.77
20.484,33.37
20.500,33.44
20.515,31.9
20.531,29.03
20.546,25.41
20.562,21.85
20.578,19.11
20.593,17.8
20.609,18.25
20.625,20.53
20.640,24.47
20.656,29.67
20.671,35.52
20.687,41.31
20.703,46.34
20.718,50.18
20.734,52.72
20.750,54.29
20.765,55.32
20.781,56.19
20.796,56.95
20.812,57.26
20.828,56.67
20.843,54.72
20.859,51.25
20.875,46.33
20.890,40.32
20.906,33.58
20.921,26.5
20.937,19.4
20.953,12.52
20.968,6.0
20.984,-0.21
21.000,-6.3
21.015,-12.63
21.031,-19.47
21.046,-26.78
21.062,-34.1
21.078,-40.6
21.093,-45.31
21.109,-47.51
21.125,-46.93
21.140,-43.8
21.156,-38.66
21.171,-32.08
21.187,-24.54
21.203,-16.36
21.218,-7.73
21.234,1.09
21.250,9.82
21.265,18.17
21.281,25.79
21.296,32.36
21.312,37.68
21.328,41.64
21.343,44.29
21.359,45.88
21.375,46.83
21.390,47.63
21.406,48.62
21.421,49.97
21.437,51.56
21.453,53.24
21.468,54.84
21.484,56.34
21.500,57.83
21.515,59.38
21.531,61.05
21.546,62.72
21.562,64.18
21.578,65.1
21.593,65.2
21.609,64.15
21.625,61.75
21.640,57.94
21.656,52.7
21.671,46.25
21.687,38.93
21.703,31.12
21.718,23.24
21.734,15.63
21.750,8.37
21.765,1.39
21.781,-5.72
21.796,-13.52
21.812,-22.57
21.828,-33.19
21.843,-45.23
21.859,-58.03
21.875,-70.58
21.890,-81.8
21.906,-90.85
21.921,-97.55
21.937,-102.39
21.953,-106.35
21.968,-110.62
21.984,-116.06
22.000,-123.01
22.015,-131.19
22.031,-139.86
22.046,-148.06
22.062,-154.91
22.078,-159.59
22.093,-161.45
22.109,-160.05
22.125,-155.16
22.140,-146.9
22.156,-135.92
22.171,-123.24
22.187,-110.14
22.203,-97.81
22.218,-87.03
22.234,-78.02
22.250,-70.56
22.265,-64.21
22.281,-58.62
22.296,-53.71
22.312,-49.54
22.328,-46.19
22.343,-43.58
22.359,-41.38
22.375,-39.17
22.390,-36.65
22.406,-33.75
22.421,-30.65
22.437,-27.69
22.453,-25.16
22.468,-23.25
22.484,-22.06
22.500,-21.62
22.515,-21.94
22.531,-23.01
22.546,-24.75
22.562,-27.05
22.578,-29.8
22.593,-32.98
22.609,-36.71
22.625,-41.08
22.640,-45.97
22.656,-50.81
22.671,-54.54
22.687,-55.85
22.703,-53.53
22.718,-47.01
22.734,-36.61
22.750,-23.43
22.765,-8.95
22.781,5.41
22.796,18.68
22.812,30.45
22.828,40.71
22.843,49.58
22.859,57.07
22.875,63.13
22.890,67.71
22.906,70.93
22.921,73.09
22.937,74.62
22.953,75.77
22.968,76.66
22.984,77.17
23.000,77.13
23.015,76.53
23.031,75.55
23.046,74.55
23.062,73.89
23.078,73.72
23.093,73.89
23.109,74.07
23.125,73.9
23.140,73.18
23.156,71.91
23.171,70.24
23.187,68.24
23.203,65.94
23.218,63.28
23.234,60.21
23.250,56.8
23.265,53.21
23.281,49.58
23.296,46.0
23.312,42.44
23.328,38.8
23.343,34.9
23.359,30.62
23.375,25.92
23.390,20.86
23.406,15.6
23.421,10.36
23.437,5.4
23.453,1.13
23.468,-1.96
23.484,-3.32
23.500,-2.45
23.515,0.95
23.531,6.78
23.546,14.59
23.562,23.57
23.578,32.8
23.593,41.51
23.609,49.29
23.625,56.06
23.640,61.92
23.656,66.97
23.671,71.17
23.687,74.29
23.703,76.13
23.718,76.66
23.734,76.08
23.750,74.83
23.765,73.36
23.781,72.01
23.796,70.87
23.812,69.79
23.828,68.58
23.843,67.05
23.859,65.19
23.875,63.07
23.890,60.78
23.906,58.35
23.921,55.7
23.937,52.66
23.953,49.04
23.968,44.83
23.984,40.21
24.000,35.52
24.015,31.17
24.031,27.4
24.046,24.2
24.062,21.35
24.078,18.48
24.093,15.25
24.109,11.52
24.125,7.41
24.140,3.15
24.156,-1.04
24.171,-5.13
24.187,-9.29
24.203,-13.84
24.218,-19.09
24.234,-25.03
24.250,-31.26
24.265,-36.94
24.281,-41.03
24.296,-42.62
24.312,-41.27
24.328,-37.09
24.343,-30.66
24.359,-22.85
24.375,-14.46
24.390,-6.13
24.406,1.77
24.421,9.09
24.437,15.74
24.453,21.65
24.468,26.65
24.484,30.59
24.500,33.36
24.515,35.0
24.531,35.71
24.546,35.75
24.562,35.44
24.578,35.06
24.593,34.82
24.609,34.87
24.625,35.26
24.640,36.0
24.656,36.99
24.671,38.08
24.687,39.13
24.703,40.05
24.718,40.87
24.734,41.61
24.750,42.24
24.765,42.57
24.781,42.25
24.796,40.96
24.812,38.64
24.828,35.52
24.843,32.18
24.859,29.16
24.875,26.8
24.890,25.05
24.906,23.61
24.921,22.06
24.937,20.19
24.953,18.14
24.968,16.24
24.984,14.88
25.000,14.26
25.015,14.37
25.031,15.14
25.046,16.65
25.062,19.27
25.078,23.56
25.093,30.02
25.109,38.75
25.125,49.41
25.140,61.29
25.156,73.54
25.171,85.45
25.187,96.39
25.203,105.65
25.218,112.27
25.234,115.05
25.250,112.79
25.265,104.87
25.281,91.51
25.296,74.0
25.312,54.47
25.328,35.35
25.343,18.95
25.359,6.92
25.375,0.01
25.390,-2.09
25.406,-0.49
25.421,3.17
25.437,7.26
25.453,10.62
25.468,12.79
25.484,14.0
25.500,14.84
25.515,15.83
25.531,17.1
25.546,18.37
25.562,19.14
25.578,18.85
25.593,17.13
25.609,13.94
25.625,9.57
25.640,4.79
25.656,0.71
25.671,-1.5
25.687,-1.23
25.703,0.85
25.718,2.45
25.734,0.01
25.750,-10.15
25.765,-30.28
25.781,-59.93
25.796,-95.77
25.812,-132.44
25.828,-164.39
25.843,-187.55
25.859,-200.32
25.875,-203.41
25.890,-198.99
25.906,-189.53
25.921,-177.06
25.937,-162.91
25.953,-147.87
25.968,-132.48
25.984,-117.17
26.000,-102.31
26.015,-88.14
26.031,-74.7
26.046,-61.96
26.062,-49.86
26.078,-38.4
26.093,-27.73
26.109,-18.18
26.125,-10.17
26.140,-4.11
26.156,-0.3
26.171,1.33
26.187,1.22
26.203,0.06
26.218,-1.54
26.234,-3.33
26.250,-5.57
26.265,-8.93
26.281,-14.01
26.296,-21.0
26.312,-29.46
26.328,-38.46
26.343,-46.89
26.359,-53.95
26.375,-59.33
26.390,-63.19
26.406,-66.08
26.421,-68.45
26.437,-70.49
26.453,-72.08
26.468,-72.77
26.484,-71.98
26.500,-69.16
26.515,-63.93
26.531,-56.2
26.546,-46.25
26.562,-34.69
26.578,-22.36
26.593,-10.19
26.609,0.9
26.625,10.22
26.640,17.41
26.656,22.51
26.671,25.93
26.687,28.32
26.703,30.42
26.718,32.82
26.734,35.92
26.750,39.82
26.765,44.37
26.781,49.25
26.796,54.08
26.812,58.57
26.828,62.47
26.843,65.68
26.859,68.05
26.875,69.41
26.890,69.56
26.906,68.38
26.921,65.99
26.937,62.77
26.953,59.34
26.968,56.26
26.984,53.92
27.000,52.29
27.015,51.01
27.031,49.7
27.046,48.04
27.062,45.98
27.078,43.57
27.093,40.94
27.109,38.05
27.125,34.78
27.140,30.97
27.156,26.6
27.171,21.86
27.187,17.12
27.203,12.8
27.218,9.12
27.234,6.15
27.250,3.63
27.265,1.18
27.281,-1.54
27.296,-4.75
27.312,-8.3
27.328,-11.86
27.343,-14.96
27.359,-17.28
27.375,-18.71
27.390,-19.56
27.406,-20.34
27.421,-21.67
27.437,-23.91
27.453,-26.98
27.468,-30.43
27.484,-33.47
27.500,-35.29
27.515,-35.3
27.531,-33.28
27.546,-29.4
27.562,-24.13
27.578,-18.14
27.593,-12.05
27.609,-6.44
27.625,-1.63
27.640,2.27
27.656,5.36
27.671,7.78
27.687,9.7
27.703,11.12
27.718,11.93
27.734,12.03
27.750,11.39
27.765,10.24
27.781,8.92
27.796,7.79
27.812,7.02
27.828,6.61
27.843,6.41
27.859,6.23
27.875,6.02
27.890,5.82
27.906,5.85
27.921,6.25
27.937,6.98
27.953,7.85
27.968,8.64
27.984,9.11
28.000,9.11
28.015,8.62
28.031,7.69
28.046,6.41
28.062,4.88
28.078,3.19
28.093,1.35
28.109,-0.63
28.125,-2.74
28.140,-4.98
28.156,-7.24
28.171,-9.43
28.187,-11.44
28.203,-13.36
28.218,-15.39
28.234,-17.85
28.250,-20.91
28.265,-24.43
28.281,-27.9
28.296,-30.49
28.312,-31.4
28.328,-30.06
28.343,-26.43
28.359,-20.93
28.375,-14.35
28.390,-7.64
28.406,-1.65
28.421,3.05
28.437,6.25
28.453,8.01
28.468,8.63
28.484,8.5
28.500,8.05
28.515,7.65
28.531,7.6
28.546,8.07
28.562,9.09
28.578,10.56
28.593,12.18
28.609,13.62
28.625,14.62
28.640,15.06
28.656,15.02
28.671,14.64
28.687,14.05
28.703,13.3
28.718,12.25
28.734,10.67
28.750,8.27
28.765,4.85
28.781,0.32
28.796,-5.09
28.812,-10.91
28.828,-16.42
28.843,-20.98
28.859,-24.12
28.875,-25.8
28.890,-26.3
28.906,-26.17
28.921,-25.95
28.937,-26.01
28.953,-26.44
28.968,-27.12
28.984,-27.81
29.000,-28.21
29.015,-28.0
29.031,-26.83
29.046,-24.31
29.062,-20.14
29.078,-14.04
29.093,-5.94
29.109,4.01
29.125,15.53
29.140,28.18
29.156,41.6
29.171,55.44
29.187,69.39
29.203,83.09
29.218,96.07
29.234,107.76
29.250,117.71
29.265,125.76
29.281,132.26
29.296,137.99
29.312,143.82
29.328,150.4
29.343,157.72
29.359,165.06
29.375,171.15
29.390,174.64
29.406,174.64
29.421,171.13
29.437,164.87
29.453,157.04
29.468,148.6
29.484,139.7
29.500,129.52
29.515,116.69
29.531,100.03
29.546,79.24
29.562,55.16
29.578,29.41
29.593,3.6
29.609,-21.29
29.625,-45.05
29.640,-67.84
29.656,-89.61
29.671,-110.15
29.687,-129.35
29.703,-147.8
29.718,-166.7
29.734,-187.2
29.750,-209.43
29.765,-231.82
29.781,-251.47
29.796,-265.26
29.812,-271.36
29.828,-269.97
29.843,-263.03
29.859,-253.09
29.875,-241.97
29.890,-230.19
29.906,-217.21
29.921,-202.3
29.937,-185.3
29.953,-166.84
29.968,-147.93
29.984,-129.38
30.000,-111.41
30.015,-93.72
30.031,-75.84
30.046,-57.62
30.062,-39.55
30.078,-22.61
30.093,-7.92
30.109,3.84
30.125,12.68
30.140,19.32
30.156,24.82
30.171,30.1
30.187,35.63
30.203,41.23
30.218,46.34
30.234,50.39
30.250,53.05
30.265,54.47
30.281,55.14
30.296,55.63
30.312,56.25
30.328,57.0
30.343,57.47
30.359,57.26
30.375,56.09
30.390,53.93
30.406,50.96
30.421,47.35
30.437,43.2
30.453,38.49
30.468,33.25
30.484,27.57
30.500,21.65
30.515,15.79
30.531,10.17
30.546,4.87
30.562,-0.21
30.578,-5.24
30.593,-10.43
30.609,-15.88
30.625,-21.57
30.640,-27.23
30.656,-32.29
30.671,-36.05
30.687,-37.77
30.703,-36.99
30.718,-33.67
30.734,-28.23
30.750,-21.42
30.765,-14.1
30.781,-7.02
30.796,-0.65
30.812,4.76
30.828,9.19
30.843,12.71
30.859,15.37
30.875,17.17
30.890,18.0
30.906,17.67
30.921,16.05
30.937,13.12
30.953,9.17
30.968,4.67
30.984,0.21
31.000,-3.74
31.015,-6.89
31.031,-9.15
31.046,-10.57
31.062,-11.12
31.078,-10.8
31.093,-9.68
31.109,-7.94
31.125,-5.95
31.140,-4.14
31.156,-2.84
31.171,-2.18
31.187,-2.04
31.203,-2.13
31.218,-2.23
31.234,-2.3
31.250,-2.59
31.265,-3.42
31.281,-5.1
31.296,-7.66
31.312,-10.81
31.328,-14.11
31.343,-17.11
31.359,-19.61
31.375,-21.7
31.390,-23.72
31.406,-26.02
31.421,-28.81
31.437,-32.11
31.453,-35.69
31.468,-39.19
31.484,-42.16
31.500,-44.02
31.515,-44.06
31.531,-41.66
31.546,-36.5
31.562,-28.77
31.578,-19.19
31.593,-8.78
31.609,1.42
31.625,10.68
31.640,18.69
31.656,25.48
31.671,31.16
31.687,35.75
31.703,39.12
31.718,41.18
31.734,42.01
31.750,41.87
31.765,41.25
31.781,40.57
31.796,40.11
31.812,39.99
31.828,40.2
31.843,40.7
31.859,41.44
31.875,42.39
31.890,43.4
31.906,44.28
31.921,44.72
31.937,44.42
31.953,43.28
31.968,41.4
31.984,39.04
32.000,36.5
32.015,34.07
32.031,31.92
32.046,30.1
32.062,28.61
32.078,27.38
32.093,26.33
32.109,25.29
32.125,23.97
32.140,22.09
32.156,19.43
32.171,15.87
32.187,11.49
32.203,6.41
32.218,0.7
32.234,-5.6
32.250,-12.41
32.265,-19.39
32.281,-25.77
32.296,-30.44
32.312,-32.24
32.328,-30.34
32.343,-24.65
32.359,-15.9
32.375,-5.46
32.390,5.09
32.406,14.39
32.421,21.61
32.437,26.47
32.453,29.16
32.468,30.16
32.484,29.95
32.500,28.86
32.515,27.08
32.531,24.74
32.546,21.94
32.562,18.99
32.578,16.23
32.593,14.04
32.609,12.72
32.625,12.31
32.640,12.62
32.656,13.37
32.671,14.25
32.687,14.99
32.703,15.52
32.718,15.73
32.734,15.57
32.750,15.01
32.765,14.08
32.781,12.87
32.796,11.56
32.812,10.25
32.828,8.93
32.843,7.5
32.859,5.79
32.875,3.69
32.890,1.18
32.906,-1.62
32.921,-4.54
32.937,-7.52
32.953,-10.65
32.968,-14.3
32.984,-19.05
33.000,-25.8
33.015,-35.61
33.031,-49.32
33.046,-67.29
33.062,-88.9
33.078,-112.57
33.093,-135.97
33.109,-156.72
33.125,-172.98
33.140,-183.85
33.156,-189.33
33.171,-189.77
33.187,-185.52
33.203,-176.62
33.218,-163.06
33.234,-145.18
33.250,-123.94
33.265,-100.88
33.281,-77.66
33.296,-55.58
33.312,-35.14
33.328,-16.18
33.343,1.7
33.359,18.73
33.375,34.53
33.390,48.3
33.406,59.25
33.421,66.99
33.437,71.77
33.453,74.35
33.468,75.59
33.484,76.12
33.500,76.24
33.515,75.9
33.531,74.99
33.546,73.47
33.562,71.51
33.578,69.24
33.593,66.73
33.609,63.84
33.625,60.35
33.640,56.16
33.656,51.4
33.671,46.48
33.687,41.83
33.703,37.72
33.718,34.15
33.734,30.86
33.750,27.59
33.765,24.29
33.781,21.19
33.796,18.63
33.812,16.82
33.828,15.69
33.843,14.86
33.859,13.96
33.875,12.79
33.890,11.48
33.906,10.29
33.921,9.49
33.937,9.15
33.953,9.16
33.968,9.33
33.984,9.58
34.000,10.0
34.015,10.78
34.031,12.1
34.046,14.03
34.062,16.52
34.078,19.39
34.093,22.41
34.109,25.31
34.125,27.8
34.140,29.59
34.156,30.51
34.171,30.53
34.187,29.87
34.203,28.92
34.218,28.14
34.234,27.87
34.250,28.18
34.265,28.78
34.281,29.05
34.296,28.24
34.312,25.62
34.328,20.79
34.343,13.65
34.359,4.4
34.375,-6.5
34.390,-18.4
34.406,-30.53
34.421,-42.14
34.437,-52.6
34.453,-61.63
34.468,-69.26
34.484,-75.7
34.500,-81.02
34.515,-84.88
34.531,-86.49
34.546,-84.91
34.562,-79.51
34.578,-70.23
34.593,-57.74
34.609,-43.18
34.625,-27.82
34.640,-12.74
34.656,1.31
34.671,13.89
34.687,24.76
34.703,33.79
34.718,40.92
34.734,46.1
34.750,49.33
34.765,50.69
34.781,50.33
34.796,48.59
34.812,45.88
34.828,42.6
34.843,38.99
34.859,35.11
34.875,30.87
34.890,26.18
34.906,21.19
34.921,16.24
34.937,11.8
34.953,8.21
34.968,5.52
34.984,3.46
35.000,1.54
35.015,-0.63
35.031,-3.24
35.046,-6.12
35.062,-8.98
35.078,-11.56
35.093,-13.74
35.109,-15.67
35.125,-17.59
35.140,-19.8
35.156,-22.5
35.171,-25.76
35.187,-29.46
35.203,-33.37
35.218,-36.97
35.234,-39.53
35.250,-40.27
35.265,-38.52
35.281,-34.08
35.296,-27.3
35.312,-19.03
35.328,-10.36
35.343,-2.18
35.359,4.96
35.375,10.94
35.390,15.83
35.406,19.74
35.421,22.71
35.437,24.67
35.453,25.61
35.468,25.58
35.484,24.8
35.500,23.51
35.515,21.97
35.531,20.33
35.546,18.72
35.562,17.2
35.578,15.87
35.593,14.86
35.609,14.2
35.625,13.82
35.640,13.52
35.656,13.01
35.671,11.98
35.687,10.28
35.703,7.9
35.718,5.02
35.734,1.93
35.750,-1.06
35.765,-3.75
35.781,-6.08
35.796,-8.23
35.812,-10.55
35.828,-13.44
35.843,-17.21
35.859,-21.88
35.875,-27.06
35.890,-31.9
35.906,-35.42
35.921,-36.7
35.937,-35.21
35.953,-30.96
35.968,-24.51
35.984,-16.67
36.000,-8.34
36.015,-0.21
36.031,7.29
36.046,14.0
36.062,19.87
36.078,24.88
36.093,28.94
36.109,31.91
36.125,33.71
36.140,34.37
36.156,34.04
36.171,32.98
36.187,31.53
36.203,29.93
36.218,28.34
36.234,26.81
36.250,25.32
36.265,23.79
36.281,22.21
36.296,20.57
36.312,18.94
36.328,17.37
36.343,15.83
36.359,14.19
36.375,12.22
36.390,9.68
36.406,6.55
36.421,2.94
36.437,-0.82
36.453,-4.33
36.468,-7.35
36.484,-9.88
36.500,-12.16
36.515,-14.62
36.531,-17.63
36.546,-21.36
36.562,-25.76
36.578,-30.53
36.593,-35.1
36.609,-38.8
36.625,-40.87
36.640,-40.63
36.656,-37.69
36.671,-32.14
36.687,-24.49
36.703,-15.69
36.718,-6.74
36.734,1.53
36.750,8.63
36.765,14.48
36.781,19.21
36.796,23.02
36.812,25.98
36.828,28.12
36.843,29.4
36.859,29.91
36.875,29.84
36.890,29.4
36.906,28.84
36.921,28.29
36.937,27.77
36.953,27.15
36.968,26.28
36.984,25.04
37.000,23.37
37.015,21.34
37.031,19.01
37.046,16.54
37.062,14.05
37.078,11.63
37.093,9.31
37.109,7.01
37.125,4.64
37.140,2.06
37.156,-0.68
37.171,-3.51
37.187,-6.19
37.203,-8.55
37.218,-10.53
37.234,-12.31
37.250,-14.21
37.265,-16.58
37.281,-19.63
37.296,-23.28
37.312,-27.18
37.328,-30.82
37.343,-33.59
37.359,-34.95
37.375,-34.47
37.390,-31.93
37.406,-27.34
37.421,-21.0
37.437,-13.43
37.453,-5.31
37.468,2.63
37.484,9.85
37.500,15.97
37.515,20.86
37.531,24.55
37.546,27.15
37.562,28.73
37.578,29.45
37.593,29.46
37.609,28.96
37.625,28.21
37.640,27.41
37.656,26.7
37.671,26.09
37.687,25.44
37.703,24.56
37.718,23.37
37.734,21.82
37.750,19.97
37.765,17.99
37.781,15.97
37.796,14.03
37.812,12.23
37.828,10.57
37.843,8.94
37.859,7.24
37.875,5.33
37.890,3.12
37.906,0.57
37.921,-2.23
37.937,-5.19
37.953,-8.17
37.968,-11.12
37.984,-14.06
38.000,-17.12
38.015,-20.39
38.031,-23.98
38.046,-27.76
38.062,-31.43
38.078,-34.48
38.093,-36.27
38.109,-36.29
38.125,-34.18
38.140,-29.95
38.156,-23.9
38.171,-16.66
38.187,-8.9
38.203,-1.33
38.218,5.63
38.234,11.79
38.250,17.11
38.265,21.69
38.281,25.51
38.296,28.42
38.312,30.23
38.328,30.85
38.343,30.36
38.359,29.12
38.375,27.54
38.390,25.98
38.406,24.63
38.421,23.54
38.437,22.68
38.453,22.05
38.468,21.64
38.484,21.4
38.500,21.16
38.515,20.7
38.531,19.82
38.546,18.43
38.562,16.61
38.578,14.48
38.593,12.15
38.609,9.68
38.625,7.03
38.640,4.2
38.656,1.21
38.671,-1.89
38.687,-5.0
38.703,-8.03
38.718,-10.88
38.734,-13.43
38.750,-15.61
38.765,-17.46
38.781,-19.18
38.796,-21.06
38.812,-23.35
38.828,-26.18
38.843,-29.56
38.859,-33.3
38.875,-37.07
38.890,-40.4
38.906,-42.65
38.921,-43.13
38.937,-41.26
38.953,-36.8
38.968,-30.01
38.984,-21.63
39.000,-12.58
39.015,-3.7
39.031,4.51
39.046,11.9
39.062,18.48
39.078,24.23
39.093,29.0
39.109,32.56
39.125,34.72
39.140,35.51
39.156,35.12
39.171,33.91
39.187,32.25
39.203,30.5
39.218,28.91
39.234,27.61
39.250,26.6
39.265,25.83
39.281,25.16
39.296,24.46
39.312,23.62
39.328,22.58
39.343,21.38
39.359,20.03
39.375,18.55
39.390,16.95
39.406,15.21
39.421,13.3
39.437,11.23
39.453,9.03
39.468,6.69
39.484,4.19
39.500,1.47
39.515,-1.51
39.531,-4.74
39.546,-8.12
39.562,-11.51
39.578,-14.75
39.593,-17.68
39.609,-20.26
39.625,-22.54
39.640,-24.67
39.656,-26.84
39.671,-29.22
39.687,-31.92
39.703,-34.97
39.718,-38.24
39.734,-41.53
39.750,-44.5
39.765,-46.67
39.781,-47.53
39.796,-46.62
39.812,-43.62
39.828,-38.56
39.843,-31.83
39.859,-24.07
39.875,-16.01
39.890,-8.2
39.906,-0.93
39.921,5.7
39.937,11.62
39.953,16.73
39.968,20.85
39.984,23.8
40.000,25.58
40.015,26.31
40.031,26.29
40.046,25.82
40.062,25.13
40.078,24.34
40.093,23.52
40.109,22.67
40.125,21.81
40.140,20.99
40.156,20.19
40.171,19.45
40.187,18.82
40.203,18.29
40.218,17.8
40.234,17.17
40.250,16.14
40.265,14.51
40.281,12.28
40.296,9.62
40.312,6.87
40.328,4.35
40.343,2.23
40.359,0.48
40.375,-1.11
40.390,-2.77
40.406,-4.63
40.421,-6.72
40.437,-8.95
40.453,-11.16
40.468,-13.27
40.484,-15.23
40.500,-17.08
40.515,-18.93
40.531,-20.92
40.546,-23.23
40.562,-25.94
40.578,-29.08
40.593,-32.41
40.609,-35.48
40.625,-37.67
40.640,-38.34
40.656,-36.99
40.671,-33.46
40.687,-27.94
40.703,-20.95
40.718,-13.23
40.734,-5.51
40.750,1.65
40.765,7.91
40.781,13.16
40.796,17.38
40.812,20.62
40.828,22.94
40.843,24.4
40.859,25.11
40.875,25.24
40.890,25.01
40.906,24.68
40.921,24.37
40.937,24.08
40.953,23.7
40.968,23.04
40.984,22.05
41.000,20.81
41.015,19.56
41.031,18.52
41.046,17.82
41.062,17.36
41.078,16.88
41.093,16.07
41.109,14.66
41.125,12.64
41.140,10.19
41.156,7.6
41.171,5.22
41.187,3.29
41.203,1.88
41.218,0.85
41.234,-0.04
41.250,-1.09
41.265,-2.5
41.281,-4.3
41.296,-6.39
41.312,-8.67
41.328,-11.07
41.343,-13.65
41.359,-16.47
41.375,-19.53
41.390,-22.76
41.406,-26.03
41.421,-29.25
41.437,-32.45
41.453,-35.65
41.468,-38.74
41.484,-41.3
41.500,-42.65
41.515,-42.04
41.531,-39.08
41.546,-33.94
41.562,-27.32
41.578,-20.22
41.593,-13.43
41.609,-7.37
41.625,-2.02
41.640,2.86
41.656,7.45
41.671,11.73
41.687,15.53
41.703,18.67
41.718,21.04
41.734,22.67
41.750,23.7
41.765,24.3
41.781,24.65
41.796,24.89
41.812,25.1
41.828,25.32
41.843,25.47
41.859,25.38
41.875,24.94
41.890,24.11
41.906,23.01
41.921,21.81
41.937,20.62
41.953,19.47
41.968,18.27
41.984,16.87
42.000,15.27
42.015,13.54
42.031,11.84
42.046,10.28
42.062,8.86
42.078,7.47
42.093,5.97
42.109,4.32
42.125,2.56
42.140,0.76
42.156,-1.03
42.171,-2.91
42.187,-5.05
42.203,-7.56
42.218,-10.39
42.234,-13.35
42.250,-16.22
42.265,-18.88
42.281,-21.32
42.296,-23.68
42.312,-26.18
42.328,-28.96
42.343,-32.1
42.359,-35.58
42.375,-39.22
42.390,-42.65
42.406,-45.31
42.421,-46.51
42.437,-45.62
42.453,-42.33
42.468,-36.73
42.484,-29.38
42.500,-21.11
42.515,-12.84
42.531,-5.26
42.546,1.26
42.562,6.7
42.578,11.27
42.593,15.22
42.609,18.74
42.625,21.82
42.640,24.37
42.656,26.25
42.671,27.37
42.687,27.78
42.703,27.62
42.718,27.09
42.734,26.35
42.750,25.51
42.765,24.63
42.781,23.78
42.796,23.1
42.812,22.7
42.828,22.66
42.843,22.87
42.859,23.14
42.875,23.22
42.890,22.96
42.906,22.39
42.921,21.71
42.937,21.14
42.953,20.74
42.968,20.37
42.984,19.69
43.000,18.45
43.015,16.56
43.031,14.17
43.046,11.55
43.062,8.83
43.078,5.92
43.093,2.59
43.109,-1.4
43.125,-6.03
43.140,-10.95
43.156,-15.6
43.171,-19.43
43.187,-22.14
43.203,-23.8
43.218,-24.76
43.234,-25.51
43.250,-26.5
43.265,-27.99
43.281,-30.03
43.296,-32.41
43.312,-34.83
43.328,-36.84
43.343,-37.96
43.359,-37.73
43.375,-35.87
43.390,-32.38
43.406,-27.68
43.421,-22.5
43.437,-17.66
43.453,-13.85
43.468,-11.27
43.484,-9.63
43.500,-8.2
43.515,-6.08
43.531,-2.59
43.546,2.48
43.562,8.86
43.578,15.93
43.593,22.94
43.609,29.31
43.625,34.65
43.640,38.72
43.656,41.42
43.671,42.63
43.687,42.4
43.703,40.85
43.718,38.32
43.734,35.28
43.750,32.2
43.765,29.31
43.781,26.6
43.796,23.8
43.812,20.52
43.828,16.57
43.843,12.0
43.859,7.08
43.875,2.24
43.890,-2.14
43.906,-5.89
43.921,-9.04
43.937,-11.8
43.953,-14.49
43.968,-17.32
43.984,-20.43
44.000,-23.82
44.015,-27.3
44.031,-30.64
44.046,-33.5
44.062,-35.63
44.078,-36.95
44.093,-37.6
44.109,-37.93
44.125,-38.36
44.140,-39.25
44.156,-40.81
44.171,-43.05
44.187,-45.79
44.203,-48.66
44.218,-51.19
44.234,-52.82
44.250,-53.05
44.265,-51.58
44.281,-48.33
44.296,-43.5
44.312,-37.57
44.328,-31.07
44.343,-24.51
44.359,-18.26
44.375,-12.48
44.390,-7.15
44.406,-2.26
44.421,2.25
44.437,6.35
44.453,10.0
44.468,13.12
44.484,15.71
44.500,17.84
44.515,19.62
44.531,21.16
44.546,22.51
44.562,23.69
44.578,24.58
44.593,25.02
44.609,24.89
44.625,24.15
44.640,22.92
44.656,21.46
44.671,19.99
44.687,18.63
44.703,17.34
44.718,15.87
44.734,14.0
44.750,11.66
44.765,9.02
44.781,6.42
44.796,4.19
44.812,2.44
44.828,1.07
44.843,-0.2
44.859,-1.63
44.875,-3.33
44.890,-5.27
44.906,-7.33
44.921,-9.55
44.937,-12.02
44.953,-14.91
44.968,-18.31
44.984,-22.14
45.000,-26.13
45.015,-29.97
45.031,-33.34
45.046,-36.0
45.062,-37.7
45.078,-38.14
45.093,-37.0
45.109,-34.05
45.125,-29.3
45.140,-23.13
45.156,-16.15
45.171,-9.11
45.187,-2.58
45.203,3.12
45.218,7.98
45.234,12.12
45.250,15.72
45.265,18.86
45.281,21.47
45.296,23.42
45.312,24.61
45.328,25.11
45.343,25.07
45.359,24.74
45.375,24.37
45.390,24.1
45.406,23.96
45.421,23.82
45.437,23.53
45.453,22.99
45.468,22.22
45.484,21.3
45.500,20.33
45.515,19.35
45.531,18.34
45.546,17.24
45.562,15.97
45.578,14.53
45.593,12.93
45.609,11.23
45.625,9.46
45.640,7.6
45.656,5.64
45.671,3.49
45.687,1.05
45.703,-1.8
45.718,-5.04
45.734,-8.53
45.750,-12.0
45.765,-15.15
45.781,-17.79
45.796,-19.91
45.812,-21.73
45.828,-23.61
45.843,-25.85
45.859,-28.61
45.875,-31.78
45.890,-35.03
45.906,-37.86
45.921,-39.71
45.937,-40.08
45.953,-38.53
45.968,-34.91
45.984,-29.3
46.000,-22.17
46.015,-14.16
46.031,-6.08
46.046,1.38
46.062,7.75
46.078,12.85
46.093,16.74
46.109,19.67
46.125,21.98
46.140,23.88
46.156,25.5
46.171,26.84
46.187,27.81
46.203,28.35
46.218,28.44
46.234,28.17
46.250,27.69
46.265,27.13
46.281,26.52
46.296,25.83
46.312,24.98
46.328,24.01
46.343,23.09
46.359,22.37
46.375,21.91
46.390,21.56
46.406,21.02
46.421,19.99
46.437,18.34
46.453,16.19
46.468,13.86
46.484,11.69
46.500,9.81
46.515,8.18
46.531,6.61
46.546,4.87
46.562,2.88
46.578,0.57
46.593,-2.04
46.609,-4.97
46.625,-8.19
46.640,-11.59
46.656,-14.98
46.671,-18.14
46.687,-20.98
46.703,-23.54
46.718,-26.06
46.734,-28.8
46.750,-31.94
46.765,-35.51
46.781,-39.34
46.796,-43.15
46.812,-46.5
46.828,-48.9
46.843,-49.73
46.859,-48.4
46.875,-44.56
46.890,-38.39
46.906,-30.57
46.921,-22.1
46.937,-14.01
46.953,-6.91
46.968,-0.88
46.984,4.4
47.000,9.39
47.015,14.25
47.031,18.81
47.046,22.66
47.062,25.48
47.078,27.17
47.093,27.98
47.109,28.26
47.125,28.29
47.140,28.15
47.156,27.74
47.171,26.96
47.187,25.83
47.203,24.51
47.218,23.29
47.234,22.34
47.250,21.7
47.265,21.14
47.281,20.4
47.296,19.27
47.312,17.7
47.328,15.87
47.343,14.02
47.359,12.3
47.375,10.8
47.390,9.43
47.406,8.07
47.421,6.64
47.437,5.06
47.453,3.31
47.468,1.37
47.484,-0.81
47.500,-3.23
47.515,-5.81
47.531,-8.38
47.546,-10.72
47.562,-12.7
47.578,-14.34
47.593,-15.8
47.609,-17.33
47.625,-19.15
47.640,-21.41
47.656,-24.15
47.671,-27.26
47.687,-30.44
47.703,-33.28
47.718,-35.2
47.734,-35.63
47.750,-34.14
47.765,-30.57
47.781,-25.11
47.796,-18.27
47.812,-10.75
47.828,-3.24
47.843,3.75
47.859,9.89
47.875,15.11
47.890,19.39
47.906,22.8
47.921,25.38
47.937,27.21
47.953,28.41
47.968,29.1
47.984,29.43
48.000,29.5
48.015,29.32
48.031,28.83
48.046,27.97
48.062,26.73
48.078,25.27
48.093,23.89
48.109,22.89
48.125,22.47
48.140,22.64
48.156,23.14
48.171,23.57
48.187,23.51
48.203,22.7
48.218,21.1
48.234,18.91
48.250,16.46
48.265,14.11
48.281,12.09
48.296,10.47
48.312,9.08
48.328,7.66
48.343,5.94
48.359,3.73
48.375,0.98
48.390,-2.24
48.406,-5.75
48.421,-9.34
48.437,-12.88
48.453,-16.27
48.468,-19.5
48.484,-22.54
48.500,-25.37
48.515,-28.0
48.531,-30.55
48.546,-33.16
48.562,-35.95
48.578,-38.85
48.593,-41.47
48.609,-43.13
48.625,-43.08
48.640,-40.71
48.656,-35.93
48.671,-29.18
48.687,-21.3
48.703,-13.2
48.718,-5.64
48.734,1.0
48.750,6.59
48.765,11.09
48.781,14.54
48.796,16.97
48.812,18.48
48.828,19.2
48.843,19.45
48.859,19.57
48.875,19.87
48.890,20.53
48.906,21.6
48.921,22.97
48.937,24.4
48.953,25.67
48.968,26.54
48.984,26.84
49.000,26.48
49.015,25.41
49.031,23.67
49.046,21.35
49.062,18.63
49.078,15.8
49.093,13.16
49.109,10.91
49.125,9.02
49.140,7.31
49.156,5.5
49.171,3.39
49.187,0.96
49.203,-1.68
49.218,-4.37
49.234,-6.99
49.250,-9.5
49.265,-11.95
49.281,-14.33
49.296,-16.65
49.312,-18.94
49.328,-21.33
49.343,-23.95
49.359,-26.77
49.375,-29.44
49.390,-31.31
49.406,-31.61
49.421,-29.77
49.437,-25.74
49.453,-19.99
49.468,-13.41
49.484,-6.93
49.500,-1.21
49.515,3.56
49.531,7.59
49.546,11.24
49.562,14.78
49.578,18.24
49.593,21.43
49.609,24.01
49.625,25.71
49.640,26.44
49.656,26.28
49.671,25.43
49.687,24.11
49.703,22.46
49.718,20.49
49.734,18.23
49.750,15.73
49.765,13.12
49.781,10.59
49.796,8.27
49.812,6.19
49.828,4.27
49.843,2.33
49.859,0.29
49.875,-1.86
49.890,-3.98
49.906,-5.88
49.921,-7.42
49.937,-8.57
49.953,-9.37
49.968,-9.94
49.984,-10.4
50.000,-10.84
50.015,-11.31
50.031,-11.89
50.046,-12.77
50.062,-14.23
50.078,-16.6
50.093,-20.15
50.109,-24.89
50.125,-30.46
50.140,-36.15
50.156,-41.03
50.171,-44.22
50.187,-45.11
50.203,-43.58
50.218,-39.95
50.234,-34.87
50.250,-29.03
50.265,-23.0
50.281,-17.13
50.296,-11.56
50.312,-6.27
50.328,-1.23
50.343,3.52
50.359,7.92
50.375,11.79
50.390,15.0
50.406,17.5
50.421,19.33
50.437,20.64
50.453,21.58
50.468,22.29
50.484,22.82
50.500,23.2
50.515,23.44
50.531,23.6
50.546,23.75
50.562,23.83
50.578,23.76
50.593,23.37
50.609,22.48
50.625,21.09
50.640,19.29
50.656,17.35
50.671,15.46
50.687,13.67
50.703,11.8
50.718,9.65
50.734,7.08
50.750,4.11
50.765,0.97
50.781,-2.08
50.796,-4.79
50.812,-7.11
50.828,-9.1
50.843,-10.98
50.859,-13.03
50.875,-15.54
50.890,-18.72
50.906,-22.58
50.921,-26.88
50.937,-31.07
50.953,-34.5
50.968,-36.46
50.984,-36.43
51.000,-34.21
51.015,-29.95
51.031,-24.1
51.046,-17.24
51.062,-10.02
51.078,-2.99
51.093,3.49
51.109,9.25
51.125,14.29
51.140,18.67
51.156,22.41
51.171,25.43
51.187,27.66
51.203,29.05
51.218,29.65
51.234,29.65
51.250,29.28
51.265,28.72
51.281,28.02
51.296,27.17
51.312,26.13
51.328,25.01
51.343,24.02
51.359,23.36
51.375,23.13
51.390,23.17
51.406,23.19
51.421,22.82
51.437,21.9
51.453,20.48
51.468,18.8
51.484,17.12
51.500,15.59
51.515,14.16
51.531,12.65
51.546,10.89
51.562,8.84
51.578,6.62
51.593,4.44
51.609,2.55
51.625,1.09
51.640,0.03
51.656,-0.74
51.671,-1.42
51.687,-2.18
51.703,-3.11
51.718,-4.16
51.734,-5.16
51.750,-5.79
51.765,-5.59
51.781,-4.01
51.796,-0.49
51.812,5.39
51.828,13.79
51.843,24.46
51.859,36.84
51.875,50.17
51.890,63.78
51.906,77.29
51.921,90.64
51.937,104.01
51.953,117.52
51.968,131.09
51.984,144.29
52.000,156.4
52.015,166.64
52.031,174.38
52.046,179.34
52.062,181.55
52.078,181.41
52.093,179.38
52.109,176.01
52.125,171.83
52.140,167.25
52.156,162.45
52.171,157.28
52.187,151.22
52.203,143.54
52.218,133.84
52.234,122.25
52.250,109.62
52.265,97.32
52.281,86.51
52.296,77.73
52.312,70.64
52.328,64.23
52.343,57.23
52.359,48.52
52.375,37.17
52.390,22.51
52.406,4.1
52.421,-18.09
52.437,-43.31
52.453,-69.92
52.468,-95.74
52.484,-118.82
52.500,-138.28
52.515,-154.6
52.531,-169.02
52.546,-182.66
52.562,-195.65
52.578,-206.96
52.593,-215.02
52.609,-218.72
52.625,-218.11
52.640,-214.4
52.656,-209.26
52.671,-203.85
52.687,-198.22
52.703,-191.43
52.718,-182.22
52.734,-169.77
52.750,-154.26
52.765,-136.84
52.781,-119.23
52.796,-103.14
52.812,-89.8
52.828,-79.62
52.843,-72.24
52.859,-66.86
52.875,-62.62
52.890,-58.96
52.906,-55.67
52.921,-52.7
52.937,-49.87
52.953,-46.75
52.968,-42.61
52.984,-36.71
53.000,-28.65
53.015,-18.63
53.031,-7.39
53.046,4.0
53.062,14.59
53.078,23.69
53.093,31.07
53.109,36.88
53.125,41.54
53.140,45.52
53.156,49.2
53.171,52.79
53.187,56.31
53.203,59.73
53.218,62.82
53.234,65.23
53.250,66.28
53.265,65.05
53.281,60.4
53.296,51.49
53.312,38.1
53.328,20.98
53.343,1.83
53.359,-17.15
53.375,-33.85
53.390,-46.92
53.406,-55.96
53.421,-61.42
53.437,-64.2
53.453,-65.2
53.468,-65.05
53.484,-63.94
53.500,-61.73
53.515,-58.14
53.531,-52.94
53.546,-46.23
53.562,-38.32
53.578,-29.78
53.593,-21.26
53.609,-13.33
53.625,-6.39
53.640,-0.53
53.656,4.32
53.671,8.35
53.687,11.64
53.703,14.22
53.718,15.91
53.734,16.45
53.750,15.45
53.765,12.57
53.781,7.58
53.796,0.6
53.812,-7.93
53.828,-17.33
53.843,-26.7
53.859,-35.25
53.875,-42.35
53.890,-47.67
53.906,-51.38
53.921,-54.03
53.937,-56.48
53.953,-59.6
53.968,-64.0
53.984,-69.78
54.000,-76.52
54.015,-83.41
54.031,-89.47
54.046,-93.96
54.062,-96.53
54.078,-97.21
54.093,-96.33
54.109,-94.39
54.125,-91.86
54.140,-89.14
54.156,-86.53
54.171,-84.16
54.187,-82.13
54.203,-80.51
54.218,-79.34
54.234,-78.69
54.250,-78.58
54.265,-78.86
54.281,-79.19
54.296,-79.05
54.312,-77.77
54.328,-74.78
54.343,-69.65
54.359,-62.33
54.375,-53.16
54.390,-42.73
54.406,-31.69
54.421,-20.59
54.437,-9.83
54.453,0.33
54.468,9.63
54.484,17.93
54.500,25.08
54.515,30.96
54.531,35.51
54.546,38.84
54.562,41.13
54.578,42.61
54.593,43.56
54.609,44.12
54.625,44.43
54.640,44.52
54.656,44.41
54.671,44.15
54.687,43.88
54.703,43.69
54.718,43.6
54.734,43.54
54.750,43.26
54.765,42.46
54.781,40.92
54.796,38.65
54.812,35.83
54.828,32.75
54.843,29.67
54.859,26.73
54.875,23.95
54.890,21.23
54.906,18.39
54.921,15.29
54.937,11.81
54.953,8.0
54.968,3.94
54.984,-0.22
55.000,-4.35
55.015,-8.39
55.031,-12.34
55.046,-16.32
55.062,-20.5
55.078,-25.09
55.093,-30.21
55.109,-35.76
55.125,-41.27
55.140,-45.91
55.156,-48.64
55.171,-48.51
55.187,-44.98
55.203,-38.2
55.218,-28.92
55.234,-18.28
55.250,-7.43
55.265,2.86
55.281,12.23
55.296,20.72
55.312,28.46
55.328,35.56
55.343,41.89
55.359,47.23
55.375,51.33
55.390,54.08
55.406,55.61
55.421,56.21
55.437,56.25
55.453,56.04
55.468,55.76
55.484,55.38
55.500,54.84
55.515,54.07
55.531,53.1
55.546,52.05
55.562,51.08
55.578,50.23
55.593,49.41
55.609,48.46
55.625,47.15
55.640,45.42
55.656,43.25
55.671,40.76
55.687,38.04
55.703,35.15
55.718,32.04
55.734,28.62
55.750,24.86
55.765,20.75
55.781,16.39
55.796,11.85
55.812,7.27
55.828,2.79
55.843,-1.43
55.859,-5.2
55.875,-8.45
55.890,-11.27
55.906,-13.94
55.921,-16.89
55.937,-20.52
55.953,-25.09
55.968,-30.56
55.984,-36.47
56.000,-41.98
56.015,-46.07
56.031,-47.7
56.046,-46.16
56.062,-41.28
56.078,-33.52
56.093,-23.87
56.109,-13.49
56.125,-3.45
56.140,5.65
56.156,13.61
56.171,20.58
56.187,26.75
56.203,32.21
56.218,36.91
56.234,40.71
56.250,43.45
56.265,45.11
56.281,45.83
56.296,45.81
56.312,45.28
56.328,44.37
56.343,43.21
56.359,41.87
56.375,40.47
56.390,39.14
56.406,38.0
56.421,37.12
56.437,36.45
56.453,35.89
56.468,35.17
56.484,34.1
56.500,32.53
56.515,30.44
56.531,27.98
56.546,25.34
56.562,22.75
56.578,20.35
56.593,18.16
56.609,16.13
56.625,14.14
56.640,12.07
56.656,9.78
56.671,7.13
56.687,3.95
56.703,0.21
56.718,-4.02
56.734,-8.47
56.750,-12.77
56.765,-16.62
56.781,-19.91
56.796,-22.84
56.812,-25.78
56.828,-29.14
56.843,-33.07
56.859,-37.44
56.875,-41.75
56.890,-45.3
56.906,-47.31
56.921,-47.16
56.937,-44.41
56.953,-39.0
56.968,-31.31
56.984,-22.04
57.000,-12.16
57.015,-2.62
57.031,5.94
57.046,13.22
57.062,19.28
57.078,24.31
57.093,28.41
57.109,31.49
57.125,33.43
57.140,34.24
57.156,34.16
57.171,33.7
57.187,33.29
57.203,33.17
57.218,33.29
57.234,33.41
57.250,33.34
57.265,33.07
57.281,32.75
57.296,32.61
57.312,32.7
57.328,32.85
57.343,32.73
57.359,31.98
57.375,30.38
57.390,27.94
57.406,24.92
57.421,21.6
57.437,18.31
57.453,15.24
57.468,12.39
57.484,9.58
57.500,6.56
57.515,3.13
57.531,-0.71
57.546,-4.74
57.562,-8.64
57.578,-12.15
57.593,-15.18
57.609,-17.88
57.625,-20.58
57.640,-23.57
57.656,-27.02
57.671,-30.88
57.687,-34.85
57.703,-38.5
57.718,-41.29
57.734,-42.67
57.750,-42.12
57.765,-39.35
57.781,-34.35
57.796,-27.49
57.812,-19.45
57.828,-11.0
57.843,-2.87
57.859,4.46
57.875,10.74
57.890,15.88
57.906,19.81
57.921,22.43
57.937,23.65
57.953,23.5
57.968,22.28
57.984,20.45
58.000,18.64
58.015,17.39
58.031,16.96
58.046,17.26
58.062,17.95
58.078,18.56
58.093,18.73
58.109,18.31
58.125,17.34
58.140,15.99
58.156,14.39
58.171,12.56
58.187,10.48
58.203,8.21
58.218,5.91
58.234,3.85
58.250,2.27
58.265,1.25
58.281,0.64
58.296,0.17
58.312,-0.44
58.328,-1.22
58.343,-1.99
58.359,-2.47
58.375,-2.47
58.390,-2.06
58.406,-1.61
58.421,-1.66
58.437,-2.7
58.453,-5.07
58.468,-8.73
58.484,-13.44
58.500,-18.68
58.515,-23.87
58.531,-28.32
58.546,-31.41
58.562,-32.63
58.578,-31.71
58.593,-28.7
58.609,-23.98
58.625,-18.21
58.640,-12.09
58.656,-6.2
58.671,-0.84
58.687,3.89
58.703,7.98
58.718,11.44
58.734,14.15
58.750,15.97
58.765,16.85
58.781,16.87
58.796,16.3
58.812,15.45
58.828,14.62
58.843,13.91
58.859,13.31
58.875,12.71
58.890,12.08
58.906,11.44
58.921,10.85
58.937,10.34
58.953,9.83
58.968,9.11
58.984,7.9
59.000,5.99
59.015,3.25
59.031,-0.2
59.046,-4.11
59.062,-8.07
59.078,-11.65
59.093,-14.56
59.109,-16.61
59.125,-17.88
59.140,-18.54
59.156,-18.85
59.171,-19.01
59.187,-19.15
59.203,-19.35
59.218,-19.62
59.234,-20.02
59.250,-20.72
59.265,-21.95
59.281,-23.95
59.296,-26.81
59.312,-30.32
59.328,-33.9
59.343,-36.72
59.359,-37.79
59.375,-36.49
59.390,-32.69
59.406,-26.89
59.421,-19.98
59.437,-12.88
59.453,-6.23
59.468,-0.26
59.484,5.11
59.500,10.04
59.515,14.54
59.531,18.5
59.546,21.69
59.562,23.94
59.578,25.21
59.593,25.63
59.609,25.43
59.625,24.84
59.640,24.14
59.656,23.52
59.671,23.16
59.687,23.17
59.703,23.48
59.718,24.0
59.734,24.55
59.750,24.95
59.765,25.09
59.781,24.85
59.796,24.17
59.812,23.05
59.828,21.53
59.843,19.62
59.859,17.4
59.875,14.92
59.890,12.29
59.906,9.64
59.921,7.05
59.937,4.53
59.953,2.02
59.968,-0.58
59.984,-3.37
