timestamp,value
00.000,0.61
00.015,-0.12
00.031,-1.63
00.046,-3.62
00.062,-5.67
00.078,-7.39
00.093,-8.65
00.109,-9.55
00.125,-10.23
00.140,-10.87
00.156,-11.5
00.171,-12.08
00.187,-12.49
00.203,-12.55
00.218,-12.03
00.234,-10.64
00.250,-8.15
00.265,-4.38
00.281,0.55
00.296,6.34
00.312,12.47
00.328,18.49
00.343,24.04
00.359,28.99
00.375,33.28
00.390,36.84
00.406,39.6
00.421,41.44
00.437,42.31
00.453,42.37
00.468,41.95
00.484,41.4
00.500,40.97
00.515,40.72
00.531,40.44
00.546,39.89
00.562,38.75
00.578,36.86
00.593,34.16
00.609,30.68
00.625,26.46
00.640,21.55
00.656,16.1
00.671,10.33
00.687,4.58
00.703,-0.8
00.718,-5.51
00.734,-9.34
00.750,-12.34
00.765,-14.7
00.781,-16.78
00.796,-18.91
00.812,-21.37
00.828,-24.35
00.843,-27.86
00.859,-31.75
00.875,-35.73
00.890,-39.33
00.906,-42.01
00.921,-43.2
00.937,-42.53
00.953,-39.95
00.968,-35.8
00.984,-30.73
01.000,-25.44
01.015,-20.51
01.031,-16.2
01.046,-12.51
01.062,-9.28
01.078,-6.35
01.093,-3.69
01.109,-1.36
01.125,0.55
01.140,2.02
01.156,3.08
01.171,3.91
01.187,4.64
01.203,5.42
01.218,6.28
01.234,7.21
01.250,8.08
01.265,8.82
01.281,9.35
01.296,9.59
01.312,9.45
01.328,8.7
01.343,7.08
01.359,4.36
01.375,0.55
01.390,-4.02
01.406,-8.75
01.421,-12.91
01.437,-15.98
01.453,-17.79
01.468,-18.57
01.484,-18.76
01.500,-18.88
01.515,-19.29
01.531,-20.13
01.546,-21.34
01.562,-22.73
01.578,-24.06
01.593,-24.98
01.609,-25.09
01.625,-23.97
01.640,-21.38
01.656,-17.38
01.671,-12.36
01.687,-6.99
01.703,-2.07
01.718,1.72
01.734,4.03
01.750,4.79
01.765,4.21
01.781,2.66
01.796,0.61
01.812,-1.55
01.828,-3.39
01.843,-4.62
01.859,-5.0
01.875,-4.45
01.890,-3.08
01.906,-1.12
01.921,1.13
01.937,3.41
01.953,5.6
01.968,7.6
01.984,9.43
02.000,11.05
02.015,12.33
02.031,13.05
02.046,13.0
02.062,12.09
02.078,10.38
02.093,8.19
02.109,5.93
02.125,4.08
02.140,2.95
02.156,2.62
02.171,2.87
02.187,3.28
02.203,3.35
02.218,2.68
02.234,1.09
02.250,-1.33
02.265,-4.16
02.281,-6.82
02.296,-8.6
02.312,-8.96
02.328,-7.54
02.343,-4.37
02.359,0.15
02.375,5.34
02.390,10.45
02.406,14.82
02.421,18.08
02.437,20.13
02.453,21.18
02.468,21.58
02.484,21.73
02.500,21.94
02.515,22.41
02.531,23.14
02.546,24.08
02.562,25.07
02.578,25.87
02.593,26.29
02.609,26.13
02.625,25.26
02.640,23.58
02.656,21.15
02.671,18.1
02.687,14.72
02.703,11.33
02.718,8.21
02.734,5.52
02.750,3.22
02.765,1.09
02.781,-1.08
02.796,-3.53
02.812,-6.35
02.828,-9.55
02.843,-13.06
02.859,-16.75
02.875,-20.42
02.890,-23.8
02.906,-26.54
02.921,-28.14
02.937,-28.2
02.953,-26.39
02.968,-22.58
02.984,-16.97
03.000,-10.0
03.015,-2.27
03.031,5.6
03.046,13.06
03.062,19.76
03.078,25.51
03.093,30.21
03.109,33.85
03.125,36.44
03.140,37.96
03.156,38.42
03.171,37.89
03.187,36.44
03.203,34.22
03.218,31.47
03.234,28.51
03.250,25.66
03.265,23.19
03.281,21.15
03.296,19.3
03.312,17.25
03.328,14.53
03.343,10.92
03.359,6.49
03.375,1.51
03.390,-3.69
03.406,-8.87
03.421,-13.94
03.437,-18.92
03.453,-23.84
03.468,-28.57
03.484,-32.88
03.500,-36.52
03.515,-39.32
03.531,-41.23
03.546,-42.23
03.562,-42.25
03.578,-41.18
03.593,-38.89
03.609,-35.32
03.625,-30.61
03.640,-25.08
03.656,-19.17
03.671,-13.37
03.687,-7.99
03.703,-3.21
03.718,0.98
03.734,4.7
03.750,7.99
03.765,10.94
03.781,13.48
03.796,15.57
03.812,17.21
03.828,18.48
03.843,19.5
03.859,20.39
03.875,21.18
03.890,21.78
03.906,22.08
03.921,22.01
03.937,21.61
03.953,21.06
03.968,20.63
03.984,20.56
04.000,20.96
04.015,21.84
04.031,23.03
04.046,24.36
04.062,25.61
04.078,26.59
04.093,27.01
04.109,26.64
04.125,25.17
04.140,22.42
04.156,18.37
04.171,13.28
04.187,7.72
04.203,2.42
04.218,-1.87
04.234,-4.62
04.250,-5.69
04.265,-5.29
04.281,-3.95
04.296,-2.25
04.312,-0.74
04.328,0.29
04.343,0.69
04.359,0.49
04.375,-0.24
04.390,-1.53
04.406,-3.46
04.421,-6.16
04.437,-9.66
04.453,-13.87
04.468,-18.45
04.484,-22.86
04.500,-26.51
04.515,-28.85
04.531,-29.58
04.546,-28.67
04.562,-26.37
04.578,-23.07
04.593,-19.23
04.609,-15.19
04.625,-11.22
04.640,-7.44
04.656,-3.93
04.671,-0.8
04.687,1.84
04.703,3.81
04.718,5.05
04.734,5.61
04.750,5.75
04.765,5.86
04.781,6.35
04.796,7.52
04.812,9.39
04.828,11.82
04.843,14.53
04.859,17.29
04.875,19.87
04.890,22.07
04.906,23.68
04.921,24.5
04.937,24.41
04.953,23.4
04.968,21.6
04.984,19.17
05.000,16.26
05.015,12.98
05.031,9.4
05.046,5.78
05.062,2.55
05.078,0.3
05.093,-0.48
05.109,0.43
05.125,2.8
05.140,6.1
05.156,9.67
05.171,12.94
05.187,15.59
05.203,17.51
05.218,18.73
05.234,19.36
05.250,19.56
05.265,19.56
05.281,19.69
05.296,20.34
05.312,21.74
05.328,23.91
05.343,26.56
05.359,29.18
05.375,31.22
05.390,32.17
05.406,31.73
05.421,29.81
05.437,26.58
05.453,22.39
05.468,17.71
05.484,13.08
05.500,8.86
05.515,5.23
05.531,2.07
05.546,-0.92
05.562,-4.01
05.578,-7.27
05.593,-10.54
05.609,-13.49
05.625,-15.87
05.640,-17.7
05.656,-19.41
05.671,-21.59
05.687,-24.81
05.703,-29.27
05.718,-34.65
05.734,-40.21
05.750,-45.0
05.765,-48.17
05.781,-49.13
05.796,-47.68
05.812,-43.93
05.828,-38.26
05.843,-31.17
05.859,-23.31
05.875,-15.32
05.890,-7.78
05.906,-1.0
05.921,4.98
05.937,10.32
05.953,15.22
05.968,19.75
05.984,23.69
06.000,26.71
06.015,28.42
06.031,28.73
06.046,27.98
06.062,26.89
06.078,26.37
06.093,27.11
06.109,29.32
06.125,32.53
06.140,35.83
06.156,38.13
06.171,38.65
06.187,37.23
06.203,34.27
06.218,30.6
06.234,27.0
06.250,23.9
06.265,21.26
06.281,18.75
06.296,15.9
06.312,12.34
06.328,7.89
06.343,2.6
06.359,-3.28
06.375,-9.33
06.390,-15.03
06.406,-19.96
06.421,-23.86
06.437,-26.8
06.453,-29.27
06.468,-31.95
06.484,-35.42
06.500,-39.82
06.515,-44.64
06.531,-48.87
06.546,-51.35
06.562,-51.26
06.578,-48.37
06.593,-43.21
06.609,-36.78
06.625,-30.24
06.640,-24.49
06.656,-19.93
06.671,-16.35
06.687,-13.19
06.703,-9.68
06.718,-5.17
06.734,0.74
06.750,8.08
06.765,16.45
06.781,25.16
06.796,33.34
06.812,40.14
06.828,44.97
06.843,47.64
06.859,48.49
06.875,48.2
06.890,47.53
06.906,47.03
06.921,46.74
06.937,46.3
06.953,45.01
06.968,42.16
06.984,37.28
07.000,30.26
07.015,21.28
07.031,10.65
07.046,-1.17
07.062,-13.71
07.078,-26.4
07.093,-38.63
07.109,-49.92
07.125,-60.07
07.140,-69.24
07.156,-77.76
07.171,-85.79
07.187,-92.98
07.203,-98.47
07.218,-101.19
07.234,-100.29
07.250,-95.72
07.265,-88.19
07.281,-79.07
07.296,-69.77
07.312,-61.32
07.328,-54.04
07.343,-47.68
07.359,-41.67
07.375,-35.48
07.390,-28.93
07.406,-22.21
07.421,-15.81
07.437,-10.35
07.453,-6.35
07.468,-4.06
07.484,-3.39
07.500,-3.95
07.515,-5.13
07.531,-6.35
07.546,-7.07
07.562,-6.97
07.578,-6.01
07.593,-4.43
07.609,-2.73
07.625,-1.49
07.640,-1.18
07.656,-1.94
07.671,-3.49
07.687,-5.13
07.703,-6.03
07.718,-5.55
07.734,-3.44
07.750,-0.03
07.765,3.92
07.781,7.5
07.796,9.93
07.812,10.8
07.828,10.2
07.843,8.48
07.859,6.12
07.875,3.42
07.890,0.52
07.906,-2.51
07.921,-5.56
07.937,-8.28
07.953,-10.25
07.968,-10.91
07.984,-10.02
08.000,-7.61
08.015,-4.05
08.031,0.05
08.046,4.11
08.062,7.64
08.078,10.33
08.093,12.01
08.109,12.66
08.125,12.34
08.140,11.19
08.156,9.43
08.171,7.29
08.187,4.97
08.203,2.61
08.218,0.24
08.234,-2.18
08.250,-4.69
08.265,-7.3
08.281,-9.91
08.296,-12.25
08.312,-13.98
08.328,-14.74
08.343,-14.26
08.359,-12.55
08.375,-9.84
08.390,-6.61
08.406,-3.35
08.421,-0.47
08.437,1.83
08.453,3.59
08.468,5.03
08.484,6.33
08.500,7.62
08.515,8.88
08.531,10.09
08.546,11.33
08.562,12.8
08.578,14.78
08.593,17.49
08.609,20.94
08.625,24.9
08.640,28.84
08.656,32.16
08.671,34.29
08.687,34.87
08.703,33.83
08.718,31.28
08.734,27.47
08.750,22.69
08.765,17.2
08.781,11.26
08.796,5.13
08.812,-0.88
08.828,-6.44
08.843,-11.22
08.859,-14.99
08.875,-17.61
08.890,-19.04
08.906,-19.33
08.921,-18.55
08.937,-16.84
08.953,-14.47
08.968,-11.83
08.984,-9.34
09.000,-7.32
09.015,-5.92
09.031,-5.05
09.046,-4.49
09.062,-4.07
09.078,-3.78
09.093,-3.79
09.109,-4.23
09.125,-5.03
09.140,-5.69
09.156,-5.44
09.171,-3.47
09.187,0.65
09.203,6.73
09.218,13.94
09.234,21.13
09.250,27.3
09.265,31.94
09.281,35.18
09.296,37.49
09.312,39.43
09.328,41.17
09.343,42.51
09.359,42.85
09.375,41.54
09.390,38.15
09.406,32.66
09.421,25.52
09.437,17.43
09.453,9.17
09.468,1.33
09.484,-5.74
09.500,-11.9
09.515,-17.16
09.531,-21.48
09.546,-24.77
09.562,-26.92
09.578,-27.85
09.593,-27.55
09.609,-26.12
09.625,-23.61
09.640,-20.06
09.656,-15.55
09.671,-10.3
09.687,-4.78
09.703,0.32
09.718,4.22
09.734,6.46
09.750,7.1
09.765,6.85
09.781,6.89
09.796,8.33
09.812,11.79
09.828,17.14
09.843,23.65
09.859,30.33
09.875,36.39
09.890,41.44
09.906,45.47
09.921,48.58
09.937,50.67
09.953,51.46
09.968,50.5
09.984,47.46
10.000,42.3
10.015,35.26
10.031,26.83
10.046,17.6
10.062,8.06
10.078,-1.37
10.093,-10.41
10.109,-19.01
10.125,-27.23
10.140,-35.32
10.156,-43.54
10.171,-52.06
10.187,-60.76
10.203,-69.21
10.218,-76.64
10.234,-82.16
10.250,-85.02
10.265,-84.86
10.281,-81.91
10.296,-76.87
10.312,-70.82
10.328,-64.78
10.343,-59.48
10.359,-55.19
10.375,-51.59
10.390,-47.98
10.406,-43.55
10.421,-37.56
10.437,-29.56
10.453,-19.44
10.468,-7.47
10.484,5.77
10.500,19.51
10.515,32.87
10.531,45.04
10.546,55.31
10.562,63.34
10.578,69.11
10.593,72.92
10.609,75.22
10.625,76.48
10.640,77.03
10.656,76.98
10.671,76.3
10.687,74.96
10.703,72.99
10.718,70.54
10.734,67.78
10.750,64.82
10.765,61.71
10.781,58.44
10.796,54.99
10.812,51.36
10.828,47.62
10.843,43.96
10.859,40.49
10.875,37.33
10.890,34.49
10.906,31.81
10.921,28.9
10.937,25.3
10.953,20.55
10.968,14.53
10.984,7.54
11.000,0.21
11.015,-6.69
11.031,-12.59
11.046,-17.4
11.062,-21.44
11.078,-25.23
11.093,-29.2
11.109,-33.52
11.125,-38.05
11.140,-42.52
11.156,-46.68
11.171,-50.3
11.187,-53.27
11.203,-55.41
11.218,-56.58
11.234,-56.69
11.250,-55.78
11.265,-53.99
11.281,-51.54
11.296,-48.63
11.312,-45.31
11.328,-41.5
11.343,-37.02
11.359,-31.73
11.375,-25.66
11.390,-19.06
11.406,-12.39
11.421,-6.24
11.437,-1.23
11.453,2.26
11.468,4.08
11.484,4.45
11.500,3.85
11.515,2.77
11.531,1.64
11.546,0.59
11.562,-0.58
11.578,-2.21
11.593,-4.61
11.609,-7.79
11.625,-11.44
11.640,-14.89
11.656,-17.45
11.671,-18.64
11.687,-18.39
11.703,-16.99
11.718,-14.95
11.734,-12.69
11.750,-10.38
11.765,-8.0
11.781,-5.38
11.796,-2.51
11.812,0.44
11.828,3.14
11.843,5.26
11.859,6.58
11.875,7.12
11.890,7.08
11.906,6.68
11.921,6.21
11.937,5.88
11.953,5.89
11.968,6.43
11.984,7.65
12.000,9.58
12.015,12.12
12.031,15.0
12.046,17.89
12.062,20.45
12.078,22.42
12.093,23.61
12.109,23.99
12.125,23.66
12.140,22.89
12.156,22.01
12.171,21.37
12.187,21.21
12.203,21.69
12.218,22.79
12.234,24.44
12.250,26.63
12.265,29.34
12.281,32.52
12.296,36.01
12.312,39.53
12.328,42.66
12.343,45.04
12.359,46.42
12.375,46.56
12.390,45.36
12.406,42.63
12.421,38.26
12.437,32.16
12.453,24.52
12.468,15.75
12.484,6.42
12.500,-2.79
12.515,-11.35
12.531,-18.9
12.546,-25.22
12.562,-30.31
12.578,-34.28
12.593,-37.26
12.609,-39.5
12.625,-41.27
12.640,-42.77
12.656,-44.05
12.671,-44.98
12.687,-45.2
12.703,-44.37
12.718,-42.24
12.734,-38.87
12.750,-34.64
12.765,-30.21
12.781,-26.22
12.796,-23.07
12.812,-20.64
12.828,-18.38
12.843,-15.52
12.859,-11.41
12.875,-5.92
12.890,0.44
12.906,6.73
12.921,11.98
12.937,15.48
12.953,17.11
12.968,17.33
12.984,16.86
13.000,16.39
13.015,16.27
13.031,16.35
13.046,16.21
13.062,15.33
13.078,13.27
13.093,9.94
13.109,5.6
13.125,0.68
13.140,-4.27
13.156,-8.72
13.171,-12.3
13.187,-14.64
13.203,-15.53
13.218,-14.93
13.234,-13.11
13.250,-10.65
13.265,-8.34
13.281,-6.84
13.296,-6.42
13.312,-6.89
13.328,-7.74
13.343,-8.43
13.359,-8.63
13.375,-8.33
13.390,-7.76
13.406,-7.15
13.421,-6.56
13.437,-5.91
13.453,-5.01
13.468,-3.57
13.484,-1.22
13.500,2.49
13.515,8.04
13.531,15.6
13.546,24.87
13.562,34.97
13.578,44.61
13.593,52.57
13.609,58.09
13.625,61.11
13.640,62.16
13.656,62.01
13.671,61.31
13.687,60.29
13.703,58.89
13.718,56.86
13.734,54.04
13.750,50.5
13.765,46.46
13.781,42.17
13.796,37.73
13.812,32.94
13.828,27.43
13.843,20.73
13.859,12.52
13.875,2.78
13.890,-8.13
13.906,-19.59
13.921,-30.86
13.937,-41.3
13.953,-50.46
13.968,-58.16
13.984,-64.45
14.000,-69.48
14.015,-73.51
14.031,-76.72
14.046,-79.15
14.062,-80.71
14.078,-81.16
14.093,-80.23
14.109,-77.71
14.125,-73.54
14.140,-67.76
14.156,-60.6
14.171,-52.34
14.187,-43.31
14.203,-33.9
14.218,-24.55
14.234,-15.77
14.250,-8.02
14.265,-1.61
14.281,3.43
14.296,7.3
14.312,10.33
14.328,12.81
14.343,14.89
14.359,16.53
14.375,17.54
14.390,17.78
14.406,17.18
14.421,15.8
14.437,13.84
14.453,11.54
14.468,9.15
14.484,6.88
14.500,4.9
14.515,3.34
14.531,2.11
14.546,1.0
14.562,-0.3
14.578,-2.0
14.593,-4.02
14.609,-5.91
14.625,-6.96
14.640,-6.41
14.656,-3.7
14.671,1.26
14.687,8.13
14.703,16.26
14.718,24.9
14.734,33.36
14.750,41.12
14.765,47.89
14.781,53.62
14.796,58.44
14.812,62.58
14.828,66.3
14.843,69.72
14.859,72.82
14.875,75.37
14.890,77.04
14.906,77.49
14.921,76.45
14.937,73.77
14.953,69.36
14.968,63.23
14.984,55.33
15.000,45.59
15.015,33.87
15.031,20.05
15.046,4.13
15.062,-13.56
15.078,-32.22
15.093,-50.59
15.109,-67.23
15.125,-80.86
15.140,-90.81
15.156,-97.17
15.171,-100.64
15.187,-102.23
15.203,-102.84
15.218,-102.91
15.234,-102.36
15.250,-100.77
15.265,-97.57
15.281,-92.36
15.296,-84.98
15.312,-75.54
15.328,-64.44
15.343,-52.14
15.359,-39.22
15.375,-26.26
15.390,-13.83
15.406,-2.5
15.421,7.29
15.437,15.3
15.453,21.61
15.468,26.61
15.484,30.95
15.500,35.23
15.515,39.9
15.531,44.93
15.546,49.85
15.562,53.93
15.578,56.4
15.593,56.86
15.609,55.28
15.625,52.12
15.640,48.01
15.656,43.61
15.671,39.3
15.687,35.15
15.703,30.91
15.718,26.09
15.734,20.13
15.750,12.5
15.765,2.91
15.781,-8.59
15.796,-21.52
15.812,-34.96
15.828,-47.74
15.843,-58.66
15.859,-66.81
15.875,-71.66
15.890,-73.17
15.906,-71.6
15.921,-67.44
15.937,-61.36
15.953,-53.99
15.968,-46.03
15.984,-38.12
16.000,-30.84
16.015,-24.58
16.031,-19.53
16.046,-15.68
16.062,-12.86
16.078,-10.84
16.093,-9.39
16.109,-8.35
16.125,-7.57
16.140,-6.89
16.156,-6.14
16.171,-5.13
16.187,-3.82
16.203,-2.28
16.218,-0.72
16.234,0.68
16.250,1.83
16.265,2.81
16.281,3.76
16.296,4.75
16.312,5.67
16.328,6.23
16.343,6.07
16.359,4.94
16.375,2.86
16.390,0.07
16.406,-2.97
16.421,-5.72
16.437,-7.65
16.453,-8.32
16.468,-7.57
16.484,-5.58
16.500,-2.89
16.515,-0.29
16.531,1.53
16.546,2.19
16.562,1.82
16.578,0.93
16.593,0.16
16.609,-0.05
16.625,0.36
16.640,1.11
16.656,1.66
16.671,1.64
16.687,0.89
16.703,-0.42
16.718,-1.99
16.734,-3.52
16.750,-4.85
16.765,-5.99
16.781,-6.99
16.796,-7.85
16.812,-8.49
16.828,-8.7
16.843,-8.35
16.859,-7.46
16.875,-6.34
16.890,-5.36
16.906,-4.94
16.921,-5.36
16.937,-6.71
16.953,-8.93
16.968,-11.87
16.984,-15.27
17.000,-18.65
17.015,-21.48
17.031,-23.07
17.046,-22.9
17.062,-20.8
17.078,-17.0
17.093,-12.13
17.109,-6.92
17.125,-1.95
17.140,2.52
17.156,6.49
17.171,10.03
17.187,13.13
17.203,15.6
17.218,17.26
17.234,17.97
17.250,17.84
17.265,17.18
17.281,16.4
17.296,15.83
17.312,15.68
17.328,15.93
17.343,16.41
17.359,16.87
17.375,17.01
17.390,16.7
17.406,15.96
17.421,14.97
17.437,13.97
17.453,13.12
17.468,12.42
17.484,11.62
17.500,10.43
17.515,8.59
17.531,6.01
17.546,2.95
17.562,-0.13
17.578,-2.57
17.593,-3.68
17.609,-2.9
17.625,0.06
17.640,5.1
17.656,11.71
17.671,19.1
17.687,26.4
17.703,32.85
17.718,37.98
17.734,41.68
17.750,44.06
17.765,45.37
17.781,45.88
17.796,45.75
17.812,45.08
17.828,43.93
17.843,42.3
17.859,40.23
17.875,37.62
17.890,34.39
17.906,30.3
17.921,25.07
17.937,18.59
17.953,10.95
17.968,2.66
17.984,-5.48
18.000,-12.53
18.015,-17.74
18.031,-20.82
18.046,-22.03
18.062,-22.07
18.078,-21.69
18.093,-21.48
18.109,-21.66
18.125,-22.14
18.140,-22.57
18.156,-22.57
18.171,-21.76
18.187,-19.8
18.203,-16.52
18.218,-11.96
18.234,-6.38
18.250,-0.26
18.265,5.85
18.281,11.56
18.296,16.68
18.312,21.19
18.328,25.01
18.343,27.84
18.359,29.14
18.375,28.35
18.390,25.18
18.406,19.95
18.421,13.51
18.437,6.95
18.453,1.33
18.468,-2.76
18.484,-5.26
18.500,-6.48
18.515,-6.86
18.531,-6.72
18.546,-6.21
18.562,-5.36
18.578,-4.26
18.593,-3.03
18.609,-1.83
18.625,-0.78
18.640,0.12
18.656,0.89
18.671,1.46
18.687,1.68
18.703,1.36
18.718,0.39
18.734,-1.16
18.750,-2.99
18.765,-4.69
18.781,-5.84
18.796,-6.17
18.812,-5.52
18.828,-3.79
18.843,-0.81
18.859,3.48
18.875,9.0
18.890,15.34
18.906,21.79
18.921,27.52
18.937,31.75
18.953,34.09
18.968,34.58
18.984,33.72
19.000,32.16
19.015,30.54
19.031,29.29
19.046,28.48
19.062,27.99
19.078,27.54
19.093,26.88
19.109,25.89
19.125,24.46
19.140,22.56
19.156,20.14
19.171,17.13
19.187,13.53
19.203,9.48
19.218,5.2
19.234,0.9
19.250,-3.32
19.265,-7.65
19.281,-12.33
19.296,-17.56
19.312,-23.34
19.328,-29.27
19.343,-34.76
19.359,-39.08
19.375,-41.62
19.390,-41.98
19.406,-40.04
19.421,-35.85
19.437,-29.71
19.453,-22.02
19.468,-13.4
19.484,-4.56
19.500,3.72
19.515,10.74
19.531,16.07
19.546,19.51
19.562,21.17
19.578,21.35
19.593,20.36
19.609,18.58
19.625,16.37
19.640,14.02
19.656,11.87
19.671,10.15
19.687,8.91
19.703,7.92
19.718,6.76
19.734,4.88
19.750,1.92
19.765,-2.26
19.781,-7.48
19.796,-13.32
19.812,-19.29
19.828,-25.02
19.843,-30.29
19.859,-35.11
19.875,-39.66
19.890,-44.06
19.906,-48.41
19.921,-52.52
19.937,-55.94
19.953,-57.98
19.968,-57.84
19.984,-54.94
20.000,-49.09
20.015,-40.67
20.031,-30.58
20.046,-20.06
20.062,-10.28
20.078,-2.21
20.093,3.76
20.109,7.67
20.125,9.95
20.140,11.19
20.156,11.94
20.171,12.56
20.187,13.25
20.203,14.05
20.218,14.75
20.234,14.97
20.250,14.1
20.265,11.58
20.281,7.17
20.296,1.27
20.312,-5.02
20.328,-10.19
20.343,-12.85
20.359,-12.41
20.375,-9.28
20.390,-4.8
20.406,-0.62
20.421,1.95
20.437,2.4
20.453,1.02
20.468,-1.32
20.484,-3.59
20.500,-4.93
20.515,-4.8
20.531,-2.99
20.546,0.36
20.562,4.86
20.578,9.9
20.593,14.82
20.609,19.13
20.625,22.6
20.640,25.24
20.656,27.23
20.671,28.74
20.687,29.72
20.703,30.05
20.718,29.49
20.734,27.87
20.750,25.26
20.765,21.96
20.781,18.41
20.796,15.17
20.812,12.7
20.828,11.28
20.843,10.94
20.859,11.43
20.875,12.26
20.890,12.83
20.906,12.55
20.921,11.06
20.937,8.37
20.953,4.97
20.968,1.68
20.984,-0.7
21.000,-1.66
21.015,-1.26
21.031,-0.12
21.046,0.9
21.062,1.02
21.078,0.04
21.093,-1.61
21.109,-2.97
21.125,-2.93
21.140,-0.72
21.156,3.83
21.171,10.23
21.187,17.46
21.203,24.31
21.218,29.74
21.234,33.11
21.250,34.3
21.265,33.59
21.281,31.47
21.296,28.46
21.312,24.94
21.328,21.14
21.343,17.14
21.359,12.93
21.375,8.47
21.390,3.7
21.406,-1.48
21.421,-7.04
21.437,-12.8
21.453,-18.43
21.468,-23.37
21.484,-27.13
21.500,-29.4
21.515,-30.23
21.531,-29.99
21.546,-29.26
21.562,-28.58
21.578,-28.25
21.593,-28.35
21.609,-28.72
21.625,-29.23
21.640,-29.8
21.656,-30.48
21.671,-31.22
21.687,-31.68
21.703,-31.18
21.718,-28.81
21.734,-23.86
21.750,-16.2
21.765,-6.51
21.781,3.86
21.796,13.37
21.812,20.92
21.828,26.1
21.843,29.3
21.859,31.31
21.875,32.83
21.890,34.16
21.906,35.09
21.921,35.08
21.937,33.63
21.953,30.52
21.968,25.92
21.984,20.34
22.000,14.45
22.015,8.78
22.031,3.65
22.046,-0.95
22.062,-5.17
22.078,-9.2
22.093,-13.04
22.109,-16.59
22.125,-19.67
22.140,-22.21
22.156,-24.24
22.171,-25.94
22.187,-27.59
22.203,-29.49
22.218,-31.95
22.234,-35.18
22.250,-39.21
22.265,-43.76
22.281,-48.15
22.296,-51.51
22.312,-52.91
22.328,-51.74
22.343,-47.8
22.359,-41.38
22.375,-32.99
22.390,-23.29
22.406,-12.81
22.421,-1.97
22.437,8.84
22.453,19.24
22.468,28.79
22.484,37.07
22.500,43.82
22.515,49.07
22.531,53.13
22.546,56.56
22.562,59.87
22.578,63.34
22.593,66.77
22.609,69.6
22.625,71.02
22.640,70.37
22.656,67.33
22.671,62.07
22.687,55.17
22.703,47.4
22.718,39.47
22.734,31.77
22.750,24.36
22.765,16.9
22.781,8.92
22.796,0.08
22.812,-9.59
22.828,-19.66
22.843,-29.34
22.859,-37.82
22.875,-44.5
22.890,-49.14
22.906,-51.78
22.921,-52.6
22.937,-51.8
22.953,-49.47
22.968,-45.76
22.984,-41.02
23.000,-35.8
23.015,-30.73
23.031,-26.47
23.046,-23.36
23.062,-21.51
23.078,-20.73
23.093,-20.76
23.109,-21.31
23.125,-22.14
23.140,-22.97
23.156,-23.41
23.171,-23.07
23.187,-21.61
23.203,-19.05
23.218,-15.78
23.234,-12.51
23.250,-9.94
23.265,-8.47
23.281,-7.98
23.296,-7.96
23.312,-7.78
23.328,-6.95
23.343,-5.41
23.359,-3.43
23.375,-1.44
23.390,0.18
23.406,1.19
23.421,1.51
23.437,1.02
23.453,-0.44
23.468,-2.94
23.484,-6.39
23.500,-10.42
23.515,-14.33
23.531,-17.3
23.546,-18.64
23.562,-17.91
23.578,-15.13
23.593,-10.62
23.609,-4.92
23.625,1.28
23.640,7.36
23.656,12.74
23.671,16.91
23.687,19.57
23.703,20.6
23.718,20.12
23.734,18.51
23.750,16.3
23.765,13.96
23.781,11.86
23.796,10.18
23.812,8.84
23.828,7.68
23.843,6.49
23.859,5.09
23.875,3.39
23.890,1.39
23.906,-0.85
23.921,-3.24
23.937,-5.66
23.953,-8.03
23.968,-10.32
23.984,-12.56
24.000,-14.84
24.015,-17.19
24.031,-19.51
24.046,-21.58
24.062,-23.06
24.078,-23.65
24.093,-23.2
24.109,-21.81
24.125,-19.83
24.140,-17.67
24.156,-15.67
24.171,-13.87
24.187,-12.08
24.203,-9.97
24.218,-7.32
24.234,-4.1
24.250,-0.56
24.265,2.93
24.281,6.03
24.296,8.55
24.312,10.38
24.328,11.49
24.343,11.75
24.359,11.02
24.375,9.24
24.390,6.55
24.406,3.43
24.421,0.49
24.437,-1.66
24.453,-2.73
24.468,-2.85
24.484,-2.39
24.500,-1.92
24.515,-1.87
24.531,-2.41
24.546,-3.46
24.562,-4.81
24.578,-6.27
24.593,-7.81
24.609,-9.51
24.625,-11.49
24.640,-13.86
24.656,-16.61
24.671,-19.65
24.687,-22.77
24.703,-25.73
24.718,-28.13
24.734,-29.49
24.750,-29.16
24.765,-26.58
24.781,-21.47
24.796,-14.02
24.812,-4.94
24.828,4.69
24.843,13.81
24.859,21.63
24.875,27.86
24.890,32.64
24.906,36.27
24.921,39.04
24.937,41.13
24.953,42.54
24.968,43.22
24.984,43.17
25.000,42.4
25.015,41.01
25.031,39.14
25.046,36.96
25.062,34.63
25.078,32.35
25.093,30.21
25.109,28.11
25.125,25.84
25.140,23.05
25.156,19.41
25.171,14.77
25.187,9.27
25.203,3.29
25.218,-2.65
25.234,-8.08
25.250,-12.72
25.265,-16.53
25.281,-19.69
25.296,-22.39
25.312,-24.66
25.328,-26.23
25.343,-26.64
25.359,-25.37
25.375,-22.11
25.390,-16.95
25.406,-10.37
25.421,-3.18
25.437,3.8
25.453,9.96
25.468,15.06
25.484,19.08
25.500,22.14
25.515,24.28
25.531,25.38
25.546,25.35
25.562,24.12
25.578,21.93
25.593,19.25
25.609,16.53
25.625,14.13
25.640,12.14
25.656,10.45
25.671,8.89
25.687,7.32
25.703,5.64
25.718,3.82
25.734,1.74
25.750,-0.8
25.765,-3.91
25.781,-7.6
25.796,-11.63
25.812,-15.56
25.828,-18.98
25.843,-21.59
25.859,-23.27
25.875,-24.15
25.890,-24.46
25.906,-24.4
25.921,-24.07
25.937,-23.32
25.953,-21.84
25.968,-19.26
25.984,-15.34
26.000,-10.05
26.015,-3.72
26.031,3.05
26.046,9.5
26.062,14.92
26.078,18.81
26.093,21.03
26.109,21.7
26.125,21.05
26.140,19.37
26.156,16.89
26.171,13.83
26.187,10.38
26.203,6.77
26.218,3.25
26.234,0.1
26.250,-2.51
26.265,-4.59
26.281,-6.29
26.296,-7.89
26.312,-9.6
26.328,-11.51
26.343,-13.54
26.359,-15.5
26.375,-17.12
26.390,-18.22
26.406,-18.77
26.421,-18.83
26.437,-18.63
26.453,-18.39
26.468,-18.28
26.484,-18.42
26.500,-18.93
26.515,-19.77
26.531,-20.82
26.546,-21.77
26.562,-22.17
26.578,-21.6
26.593,-19.73
26.609,-16.46
26.625,-11.95
26.640,-6.61
26.656,-0.91
26.671,4.68
26.687,9.78
26.703,14.18
26.718,17.68
26.734,20.17
26.750,21.59
26.765,21.98
26.781,21.47
26.796,20.37
26.812,18.97
26.828,17.66
26.843,16.69
26.859,16.15
26.875,16.02
26.890,16.18
26.906,16.54
26.921,17.06
26.937,17.79
26.953,18.81
26.968,20.12
26.984,21.57
27.000,22.87
27.015,23.7
27.031,23.82
27.046,23.19
27.062,21.94
27.078,20.26
27.093,18.32
27.109,16.11
27.125,13.55
27.140,10.5
27.156,6.98
27.171,3.28
27.187,-0.08
27.203,-2.46
27.218,-3.29
27.234,-2.32
27.250,0.27
27.265,3.95
27.281,7.91
27.296,11.38
27.312,13.64
27.328,14.24
27.343,13.04
27.359,10.2
27.375,6.21
27.390,1.73
27.406,-2.53
27.421,-5.91
27.437,-7.95
27.453,-8.55
27.468,-7.81
27.484,-6.08
27.500,-3.82
27.515,-1.47
27.531,0.63
27.546,2.29
27.562,3.6
27.578,4.85
27.593,6.39
27.609,8.5
27.625,11.19
27.640,14.1
27.656,16.65
27.671,18.29
27.687,18.73
27.703,18.04
27.718,16.66
27.734,15.18
27.750,14.23
27.765,14.37
27.781,15.89
27.796,18.88
27.812,23.17
27.828,28.37
27.843,33.96
27.859,39.47
27.875,44.57
27.890,49.18
27.906,53.4
27.921,57.12
27.937,59.84
27.953,60.59
27.968,58.12
27.984,51.35
28.000,39.98
28.015,24.76
28.031,7.5
28.046,-9.43
28.062,-23.83
28.078,-34.16
28.093,-39.88
28.109,-41.43
28.125,-39.87
28.140,-36.51
28.156,-32.66
28.171,-29.44
28.187,-27.61
28.203,-27.65
28.218,-29.59
28.234,-33.06
28.250,-37.53
28.265,-42.32
28.281,-46.89
28.296,-50.87
28.312,-54.12
28.328,-56.5
28.343,-57.95
28.359,-58.36
28.375,-57.69
28.390,-56.03
28.406,-53.54
28.421,-50.41
28.437,-46.81
28.453,-42.78
28.468,-38.24
28.484,-33.18
28.500,-27.7
28.515,-22.15
28.531,-17.13
28.546,-13.22
28.562,-10.78
28.578,-9.86
28.593,-10.07
28.609,-10.72
28.625,-11.11
28.640,-10.7
28.656,-9.27
28.671,-6.96
28.687,-4.15
28.703,-1.24
28.718,1.4
28.734,3.53
28.750,5.09
28.765,6.05
28.781,6.45
28.796,6.35
28.812,5.81
28.828,4.9
28.843,3.7
28.859,2.28
28.875,0.73
28.890,-0.86
28.906,-2.38
28.921,-3.72
28.937,-4.71
28.953,-5.17
28.968,-4.9
28.984,-3.76
29.000,-1.78
29.015,0.89
29.031,3.98
29.046,7.22
29.062,10.31
29.078,13.05
29.093,15.24
29.109,16.65
29.125,17.03
29.140,16.21
29.156,14.2
29.171,11.3
29.187,8.06
29.203,5.08
29.218,2.82
29.234,1.34
29.250,0.36
29.265,-0.68
29.281,-2.3
29.296,-4.82
29.312,-8.19
29.328,-12.08
29.343,-16.04
29.359,-19.67
29.375,-22.71
29.390,-25.04
29.406,-26.66
29.421,-27.65
29.437,-28.1
29.453,-28.15
29.468,-27.89
29.484,-27.38
29.500,-26.64
29.515,-25.61
29.531,-24.16
29.546,-22.13
29.562,-19.45
29.578,-16.03
29.593,-11.92
29.609,-7.29
29.625,-2.51
29.640,1.96
29.656,5.63
29.671,8.14
29.687,9.45
29.703,9.75
29.718,9.42
29.734,8.8
29.750,8.15
29.765,7.48
29.781,6.74
29.796,5.85
29.812,4.8
29.828,3.66
29.843,2.51
29.859,1.37
29.875,0.12
29.890,-1.31
29.906,-3.0
29.921,-4.87
29.937,-6.77
29.953,-8.53
29.968,-10.02
29.984,-11.14
30.000,-11.87
30.015,-12.19
30.031,-11.98
30.046,-11.07
30.062,-9.25
30.078,-6.35
30.093,-2.32
30.109,2.66
30.125,8.25
30.140,14.04
30.156,19.54
30.171,24.39
30.187,28.3
30.203,31.08
30.218,32.58
30.234,32.75
30.250,31.6
30.265,29.3
30.281,26.27
30.296,23.05
30.312,20.22
30.328,18.19
30.343,17.1
30.359,16.78
30.375,16.88
30.390,17.04
30.406,16.97
30.421,16.62
30.437,16.02
30.453,15.26
30.468,14.4
30.484,13.41
30.500,12.24
30.515,10.79
30.531,9.0
30.546,6.79
30.562,4.14
30.578,1.08
30.593,-2.09
30.609,-4.95
30.625,-7.02
30.640,-7.94
30.656,-7.69
30.671,-6.55
30.687,-5.02
30.703,-3.6
30.718,-2.62
30.734,-2.15
30.750,-2.04
30.765,-2.1
30.781,-2.19
30.796,-2.3
30.812,-2.48
30.828,-2.81
30.843,-3.23
30.859,-3.63
30.875,-3.88
30.890,-3.89
30.906,-3.72
30.921,-3.43
30.937,-3.16
30.953,-2.93
30.968,-2.64
30.984,-2.05
31.000,-0.99
31.015,0.59
31.031,2.45
31.046,4.13
31.062,5.22
31.078,5.37
31.093,4.52
31.109,2.91
31.125,0.98
31.140,-0.76
31.156,-1.88
31.171,-2.05
31.187,-1.14
31.203,0.93
31.218,4.07
31.234,8.08
31.250,12.62
31.265,17.19
31.281,21.26
31.296,24.38
31.312,26.19
31.328,26.5
31.343,25.38
31.359,23.07
31.375,19.96
31.390,16.56
31.406,13.37
31.421,10.77
31.437,8.93
31.453,7.79
31.468,7.12
31.484,6.64
31.500,6.1
31.515,5.43
31.531,4.65
31.546,3.87
31.562,3.12
31.578,2.41
31.593,1.58
31.609,0.45
31.625,-1.24
31.640,-3.66
31.656,-6.78
31.671,-10.32
31.687,-13.6
31.703,-15.72
31.718,-15.72
31.734,-12.93
31.750,-7.27
31.765,0.75
31.781,10.12
31.796,19.68
31.812,28.44
31.828,35.85
31.843,41.7
31.859,46.15
31.875,49.44
31.890,51.77
31.906,53.21
31.921,53.77
31.937,53.44
31.953,52.2
31.968,50.12
31.984,47.17
32.000,43.27
32.015,38.22
32.031,31.74
32.046,23.6
32.062,13.8
32.078,2.63
32.093,-9.3
32.109,-21.12
32.125,-32.02
32.140,-41.36
32.156,-48.78
32.171,-54.3
32.187,-58.1
32.203,-60.47
32.218,-61.63
32.234,-61.59
32.250,-60.2
32.265,-57.25
32.281,-52.58
32.296,-46.26
32.312,-38.66
32.328,-30.3
32.343,-21.79
32.359,-13.55
32.375,-5.77
32.390,1.6
32.406,8.61
32.421,15.21
32.437,21.18
32.453,26.08
32.468,29.5
32.484,31.12
32.500,30.89
32.515,28.97
32.531,25.6
32.546,20.99
32.562,15.27
32.578,8.48
32.593,0.81
32.609,-7.32
32.625,-15.26
32.640,-22.22
32.656,-27.52
32.671,-30.72
32.687,-31.71
32.703,-30.63
32.718,-27.89
32.734,-24.05
32.750,-19.75
32.765,-15.69
32.781,-12.45
32.796,-10.31
32.812,-9.11
32.828,-8.29
32.843,-7.09
32.859,-4.88
32.875,-1.41
32.890,3.11
32.906,8.13
32.921,13.03
32.937,17.37
32.953,20.95
32.968,23.9
32.984,26.39
33.000,28.55
33.015,30.37
33.031,31.75
33.046,32.6
33.062,33.01
33.078,33.14
33.093,33.13
33.109,32.98
33.125,32.49
33.140,31.33
33.156,29.22
33.171,25.98
33.187,21.55
33.203,15.89
33.218,8.87
33.234,0.36
33.250,-9.64
33.265,-20.74
33.281,-32.14
33.296,-42.69
33.312,-51.23
33.328,-56.86
33.343,-59.08
33.359,-57.87
33.375,-53.67
33.390,-47.23
33.406,-39.46
33.421,-31.25
33.437,-23.22
33.453,-15.72
33.468,-8.78
33.484,-2.37
33.500,3.52
33.515,8.8
33.531,13.36
33.546,17.2
33.562,20.47
33.578,23.53
33.593,26.64
33.609,29.84
33.625,32.88
33.640,35.31
33.656,36.75
33.671,37.0
33.687,36.1
33.703,34.13
33.718,31.08
33.734,26.8
33.750,21.04
33.765,13.67
33.781,4.84
33.796,-4.92
33.812,-14.82
33.828,-24.05
33.843,-32.03
33.859,-38.4
33.875,-42.96
33.890,-45.52
33.906,-45.77
33.921,-43.53
33.937,-38.75
33.953,-31.81
33.968,-23.28
33.984,-14.02
34.000,-4.78
34.015,3.86
34.031,11.5
34.046,17.99
34.062,23.21
34.078,27.19
34.093,30.09
34.109,32.21
34.125,33.93
34.140,35.6
34.156,37.37
34.171,39.16
34.187,40.81
34.203,42.05
34.218,42.65
34.234,42.42
34.250,41.27
34.265,39.15
34.281,36.09
34.296,32.18
34.312,27.54
34.328,22.39
34.343,16.89
34.359,11.09
34.375,4.86
34.390,-2.06
34.406,-9.89
34.421,-18.71
34.437,-28.3
34.453,-38.18
34.468,-47.67
34.484,-56.07
34.500,-62.74
34.515,-67.23
34.531,-69.31
34.546,-68.95
34.562,-66.37
34.578,-61.95
34.593,-56.21
34.609,-49.7
34.625,-42.93
34.640,-36.27
34.656,-29.97
34.671,-24.23
34.687,-19.11
34.703,-14.64
34.718,-10.71
34.734,-7.15
34.750,-3.76
34.765,-0.44
34.781,2.79
34.796,5.71
34.812,8.07
34.828,9.71
34.843,10.61
34.859,10.98
34.875,11.04
34.890,10.96
34.906,10.65
34.921,9.82
34.937,8.09
34.953,5.2
34.968,1.04
34.984,-4.3
35.000,-10.54
35.015,-17.36
35.031,-24.27
35.046,-30.56
35.062,-35.38
35.078,-37.88
35.093,-37.47
35.109,-34.12
35.125,-28.38
35.140,-21.14
35.156,-13.39
35.171,-5.95
35.187,0.78
35.203,6.64
35.218,11.66
35.234,15.87
35.250,19.21
35.265,21.59
35.281,23.04
35.296,23.65
35.312,23.69
35.328,23.53
35.343,23.46
35.359,23.7
35.375,24.22
35.390,24.84
35.406,25.24
35.421,25.1
35.437,24.17
35.453,22.41
35.468,19.95
35.484,16.95
35.500,13.6
35.515,9.99
35.531,6.08
35.546,1.76
35.562,-3.12
35.578,-8.62
35.593,-14.66
35.609,-20.97
35.625,-27.2
35.640,-32.88
35.656,-37.43
35.671,-40.36
35.687,-41.26
35.703,-39.95
35.718,-36.55
35.734,-31.43
35.750,-25.05
35.765,-18.01
35.781,-10.86
35.796,-4.04
35.812,2.12
35.828,7.42
35.843,11.88
35.859,15.58
35.875,18.75
35.890,21.62
35.906,24.4
35.921,27.3
35.937,30.49
35.953,34.05
35.968,38.01
35.984,42.21
36.000,46.21
36.015,49.45
36.031,51.29
36.046,51.27
36.062,49.25
36.078,45.35
36.093,39.8
36.109,32.82
36.125,24.45
36.140,14.55
36.156,3.05
36.171,-9.85
36.187,-23.58
36.203,-37.08
36.218,-49.12
36.234,-58.5
36.250,-64.3
36.265,-66.07
36.281,-63.87
36.296,-58.24
36.312,-50.03
36.328,-40.28
36.343,-29.9
36.359,-19.66
36.375,-10.05
36.390,-1.38
36.406,6.12
36.421,12.27
36.437,17.0
36.453,20.33
36.468,22.43
36.484,23.7
36.500,24.49
36.515,25.18
36.531,25.96
36.546,26.81
36.562,27.67
36.578,28.39
36.593,28.81
36.609,28.76
36.625,28.12
36.640,26.79
36.656,24.74
36.671,22.09
36.687,18.83
36.703,15.01
36.718,10.63
36.734,5.63
36.750,0.07
36.765,-5.85
36.781,-11.78
36.796,-17.28
36.812,-21.9
36.828,-25.34
36.843,-27.46
36.859,-28.31
36.875,-28.06
36.890,-26.77
36.906,-24.52
36.921,-21.31
36.937,-17.23
36.953,-12.55
36.968,-7.75
36.984,-3.34
37.000,0.35
37.015,3.19
37.031,5.52
37.046,7.72
37.062,10.18
37.078,13.11
37.093,16.55
37.109,20.38
37.125,24.52
37.140,28.84
37.156,33.0
37.171,36.63
37.187,39.16
37.203,40.17
37.218,39.6
37.234,37.71
37.250,34.98
37.265,31.83
37.281,28.33
37.296,24.1
37.312,18.69
37.328,11.79
37.343,3.61
37.359,-5.11
37.375,-13.38
37.390,-20.31
37.406,-25.43
37.421,-28.73
37.437,-30.64
37.453,-31.63
37.468,-32.13
37.484,-32.42
37.500,-32.52
37.515,-32.4
37.531,-31.94
37.546,-31.03
37.562,-29.54
37.578,-27.47
37.593,-24.86
37.609,-21.81
37.625,-18.5
37.640,-15.09
37.656,-11.83
37.671,-9.03
37.687,-6.98
37.703,-5.79
37.718,-5.26
37.734,-4.99
37.750,-4.5
37.765,-3.53
37.781,-2.09
37.796,-0.43
37.812,1.28
37.828,3.13
37.843,5.44
37.859,8.33
37.875,11.39
37.890,13.62
37.906,13.68
37.921,10.63
37.937,4.29
37.953,-4.67
37.968,-15.07
37.984,-25.77
38.000,-35.86
38.015,-44.64
38.031,-51.43
38.046,-55.54
38.062,-56.45
38.078,-54.19
38.093,-49.45
38.109,-43.41
38.125,-37.16
38.140,-31.16
38.156,-25.03
38.171,-18.01
38.187,-9.57
38.203,0.11
38.218,10.09
38.234,19.23
38.250,26.74
38.265,32.6
38.281,37.52
38.296,42.49
38.312,48.16
38.328,54.57
38.343,61.18
38.359,67.25
38.375,72.12
38.390,75.34
38.406,76.58
38.421,75.48
38.437,71.66
38.453,64.86
38.468,55.23
38.484,43.42
38.500,30.45
38.515,17.4
38.531,5.03
38.546,-6.32
38.562,-16.69
38.578,-26.18
38.593,-34.65
38.609,-41.7
38.625,-46.85
38.640,-49.81
38.656,-50.83
38.671,-50.53
38.687,-49.64
38.703,-48.65
38.718,-47.6
38.734,-46.05
38.750,-43.52
38.765,-39.74
38.781,-34.87
38.796,-29.38
38.812,-23.77
38.828,-18.38
38.843,-13.27
38.859,-8.33
38.875,-3.48
38.890,1.23
38.906,5.62
38.921,9.43
38.937,12.44
38.953,14.52
38.968,15.66
38.984,15.97
39.000,15.68
39.015,14.99
39.031,14.02
39.046,12.73
39.062,10.95
39.078,8.47
39.093,5.27
39.109,1.49
39.125,-2.61
39.140,-6.79
39.156,-11.02
39.171,-15.53
39.187,-20.64
39.203,-26.48
39.218,-32.88
39.234,-39.29
39.250,-44.9
39.265,-48.91
39.281,-50.67
39.296,-49.84
39.312,-46.4
39.328,-40.65
39.343,-33.14
39.359,-24.55
39.375,-15.62
39.390,-7.04
39.406,0.66
39.421,7.18
39.437,12.42
39.453,16.57
39.468,19.9
39.484,22.74
39.500,25.38
39.515,28.04
39.531,30.8
39.546,33.66
39.562,36.5
39.578,39.09
39.593,41.14
39.609,42.33
39.625,42.4
39.640,41.24
39.656,38.93
39.671,35.76
39.687,32.0
39.703,27.9
39.718,23.62
39.734,19.18
39.750,14.54
39.765,9.71
39.781,4.77
39.796,-0.05
39.812,-4.31
39.828,-7.51
39.843,-9.17
39.859,-9.02
39.875,-7.12
39.890,-3.92
39.906,-0.08
39.921,3.78
39.937,7.31
39.953,10.53
39.968,13.67
39.984,16.96
40.000,20.45
40.015,23.85
40.031,26.7
40.046,28.59
40.062,29.33
40.078,29.09
40.093,28.25
40.109,27.36
40.125,26.83
40.140,27.03
40.156,28.05
40.171,29.75
40.187,31.72
40.203,33.33
40.218,33.94
40.234,33.01
40.250,30.36
40.265,26.12
40.281,20.61
40.296,14.11
40.312,6.74
40.328,-1.55
40.343,-10.79
40.359,-20.76
40.375,-30.85
40.390,-40.24
40.406,-48.18
40.421,-54.17
40.437,-58.12
40.453,-60.04
40.468,-59.85
40.484,-57.19
40.500,-51.57
40.515,-42.69
40.531,-30.87
40.546,-17.12
40.562,-2.96
40.578,10.12
40.593,21.13
40.609,29.91
40.625,36.91
40.640,42.94
40.656,48.7
40.671,54.51
40.687,60.21
40.703,65.22
40.718,68.73
40.734,69.88
40.750,68.01
40.765,62.98
40.781,55.36
40.796,46.43
40.812,37.82
40.828,31.03
40.843,26.85
40.859,25.05
40.875,24.5
40.890,23.6
40.906,20.85
40.921,15.36
40.937,7.05
40.953,-3.51
40.968,-15.28
40.984,-27.08
41.000,-37.78
41.015,-46.35
41.031,-52.07
41.046,-54.54
41.062,-53.81
41.078,-50.24
41.093,-44.4
41.109,-36.89
41.125,-28.26
41.140,-19.0
41.156,-9.64
41.171,-0.81
41.187,6.81
41.203,12.64
41.218,16.42
41.234,18.31
41.250,18.89
41.265,18.99
41.281,19.4
41.296,20.72
41.312,23.23
41.328,26.8
41.343,31.1
41.359,35.62
41.375,39.85
41.390,43.41
41.406,46.05
41.421,47.58
41.437,47.87
41.453,46.71
41.468,43.91
41.484,39.45
41.500,33.54
41.515,26.76
41.531,19.95
41.546,13.99
41.562,9.48
41.578,6.63
41.593,5.16
41.609,4.48
41.625,3.9
41.640,2.87
41.656,1.1
41.671,-1.4
41.687,-4.36
41.703,-7.47
41.718,-10.41
41.734,-13.02
41.750,-15.22
41.765,-17.08
41.781,-18.62
41.796,-19.82
41.812,-20.57
41.828,-20.72
41.843,-20.13
41.859,-18.77
41.875,-16.8
41.890,-14.51
41.906,-12.23
41.921,-10.35
41.937,-9.1
41.953,-8.65
41.968,-9.04
41.984,-10.32
42.000,-12.52
42.015,-15.8
42.031,-20.3
42.046,-26.13
42.062,-33.23
42.078,-41.32
42.093,-49.87
42.109,-58.16
42.125,-65.49
42.140,-71.19
42.156,-74.93
42.171,-76.66
42.187,-76.64
42.203,-75.25
42.218,-72.87
42.234,-69.69
42.250,-65.74
42.265,-61.02
42.281,-55.66
42.296,-50.0
42.312,-44.45
42.328,-39.34
42.343,-34.65
42.359,-30.06
42.375,-25.08
42.390,-19.33
42.406,-12.8
42.421,-5.87
42.437,0.81
42.453,6.77
42.468,11.77
42.484,15.95
42.500,19.69
42.515,23.26
42.531,26.7
42.546,29.63
42.562,31.47
42.578,31.55
42.593,29.45
42.609,25.04
42.625,18.52
42.640,10.27
42.656,0.72
42.671,-9.71
42.687,-20.59
42.703,-31.36
42.718,-41.45
42.734,-50.32
42.750,-57.65
42.765,-63.54
42.781,-68.27
42.796,-72.14
42.812,-75.04
42.828,-76.41
42.843,-75.32
42.859,-71.03
42.875,-63.42
42.890,-53.22
42.906,-41.89
42.921,-31.04
42.937,-22.0
42.953,-15.35
42.968,-10.96
42.984,-8.33
43.000,-6.89
43.015,-6.34
43.031,-6.57
43.046,-7.57
43.062,-9.14
43.078,-10.93
43.093,-12.54
43.109,-13.63
43.125,-14.18
43.140,-14.38
43.156,-14.55
43.171,-14.9
43.187,-15.46
43.203,-16.09
43.218,-16.65
43.234,-17.18
43.250,-17.86
43.265,-18.87
43.281,-20.06
43.296,-20.93
43.312,-20.63
43.328,-18.34
43.343,-13.58
43.359,-6.51
43.375,2.13
43.390,11.3
43.406,19.97
43.421,27.48
43.437,33.56
43.453,38.25
43.468,41.67
43.484,43.89
43.500,44.9
43.515,44.74
43.531,43.57
43.546,41.68
43.562,39.49
43.578,37.31
43.593,35.34
43.609,33.63
43.625,32.12
43.640,30.72
43.656,29.38
43.671,28.12
43.687,26.95
43.703,25.94
43.718,25.13
43.734,24.56
43.750,24.25
43.765,24.05
43.781,23.66
43.796,22.55
43.812,20.2
43.828,16.28
43.843,10.95
43.859,4.94
43.875,-0.56
43.890,-4.29
43.906,-5.46
43.921,-3.98
43.937,-0.54
43.953,3.75
43.968,7.8
43.984,10.96
44.000,13.09
44.015,14.41
44.031,15.14
44.046,15.32
44.062,14.84
44.078,13.59
44.093,11.69
44.109,9.57
44.125,7.85
44.140,7.11
44.156,7.59
44.171,9.15
44.187,11.34
44.203,13.63
44.218,15.59
44.234,16.89
44.250,17.29
44.265,16.57
44.281,14.52
44.296,11.1
44.312,6.56
44.328,1.47
44.343,-3.48
44.359,-7.78
44.375,-11.43
44.390,-14.99
44.406,-19.3
44.421,-24.99
44.437,-31.91
44.453,-39.09
44.468,-45.01
44.484,-48.26
44.500,-48.13
44.515,-44.93
44.531,-39.74
44.546,-33.89
44.562,-28.35
44.578,-23.43
44.593,-18.84
44.609,-14.15
44.625,-9.23
44.640,-4.36
44.656,-0.19
44.671,2.72
44.687,4.31
44.703,5.0
44.718,5.57
44.734,6.67
44.750,8.52
44.765,10.79
44.781,12.8
44.796,13.93
44.812,13.94
44.828,13.1
44.843,12.07
44.859,11.5
44.875,11.8
44.890,12.95
44.906,14.6
44.921,16.15
44.937,17.04
44.953,16.85
44.968,15.26
44.984,12.16
45.000,7.48
45.015,1.38
45.031,-5.67
45.046,-12.87
45.062,-19.23
45.078,-23.88
45.093,-26.35
45.109,-26.75
45.125,-25.64
45.140,-23.67
45.156,-21.19
45.171,-18.19
45.187,-14.36
45.203,-9.43
45.218,-3.44
45.234,3.12
45.250,9.58
45.265,15.32
45.281,20.02
45.296,23.74
45.312,26.68
45.328,29.02
45.343,30.82
45.359,32.03
45.375,32.66
45.390,32.79
45.406,32.66
45.421,32.45
45.437,32.29
45.453,32.14
45.468,31.91
45.484,31.52
45.500,30.92
45.515,30.08
45.531,28.86
45.546,26.97
45.562,24.05
45.578,19.91
45.593,14.63
45.609,8.78
45.625,3.17
45.640,-1.36
45.656,-4.25
45.671,-5.44
45.687,-5.27
45.703,-4.27
45.718,-2.76
45.734,-0.71
45.750,2.21
45.765,6.38
45.781,11.76
45.796,17.84
45.812,23.69
45.828,28.41
45.843,31.49
45.859,33.14
45.875,34.11
45.890,35.34
45.906,37.54
45.921,40.85
45.937,44.84
45.953,48.81
45.968,52.2
45.984,54.73
46.000,56.55
46.015,57.93
46.031,59.08
46.046,59.94
46.062,60.16
46.078,59.33
46.093,57.22
46.109,54.0
46.125,50.09
46.140,46.07
46.156,42.3
46.171,38.82
46.187,35.46
46.203,31.96
46.218,28.29
46.234,24.62
46.250,21.26
46.265,18.45
46.281,16.27
46.296,14.51
46.312,12.76
46.328,10.6
46.343,7.66
46.359,3.75
46.375,-1.15
46.390,-6.74
46.406,-12.52
46.421,-17.7
46.437,-21.46
46.453,-23.16
46.468,-22.45
46.484,-19.45
46.500,-14.59
46.515,-8.51
46.531,-1.92
46.546,4.61
46.562,10.66
46.578,16.05
46.593,20.81
46.609,25.19
46.625,29.45
46.640,33.87
46.656,38.58
46.671,43.39
46.687,47.82
46.703,51.1
46.718,52.29
46.734,50.38
46.750,44.55
46.765,34.44
46.781,20.37
46.796,3.41
46.812,-14.97
46.828,-33.25
46.843,-50.38
46.859,-65.88
46.875,-79.81
46.890,-92.36
46.906,-103.51
46.921,-112.89
46.937,-119.87
46.953,-123.86
46.968,-124.55
46.984,-122.04
47.000,-116.7
47.015,-109.04
47.031,-99.58
47.046,-88.82
47.062,-77.36
47.078,-65.9
47.093,-55.37
47.109,-46.65
47.125,-40.48
47.140,-37.2
47.156,-36.57
47.171,-37.88
47.187,-40.14
47.203,-42.46
47.218,-44.15
47.234,-44.93
47.250,-44.87
47.265,-44.2
47.281,-43.27
47.296,-42.39
47.312,-41.89
47.328,-42.0
47.343,-42.79
47.359,-43.94
47.375,-44.85
47.390,-44.7
47.406,-42.67
47.421,-38.28
47.437,-31.54
47.453,-23.09
47.468,-14.09
47.484,-5.96
47.500,-0.03
47.515,2.87
47.531,2.63
47.562,-3.83
47.578,-7.56
47.593,-10.29
47.609,-11.73
47.625,-12.07
47.640,-11.68
47.656,-10.82
47.671,-9.46
47.687,-7.44
47.703,-4.72
47.718,-1.55
47.734,1.6
47.750,4.24
47.765,6.08
47.781,7.1
47.796,7.46
47.812,7.36
47.828,6.89
47.843,5.97
47.859,4.49
47.875,2.34
47.890,-0.59
47.906,-4.35
47.921,-8.98
47.937,-14.34
47.953,-20.01
47.968,-25.24
47.984,-29.11
48.000,-30.84
48.015,-30.1
48.031,-27.19
48.046,-22.85
48.062,-17.94
48.078,-13.0
48.093,-8.17
48.109,-3.36
48.125,1.57
48.140,6.4
48.156,10.72
48.171,14.07
48.187,16.36
48.203,17.99
48.218,19.79
48.234,22.57
48.250,26.67
48.265,31.81
48.281,37.14
48.296,41.7
48.312,44.79
48.328,46.21
48.343,46.24
48.359,45.5
48.375,44.63
48.390,44.19
48.406,44.55
48.421,45.74
48.437,47.41
48.453,48.85
48.468,49.04
48.484,46.96
48.500,42.05
48.515,34.41
48.531,24.99
48.546,15.31
48.562,6.94
48.578,1.09
48.593,-1.73
48.609,-1.92
48.625,-0.58
48.640,0.81
48.656,0.8
48.671,-1.46
48.687,-5.96
48.703,-11.87
48.718,-17.87
48.734,-22.79
48.750,-26.01
48.765,-27.64
48.781,-28.3
48.796,-28.68
48.812,-29.11
48.828,-29.5
48.843,-29.48
48.859,-28.7
48.875,-27.15
48.890,-25.09
48.906,-22.84
48.921,-20.51
48.937,-17.95
48.953,-14.81
48.968,-10.85
48.984,-6.1
49.000,-0.97
49.015,3.84
49.031,7.57
49.046,9.74
49.062,10.26
49.078,9.53
49.093,8.34
49.109,7.65
49.125,8.34
49.140,11.03
49.156,15.86
49.171,22.52
49.187,30.31
49.203,38.28
49.218,45.47
49.234,51.07
49.250,54.53
49.265,55.54
49.281,54.01
49.296,50.01
49.312,43.8
49.328,35.83
49.343,26.69
49.359,17.12
49.375,7.85
49.390,-0.49
49.406,-7.48
49.421,-12.97
49.437,-17.0
49.453,-19.77
49.468,-21.55
49.484,-22.61
49.500,-23.09
49.515,-22.93
49.531,-21.91
49.546,-19.69
49.562,-15.96
49.578,-10.72
49.593,-4.38
49.609,2.2
49.625,7.82
49.640,11.18
49.656,11.22
49.671,7.44
49.687,0.14
49.703,-9.58
49.718,-20.05
49.734,-29.45
49.750,-36.31
49.765,-39.8
49.781,-39.81
49.796,-36.78
49.812,-31.45
49.828,-24.62
49.843,-17.09
49.859,-9.75
49.875,-3.4
49.890,1.3
49.906,4.1
49.921,5.25
49.937,5.46
49.953,5.56
49.968,6.26
49.984,7.9
50.000,10.27
50.015,12.96
50.031,15.41
50.046,17.1
50.062,17.71
50.078,17.07
50.093,15.19
50.109,12.38
50.125,9.12
50.140,5.9
50.156,3.2
50.171,1.15
50.187,-0.47
50.203,-2.19
50.218,-4.61
50.234,-8.1
50.250,-12.53
50.265,-17.12
50.281,-20.74
50.296,-22.21
50.312,-20.85
50.328,-16.66
50.343,-10.38
50.359,-3.13
50.375,4.1
50.390,10.7
50.406,16.54
50.421,21.55
50.437,25.51
50.453,27.79
50.468,27.66
50.484,24.7
50.500,19.19
50.515,12.27
50.531,5.57
50.546,0.65
50.562,-1.59
50.578,-1.11
50.593,1.34
50.609,4.67
50.625,7.83
50.640,10.11
50.656,11.16
50.671,10.91
50.687,9.42
50.703,6.87
50.718,3.55
50.734,-0.09
50.750,-3.59
50.765,-6.57
50.781,-8.92
50.796,-10.87
50.812,-12.79
50.828,-14.96
50.843,-17.26
50.859,-19.15
50.875,-19.83
50.890,-18.63
50.906,-15.29
50.921,-10.11
50.937,-3.8
50.953,2.85
50.968,9.3
50.984,15.41
51.000,21.31
51.015,27.17
51.031,32.91
51.046,38.12
51.062,42.16
51.078,44.62
51.093,45.44
51.109,45.29
51.125,45.24
51.140,46.56
51.156,50.07
51.171,55.82
51.187,63.0
51.203,70.12
51.218,75.51
51.234,77.79
51.250,76.33
51.265,71.29
51.281,63.62
51.296,54.61
51.312,45.52
51.328,37.12
51.343,29.34
51.359,21.32
51.375,11.6
51.390,-1.21
51.406,-17.76
51.421,-37.31
51.437,-57.71
51.453,-75.74
51.468,-88.12
51.484,-92.51
51.500,-88.22
51.515,-76.44
51.531,-59.72
51.546,-41.24
51.562,-23.8
51.578,-9.33
51.593,1.32
51.609,8.2
51.625,11.79
51.640,12.87
51.656,12.31
51.671,11.15
51.687,10.45
51.703,11.19
51.718,13.89
51.734,18.24
51.750,23.23
51.765,27.48
51.781,29.89
51.796,30.31
51.812,29.57
51.828,29.16
51.843,30.35
51.859,33.48
51.875,37.58
51.890,40.86
51.906,41.39
51.921,38.04
51.937,30.97
51.953,21.58
51.968,12.07
51.984,4.77
52.000,1.48
52.015,3.19
52.031,9.98
52.046,21.1
52.062,35.27
52.078,50.83
52.093,66.18
52.109,79.97
52.125,91.36
52.140,100.19
52.156,106.79
52.171,111.87
52.187,116.03
52.203,119.61
52.218,122.46
52.234,124.09
52.250,123.93
52.265,121.68
52.281,117.42
52.296,111.59
52.312,104.84
52.328,97.75
52.343,90.72
52.359,83.86
52.375,77.04
52.390,69.95
52.406,62.35
52.421,54.31
52.437,46.33
52.453,39.31
52.468,34.0
52.484,30.57
52.500,28.51
52.515,26.79
52.531,24.57
52.546,21.69
52.562,18.77
52.578,16.68
52.593,16.09
52.609,16.95
52.625,18.7
52.640,20.84
52.656,23.38
52.671,26.91
52.687,32.07
52.703,38.75
52.718,45.59
52.734,50.25
52.750,50.08
52.765,43.24
52.781,29.35
52.796,9.55
52.812,-13.93
52.828,-38.63
52.843,-62.53
52.859,-84.49
52.875,-103.92
52.890,-120.3
52.906,-132.76
52.921,-140.2
52.937,-141.82
52.953,-137.75
52.968,-129.23
52.984,-118.28
53.000,-106.93
53.015,-96.58
53.031,-88.0
53.046,-81.53
53.062,-77.62
53.078,-77.03
53.093,-80.3
53.109,-87.25
53.125,-96.48
53.140,-105.66
53.156,-112.43
53.171,-115.38
53.187,-114.62
53.203,-111.46
53.218,-107.53
53.234,-103.74
53.250,-99.56
53.265,-93.13
53.281,-82.04
53.296,-64.48
53.312,-40.39
53.328,-11.81
53.343,17.66
53.359,43.9
53.375,63.75
53.390,76.02
53.406,81.69
53.421,83.29
53.437,84.01
53.453,86.44
53.468,92.16
53.484,101.74
53.500,115.05
53.515,131.5
53.531,149.86
53.546,167.97
53.562,182.83
53.578,191.68
53.593,193.16
53.609,188.25
53.625,179.85
53.640,171.13
53.656,163.62
53.671,156.35
53.687,146.57
53.703,131.78
53.718,111.74
53.734,88.82
53.750,66.62
53.765,47.56
53.781,31.44
53.796,15.96
53.812,-1.19
53.828,-20.19
53.843,-38.63
53.859,-53.07
53.875,-61.55
53.890,-65.21
53.906,-67.85
53.921,-73.88
53.937,-85.69
53.953,-102.54
53.968,-121.06
53.984,-137.19
54.000,-148.14
54.015,-153.29
54.031,-153.95
54.046,-152.21
54.062,-150.07
54.078,-148.82
54.093,-149.06
54.109,-150.68
54.125,-153.07
54.140,-155.35
54.156,-156.75
54.171,-156.95
54.187,-156.22
54.203,-155.14
54.218,-154.23
54.234,-153.46
54.250,-152.08
54.265,-148.89
54.281,-142.65
54.296,-132.46
54.312,-118.24
54.328,-100.86
54.343,-82.13
54.359,-64.46
54.375,-50.35
54.390,-41.72
54.406,-39.3
54.421,-42.57
54.437,-49.88
54.453,-59.01
54.468,-67.82
54.484,-74.66
54.500,-78.57
54.515,-79.29
54.531,-77.16
54.546,-72.98
54.562,-67.84
54.578,-62.82
54.593,-58.76
54.609,-56.09
54.625,-54.71
54.640,-54.04
54.656,-53.26
54.671,-51.48
54.687,-47.99
54.703,-42.65
54.718,-36.01
54.734,-29.27
54.750,-23.9
54.765,-21.1
54.781,-21.33
54.796,-24.06
54.812,-28.09
54.828,-31.99
54.843,-34.73
54.859,-35.97
54.875,-35.95
54.890,-35.18
54.906,-34.08
54.921,-32.79
54.937,-31.23
54.953,-29.28
54.968,-26.82
54.984,-23.88
55.000,-20.61
55.015,-17.24
55.031,-14.19
55.046,-12.01
55.062,-11.27
55.078,-12.31
55.093,-15.08
55.109,-18.9
55.125,-22.71
55.140,-25.36
55.156,-26.03
55.171,-24.45
55.187,-21.01
55.203,-16.49
55.218,-11.78
55.234,-7.66
55.250,-4.54
55.265,-2.43
55.281,-1.14
55.296,-0.35
55.312,0.02
55.328,-0.23
55.343,-1.63
55.359,-4.8
55.375,-10.08
55.390,-17.31
55.406,-25.57
55.421,-33.48
55.437,-39.42
55.453,-42.12
55.468,-41.01
55.484,-36.32
55.500,-28.94
55.515,-20.13
55.531,-10.99
55.546,-2.31
55.562,5.58
55.578,12.65
55.593,18.89
55.609,24.12
55.625,28.08
55.640,30.5
55.656,31.28
55.671,30.69
55.687,29.29
55.703,27.72
55.718,26.47
55.734,25.71
55.750,25.25
55.765,24.82
55.781,24.19
55.796,23.37
55.812,22.6
55.828,22.21
55.843,22.41
55.859,23.12
55.875,23.97
55.890,24.34
55.906,23.7
55.921,21.67
55.937,18.19
55.953,13.44
55.968,7.71
55.984,1.49
56.000,-4.52
56.015,-9.36
56.031,-11.88
56.046,-11.08
56.062,-6.4
56.078,1.99
56.093,13.19
56.109,25.73
56.125,38.06
56.140,48.82
56.156,57.06
56.171,62.27
56.187,64.34
56.203,63.45
56.218,60.11
56.234,55.05
56.250,49.1
56.265,43.01
56.281,37.3
56.296,32.13
56.312,27.39
56.328,22.84
56.343,18.21
56.359,13.34
56.375,8.23
56.390,3.03
56.406,-2.02
56.421,-6.62
56.437,-10.57
56.453,-13.82
56.468,-16.59
56.484,-19.29
56.500,-22.43
56.515,-26.5
56.531,-31.67
56.546,-37.76
56.562,-44.14
56.578,-49.82
56.593,-53.62
56.609,-54.5
56.625,-51.87
56.640,-45.81
56.656,-37.15
56.671,-27.0
56.687,-16.44
56.703,-6.18
56.718,3.61
56.734,13.0
56.750,21.96
56.765,30.13
56.781,36.8
56.796,41.22
56.812,43.0
56.828,42.29
56.843,39.76
56.859,36.32
56.875,32.76
56.890,29.52
56.906,26.65
56.921,23.98
56.937,21.3
56.953,18.5
56.968,15.63
56.984,12.81
57.000,10.06
57.015,7.14
57.031,3.52
57.046,-1.47
57.062,-8.23
57.078,-16.59
57.093,-25.66
57.109,-33.87
57.125,-39.36
57.140,-40.37
57.156,-35.65
57.171,-24.58
57.187,-7.2
57.203,15.79
57.218,43.09
57.234,72.88
57.250,102.99
57.265,131.18
57.281,155.47
57.296,174.36
57.312,186.99
57.328,193.13
57.343,193.1
57.359,187.75
57.375,178.36
57.390,166.43
57.406,153.38
57.421,140.19
57.437,127.22
57.453,114.12
57.468,100.22
57.484,84.93
57.500,68.12
57.515,50.28
57.531,32.2
57.546,14.79
57.562,-1.31
57.578,-15.69
57.593,-28.17
57.609,-38.67
57.625,-47.15
57.640,-53.75
57.656,-58.83
57.671,-62.94
57.687,-66.5
57.703,-69.55
57.718,-71.6
57.734,-71.75
57.750,-69.13
57.765,-63.37
57.781,-54.91
57.796,-44.89
57.812,-34.85
57.828,-26.08
57.843,-19.43
57.859,-15.27
57.875,-13.69
57.890,-14.8
57.906,-18.66
57.921,-25.09
57.937,-33.36
57.953,-42.09
57.968,-49.44
57.984,-53.75
58.000,-54.02
58.015,-50.26
58.031,-43.41
58.046,-34.83
58.062,-25.87
58.078,-17.49
58.093,-10.19
58.109,-4.18
58.125,0.5
58.140,3.86
58.156,5.99
58.171,7.02
58.187,7.1
58.203,6.25
58.218,4.35
58.234,1.14
58.250,-3.54
58.265,-9.46
58.281,-15.81
58.296,-21.22
58.312,-24.19
58.328,-23.58
58.343,-19.08
58.359,-11.37
58.375,-1.99
58.390,7.19
58.406,14.47
58.421,18.81
58.437,19.97
58.453,18.35
58.468,14.87
58.484,10.51
58.500,6.26
58.515,2.91
58.531,0.91
58.546,0.33
58.562,0.96
58.578,2.41
58.593,4.21
58.609,6.05
58.625,7.78
58.640,9.43
58.656,11.09
58.671,12.87
58.687,14.69
58.703,16.31
58.718,17.35
58.734,17.36
58.750,15.97
58.765,13.0
58.781,8.58
58.796,3.16
58.812,-2.52
58.828,-7.57
58.843,-11.08
58.859,-12.42
58.875,-11.31
58.890,-7.92
58.906,-2.8
58.921,3.21
58.937,9.23
58.953,14.49
58.968,18.44
58.984,20.83
59.000,21.67
59.015,21.09
59.031,19.24
59.046,16.23
59.062,12.14
59.078,7.1
59.093,1.35
59.109,-4.7
59.125,-10.7
59.140,-16.35
59.156,-21.57
59.171,-26.47
59.187,-31.2
59.203,-35.67
59.218,-39.52
59.234,-42.08
59.250,-42.8
59.265,-41.5
59.281,-38.7
59.296,-35.45
59.312,-33.09
59.328,-32.8
59.343,-35.18
59.359,-40.18
59.375,-46.99
59.390,-54.43
59.406,-61.15
59.421,-66.06
59.437,-68.54
59.453,-68.57
59.468,-66.63
59.484,-63.5
59.500,-59.92
59.515,-56.39
59.531,-53.1
59.546,-50.13
59.562,-47.57
59.578,-45.72
59.593,-45.03
59.609,-45.79
59.625,-47.91
59.640,-50.73
59.656,-53.12
59.671,-53.85
59.687,-51.9
59.703,-46.77
59.718,-38.65
59.734,-28.13
59.750,-16.09
59.765,-3.31
59.781,9.49
59.796,21.64
59.812,32.39
59.828,40.88
59.843,46.36
59.859,48.34
59.875,46.96
59.890,42.9
59.906,37.21
59.921,30.89
59.937,24.63
59.953,18.63
59.968,12.88
59.984,7.45
