timestamp,value
00.000,36.05
00.015,35.71
00.031,35.64
00.046,35.77
00.062,35.9
00.078,35.85
00.093,35.6
00.109,35.18
00.125,34.7
00.140,34.13
00.156,33.26
00.171,31.89
00.187,29.83
00.203,27.08
00.218,23.77
00.234,20.08
00.250,16.04
00.265,11.61
00.281,6.66
00.296,1.15
00.312,-4.71
00.328,-10.56
00.343,-16.07
00.359,-21.05
00.375,-25.51
00.390,-29.75
00.406,-34.13
00.421,-38.95
00.437,-44.35
00.453,-50.12
00.468,-55.71
00.484,-60.22
00.500,-62.54
00.515,-61.71
00.531,-57.22
00.546,-49.21
00.562,-38.54
00.578,-26.47
00.593,-14.3
00.609,-3.05
00.625,6.72
00.640,14.84
00.656,21.33
00.671,26.19
00.687,29.53
00.703,31.52
00.718,32.4
00.734,32.54
00.750,32.28
00.765,31.85
00.781,31.36
00.796,30.88
00.812,30.44
00.828,30.19
00.843,30.19
00.859,30.35
00.875,30.53
00.890,30.41
00.906,29.79
00.921,28.57
00.937,26.8
00.953,24.54
00.968,21.79
00.984,18.4
01.000,14.22
01.015,9.29
01.031,3.86
01.046,-1.53
01.062,-6.37
01.078,-10.28
01.093,-13.24
01.109,-15.52
01.125,-17.74
01.140,-20.48
01.156,-24.16
01.171,-29.08
01.187,-35.2
01.203,-42.28
01.218,-49.73
01.234,-56.61
01.250,-61.65
01.265,-63.56
01.281,-61.28
01.296,-54.46
01.312,-43.7
01.328,-30.33
01.343,-16.1
01.359,-2.62
01.375,9.08
01.390,18.75
01.406,26.7
01.421,33.49
01.437,39.49
01.453,44.67
01.468,48.69
01.484,51.08
01.500,51.63
01.515,50.49
01.531,48.26
01.546,45.66
01.562,43.31
01.578,41.48
01.593,40.07
01.609,38.77
01.625,37.2
01.640,35.19
01.656,32.79
01.671,30.22
01.687,27.75
01.703,25.55
01.718,23.58
01.734,21.54
01.750,19.06
01.765,15.82
01.781,11.77
01.796,7.18
01.812,2.48
01.828,-1.89
01.843,-5.75
01.859,-9.19
01.875,-12.51
01.890,-16.01
01.906,-19.92
01.921,-24.37
01.937,-29.47
01.953,-35.34
01.968,-42.01
01.984,-49.2
02.000,-56.13
02.015,-61.57
02.031,-64.1
02.046,-62.62
02.062,-56.83
02.078,-47.28
02.093,-35.28
02.109,-22.41
02.125,-10.03
02.140,0.97
02.156,10.28
02.171,17.93
02.187,24.14
02.203,29.08
02.218,32.89
02.234,35.65
02.250,37.5
02.265,38.59
02.281,39.18
02.296,39.5
02.312,39.7
02.328,39.9
02.343,40.04
02.359,40.07
02.375,39.91
02.390,39.46
02.406,38.74
02.421,37.76
02.437,36.58
02.453,35.15
02.468,33.44
02.484,31.3
02.500,28.65
02.515,25.48
02.531,21.83
02.546,17.78
02.562,13.44
02.578,8.94
02.593,4.33
02.609,-0.25
02.625,-4.77
02.640,-9.2
02.656,-13.56
02.671,-17.91
02.687,-22.28
02.703,-26.69
02.718,-31.24
02.734,-36.09
02.750,-41.45
02.765,-47.49
02.781,-53.97
02.796,-60.2
02.812,-64.97
02.828,-66.9
02.843,-64.89
02.859,-58.58
02.875,-48.5
02.890,-35.89
02.906,-22.32
02.921,-9.19
02.937,2.51
02.953,12.3
02.968,20.15
02.984,26.16
03.000,30.53
03.015,33.45
03.031,35.19
03.046,36.03
03.062,36.3
03.078,36.26
03.093,36.06
03.109,35.79
03.125,35.42
03.140,34.97
03.156,34.56
03.171,34.38
03.187,34.57
03.203,35.09
03.218,35.62
03.234,35.66
03.250,34.71
03.265,32.5
03.281,29.19
03.296,25.26
03.312,21.3
03.328,17.78
03.343,14.86
03.359,12.38
03.375,9.97
03.390,7.27
03.406,4.02
03.421,0.11
03.437,-4.4
03.453,-9.33
03.468,-14.42
03.484,-19.32
03.500,-23.74
03.515,-27.55
03.531,-30.94
03.546,-34.4
03.562,-38.48
03.578,-43.55
03.593,-49.43
03.609,-55.31
03.625,-59.87
03.640,-61.72
03.656,-59.92
03.671,-54.3
03.687,-45.59
03.703,-35.02
03.718,-23.94
03.734,-13.42
03.750,-4.04
03.765,4.01
03.781,10.79
03.796,16.39
03.812,20.86
03.828,24.25
03.843,26.63
03.859,28.17
03.875,29.11
03.890,29.68
03.906,30.08
03.921,30.46
03.937,30.84
03.953,31.17
03.968,31.39
03.984,31.43
04.000,31.25
04.015,30.84
04.031,30.12
04.046,29.04
04.062,27.52
04.078,25.49
04.093,23.03
04.109,20.33
04.125,17.56
04.140,14.86
04.156,12.2
04.171,9.38
04.187,6.17
04.203,2.42
04.218,-1.81
04.234,-6.28
04.250,-10.7
04.265,-14.89
04.281,-18.85
04.296,-22.79
04.312,-26.92
04.328,-31.49
04.343,-36.55
04.359,-42.17
04.375,-48.28
04.390,-54.71
04.406,-61.01
04.421,-66.26
04.437,-69.24
04.453,-68.71
04.468,-63.91
04.484,-54.94
04.500,-42.83
04.515,-29.16
04.531,-15.63
04.546,-3.49
04.562,6.58
04.578,14.46
04.593,20.32
04.609,24.42
04.625,27.01
04.640,28.35
04.656,28.7
04.671,28.31
04.687,27.35
04.703,25.9
04.718,23.96
04.734,21.64
04.750,19.21
04.765,17.0
04.781,15.32
04.796,14.39
04.812,14.3
04.828,14.99
04.843,16.34
04.859,18.11
04.875,19.89
04.890,21.3
04.906,22.06
04.921,22.28
04.937,22.6
04.953,23.97
04.968,27.16
04.984,32.29
05.000,38.42
05.015,43.77
05.031,46.29
05.046,44.4
05.062,37.47
05.078,26.06
05.093,11.67
05.109,-3.87
05.125,-18.83
05.140,-31.95
05.156,-42.59
05.171,-50.65
05.187,-56.38
05.203,-60.16
05.218,-62.24
05.234,-62.69
05.250,-61.31
05.265,-57.83
05.281,-52.07
05.296,-44.1
05.312,-34.29
05.328,-23.2
05.343,-11.45
05.359,0.37
05.375,11.78
05.390,22.32
05.406,31.53
05.421,39.01
05.437,44.51
05.453,48.07
05.468,50.07
05.484,51.04
05.500,51.55
05.515,51.88
05.531,52.05
05.546,51.86
05.562,51.1
05.578,49.6
05.593,47.37
05.609,44.45
05.625,40.87
05.640,36.55
05.656,31.46
05.671,25.63
05.687,19.3
05.703,12.89
05.718,6.84
05.734,1.55
05.750,-2.73
05.765,-5.99
05.781,-8.43
05.796,-10.44
05.812,-12.55
05.828,-15.33
05.843,-19.18
05.859,-24.28
05.875,-30.43
05.890,-37.1
05.906,-43.63
05.921,-49.42
05.937,-54.13
05.953,-57.69
05.968,-60.23
05.984,-61.82
06.000,-62.3
06.015,-61.22
06.031,-57.92
06.046,-51.92
06.062,-43.24
06.078,-32.58
06.093,-21.21
06.109,-10.33
06.125,-0.56
06.140,8.5
06.156,18.13
06.171,29.83
06.187,44.45
06.203,61.66
06.218,79.94
06.234,97.12
06.250,111.25
06.265,121.17
06.281,126.64
06.296,128.06
06.312,126.14
06.328,121.51
06.343,114.79
06.359,106.51
06.375,97.21
06.390,87.31
06.406,77.1
06.421,66.63
06.437,55.83
06.453,44.66
06.468,33.24
06.484,21.89
06.500,11.17
06.515,1.67
06.531,-6.22
06.546,-12.56
06.562,-18.02
06.578,-23.52
06.593,-29.8
06.609,-36.68
06.625,-42.8
06.640,-45.78
06.656,-42.82
06.671,-31.81
06.687,-12.34
06.703,13.55
06.718,41.58
06.734,66.11
06.750,82.12
06.765,86.85
06.781,80.79
06.796,67.34
06.812,51.19
06.828,36.38
06.843,24.65
06.859,15.33
06.875,6.29
06.890,-4.43
06.906,-17.56
06.921,-32.54
06.937,-48.16
06.953,-63.47
06.968,-78.08
06.984,-91.95
07.000,-104.95
07.015,-116.61
07.031,-126.36
07.046,-134.05
07.062,-140.26
07.078,-146.05
07.093,-152.42
07.109,-159.49
07.125,-166.2
07.140,-170.69
07.156,-171.15
07.171,-166.72
07.187,-157.88
07.203,-145.91
07.218,-132.08
07.234,-116.79
07.250,-99.4
07.265,-78.95
07.281,-55.42
07.296,-30.67
07.312,-8.62
07.328,5.74
07.343,7.92
07.359,-4.18
07.375,-29.09
07.390,-61.69
07.406,-94.65
07.421,-120.92
07.437,-136.34
07.453,-141.07
07.468,-138.96
07.484,-135.37
07.500,-134.43
07.515,-137.26
07.531,-141.99
07.546,-145.36
07.562,-144.78
07.578,-139.35
07.593,-129.69
07.609,-116.6
07.625,-100.05
07.640,-79.22
07.656,-53.48
07.671,-23.55
07.687,8.42
07.703,39.89
07.718,69.13
07.734,96.14
07.750,122.3
07.765,149.32
07.781,177.99
07.796,207.62
07.812,236.34
07.828,261.87
07.843,282.25
07.859,296.04
07.875,302.16
07.890,299.65
07.906,287.91
07.921,267.21
07.937,239.27
07.953,207.23
07.968,174.88
07.984,145.52
08.000,120.96
08.015,101.31
08.031,85.49
08.046,72.07
08.062,60.04
08.078,49.06
08.093,39.07
08.109,29.94
08.125,21.28
08.140,12.64
08.156,3.92
08.171,-4.59
08.187,-12.34
08.203,-18.84
08.218,-24.03
08.234,-28.33
08.250,-32.4
08.265,-36.94
08.281,-42.32
08.296,-48.4
08.312,-54.44
08.328,-59.39
08.343,-62.21
08.359,-62.61
08.375,-61.44
08.390,-60.65
08.406,-62.57
08.421,-68.8
08.437,-79.22
08.453,-91.83
08.468,-103.59
08.484,-111.71
08.500,-114.87
08.515,-113.43
08.531,-108.87
08.546,-103.01
08.562,-97.1
08.578,-91.58
08.593,-86.3
08.609,-80.87
08.625,-74.89
08.640,-68.1
08.656,-60.42
08.671,-51.93
08.687,-43.01
08.703,-34.25
08.718,-26.34
08.734,-19.94
08.750,-15.44
08.765,-12.91
08.781,-12.25
08.796,-13.2
08.812,-15.49
08.828,-18.81
08.843,-22.74
08.859,-26.93
08.875,-31.18
08.890,-35.53
08.906,-40.06
08.921,-44.71
08.937,-48.89
08.953,-51.49
08.968,-51.21
08.984,-47.05
09.000,-38.84
09.015,-27.37
09.031,-14.14
09.046,-0.85
09.062,11.12
09.078,21.11
09.093,29.06
09.109,35.17
09.125,39.66
09.140,42.73
09.156,44.55
09.171,45.48
09.187,45.91
09.203,46.19
09.218,46.43
09.234,46.42
09.250,45.75
09.265,44.08
09.281,41.38
09.296,38.06
09.312,34.69
09.328,31.79
09.343,29.51
09.359,27.66
09.375,25.85
09.390,23.66
09.406,20.87
09.421,17.49
09.437,13.7
09.453,9.73
09.468,5.78
09.484,1.92
09.500,-1.83
09.515,-5.56
09.531,-9.48
09.546,-13.87
09.562,-19.14
09.578,-25.48
09.593,-32.69
09.609,-39.96
09.625,-45.98
09.640,-49.28
09.656,-48.79
09.671,-44.24
09.687,-36.23
09.703,-26.02
09.718,-15.08
09.734,-4.54
09.750,4.96
09.765,13.19
09.781,20.14
09.796,25.83
09.812,30.2
09.828,33.24
09.843,35.02
09.859,35.72
09.875,35.63
09.890,35.1
09.906,34.39
09.921,33.69
09.937,33.14
09.953,32.73
09.968,32.39
09.984,31.93
10.000,31.19
10.015,30.02
10.031,28.37
10.046,26.18
10.062,23.47
10.078,20.37
10.093,17.04
10.109,13.79
10.125,10.96
10.140,8.79
10.156,7.29
10.171,6.14
10.187,4.75
10.203,2.45
10.218,-1.31
10.234,-6.84
10.250,-14.03
10.265,-22.4
10.281,-31.12
10.296,-39.06
10.312,-44.95
10.328,-47.61
10.343,-46.18
10.359,-40.35
10.375,-30.43
10.390,-17.34
10.406,-2.39
10.421,12.95
10.437,27.36
10.453,39.78
10.468,49.67
10.484,56.83
10.500,61.45
10.515,63.81
10.531,64.25
10.546,63.04
10.562,60.51
10.578,57.09
10.593,53.36
10.609,49.89
10.625,47.03
10.640,44.69
10.656,42.41
10.671,39.65
10.687,36.08
10.703,31.89
10.718,27.7
10.734,24.27
10.750,22.05
10.765,20.94
10.781,20.3
10.796,19.25
10.812,17.07
10.828,13.52
10.843,8.8
10.859,3.32
10.875,-2.54
10.890,-8.68
10.906,-15.32
10.921,-22.76
10.937,-31.22
10.953,-40.63
10.968,-50.6
10.984,-60.47
11.000,-69.31
11.015,-76.13
11.031,-79.92
11.046,-79.94
11.062,-75.77
11.078,-67.5
11.093,-55.76
11.109,-41.63
11.125,-26.33
11.140,-11.09
11.156,3.07
11.171,15.41
11.187,25.43
11.203,32.96
11.218,38.04
11.234,41.03
11.250,42.45
11.265,42.9
11.281,42.89
11.296,42.74
11.312,42.59
11.328,42.37
11.343,41.95
11.359,41.17
11.375,39.96
11.390,38.31
11.406,36.36
11.421,34.32
11.437,32.4
11.453,30.73
11.468,29.26
11.484,27.72
11.500,25.73
11.515,22.99
11.531,19.44
11.546,15.31
11.562,11.06
11.578,7.11
11.593,3.65
11.609,0.52
11.625,-2.67
11.640,-6.42
11.656,-11.04
11.671,-16.57
11.687,-22.74
11.703,-28.93
11.718,-34.42
11.734,-38.33
11.750,-39.97
11.765,-38.85
11.781,-34.95
11.796,-28.65
11.812,-20.67
11.828,-11.92
11.843,-3.18
11.859,4.92
11.875,12.01
11.890,17.86
11.906,22.36
11.921,25.49
11.937,27.29
11.953,27.96
11.968,27.77
11.984,27.07
12.000,26.17
12.015,25.39
12.031,24.93
12.046,24.85
12.062,25.03
12.078,25.21
12.093,25.1
12.109,24.47
12.125,23.32
12.140,21.81
12.156,20.17
12.171,18.47
12.187,16.56
12.203,14.11
12.218,10.85
12.234,6.82
12.250,2.31
12.265,-2.2
12.281,-6.32
12.296,-9.89
12.312,-13.02
12.328,-15.95
12.343,-18.94
12.359,-22.15
12.375,-25.64
12.390,-29.42
12.406,-33.41
12.421,-37.19
12.437,-40.13
12.453,-41.4
12.468,-40.21
12.484,-36.2
12.500,-29.57
12.515,-21.05
12.531,-11.7
12.546,-2.55
12.562,5.68
12.578,12.54
12.593,17.89
12.609,21.71
12.625,24.05
12.640,24.97
12.656,24.69
12.671,23.59
12.687,22.23
12.703,21.23
12.718,20.99
12.734,21.68
12.750,23.11
12.765,24.86
12.781,26.46
12.796,27.62
12.812,28.26
12.828,28.49
12.843,28.46
12.859,28.12
12.875,27.23
12.890,25.5
12.906,22.63
12.921,18.65
12.937,13.83
12.953,8.56
12.968,3.21
12.984,-2.05
13.000,-7.31
13.015,-12.73
13.031,-18.43
13.046,-24.35
13.062,-30.24
13.078,-35.78
13.093,-40.69
13.109,-44.67
13.125,-47.41
13.140,-48.48
13.156,-47.49
13.171,-44.17
13.187,-38.75
13.203,-31.89
13.218,-24.59
13.234,-17.87
13.250,-12.47
13.265,-8.63
13.281,-6.12
13.296,-4.42
13.312,-2.85
13.328,-0.93
13.343,1.63
13.359,4.79
13.375,8.24
13.390,11.6
13.406,14.67
13.421,17.55
13.437,20.7
13.453,24.7
13.468,29.93
13.484,36.43
13.500,43.92
13.515,51.88
13.531,59.77
13.546,67.02
13.562,73.09
13.578,77.43
13.593,79.5
13.609,79.06
13.625,76.18
13.640,71.38
13.656,65.39
13.671,58.9
13.687,52.25
13.703,45.36
13.718,37.79
13.734,29.09
13.750,19.01
13.765,7.78
13.781,-3.86
13.796,-14.78
13.812,-23.63
13.828,-29.24
13.843,-30.92
13.859,-28.71
13.875,-23.34
13.890,-16.0
13.906,-8.0
13.921,-0.45
13.937,5.81
13.953,10.35
13.968,12.91
13.984,13.49
14.000,12.38
14.015,10.22
14.031,8.03
14.046,6.81
14.062,7.26
14.078,9.45
14.093,12.89
14.109,16.85
14.125,20.73
14.140,24.25
14.156,27.38
14.171,30.21
14.187,32.67
14.203,34.59
14.218,35.79
14.234,36.16
14.250,35.57
14.265,33.76
14.281,30.41
14.296,25.28
14.312,18.59
14.328,11.18
14.343,4.49
14.359,0.15
14.375,-0.6
14.390,2.59
14.406,9.01
14.421,17.12
14.437,25.0
14.453,30.9
14.468,33.68
14.484,33.08
14.500,29.58
14.515,24.17
14.531,18.02
14.546,12.26
14.562,7.8
14.578,5.36
14.593,5.31
14.609,7.5
14.625,11.22
14.640,15.18
14.656,17.67
14.671,16.92
14.687,11.45
14.703,0.3
14.718,-16.56
14.734,-37.98
14.750,-61.58
14.765,-84.15
14.781,-102.44
14.796,-114.17
14.812,-118.83
14.828,-117.72
14.843,-113.43
14.859,-108.57
14.875,-104.88
14.890,-102.85
14.906,-102.12
14.921,-102.09
14.937,-102.46
14.953,-103.26
14.968,-104.52
14.984,-106.11
15.000,-107.62
15.015,-108.59
15.031,-108.72
15.046,-108.0
15.062,-106.6
15.078,-104.57
15.093,-101.72
15.109,-97.7
15.125,-92.31
15.140,-85.7
15.156,-78.53
15.171,-71.95
15.187,-67.23
15.203,-65.44
15.218,-67.06
15.234,-71.68
15.250,-78.0
15.265,-84.08
15.281,-87.73
15.296,-87.32
15.312,-82.21
15.328,-72.85
15.343,-60.63
15.359,-47.2
15.375,-33.93
15.390,-21.62
15.406,-10.51
15.421,-0.6
15.437,8.01
15.453,14.93
15.468,19.8
15.484,22.38
15.500,22.91
15.515,22.11
15.531,20.95
15.546,20.53
15.562,22.04
15.578,26.71
15.593,35.77
15.609,50.13
15.625,69.86
15.640,93.72
15.656,119.16
15.671,142.82
15.687,161.51
15.703,173.12
15.718,177.03
15.734,173.99
15.750,165.38
15.765,152.55
15.781,136.47
15.796,117.94
15.812,97.82
15.828,77.33
15.843,57.66
15.859,39.55
15.875,22.94
15.890,6.88
15.906,-10.13
15.921,-29.43
15.937,-51.57
15.953,-76.01
15.968,-100.99
15.984,-124.14
16.000,-143.02
16.015,-155.73
16.031,-161.5
16.046,-160.81
16.062,-155.23
16.078,-147.06
16.093,-138.71
16.109,-132.08
16.125,-128.27
16.140,-127.29
16.156,-128.28
16.171,-129.89
16.187,-130.75
16.203,-129.79
16.218,-126.33
16.234,-119.85
16.250,-109.78
16.265,-95.7
16.281,-77.8
16.296,-57.33
16.312,-36.63
16.328,-18.48
16.343,-4.93
16.359,3.5
16.375,7.95
16.390,10.73
16.406,14.13
16.421,19.69
16.437,28.14
16.453,39.6
16.468,54.01
16.484,71.01
16.500,89.72
16.515,108.62
16.531,125.91
16.546,139.97
16.562,150.03
16.578,156.15
16.593,158.71
16.609,157.93
16.625,153.59
16.640,145.23
16.656,132.82
16.671,117.07
16.687,99.4
16.703,81.66
16.718,65.61
16.734,52.68
16.750,43.87
16.765,39.71
16.781,40.28
16.796,45.31
16.812,54.22
16.828,66.14
16.843,80.02
16.859,94.36
16.875,107.24
16.890,116.68
16.906,121.24
16.921,120.57
16.937,115.84
16.953,109.22
16.968,102.97
16.984,98.4
17.000,95.23
17.015,91.87
17.031,86.39
17.046,77.6
17.062,65.54
17.078,51.47
17.093,37.15
17.109,24.14
17.125,13.28
17.140,4.67
17.156,-2.12
17.171,-7.61
17.187,-12.14
17.203,-15.84
17.218,-18.75
17.234,-21.0
17.250,-22.85
17.265,-24.6
17.281,-26.4
17.296,-28.12
17.312,-29.33
17.328,-29.65
17.343,-29.1
17.359,-28.36
17.375,-28.64
17.390,-31.09
17.406,-36.18
17.421,-43.21
17.437,-50.53
17.453,-56.02
17.468,-57.92
17.484,-55.47
17.500,-49.17
17.515,-40.57
17.531,-31.81
17.546,-24.96
17.562,-21.48
17.578,-21.87
17.593,-25.59
17.609,-31.24
17.625,-36.89
17.640,-40.73
17.656,-41.51
17.671,-38.94
17.687,-33.7
17.703,-27.1
17.718,-20.66
17.734,-15.48
17.750,-12.02
17.765,-10.04
17.781,-8.95
17.796,-8.21
17.812,-7.63
17.828,-7.35
17.843,-7.52
17.859,-8.06
17.875,-8.5
17.890,-8.25
17.906,-6.91
17.921,-4.52
17.937,-1.55
17.953,1.37
17.968,3.68
17.984,4.91
18.000,4.71
18.015,2.85
18.031,-0.57
18.046,-4.86
18.062,-8.8
18.078,-10.98
18.093,-10.43
18.109,-7.13
18.125,-1.98
18.140,3.7
18.156,8.8
18.171,13.01
18.187,16.58
18.203,19.93
18.218,22.99
18.234,25.09
18.250,25.19
18.265,22.58
18.281,17.29
18.296,10.14
18.312,2.46
18.328,-4.58
18.343,-10.3
18.359,-14.63
18.375,-17.95
18.390,-20.77
18.406,-23.39
18.421,-25.88
18.437,-28.15
18.453,-30.09
18.468,-31.79
18.484,-33.5
18.500,-35.49
18.515,-37.91
18.531,-40.72
18.546,-43.68
18.562,-46.58
18.578,-49.42
18.593,-52.5
18.609,-56.33
18.625,-61.28
18.640,-67.17
18.656,-73.13
18.671,-77.66
18.687,-79.09
18.703,-76.13
18.718,-68.34
18.734,-56.32
18.750,-41.56
18.765,-25.97
18.781,-11.36
18.796,0.87
18.812,9.9
18.828,15.5
18.843,17.92
18.859,17.8
18.875,15.88
18.890,12.81
18.906,9.06
18.921,4.86
18.937,0.34
18.953,-4.26
18.968,-8.43
18.984,-11.49
19.000,-12.81
19.015,-12.18
19.031,-10.01
19.046,-7.27
19.062,-5.15
19.078,-4.57
19.093,-5.87
19.109,-8.73
19.125,-12.46
19.140,-16.28
19.156,-19.65
19.171,-22.42
19.187,-24.86
19.203,-27.48
19.218,-30.86
19.234,-35.39
19.250,-41.06
19.265,-47.26
19.281,-52.81
19.296,-56.16
19.312,-55.85
19.328,-50.98
19.343,-41.52
19.359,-28.34
19.375,-12.89
19.390,3.16
19.406,18.32
19.421,31.45
19.437,41.84
19.453,49.16
19.468,53.38
19.484,54.7
19.500,53.58
19.515,50.69
19.531,46.81
19.546,42.73
19.562,39.11
19.578,36.4
19.593,34.69
19.609,33.73
19.625,32.95
19.640,31.68
19.656,29.45
19.671,26.19
19.687,22.33
19.703,18.62
19.718,15.77
19.734,14.1
19.750,13.39
19.765,13.03
19.781,12.37
19.796,10.93
19.812,8.58
19.828,5.34
19.843,1.37
19.859,-3.06
19.875,-7.44
19.890,-10.84
19.906,-12.1
19.921,-10.24
19.937,-5.07
19.953,2.62
19.968,11.27
19.984,19.17
20.000,25.17
20.015,29.0
20.031,31.16
20.046,32.31
20.062,32.83
20.078,32.56
20.093,31.02
20.109,27.74
20.125,22.61
20.140,15.89
20.156,8.2
20.171,0.24
20.187,-7.39
20.203,-14.25
20.218,-20.11
20.234,-24.92
20.250,-28.76
20.265,-31.76
20.281,-34.05
20.296,-35.67
20.312,-36.67
20.328,-37.15
20.343,-37.3
20.359,-37.35
20.375,-37.41
20.390,-37.45
20.406,-37.41
20.421,-37.31
20.437,-37.3
20.453,-37.43
20.468,-37.45
20.484,-36.48
20.500,-33.34
20.515,-26.91
20.531,-16.64
20.546,-2.9
20.562,13.16
20.578,29.87
20.593,45.41
20.609,57.99
20.625,66.14
20.640,68.78
20.656,65.55
20.671,56.97
20.687,44.48
20.703,30.18
20.718,16.26
20.734,4.52
20.750,-3.95
20.765,-8.77
20.781,-10.02
20.796,-8.11
20.812,-3.52
20.828,3.18
20.843,11.4
20.859,20.5
20.875,29.76
20.890,38.23
20.906,44.85
20.921,48.55
20.937,48.62
20.953,45.0
20.968,38.36
20.984,29.92
21.000,20.94
21.015,12.2
21.031,3.71
21.046,-5.17
21.062,-15.37
21.078,-27.34
21.093,-40.53
21.109,-53.23
21.125,-62.88
21.140,-66.96
21.156,-63.93
21.171,-53.89
21.187,-38.47
21.203,-20.2
21.218,-1.59
21.234,15.65
21.250,30.71
21.265,43.48
21.281,54.05
21.296,62.28
21.312,67.79
21.328,70.05
21.343,68.52
21.359,62.86
21.375,53.03
21.390,39.52
21.406,23.38
21.421,6.17
21.437,-10.31
21.453,-24.53
21.468,-35.54
21.484,-43.07
21.500,-47.38
21.515,-48.94
21.531,-48.17
21.546,-45.52
21.562,-41.67
21.578,-37.58
21.593,-34.37
21.609,-32.94
21.625,-33.64
21.640,-36.12
21.656,-39.47
21.671,-42.66
21.687,-44.92
21.703,-46.1
21.718,-46.56
21.734,-47.02
21.750,-48.27
21.765,-50.91
21.781,-55.18
21.796,-60.79
21.812,-66.93
21.828,-72.22
21.843,-74.96
21.859,-73.47
21.875,-66.69
21.890,-54.57
21.906,-38.17
21.921,-19.38
21.937,-0.39
21.953,16.94
21.968,31.45
21.984,42.69
22.000,50.78
22.015,56.07
22.031,58.96
22.046,59.87
22.062,59.19
22.078,57.44
22.093,55.18
22.109,53.02
22.125,51.36
22.140,50.4
22.156,49.98
22.171,49.67
22.187,49.0
22.203,47.61
22.218,45.42
22.234,42.6
22.250,39.48
22.265,36.34
22.281,33.2
22.296,29.83
22.312,25.85
22.328,20.96
22.343,15.1
22.359,8.52
22.375,1.68
22.390,-4.87
22.406,-10.68
22.421,-15.51
22.437,-19.45
22.453,-22.87
22.468,-26.28
22.484,-30.35
22.500,-35.63
22.515,-42.42
22.531,-50.45
22.546,-58.77
22.562,-65.76
22.578,-69.52
22.593,-68.38
22.609,-61.43
22.625,-48.87
22.640,-32.04
22.656,-12.95
22.671,6.18
22.687,23.51
22.703,37.87
22.718,48.86
22.734,56.62
22.750,61.6
22.765,64.31
22.781,65.2
22.796,64.66
22.812,63.06
22.828,60.78
22.843,58.3
22.859,56.06
22.875,54.33
22.890,53.07
22.906,52.01
22.921,50.79
22.937,49.17
22.953,47.09
22.968,44.72
22.984,42.34
23.000,40.1
23.015,37.97
23.031,35.69
23.046,32.88
23.062,29.22
23.078,24.58
23.093,18.96
23.109,12.58
23.125,5.8
23.140,-1.02
23.156,-7.6
23.171,-13.73
23.187,-19.48
23.203,-25.0
23.218,-30.57
23.234,-36.52
23.250,-43.09
23.265,-50.31
23.281,-57.92
23.296,-65.2
23.312,-70.94
23.328,-73.7
23.343,-72.13
23.359,-65.46
23.375,-53.83
23.390,-38.41
23.406,-21.07
23.421,-3.9
23.437,11.38
23.453,23.81
23.468,33.21
23.484,39.95
23.500,44.54
23.515,47.31
23.531,48.4
23.546,47.84
23.562,45.84
23.578,42.99
23.593,40.09
23.609,37.92
23.625,36.98
23.640,37.21
23.656,38.08
23.671,38.87
23.687,38.97
23.703,38.08
23.718,36.32
23.734,33.96
23.750,31.35
23.765,28.68
23.781,25.9
23.796,22.76
23.812,18.91
23.828,14.14
23.843,8.41
23.859,2.03
23.875,-4.5
23.890,-10.66
23.906,-16.09
23.921,-20.75
23.937,-24.86
23.953,-28.8
23.968,-33.0
23.984,-37.87
24.000,-43.57
24.015,-50.03
24.031,-56.66
24.046,-62.4
24.062,-65.91
24.078,-65.87
24.093,-61.42
24.109,-52.52
24.125,-40.0
24.140,-25.22
24.156,-9.78
24.171,4.85
24.187,17.64
24.203,27.96
24.218,35.56
24.234,40.45
24.250,42.84
24.265,43.13
24.281,41.88
24.296,39.71
24.312,37.27
24.328,35.07
24.343,33.48
24.359,32.63
24.375,32.44
24.390,32.66
24.406,32.99
24.421,33.1
24.437,32.79
24.453,31.93
24.468,30.54
24.484,28.69
24.500,26.5
24.515,24.05
24.531,21.37
24.546,18.37
24.562,14.99
24.578,11.14
24.593,6.79
24.609,2.07
24.625,-2.83
24.640,-7.68
24.656,-12.27
24.671,-16.55
24.687,-20.63
24.703,-24.73
24.718,-29.2
24.734,-34.37
24.750,-40.42
24.765,-47.21
24.781,-54.13
24.796,-60.1
24.812,-63.72
24.828,-63.62
24.843,-58.91
24.859,-49.48
24.875,-36.08
24.890,-20.19
24.906,-3.61
24.921,11.94
24.937,25.24
24.953,35.69
24.968,43.25
24.984,48.17
25.000,50.79
25.015,51.42
25.031,50.33
25.046,47.83
25.062,44.4
25.078,40.65
25.093,37.2
25.109,34.54
25.125,32.87
25.140,32.07
25.156,31.78
25.171,31.53
25.187,31.0
25.203,29.98
25.218,28.5
25.234,26.67
25.250,24.63
25.265,22.41
25.281,19.92
25.296,16.94
25.312,13.19
25.328,8.54
25.343,3.08
25.359,-2.91
25.375,-8.96
25.390,-14.66
25.406,-19.72
25.421,-24.07
25.437,-27.84
25.453,-31.36
25.468,-35.0
25.484,-39.12
25.500,-44.0
25.515,-49.63
25.531,-55.62
25.546,-61.06
25.562,-64.62
25.578,-64.81
25.593,-60.52
25.609,-51.45
25.625,-38.26
25.640,-22.43
25.656,-5.86
25.671,9.62
25.687,22.71
25.703,32.72
25.718,39.6
25.734,43.7
25.750,45.53
25.765,45.69
25.781,44.73
25.796,43.13
25.812,41.23
25.828,39.35
25.843,37.69
25.859,36.4
25.875,35.59
25.890,35.17
25.906,34.91
25.921,34.48
25.937,33.63
25.953,32.22
25.968,30.37
25.984,28.29
26.000,26.19
26.015,24.19
26.031,22.16
26.046,19.76
26.062,16.54
26.078,12.19
26.093,6.67
26.109,0.28
26.125,-6.43
26.140,-12.9
26.156,-18.78
26.171,-24.02
26.187,-28.82
26.203,-33.5
26.218,-38.33
26.234,-43.5
26.250,-49.12
26.265,-55.13
26.281,-61.34
26.296,-67.16
26.312,-71.51
26.328,-72.94
26.343,-70.07
26.359,-62.17
26.375,-49.53
26.390,-33.57
26.406,-16.32
26.421,0.15
26.437,14.39
26.453,25.73
26.468,34.23
26.484,40.23
26.500,44.08
26.515,46.06
26.531,46.39
26.546,45.42
26.562,43.65
26.578,41.65
26.593,39.81
26.609,38.4
26.625,37.51
26.640,37.09
26.656,37.11
26.671,37.42
26.687,37.78
26.703,37.83
26.718,37.21
26.734,35.58
26.750,32.84
26.765,29.09
26.781,24.62
26.796,19.78
26.812,14.83
26.828,9.94
26.843,5.15
26.859,0.52
26.875,-3.9
26.890,-7.98
26.906,-11.58
26.921,-14.61
26.937,-17.04
26.953,-19.02
26.968,-20.8
26.984,-22.75
27.000,-25.26
27.015,-28.58
27.031,-32.69
27.046,-37.12
27.062,-40.97
27.078,-42.89
27.093,-41.5
27.109,-35.77
27.125,-25.41
27.140,-11.11
27.156,5.71
27.171,23.17
27.187,39.6
27.203,53.75
27.218,65.07
27.234,73.48
27.250,79.23
27.265,82.77
27.281,84.65
27.296,85.44
27.312,85.67
27.328,85.64
27.343,85.34
27.359,84.44
27.375,82.37
27.390,78.75
27.406,73.53
27.421,67.04
27.437,59.92
27.453,52.78
27.468,46.0
27.484,39.62
27.500,33.45
27.515,27.18
27.531,20.61
27.546,13.73
27.562,6.65
27.578,-0.4
27.593,-7.2
27.609,-13.54
27.625,-19.19
27.640,-23.97
27.656,-27.76
27.671,-30.61
27.687,-32.72
27.703,-34.45
27.718,-36.19
27.734,-38.21
27.750,-40.51
27.765,-42.83
27.781,-44.77
27.796,-45.94
27.812,-46.18
27.828,-45.53
27.843,-44.22
27.859,-42.5
27.875,-40.6
27.890,-38.62
27.906,-36.62
27.921,-34.62
27.937,-32.65
27.953,-30.69
27.968,-28.72
27.984,-26.7
28.000,-24.59
28.015,-22.41
28.031,-20.27
28.046,-18.3
28.062,-16.65
28.078,-15.4
28.093,-14.58
28.109,-14.23
28.125,-14.37
28.140,-15.02
28.156,-16.22
28.171,-17.95
28.187,-20.05
28.203,-22.3
28.218,-24.41
28.234,-26.15
28.250,-27.48
28.265,-28.57
28.281,-29.66
28.296,-30.97
28.312,-32.57
28.328,-34.34
28.343,-36.04
28.359,-37.41
28.375,-38.32
28.390,-38.88
28.406,-39.4
28.421,-40.29
28.437,-42.05
28.453,-45.03
28.468,-49.21
28.484,-53.89
28.500,-57.68
28.515,-58.72
28.531,-55.19
28.546,-45.95
28.562,-31.06
28.578,-11.8
28.593,9.64
28.609,30.87
28.625,49.93
28.640,65.7
28.656,77.8
28.671,86.38
28.687,91.78
28.703,94.43
28.718,94.76
28.734,93.3
28.750,90.54
28.765,86.75
28.781,81.86
28.796,75.47
28.812,67.16
28.828,56.79
28.843,44.73
28.859,31.85
28.875,19.26
28.890,7.9
28.906,-1.77
28.921,-9.84
28.937,-16.79
28.953,-23.27
28.968,-29.87
28.984,-37.02
29.000,-44.88
29.015,-53.45
29.031,-62.52
29.046,-71.85
29.062,-81.19
29.078,-90.51
29.093,-99.97
29.109,-109.95
29.125,-120.81
29.140,-132.54
29.156,-144.55
29.171,-155.57
29.187,-163.8
29.203,-167.37
29.218,-164.93
29.234,-156.09
29.250,-141.62
29.265,-123.25
29.281,-103.24
29.296,-83.77
29.312,-66.48
29.328,-52.24
29.343,-41.23
29.359,-33.11
29.375,-27.32
29.390,-23.24
29.406,-20.21
29.421,-17.75
29.437,-15.36
29.453,-12.77
29.468,-9.81
29.484,-6.57
29.500,-3.26
29.515,-0.14
29.531,2.62
29.546,4.99
29.562,6.96
29.578,8.54
29.593,9.56
29.609,9.79
29.625,8.94
29.640,6.89
29.656,3.79
29.671,0.02
29.687,-3.94
29.703,-7.72
29.718,-11.23
29.734,-14.59
29.750,-18.1
29.765,-22.12
29.781,-26.97
29.796,-32.8
29.812,-39.45
29.828,-46.32
29.843,-52.28
29.859,-55.82
29.875,-55.4
29.890,-50.0
29.906,-39.45
29.921,-24.65
29.937,-7.24
29.953,10.89
29.968,28.15
29.984,43.52
30.000,56.5
30.015,66.9
30.031,74.63
30.046,79.71
30.062,82.26
30.078,82.66
30.093,81.55
30.109,79.69
30.125,77.67
30.140,75.88
30.156,74.33
30.171,72.82
30.187,71.1
30.203,69.05
30.218,66.74
30.234,64.35
30.250,62.14
30.265,60.22
30.281,58.56
30.296,56.85
30.312,54.62
30.328,51.44
30.343,47.14
30.359,41.92
30.375,36.25
30.390,30.77
30.406,25.92
30.421,21.81
30.437,18.08
30.453,14.13
30.468,9.34
30.484,3.37
30.500,-3.53
30.515,-10.58
30.531,-16.49
30.546,-19.72
30.562,-18.85
30.578,-13.03
30.593,-2.24
30.609,12.63
30.625,30.01
30.640,48.16
30.656,65.51
30.671,81.12
30.687,94.56
30.703,105.75
30.718,114.68
30.734,121.29
30.750,125.5
30.765,127.42
30.781,127.55
30.796,126.74
30.812,126.03
30.828,126.24
30.843,127.61
30.859,129.68
30.875,131.42
30.890,131.6
30.906,129.43
30.921,124.89
30.937,118.72
30.953,112.09
30.968,105.94
30.984,100.5
31.000,95.19
31.015,88.82
31.031,80.11
31.046,68.21
31.062,53.01
31.078,34.98
31.093,15.16
31.109,-5.16
31.125,-24.64
31.140,-41.95
31.156,-56.3
31.171,-67.69
31.187,-77.26
31.203,-87.16
31.218,-99.91
31.234,-117.0
31.250,-137.91
31.265,-159.79
31.281,-178.16
31.296,-188.68
31.312,-188.77
31.328,-178.52
31.343,-160.29
31.359,-137.56
31.375,-113.44
31.390,-90.14
31.406,-69.06
31.421,-51.34
31.437,-38.29
31.453,-31.11
31.468,-30.27
31.484,-34.92
31.500,-42.91
31.515,-51.41
31.531,-57.97
31.546,-61.2
31.562,-60.94
31.578,-57.99
31.593,-53.48
31.609,-48.4
31.625,-43.32
31.640,-38.55
31.656,-34.15
31.671,-30.22
31.687,-26.88
31.703,-24.24
31.718,-22.41
31.734,-21.38
31.750,-21.07
31.765,-21.34
31.781,-22.06
31.796,-23.11
31.812,-24.4
31.828,-25.87
31.843,-27.42
31.859,-28.99
31.875,-30.56
31.890,-32.19
31.906,-34.11
31.921,-36.65
31.937,-40.12
31.953,-44.68
31.968,-50.19
31.984,-56.06
32.000,-61.25
32.015,-64.39
32.031,-64.14
32.046,-59.57
32.062,-50.5
32.078,-37.71
32.093,-22.65
32.109,-7.15
32.125,7.26
32.140,19.56
32.156,29.39
32.171,36.88
32.187,42.33
32.203,46.06
32.218,48.23
32.234,49.03
32.250,48.74
32.265,47.82
32.281,46.83
32.296,46.25
32.312,46.33
32.328,46.93
32.343,47.62
32.359,47.84
32.375,47.12
32.390,45.3
32.406,42.54
32.421,39.24
32.437,35.82
32.453,32.6
32.468,29.65
32.484,26.82
32.500,23.82
32.515,20.36
32.531,16.29
32.546,11.57
32.562,6.34
32.578,0.84
32.593,-4.67
32.609,-10.04
32.625,-15.11
32.640,-19.96
32.656,-24.7
32.671,-29.54
32.687,-34.57
32.703,-39.74
32.718,-44.66
32.734,-48.57
32.750,-50.48
32.765,-49.34
32.781,-44.44
32.796,-35.68
32.812,-23.7
32.828,-9.77
32.843,4.56
32.859,17.9
32.875,29.38
32.890,38.71
32.906,45.99
32.921,51.44
32.937,55.18
32.953,57.16
32.968,57.37
32.984,56.02
33.000,53.65
33.015,51.02
33.031,48.9
33.046,47.7
33.062,47.45
33.078,47.73
33.093,47.95
33.109,47.59
33.125,46.4
33.140,44.51
33.156,42.27
33.171,40.03
33.187,38.03
33.203,36.16
33.218,34.14
33.234,31.6
33.250,28.28
33.265,24.14
33.281,19.37
33.296,14.27
33.312,9.04
33.328,3.83
33.343,-1.33
33.359,-6.4
33.375,-11.3
33.390,-15.95
33.406,-20.37
33.421,-24.66
33.437,-29.09
33.453,-33.93
33.468,-39.2
33.484,-44.53
33.500,-49.16
33.515,-52.13
33.531,-52.48
33.546,-49.71
33.562,-43.89
33.578,-35.64
33.593,-25.96
33.609,-15.85
33.625,-6.11
33.640,2.78
33.656,10.65
33.671,17.5
33.687,23.32
33.703,28.07
33.718,31.77
33.734,34.48
33.750,36.38
33.765,37.78
33.781,38.87
33.796,39.82
33.812,40.62
33.828,41.14
33.843,41.2
33.859,40.59
33.875,39.11
33.890,36.6
33.906,32.99
33.921,28.28
33.937,22.7
33.953,16.61
33.968,10.4
33.984,4.45
34.000,-1.11
34.015,-6.4
34.031,-11.59
34.046,-16.79
34.062,-21.98
34.078,-26.92
34.093,-31.49
34.109,-35.84
34.125,-40.41
34.140,-45.85
34.156,-52.64
34.171,-60.85
34.187,-70.05
34.203,-79.54
34.218,-88.62
34.234,-96.76
34.250,-103.56
34.265,-108.43
34.281,-110.43
34.296,-108.23
34.312,-100.52
34.328,-86.59
34.343,-66.84
34.359,-42.96
34.375,-17.52
34.390,6.72
34.406,27.61
34.421,43.98
34.437,55.79
34.453,63.8
34.468,69.01
34.484,72.32
34.500,74.28
34.515,75.15
34.531,75.17
34.546,74.7
34.562,74.08
34.578,73.59
34.593,73.25
34.609,72.84
34.625,72.05
34.640,70.76
34.656,69.19
34.671,67.81
34.687,67.18
34.703,67.62
34.718,69.07
34.734,71.07
34.750,72.88
34.765,73.68
34.781,72.79
34.796,69.86
34.812,65.0
34.828,58.79
34.843,52.08
34.859,45.71
34.875,40.13
34.890,35.18
34.906,30.3
34.921,24.82
34.937,18.42
34.953,11.3
34.968,3.92
34.984,-3.26
35.000,-10.18
35.015,-17.2
35.031,-24.82
35.046,-33.09
35.062,-41.35
35.078,-48.23
35.093,-52.09
35.109,-51.65
35.125,-46.49
35.140,-37.15
35.156,-24.87
35.171,-11.16
35.187,2.62
35.203,15.33
35.218,26.03
35.234,33.93
35.250,38.45
35.265,39.4
35.281,37.13
35.296,32.49
35.312,26.48
35.328,20.01
35.343,13.63
35.359,7.66
35.375,2.39
35.390,-1.73
35.406,-4.17
35.421,-4.56
35.437,-2.97
35.468,3.44
35.484,6.49
35.500,8.6
35.515,9.64
35.531,9.71
35.546,8.96
35.562,7.37
35.578,4.77
35.593,0.94
35.609,-4.21
35.625,-10.64
35.640,-18.07
35.656,-26.19
35.671,-34.59
35.687,-42.84
35.703,-50.5
35.718,-57.17
35.734,-62.59
35.750,-66.86
35.765,-70.36
35.781,-73.67
35.796,-77.2
35.812,-80.92
35.828,-84.1
35.843,-85.53
35.859,-84.03
35.875,-78.9
35.890,-70.34
35.906,-59.31
35.921,-47.24
35.937,-35.45
35.953,-24.87
35.968,-15.92
35.984,-8.65
36.000,-2.96
36.015,1.21
36.031,3.91
36.046,5.18
36.062,5.17
36.078,4.23
36.093,2.85
36.109,1.58
36.125,0.85
36.140,0.91
36.156,1.67
36.171,2.85
36.187,4.11
36.203,5.26
36.218,6.33
36.234,7.51
36.250,8.94
36.265,10.6
36.281,12.29
36.296,13.82
36.312,15.13
36.328,16.29
36.343,17.55
36.359,19.07
36.375,20.92
36.390,23.08
36.406,25.59
36.421,28.52
36.437,32.02
36.453,36.08
36.468,40.39
36.484,44.37
36.500,47.22
36.515,48.33
36.531,47.48
36.546,44.97
36.562,41.56
36.578,38.18
36.593,35.65
36.609,34.35
36.625,34.22
36.640,34.89
36.656,35.9
36.671,37.0
36.687,38.26
36.703,40.02
36.718,42.72
36.734,46.68
36.750,51.99
36.765,58.36
36.781,65.17
36.796,71.45
36.812,75.92
36.828,77.27
36.843,74.4
36.859,66.89
36.875,55.1
36.890,40.14
36.906,23.52
36.921,6.54
36.937,-10.03
36.953,-26.05
36.968,-41.79
36.984,-57.46
37.000,-73.06
37.015,-88.2
37.031,-102.53
37.046,-115.81
37.062,-128.11
37.078,-139.73
37.093,-150.91
37.109,-161.7
37.125,-171.99
37.140,-181.74
37.156,-191.02
37.171,-200.23
37.187,-209.65
37.203,-219.09
37.218,-227.63
37.234,-233.83
37.250,-236.08
37.265,-233.39
37.281,-225.71
37.296,-213.86
37.312,-198.96
37.328,-181.76
37.343,-162.37
37.359,-140.39
37.375,-115.5
37.390,-87.82
37.406,-58.09
37.421,-27.43
37.437,2.97
37.453,31.98
37.468,58.45
37.484,81.23
37.500,99.3
37.515,112.18
37.531,120.19
37.546,124.35
37.562,126.03
37.578,126.26
37.593,125.43
37.609,123.38
37.625,119.74
37.640,114.39
37.656,107.65
37.671,100.16
37.687,92.5
37.703,85.05
37.718,77.9
37.734,70.89
37.750,63.8
37.765,56.28
37.781,47.8
37.796,37.8
37.812,25.82
37.828,11.88
37.843,-3.33
37.859,-18.31
37.875,-31.21
37.890,-40.28
37.906,-44.46
37.921,-43.77
37.937,-39.32
37.953,-32.91
37.968,-26.44
37.984,-21.24
38.000,-17.77
38.015,-15.81
38.031,-14.72
38.046,-14.08
38.062,-13.84
38.078,-14.36
38.093,-16.19
38.109,-19.66
38.125,-24.72
38.140,-30.84
38.156,-37.21
38.171,-43.01
38.187,-47.56
38.203,-50.34
38.218,-50.95
38.234,-49.12
38.250,-44.8
38.265,-38.36
38.281,-30.61
38.296,-22.68
38.312,-15.68
38.328,-10.27
38.343,-6.49
38.359,-3.87
38.375,-1.85
38.390,-0.23
38.406,0.65
38.421,0.02
38.437,-2.82
38.453,-8.01
38.468,-14.76
38.484,-21.45
38.500,-26.07
38.515,-26.86
38.531,-22.9
38.546,-14.46
38.562,-2.87
38.578,9.98
38.593,22.24
38.609,32.74
38.625,41.14
38.640,47.83
38.656,53.42
38.671,58.35
38.687,62.62
38.703,65.78
38.718,67.28
38.734,66.78
38.750,64.24
38.765,60.08
38.781,54.92
38.796,49.57
38.812,44.88
38.828,41.73
38.843,40.63
38.859,41.15
38.875,41.37
38.890,38.01
38.906,27.58
38.921,7.92
38.937,-20.18
38.953,-52.81
38.968,-84.25
38.984,-109.18
39.000,-124.66
39.015,-130.68
39.031,-129.38
39.046,-123.47
39.062,-115.29
39.078,-106.73
39.093,-99.72
39.109,-96.32
39.125,-97.82
39.140,-103.43
39.156,-109.47
39.171,-110.43
39.187,-101.15
39.203,-79.48
39.218,-47.47
39.234,-10.43
39.250,25.44
39.265,55.73
39.281,79.05
39.296,96.63
39.312,110.71
39.328,122.97
39.343,133.86
39.359,142.92
39.375,149.52
39.390,153.33
39.406,154.37
39.421,152.68
39.437,148.11
39.453,140.42
39.468,129.73
39.484,116.89
39.500,103.4
39.515,91.11
39.531,81.45
39.546,75.05
39.562,71.45
39.578,69.42
39.593,67.4
39.609,63.95
39.625,58.26
39.640,50.18
39.656,40.16
39.671,29.03
39.687,17.57
39.703,6.28
39.718,-4.68
39.734,-15.47
39.750,-26.33
39.765,-37.37
39.781,-48.39
39.796,-58.87
39.812,-67.92
39.828,-74.5
39.843,-77.55
39.859,-76.31
39.875,-70.59
39.890,-60.99
39.906,-48.82
39.921,-35.66
39.937,-22.91
39.953,-11.34
39.968,-1.09
39.984,8.13
40.000,16.6
40.015,24.26
40.031,30.73
40.046,35.6
40.062,38.67
40.078,40.26
40.093,40.98
40.109,41.55
40.125,42.47
40.140,43.91
40.156,45.76
40.171,47.83
40.187,50.07
40.203,52.63
40.218,55.85
40.234,60.1
40.250,65.66
40.265,72.42
40.281,79.87
40.296,87.08
40.312,92.91
40.328,96.24
40.343,96.29
40.359,92.71
40.375,85.65
40.390,75.52
40.406,62.94
40.421,48.54
40.437,33.1
40.453,17.45
40.468,2.59
40.484,-10.69
40.500,-22.08
40.515,-32.16
40.531,-42.19
40.546,-53.52
40.562,-66.67
40.578,-80.54
40.593,-92.53
40.609,-99.32
40.625,-98.4
40.640,-89.21
40.656,-73.52
40.671,-54.8
40.687,-36.78
40.703,-22.1
40.718,-11.66
40.734,-4.84
40.750,-0.27
40.765,3.25
40.781,6.32
40.796,9.03
40.812,11.23
40.828,12.98
40.843,14.59
40.859,16.51
40.875,19.11
40.890,22.37
40.906,25.88
40.921,28.99
40.937,31.13
40.953,32.0
40.968,31.77
40.984,30.95
41.000,30.15
41.015,29.82
41.031,30.07
41.046,30.72
41.062,31.4
41.078,31.74
41.093,31.5
41.109,30.57
41.125,28.93
41.140,26.71
41.156,24.17
41.171,21.8
41.187,20.11
41.203,19.48
41.218,19.91
41.234,20.93
41.250,21.78
41.265,21.93
41.281,21.41
41.296,20.96
41.312,21.63
41.328,24.42
41.343,30.2
41.359,39.76
41.375,53.77
41.390,72.33
41.406,94.53
41.421,118.24
41.437,140.68
41.453,159.54
41.468,174.02
41.484,185.14
41.500,194.94
41.515,204.93
41.531,214.9
41.546,222.64
41.562,224.96
41.578,219.34
41.593,205.15
41.609,183.99
41.625,158.84
41.640,132.99
41.656,109.07
41.671,88.73
41.687,72.53
41.703,59.99
41.718,49.67
41.734,39.4
41.750,26.78
41.765,9.71
41.781,-12.85
41.796,-40.26
41.812,-70.02
41.828,-98.53
41.843,-122.29
41.859,-139.26
41.875,-149.74
41.890,-156.17
41.906,-161.82
41.921,-169.24
41.937,-178.94
41.953,-189.4
41.968,-198.12
41.984,-203.1
42.000,-203.7
42.015,-200.69
42.031,-195.46
42.046,-189.03
42.062,-181.71
42.078,-173.33
42.093,-164.01
42.109,-154.51
42.125,-145.94
42.140,-139.17
42.156,-134.07
42.171,-129.56
42.187,-124.02
42.203,-116.25
42.218,-106.1
42.234,-94.63
42.250,-83.57
42.265,-74.47
42.281,-68.04
42.296,-63.9
42.312,-60.72
42.328,-56.92
42.343,-51.38
42.359,-43.99
42.375,-35.7
42.390,-28.12
42.406,-22.81
42.421,-20.64
42.437,-21.46
42.453,-24.2
42.468,-27.36
42.484,-29.65
42.500,-30.44
42.515,-29.89
42.531,-28.81
42.546,-28.46
42.562,-30.12
42.578,-34.8
42.593,-42.86
42.609,-53.66
42.625,-65.44
42.640,-75.48
42.656,-80.8
42.671,-79.16
42.687,-70.01
42.703,-54.86
42.718,-36.81
42.734,-19.34
42.750,-4.99
42.765,5.59
42.781,13.51
42.796,20.69
42.812,28.66
42.828,37.77
42.843,47.26
42.859,55.97
42.875,63.17
42.890,68.93
42.906,73.86
42.921,78.44
42.937,82.32
42.953,84.4
42.968,83.25
42.984,78.02
43.000,68.97
43.015,57.55
43.031,45.73
43.046,35.27
43.062,27.0
43.078,20.77
43.093,15.97
43.109,12.49
43.125,11.41
43.140,14.83
43.156,24.7
43.171,41.0
43.187,60.52
43.203,77.19
43.218,84.17
43.234,76.82
43.250,54.74
43.265,22.07
43.281,-14.39
43.296,-48.06
43.312,-74.8
43.328,-93.55
43.343,-105.19
43.359,-110.79
43.375,-110.55
43.390,-104.03
43.406,-91.16
43.421,-73.44
43.437,-53.98
43.453,-36.6
43.468,-24.36
43.484,-18.4
43.500,-17.58
43.515,-19.28
43.531,-20.73
43.546,-20.22
43.562,-17.62
43.578,-14.22
43.593,-11.78
43.609,-11.57
43.625,-13.76
43.640,-17.48
43.656,-21.28
43.671,-23.85
43.687,-24.54
43.703,-23.56
43.718,-21.91
43.734,-21.01
43.750,-22.33
43.765,-26.87
43.781,-34.8
43.796,-45.33
43.812,-56.87
43.828,-67.46
43.843,-75.34
43.859,-79.49
43.875,-79.79
43.890,-76.92
43.906,-72.01
43.921,-66.27
43.937,-60.69
43.953,-56.01
43.968,-52.63
43.984,-50.62
44.000,-49.56
44.015,-48.56
44.031,-46.45
44.046,-42.05
44.062,-34.59
44.078,-23.92
44.093,-10.66
44.109,4.1
44.125,19.08
44.140,33.03
44.156,45.02
44.171,54.39
44.187,60.89
44.203,64.77
44.218,66.87
44.234,68.44
44.250,70.83
44.265,74.97
44.281,81.09
44.296,88.63
44.312,96.47
44.328,103.5
44.343,109.23
44.359,113.76
44.375,117.63
44.390,121.4
44.406,125.29
44.421,129.19
44.437,133.03
44.453,136.87
44.468,141.21
44.484,146.33
44.500,151.55
44.515,155.1
44.531,154.74
44.546,149.01
44.562,138.33
44.578,125.03
44.593,111.75
44.609,100.55
44.625,92.05
44.640,85.68
44.656,80.62
44.671,76.48
44.687,73.3
44.703,70.94
44.718,68.37
44.734,62.51
44.750,50.17
44.765,29.48
44.781,0.9
44.796,-32.76
44.812,-67.73
44.828,-100.54
44.843,-128.73
44.859,-150.91
44.875,-168.49
44.890,-183.56
44.906,-198.35
44.921,-214.16
44.937,-230.79
44.953,-247.01
44.968,-261.17
44.984,-271.88
45.000,-278.58
45.015,-283.93
45.031,-291.31
45.046,-303.71
45.062,-322.47
45.078,-347.12
45.093,-376.26
45.109,-408.54
45.125,-442.91
45.140,-463.52
45.156,-457.12
45.171,-415.27
45.187,-339.23
45.203,-239.62
45.218,-131.19
45.234,-26.6
45.250,66.56
45.265,145.54
45.281,210.73
45.296,261.75
45.312,298.62
45.328,321.54
45.343,332.12
45.359,333.22
45.375,328.54
45.390,321.38
45.406,314.12
45.421,307.9
45.437,301.28
45.453,293.06
45.468,280.66
45.484,263.13
45.500,241.24
45.515,217.27
45.531,193.83
45.546,173.05
45.562,156.18
45.578,142.5
45.593,130.75
45.609,118.53
45.625,104.52
45.640,88.53
45.656,71.64
45.671,55.35
45.687,40.88
45.703,28.77
45.718,18.25
45.734,8.0
45.750,-5.36
45.765,-22.01
45.781,-41.95
45.796,-64.12
45.812,-86.76
45.828,-108.12
45.843,-126.62
45.859,-141.07
45.875,-143.4
45.890,-128.78
45.906,-95.97
45.921,-48.71
45.937,6.62
45.953,63.82
45.968,118.38
45.984,167.61
46.000,209.36
46.015,244.9
46.031,273.57
46.046,294.48
46.062,307.05
46.078,311.68
46.093,309.6
46.109,302.19
46.125,289.98
46.140,274.15
46.156,256.15
46.171,236.17
46.187,214.61
46.203,192.21
46.218,170.16
46.234,149.82
46.250,132.25
46.265,117.88
46.281,106.75
46.296,98.47
46.312,91.51
46.328,84.51
46.343,76.48
46.359,67.11
46.375,56.58
46.390,45.21
46.406,33.35
46.421,21.39
46.437,9.66
46.453,-1.95
46.468,-13.36
46.484,-24.28
46.500,-34.16
46.515,-42.49
46.531,-49.06
46.546,-54.06
46.562,-57.97
46.578,-61.53
46.593,-65.55
46.609,-70.53
46.625,-76.55
46.640,-83.32
46.656,-90.51
46.671,-98.09
46.687,-106.37
46.703,-115.98
46.718,-127.65
46.734,-141.83
46.750,-158.45
46.765,-176.82
46.781,-195.99
46.796,-215.22
46.812,-234.43
46.828,-254.29
46.843,-276.01
46.859,-300.82
46.875,-329.31
46.890,-361.07
46.906,-394.67
46.921,-428.11
46.937,-459.57
46.953,-487.91
46.968,-512.88
46.984,-535.04
47.000,-555.63
47.015,-576.48
47.031,-599.71
47.046,-626.97
47.062,-658.08
47.078,-689.84
47.093,-715.73
47.109,-727.28
47.125,-716.93
47.140,-681.02
47.156,-621.5
47.171,-545.41
47.187,-462.18
47.203,-380.31
47.218,-304.96
47.234,-237.5
47.250,-176.71
47.265,-120.83
47.281,-68.79
47.296,-20.65
47.312,22.79
47.328,60.84
47.343,93.23
47.359,120.3
47.375,142.94
47.390,162.44
47.406,180.33
47.421,198.14
47.437,217.07
47.453,237.51
47.468,259.14
47.484,280.91
47.500,301.58
47.515,320.33
47.531,337.05
47.546,352.65
47.562,369.03
47.578,388.8
47.593,414.42
47.609,446.68
47.625,482.95
47.640,516.44
47.656,537.16
47.671,534.98
47.687,503.65
47.703,444.24
47.718,365.58
47.734,281.64
47.750,206.25
47.765,147.9
47.781,107.07
47.796,77.17
47.812,48.18
47.828,11.06
47.843,-39.03
47.859,-101.67
47.875,-171.84
47.890,-241.59
47.906,-301.93
47.921,-344.81
47.937,-364.74
47.953,-360.05
47.968,-333.04
47.984,-289.2
48.000,-235.72
48.015,-179.56
48.031,-126.15
48.046,-78.79
48.062,-38.95
48.078,-6.64
48.093,19.27
48.109,40.96
48.125,61.32
48.140,83.11
48.156,107.91
48.171,135.44
48.187,163.72
48.203,189.85
48.218,211.04
48.234,225.73
48.250,233.9
48.265,236.99
48.281,237.74
48.296,239.76
48.312,246.75
48.328,261.45
48.343,283.88
48.359,310.24
48.375,333.26
48.390,343.79
48.406,333.71
48.421,298.61
48.437,239.07
48.453,160.84
48.468,73.52
48.484,-11.45
48.500,-82.64
48.515,-130.37
48.531,-148.61
48.546,-136.12
48.562,-97.53
48.578,-43.15
48.593,12.84
48.609,55.6
48.625,73.04
48.640,58.79
48.656,13.4
48.671,-56.23
48.687,-138.95
48.703,-222.64
48.718,-297.29
48.734,-356.71
48.750,-398.47
48.765,-422.68
48.781,-430.07
48.796,-421.11
48.812,-396.54
48.828,-358.27
48.843,-310.16
48.859,-257.7
48.875,-206.5
48.890,-160.69
48.906,-122.07
48.921,-90.34
48.937,-64.42
48.953,-43.77
48.968,-28.6
48.984,-19.52
49.000,-16.38
49.015,-17.57
49.031,-20.48
49.046,-22.24
49.062,-20.67
49.078,-15.06
49.093,-6.11
49.109,4.79
49.125,16.46
49.140,28.39
49.156,41.0
49.171,55.09
49.187,71.26
49.203,89.34
49.218,108.36
49.234,126.86
49.250,143.57
49.265,158.16
49.281,171.21
49.296,184.23
49.312,198.94
49.328,216.93
49.343,239.02
49.359,264.91
49.375,292.91
49.390,320.03
49.406,342.64
49.421,357.38
49.437,362.19
49.453,357.01
49.468,343.67
49.484,325.13
49.500,304.08
49.515,281.99
49.531,258.78
49.546,233.61
49.562,205.96
49.578,176.59
49.593,147.69
49.609,121.98
49.625,101.5
49.640,86.56
49.656,75.64
49.671,66.15
49.687,55.73
49.703,43.26
49.718,29.56
49.734,17.06
49.750,8.7
49.765,6.85
49.781,12.25
49.796,23.68
49.812,38.38
49.828,52.93
49.843,64.26
49.859,70.59
49.875,71.81
49.890,69.16
49.906,64.54
49.921,59.74
49.937,55.77
49.953,53.23
49.968,52.01
49.984,51.6
50.000,51.36
50.015,50.76
50.031,49.58
50.046,47.81
50.062,45.61
50.078,43.21
50.093,41.15
50.109,39.78
50.125,39.09
50.140,38.71
50.156,38.1
50.171,36.74
50.187,34.2
50.203,30.13
50.218,24.24
50.234,17.21
50.250,9.89
50.265,2.87
50.281,-3.46
50.296,-8.98
50.312,-13.7
50.328,-17.88
50.343,-22.2
50.359,-27.52
50.375,-32.35
50.390,-35.19
50.406,-35.37
50.421,-33.16
50.437,-28.99
50.453,-22.79
50.468,-14.26
50.484,-3.73
50.500,7.27
50.515,20.96
50.531,38.06
50.546,56.97
50.562,74.18
50.578,86.33
50.593,92.24
50.609,93.03
50.625,91.31
50.640,90.33
50.656,100.7
50.671,129.84
50.687,177.76
50.703,235.95
50.718,291.74
50.734,334.58
50.750,360.24
50.765,371.71
50.781,377.27
50.796,396.09
50.812,441.84
50.828,516.16
50.843,608.34
50.859,702.59
50.875,786.31
50.890,853.89
50.906,905.66
50.921,884.65
50.937,761.19
50.953,543.25
50.968,275.64
50.984,11.19
51.000,-215.4
51.015,-391.99
51.031,-520.87
51.046,-610.55
51.062,-671.08
51.078,-702.53
51.093,-706.11
51.109,-687.48
51.125,-656.98
51.140,-625.31
51.156,-599.1
51.171,-580.38
51.187,-568.36
51.203,-561.7
51.218,-552.03
51.234,-533.63
51.250,-506.06
51.265,-473.98
51.281,-443.45
51.296,-418.25
51.312,-399.08
51.328,-384.79
51.343,-374.39
51.359,-361.77
51.375,-342.77
51.390,-316.88
51.406,-287.11
51.421,-257.72
51.437,-231.73
51.453,-210.39
51.468,-193.79
51.484,-181.7
51.500,-171.27
51.515,-160.42
51.531,-148.64
51.546,-136.86
51.562,-126.52
51.578,-118.42
51.593,-112.64
51.609,-108.88
51.625,-106.84
51.640,-104.96
51.656,-102.0
51.671,-97.19
51.687,-90.18
51.703,-80.72
51.718,-68.45
51.734,-52.81
51.750,-33.14
51.765,-11.66
51.781,10.42
51.796,32.16
51.812,53.01
51.828,72.9
51.843,92.08
51.859,111.07
51.875,130.66
51.890,151.56
51.906,173.95
51.921,197.4
51.937,219.98
51.953,238.62
51.968,250.07
51.984,252.06
52.000,244.25
52.015,228.37
52.031,207.55
52.046,184.96
52.062,163.28
52.078,143.72
52.093,126.33
52.109,110.66
52.125,96.32
52.140,83.12
52.156,70.97
52.171,59.67
52.187,48.74
52.203,37.97
52.218,27.43
52.234,17.64
52.250,9.38
52.265,3.39
52.281,-0.06
52.296,-1.29
52.312,-1.18
52.328,-0.76
52.343,-0.82
52.359,-1.72
52.375,-3.45
52.390,-5.71
52.406,-8.19
52.421,-10.7
52.437,-13.2
52.453,-15.79
52.468,-18.59
52.484,-21.65
52.500,-24.97
52.515,-28.61
52.531,-32.55
52.546,-36.78
52.562,-41.25
52.578,-45.8
52.593,-50.17
52.609,-54.13
52.625,-57.37
52.640,-59.64
52.656,-60.73
52.671,-60.39
52.687,-58.38
52.703,-54.62
52.718,-49.23
52.734,-42.61
52.750,-35.39
52.765,-28.23
52.781,-21.6
52.796,-15.7
52.812,-10.45
52.828,-5.7
52.843,-1.44
52.859,2.3
52.875,5.42
52.890,7.83
52.906,9.62
52.921,11.0
52.937,12.18
52.953,13.31
52.968,14.43
52.984,15.34
53.000,15.88
53.015,15.88
53.031,15.31
53.046,14.29
53.062,13.06
53.078,11.89
53.093,10.97
53.109,10.36
53.125,9.91
53.140,9.45
53.156,8.78
53.171,7.77
53.187,6.42
53.203,4.79
53.218,2.94
53.234,0.88
53.250,-1.38
53.265,-3.76
53.281,-6.08
53.296,-8.05
53.312,-9.45
53.328,-10.25
53.343,-10.7
53.359,-11.3
53.375,-12.51
53.390,-14.53
53.406,-17.16
53.421,-19.75
53.437,-21.38
53.453,-21.24
53.468,-18.85
53.484,-14.25
53.500,-7.97
53.515,-0.84
53.531,6.26
53.546,12.49
53.562,17.2
53.578,20.04
53.593,20.92
53.609,19.94
53.625,17.41
53.640,13.72
53.656,9.28
53.671,4.58
53.687,0.06
53.703,-3.85
53.718,-6.75
53.734,-8.38
53.750,-8.72
53.765,-7.92
53.781,-6.35
53.796,-4.41
53.812,-2.45
53.828,-0.7
53.843,0.68
53.859,1.55
53.875,1.77
53.890,1.27
53.906,0.13
53.921,-1.42
53.937,-3.08
53.953,-4.58
53.968,-5.83
53.984,-6.94
54.000,-8.1
54.015,-9.55
54.031,-11.38
54.046,-13.49
54.062,-15.71
54.078,-17.88
54.093,-19.88
54.109,-21.74
54.125,-23.5
54.140,-25.25
54.156,-27.08
54.171,-29.03
54.187,-31.05
54.203,-32.95
54.218,-34.35
54.234,-34.69
54.250,-33.4
54.265,-30.08
54.281,-24.68
54.296,-17.63
54.312,-9.7
54.328,-1.82
54.343,5.17
54.359,10.77
54.375,14.88
54.390,17.74
54.406,19.66
54.421,20.97
54.437,21.83
54.453,22.27
54.468,22.29
54.484,21.89
54.500,21.2
54.515,20.39
54.531,19.62
54.546,19.01
54.562,18.65
54.578,18.52
54.593,18.58
54.609,18.75
54.625,18.88
54.640,18.79
54.656,18.35
54.671,17.45
54.687,16.15
54.703,14.61
54.718,13.05
54.734,11.67
54.750,10.56
54.765,9.7
54.781,9.0
54.796,8.36
54.812,7.65
54.828,6.87
54.843,5.95
54.859,4.89
54.875,3.6
54.890,2.06
54.906,0.22
54.921,-1.82
54.937,-3.83
54.953,-5.56
54.968,-6.7
54.984,-7.02
55.000,-6.32
55.015,-4.42
55.031,-1.17
55.046,3.61
55.062,9.99
55.078,17.81
55.093,26.59
55.109,35.73
55.125,44.56
55.140,52.6
55.156,59.71
55.171,65.85
55.187,70.99
55.203,74.8
55.218,76.93
55.234,77.21
55.250,75.96
55.265,73.81
55.281,71.28
55.296,68.33
55.312,64.22
55.328,57.98
55.343,49.08
55.359,38.11
55.375,26.77
55.390,17.22
55.406,11.12
55.421,8.84
55.437,9.53
55.453,11.67
55.468,14.01
55.484,16.16
55.500,18.68
55.515,22.45
55.531,28.1
55.546,35.7
55.562,44.68
55.578,54.24
55.593,63.53
55.609,71.76
55.625,78.02
55.640,81.04
55.656,79.31
55.671,71.39
55.687,56.56
55.703,35.35
55.718,9.6
55.734,-17.87
55.750,-43.98
55.765,-66.21
55.781,-83.2
55.796,-94.73
55.812,-101.37
55.828,-103.8
55.843,-102.53
55.859,-97.92
55.875,-90.73
55.890,-82.51
55.906,-75.67
55.921,-72.73
55.937,-75.3
55.953,-83.29
55.968,-94.81
55.984,-106.96
56.000,-116.83
56.015,-122.4
56.031,-122.79
56.046,-117.92
56.062,-108.04
56.078,-93.61
56.093,-75.55
56.109,-55.43
56.125,-35.62
56.140,-18.73
56.156,-6.89
56.171,-1.17
56.187,-1.21
56.203,-5.42
56.218,-11.68
56.234,-17.94
56.250,-22.66
56.265,-25.14
56.281,-25.49
56.296,-24.25
56.312,-22.19
56.328,-19.95
56.343,-17.89
56.359,-16.09
56.375,-14.46
56.390,-12.76
56.406,-10.9
56.421,-8.89
56.437,-6.96
56.453,-5.41
56.468,-4.57
56.484,-4.61
56.500,-5.52
56.515,-7.06
56.531,-8.74
56.546,-10.01
56.562,-10.31
56.578,-9.32
56.593,-7.04
56.609,-3.85
56.625,-0.37
56.640,2.76
56.656,5.06
56.671,6.4
56.687,6.89
56.703,6.79
56.718,6.45
56.734,6.12
56.750,5.92
56.765,5.85
56.781,5.75
56.796,5.45
56.812,4.85
56.828,4.01
56.843,3.13
56.859,2.52
56.875,2.45
56.890,3.03
56.906,4.27
56.921,6.0
56.937,8.03
56.953,10.14
56.968,12.12
56.984,13.75
57.000,14.86
57.015,15.25
57.031,14.92
57.046,14.02
57.062,12.86
57.078,11.78
57.093,11.06
57.109,10.81
57.125,10.99
57.140,11.42
57.156,11.87
57.171,12.27
57.187,12.66
57.203,13.15
57.218,13.84
57.234,14.64
57.250,15.29
57.265,15.48
57.281,15.06
57.296,14.12
57.312,13.02
57.328,12.14
57.343,11.69
57.359,11.65
57.375,11.78
57.390,11.78
57.406,11.44
57.421,10.7
57.437,9.61
57.453,8.3
57.468,6.88
57.484,5.38
57.500,3.9
57.515,2.48
57.531,1.17
57.546,0.09
57.562,-0.58
57.578,-0.77
57.593,-0.47
57.609,0.12
57.625,0.63
57.640,0.72
57.656,0.06
57.671,-1.44
57.687,-3.67
57.703,-6.45
57.718,-9.69
57.734,-13.33
57.750,-17.3
57.765,-21.36
57.781,-25.06
57.796,-28.04
57.812,-30.14
57.828,-31.58
57.843,-32.85
57.859,-34.46
57.875,-36.67
57.890,-39.44
57.906,-42.46
57.921,-45.21
57.937,-47.25
57.953,-48.07
57.968,-47.16
57.984,-44.12
58.000,-38.72
58.015,-31.15
58.031,-22.12
58.046,-12.72
58.062,-4.01
58.078,3.18
58.093,8.55
58.109,12.23
58.125,14.56
58.140,15.97
58.156,16.76
58.171,17.12
58.187,17.17
58.203,17.06
58.218,16.91
58.234,16.79
58.250,16.66
58.265,16.35
58.281,15.78
58.296,14.97
58.312,14.02
58.328,13.13
58.343,12.45
58.359,11.93
58.375,11.41
58.390,10.67
58.406,9.42
58.421,7.58
58.437,5.2
58.453,2.42
58.468,-0.5
58.484,-3.28
58.500,-5.73
58.515,-7.75
58.531,-9.47
58.546,-11.28
58.562,-13.56
58.578,-16.46
58.593,-19.73
58.609,-22.62
58.625,-24.05
58.640,-23.07
58.656,-19.24
58.671,-12.85
58.687,-4.88
58.703,3.39
58.718,10.82
58.734,16.69
58.750,20.89
58.765,23.7
58.781,25.61
58.796,26.98
58.812,27.85
58.828,27.88
58.843,26.49
58.859,23.09
58.875,17.33
58.890,9.34
58.906,-0.18
58.921,-10.1
58.937,-19.13
58.953,-26.13
58.968,-30.44
58.984,-31.97
59.000,-31.15
59.015,-28.67
59.031,-25.28
59.046,-21.67
59.062,-18.39
59.078,-15.89
59.093,-14.53
59.109,-14.5
59.125,-15.74
59.140,-17.93
59.156,-20.55
59.171,-23.0
59.187,-24.95
59.203,-26.4
59.218,-27.61
59.234,-28.86
59.250,-30.15
59.265,-30.99
59.281,-30.58
59.296,-28.09
59.312,-23.1
59.328,-15.84
59.343,-7.13
59.359,1.96
59.375,10.52
59.390,18.03
59.406,24.35
59.421,29.55
59.437,33.67
59.453,36.67
59.468,38.48
59.484,39.12
59.500,38.69
59.515,37.34
59.531,35.03
59.546,31.49
59.562,26.41
59.578,19.66
59.593,11.51
59.609,2.74
59.625,-5.61
59.640,-12.59
59.656,-17.59
59.671,-20.45
59.687,-21.43
59.703,-20.93
59.718,-19.43
59.734,-17.38
59.750,-15.21
59.765,-13.34
59.781,-12.17
59.796,-12.0
59.812,-13.03
59.828,-15.26
59.843,-18.46
59.859,-22.26
59.875,-26.11
59.890,-29.27
59.906,-31.01
59.921,-30.72
59.937,-28.07
59.953,-23.15
59.968,-16.4
59.984,-8.48
