timestamp,value
00.000,-21.58
00.015,-27.13
00.031,-32.89
00.046,-38.39
00.062,-42.89
00.078,-45.52
00.093,-45.51
00.109,-42.42
00.125,-36.33
00.140,-27.83
00.156,-17.83
00.171,-7.32
00.187,2.84
00.203,12.07
00.218,20.05
00.234,26.69
00.250,31.97
00.265,35.93
00.281,38.66
00.296,40.33
00.312,41.2
00.328,41.55
00.343,41.69
00.359,41.8
00.375,41.94
00.390,42.01
00.406,41.82
00.421,41.24
00.437,40.27
00.453,38.98
00.468,37.53
00.484,35.95
00.500,34.12
00.515,31.76
00.531,28.64
00.546,24.69
00.562,20.16
00.578,15.45
00.593,11.0
00.609,6.97
00.625,3.16
00.640,-0.9
00.656,-5.83
00.671,-11.99
00.687,-19.33
00.703,-27.23
00.718,-34.67
00.734,-40.41
00.750,-43.39
00.765,-42.96
00.781,-39.03
00.796,-32.08
00.812,-23.01
00.828,-12.87
00.843,-2.59
00.859,7.1
00.875,15.84
00.890,23.47
00.906,29.96
00.921,35.35
00.937,39.68
00.953,43.03
00.968,45.51
00.984,47.29
01.000,48.51
01.015,49.21
01.031,49.31
01.046,48.68
01.062,47.25
01.078,45.07
01.093,42.39
01.109,39.57
01.125,36.93
01.140,34.65
01.156,32.63
01.171,30.6
01.187,28.21
01.203,25.21
01.218,21.52
01.234,17.32
01.250,12.93
01.265,8.65
01.281,4.66
01.296,0.98
01.312,-2.61
01.328,-6.46
01.343,-10.95
01.359,-16.36
01.375,-22.71
01.390,-29.67
01.406,-36.44
01.421,-41.91
01.437,-44.88
01.453,-44.41
01.468,-40.17
01.484,-32.54
01.500,-22.54
01.515,-11.52
01.531,-0.81
01.546,8.63
01.562,16.34
01.578,22.27
01.593,26.69
01.609,29.94
01.625,32.4
01.640,34.32
01.656,35.9
01.671,37.18
01.687,38.15
01.703,38.78
01.718,38.98
01.734,38.76
01.750,38.16
01.765,37.33
01.781,36.43
01.796,35.56
01.812,34.8
01.828,34.12
01.843,33.48
01.859,32.78
01.875,31.93
01.890,30.84
01.906,29.42
01.921,27.62
01.937,25.48
01.953,23.15
01.968,20.92
01.984,19.1
02.000,17.89
02.015,17.31
02.031,17.12
02.046,16.95
02.062,16.46
02.078,15.48
02.093,14.09
02.109,12.58
02.125,11.22
02.140,10.18
02.156,9.43
02.171,8.76
02.187,7.95
02.203,6.87
02.218,5.55
02.234,4.18
02.250,2.97
02.265,2.03
02.281,1.41
02.296,1.07
02.312,0.94
02.328,0.94
02.343,1.01
02.359,1.09
02.375,1.1
02.390,0.98
02.406,0.65
02.421,0.06
02.437,-0.78
02.453,-1.86
02.468,-3.17
02.484,-4.71
02.500,-6.41
02.515,-8.23
02.531,-10.04
02.546,-11.73
02.562,-13.16
02.578,-14.3
02.593,-15.2
02.609,-16.03
02.625,-17.03
02.640,-18.51
02.656,-20.65
02.671,-23.45
02.687,-26.73
02.703,-30.09
02.718,-33.08
02.734,-35.41
02.750,-37.06
02.765,-38.34
02.781,-39.8
02.796,-42.06
02.812,-45.56
02.828,-50.41
02.843,-56.26
02.859,-62.29
02.875,-67.32
02.890,-70.05
02.906,-69.41
02.921,-64.84
02.937,-56.45
02.953,-45.05
02.968,-31.95
02.984,-18.56
03.000,-6.06
03.015,4.81
03.031,13.78
03.046,20.82
03.062,26.04
03.078,29.48
03.093,31.19
03.109,31.23
03.125,29.78
03.140,27.15
03.156,23.65
03.171,19.57
03.187,15.0
03.203,9.93
03.218,4.32
03.234,-1.69
03.250,-7.84
03.265,-13.7
03.281,-18.95
03.296,-23.48
03.312,-27.42
03.328,-31.03
03.343,-34.47
03.359,-37.73
03.375,-40.54
03.390,-42.6
03.406,-43.72
03.421,-43.95
03.437,-43.57
03.453,-42.94
03.468,-42.38
03.484,-42.12
03.500,-42.37
03.515,-43.3
03.531,-45.09
03.546,-47.68
03.562,-50.68
03.578,-53.27
03.593,-54.36
03.609,-52.93
03.625,-48.37
03.640,-40.78
03.656,-30.88
03.671,-19.76
03.687,-8.51
03.703,2.13
03.718,11.8
03.734,20.47
03.750,28.19
03.765,34.99
03.781,40.79
03.796,45.52
03.812,49.16
03.828,51.87
03.843,53.9
03.859,55.55
03.875,57.14
03.890,58.83
03.906,60.67
03.921,62.58
03.937,64.37
03.953,65.83
03.968,66.83
03.984,67.32
04.000,67.37
04.015,67.11
04.031,66.64
04.046,65.97
04.062,65.09
04.078,63.96
04.093,62.62
04.109,61.21
04.125,59.94
04.140,59.04
04.156,58.64
04.171,58.72
04.187,59.17
04.203,59.85
04.218,60.65
04.234,61.54
04.250,62.52
04.265,63.62
04.281,64.83
04.296,66.19
04.312,67.79
04.328,69.84
04.343,72.46
04.359,75.75
04.375,79.58
04.390,83.69
04.406,87.78
04.421,91.62
04.437,95.21
04.453,98.76
04.468,102.53
04.484,106.77
04.500,111.63
04.515,117.22
04.531,123.64
04.546,130.85
04.562,138.58
04.578,146.13
04.593,152.37
04.609,155.97
04.625,155.69
04.640,150.68
04.656,140.66
04.671,125.84
04.687,106.86
04.703,84.62
04.718,60.19
04.734,34.71
04.750,9.22
04.765,-15.59
04.781,-39.54
04.796,-63.03
04.812,-86.77
04.828,-111.4
04.843,-137.09
04.859,-163.39
04.875,-189.24
04.890,-213.36
04.906,-234.44
04.921,-251.5
04.937,-263.96
04.953,-271.85
04.968,-275.84
04.984,-277.12
05.000,-277.07
05.015,-276.83
05.031,-276.73
05.046,-276.15
05.062,-273.68
05.078,-267.7
05.093,-257.06
05.109,-241.6
05.125,-222.19
05.140,-200.44
05.156,-178.07
05.171,-156.46
05.187,-136.42
05.203,-118.29
05.218,-102.14
05.234,-88.0
05.250,-75.89
05.265,-65.73
05.281,-57.24
05.296,-49.91
05.312,-43.14
05.328,-36.42
05.343,-29.56
05.359,-22.73
05.375,-16.32
05.390,-10.7
05.406,-6.04
05.421,-2.24
05.437,1.02
05.453,4.05
05.468,6.94
05.484,9.54
05.500,11.47
05.515,12.33
05.531,11.9
05.546,10.25
05.562,7.74
05.578,4.84
05.593,1.97
05.609,-0.65
05.625,-3.12
05.640,-5.75
05.656,-9.04
05.671,-13.41
05.687,-19.07
05.703,-25.83
05.718,-33.03
05.734,-39.54
05.750,-44.02
05.765,-45.29
05.781,-42.65
05.796,-36.2
05.812,-26.74
05.828,-15.52
05.843,-3.78
05.859,7.54
05.875,17.97
05.890,27.35
05.906,35.66
05.921,42.84
05.937,48.74
05.953,53.2
05.968,56.18
05.984,57.92
06.000,58.88
06.015,59.65
06.031,60.82
06.046,62.73
06.062,65.42
06.078,68.57
06.093,71.75
06.109,74.56
06.125,76.8
06.140,78.46
06.156,79.67
06.171,80.49
06.187,80.86
06.203,80.65
06.218,79.79
06.234,78.35
06.250,76.54
06.265,74.65
06.281,72.92
06.296,71.43
06.312,70.11
06.328,68.77
06.343,67.25
06.359,65.38
06.375,63.12
06.390,60.46
06.406,57.52
06.421,54.42
06.437,51.31
06.453,48.29
06.468,45.41
06.484,42.71
06.500,40.21
06.515,37.92
06.531,35.89
06.546,34.13
06.562,32.59
06.578,31.16
06.593,29.66
06.609,27.85
06.625,25.56
06.640,22.72
06.656,19.46
06.671,16.08
06.687,12.92
06.703,10.26
06.718,8.1
06.734,6.28
06.750,4.44
06.765,2.24
06.781,-0.51
06.796,-3.82
06.812,-7.48
06.828,-11.24
06.843,-14.89
06.859,-18.39
06.875,-21.82
06.890,-25.36
06.906,-29.22
06.921,-33.55
06.937,-38.35
06.953,-43.51
06.968,-48.88
06.984,-54.27
07.000,-59.58
07.015,-64.76
07.031,-69.83
07.046,-74.93
07.062,-80.33
07.078,-86.45
07.093,-93.71
07.109,-102.21
07.125,-111.49
07.140,-120.36
07.156,-126.97
07.171,-129.39
07.187,-126.23
07.203,-117.18
07.218,-103.12
07.234,-85.85
07.250,-67.35
07.265,-49.29
07.281,-32.69
07.296,-17.93
07.312,-5.08
07.328,5.91
07.343,14.97
07.359,22.07
07.375,27.31
07.390,31.04
07.406,33.79
07.421,36.14
07.437,38.46
07.453,40.85
07.468,43.12
07.484,45.0
07.500,46.23
07.515,46.75
07.531,46.73
07.546,46.46
07.562,46.16
07.578,45.9
07.593,45.48
07.609,44.51
07.625,42.6
07.640,39.45
07.656,35.07
07.671,29.7
07.687,23.82
07.703,17.85
07.718,12.14
07.734,6.73
07.750,1.45
07.765,-4.07
07.781,-10.21
07.796,-17.23
07.812,-25.17
07.828,-33.63
07.843,-41.83
07.859,-48.59
07.875,-52.62
07.890,-52.87
07.906,-48.89
07.921,-41.05
07.937,-30.4
07.953,-18.37
07.968,-6.26
07.984,5.12
08.000,15.47
08.015,24.9
08.031,33.55
08.046,41.38
08.062,48.14
08.078,53.43
08.093,56.98
08.109,58.75
08.125,58.98
08.140,58.15
08.156,56.79
08.171,55.36
08.187,54.17
08.203,53.35
08.218,52.9
08.234,52.68
08.250,52.53
08.265,52.24
08.281,51.66
08.296,50.62
08.312,49.01
08.328,46.8
08.343,43.99
08.359,40.64
08.375,36.81
08.390,32.57
08.406,27.92
08.421,22.89
08.437,17.52
08.453,11.91
08.468,6.21
08.484,0.59
08.500,-4.84
08.515,-10.13
08.531,-15.43
08.546,-21.05
08.562,-27.27
08.578,-34.27
08.593,-41.99
08.609,-49.95
08.625,-57.28
08.640,-62.81
08.656,-65.31
08.671,-63.8
08.687,-57.9
08.703,-48.02
08.718,-35.29
08.734,-21.32
08.750,-7.73
08.765,4.28
08.781,14.18
08.796,22.05
08.812,28.38
08.828,33.64
08.843,38.05
08.859,41.52
08.875,43.87
08.890,45.0
08.906,45.08
08.921,44.58
08.937,43.99
08.953,43.66
08.968,43.64
08.984,43.74
09.000,43.74
09.015,43.53
09.031,43.13
09.046,42.64
09.062,42.06
09.078,41.22
09.093,39.85
09.109,37.71
09.125,34.76
09.140,31.18
09.156,27.26
09.171,23.31
09.187,19.4
09.203,15.39
09.218,11.01
09.234,5.99
09.250,0.27
09.265,-5.95
09.281,-12.28
09.296,-18.31
09.312,-23.76
09.328,-28.62
09.343,-33.13
09.359,-37.68
09.375,-42.71
09.390,-48.5
09.406,-55.02
09.421,-61.86
09.437,-68.17
09.453,-72.73
09.468,-74.26
09.484,-71.77
09.500,-64.9
09.515,-54.1
09.531,-40.57
09.546,-25.83
09.562,-11.37
09.578,1.78
09.593,13.16
09.609,22.79
09.625,30.96
09.640,37.96
09.656,43.91
09.671,48.79
09.687,52.51
09.703,55.1
09.718,56.74
09.734,57.76
09.750,58.52
09.765,59.2
09.781,59.79
09.796,60.09
09.812,59.82
09.828,58.76
09.843,56.84
09.859,54.07
09.875,50.46
09.890,45.96
09.906,40.39
09.921,33.57
09.937,25.39
09.953,15.93
09.968,5.56
09.984,-5.15
10.000,-15.53
10.015,-24.97
10.031,-33.09
10.046,-39.8
10.062,-45.21
10.078,-49.56
10.093,-53.04
10.109,-55.82
10.125,-58.02
10.140,-59.84
10.156,-61.45
10.171,-62.82
10.187,-63.58
10.203,-62.91
10.218,-59.83
10.234,-53.49
10.250,-43.67
10.265,-30.9
10.281,-16.36
10.296,-1.47
10.312,12.54
10.328,24.88
10.343,35.27
10.359,43.74
10.375,50.38
10.390,55.24
10.406,58.32
10.421,59.66
10.437,59.46
10.453,58.08
10.468,56.02
10.484,53.72
10.500,51.46
10.515,49.31
10.531,47.16
10.546,44.88
10.562,42.41
10.578,39.83
10.593,37.27
10.609,34.88
10.625,32.65
10.640,30.44
10.656,27.98
10.671,24.98
10.687,21.23
10.703,16.68
10.718,11.46
10.734,5.87
10.750,0.25
10.765,-5.14
10.781,-10.16
10.796,-14.85
10.812,-19.38
10.828,-23.94
10.843,-28.71
10.859,-33.8
10.875,-39.21
10.890,-44.78
10.906,-50.15
10.921,-54.68
10.937,-57.49
10.953,-57.71
10.968,-54.73
10.984,-48.54
11.000,-39.74
11.015,-29.42
11.031,-18.73
11.046,-8.55
11.062,0.61
11.078,8.63
11.093,15.54
11.109,21.29
11.125,25.74
11.140,28.72
11.156,30.19
11.171,30.39
11.187,29.77
11.203,28.87
11.218,28.1
11.234,27.62
11.250,27.36
11.265,27.16
11.281,26.82
11.296,26.29
11.312,25.58
11.328,24.81
11.343,23.99
11.359,22.98
11.375,21.56
11.390,19.5
11.406,16.68
11.421,13.22
11.437,9.45
11.453,5.72
11.468,2.33
11.484,-0.64
11.500,-3.26
11.515,-5.7
11.531,-8.07
11.546,-10.39
11.562,-12.68
11.578,-15.0
11.593,-17.54
11.609,-20.55
11.625,-24.27
11.640,-28.78
11.656,-33.96
11.671,-39.5
11.687,-44.89
11.703,-49.48
11.718,-52.54
11.734,-53.35
11.750,-51.33
11.765,-46.16
11.781,-37.94
11.796,-27.23
11.812,-14.92
11.828,-2.14
11.843,10.01
11.859,20.56
11.875,28.86
11.890,34.64
11.906,37.98
11.921,39.21
11.937,38.81
11.953,37.28
11.968,35.12
11.984,32.76
12.000,30.59
12.015,28.96
12.031,28.06
12.046,27.89
12.062,28.24
12.078,28.78
12.093,29.19
12.109,29.23
12.125,28.88
12.140,28.31
12.156,27.72
12.171,27.26
12.187,26.88
12.203,26.43
12.218,25.71
12.234,24.66
12.250,23.31
12.265,21.77
12.281,20.12
12.296,18.31
12.312,16.21
12.328,13.69
12.343,10.71
12.359,7.32
12.375,3.59
12.390,-0.5
12.406,-5.11
12.421,-10.48
12.437,-16.81
12.453,-24.15
12.468,-32.35
12.484,-41.02
12.500,-49.61
12.515,-57.34
12.531,-63.43
12.546,-67.12
12.562,-67.95
12.578,-65.88
12.593,-61.29
12.609,-54.85
12.625,-47.32
12.640,-39.36
12.656,-31.42
12.671,-23.77
12.687,-16.53
12.703,-9.83
12.718,-3.79
12.734,1.48
12.750,5.88
12.765,9.43
12.781,12.23
12.796,14.41
12.812,16.14
12.828,17.59
12.843,18.87
12.859,20.12
12.875,21.42
12.890,22.91
12.906,24.65
12.921,26.61
12.937,28.64
12.953,30.44
12.968,31.68
12.984,32.12
13.000,31.69
13.015,30.57
13.031,29.04
13.046,27.46
13.062,26.08
13.078,24.99
13.093,24.04
13.109,23.04
13.125,21.74
13.140,20.06
13.156,18.11
13.171,16.15
13.187,14.54
13.203,13.48
13.218,12.89
13.234,12.26
13.250,10.74
13.265,7.35
13.281,1.25
13.296,-7.94
13.312,-20.0
13.328,-34.08
13.343,-48.84
13.359,-62.74
13.375,-74.27
13.390,-82.31
13.406,-86.26
13.421,-86.09
13.437,-82.34
13.453,-75.9
13.468,-67.76
13.484,-58.83
13.500,-49.76
13.515,-40.88
13.531,-32.37
13.546,-24.33
13.562,-16.91
13.578,-10.27
13.593,-4.51
13.609,0.39
13.625,4.61
13.640,8.4
13.656,11.97
13.671,15.37
13.687,18.48
13.703,21.17
13.718,23.36
13.734,25.1
13.750,26.48
13.765,27.49
13.781,27.97
13.796,27.61
13.812,26.18
13.828,23.6
13.843,20.12
13.859,16.17
13.875,12.21
13.890,8.58
13.906,5.35
13.921,2.39
13.937,-0.5
13.953,-3.54
13.968,-6.86
13.984,-10.45
14.000,-14.21
14.015,-17.96
14.031,-21.51
14.046,-24.72
14.062,-27.61
14.078,-30.37
14.093,-33.31
14.109,-36.77
14.125,-40.87
14.140,-45.37
14.156,-49.63
14.171,-52.75
14.187,-53.8
14.203,-52.18
14.218,-47.76
14.234,-40.88
14.250,-32.32
14.265,-23.0
14.281,-13.74
14.296,-5.14
14.312,2.49
14.328,9.05
14.343,14.53
14.359,18.97
14.375,22.41
14.390,24.85
14.406,26.33
14.421,26.92
14.437,26.8
14.453,26.24
14.468,25.55
14.484,25.0
14.500,24.75
14.515,24.81
14.531,25.07
14.546,25.41
14.562,25.79
14.578,26.21
14.593,26.66
14.609,27.04
14.625,27.11
14.640,26.57
14.656,25.19
14.671,22.98
14.687,20.19
14.703,17.19
14.718,14.35
14.734,11.83
14.750,9.61
14.765,7.45
14.781,5.04
14.796,2.11
14.812,-1.5
14.828,-5.73
14.843,-10.37
14.859,-15.09
14.875,-19.57
14.890,-23.66
14.906,-27.43
14.921,-31.16
14.937,-35.2
14.953,-39.82
14.968,-44.93
14.984,-50.09
15.000,-54.47
15.015,-57.17
15.031,-57.44
15.046,-54.98
15.062,-49.99
15.078,-43.09
15.093,-35.13
15.109,-26.88
15.125,-18.92
15.140,-11.5
15.156,-4.7
15.171,1.46
15.187,6.92
15.203,11.54
15.218,15.24
15.234,17.99
15.250,19.92
15.265,21.21
15.281,22.1
15.296,22.78
15.312,23.43
15.328,24.15
15.343,25.04
15.359,26.07
15.375,27.22
15.390,28.38
15.406,29.45
15.421,30.33
15.437,30.91
15.453,31.09
15.468,30.74
15.484,29.77
15.500,28.11
15.515,25.81
15.531,23.06
15.546,20.15
15.562,17.38
15.578,14.98
15.593,12.97
15.609,11.16
15.625,9.24
15.640,6.86
15.656,3.77
15.671,-0.09
15.687,-4.54
15.703,-9.22
15.718,-13.73
15.734,-17.72
15.750,-21.04
15.765,-23.77
15.781,-26.24
15.796,-28.84
15.812,-31.93
15.828,-35.76
15.843,-40.32
15.859,-45.44
15.875,-50.73
15.890,-55.62
15.906,-59.38
15.921,-61.2
15.937,-60.4
15.953,-56.62
15.968,-50.09
15.984,-41.54
16.000,-32.05
16.015,-22.66
16.031,-14.1
16.046,-6.57
16.062,0.07
16.078,6.1
16.093,11.7
16.109,16.78
16.125,21.12
16.140,24.47
16.156,26.75
16.171,28.03
16.187,28.57
16.203,28.64
16.218,28.51
16.234,28.34
16.250,28.21
16.265,28.18
16.281,28.29
16.296,28.6
16.312,29.09
16.328,29.71
16.343,30.3
16.359,30.6
16.375,30.32
16.390,29.18
16.406,27.12
16.421,24.27
16.437,21.0
16.453,17.75
16.468,14.84
16.484,12.36
16.500,10.14
16.515,7.88
16.531,5.28
16.546,2.23
16.562,-1.19
16.578,-4.81
16.593,-8.5
16.609,-12.17
16.625,-15.81
16.640,-19.4
16.656,-22.89
16.671,-26.16
16.687,-29.16
16.703,-31.95
16.718,-34.8
16.734,-38.08
16.750,-42.14
16.765,-47.14
16.781,-52.83
16.796,-58.5
16.812,-63.12
16.828,-65.55
16.843,-64.9
16.859,-60.8
16.875,-53.52
16.890,-43.95
16.906,-33.24
16.921,-22.53
16.937,-12.61
16.953,-3.81
16.968,3.93
16.984,10.88
17.000,17.25
17.015,23.07
17.031,28.13
17.046,32.21
17.062,35.19
17.078,37.22
17.093,38.68
17.109,40.03
17.125,41.68
17.140,43.78
17.156,46.28
17.171,48.96
17.187,51.61
17.203,54.12
17.218,56.46
17.234,58.65
17.250,60.64
17.265,62.31
17.281,63.47
17.296,63.99
17.312,63.91
17.328,63.38
17.343,62.66
17.359,61.95
17.375,61.33
17.390,60.74
17.406,60.01
17.421,58.88
17.437,57.22
17.453,54.91
17.468,52.03
17.484,48.77
17.500,45.5
17.515,42.74
17.531,40.96
17.546,40.48
17.562,41.28
17.578,42.99
17.593,45.06
17.609,46.85
17.625,47.98
17.640,48.41
17.656,48.53
17.671,49.04
17.687,50.82
17.703,54.68
17.718,61.11
17.734,69.95
17.750,80.21
17.765,90.06
17.781,97.11
17.796,98.94
17.812,93.57
17.828,80.0
17.843,58.36
17.859,29.8
17.875,-3.77
17.890,-40.14
17.906,-77.18
17.921,-113.08
17.937,-146.37
17.953,-175.76
17.968,-199.92
17.984,-217.58
18.000,-227.7
18.015,-229.95
18.031,-224.99
18.046,-214.48
18.062,-200.71
18.078,-185.93
18.093,-171.82
18.109,-159.19
18.125,-148.12
18.140,-138.34
18.156,-129.54
18.171,-121.62
18.187,-114.58
18.203,-108.38
18.218,-102.86
18.234,-97.73
18.250,-92.69
18.265,-87.55
18.281,-82.4
18.296,-77.46
18.312,-73.1
18.328,-69.57
18.343,-66.96
18.359,-65.13
18.375,-63.78
18.390,-62.65
18.406,-61.68
18.421,-61.02
18.437,-60.96
18.453,-61.64
18.468,-62.78
18.484,-63.61
18.500,-62.95
18.515,-59.67
18.531,-53.07
18.546,-43.23
18.562,-31.02
18.578,-17.77
18.593,-4.8
18.609,6.88
18.625,16.87
18.640,25.16
18.656,31.94
18.671,37.37
18.687,41.43
18.703,44.07
18.718,45.32
18.734,45.42
18.750,44.81
18.765,44.03
18.781,43.53
18.796,43.48
18.812,43.8
18.828,44.18
18.843,44.3
18.859,43.97
18.875,43.22
18.890,42.25
18.906,41.27
18.921,40.35
18.937,39.34
18.953,37.97
18.968,35.93
18.984,33.07
19.000,29.46
19.015,25.42
19.031,21.34
19.046,17.54
19.062,14.18
19.078,11.21
19.093,8.44
19.109,5.6
19.125,2.42
19.140,-1.35
19.156,-5.94
19.171,-11.41
19.187,-17.56
19.203,-23.79
19.218,-29.13
19.234,-32.35
19.250,-32.42
19.265,-28.81
19.281,-21.78
19.296,-12.35
19.312,-1.9
19.328,8.2
19.343,17.06
19.359,24.38
19.375,30.35
19.390,35.32
19.406,39.58
19.421,43.22
19.437,46.13
19.453,48.25
19.468,49.59
19.484,50.32
19.500,50.67
19.515,50.83
19.531,50.93
19.546,50.99
19.562,51.01
19.578,50.94
19.593,50.74
19.609,50.37
19.625,49.77
19.640,48.88
19.656,47.61
19.671,45.84
19.687,43.41
19.703,40.19
19.718,36.08
19.734,31.18
19.750,25.72
19.765,20.07
19.781,14.63
19.796,9.63
19.812,5.09
19.828,0.81
19.843,-3.54
19.859,-8.3
19.875,-13.73
19.890,-19.94
19.906,-26.81
19.921,-33.98
19.937,-40.8
19.953,-46.38
19.968,-49.76
19.984,-50.13
20.000,-47.1
20.015,-40.86
20.031,-32.07
20.046,-21.75
20.062,-10.94
20.078,-0.45
20.093,9.18
20.109,17.77
20.125,25.32
20.140,31.95
20.156,37.78
20.171,42.91
20.187,47.32
20.203,50.88
20.218,53.48
20.234,55.08
20.250,55.84
20.265,56.12
20.281,56.38
20.296,57.01
20.312,58.16
20.328,59.67
20.343,61.16
20.359,62.24
20.375,62.63
20.390,62.29
20.406,61.3
20.421,59.79
20.437,57.91
20.453,55.73
20.468,53.35
20.484,50.88
20.500,48.5
20.515,46.38
20.531,44.57
20.546,43.06
20.562,41.69
20.578,40.32
20.593,38.82
20.609,37.17
20.625,35.43
20.640,33.76
20.656,32.28
20.671,31.13
20.687,30.36
20.703,29.93
20.718,29.72
20.734,29.55
20.750,29.24
20.765,28.62
20.781,27.67
20.796,26.46
20.812,25.17
20.828,24.05
20.843,23.28
20.859,22.92
20.875,22.88
20.890,22.96
20.906,22.99
20.921,22.88
20.937,22.64
20.953,22.37
20.968,22.14
20.984,21.93
21.000,21.68
21.015,21.33
21.031,20.86
21.046,20.35
21.062,19.9
21.078,19.61
21.093,19.44
21.109,19.2
21.125,18.58
21.140,17.18
21.156,14.74
21.171,11.21
21.187,6.75
21.203,1.77
21.218,-3.39
21.234,-8.52
21.250,-13.73
21.265,-19.33
21.281,-25.63
21.296,-32.72
21.312,-40.41
21.328,-48.29
21.343,-55.91
21.359,-63.02
21.375,-69.55
21.390,-75.74
21.406,-81.92
21.421,-88.46
21.437,-95.78
21.453,-104.16
21.468,-113.62
21.484,-123.59
21.500,-132.88
21.515,-139.73
21.531,-142.31
21.546,-139.37
21.562,-130.7
21.578,-117.2
21.593,-100.55
21.609,-82.67
21.625,-65.14
21.640,-49.02
21.656,-34.78
21.671,-22.56
21.687,-12.32
21.703,-3.89
21.718,2.97
21.734,8.57
21.750,13.2
21.765,17.08
21.781,20.33
21.796,23.07
21.812,25.42
21.828,27.49
21.843,29.36
21.859,30.96
21.875,32.09
21.890,32.61
21.906,32.49
21.921,31.9
21.937,31.19
21.953,30.61
21.968,30.17
21.984,29.59
22.000,28.45
22.015,26.37
22.031,23.24
22.046,19.22
22.062,14.68
22.078,10.02
22.093,5.43
22.109,0.91
22.125,-3.64
22.140,-8.36
22.156,-13.29
22.171,-18.43
22.187,-23.78
22.203,-29.4
22.218,-35.3
22.234,-41.31
22.250,-46.97
22.265,-51.48
22.281,-53.91
22.296,-53.48
22.312,-49.85
22.328,-43.27
22.343,-34.51
22.359,-24.56
22.375,-14.44
22.390,-4.83
22.406,3.87
22.421,11.51
22.437,18.06
22.453,23.43
22.468,27.52
22.484,30.22
22.500,31.57
22.515,31.81
22.531,31.36
22.546,30.69
22.562,30.16
22.578,29.96
22.593,30.01
22.609,30.11
22.625,30.01
22.640,29.53
22.656,28.65
22.671,27.46
22.687,26.07
22.703,24.6
22.718,23.04
22.734,21.31
22.750,19.22
22.765,16.64
22.781,13.53
22.796,10.0
22.812,6.25
22.828,2.48
22.843,-1.23
22.859,-4.91
22.875,-8.73
22.890,-12.88
22.906,-17.53
22.921,-22.72
22.937,-28.46
22.953,-34.58
22.968,-40.77
22.984,-46.47
23.000,-50.92
23.015,-53.24
23.031,-52.72
23.046,-49.02
23.062,-42.3
23.078,-33.24
23.093,-22.79
23.109,-11.95
23.125,-1.59
23.140,7.72
23.156,15.69
23.171,22.22
23.187,27.39
23.203,31.33
23.218,34.24
23.234,36.35
23.250,37.91
23.265,39.08
23.281,40.05
23.296,40.95
23.312,41.87
23.328,42.86
23.343,43.91
23.359,44.96
23.375,45.98
23.390,46.96
23.406,47.85
23.421,48.64
23.437,49.23
23.453,49.5
23.468,49.28
23.484,48.42
23.500,46.86
23.515,44.69
23.531,42.15
23.546,39.56
23.562,37.25
23.578,35.36
23.593,33.85
23.609,32.53
23.625,31.16
23.640,29.59
23.656,27.86
23.671,26.14
23.687,24.58
23.703,23.25
23.718,22.01
23.734,20.71
23.750,19.23
23.765,17.59
23.781,15.93
23.796,14.42
23.812,13.16
23.828,12.1
23.843,11.12
23.859,10.09
23.875,8.99
23.890,7.87
23.906,6.86
23.921,6.03
23.937,5.41
23.953,4.87
23.968,4.2
23.984,3.21
24.000,1.77
24.015,-0.11
24.031,-2.29
24.046,-4.6
24.062,-6.85
24.078,-8.98
24.093,-11.01
24.109,-13.1
24.125,-15.42
24.140,-18.12
24.156,-21.24
24.171,-24.69
24.187,-28.37
24.203,-32.11
24.218,-35.82
24.234,-39.43
24.250,-42.96
24.265,-46.52
24.281,-50.26
24.296,-54.34
24.312,-58.82
24.328,-63.69
24.343,-68.77
24.359,-73.78
24.375,-78.45
24.390,-82.62
24.406,-86.34
24.421,-89.95
24.437,-93.93
24.453,-98.75
24.468,-104.72
24.484,-111.73
24.500,-119.21
24.515,-126.11
24.531,-131.0
24.546,-132.49
24.562,-129.59
24.578,-122.06
24.593,-110.48
24.609,-96.15
24.625,-80.65
24.640,-65.39
24.656,-51.3
24.671,-38.74
24.687,-27.64
24.703,-17.72
24.718,-8.83
24.734,-0.94
24.750,5.86
24.765,11.5
24.781,16.09
24.796,19.86
24.812,23.16
24.828,26.27
24.843,29.35
24.859,32.32
24.875,35.0
24.890,37.14
24.906,38.61
24.921,39.47
24.937,39.91
24.953,40.15
24.968,40.38
24.984,40.57
25.000,40.53
25.015,39.9
25.031,38.36
25.046,35.71
25.062,32.05
25.078,27.71
25.093,23.18
25.109,18.86
25.125,14.95
25.140,11.43
25.156,8.05
25.171,4.46
25.187,0.4
25.203,-4.33
25.218,-9.75
25.234,-15.67
25.250,-21.59
25.265,-26.75
25.281,-30.22
25.296,-31.11
25.312,-28.95
25.328,-23.78
25.343,-16.19
25.359,-7.17
25.375,2.29
25.390,11.36
25.406,19.56
25.421,26.69
25.437,32.75
25.453,37.69
25.468,41.45
25.484,43.94
25.500,45.15
25.515,45.28
25.531,44.68
25.546,43.81
25.562,43.08
25.578,42.66
25.593,42.48
25.609,42.32
25.625,41.93
25.640,41.14
25.656,39.97
25.671,38.48
25.687,36.76
25.703,34.77
25.718,32.44
25.734,29.69
25.750,26.45
25.765,22.77
25.781,18.71
25.796,14.44
25.812,10.11
25.828,5.94
25.843,2.05
25.859,-1.48
25.875,-4.75
25.890,-7.97
25.906,-11.41
25.921,-15.37
25.937,-19.92
25.953,-25.04
25.968,-30.37
25.984,-35.27
26.000,-38.89
26.015,-40.28
26.031,-38.72
26.046,-33.93
26.062,-26.24
26.078,-16.52
26.093,-5.97
26.109,4.36
26.125,13.75
26.140,21.98
26.156,29.13
26.171,35.4
26.187,40.89
26.203,45.57
26.218,49.31
26.234,52.03
26.250,53.73
26.265,54.58
26.281,54.82
26.296,54.75
26.312,54.61
26.328,54.6
26.343,54.77
26.359,55.12
26.375,55.57
26.390,56.01
26.406,56.34
26.421,56.48
26.437,56.37
26.453,55.89
26.468,54.98
26.484,53.58
26.500,51.71
26.515,49.47
26.531,47.01
26.546,44.51
26.562,42.09
26.578,39.86
26.593,37.9
26.609,36.2
26.625,34.73
26.640,33.42
26.656,32.18
26.671,30.91
26.687,29.58
26.703,28.19
26.718,26.79
26.734,25.47
26.750,24.28
26.765,23.31
26.781,22.56
26.796,22.01
26.812,21.57
26.828,21.13
26.843,20.58
26.859,19.95
26.875,19.39
26.890,19.18
26.906,19.55
26.921,20.53
26.937,21.87
26.953,23.09
26.968,23.69
26.984,23.43
27.000,22.42
27.015,20.92
27.031,18.97
27.046,16.32
27.062,12.51
27.078,7.24
27.093,0.58
27.109,-7.04
27.125,-15.14
27.140,-23.37
27.156,-31.61
27.171,-39.64
27.187,-46.9
27.203,-52.41
27.218,-55.18
27.234,-54.65
27.250,-51.02
27.265,-45.08
27.281,-37.83
27.296,-30.1
27.312,-22.51
27.328,-15.42
27.343,-9.11
27.359,-3.65
27.375,1.26
27.390,6.23
27.406,11.83
27.421,17.9
27.437,23.43
27.453,26.88
27.468,26.98
27.484,23.52
27.500,17.54
27.515,10.86
27.531,5.25
27.546,1.66
27.562,0.23
27.578,0.63
27.593,2.58
27.609,5.81
27.625,9.91
27.640,13.91
27.656,16.25
27.671,15.17
27.687,9.48
27.703,-0.82
27.718,-14.28
27.734,-28.37
27.750,-40.49
27.765,-48.91
27.781,-53.42
27.796,-55.35
27.812,-56.86
27.828,-59.76
27.843,-64.69
27.859,-70.79
27.875,-76.29
27.890,-79.48
27.906,-79.51
27.921,-76.53
27.937,-71.27
27.953,-64.27
27.968,-55.53
27.984,-44.64
28.000,-31.4
28.015,-16.41
28.031,-1.07
28.046,12.87
28.062,24.01
28.078,31.78
28.093,36.46
28.109,38.84
28.125,39.78
28.140,39.8
28.156,39.01
28.171,37.05
28.187,33.33
28.203,27.14
28.218,17.95
28.234,5.72
28.250,-8.94
28.265,-24.79
28.281,-40.15
28.296,-53.27
28.312,-62.84
28.328,-68.23
28.343,-69.58
28.359,-67.63
28.375,-63.32
28.390,-57.57
28.406,-51.07
28.421,-44.36
28.437,-37.91
28.453,-32.3
28.468,-28.2
28.484,-26.17
28.500,-26.46
28.515,-28.8
28.531,-32.48
28.546,-36.47
28.562,-39.76
28.578,-41.67
28.593,-42.02
28.609,-41.13
28.625,-39.64
28.640,-38.24
28.656,-37.33
28.671,-36.96
28.687,-36.81
28.703,-36.41
28.718,-35.51
28.734,-34.2
28.750,-33.03
28.765,-32.65
28.781,-33.57
28.796,-35.79
28.812,-38.86
28.828,-42.06
28.843,-44.74
28.859,-46.6
28.875,-47.74
28.890,-48.61
28.906,-49.82
28.921,-52.02
28.937,-55.87
28.953,-61.88
28.968,-70.18
28.984,-79.97
29.000,-89.27
29.015,-94.97
29.031,-93.68
29.046,-82.89
29.062,-62.0
29.078,-32.74
29.093,1.41
29.109,36.43
29.125,69.09
29.140,97.61
29.156,121.53
29.171,140.96
29.187,155.81
29.203,165.64
29.218,170.01
29.234,169.31
29.250,165.07
29.265,159.7
29.281,155.67
29.296,154.56
29.312,156.55
29.328,160.6
29.343,165.24
29.359,169.42
29.375,173.13
29.390,177.4
29.406,183.54
29.421,192.16
29.437,202.47
29.453,212.12
29.468,218.0
29.484,217.33
29.500,208.81
29.515,193.05
29.531,172.14
29.546,148.5
29.562,123.87
29.578,98.84
29.593,73.22
29.609,46.84
29.625,20.36
29.640,-4.75
29.656,-26.77
29.671,-44.56
29.687,-58.11
29.703,-68.3
29.718,-76.39
29.734,-83.17
29.750,-88.81
29.765,-93.0
29.781,-95.49
29.796,-96.49
29.812,-96.61
29.828,-96.46
29.843,-96.34
29.859,-96.06
29.875,-95.15
29.890,-93.29
29.906,-90.6
29.921,-87.68
29.937,-85.25
29.953,-83.78
29.968,-83.33
29.984,-83.49
30.000,-83.81
30.015,-83.91
30.031,-83.65
30.046,-82.91
30.062,-81.43
30.078,-78.73
30.093,-74.31
30.109,-68.04
30.125,-60.4
30.140,-52.42
30.156,-45.25
30.171,-39.68
30.187,-35.86
30.203,-33.3
30.218,-31.32
30.234,-29.42
30.250,-27.54
30.265,-25.97
30.281,-25.01
30.296,-24.85
30.312,-25.47
30.328,-26.88
30.343,-29.27
30.359,-32.98
30.375,-38.2
30.390,-44.58
30.406,-51.11
30.421,-56.21
30.437,-58.32
30.453,-56.37
30.468,-50.25
30.484,-40.82
30.500,-29.66
30.515,-18.58
30.531,-9.17
30.546,-2.57
30.562,0.7
30.578,0.78
30.593,-1.54
30.609,-4.91
30.625,-7.76
30.640,-8.77
30.656,-7.32
30.671,-3.73
30.687,0.91
30.703,5.29
30.718,8.36
30.734,9.66
30.750,9.34
30.765,7.87
30.781,5.8
30.796,3.55
30.812,1.42
30.828,-0.3
30.843,-1.25
30.859,-0.96
30.875,1.04
30.890,5.07
30.906,11.07
30.921,18.55
30.937,26.54
30.953,33.74
30.968,38.88
30.984,41.06
31.000,39.97
31.015,35.96
31.031,29.8
31.046,22.5
31.062,15.29
31.078,9.42
31.093,6.12
31.109,6.27
31.125,10.07
31.140,16.92
31.156,25.47
31.171,34.21
31.187,42.08
31.203,48.93
31.218,55.51
31.234,62.94
31.250,72.01
31.265,82.49
31.281,93.04
31.296,101.59
31.312,106.04
31.328,104.99
31.343,98.1
31.359,86.1
31.375,70.42
31.390,52.69
31.406,34.36
31.421,16.53
31.437,0.07
31.453,-14.32
31.468,-26.08
31.484,-34.89
31.500,-40.89
31.515,-44.71
31.531,-47.36
31.546,-49.96
31.562,-53.33
31.578,-57.87
31.593,-63.38
31.609,-69.36
31.625,-75.23
31.640,-80.66
31.656,-85.69
31.671,-90.66
31.687,-96.01
31.703,-101.96
31.718,-108.35
31.734,-114.5
31.750,-119.33
31.765,-121.67
31.781,-120.58
31.796,-115.74
31.812,-107.57
31.828,-97.1
31.843,-85.72
31.859,-74.64
31.875,-64.66
31.890,-56.01
31.906,-48.46
31.921,-41.62
31.937,-35.25
31.953,-29.43
31.968,-24.57
31.984,-21.22
32.000,-19.68
32.015,-19.79
32.031,-20.91
32.046,-22.14
32.062,-22.79
32.078,-22.64
32.093,-22.05
32.109,-21.74
32.125,-22.38
32.140,-24.2
32.156,-26.95
32.171,-29.96
32.187,-32.4
32.203,-33.51
32.218,-32.71
32.234,-29.85
32.250,-25.42
32.265,-20.7
32.281,-17.67
32.296,-18.48
32.312,-24.68
32.328,-36.45
32.343,-52.54
32.359,-70.52
32.375,-87.59
32.390,-101.37
32.406,-110.15
32.421,-112.97
32.437,-109.32
32.453,-99.15
32.468,-82.95
32.484,-62.12
32.500,-38.95
32.515,-16.28
32.531,3.16
32.546,17.45
32.562,25.71
32.578,28.05
32.593,25.12
32.609,17.88
32.625,7.41
32.640,-4.86
32.656,-17.11
32.671,-27.26
32.687,-33.38
32.703,-34.23
32.718,-29.69
32.734,-20.82
32.750,-9.52
32.765,2.05
32.781,12.09
32.796,19.44
32.812,23.72
32.828,25.23
32.843,24.59
32.859,22.57
32.875,19.84
32.890,16.95
32.906,14.25
32.921,11.78
32.937,9.26
32.953,6.1
32.968,1.54
32.984,-5.01
33.000,-13.8
33.015,-24.48
33.031,-36.09
33.046,-47.24
33.062,-56.34
33.078,-61.95
33.093,-63.06
33.109,-59.29
33.125,-50.96
33.140,-39.0
33.156,-24.83
33.171,-9.95
33.187,4.23
33.203,16.71
33.218,26.93
33.234,34.8
33.250,40.6
33.265,44.81
33.281,47.94
33.296,50.38
33.312,52.32
33.328,53.75
33.343,54.55
33.359,54.68
33.375,54.14
33.390,53.03
33.406,51.54
33.421,49.82
33.437,48.08
33.453,46.56
33.468,45.54
33.484,45.2
33.500,45.56
33.515,46.4
33.531,47.25
33.546,47.57
33.562,46.96
33.578,45.28
33.593,42.7
33.609,39.55
33.625,36.14
33.640,32.65
33.656,29.07
33.671,25.2
33.687,20.77
33.703,15.58
33.718,9.58
33.734,2.9
33.750,-3.97
33.765,-10.27
33.781,-15.02
33.796,-17.18
33.812,-15.94
33.828,-11.01
33.843,-2.72
33.859,8.07
33.875,20.19
33.890,32.5
33.906,44.19
33.921,54.81
33.937,64.24
33.953,72.5
33.968,79.52
33.984,85.08
34.000,88.78
34.015,90.28
34.031,89.47
34.046,86.7
34.062,82.7
34.078,78.41
34.093,74.73
34.109,72.18
34.125,70.85
34.140,70.44
34.156,70.56
34.171,70.81
34.187,70.97
34.203,70.92
34.218,70.64
34.234,70.0
34.250,68.84
34.265,66.93
34.281,64.09
34.296,60.18
34.312,55.08
34.328,48.68
34.343,40.86
34.359,31.61
34.375,21.1
34.390,9.73
34.406,-1.91
34.421,-13.18
34.437,-23.67
34.453,-33.36
34.468,-42.62
34.484,-52.06
34.500,-62.13
34.515,-72.69
34.531,-82.91
34.546,-91.35
34.562,-96.53
34.578,-97.37
34.593,-93.69
34.609,-86.18
34.625,-76.08
34.640,-64.62
34.656,-52.63
34.671,-40.44
34.687,-28.12
34.703,-15.87
34.718,-4.23
34.734,5.99
34.750,14.07
34.765,19.76
34.781,23.44
34.796,25.97
34.812,28.31
34.828,31.13
34.843,34.58
34.859,38.3
34.875,41.66
34.890,44.13
34.906,45.42
34.921,45.6
34.937,45.03
34.953,44.16
34.968,43.38
34.984,42.76
35.000,42.12
35.015,41.03
35.031,39.07
35.046,36.03
35.062,31.97
35.078,27.3
35.093,22.51
35.109,17.98
35.125,13.83
35.140,9.9
35.156,5.84
35.171,1.34
35.187,-3.75
35.203,-9.31
35.218,-15.01
35.234,-20.4
35.250,-24.97
35.265,-28.25
35.281,-29.76
35.296,-29.12
35.312,-26.11
35.328,-20.73
35.343,-13.38
35.359,-4.8
35.375,4.03
35.390,12.15
35.406,18.89
35.421,24.05
35.437,27.9
35.453,30.94
35.468,33.59
35.484,36.02
35.500,38.05
35.515,39.3
35.531,39.47
35.546,38.42
35.562,36.33
35.578,33.53
35.593,30.35
35.609,27.01
35.625,23.7
35.640,20.64
35.656,18.2
35.671,16.83
35.687,16.89
35.703,18.42
35.718,21.12
35.734,24.36
35.750,27.4
35.765,29.61
35.781,30.63
35.796,30.36
35.812,28.87
35.828,26.29
35.843,22.75
35.859,18.42
35.875,13.56
35.890,8.52
35.906,3.69
35.921,-0.65
35.937,-4.45
35.953,-7.97
35.968,-11.63
35.984,-15.86
36.000,-20.78
36.015,-26.07
36.031,-30.92
36.046,-34.32
36.062,-35.3
36.078,-33.32
36.093,-28.41
36.109,-21.14
36.125,-12.52
36.140,-3.6
36.156,4.72
36.171,11.92
36.187,17.88
36.203,22.74
36.218,26.78
36.234,30.2
36.250,32.95
36.265,34.7
36.281,34.96
36.296,33.34
36.312,29.71
36.328,24.38
36.343,17.98
36.359,11.29
36.375,5.0
36.390,-0.33
36.406,-4.31
36.421,-6.48
36.437,-6.4
36.453,-3.72
36.468,1.59
36.484,9.09
36.500,17.94
36.515,27.09
36.531,35.61
36.546,42.87
36.562,48.58
36.578,52.67
36.593,55.15
36.609,56.12
36.625,55.71
36.640,54.17
36.656,51.81
36.671,48.88
36.687,45.56
36.703,41.89
36.718,37.9
36.734,33.53
36.750,28.77
36.765,23.52
36.781,17.66
36.796,11.02
36.812,3.57
36.828,-4.54
36.843,-12.85
36.859,-20.6
36.875,-26.9
36.890,-30.91
36.906,-32.09
36.921,-30.42
36.937,-26.31
36.953,-20.47
36.968,-13.8
36.984,-7.06
37.000,-0.76
37.015,4.79
37.031,9.5
37.046,13.44
37.062,16.67
37.078,19.29
37.093,21.4
37.109,23.09
37.125,24.4
37.140,25.42
37.156,26.19
37.171,26.75
37.187,27.16
37.203,27.47
37.218,27.79
37.234,28.35
37.250,29.48
37.265,31.43
37.281,34.18
37.296,37.17
37.312,39.39
37.328,39.61
37.343,36.86
37.359,30.84
37.375,22.07
37.390,11.65
37.406,0.83
37.421,-9.42
37.437,-18.7
37.453,-27.1
37.468,-34.9
37.484,-42.36
37.500,-49.52
37.515,-56.24
37.531,-62.39
37.546,-67.92
37.562,-73.03
37.578,-78.05
37.593,-83.37
37.609,-89.32
37.625,-96.01
37.640,-103.34
37.656,-110.86
37.671,-117.86
37.687,-123.34
37.703,-126.13
37.718,-125.15
37.734,-119.72
37.750,-109.77
37.765,-95.99
37.781,-79.56
37.796,-61.87
37.812,-44.16
37.828,-27.26
37.843,-11.64
37.859,2.44
37.875,14.84
37.890,25.42
37.906,34.13
37.921,41.07
37.937,46.52
37.953,50.85
37.968,54.41
37.984,57.4
38.000,59.78
38.015,61.4
38.031,61.97
38.046,61.33
38.062,59.47
38.078,56.52
38.093,52.75
38.109,48.39
38.125,43.58
38.140,38.26
38.156,32.25
38.171,25.36
38.187,17.54
38.203,8.93
38.218,-0.22
38.234,-9.61
38.250,-19.06
38.265,-28.49
38.281,-37.84
38.296,-46.95
38.312,-55.51
38.328,-63.03
38.343,-69.1
38.359,-73.46
38.375,-76.14
38.390,-77.53
38.406,-78.12
38.421,-78.41
38.437,-78.77
38.453,-79.39
38.468,-80.26
38.484,-81.28
38.500,-82.1
38.515,-82.17
38.531,-80.82
38.546,-77.45
38.562,-71.79
38.578,-63.95
38.593,-54.48
38.609,-44.09
38.625,-33.47
38.640,-23.04
38.656,-13.0
38.671,-3.51
38.687,5.22
38.703,12.8
38.718,18.79
38.734,22.92
38.750,25.21
38.765,26.09
38.781,26.28
38.796,26.62
38.812,27.74
38.828,29.9
38.843,32.74
38.859,35.3
38.875,36.33
38.890,34.66
38.906,29.7
38.921,21.76
38.937,12.0
38.953,2.08
38.968,-6.42
38.984,-12.51
39.000,-15.99
39.015,-17.4
39.031,-17.68
39.046,-17.78
39.062,-18.37
39.078,-19.85
39.093,-22.26
39.109,-25.49
39.125,-29.36
39.140,-33.63
39.156,-37.96
39.171,-41.98
39.187,-45.34
39.203,-47.82
39.218,-49.44
39.234,-50.53
39.250,-51.57
39.265,-52.98
39.281,-54.84
39.296,-56.7
39.312,-57.68
39.328,-56.68
39.343,-52.83
39.359,-45.73
39.375,-35.66
39.390,-23.45
39.406,-10.3
39.421,2.54
39.437,14.11
39.453,23.84
39.468,31.67
39.484,37.91
39.500,43.02
39.515,47.4
39.531,51.17
39.546,54.17
39.562,56.09
39.578,56.53
39.593,55.28
39.609,52.38
39.625,48.18
39.640,43.27
39.656,38.37
39.671,34.17
39.687,31.13
39.703,29.41
39.718,28.78
39.734,28.83
39.750,29.02
39.765,28.85
39.781,28.04
39.796,26.44
39.812,24.08
39.828,21.06
39.843,17.58
39.859,13.79
39.875,9.87
39.890,5.93
39.906,2.0
39.921,-1.9
39.937,-5.86
39.953,-9.96
39.968,-14.28
39.984,-18.8
40.000,-23.51
40.015,-28.33
40.031,-33.28
40.046,-38.51
40.062,-44.18
40.078,-50.35
40.093,-56.71
40.109,-62.52
40.125,-66.68
40.140,-68.15
40.156,-66.24
40.171,-61.0
40.187,-53.17
40.203,-43.99
40.218,-34.8
40.234,-26.74
40.250,-20.55
40.265,-16.55
40.281,-14.69
40.296,-14.65
40.312,-15.84
40.328,-17.57
40.343,-19.13
40.359,-19.89
40.375,-19.47
40.390,-17.63
40.406,-14.33
40.421,-9.66
40.437,-3.91
40.453,2.47
40.468,8.85
40.484,14.5
40.500,18.8
40.515,21.36
40.531,22.1
40.546,21.27
40.562,19.3
40.578,16.71
40.593,13.99
40.609,11.55
40.625,9.71
40.640,8.67
40.656,8.42
40.671,8.81
40.687,9.52
40.703,10.19
40.718,10.58
40.734,10.62
40.750,10.44
40.765,10.33
40.781,10.59
40.796,11.44
40.812,12.98
40.828,15.1
40.843,17.55
40.859,20.13
40.875,22.75
40.890,25.58
40.906,29.0
40.921,33.44
40.937,39.21
40.953,46.27
40.968,54.16
40.984,62.12
41.000,69.31
41.015,75.1
41.031,79.17
41.046,81.56
41.062,82.53
41.078,82.41
41.093,81.42
41.109,79.73
41.125,77.34
41.140,74.3
41.156,70.65
41.171,66.52
41.187,62.12
41.203,57.7
41.218,53.55
41.234,49.94
41.250,47.02
41.265,44.86
41.281,43.42
41.296,42.54
41.312,42.03
41.328,41.68
41.343,41.3
41.359,40.79
41.375,40.18
41.390,39.48
41.406,38.59
41.421,37.13
41.437,34.38
41.453,29.35
41.468,21.01
41.484,8.64
41.500,-8.04
41.515,-28.64
41.531,-52.12
41.546,-76.78
41.562,-100.49
41.578,-120.96
41.593,-136.18
41.609,-144.98
41.625,-147.34
41.640,-144.37
41.656,-137.83
41.671,-129.48
41.687,-120.54
41.703,-111.49
41.718,-102.31
41.734,-92.92
41.750,-83.46
41.765,-74.39
41.781,-66.11
41.796,-58.72
41.812,-51.83
41.828,-44.73
41.843,-36.78
41.859,-27.75
41.875,-17.94
41.890,-8.07
41.906,1.1
41.921,9.01
41.937,15.59
41.953,21.13
41.968,26.06
41.984,30.66
42.000,35.02
42.015,39.05
42.031,42.74
42.046,46.29
42.062,49.95
42.078,53.85
42.093,57.71
42.109,60.91
42.125,62.63
42.140,62.37
42.156,60.12
42.171,56.4
42.187,52.01
42.203,47.6
42.218,43.42
42.234,39.35
42.250,35.15
42.265,30.74
42.281,26.3
42.296,22.25
42.312,18.95
42.328,16.56
42.343,14.95
42.359,13.83
42.375,12.95
42.390,12.2
42.406,11.73
42.421,11.84
42.437,13.0
42.453,15.7
42.468,20.34
42.484,27.15
42.500,36.04
42.515,46.54
42.531,57.91
42.546,69.34
42.562,80.17
42.578,90.04
42.593,98.87
42.609,106.69
42.625,113.49
42.640,119.17
42.656,123.57
42.671,126.51
42.687,127.86
42.703,127.56
42.718,125.53
42.734,121.7
42.750,116.09
42.765,108.99
42.781,100.91
42.796,92.54
42.812,84.58
42.828,77.41
42.843,71.07
42.859,65.29
42.875,59.7
42.890,54.04
42.906,48.33
42.921,42.9
42.937,38.27
42.953,35.04
42.968,33.63
42.984,34.13
43.000,36.07
43.015,38.31
43.031,39.25
43.046,37.18
43.062,30.75
43.078,19.47
43.093,3.86
43.109,-14.66
43.125,-34.12
43.140,-52.43
43.156,-67.76
43.171,-78.83
43.187,-85.11
43.203,-86.86
43.218,-85.04
43.234,-80.87
43.250,-75.42
43.265,-69.21
43.281,-62.07
43.296,-53.67
43.312,-44.03
43.328,-33.98
43.343,-25.18
43.359,-19.38
43.375,-17.67
43.390,-19.92
43.406,-24.84
43.421,-30.56
43.437,-35.61
43.453,-39.45
43.468,-42.55
43.484,-45.83
43.500,-49.76
43.515,-53.85
43.531,-56.58
43.546,-56.03
43.562,-50.85
43.578,-41.06
43.593,-28.17
43.609,-14.7
43.625,-3.22
43.640,4.54
43.656,8.03
43.671,7.81
43.687,5.0
43.703,0.85
43.718,-3.63
43.734,-7.57
43.750,-10.23
43.765,-11.03
43.781,-9.67
43.796,-6.19
43.812,-1.02
43.828,5.11
43.843,11.45
43.859,17.27
43.875,22.09
43.890,25.66
43.906,28.05
43.921,29.61
43.937,30.83
43.953,32.08
43.968,33.32
43.984,34.08
44.000,33.53
44.015,31.0
44.031,26.39
44.046,20.4
44.062,14.38
44.078,9.79
44.093,7.55
44.109,7.69
44.125,9.42
44.140,11.52
44.156,13.05
44.171,13.62
44.187,13.44
44.203,13.01
44.218,12.8
44.234,13.05
44.250,13.77
44.265,14.95
44.281,16.57
44.296,18.73
44.312,21.48
44.328,24.8
44.343,28.66
44.359,33.0
44.375,37.75
44.390,42.63
44.406,47.03
44.421,49.97
44.437,50.39
44.453,47.57
44.468,41.42
44.484,32.64
44.500,22.47
44.515,12.4
44.531,3.7
44.546,-2.83
44.562,-6.95
44.578,-8.98
44.593,-9.57
44.609,-9.45
44.625,-9.11
44.640,-8.5
44.656,-6.89
44.671,-3.14
44.687,4.02
44.703,15.46
44.718,31.24
44.734,50.38
44.750,70.94
44.765,90.19
44.781,105.12
44.796,112.98
44.812,111.87
44.828,101.26
44.843,82.0
44.859,56.07
44.875,25.92
44.890,-6.28
44.906,-39.07
44.921,-71.45
44.937,-102.46
44.953,-130.82
44.968,-155.04
44.984,-174.1
45.000,-187.93
45.015,-197.47
45.031,-204.14
45.046,-208.9
45.062,-211.81
45.078,-212.2
45.093,-209.4
45.109,-203.51
45.125,-195.61
45.140,-187.21
45.156,-179.28
45.171,-171.75
45.187,-163.51
45.203,-153.29
45.218,-140.43
45.234,-125.41
45.250,-109.49
45.265,-94.15
45.281,-80.46
45.296,-68.88
45.312,-59.38
45.328,-51.67
45.343,-45.45
45.359,-40.46
45.375,-36.45
45.390,-33.08
45.406,-29.98
45.421,-26.83
45.437,-23.48
45.453,-20.04
45.468,-16.8
45.484,-14.11
45.500,-12.23
45.515,-11.21
45.531,-10.88
45.546,-10.91
45.562,-11.0
45.578,-10.88
45.593,-10.43
45.609,-9.67
45.625,-8.75
45.640,-7.97
45.656,-7.65
45.671,-8.15
45.687,-9.57
45.703,-11.77
45.718,-14.33
45.734,-16.72
45.750,-18.52
45.765,-19.65
45.781,-20.34
45.796,-20.96
45.812,-21.89
45.828,-23.28
45.843,-25.15
45.859,-27.39
45.875,-30.0
45.890,-33.01
45.906,-36.46
45.921,-40.29
45.937,-44.26
45.953,-48.11
45.968,-51.61
45.984,-54.74
46.000,-57.77
46.015,-61.17
46.031,-65.42
46.046,-70.75
46.062,-76.93
46.078,-83.08
46.093,-87.9
46.109,-89.9
46.125,-87.93
46.140,-81.58
46.156,-71.32
46.171,-58.4
46.187,-44.32
46.203,-30.5
46.218,-17.86
46.234,-6.84
46.250,2.55
46.265,10.46
46.281,17.06
46.296,22.42
46.312,26.55
46.328,29.53
46.343,31.48
46.359,32.71
46.375,33.57
46.390,34.38
46.406,35.37
46.421,36.58
46.437,37.92
46.453,39.18
46.468,40.2
46.484,40.87
46.500,41.13
46.515,40.92
46.531,40.18
46.546,38.83
46.562,36.83
46.578,34.22
46.593,31.12
46.609,27.65
46.625,23.93
46.640,20.03
46.656,16.01
46.671,11.99
46.687,8.1
46.703,4.42
46.718,0.92
46.734,-2.64
46.750,-6.6
46.765,-11.31
46.781,-16.93
46.796,-23.22
46.812,-29.54
46.828,-34.84
46.843,-38.02
46.859,-38.17
46.875,-34.93
46.890,-28.58
46.906,-19.92
46.921,-9.99
46.937,0.3
46.953,10.3
46.968,19.66
46.984,28.15
47.000,35.55
47.015,41.51
47.031,45.76
47.046,48.15
47.062,48.87
47.078,48.35
47.093,47.15
47.109,45.76
47.125,44.42
47.140,43.18
47.156,41.89
47.171,40.41
47.187,38.64
47.203,36.59
47.218,34.35
47.234,32.11
47.250,29.98
47.265,28.03
47.281,26.16
47.296,24.13
47.312,21.61
47.328,18.32
47.343,14.1
47.359,9.1
47.375,3.68
47.390,-1.69
47.406,-6.62
47.421,-10.97
47.437,-14.89
47.453,-18.77
47.468,-23.1
47.484,-28.24
47.500,-34.26
47.515,-40.78
47.531,-46.99
47.546,-51.83
47.562,-54.15
47.578,-53.08
47.593,-48.26
47.609,-39.91
47.625,-28.83
47.640,-16.11
47.656,-2.92
47.671,9.76
47.687,21.25
47.703,31.25
47.718,39.71
47.734,46.72
47.750,52.35
47.765,56.65
47.781,59.6
47.796,61.22
47.812,61.7
47.828,61.37
47.843,60.68
47.859,60.01
47.875,59.6
47.890,59.49
47.906,59.6
47.921,59.82
47.937,60.12
47.953,60.55
47.968,61.15
47.984,61.82
48.000,62.31
48.015,62.31
48.031,61.57
48.046,60.11
48.062,58.15
48.078,56.05
48.093,54.16
48.109,52.63
48.125,51.38
48.140,50.21
48.156,48.91
48.171,47.39
48.187,45.69
48.203,43.97
48.218,42.39
48.234,41.1
48.250,40.16
48.265,39.53
48.281,39.11
48.296,38.72
48.312,38.23
48.328,37.62
48.343,36.95
48.359,36.39
48.375,36.07
48.390,35.97
48.406,35.94
48.421,35.76
48.437,35.26
48.453,34.4
48.468,33.35
48.484,32.36
48.500,31.68
48.515,31.43
48.531,31.59
48.546,31.88
48.562,31.89
48.578,31.09
48.593,28.94
48.609,24.96
48.625,18.86
48.640,10.65
48.656,0.66
48.671,-10.5
48.687,-22.04
48.703,-33.09
48.718,-43.01
48.734,-51.43
48.750,-58.34
48.765,-64.08
48.781,-69.13
48.796,-73.93
48.812,-78.86
48.828,-84.09
48.843,-89.73
48.859,-95.86
48.875,-102.54
48.890,-109.63
48.906,-116.63
48.921,-122.58
48.937,-126.11
48.953,-125.91
48.968,-121.1
48.984,-111.65
49.000,-98.41
49.015,-82.92
49.031,-66.84
49.046,-51.52
49.062,-37.75
49.078,-25.8
49.093,-15.68
49.109,-7.38
49.125,-0.93
49.140,3.63
49.156,6.47
49.171,7.98
49.187,8.76
49.203,9.43
49.218,10.38
49.234,11.7
49.250,13.22
49.265,14.68
49.281,15.87
49.296,16.78
49.312,17.56
49.328,18.34
49.343,19.16
49.359,19.85
49.375,20.08
49.390,19.53
49.406,18.08
49.421,15.85
49.437,13.15
49.453,10.37
49.468,7.73
49.484,5.19
49.500,2.5
49.515,-0.7
49.531,-4.73
49.546,-9.69
49.562,-15.35
49.578,-21.14
49.593,-26.15
49.609,-29.36
49.625,-29.86
49.640,-27.16
49.656,-21.38
49.671,-13.22
49.687,-3.71
49.703,6.19
49.718,15.82
49.734,24.97
49.750,33.66
49.765,41.89
49.781,49.33
49.796,55.46
49.812,59.69
49.828,61.76
49.843,61.99
49.859,61.25
49.875,60.67
49.890,61.24
49.906,63.36
49.921,66.67
49.937,70.24
49.953,72.89
49.968,73.73
49.984,72.54
50.000,70.0
50.015,67.43
50.031,66.53
50.046,68.63
50.062,74.12
50.078,81.88
50.093,89.27
50.109,92.48
50.125,87.44
50.140,70.95
50.156,41.81
50.171,1.6
50.187,-45.33
50.203,-92.64
50.218,-133.68
50.234,-163.18
50.250,-178.53
50.265,-180.03
50.281,-170.37
50.296,-153.49
50.312,-133.59
50.328,-114.58
50.343,-99.77
50.359,-91.71
50.375,-91.81
50.390,-99.89
50.406,-113.91
50.421,-130.23
50.437,-144.59
50.453,-153.34
50.468,-154.65
50.484,-148.82
50.500,-137.91
50.515,-124.71
50.531,-111.67
50.546,-100.07
50.562,-89.82
50.578,-79.69
50.593,-67.99
50.609,-53.3
50.625,-35.13
50.640,-14.14
50.656,7.93
50.671,28.94
50.687,47.0
50.703,61.06
50.718,71.11
50.734,77.91
50.750,82.51
50.765,85.67
50.781,87.51
50.796,87.63
50.812,85.52
50.828,80.98
50.843,74.3
50.859,66.17
50.875,57.35
50.890,48.41
50.906,39.69
50.921,31.35
50.937,23.63
50.953,16.89
50.968,11.64
50.984,8.27
51.000,7.01
51.015,7.63
51.031,9.56
51.046,12.0
51.062,14.22
51.078,15.76
51.093,16.63
51.109,17.17
51.125,17.83
51.140,18.95
51.156,20.55
51.171,22.25
51.187,23.57
51.203,24.13
51.218,23.92
51.234,23.33
51.250,23.02
51.265,23.65
51.281,25.61
51.296,28.91
51.312,33.22
51.328,38.01
51.343,42.75
51.359,47.06
51.375,50.71
51.390,53.64
51.406,55.83
51.421,57.22
51.437,57.7
51.453,57.18
51.468,55.65
51.484,53.24
51.500,50.25
51.515,47.08
51.531,44.08
51.546,41.45
51.562,39.16
51.578,36.96
51.593,34.67
51.609,32.19
51.625,29.63
51.640,27.25
51.656,25.28
51.671,23.75
51.687,22.47
51.703,21.08
51.718,19.29
51.734,17.03
51.750,14.61
51.765,12.6
51.781,11.56
51.796,11.87
51.812,13.45
51.828,15.87
51.843,18.48
51.859,20.61
51.875,21.71
51.890,21.41
51.906,19.47
51.921,15.76
51.937,10.4
51.953,3.82
51.968,-3.28
51.984,-10.05
52.000,-15.81
52.015,-20.24
52.031,-23.49
52.046,-25.96
52.062,-28.13
52.078,-30.38
52.093,-32.94
52.109,-35.99
52.125,-39.69
52.140,-44.16
52.156,-49.52
52.171,-55.81
52.187,-63.05
52.203,-71.16
52.218,-79.84
52.234,-88.5
52.250,-96.25
52.265,-102.12
52.281,-105.47
52.296,-106.22
52.312,-104.8
52.328,-101.81
52.343,-97.53
52.359,-91.68
52.375,-83.64
52.390,-73.01
52.406,-60.04
52.421,-45.75
52.437,-31.63
52.453,-18.95
52.468,-8.34
52.484,0.34
52.500,7.67
52.515,14.21
52.531,20.12
52.546,25.12
52.562,28.72
52.578,30.56
52.593,30.66
52.609,29.44
52.625,27.61
52.640,25.88
52.656,24.66
52.671,23.99
52.687,23.59
52.703,23.13
52.718,22.41
52.734,21.56
52.750,20.87
52.765,20.56
52.781,20.49
52.796,20.18
52.812,19.03
52.828,16.73
52.843,13.5
52.859,10.04
52.875,7.15
52.890,5.32
52.906,4.51
52.921,4.23
52.937,3.83
52.953,2.81
52.968,0.92
52.984,-1.99
53.000,-5.91
53.015,-10.67
53.031,-15.68
53.046,-19.99
53.062,-22.55
53.078,-22.82
53.093,-21.3
53.109,-19.54
53.125,-19.43
53.140,-22.18
53.156,-27.44
53.171,-33.38
53.187,-37.56
53.203,-38.15
53.218,-34.89
53.234,-29.17
53.250,-23.22
53.265,-18.93
53.281,-17.04
53.296,-17.0
53.312,-17.55
53.328,-17.55
53.343,-16.56
53.359,-14.94
53.375,-13.42
53.390,-12.57
53.406,-12.49
53.421,-12.74
53.437,-12.66
53.453,-11.66
53.468,-9.57
53.484,-6.67
53.500,-3.53
53.515,-0.74
53.531,1.35
53.546,2.63
53.562,3.13
53.578,2.82
53.593,1.48
53.609,-1.21
53.625,-5.4
53.640,-10.96
53.656,-17.25
53.671,-23.26
53.687,-27.89
53.703,-30.31
53.718,-30.19
53.734,-27.67
53.750,-23.19
53.765,-17.19
53.781,-10.0
53.796,-1.82
53.812,7.2
53.828,16.75
53.843,26.48
53.859,36.03
53.875,45.22
53.890,54.0
53.906,62.38
53.921,70.18
53.937,77.01
53.953,82.29
53.968,85.51
53.984,86.44
54.000,85.25
54.015,82.44
54.031,78.65
54.046,74.48
54.062,70.38
54.078,66.65
54.093,63.48
54.109,60.97
54.125,59.17
54.140,58.01
54.156,57.31
54.171,56.89
54.187,56.53
54.203,56.08
54.218,55.45
54.234,54.62
54.250,53.58
54.265,52.35
54.281,51.0
54.296,49.56
54.312,48.09
54.328,46.58
54.343,45.01
54.359,43.3
54.375,41.43
54.390,39.5
54.406,37.66
54.421,36.07
54.437,34.76
54.453,33.59
54.468,32.35
54.484,30.82
54.500,28.95
54.515,26.88
54.531,24.84
54.546,23.11
54.562,21.84
54.578,21.01
54.593,20.47
54.609,20.0
54.625,19.39
54.640,18.52
54.656,17.36
54.671,15.99
54.687,14.53
54.703,13.0
54.718,11.38
54.734,9.57
54.750,7.46
54.765,4.96
54.781,2.09
54.796,-1.0
54.812,-4.19
54.828,-7.37
54.843,-10.5
54.859,-13.6
54.875,-16.7
54.890,-19.8
54.906,-22.85
54.921,-25.69
54.937,-28.19
54.953,-30.25
54.968,-31.85
54.984,-33.15
55.000,-34.34
55.015,-35.64
55.031,-37.15
55.046,-38.78
55.062,-40.22
55.078,-41.14
55.093,-41.36
55.109,-40.98
55.125,-40.42
55.140,-40.26
55.156,-40.98
55.171,-42.81
55.187,-45.68
55.203,-49.22
55.218,-52.84
55.234,-55.79
55.250,-57.08
55.265,-55.76
55.281,-51.01
55.296,-42.5
55.312,-30.59
55.328,-16.29
55.343,-1.05
55.359,13.64
55.375,26.6
55.390,37.1
55.406,44.88
55.421,50.02
55.437,52.92
55.453,54.2
55.468,54.62
55.484,54.97
55.500,55.92
55.515,57.83
55.531,60.69
55.546,64.04
55.562,67.05
55.578,68.58
55.593,67.36
55.609,62.17
55.625,52.21
55.640,37.42
55.656,18.8
55.671,-1.67
55.687,-21.39
55.703,-37.89
55.718,-49.57
55.734,-56.22
55.750,-58.92
55.765,-59.49
55.781,-59.67
55.796,-60.44
55.812,-61.83
55.828,-63.22
55.843,-63.95
55.859,-63.85
55.875,-63.33
55.890,-63.11
55.906,-63.76
55.921,-65.32
55.937,-67.24
55.953,-68.61
55.968,-68.57
55.984,-66.55
56.000,-62.39
56.015,-56.26
56.031,-48.49
56.046,-39.39
56.062,-29.23
56.078,-18.3
56.093,-6.95
56.109,4.29
56.125,14.8
56.140,24.0
56.156,31.47
56.171,37.01
56.187,40.74
56.203,42.97
56.218,44.14
56.234,44.63
56.250,44.72
56.265,44.49
56.281,43.82
56.296,42.49
56.312,40.28
56.328,37.07
56.343,33.02
56.359,28.42
56.375,23.73
56.390,19.36
56.406,15.62
56.421,12.56
56.437,10.07
56.453,7.88
56.468,5.71
56.484,3.34
56.500,0.65
56.515,-2.33
56.531,-5.53
56.546,-8.81
56.562,-12.13
56.578,-15.54
56.593,-19.22
56.609,-23.42
56.625,-28.3
56.640,-33.86
56.656,-39.88
56.671,-45.92
56.687,-51.38
56.703,-55.59
56.718,-57.92
56.734,-57.86
56.750,-55.18
56.765,-49.95
56.781,-42.68
56.796,-34.21
56.812,-25.58
56.828,-17.68
56.843,-10.97
56.859,-5.48
56.875,-0.84
56.890,3.38
56.906,7.37
56.921,11.02
56.937,13.99
56.953,15.98
56.968,16.99
56.984,17.29
57.000,17.35
57.015,17.61
57.031,18.27
57.046,19.27
57.062,20.4
57.078,21.49
57.093,22.47
57.109,23.4
57.125,24.32
57.140,25.19
57.156,25.84
57.171,26.04
57.187,25.68
57.203,24.78
57.218,23.55
57.234,22.22
57.250,20.92
57.265,19.64
57.281,18.26
57.296,16.7
57.312,14.98
57.328,13.31
57.343,11.92
57.359,10.95
57.375,10.35
57.390,9.84
57.406,9.04
57.421,7.64
57.437,5.54
57.453,3.01
57.468,0.58
57.484,-1.08
57.500,-1.35
57.515,0.04
57.531,3.07
57.546,7.32
57.562,12.12
57.578,16.68
57.593,20.15
57.609,21.87
57.625,21.51
57.640,19.29
57.656,16.03
57.671,13.07
57.687,11.95
57.703,13.93
57.718,19.63
57.734,28.9
57.750,40.95
57.765,54.67
57.781,68.9
57.796,82.61
57.812,94.88
57.828,104.85
57.843,111.74
57.859,115.05
57.875,114.67
57.890,110.98
57.906,104.73
57.921,96.87
57.937,88.24
57.953,79.41
57.968,70.69
57.984,62.18
58.000,53.94
58.015,46.03
58.031,38.5
58.046,31.37
58.062,24.6
58.078,18.14
58.093,11.91
58.109,5.86
58.125,-0.02
58.140,-5.69
58.156,-11.11
58.171,-16.28
58.187,-21.31
58.203,-26.45
58.218,-32.05
58.234,-38.48
58.250,-45.94
58.265,-54.26
58.281,-62.79
58.296,-70.52
58.312,-76.32
58.328,-79.28
58.343,-78.98
58.359,-75.63
58.375,-69.95
58.390,-62.91
58.406,-55.45
58.421,-48.2
58.437,-41.44
58.453,-35.24
58.468,-29.53
58.484,-24.36
58.500,-19.86
58.515,-16.2
58.531,-13.49
58.546,-11.75
58.562,-10.85
58.578,-10.66
58.593,-11.02
58.609,-11.81
58.625,-12.92
58.640,-14.14
58.656,-15.19
58.671,-15.8
58.687,-15.78
58.703,-15.17
58.718,-14.28
58.734,-13.58
58.750,-13.59
58.765,-14.71
58.781,-17.08
58.796,-20.57
58.812,-24.87
58.828,-29.6
58.843,-34.47
58.859,-39.3
58.875,-44.02
58.890,-48.58
58.906,-52.82
58.921,-56.48
58.937,-59.15
58.953,-60.33
58.968,-59.55
58.984,-56.47
59.000,-51.0
59.015,-43.43
59.031,-34.43
59.046,-24.96
59.062,-16.09
59.078,-8.62
59.093,-2.96
59.109,1.02
59.125,3.91
59.140,6.48
59.156,9.39
59.171,13.06
59.187,17.52
59.203,22.49
59.218,27.58
59.234,32.34
59.250,36.39
59.265,39.43
59.281,41.23
59.296,41.64
59.312,40.62
59.328,38.25
59.343,34.75
59.359,30.47
59.375,25.84
59.390,21.3
59.406,17.22
59.421,13.78
59.437,10.94
59.453,8.48
59.468,6.1
59.484,3.59
59.500,0.97
59.515,-1.59
59.531,-3.73
59.546,-5.19
59.562,-5.93
59.578,-6.19
59.593,-6.35
59.609,-6.8
59.625,-7.71
59.640,-9.0
59.656,-10.42
59.671,-11.71
59.687,-12.75
59.703,-13.63
59.718,-14.58
59.734,-15.75
59.750,-17.18
59.765,-18.77
59.781,-20.37
59.796,-21.93
59.812,-23.53
59.828,-25.38
59.843,-27.67
59.859,-30.5
59.875,-33.85
59.890,-37.64
59.906,-41.7
59.921,-45.85
59.937,-49.81
59.953,-53.1
59.968,-55.11
59.984,-55.22
