timestamp,value
00.000,11.75
00.015,10.45
00.031,8.59
00.046,6.23
00.062,3.48
00.078,0.45
00.093,-2.71
00.109,-5.87
00.125,-8.97
00.140,-12.05
00.156,-15.24
00.171,-18.64
00.187,-22.23
00.203,-25.74
00.218,-28.71
00.234,-30.56
00.250,-30.79
00.265,-29.2
00.281,-25.88
00.296,-21.24
00.312,-15.75
00.328,-9.87
00.343,-3.93
00.359,1.84
00.375,7.31
00.390,12.34
00.406,16.81
00.421,20.64
00.437,23.8
00.453,26.35
00.468,28.41
00.484,30.17
00.500,31.73
00.515,33.15
00.531,34.43
00.546,35.51
00.562,36.34
00.578,36.95
00.593,37.42
00.609,37.9
00.625,38.51
00.640,39.35
00.656,40.39
00.671,41.55
00.687,42.63
00.703,43.49
00.718,43.99
00.734,44.15
00.750,44.15
00.765,44.23
00.781,44.68
00.796,45.67
00.812,47.17
00.828,49.01
00.843,50.91
00.859,52.52
00.875,53.61
00.890,54.02
00.906,53.72
00.921,52.87
00.937,51.74
00.953,50.66
00.968,49.87
00.984,49.48
01.000,49.3
01.015,49.01
01.031,48.24
01.046,46.7
01.062,44.36
01.078,41.5
01.093,38.59
01.109,36.11
01.125,34.23
01.140,32.49
01.156,29.63
01.171,23.76
01.187,12.91
01.203,-4.13
01.218,-27.17
01.234,-54.33
01.250,-82.37
01.265,-107.62
01.281,-126.87
01.296,-138.18
01.312,-141.11
01.328,-136.62
01.343,-126.46
01.359,-112.68
01.375,-97.24
01.390,-81.68
01.406,-67.12
01.421,-54.28
01.437,-43.54
01.453,-35.05
01.468,-28.78
01.484,-24.58
01.500,-22.15
01.515,-21.3
01.531,-21.91
01.546,-23.88
01.562,-26.91
01.578,-30.16
01.593,-32.27
01.609,-31.72
01.625,-27.63
01.640,-20.51
01.656,-12.42
01.671,-6.23
01.687,-4.35
01.703,-7.49
01.718,-14.24
01.734,-21.75
01.750,-27.18
01.765,-29.03
01.781,-27.72
01.796,-25.08
01.812,-23.11
01.828,-23.01
01.843,-24.82
01.859,-27.68
01.875,-30.68
01.890,-33.27
01.906,-35.51
01.921,-37.68
01.937,-39.84
01.953,-41.54
01.968,-41.99
01.984,-40.48
02.000,-36.65
02.015,-30.82
02.031,-23.84
02.046,-16.79
02.062,-10.64
02.078,-5.9
02.093,-2.5
02.125,2.08
02.140,3.91
02.156,5.12
02.171,4.92
02.187,2.48
02.203,-2.5
02.218,-9.55
02.234,-17.29
02.250,-23.92
02.265,-27.81
02.281,-27.99
02.296,-24.51
02.312,-18.16
02.328,-10.01
02.343,-0.95
02.359,8.6
02.375,18.55
02.390,28.83
02.406,39.13
02.421,48.83
02.437,57.19
02.453,63.68
02.468,68.34
02.484,71.63
02.500,74.3
02.515,76.92
02.531,79.66
02.546,82.21
02.562,84.04
02.578,84.58
02.593,83.62
02.609,81.3
02.625,78.01
02.640,74.17
02.656,70.02
02.671,65.53
02.687,60.46
02.703,54.69
02.718,48.24
02.734,41.48
02.750,35.04
02.765,29.57
02.781,25.57
02.796,23.28
02.812,22.64
02.828,23.38
02.843,24.95
02.859,26.51
02.875,27.05
02.890,25.75
02.906,22.25
02.921,16.86
02.937,10.44
02.953,4.01
02.968,-1.72
02.984,-6.56
03.000,-10.7
03.015,-14.31
03.031,-17.3
03.046,-19.38
03.062,-20.37
03.078,-20.62
03.093,-21.08
03.109,-22.94
03.125,-27.05
03.140,-33.53
03.156,-41.66
03.171,-50.29
03.187,-58.38
03.203,-65.27
03.218,-70.76
03.234,-74.94
03.250,-77.9
03.265,-79.64
03.281,-80.24
03.296,-80.0
03.312,-79.4
03.328,-78.96
03.343,-78.94
03.359,-79.19
03.375,-79.34
03.390,-79.06
03.406,-78.3
03.421,-77.38
03.437,-76.59
03.453,-75.81
03.468,-74.37
03.484,-71.23
03.500,-65.53
03.515,-57.17
03.531,-46.93
03.546,-36.1
03.562,-25.99
03.578,-17.32
03.593,-10.13
03.609,-4.04
03.625,1.29
03.640,5.88
03.656,9.4
03.671,11.47
03.687,12.02
03.703,11.37
03.718,10.19
03.734,9.29
03.750,9.27
03.765,10.42
03.781,12.69
03.796,15.75
03.812,18.97
03.828,21.71
03.843,23.34
03.859,23.47
03.875,22.13
03.890,19.68
03.906,16.71
03.921,13.84
03.937,11.47
03.953,9.61
03.968,8.0
03.984,6.23
04.000,4.01
04.015,1.34
04.031,-1.51
04.046,-4.06
04.062,-5.82
04.078,-6.46
04.093,-5.83
04.109,-4.05
04.125,-1.34
04.140,2.06
04.156,5.95
04.171,10.18
04.187,14.59
04.203,18.96
04.218,22.99
04.234,26.35
04.250,28.74
04.265,30.02
04.281,30.14
04.296,29.25
04.312,27.59
04.328,25.57
04.343,23.64
04.359,22.22
04.375,21.58
04.390,21.74
04.406,22.42
04.421,23.13
04.437,23.39
04.453,22.87
04.468,21.52
04.484,19.47
04.500,16.85
04.515,13.66
04.531,9.7
04.546,4.66
04.562,-1.72
04.578,-9.49
04.593,-18.23
04.609,-27.16
04.625,-35.14
04.640,-40.95
04.656,-43.58
04.671,-42.54
04.687,-37.95
04.703,-30.5
04.718,-21.3
04.734,-11.52
04.750,-2.19
04.765,5.97
04.781,12.65
04.796,17.88
04.812,21.86
04.828,24.85
04.843,27.04
04.859,28.42
04.875,28.87
04.890,28.2
04.906,26.41
04.921,23.75
04.937,20.69
04.953,17.74
04.968,15.23
04.984,13.19
05.000,11.42
05.015,9.71
05.031,7.99
05.046,6.42
05.062,5.23
05.078,4.5
05.093,4.01
05.109,3.39
05.125,2.24
05.140,0.36
05.156,-2.09
05.171,-4.85
05.187,-7.65
05.203,-10.34
05.218,-12.9
05.234,-15.17
05.250,-16.83
05.265,-17.37
05.281,-16.27
05.296,-13.27
05.312,-8.48
05.328,-2.35
05.343,4.51
05.359,11.57
05.375,18.49
05.390,25.04
05.406,30.96
05.421,35.89
05.437,39.32
05.453,40.8
05.468,40.2
05.484,37.77
05.500,34.12
05.515,30.0
05.531,26.0
05.546,22.39
05.562,19.15
05.578,16.1
05.593,13.05
05.609,9.99
05.625,7.01
05.640,4.21
05.656,1.63
05.671,-0.81
05.687,-3.23
05.703,-5.68
05.718,-8.15
05.734,-10.52
05.750,-12.69
05.765,-14.66
05.781,-16.61
05.796,-18.78
05.812,-21.4
05.828,-24.48
05.843,-27.79
05.859,-30.86
05.875,-33.12
05.890,-34.05
05.906,-33.4
05.921,-31.09
05.937,-27.28
05.953,-22.16
05.968,-15.93
05.984,-8.78
06.000,-1.03
06.015,6.9
06.031,14.46
06.046,21.02
06.062,26.07
06.078,29.32
06.093,30.66
06.109,30.2
06.125,28.16
06.140,24.82
06.156,20.47
06.171,15.37
06.187,9.82
06.203,4.05
06.218,-1.71
06.234,-7.27
06.250,-12.5
06.265,-17.28
06.281,-21.59
06.296,-25.42
06.312,-28.85
06.328,-31.91
06.343,-34.54
06.359,-36.57
06.375,-37.76
06.390,-37.94
06.406,-37.12
06.421,-35.64
06.437,-34.06
06.453,-33.07
06.468,-33.24
06.484,-34.84
06.500,-37.69
06.515,-41.27
06.531,-44.77
06.546,-47.36
06.562,-48.39
06.578,-47.41
06.593,-44.33
06.609,-39.3
06.625,-32.72
06.640,-25.13
06.656,-17.11
06.671,-9.24
06.687,-1.91
06.703,4.65
06.718,10.42
06.734,15.51
06.750,19.99
06.765,23.89
06.781,27.11
06.796,29.47
06.812,30.82
06.828,31.08
06.843,30.24
06.859,28.34
06.875,25.53
06.890,22.06
06.906,18.26
06.921,14.56
06.937,11.36
06.953,8.92
06.968,7.23
06.984,5.93
07.000,4.53
07.015,2.58
07.031,-0.08
07.046,-3.17
07.062,-6.08
07.078,-8.1
07.093,-8.83
07.109,-8.32
07.125,-7.13
07.140,-6.06
07.156,-5.78
07.171,-6.68
07.187,-8.68
07.203,-11.49
07.218,-14.73
07.234,-18.07
07.250,-21.21
07.265,-23.82
07.281,-25.53
07.296,-26.04
07.312,-25.29
07.328,-23.5
07.343,-21.14
07.359,-18.56
07.375,-15.69
07.390,-11.9
07.406,-6.28
07.421,1.92
07.437,12.76
07.453,25.43
07.468,38.5
07.484,50.44
07.500,60.2
07.515,67.43
07.531,72.46
07.546,75.97
07.562,78.67
07.578,81.16
07.593,83.84
07.609,87.06
07.625,91.03
07.640,95.79
07.656,101.24
07.671,107.16
07.687,113.4
07.703,119.88
07.718,126.62
07.734,133.52
07.750,140.15
07.765,145.85
07.781,149.84
07.796,151.5
07.812,150.65
07.828,147.71
07.843,143.56
07.859,139.27
07.875,135.8
07.890,133.45
07.906,131.71
07.921,129.24
07.937,124.26
07.953,115.16
07.968,101.08
07.984,82.23
08.000,59.8
08.015,35.58
08.031,11.33
08.046,-11.64
08.062,-32.69
08.078,-51.78
08.093,-69.08
08.109,-84.7
08.125,-98.41
08.140,-109.78
08.156,-118.42
08.171,-124.37
08.187,-128.2
08.203,-130.79
08.218,-132.68
08.234,-133.52
08.250,-132.06
08.265,-126.65
08.281,-116.21
08.296,-100.91
08.312,-82.29
08.328,-62.58
08.343,-43.81
08.359,-27.11
08.375,-12.7
08.390,-0.45
08.406,9.42
08.421,16.11
08.437,18.57
08.453,16.27
08.468,9.84
08.484,1.1
08.500,-7.6
08.515,-14.45
08.531,-19.07
08.546,-22.72
08.562,-27.69
08.578,-36.18
08.593,-49.06
08.609,-65.37
08.625,-82.56
08.640,-97.42
08.656,-107.37
08.671,-111.16
08.687,-109.04
08.703,-102.18
08.718,-92.05
08.734,-79.92
08.750,-66.68
08.765,-53.18
08.781,-40.39
08.796,-29.39
08.812,-21.12
08.828,-16.0
08.843,-13.62
08.859,-12.93
08.875,-12.65
08.890,-11.78
08.906,-9.96
08.921,-7.45
08.937,-4.83
08.953,-2.55
08.968,-0.79
08.984,0.59
09.000,1.81
09.015,2.94
09.031,3.74
09.046,3.84
09.062,2.9
09.078,0.95
09.093,-1.51
09.109,-3.7
09.125,-4.91
09.140,-4.77
09.156,-3.48
09.171,-1.74
09.187,-0.43
09.203,-0.25
09.218,-1.5
09.234,-4.03
09.250,-7.31
09.265,-10.69
09.281,-13.57
09.296,-15.51
09.312,-16.27
09.328,-15.79
09.343,-14.21
09.359,-11.81
09.375,-8.98
09.390,-6.22
09.406,-3.95
09.421,-2.47
09.437,-1.93
09.453,-2.24
09.468,-3.17
09.484,-4.42
09.500,-5.74
09.515,-6.99
09.531,-8.19
09.546,-9.53
09.562,-11.18
09.578,-13.21
09.593,-15.49
09.609,-17.68
09.625,-19.36
09.640,-20.26
09.656,-20.25
09.671,-19.48
09.687,-18.21
09.703,-16.7
09.718,-15.16
09.734,-13.74
09.750,-12.59
09.765,-11.9
09.781,-11.89
09.796,-12.61
09.812,-13.93
09.828,-15.37
09.843,-16.33
09.859,-16.14
09.875,-14.36
09.890,-10.8
09.906,-5.58
09.921,0.97
09.937,8.39
09.953,16.12
09.968,23.66
09.984,30.42
10.000,35.94
10.015,39.94
10.031,42.37
10.046,43.42
10.062,43.45
10.078,42.78
10.093,41.57
10.109,39.78
10.125,37.19
10.140,33.6
10.156,29.13
10.171,24.22
10.187,19.65
10.203,16.19
10.218,14.4
10.234,14.38
10.250,15.85
10.265,18.31
10.281,21.26
10.296,24.46
10.312,27.74
10.328,30.96
10.343,33.75
10.359,35.52
10.375,35.58
10.390,33.44
10.406,28.97
10.421,22.54
10.437,14.9
10.453,7.04
10.468,0.07
10.484,-5.03
10.500,-7.51
10.515,-7.03
10.531,-3.6
10.546,2.35
10.562,10.2
10.578,19.22
10.593,28.62
10.609,37.65
10.625,45.48
10.640,51.18
10.656,53.95
10.671,53.2
10.687,49.0
10.703,42.11
10.718,33.92
10.734,25.99
10.750,19.65
10.765,15.55
10.781,13.5
10.796,12.6
10.812,11.51
10.828,8.85
10.843,3.71
10.859,-3.95
10.875,-13.21
10.890,-22.44
10.906,-29.8
10.921,-34.05
10.937,-34.87
10.953,-33.04
10.968,-29.9
10.984,-26.72
11.000,-24.23
11.015,-22.47
11.031,-20.99
11.046,-19.23
11.062,-16.83
11.078,-13.49
11.093,-8.99
11.109,-3.01
11.125,4.78
11.140,14.58
11.156,26.24
11.171,39.28
11.187,52.94
11.203,66.29
11.218,78.46
11.234,88.6
11.250,95.93
11.265,99.82
11.281,99.86
11.296,96.07
11.312,88.93
11.328,79.4
11.343,68.65
11.359,57.79
11.375,47.61
11.390,38.42
11.406,30.25
11.421,22.92
11.437,16.24
11.453,10.0
11.468,3.85
11.484,-2.59
11.500,-9.72
11.515,-17.57
11.531,-25.76
11.546,-33.5
11.562,-39.99
11.578,-44.73
11.593,-47.75
11.609,-49.43
11.625,-50.18
11.640,-50.18
11.656,-49.32
11.671,-47.46
11.687,-44.64
11.703,-41.21
11.718,-37.61
11.734,-34.18
11.750,-30.91
11.765,-27.66
11.781,-24.34
11.796,-21.06
11.812,-18.16
11.828,-16.01
11.843,-14.79
11.859,-14.35
11.875,-14.41
11.890,-14.69
11.906,-15.08
11.921,-15.69
11.937,-16.64
11.953,-18.02
11.968,-19.73
11.984,-21.47
12.000,-22.79
12.015,-23.27
12.031,-22.65
12.046,-21.0
12.062,-18.73
12.078,-16.45
12.093,-14.81
12.109,-14.15
12.125,-14.46
12.140,-15.38
12.156,-16.44
12.171,-17.32
12.187,-17.93
12.203,-18.4
12.218,-18.82
12.234,-19.05
12.250,-18.67
12.265,-17.24
12.281,-14.57
12.296,-10.95
12.312,-7.16
12.328,-4.1
12.343,-2.31
12.359,-1.64
12.375,-1.29
12.390,-0.13
12.406,2.65
12.421,7.19
12.437,12.9
12.453,18.69
12.468,23.45
12.484,26.44
12.500,27.35
12.515,26.27
12.531,23.51
12.546,19.46
12.562,14.58
12.578,9.51
12.593,4.98
12.609,1.72
12.625,0.25
12.640,0.62
12.656,2.42
12.671,4.92
12.687,7.3
12.703,8.98
12.718,9.69
12.734,9.54
12.750,8.74
12.765,7.48
12.781,5.86
12.796,3.86
12.812,1.48
12.828,-1.33
12.843,-4.5
12.859,-7.91
12.875,-11.38
12.890,-14.68
12.906,-17.47
12.921,-19.47
12.937,-20.51
12.953,-20.68
12.968,-20.33
12.984,-19.97
13.000,-19.98
13.015,-20.42
13.031,-20.93
13.046,-20.96
13.062,-19.89
13.078,-17.46
13.093,-13.77
13.109,-9.29
13.125,-4.68
13.140,-0.54
13.156,2.71
13.171,4.92
13.187,6.13
13.203,6.47
13.218,6.1
13.234,5.18
13.250,3.84
13.265,2.28
13.281,0.69
13.296,-0.74
13.312,-1.89
13.328,-2.79
13.343,-3.56
13.359,-4.4
13.375,-5.48
13.390,-6.91
13.406,-8.7
13.421,-10.8
13.437,-13.12
13.453,-15.48
13.468,-17.7
13.484,-19.61
13.500,-21.13
13.515,-22.3
13.531,-23.34
13.546,-24.56
13.562,-26.19
13.578,-28.26
13.593,-30.56
13.609,-32.75
13.625,-34.46
13.640,-35.36
13.656,-35.29
13.671,-34.21
13.687,-32.17
13.703,-29.27
13.718,-25.66
13.734,-21.55
13.750,-17.28
13.765,-13.19
13.781,-9.63
13.796,-6.78
13.812,-4.65
13.828,-3.11
13.843,-1.96
13.859,-0.99
13.875,-0.09
13.890,0.77
13.906,1.54
13.921,2.22
13.937,2.82
13.953,3.41
13.968,4.08
13.984,4.86
14.000,5.72
14.015,6.61
14.031,7.42
14.046,8.1
14.062,8.62
14.078,8.96
14.093,9.08
14.109,8.89
14.125,8.26
14.140,7.12
14.156,5.59
14.171,3.89
14.187,2.41
14.203,1.42
14.218,0.98
14.234,0.88
14.250,0.76
14.265,0.32
14.281,-0.47
14.296,-1.25
14.312,-1.52
14.328,-0.77
14.343,1.14
14.359,3.93
14.375,6.98
14.390,9.56
14.406,11.13
14.421,11.45
14.437,10.69
14.453,9.21
14.468,7.47
14.484,5.86
14.500,4.64
14.515,3.91
14.531,3.64
14.546,3.69
14.562,3.88
14.578,4.09
14.593,4.24
14.609,4.31
14.625,4.32
14.640,4.25
14.656,4.08
14.671,3.75
14.687,3.25
14.703,2.62
14.718,1.99
14.734,1.54
14.750,1.38
14.765,1.55
14.781,1.98
14.796,2.47
14.812,2.78
14.828,2.71
14.843,2.11
14.859,0.94
14.875,-0.78
14.890,-2.99
14.906,-5.55
14.921,-8.24
14.937,-10.74
14.953,-12.61
14.968,-13.45
14.984,-12.95
15.000,-11.04
15.015,-7.92
15.031,-3.97
15.046,0.32
15.062,4.46
15.078,8.09
15.093,10.96
15.109,12.94
15.125,13.97
15.140,14.12
15.156,13.44
15.171,12.01
15.187,9.93
15.203,7.28
15.218,4.16
15.234,0.73
15.250,-2.83
15.265,-6.45
15.281,-10.12
15.296,-13.93
15.312,-17.94
15.328,-22.12
15.343,-26.27
15.359,-30.07
15.375,-33.13
15.390,-35.16
15.406,-36.01
15.421,-35.67
15.437,-34.38
15.453,-32.36
15.468,-29.92
15.484,-27.34
15.500,-24.83
15.515,-22.52
15.531,-20.38
15.546,-18.21
15.562,-15.77
15.578,-12.78
15.593,-9.02
15.609,-4.47
15.625,0.7
15.640,6.12
15.656,11.3
15.671,15.7
15.687,18.98
15.703,20.98
15.718,21.82
15.734,21.73
15.750,20.97
15.765,19.7
15.781,18.09
15.796,16.25
15.812,14.38
15.828,12.74
15.843,11.51
15.859,10.73
15.875,10.23
15.890,9.75
15.906,9.01
15.921,7.98
15.937,6.78
15.953,5.67
15.968,4.91
15.984,4.6
16.000,4.69
16.015,5.03
16.031,5.42
16.046,5.66
16.062,5.61
16.078,5.15
16.093,4.15
16.109,2.58
16.125,0.45
16.140,-2.04
16.156,-4.65
16.171,-7.02
16.187,-8.76
16.203,-9.57
16.218,-9.25
16.234,-7.79
16.250,-5.26
16.265,-1.95
16.281,1.79
16.296,5.53
16.312,8.85
16.328,11.41
16.343,13.0
16.359,13.6
16.375,13.27
16.390,12.2
16.406,10.55
16.421,8.52
16.437,6.41
16.453,4.52
16.468,3.15
16.484,2.49
16.500,2.51
16.515,2.93
16.531,3.38
16.546,3.49
16.562,3.08
16.578,2.22
16.593,1.14
16.609,0.11
16.625,-0.75
16.640,-1.46
16.656,-2.22
16.671,-3.26
16.687,-4.76
16.703,-6.8
16.718,-9.3
16.734,-12.06
16.750,-14.85
16.765,-17.31
16.781,-19.13
16.796,-20.09
16.812,-20.09
16.828,-19.27
16.843,-17.98
16.859,-16.72
16.875,-15.99
16.890,-16.19
16.906,-17.44
16.921,-19.52
16.937,-21.81
16.953,-23.39
16.968,-23.33
16.984,-20.95
17.000,-16.23
17.015,-9.78
17.031,-2.57
17.046,4.6
17.062,11.45
17.078,18.3
17.093,25.74
17.109,34.12
17.125,43.2
17.140,52.15
17.156,60.01
17.171,66.15
17.187,70.64
17.203,74.09
17.218,77.27
17.234,80.73
17.250,84.51
17.265,88.31
17.281,91.73
17.296,94.45
17.312,96.46
17.328,97.91
17.343,99.08
17.359,100.26
17.375,101.69
17.390,103.47
17.406,105.5
17.421,107.55
17.437,109.3
17.453,110.29
17.468,110.04
17.484,108.03
17.500,103.7
17.515,96.58
17.531,86.67
17.546,74.75
17.562,62.28
17.578,50.84
17.593,41.24
17.609,33.09
17.625,25.0
17.640,15.56
17.656,4.43
17.671,-7.11
17.687,-16.63
17.703,-21.65
17.718,-20.79
17.734,-14.29
17.750,-3.53
17.765,9.78
17.781,24.39
17.796,39.57
17.812,54.87
17.828,69.73
17.843,83.37
17.859,95.2
17.875,105.12
17.890,113.59
17.906,121.32
17.921,128.98
17.937,136.93
17.953,145.3
17.968,154.09
17.984,163.21
18.000,172.53
18.015,181.71
18.031,190.16
18.046,197.21
18.062,202.38
18.078,205.74
18.093,207.79
18.109,209.15
18.125,209.88
18.140,209.07
18.156,204.85
18.171,195.04
18.187,178.32
18.203,155.05
18.218,127.5
18.234,98.95
18.250,72.43
18.265,49.63
18.281,30.7
18.296,15.04
18.312,2.31
18.328,-7.02
18.343,-12.19
18.359,-13.21
18.375,-11.94
18.390,-11.96
18.406,-17.49
18.421,-31.59
18.437,-54.62
18.453,-83.6
18.468,-112.89
18.484,-135.95
18.500,-147.13
18.515,-143.28
18.531,-124.3
18.546,-92.74
18.562,-52.6
18.578,-8.04
18.593,37.44
18.609,81.11
18.625,120.49
18.640,153.0
18.656,175.99
18.671,187.59
18.687,187.72
18.703,178.52
18.718,163.83
18.734,147.86
18.750,133.73
18.765,122.67
18.781,114.28
18.796,107.34
18.812,100.78
18.828,94.24
18.843,87.88
18.859,81.93
18.875,76.32
18.890,70.56
18.906,64.07
18.921,56.41
18.937,47.56
18.953,37.85
18.968,27.71
18.984,17.35
19.000,6.69
19.015,-4.66
19.031,-17.06
19.046,-30.57
19.062,-44.78
19.078,-58.99
19.093,-72.46
19.109,-84.84
19.125,-96.31
19.140,-107.48
19.156,-119.2
19.171,-132.21
19.187,-146.98
19.203,-163.58
19.218,-181.54
19.234,-199.65
19.250,-216.05
19.265,-228.58
19.281,-235.68
19.296,-237.26
19.312,-235.14
19.328,-232.68
19.343,-233.5
19.359,-240.09
19.375,-252.77
19.390,-269.88
19.406,-288.79
19.421,-307.53
19.437,-325.85
19.453,-345.23
19.468,-367.71
19.484,-394.17
19.500,-423.03
19.515,-450.09
19.531,-469.76
19.546,-477.04
19.562,-469.23
19.578,-446.78
19.593,-412.82
19.609,-371.81
19.625,-328.06
19.640,-284.73
19.656,-243.62
19.671,-205.39
19.687,-169.95
19.703,-136.64
19.718,-104.49
19.734,-72.42
19.750,-39.98
19.765,-8.27
19.781,19.54
19.796,38.48
19.812,43.55
19.828,31.98
19.843,5.33
19.859,-30.16
19.875,-65.36
19.890,-91.45
19.906,-103.35
19.921,-101.41
19.937,-90.66
19.953,-77.87
19.968,-68.01
19.984,-62.05
20.000,-57.12
20.015,-48.59
20.031,-32.79
20.046,-8.93
20.062,20.93
20.078,53.0
20.093,83.33
20.109,108.51
20.125,125.67
20.140,132.18
20.156,126.01
20.171,106.71
20.187,76.46
20.203,40.48
20.218,5.68
20.234,-21.61
20.250,-38.1
20.265,-44.48
20.281,-44.45
20.296,-42.36
20.312,-41.1
20.328,-41.16
20.343,-41.41
20.359,-40.67
20.375,-38.91
20.390,-37.21
20.406,-36.88
20.421,-38.34
20.437,-40.87
20.453,-43.18
20.468,-44.63
20.484,-45.88
20.500,-48.79
20.515,-55.29
20.531,-66.12
20.546,-80.15
20.562,-94.8
20.578,-107.25
20.593,-115.8
20.609,-120.58
20.625,-123.24
20.640,-126.18
20.656,-131.52
20.671,-140.52
20.687,-153.5
20.703,-169.82
20.718,-187.74
20.734,-204.28
20.750,-215.54
20.765,-217.66
20.781,-208.43
20.796,-188.52
20.812,-161.68
20.828,-133.33
20.843,-108.37
20.859,-89.3
20.875,-75.64
20.890,-64.93
20.906,-54.65
20.921,-43.54
20.937,-31.94
20.953,-20.85
20.968,-10.83
20.984,-1.41
21.000,8.45
21.015,19.43
21.031,31.12
21.046,41.99
21.062,50.15
21.078,54.37
21.093,54.75
21.109,52.71
21.125,50.34
21.140,49.41
21.156,50.65
21.171,53.6
21.187,56.94
21.203,59.3
21.218,59.82
21.234,58.5
21.250,56.01
21.265,53.21
21.281,50.65
21.296,48.33
21.312,45.73
21.328,42.15
21.343,36.97
21.359,29.93
21.375,21.19
21.390,11.36
21.406,1.37
21.421,-7.65
21.437,-14.56
21.453,-18.36
21.468,-18.49
21.484,-14.9
21.500,-8.01
21.515,1.32
21.531,12.06
21.546,23.22
21.562,33.97
21.578,43.71
21.593,52.05
21.609,58.78
21.625,63.8
21.640,67.18
21.656,69.16
21.671,70.19
21.687,70.85
21.703,71.69
21.718,73.04
21.734,74.87
21.750,76.87
21.765,78.58
21.781,79.62
21.796,79.88
21.812,79.55
21.828,79.01
21.843,78.6
21.859,78.38
21.875,78.08
21.890,77.25
21.906,75.42
21.921,72.42
21.937,68.48
21.953,64.28
21.968,60.85
21.984,59.33
22.000,60.76
22.015,65.82
22.031,74.61
22.046,86.68
22.062,101.07
22.078,116.57
22.093,132.03
22.109,146.64
22.125,159.99
22.140,171.93
22.156,182.23
22.171,190.31
22.187,195.18
22.203,195.68
22.218,190.87
22.234,180.45
22.250,164.99
22.265,145.89
22.281,124.96
22.296,103.95
22.312,83.95
22.328,65.33
22.343,47.79
22.359,30.78
22.375,13.87
22.390,-3.04
22.406,-19.73
22.421,-35.8
22.437,-50.96
22.453,-65.03
22.468,-77.89
22.484,-89.38
22.500,-99.19
22.515,-106.92
22.531,-112.21
22.546,-114.9
22.562,-114.87
22.578,-112.04
22.593,-106.21
22.609,-97.17
22.625,-84.89
22.640,-69.77
22.656,-52.65
22.671,-34.7
22.687,-17.12
22.703,-0.84
22.718,13.59
22.734,25.99
22.750,36.37
22.765,44.78
22.781,51.15
22.796,55.46
22.812,57.83
22.828,58.51
22.843,57.97
22.859,56.7
22.875,55.07
22.890,53.32
22.906,51.44
22.921,49.32
22.937,46.81
22.953,43.84
22.968,40.47
22.984,36.91
23.000,33.38
23.015,30.08
23.031,27.09
23.046,24.31
23.062,21.46
23.078,18.23
23.093,14.38
23.109,9.76
23.125,4.43
23.140,-1.47
23.156,-7.72
23.171,-14.06
23.187,-20.02
23.203,-25.0
23.218,-28.14
23.234,-28.61
23.250,-25.83
23.265,-19.66
23.281,-10.53
23.296,0.58
23.312,12.45
23.328,23.88
23.343,33.86
23.359,41.83
23.375,47.57
23.390,51.18
23.406,52.94
23.421,53.21
23.437,52.34
23.453,50.73
23.468,48.79
23.484,46.91
23.500,45.45
23.515,44.54
23.531,44.1
23.546,43.89
23.562,43.62
23.578,43.05
23.593,42.09
23.609,40.66
23.625,38.7
23.640,36.03
23.656,32.55
23.671,28.29
23.687,23.49
23.703,18.58
23.718,14.01
23.734,10.07
23.750,6.78
23.765,3.88
23.781,0.98
23.796,-2.34
23.812,-6.41
23.828,-11.27
23.843,-16.7
23.859,-22.12
23.875,-26.63
23.890,-29.26
23.906,-29.17
23.921,-25.93
23.937,-19.65
23.953,-10.94
23.968,-0.81
23.984,9.69
24.000,19.63
24.015,28.47
24.031,35.92
24.046,41.89
24.062,46.39
24.078,49.36
24.093,50.84
24.109,50.95
24.125,49.99
24.140,48.44
24.156,46.77
24.171,45.31
24.187,44.11
24.203,42.97
24.218,41.51
24.234,39.44
24.250,36.69
24.265,33.4
24.281,29.85
24.296,26.27
24.312,22.78
24.328,19.26
24.343,15.58
24.359,11.67
24.375,7.65
24.390,3.78
24.406,0.41
24.421,-2.22
24.437,-4.13
24.453,-5.57
24.468,-7.0
24.484,-8.84
24.500,-11.48
24.515,-15.05
24.531,-19.4
24.546,-24.09
24.562,-28.36
24.578,-31.22
24.593,-31.71
24.609,-29.14
24.625,-23.4
24.640,-15.01
24.656,-5.0
24.671,5.4
24.687,15.11
24.703,23.47
24.718,30.26
24.734,35.54
24.750,39.46
24.765,42.1
24.781,43.48
24.796,43.55
24.812,42.37
24.828,40.15
24.843,37.23
24.859,34.03
24.875,30.94
24.890,28.22
24.906,26.0
24.921,24.21
24.937,22.73
24.953,21.37
24.968,19.95
24.984,18.31
25.000,16.28
25.015,13.66
25.031,10.26
25.046,5.98
25.062,0.83
25.078,-4.91
25.093,-10.84
25.109,-16.44
25.125,-21.33
25.140,-25.42
25.156,-28.9
25.171,-32.22
25.187,-35.88
25.203,-40.22
25.218,-45.23
25.234,-50.56
25.250,-55.52
25.265,-59.25
25.281,-60.93
25.296,-59.96
25.312,-56.12
25.328,-49.6
25.343,-41.07
25.359,-31.42
25.375,-21.55
25.390,-12.25
25.406,-3.96
25.421,3.21
25.437,9.29
25.453,14.35
25.468,18.38
25.484,21.26
25.500,22.88
25.515,23.26
25.531,22.55
25.546,21.01
25.562,18.98
25.578,16.69
25.593,14.31
25.609,11.97
25.625,9.75
25.640,7.77
25.656,6.13
25.671,4.9
25.687,3.98
25.703,3.19
25.718,2.24
25.734,0.89
25.750,-0.99
25.765,-3.4
25.781,-6.23
25.796,-9.3
25.812,-12.39
25.828,-15.32
25.843,-17.9
25.859,-20.09
25.875,-21.92
25.890,-23.6
25.906,-25.41
25.921,-27.54
25.937,-29.9
25.953,-32.09
25.968,-33.45
25.984,-33.23
26.000,-30.96
26.015,-26.49
26.031,-20.18
26.046,-12.61
26.062,-4.48
26.078,3.61
26.093,11.29
26.109,18.33
26.125,24.62
26.140,30.04
26.156,34.47
26.171,37.83
26.187,40.08
26.203,41.28
26.218,41.57
26.234,41.1
26.250,39.97
26.265,38.22
26.281,35.82
26.296,32.78
26.312,29.2
26.328,25.34
26.343,21.47
26.359,17.83
26.375,14.53
26.390,11.49
26.406,8.52
26.421,5.4
26.437,1.96
26.453,-1.87
26.468,-6.11
26.484,-10.67
26.500,-15.37
26.515,-19.95
26.531,-24.17
26.546,-27.83
26.562,-30.96
26.578,-33.77
26.593,-36.62
26.609,-39.82
26.625,-43.47
26.640,-47.31
26.656,-50.78
26.671,-53.16
26.687,-53.7
26.703,-51.91
26.718,-47.65
26.734,-41.11
26.750,-32.82
26.765,-23.47
26.781,-13.77
26.796,-4.33
26.812,4.38
26.828,12.07
26.843,18.59
26.859,23.88
26.875,27.96
26.890,30.9
26.906,32.8
26.921,33.83
26.937,34.24
26.953,34.35
26.968,34.39
26.984,34.6
27.000,35.06
27.015,35.69
27.031,36.29
27.046,36.7
27.062,36.74
27.078,36.42
27.093,35.91
27.109,35.36
27.125,34.97
27.140,34.79
27.156,34.85
27.171,35.09
27.187,35.53
27.203,36.17
27.218,37.05
27.234,38.1
27.250,39.13
27.265,39.86
27.281,40.0
27.296,39.36
27.312,37.91
27.328,35.8
27.343,33.27
27.359,30.52
27.375,27.7
27.390,24.84
27.406,21.93
27.421,18.98
27.437,16.0
27.453,13.11
27.468,10.42
27.484,8.0
27.500,5.84
27.515,3.8
27.531,1.73
27.546,-0.51
27.562,-2.9
27.578,-5.34
27.593,-7.56
27.609,-9.3
27.625,-10.43
27.640,-10.97
27.656,-11.11
27.671,-11.18
27.687,-11.51
27.703,-12.29
27.718,-13.5
27.734,-14.9
27.750,-16.09
27.765,-16.7
27.781,-16.54
27.796,-15.72
27.812,-14.67
27.828,-13.91
27.843,-13.83
27.859,-14.47
27.875,-15.42
27.890,-15.97
27.906,-15.43
27.921,-13.33
27.937,-9.77
27.953,-5.4
27.968,-1.28
27.984,1.49
28.000,2.27
28.015,1.22
28.031,-0.55
28.046,-1.21
28.062,1.2
28.078,8.14
28.093,19.99
28.109,35.95
28.125,54.32
28.140,73.11
28.156,90.8
28.171,106.79
28.187,121.47
28.203,136.11
28.218,152.3
28.234,171.35
28.250,193.56
28.265,217.56
28.281,240.28
28.296,257.44
28.312,264.9
28.328,260.02
28.343,242.71
28.359,215.38
28.375,181.88
28.390,145.97
28.406,109.95
28.421,74.21
28.437,37.81
28.453,-0.5
28.468,-41.11
28.484,-83.25
28.500,-125.22
28.515,-165.2
28.531,-201.81
28.546,-234.35
28.562,-262.76
28.578,-287.31
28.593,-308.49
28.609,-326.82
28.625,-342.75
28.640,-356.3
28.656,-366.63
28.671,-371.9
28.687,-369.7
28.703,-357.94
28.718,-335.79
28.734,-304.24
28.750,-265.66
28.765,-222.95
28.781,-178.55
28.796,-134.01
28.812,-90.25
28.828,-48.19
28.843,-9.12
28.859,25.61
28.875,55.09
28.890,79.55
28.906,100.25
28.921,118.99
28.937,137.27
28.953,155.8
28.968,174.42
28.984,192.51
29.000,209.36
29.015,224.29
29.031,236.71
29.046,245.93
29.062,251.19
29.078,251.92
29.093,248.1
29.109,240.67
29.125,231.64
29.140,223.73
29.156,219.47
29.171,220.09
29.187,224.71
29.203,230.14
29.218,231.81
29.234,225.17
29.250,207.16
29.265,176.98
29.281,136.14
29.296,88.07
29.312,37.57
29.328,-9.73
29.343,-48.22
29.359,-73.44
29.375,-83.57
29.390,-80.2
29.406,-68.0
29.421,-52.85
29.437,-39.61
29.453,-30.57
29.468,-25.57
29.484,-23.44
29.500,-23.66
29.515,-27.19
29.531,-35.72
29.546,-50.46
29.562,-71.1
29.578,-95.84
29.593,-122.32
29.609,-148.59
29.625,-173.61
29.640,-196.98
29.656,-218.47
29.671,-237.69
29.687,-254.27
29.703,-268.14
29.718,-279.82
29.734,-290.21
29.750,-300.23
29.765,-310.36
29.781,-320.35
29.796,-329.17
29.812,-335.1
29.828,-335.95
29.843,-329.69
29.859,-315.19
29.875,-292.89
29.890,-264.88
29.906,-234.43
29.921,-204.82
29.937,-178.19
29.953,-154.72
29.968,-132.6
29.984,-108.9
30.000,-81.03
30.015,-48.04
30.031,-11.42
30.046,25.16
30.062,56.93
30.078,79.61
30.093,90.96
30.109,91.39
30.125,83.62
30.140,71.49
30.156,58.6
30.171,47.22
30.187,38.03
30.203,30.49
30.218,23.51
30.234,15.97
30.250,6.86
30.265,-4.6
30.281,-18.83
30.296,-35.42
30.312,-53.01
30.328,-69.39
30.343,-82.23
30.359,-89.97
30.375,-92.44
30.390,-90.74
30.406,-86.53
30.421,-81.19
30.437,-75.25
30.453,-68.51
30.468,-60.39
30.484,-50.37
30.500,-38.21
30.515,-23.93
30.531,-7.73
30.546,9.78
30.562,27.52
30.578,43.84
30.593,56.91
30.609,65.34
30.625,68.7
30.640,67.75
30.656,64.05
30.671,59.45
30.687,55.38
30.703,52.51
30.718,50.76
30.734,49.52
30.750,47.99
30.765,45.44
30.781,41.31
30.796,35.38
30.812,27.85
30.828,19.41
30.843,11.19
30.859,4.46
30.875,0.18
30.890,-1.41
30.906,-0.97
30.921,0.22
30.937,0.9
30.953,0.34
30.968,-1.37
30.984,-3.56
31.000,-5.49
31.015,-6.85
31.031,-7.74
31.046,-8.56
31.062,-9.45
31.078,-10.18
31.093,-10.16
31.109,-8.79
31.125,-5.67
31.140,-0.69
31.156,6.09
31.171,14.5
31.187,24.31
31.203,35.03
31.218,45.78
31.234,55.38
31.250,62.63
31.265,66.76
31.281,67.78
31.296,66.54
31.312,64.39
31.328,62.62
31.343,61.92
31.359,62.07
31.375,62.12
31.390,60.91
31.406,57.75
31.421,52.85
31.437,47.34
31.453,42.81
31.468,40.69
31.484,41.66
31.500,45.6
31.515,51.79
31.531,59.42
31.546,67.94
31.562,77.18
31.578,87.15
31.593,97.69
31.609,108.4
31.625,118.65
31.640,127.81
31.656,135.34
31.671,140.82
31.687,143.87
31.703,144.1
31.718,141.2
31.734,135.17
31.750,126.57
31.765,116.48
31.781,106.44
31.796,98.0
31.812,92.26
31.828,89.46
31.843,88.89
31.859,89.0
31.875,87.84
31.890,83.61
31.906,74.98
31.921,61.2
31.937,41.75
31.953,16.31
31.968,-14.95
31.984,-50.79
32.000,-88.24
32.015,-122.84
32.031,-149.74
32.046,-165.25
32.062,-168.24
32.078,-160.4
32.093,-145.34
32.109,-127.08
32.125,-108.66
32.140,-91.59
32.156,-76.24
32.171,-62.59
32.187,-50.76
32.203,-41.2
32.218,-34.42
32.234,-30.72
32.250,-30.19
32.265,-32.85
32.281,-38.65
32.296,-47.57
32.312,-59.44
32.328,-73.91
32.343,-90.34
32.359,-107.86
32.375,-125.23
32.390,-140.91
32.406,-153.14
32.421,-160.12
32.437,-160.51
32.453,-153.8
32.468,-140.44
32.484,-121.78
32.500,-99.61
32.515,-75.51
32.531,-50.48
32.546,-24.8
32.562,1.62
32.578,28.57
32.593,55.1
32.609,79.35
32.625,99.04
32.640,112.36
32.656,118.85
32.671,119.73
32.687,117.64
32.703,115.72
32.718,116.42
32.734,120.83
32.750,128.44
32.765,137.64
32.781,146.56
32.796,153.76
32.812,158.5
32.828,160.61
32.843,160.17
32.859,157.29
32.875,152.01
32.890,144.49
32.906,135.12
32.921,124.38
32.937,112.61
32.953,99.67
32.968,85.01
32.984,68.07
33.000,48.79
33.015,28.01
33.031,7.31
33.046,-11.46
33.062,-26.77
33.078,-37.88
33.093,-44.8
33.109,-48.14
33.125,-48.72
33.140,-47.44
33.156,-45.09
33.171,-42.17
33.187,-38.67
33.203,-33.97
33.218,-27.08
33.234,-17.14
33.250,-4.02
33.265,11.39
33.281,27.44
33.296,42.39
33.312,55.16
33.328,65.52
33.343,73.96
33.359,81.14
33.375,87.42
33.390,92.72
33.406,96.66
33.421,98.79
33.437,98.79
33.453,96.55
33.468,92.16
33.484,86.0
33.500,78.78
33.515,71.46
33.531,65.14
33.546,60.79
33.562,59.01
33.578,59.91
33.593,63.18
33.609,68.1
33.625,73.81
33.640,79.47
33.656,84.49
33.671,88.69
33.687,92.35
33.703,95.92
33.718,99.76
33.734,103.8
33.750,107.49
33.765,110.19
33.781,111.52
33.796,111.8
33.812,111.99
33.828,113.29
33.843,116.42
33.859,121.08
33.875,125.98
33.890,129.34
33.906,129.66
33.921,126.36
33.937,119.93
33.953,111.35
33.968,101.51
33.984,90.74
34.000,78.92
34.015,65.79
34.031,51.28
34.046,35.32
34.062,17.43
34.078,-3.34
34.093,-27.79
34.109,-55.4
34.125,-83.64
34.140,-108.51
34.156,-126.54
34.171,-136.96
34.187,-142.75
34.203,-149.48
34.218,-162.47
34.234,-184.06
34.250,-212.32
34.265,-242.16
34.281,-267.96
34.296,-285.8
34.312,-294.43
34.328,-294.52
34.343,-287.27
34.359,-273.66
34.375,-254.78
34.390,-232.58
34.406,-210.43
34.421,-192.41
34.437,-181.99
34.453,-180.53
34.468,-186.65
34.484,-196.63
34.500,-205.76
34.515,-209.99
34.531,-207.07
34.546,-197.08
34.562,-181.97
34.578,-164.56
34.593,-147.5
34.609,-132.47
34.625,-120.07
34.640,-110.03
34.656,-101.79
34.671,-94.84
34.687,-88.92
34.703,-83.9
34.718,-79.68
34.734,-76.06
34.750,-72.94
34.765,-70.35
34.781,-68.55
34.796,-67.92
34.812,-68.66
34.828,-70.6
34.843,-73.06
34.859,-75.02
34.875,-75.41
34.890,-73.4
34.906,-68.73
34.921,-61.75
34.937,-53.36
34.953,-44.52
34.968,-35.81
34.984,-26.88
35.000,-16.18
35.015,-1.16
35.031,21.08
35.046,52.6
35.062,93.67
35.078,142.18
35.093,193.92
35.109,243.72
35.125,286.74
35.140,319.72
35.156,341.4
35.171,352.47
35.187,354.9
35.203,351.27
35.218,343.88
35.234,334.17
35.250,322.38
35.265,307.61
35.281,288.6
35.296,264.52
35.312,235.76
35.328,204.0
35.343,171.7
35.359,141.12
35.375,113.38
35.390,88.11
35.406,63.58
35.421,37.37
35.437,7.05
35.453,-29.11
35.468,-71.47
35.484,-118.55
35.500,-167.04
35.515,-212.4
35.531,-250.14
35.546,-277.19
35.562,-292.6
35.578,-297.29
35.593,-292.92
35.609,-280.8
35.625,-261.57
35.640,-235.78
35.656,-204.77
35.671,-170.95
35.687,-137.2
35.703,-105.75
35.718,-77.29
35.734,-51.11
35.750,-26.05
35.765,-1.75
35.781,20.96
35.796,40.67
35.812,56.58
35.828,69.27
35.843,80.7
35.859,93.2
35.875,108.26
35.890,125.77
35.906,144.3
35.921,161.9
35.937,177.01
35.953,188.96
35.968,197.81
35.984,204.05
36.000,208.12
36.015,210.35
36.031,210.9
36.046,209.96
36.062,207.79
36.078,204.74
36.093,201.16
36.109,197.36
36.125,193.52
36.140,189.77
36.156,186.19
36.171,182.81
36.187,179.62
36.203,176.6
36.218,173.6
36.234,170.33
36.250,166.29
36.265,160.73
36.281,152.68
36.296,141.2
36.312,125.73
36.328,106.36
36.343,84.08
36.359,60.41
36.375,37.03
36.390,15.22
36.406,-4.62
36.421,-22.87
36.437,-40.38
36.453,-57.84
36.468,-75.42
36.484,-92.61
36.500,-108.53
36.515,-122.34
36.531,-133.69
36.546,-142.98
36.562,-151.27
36.578,-159.83
36.593,-169.72
36.609,-181.23
36.625,-193.65
36.640,-205.45
36.656,-214.69
36.671,-219.75
36.687,-219.85
36.703,-215.18
36.718,-206.77
36.734,-196.13
36.750,-185.03
36.765,-175.39
36.781,-169.19
36.796,-168.12
36.812,-173.12
36.828,-183.95
36.843,-199.22
36.859,-217.11
36.875,-236.3
36.890,-256.26
36.906,-276.73
36.921,-296.39
36.937,-311.83
36.953,-317.84
36.968,-309.19
36.984,-283.06
37.000,-240.64
37.015,-186.84
37.031,-128.13
37.046,-69.91
37.062,-15.03
37.078,35.95
37.093,82.95
37.109,124.85
37.125,159.25
37.140,183.69
37.156,197.17
37.171,200.9
37.187,197.47
37.203,189.33
37.218,177.8
37.234,163.13
37.250,145.64
37.265,126.76
37.281,109.15
37.296,95.46
37.312,86.85
37.328,82.1
37.343,78.16
37.359,71.96
37.375,61.95
37.390,48.78
37.406,34.4
37.421,20.77
37.437,8.82
37.453,-1.41
37.468,-9.85
37.484,-15.62
37.500,-16.91
37.515,-12.07
37.531,-0.86
37.546,14.79
37.562,30.97
37.578,43.18
37.593,48.04
37.609,44.49
37.625,33.95
37.640,19.46
37.656,4.11
37.671,-10.03
37.687,-22.37
37.703,-33.3
37.718,-43.4
37.734,-52.64
37.750,-60.26
37.765,-65.41
37.781,-68.08
37.796,-70.01
37.812,-74.45
37.828,-85.11
37.843,-104.35
37.859,-131.74
37.875,-163.82
37.890,-195.05
37.906,-219.67
37.921,-233.23
37.937,-233.5
37.953,-220.24
37.968,-194.73
37.984,-159.29
38.000,-117.31
38.015,-73.31
38.031,-32.82
38.046,-1.35
38.062,17.31
38.078,22.8
38.093,18.9
38.109,12.77
38.125,12.48
38.140,24.01
38.156,48.74
38.171,82.62
38.187,117.51
38.203,143.97
38.218,154.37
38.234,144.79
38.250,115.33
38.265,69.36
38.281,12.32
38.296,-48.88
38.312,-106.38
38.328,-152.12
38.343,-179.5
38.359,-185.44
38.375,-171.78
38.390,-144.8
38.406,-112.93
38.421,-83.49
38.437,-60.31
38.453,-43.19
38.468,-29.38
38.484,-15.74
38.500,-0.52
38.515,16.34
38.531,33.76
38.546,50.6
38.562,66.05
38.578,79.71
38.593,91.18
38.609,100.02
38.625,105.78
38.640,108.28
38.656,107.96
38.671,105.75
38.687,102.9
38.703,100.49
38.718,99.2
38.734,99.0
38.750,99.41
38.765,99.66
38.781,99.08
38.796,97.35
38.812,94.54
38.828,90.91
38.843,86.63
38.859,81.6
38.875,75.46
38.890,67.84
38.906,58.73
38.921,48.76
38.937,39.28
38.953,32.09
38.968,28.84
38.984,30.5
39.000,36.97
39.015,47.11
39.031,59.14
39.046,71.3
39.062,82.37
39.078,92.02
39.093,100.63
39.109,108.96
39.125,117.56
39.140,126.42
39.156,134.66
39.171,140.65
39.187,142.26
39.203,137.4
39.218,124.67
39.234,103.95
39.250,76.8
39.265,46.33
39.281,16.58
39.296,-8.44
39.312,-25.71
39.328,-33.84
39.343,-33.28
39.359,-25.94
39.375,-14.6
39.390,-2.3
39.406,8.19
39.421,14.71
39.437,15.96
39.453,11.63
39.468,2.34
39.484,-10.61
39.500,-25.54
39.515,-40.77
39.531,-54.83
39.546,-66.51
39.562,-74.91
39.578,-79.35
39.593,-79.56
39.609,-75.7
39.625,-68.45
39.640,-58.8
39.656,-47.83
39.671,-36.38
39.687,-24.98
39.703,-13.85
39.718,-3.15
39.734,6.84
39.750,15.66
39.765,22.81
39.781,27.83
39.796,30.56
39.812,31.14
39.828,30.05
39.843,27.88
39.859,25.26
39.875,22.63
39.890,20.26
39.906,18.21
39.921,16.35
39.937,14.48
39.953,12.38
39.968,10.01
39.984,7.39
40.000,4.59
40.015,1.65
40.031,-1.55
40.046,-5.17
40.062,-9.44
40.078,-14.46
40.093,-20.17
40.109,-26.42
40.125,-33.0
40.140,-39.61
40.156,-45.84
40.171,-51.02
40.187,-54.18
40.203,-54.32
40.218,-50.6
40.234,-42.79
40.250,-31.43
40.265,-17.79
40.281,-3.57
40.296,9.53
40.312,20.17
40.328,27.67
40.343,31.8
40.359,32.81
40.375,31.11
40.390,27.29
40.406,21.97
40.421,15.98
40.437,10.32
40.453,6.09
40.468,4.3
40.484,5.49
40.500,9.48
40.515,15.27
40.531,21.26
40.546,25.75
40.562,27.57
40.578,26.44
40.593,23.1
40.609,18.81
40.625,14.76
40.640,11.41
40.656,8.34
40.671,4.55
40.687,-1.02
40.703,-8.91
40.718,-18.84
40.734,-29.84
40.750,-40.48
40.765,-49.3
40.781,-55.1
40.796,-57.11
40.812,-55.13
40.828,-49.42
40.843,-40.69
40.859,-29.86
40.875,-17.83
40.890,-5.41
40.906,6.79
40.921,18.26
40.937,28.52
40.953,37.11
40.968,43.72
40.984,48.31
41.000,51.19
41.015,52.82
41.031,53.6
41.046,53.68
41.062,52.91
41.078,51.04
41.093,47.95
41.109,43.84
41.125,39.17
41.140,34.49
41.156,30.14
41.171,26.11
41.187,22.12
41.203,17.82
41.218,13.05
41.234,7.87
41.250,2.49
41.265,-2.89
41.281,-8.25
41.296,-13.69
41.312,-19.48
41.328,-25.79
41.343,-32.76
41.359,-40.45
41.375,-48.92
41.390,-58.17
41.406,-68.12
41.421,-78.36
41.437,-88.12
41.453,-96.2
41.468,-101.23
41.484,-101.99
41.500,-97.89
41.515,-89.08
41.531,-76.51
41.546,-61.62
41.562,-45.91
41.578,-30.55
41.593,-16.24
41.609,-3.21
41.625,8.42
41.640,18.49
41.656,26.68
41.671,32.54
41.687,35.83
41.703,36.63
41.718,35.46
41.734,33.11
41.750,30.39
41.765,27.89
41.781,25.89
41.796,24.34
41.812,23.03
41.828,21.73
41.843,20.24
41.859,18.45
41.875,16.27
41.890,13.67
41.906,10.63
41.921,7.15
41.937,3.23
41.953,-1.12
41.968,-5.91
41.984,-11.14
42.000,-16.84
42.015,-23.07
42.031,-29.93
42.046,-37.55
42.062,-45.96
42.078,-54.92
42.093,-63.78
42.109,-71.46
42.125,-76.66
42.140,-78.26
42.156,-75.55
42.171,-68.59
42.187,-58.02
42.203,-44.97
42.218,-30.65
42.234,-16.17
42.250,-2.45
42.265,9.83
42.281,20.19
42.296,28.34
42.312,34.17
42.328,37.79
42.343,39.49
42.359,39.63
42.375,38.52
42.390,36.38
42.406,33.26
42.421,29.23
42.437,24.48
42.453,19.44
42.468,14.84
42.484,11.54
42.500,10.35
42.515,11.71
42.531,15.61
42.546,21.55
42.562,28.75
42.578,36.48
42.593,44.23
42.609,51.88
42.625,59.6
42.640,67.7
42.656,76.34
42.671,85.3
42.687,93.77
42.703,100.44
42.718,103.76
42.734,102.48
42.750,96.19
42.765,85.61
42.781,72.59
42.796,59.69
42.812,49.57
42.828,44.32
42.843,44.87
42.859,50.67
42.875,59.76
42.890,69.27
42.906,76.2
42.921,78.29
42.937,74.74
42.953,66.35
42.968,55.12
42.984,43.47
43.000,33.22
43.015,25.08
43.031,18.55
43.046,12.45
43.062,5.56
43.078,-2.74
43.093,-12.22
43.109,-21.9
43.125,-30.39
43.140,-36.3
43.156,-38.6
43.171,-36.84
43.187,-31.29
43.203,-22.94
43.218,-13.32
43.234,-4.36
43.250,2.1
43.265,4.68
43.281,2.78
43.296,-3.37
43.312,-12.95
43.328,-24.85
43.343,-38.06
43.359,-51.76
43.375,-65.4
43.390,-78.6
43.406,-91.09
43.421,-102.62
43.437,-112.83
43.453,-121.11
43.468,-126.64
43.484,-128.43
43.500,-125.7
43.515,-118.18
43.531,-106.36
43.546,-91.36
43.562,-74.66
43.578,-57.65
43.593,-41.3
43.609,-26.2
43.625,-12.59
43.640,-0.52
43.656,9.9
43.671,18.6
43.687,25.56
43.703,30.96
43.718,35.12
43.734,38.48
43.750,41.35
43.765,43.87
43.781,45.95
43.796,47.42
43.812,48.15
43.828,48.25
43.843,48.02
43.859,47.86
43.875,48.02
43.890,48.42
43.906,48.68
43.921,48.35
43.937,47.07
43.953,44.85
43.968,41.96
43.984,38.8
44.000,35.71
44.015,32.79
44.031,29.96
44.046,27.08
44.062,24.04
44.078,20.91
44.093,17.86
44.109,15.15
44.125,12.95
44.140,11.27
44.156,10.03
44.171,8.97
44.187,7.85
44.203,6.49
44.218,4.82
44.234,2.87
44.250,0.82
44.265,-1.19
44.281,-3.09
44.296,-4.91
44.312,-6.79
44.328,-8.78
44.343,-10.84
44.359,-12.88
44.375,-14.84
44.390,-16.79
44.406,-18.98
44.421,-21.74
44.437,-25.24
44.453,-29.38
44.468,-33.73
44.484,-37.74
44.500,-41.06
44.515,-43.73
44.531,-46.16
44.546,-48.97
44.562,-52.55
44.578,-56.89
44.593,-61.62
44.609,-66.17
44.625,-70.15
44.640,-73.51
44.656,-76.57
44.671,-79.79
44.687,-83.61
44.703,-88.27
44.718,-93.78
44.734,-99.91
44.750,-106.15
44.765,-111.6
44.781,-115.03
44.796,-114.97
44.812,-110.19
44.828,-100.1
44.843,-85.04
44.859,-66.29
44.875,-45.69
44.890,-25.16
44.906,-6.26
44.921,10.09
44.937,23.54
44.953,34.08
44.968,41.84
44.984,46.95
45.000,49.52
45.015,49.75
45.031,48.07
45.046,45.06
45.062,41.37
45.078,37.61
45.093,34.15
45.109,31.11
45.125,28.37
45.140,25.73
45.156,22.91
45.171,19.71
45.187,15.98
45.203,11.61
45.218,6.56
45.234,0.86
45.250,-5.34
45.265,-11.8
45.281,-18.29
45.296,-24.61
45.312,-30.65
45.328,-36.49
45.343,-42.31
45.359,-48.37
45.375,-54.78
45.390,-61.36
45.406,-67.43
45.421,-71.9
45.437,-73.48
45.453,-71.06
45.468,-64.15
45.484,-53.1
45.500,-39.08
45.515,-23.71
45.531,-8.61
45.546,5.02
45.562,16.62
45.578,26.17
45.593,33.89
45.609,40.0
45.625,44.48
45.640,47.19
45.656,48.0
45.671,47.02
45.687,44.71
45.703,41.71
45.718,38.63
45.734,35.86
45.750,33.4
45.765,30.95
45.781,28.07
45.796,24.43
45.812,19.95
45.828,14.79
45.843,9.26
45.859,3.7
45.875,-1.69
45.890,-6.9
45.906,-12.07
45.921,-17.41
45.937,-23.18
45.953,-29.56
45.968,-36.68
45.984,-44.52
46.000,-52.8
46.015,-60.89
46.031,-67.75
46.046,-72.08
46.062,-72.61
46.078,-68.54
46.093,-59.78
46.109,-47.12
46.125,-32.0
46.140,-16.08
46.156,-0.81
46.171,12.87
46.187,24.56
46.203,34.23
46.218,41.96
46.234,47.73
46.250,51.4
46.265,52.91
46.281,52.37
46.296,50.12
46.312,46.74
46.328,42.83
46.343,38.84
46.359,35.0
46.375,31.31
46.390,27.67
46.406,23.99
46.421,20.23
46.437,16.35
46.453,12.37
46.468,8.29
46.484,4.03
46.500,-0.43
46.515,-5.13
46.531,-10.14
46.546,-15.52
46.562,-21.45
46.578,-28.08
46.593,-35.45
46.609,-43.37
46.625,-51.31
46.640,-58.38
46.656,-63.52
46.671,-65.7
46.687,-64.13
46.703,-58.58
46.718,-49.38
46.734,-37.34
46.750,-23.65
46.765,-9.53
46.781,3.98
46.796,16.13
46.812,26.49
46.828,34.93
46.843,41.37
46.859,45.77
46.875,48.1
46.890,48.42
46.906,46.94
46.921,44.15
46.937,40.66
46.953,37.04
46.968,33.69
46.984,30.67
47.000,27.76
47.015,24.56
47.031,20.76
47.046,16.2
47.062,11.01
47.078,5.44
47.093,-0.16
47.109,-5.61
47.125,-10.89
47.140,-16.2
47.156,-21.87
47.171,-28.29
47.187,-35.79
47.203,-44.54
47.218,-54.38
47.234,-64.7
47.250,-74.45
47.265,-82.21
47.281,-86.5
47.296,-86.24
47.312,-81.14
47.328,-71.78
47.343,-59.42
47.359,-45.63
47.375,-31.75
47.390,-18.7
47.406,-6.92
47.421,3.41
47.437,12.11
47.453,18.82
47.468,23.15
47.484,24.72
47.500,23.38
47.515,19.33
47.531,13.13
47.546,5.6
47.562,-2.28
47.578,-9.64
47.593,-15.92
47.609,-21.08
47.625,-25.65
47.640,-30.46
47.656,-36.23
47.671,-43.04
47.687,-50.19
47.703,-56.36
47.718,-60.23
47.734,-61.01
47.750,-58.82
47.765,-54.62
47.781,-49.68
47.796,-45.14
47.812,-41.65
47.828,-39.35
47.843,-38.02
47.859,-37.25
47.875,-36.48
47.890,-34.96
47.906,-31.8
47.921,-26.02
47.937,-16.89
47.953,-4.24
47.968,11.42
47.984,29.0
48.000,47.07
48.015,64.4
48.031,80.11
48.046,93.88
48.062,105.74
48.078,115.84
48.093,124.24
48.109,130.78
48.125,135.25
48.140,137.46
48.156,137.39
48.171,135.29
48.187,131.55
48.203,126.81
48.218,121.79
48.234,117.3
48.250,114.08
48.265,112.62
48.281,112.97
48.296,114.62
48.312,116.75
48.328,118.41
48.343,119.04
48.359,118.63
48.375,117.84
48.390,117.63
48.406,118.83
48.421,121.61
48.437,125.39
48.453,129.05
48.468,131.41
48.484,131.9
48.500,130.84
48.515,129.46
48.531,129.36
48.546,131.86
48.562,137.51
48.578,145.88
48.593,155.9
48.609,166.24
48.625,175.97
48.640,184.68
48.656,192.48
48.671,199.75
48.687,206.6
48.703,212.55
48.718,216.31
48.734,215.84
48.750,208.7
48.765,192.69
48.781,166.72
48.796,131.6
48.812,90.65
48.828,49.36
48.843,14.27
48.859,-8.89
48.875,-17.1
48.890,-11.19
48.906,4.32
48.921,22.69
48.937,37.04
48.953,42.29
48.968,36.2
48.984,19.15
49.000,-6.75
49.015,-38.75
49.031,-74.27
49.046,-111.28
49.062,-148.11
49.078,-183.54
49.093,-216.55
49.109,-246.4
49.125,-272.51
49.140,-294.19
49.156,-310.51
49.171,-320.31
49.187,-322.46
49.203,-316.26
49.218,-301.91
49.234,-280.56
49.250,-254.12
49.265,-224.77
49.281,-194.5
49.296,-164.79
49.312,-136.65
49.328,-110.83
49.343,-87.97
49.359,-68.56
49.375,-52.84
49.390,-40.6
49.406,-31.3
49.421,-24.19
49.437,-18.72
49.453,-14.57
49.468,-11.72
49.484,-10.15
49.500,-9.71
49.515,-9.92
49.531,-10.17
49.546,-9.94
49.562,-9.01
49.578,-7.67
49.593,-6.56
49.609,-6.43
49.625,-7.8
49.640,-10.83
49.656,-15.25
49.671,-20.5
49.687,-26.05
49.703,-31.54
49.718,-37.01
49.734,-42.78
49.750,-49.2
49.765,-56.27
49.781,-63.52
49.796,-69.93
49.812,-74.18
49.828,-75.13
49.843,-72.14
49.859,-65.33
49.875,-55.45
49.890,-43.6
49.906,-30.88
49.921,-18.15
49.937,-5.95
49.953,5.39
49.968,15.58
49.984,24.27
50.000,31.1
50.015,35.87
50.031,38.61
50.046,39.66
50.062,39.53
50.078,38.75
50.093,37.68
50.109,36.47
50.125,35.05
50.140,33.36
50.156,31.4
50.171,29.19
50.187,26.76
50.203,24.04
50.218,20.9
50.234,17.26
50.250,13.08
50.265,8.47
50.281,3.6
50.296,-1.36
50.312,-6.35
50.328,-11.36
50.343,-16.55
50.359,-22.06
50.375,-28.1
50.390,-34.9
50.406,-42.56
50.421,-50.96
50.437,-59.54
50.453,-67.32
50.468,-72.97
50.484,-75.17
50.500,-73.02
50.515,-66.31
50.531,-55.63
50.546,-42.18
50.562,-27.41
50.578,-12.59
50.593,1.4
50.609,14.18
50.625,25.59
50.640,35.56
50.656,43.91
50.671,50.35
50.687,54.65
50.703,56.79
50.718,57.11
50.734,56.23
50.750,54.88
50.765,53.68
50.781,52.98
50.796,52.85
50.812,53.11
50.828,53.59
50.843,54.17
50.859,54.8
50.875,55.44
50.890,55.95
50.906,56.11
50.921,55.71
50.937,54.69
50.953,53.15
50.968,51.48
50.984,50.06
51.000,49.12
51.015,48.63
51.031,48.29
51.046,47.7
51.062,46.57
51.078,44.86
51.093,42.71
51.109,40.37
51.125,37.98
51.140,35.48
51.156,32.69
51.171,29.43
51.187,25.68
51.203,21.64
51.218,17.63
51.234,13.92
51.250,10.65
51.265,7.71
51.281,4.9
51.296,2.06
51.312,-0.83
51.328,-3.64
51.343,-6.13
51.359,-8.15
51.375,-9.72
51.390,-11.04
51.406,-12.45
51.421,-14.24
51.437,-16.55
51.453,-19.35
51.468,-22.44
51.484,-25.53
51.500,-28.33
51.515,-30.69
51.531,-32.63
51.546,-34.34
51.562,-36.19
51.578,-38.54
51.593,-41.74
51.609,-45.93
51.625,-50.99
51.640,-56.58
51.656,-62.23
51.671,-67.54
51.687,-72.34
51.703,-76.79
51.718,-81.33
51.734,-86.5
51.750,-92.66
51.765,-99.67
51.781,-106.68
51.796,-112.27
51.812,-114.76
51.828,-112.7
51.843,-105.36
51.859,-92.97
51.875,-76.63
51.890,-57.99
51.906,-38.82
51.921,-20.68
51.937,-4.69
51.953,8.47
51.968,18.51
51.984,25.41
52.000,29.4
52.015,30.97
52.031,30.77
52.046,29.59
52.062,28.22
52.078,27.23
52.093,26.98
52.109,27.53
52.125,28.7
52.140,30.18
52.156,31.64
52.171,32.8
52.187,33.44
52.203,33.46
52.218,32.74
52.234,31.24
52.250,28.96
52.265,25.99
52.281,22.54
52.296,18.86
52.312,15.13
52.328,11.45
52.343,7.7
52.359,3.59
52.375,-1.23
52.390,-7.0
52.406,-13.61
52.421,-20.52
52.437,-26.73
52.453,-31.05
52.468,-32.38
52.484,-30.03
52.500,-23.93
52.515,-14.62
52.531,-3.14
52.546,9.29
52.562,21.53
52.578,32.71
52.593,42.31
52.609,50.16
52.625,56.27
52.640,60.74
52.656,63.73
52.671,65.37
52.687,65.84
52.703,65.42
52.718,64.5
52.734,63.43
52.750,62.49
52.765,61.79
52.781,61.26
52.796,60.78
52.812,60.24
52.828,59.62
52.843,58.97
52.859,58.31
52.875,57.63
52.890,56.81
52.906,55.71
52.921,54.28
52.937,52.51
52.953,50.47
52.968,48.27
52.984,45.99
53.000,43.66
53.015,41.35
53.031,39.06
53.046,36.76
53.062,34.41
53.078,31.94
53.093,29.27
53.109,26.4
53.125,23.38
53.140,20.28
53.156,17.2
53.171,14.12
53.187,11.0
53.203,7.75
53.218,4.34
53.234,0.82
53.250,-2.76
53.265,-6.34
53.281,-9.98
53.296,-13.73
53.312,-17.68
53.328,-21.83
53.343,-26.1
53.359,-30.38
53.375,-34.61
53.390,-38.79
53.406,-43.03
53.421,-47.47
53.437,-52.18
53.453,-57.22
53.468,-62.56
53.484,-68.13
53.500,-73.86
53.515,-79.7
53.531,-85.57
53.546,-91.52
53.562,-97.69
53.578,-104.35
53.593,-111.9
53.609,-120.58
53.625,-130.26
53.640,-140.19
53.656,-148.91
53.671,-154.65
53.687,-155.82
53.703,-151.54
53.718,-142.01
53.734,-128.43
53.750,-112.53
53.765,-96.06
53.781,-80.33
53.796,-66.18
53.812,-54.02
53.828,-44.09
53.843,-36.53
53.859,-31.35
53.875,-28.38
53.890,-27.15
53.906,-27.06
53.921,-27.51
53.937,-28.0
53.953,-28.23
53.968,-27.95
53.984,-26.97
54.000,-25.17
54.015,-22.52
54.031,-19.1
54.046,-15.21
54.062,-11.11
54.078,-7.03
54.093,-3.1
54.109,0.6
54.125,3.99
54.140,6.89
54.156,9.06
54.171,10.28
54.187,10.33
54.203,9.08
54.218,6.62
54.234,3.29
54.250,-0.11
54.265,-2.36
54.281,-2.04
54.296,2.09
54.312,10.65
54.328,23.38
54.343,39.32
54.359,57.16
54.375,75.77
54.390,94.4
54.406,112.64
54.421,130.11
54.437,146.21
54.453,160.05
54.468,170.72
54.484,177.63
54.500,180.63
54.515,180.06
54.531,176.41
54.546,169.94
54.562,160.45
54.578,147.33
54.593,129.8
54.609,107.39
54.625,80.29
54.640,49.54
54.656,17.01
54.671,-14.99
54.687,-44.13
54.703,-68.55
54.718,-87.26
54.734,-100.25
54.750,-108.52
54.765,-113.85
54.781,-118.46
54.796,-124.56
54.812,-133.74
54.828,-146.47
54.843,-161.83
54.859,-177.58
54.875,-190.72
54.890,-198.26
54.906,-198.1
54.921,-189.53
54.937,-173.31
54.953,-151.13
54.968,-125.06
54.984,-96.94
55.000,-68.13
55.015,-39.72
55.031,-12.71
55.046,11.75
55.062,32.47
55.078,48.56
55.093,59.68
55.109,66.21
55.125,69.11
55.140,69.51
55.156,68.38
55.171,66.39
55.187,63.92
55.203,61.25
55.218,58.62
55.234,56.25
55.250,54.06
55.265,51.53
55.281,47.7
55.296,41.23
55.312,30.86
55.328,15.87
55.343,-3.52
55.359,-26.01
55.375,-49.4
55.390,-71.11
55.406,-88.68
55.421,-100.23
55.437,-104.68
55.453,-101.77
55.468,-92.04
55.484,-76.72
55.500,-57.52
55.515,-36.46
55.531,-15.48
55.546,3.87
55.562,20.75
55.578,35.03
55.593,47.01
55.609,57.06
55.625,65.33
55.640,71.69
55.656,75.82
55.671,77.45
55.687,76.6
55.703,73.57
55.718,69.0
55.734,63.72
55.750,58.54
55.765,54.04
55.781,50.45
55.796,47.58
55.812,44.99
55.828,42.27
55.843,39.12
55.859,35.55
55.875,31.71
55.890,27.78
55.906,23.79
55.921,19.59
55.937,14.91
55.953,9.44
55.968,2.94
55.984,-4.7
56.000,-13.25
56.015,-22.12
56.031,-30.17
56.046,-35.88
56.062,-37.71
56.078,-34.56
56.093,-26.2
56.109,-13.44
56.125,2.14
56.140,18.65
56.156,34.33
56.171,47.94
56.187,58.79
56.203,66.59
56.218,71.42
56.234,73.52
56.250,73.31
56.265,71.24
56.281,67.68
56.296,62.82
56.312,56.57
56.328,48.8
56.343,39.48
56.359,28.93
56.375,17.82
56.390,7.06
56.406,-2.51
56.421,-10.33
56.437,-16.28
56.453,-20.52
56.468,-23.44
56.484,-25.49
56.500,-27.1
56.515,-28.67
56.531,-30.56
56.546,-33.05
56.562,-36.24
56.578,-40.09
56.593,-44.43
56.609,-49.06
56.625,-53.86
56.640,-58.84
56.656,-63.97
56.671,-69.06
56.687,-73.51
56.703,-76.3
56.718,-76.2
56.734,-72.11
56.750,-63.54
56.765,-50.8
56.781,-34.97
56.796,-17.54
56.812,0.1
56.828,16.92
56.843,32.39
56.859,46.24
56.875,58.28
56.890,68.15
56.906,75.42
56.921,79.83
56.937,81.45
56.953,80.79
56.968,78.73
56.984,76.19
57.000,73.88
57.015,72.06
57.031,70.6
57.046,69.08
57.062,67.11
57.078,64.48
57.093,61.23
57.109,57.6
57.125,53.9
57.140,50.34
57.156,46.91
57.171,43.47
57.187,39.83
57.203,35.94
57.218,31.9
57.234,27.91
57.250,24.16
57.265,20.72
57.281,17.42
57.296,13.94
57.312,10.0
57.328,5.33
57.343,-0.15
57.359,-6.42
57.375,-13.28
57.390,-20.26
57.406,-26.56
57.421,-31.1
57.437,-32.71
57.453,-30.39
57.468,-23.72
57.484,-12.94
57.500,1.04
57.515,16.94
57.531,33.46
57.546,49.53
57.562,64.44
57.578,77.77
57.593,89.24
57.609,98.58
57.625,105.57
57.640,110.18
57.656,112.55
57.671,113.12
57.687,112.51
57.703,111.3
57.718,109.95
57.734,108.57
57.750,107.01
57.765,105.1
57.781,102.74
57.796,100.03
57.812,97.27
57.828,94.69
57.843,92.35
57.859,90.02
57.875,87.19
57.890,83.26
57.906,77.8
57.921,70.7
57.937,62.21
57.953,52.86
57.968,43.26
57.984,33.91
58.000,25.03
58.015,16.56
58.031,8.25
58.046,-0.22
58.062,-9.11
58.078,-18.51
58.093,-28.29
58.109,-38.08
58.125,-47.24
58.140,-54.91
58.156,-60.15
58.171,-62.05
58.187,-60.09
58.203,-54.32
58.218,-45.42
58.234,-34.53
58.250,-22.97
58.265,-11.92
58.281,-2.11
58.296,6.06
58.312,12.51
58.328,17.18
58.343,20.04
58.359,21.06
58.375,20.37
58.390,18.35
58.406,15.5
58.421,12.42
58.437,9.52
58.453,7.05
58.468,4.97
58.484,3.18
58.500,1.51
58.515,-0.15
58.531,-1.87
58.546,-3.68
58.562,-5.6
58.578,-7.69
58.593,-10.02
58.609,-12.65
58.625,-15.58
58.640,-18.71
58.656,-21.95
58.671,-25.24
58.687,-28.66
58.703,-32.35
58.718,-36.58
58.734,-41.53
58.750,-47.18
58.765,-53.25
58.781,-59.19
58.796,-64.3
58.812,-67.73
58.828,-68.69
58.843,-66.57
58.859,-61.03
58.875,-52.24
58.890,-40.79
58.906,-27.69
58.921,-14.07
58.937,-1.08
58.953,10.39
58.968,19.66
58.984,26.37
59.000,30.4
59.015,31.84
59.031,31.03
59.046,28.48
59.062,24.81
59.078,20.67
59.093,16.58
59.109,12.92
59.125,9.85
59.140,7.36
59.156,5.31
59.171,3.47
59.187,1.54
59.203,-0.68
59.218,-3.35
59.234,-6.52
59.250,-10.13
59.265,-14.11
59.281,-18.34
59.296,-22.76
59.312,-27.31
59.328,-32.01
59.343,-36.94
59.359,-42.2
59.375,-47.93
59.390,-54.2
59.406,-60.77
59.421,-67.06
59.437,-72.02
59.453,-74.4
59.468,-73.06
59.484,-67.41
59.500,-57.68
59.515,-44.93
59.531,-30.79
59.546,-16.95
59.562,-4.77
59.578,5.04
59.593,12.35
59.609,17.43
59.625,20.58
59.640,21.98
59.656,21.62
59.671,19.56
59.687,15.97
59.703,11.36
59.718,6.39
59.734,1.83
59.750,-1.78
59.765,-4.21
59.781,-5.63
59.796,-6.52
59.812,-7.43
59.828,-8.84
59.843,-11.01
59.859,-13.96
59.875,-17.44
59.890,-21.01
59.906,-24.23
59.921,-26.79
59.937,-28.69
59.953,-30.31
59.968,-32.32
59.984,-35.47
