timestamp,value
00.000,52.44
00.015,49.14
00.031,44.51
00.046,39.19
00.062,33.93
00.078,29.47
00.093,26.29
00.109,24.42
00.125,23.26
00.140,21.9
00.156,19.33
00.171,14.9
00.187,8.57
00.203,0.96
00.218,-6.82
00.234,-13.47
00.250,-17.87
00.265,-19.54
00.281,-18.76
00.296,-16.63
00.312,-14.68
00.328,-14.3
00.343,-16.19
00.359,-20.04
00.375,-24.67
00.390,-28.47
00.406,-30.02
00.421,-28.48
00.437,-23.75
00.453,-16.21
00.468,-6.38
00.484,5.27
00.500,18.48
00.515,33.04
00.531,48.72
00.546,65.05
00.562,81.24
00.578,96.2
00.593,108.62
00.609,117.34
00.625,121.54
00.640,121.2
00.656,117.21
00.671,111.36
00.687,105.88
00.703,102.71
00.718,102.87
00.734,105.94
00.750,110.43
00.765,114.36
00.781,116.21
00.796,115.48
00.812,112.8
00.828,109.41
00.843,106.42
00.859,104.19
00.875,102.09
00.890,98.76
00.906,92.65
00.921,82.6
00.937,68.31
00.953,50.39
00.968,30.23
00.984,9.46
01.000,-10.66
01.015,-29.76
01.031,-48.29
01.046,-67.08
01.062,-86.76
01.078,-107.11
01.093,-127.13
01.109,-145.43
01.125,-160.84
01.140,-172.67
01.156,-180.82
01.171,-185.39
01.187,-186.29
01.203,-183.23
01.218,-175.6
01.234,-162.87
01.250,-144.78
01.265,-121.54
01.281,-93.83
01.296,-62.82
01.312,-30.07
01.328,2.7
01.343,33.67
01.359,61.04
01.375,82.94
01.390,97.52
01.406,103.11
01.421,98.63
01.437,84.07
01.453,60.71
01.468,31.0
01.484,-2.15
01.500,-36.03
01.515,-68.87
01.531,-99.79
01.546,-128.52
01.562,-154.81
01.578,-177.84
01.593,-196.13
01.609,-207.78
01.625,-211.2
01.640,-205.7
01.656,-192.01
01.671,-172.05
01.687,-148.52
01.703,-124.15
01.718,-101.04
01.734,-80.4
01.750,-62.55
01.765,-47.29
01.781,-34.03
01.796,-21.86
01.812,-9.61
01.828,4.08
01.843,20.26
01.859,39.1
01.875,59.42
01.890,78.76
01.906,93.93
01.921,102.07
01.937,101.56
01.953,92.6
01.968,77.02
01.984,57.72
02.000,37.81
02.015,19.89
02.031,5.64
02.046,-4.27
02.062,-9.97
02.078,-12.14
02.093,-11.81
02.109,-10.23
02.125,-8.72
02.140,-8.59
02.156,-11.02
02.171,-16.7
02.187,-25.71
02.203,-37.37
02.218,-50.46
02.234,-63.67
02.250,-76.02
02.265,-87.09
02.281,-96.89
02.296,-105.56
02.312,-112.9
02.328,-118.16
02.343,-120.13
02.359,-117.62
02.375,-109.86
02.390,-96.91
02.406,-79.74
02.421,-59.95
02.437,-39.4
02.453,-19.71
02.468,-1.95
02.484,13.56
02.500,27.06
02.515,39.13
02.531,50.42
02.546,61.38
02.562,72.19
02.578,82.75
02.593,92.82
02.609,101.95
02.625,109.47
02.640,114.39
02.656,115.48
02.671,111.49
02.687,101.51
02.703,85.32
02.718,63.53
02.734,37.56
02.750,9.29
02.765,-19.13
02.781,-45.61
02.796,-68.37
02.812,-86.08
02.828,-98.05
02.843,-104.29
02.859,-105.64
02.875,-103.61
02.890,-100.13
02.906,-97.06
02.921,-95.55
02.937,-95.81
02.953,-97.09
02.968,-98.07
02.984,-97.42
03.000,-94.3
03.015,-88.6
03.031,-80.88
03.046,-72.07
03.062,-63.17
03.078,-54.9
03.093,-47.61
03.109,-41.33
03.125,-35.85
03.140,-30.9
03.156,-26.28
03.171,-22.01
03.187,-18.27
03.203,-15.39
03.218,-13.61
03.234,-12.88
03.250,-12.85
03.265,-12.93
03.281,-12.52
03.296,-11.05
03.312,-8.2
03.328,-3.73
03.343,2.41
03.359,10.15
03.375,19.23
03.390,29.07
03.406,38.84
03.421,47.57
03.437,54.45
03.453,59.07
03.468,61.61
03.484,62.74
03.500,63.44
03.515,64.58
03.531,66.73
03.546,70.14
03.562,74.67
03.578,80.05
03.593,85.88
03.609,91.69
03.625,96.97
03.640,101.24
03.656,104.14
03.671,105.49
03.687,105.5
03.703,104.55
03.718,103.19
03.734,102.04
03.750,101.69
03.765,102.57
03.781,104.88
03.796,108.48
03.812,112.8
03.828,117.03
03.843,120.26
03.859,121.73
03.875,121.17
03.890,118.83
03.906,115.42
03.921,111.85
03.937,108.85
03.953,106.71
03.968,105.22
03.984,103.6
04.000,100.56
04.015,94.57
04.031,83.98
04.046,67.52
04.062,44.78
04.078,16.42
04.093,-15.86
04.109,-49.75
04.125,-83.05
04.140,-114.16
04.156,-141.97
04.171,-165.59
04.187,-183.83
04.203,-195.21
04.218,-198.72
04.234,-194.86
04.250,-186.22
04.265,-177.12
04.281,-172.25
04.296,-174.68
04.312,-184.64
04.328,-199.4
04.343,-214.33
04.359,-224.66
04.375,-226.85
04.390,-219.28
04.406,-202.37
04.421,-178.08
04.437,-149.47
04.453,-120.13
04.468,-93.5
04.484,-72.16
04.500,-57.27
04.515,-48.26
04.531,-43.2
04.546,-39.62
04.562,-35.27
04.578,-28.85
04.593,-20.14
04.609,-9.71
04.625,1.42
04.640,12.07
04.656,21.2
04.671,28.17
04.687,32.68
04.703,35.05
04.718,36.03
04.734,36.56
04.750,37.53
04.765,39.44
04.781,42.26
04.796,45.4
04.812,47.99
04.828,49.09
04.843,48.1
04.859,44.85
04.875,39.63
04.890,33.04
04.906,25.67
04.921,17.96
04.937,10.01
04.953,1.75
04.968,-7.01
04.984,-16.36
05.000,-26.07
05.015,-35.57
05.031,-43.81
05.046,-49.53
05.062,-51.52
05.078,-49.04
05.093,-42.09
05.109,-31.55
05.125,-18.86
05.140,-5.68
05.156,6.56
05.171,17.05
05.187,25.6
05.203,32.45
05.218,38.02
05.234,42.67
05.250,46.5
05.265,49.48
05.281,51.5
05.296,52.47
05.312,52.47
05.328,51.67
05.343,50.28
05.359,48.43
05.375,46.19
05.390,43.47
05.406,40.21
05.421,36.41
05.437,32.17
05.453,27.75
05.468,23.39
05.484,19.26
05.500,15.4
05.515,11.66
05.531,7.79
05.546,3.58
05.562,-1.1
05.578,-6.3
05.593,-11.92
05.609,-17.85
05.625,-23.85
05.640,-29.47
05.656,-33.99
05.671,-36.46
05.687,-35.97
05.703,-32.0
05.718,-24.64
05.734,-14.67
05.750,-3.4
05.765,7.76
05.781,17.66
05.796,25.68
05.812,31.72
05.828,36.04
05.843,38.96
05.859,40.68
05.875,41.23
05.890,40.47
05.906,38.31
05.921,34.92
05.937,30.77
05.953,26.67
05.968,23.51
05.984,21.98
06.000,22.31
06.015,24.27
06.031,27.25
06.046,30.54
06.062,33.61
06.078,36.19
06.093,38.26
06.109,39.87
06.125,41.09
06.140,41.87
06.156,42.1
06.171,41.67
06.187,40.54
06.203,38.7
06.218,36.29
06.234,33.57
06.250,31.09
06.265,29.7
06.281,30.49
06.296,34.48
06.312,42.26
06.328,53.63
06.343,67.53
06.359,82.21
06.375,95.71
06.390,106.39
06.406,113.3
06.421,116.21
06.437,115.48
06.453,111.89
06.468,106.48
06.484,100.61
06.500,95.99
06.515,94.48
06.531,97.64
06.546,106.17
06.562,119.69
06.578,136.86
06.593,155.84
06.609,174.63
06.625,191.07
06.640,202.78
06.656,206.96
06.671,200.83
06.687,182.41
06.703,151.36
06.718,109.36
06.734,59.5
06.750,5.33
06.765,-50.17
06.781,-104.78
06.796,-156.73
06.812,-204.2
06.828,-245.25
06.843,-278.26
06.859,-302.69
06.875,-319.43
06.890,-330.41
06.906,-337.57
06.921,-341.9
06.937,-342.95
06.953,-339.26
06.968,-329.21
06.984,-311.89
07.000,-287.58
07.015,-257.69
07.031,-224.45
07.046,-190.23
07.062,-157.26
07.078,-127.33
07.093,-101.54
07.109,-80.21
07.125,-62.99
07.140,-49.03
07.156,-37.27
07.171,-26.73
07.187,-16.67
07.203,-6.69
07.218,3.37
07.234,13.4
07.250,23.08
07.265,31.93
07.281,39.3
07.296,44.62
07.312,47.51
07.328,48.02
07.343,46.65
07.359,44.25
07.375,41.75
07.390,39.83
07.406,38.69
07.421,37.93
07.437,36.78
07.453,34.27
07.468,29.75
07.484,23.03
07.500,14.7
07.515,5.93
07.531,-1.75
07.546,-6.93
07.562,-8.71
07.578,-6.93
07.593,-2.16
07.609,4.62
07.625,12.32
07.640,20.04
07.656,27.23
07.671,33.71
07.687,39.6
07.703,45.2
07.718,50.77
07.734,56.48
07.750,62.23
07.765,67.76
07.781,72.65
07.796,76.54
07.812,79.18
07.828,80.55
07.843,80.71
07.859,79.72
07.875,77.63
07.890,74.39
07.906,70.05
07.921,64.76
07.937,58.77
07.953,52.35
07.968,45.74
07.984,39.05
08.000,32.31
08.015,25.44
08.031,18.35
08.046,10.94
08.062,3.16
08.078,-4.9
08.093,-13.06
08.109,-21.06
08.125,-28.53
08.140,-34.99
08.156,-39.92
08.171,-42.71
08.187,-42.8
08.203,-39.83
08.218,-33.79
08.234,-25.1
08.250,-14.65
08.265,-3.55
08.281,7.1
08.296,16.5
08.312,24.24
08.328,30.26
08.343,34.73
08.359,37.88
08.375,39.88
08.390,40.8
08.406,40.67
08.421,39.48
08.437,37.24
08.453,33.98
08.468,29.84
08.484,25.08
08.500,20.08
08.515,15.31
08.531,11.19
08.546,8.1
08.562,6.2
08.578,5.48
08.593,5.71
08.609,6.46
08.625,7.17
08.640,7.21
08.656,6.1
08.671,3.64
08.687,0.08
08.703,-4.01
08.718,-7.97
08.734,-11.29
08.750,-13.85
08.765,-15.85
08.781,-17.7
08.796,-19.7
08.812,-21.9
08.828,-23.91
08.843,-25.09
08.859,-24.6
08.875,-21.73
08.890,-16.08
08.906,-7.72
08.921,2.78
08.937,14.49
08.953,26.41
08.968,37.66
08.984,47.68
09.000,56.15
09.015,62.9
09.031,67.82
09.046,70.82
09.062,71.92
09.078,71.38
09.093,69.67
09.109,67.38
09.125,65.01
09.140,62.95
09.156,61.34
09.171,60.27
09.187,59.76
09.203,59.87
09.218,60.44
09.234,60.97
09.250,60.59
09.265,58.2
09.281,53.03
09.296,44.94
09.312,34.74
09.328,24.0
09.343,14.63
09.359,8.14
09.375,5.25
09.390,5.76
09.406,8.78
09.421,13.22
09.437,18.1
09.453,22.81
09.468,27.0
09.484,30.62
09.500,33.81
09.515,37.09
09.531,41.3
09.546,47.51
09.562,56.57
09.578,68.82
09.593,83.74
09.609,100.21
09.625,116.93
09.640,133.04
09.656,148.4
09.671,163.4
09.687,178.27
09.703,192.4
09.718,203.82
09.734,209.56
09.750,206.51
09.765,192.42
09.781,166.83
09.796,131.15
09.812,88.39
09.828,42.4
09.843,-2.77
09.859,-43.32
09.875,-76.09
09.890,-98.78
09.906,-110.33
09.921,-111.2
09.937,-103.46
09.953,-90.6
09.968,-77.08
09.984,-67.42
10.000,-65.31
10.015,-72.79
10.031,-89.76
10.046,-113.88
10.062,-141.21
10.078,-167.01
10.093,-187.02
10.109,-198.47
10.125,-200.52
10.140,-194.17
10.156,-181.89
10.171,-166.79
10.187,-152.11
10.203,-140.66
10.218,-134.51
10.234,-134.64
10.250,-140.8
10.265,-151.42
10.281,-163.92
10.296,-175.24
10.312,-182.38
10.328,-182.97
10.343,-175.42
10.359,-159.17
10.375,-134.63
10.390,-103.34
10.406,-67.9
10.421,-31.75
10.437,1.49
10.453,29.01
10.468,49.65
10.484,64.28
10.500,75.36
10.515,85.89
10.531,98.11
10.546,112.62
10.562,128.07
10.578,141.73
10.593,150.52
10.609,152.1
10.625,145.8
10.640,132.82
10.656,115.95
10.671,98.77
10.687,84.74
10.703,76.38
10.718,74.79
10.734,79.56
10.750,88.9
10.765,99.93
10.781,109.22
10.796,113.42
10.812,109.98
10.828,97.84
10.843,77.72
10.859,51.87
10.875,23.35
10.890,-4.89
10.906,-30.72
10.921,-53.08
10.937,-71.84
10.953,-87.39
10.968,-100.34
10.984,-111.27
11.000,-120.57
11.015,-128.21
11.031,-133.59
11.046,-135.52
11.062,-132.5
11.078,-123.38
11.093,-107.9
11.109,-87.1
11.125,-63.13
11.140,-38.63
11.156,-15.91
11.171,3.72
11.187,20.16
11.203,34.24
11.218,47.17
11.234,59.77
11.250,72.07
11.265,83.25
11.281,92.04
11.296,97.26
11.312,98.25
11.328,94.91
11.343,87.38
11.359,75.89
11.375,60.62
11.390,42.06
11.406,21.29
11.421,0.12
11.437,-19.29
11.453,-35.12
11.468,-46.48
11.484,-53.5
11.500,-56.87
11.515,-57.3
11.531,-55.23
11.546,-51.17
11.562,-46.18
11.578,-42.2
11.593,-41.65
11.609,-46.61
11.625,-57.81
11.640,-74.08
11.656,-92.77
11.671,-110.62
11.687,-124.99
11.703,-134.63
11.718,-139.8
11.734,-141.83
11.750,-142.34
11.765,-142.47
11.781,-142.43
11.796,-141.52
11.812,-138.45
11.828,-131.87
11.843,-120.98
11.859,-105.79
11.875,-87.18
11.890,-66.68
11.906,-46.12
11.921,-27.34
11.937,-11.93
11.953,-1.01
11.968,5.03
11.984,6.7
12.000,5.45
12.015,3.37
12.031,2.61
12.046,4.67
12.062,9.94
12.078,17.44
12.093,25.33
12.109,31.53
12.125,34.49
12.140,33.65
12.156,29.47
12.171,23.08
12.187,15.78
12.203,8.44
12.218,1.21
12.234,-6.41
12.250,-15.19
12.265,-25.61
12.281,-37.31
12.296,-48.89
12.312,-58.26
12.328,-63.27
12.343,-62.55
12.359,-55.96
12.375,-44.61
12.390,-30.38
12.406,-15.36
12.421,-1.21
12.437,11.01
12.453,20.84
12.468,28.09
12.484,32.72
12.500,34.74
12.515,34.37
12.531,32.02
12.546,28.25
12.562,23.67
12.578,18.79
12.593,13.96
12.609,9.3
12.625,4.84
12.640,0.56
12.656,-3.49
12.671,-7.19
12.687,-10.33
12.703,-12.71
12.718,-14.22
12.734,-14.97
12.750,-15.26
12.765,-15.55
12.781,-16.28
12.796,-17.75
12.812,-19.98
12.828,-22.68
12.843,-25.44
12.859,-27.95
12.875,-30.11
12.890,-32.19
12.906,-34.66
12.921,-37.97
12.937,-42.34
12.953,-47.44
12.968,-52.37
12.984,-55.81
13.000,-56.36
13.015,-53.0
13.031,-45.46
13.046,-34.35
13.062,-20.99
13.078,-6.99
13.093,6.23
13.109,17.81
13.125,27.51
13.140,35.51
13.156,42.1
13.171,47.46
13.187,51.58
13.203,54.41
13.218,56.02
13.234,56.68
13.250,56.78
13.265,56.63
13.281,56.38
13.296,55.89
13.312,54.94
13.328,53.37
13.343,51.22
13.359,48.69
13.375,46.08
13.390,43.54
13.406,41.02
13.421,38.25
13.437,34.89
13.453,30.61
13.468,25.39
13.484,19.44
13.500,13.14
13.515,6.92
13.531,1.0
13.546,-4.61
13.562,-10.11
13.578,-15.76
13.593,-21.71
13.609,-27.88
13.625,-33.85
13.640,-38.94
13.656,-42.26
13.671,-42.95
13.687,-40.34
13.703,-34.21
13.718,-24.92
13.734,-13.33
13.750,-0.55
13.765,12.26
13.781,24.21
13.796,34.72
13.812,43.56
13.828,50.69
13.843,56.17
13.859,60.12
13.875,62.66
13.890,63.96
13.906,64.23
13.921,63.69
13.937,62.52
13.953,60.86
13.968,58.8
13.984,56.5
14.000,54.16
14.015,51.97
14.031,49.99
14.046,48.09
14.062,45.91
14.078,42.95
14.093,38.75
14.109,33.06
14.125,26.02
14.140,18.13
14.156,10.03
14.171,2.4
14.187,-4.37
14.203,-10.1
14.218,-14.94
14.234,-19.26
14.250,-23.49
14.265,-28.06
14.281,-33.16
14.296,-38.65
14.312,-43.91
14.328,-47.94
14.343,-49.54
14.359,-47.64
14.375,-41.73
14.390,-32.12
14.406,-19.9
14.421,-6.61
14.437,6.13
14.453,17.13
14.468,25.77
14.484,31.99
14.500,36.19
14.515,38.83
14.531,40.35
14.546,41.04
14.562,41.12
14.578,40.77
14.593,40.17
14.609,39.39
14.625,38.4
14.640,37.02
14.656,35.06
14.671,32.41
14.687,29.18
14.703,25.68
14.718,22.29
14.734,19.28
14.750,16.7
14.765,14.33
14.781,11.87
14.796,9.05
14.812,5.75
14.828,2.07
14.843,-1.85
14.859,-5.9
14.875,-9.97
14.890,-14.04
14.906,-18.15
14.921,-22.39
14.937,-26.77
14.953,-31.19
14.968,-35.14
14.984,-37.9
15.000,-38.53
15.015,-36.27
15.031,-30.88
15.046,-22.81
15.062,-13.09
15.078,-3.02
15.093,6.28
15.109,14.16
15.125,20.43
15.140,25.25
15.156,28.87
15.171,31.5
15.187,33.18
15.203,33.92
15.218,33.75
15.234,32.76
15.250,31.22
15.265,29.35
15.281,27.36
15.296,25.43
15.312,23.61
15.328,21.95
15.343,20.52
15.359,19.37
15.375,18.44
15.390,17.61
15.406,16.54
15.421,14.87
15.437,12.37
15.453,9.06
15.468,5.29
15.484,1.59
15.500,-1.56
15.515,-3.97
15.531,-5.79
15.546,-7.45
15.562,-9.47
15.578,-12.14
15.593,-15.41
15.609,-18.84
15.625,-21.67
15.640,-23.08
15.656,-22.27
15.671,-18.68
15.687,-12.15
15.703,-2.88
15.718,8.54
15.734,21.2
15.750,34.23
15.765,46.84
15.781,58.56
15.796,69.14
15.812,78.53
15.828,86.79
15.843,93.98
15.859,100.15
15.875,105.32
15.890,109.54
15.906,112.98
15.921,115.93
15.937,118.97
15.953,122.77
15.968,127.88
15.984,134.3
16.000,141.15
16.015,146.53
16.031,147.92
16.046,142.8
16.062,129.37
16.078,107.1
16.093,76.87
16.109,40.84
16.125,2.03
16.140,-36.1
16.156,-70.17
16.171,-97.33
16.187,-115.83
16.203,-125.34
16.218,-127.05
16.234,-123.42
16.250,-117.48
16.265,-112.05
16.281,-108.97
16.296,-108.75
16.312,-110.63
16.328,-112.93
16.343,-113.82
16.359,-111.85
16.375,-106.45
16.390,-97.89
16.406,-86.95
16.421,-74.46
16.437,-60.82
16.453,-45.86
16.468,-29.01
16.484,-9.81
16.500,11.73
16.515,34.86
16.531,58.21
16.546,80.23
16.562,99.61
16.578,115.6
16.593,128.03
16.609,137.34
16.625,144.32
16.640,149.94
16.656,155.02
16.671,160.03
16.687,164.8
16.703,168.34
16.718,168.97
16.734,164.61
16.750,153.39
16.765,134.48
16.781,108.48
16.796,77.55
16.812,44.83
16.828,13.56
16.843,-13.88
16.859,-36.45
16.875,-54.49
16.890,-69.29
16.906,-82.4
16.921,-95.15
16.937,-108.19
16.953,-121.38
16.968,-133.84
16.984,-144.13
17.000,-150.63
17.015,-152.16
17.031,-148.62
17.046,-141.19
17.062,-132.14
17.078,-123.98
17.093,-118.55
17.109,-116.36
17.125,-116.66
17.140,-117.91
17.156,-118.52
17.171,-117.41
17.187,-114.07
17.203,-108.58
17.218,-101.15
17.234,-92.08
17.250,-81.79
17.265,-70.75
17.281,-59.6
17.296,-48.89
17.312,-39.05
17.328,-30.15
17.343,-22.05
17.359,-14.6
17.375,-7.77
17.390,-1.77
17.406,3.12
17.421,6.77
17.437,9.47
17.453,11.92
17.468,15.2
17.484,20.26
17.500,27.56
17.515,36.78
17.531,46.79
17.546,56.07
17.562,63.01
17.578,66.4
17.593,65.73
17.609,61.27
17.625,54.02
17.640,45.48
17.656,37.22
17.671,30.42
17.687,25.59
17.703,22.46
17.718,20.21
17.734,17.89
17.750,14.89
17.765,11.05
17.781,6.62
17.796,1.93
17.812,-2.81
17.828,-7.64
17.843,-12.67
17.859,-17.76
17.875,-22.36
17.890,-25.55
17.906,-26.26
17.921,-23.7
17.937,-17.72
17.953,-8.88
17.968,1.67
17.984,12.59
18.000,22.9
18.015,32.31
18.031,41.25
18.046,50.49
18.062,60.54
18.078,71.16
18.093,81.32
18.109,89.59
18.125,94.71
18.140,96.25
18.156,94.67
18.171,91.15
18.187,87.0
18.203,83.2
18.218,80.08
18.234,77.27
18.250,73.94
18.265,69.1
18.281,61.88
18.296,51.75
18.312,38.6
18.328,22.77
18.343,5.2
18.359,-12.65
18.375,-28.92
18.390,-41.63
18.406,-49.03
18.421,-49.82
18.437,-43.47
18.453,-30.24
18.468,-11.05
18.484,12.69
18.500,39.42
18.515,67.41
18.531,94.87
18.546,119.71
18.562,139.5
18.578,151.71
18.593,154.39
18.609,146.91
18.625,130.57
18.640,108.38
18.656,84.05
18.671,60.76
18.687,39.93
18.703,20.97
18.718,1.99
18.734,-18.9
18.750,-42.54
18.765,-68.3
18.781,-94.55
18.796,-119.4
18.812,-141.38
18.828,-159.7
18.843,-174.11
18.859,-184.68
18.875,-191.76
18.890,-196.12
18.906,-199.13
18.921,-202.53
18.937,-207.9
18.953,-216.05
18.968,-226.49
18.984,-237.46
19.000,-246.29
19.015,-250.37
19.031,-248.01
19.046,-239.09
19.062,-225.19
19.078,-209.07
19.093,-193.76
19.109,-181.43
19.125,-172.7
19.140,-166.61
19.156,-161.02
19.171,-153.5
19.187,-142.19
19.203,-126.31
19.218,-106.38
19.234,-84.03
19.250,-61.56
19.265,-41.46
19.281,-25.84
19.296,-15.92
19.312,-11.66
19.328,-11.81
19.343,-14.28
19.359,-16.76
19.375,-17.5
19.390,-15.55
19.406,-10.83
19.421,-3.89
19.437,4.51
19.453,13.58
19.468,22.57
19.484,30.75
19.500,37.57
19.515,42.64
19.531,45.87
19.546,47.54
19.562,48.14
19.578,48.26
19.593,48.41
19.609,48.85
19.625,49.61
19.640,50.58
19.656,51.57
19.671,52.42
19.687,53.12
19.703,53.75
19.718,54.45
19.734,55.29
19.750,56.13
19.765,56.68
19.781,56.56
19.796,55.53
19.812,53.66
19.828,51.32
19.843,49.07
19.859,47.41
19.875,46.53
19.890,46.22
19.906,45.97
19.921,45.22
19.937,43.59
19.953,41.07
19.968,37.94
19.984,34.63
20.000,31.5
20.015,28.74
20.031,26.28
20.046,23.95
20.062,21.53
20.078,18.86
20.093,15.87
20.109,12.64
20.125,9.22
20.140,5.77
20.156,2.38
20.171,-0.99
20.187,-4.47
20.203,-8.28
20.218,-12.55
20.234,-17.29
20.250,-22.24
20.265,-27.09
20.281,-31.54
20.296,-35.54
20.312,-39.29
20.328,-43.15
20.343,-47.47
20.359,-52.48
20.375,-58.19
20.390,-64.25
20.406,-69.95
20.421,-74.27
20.437,-76.06
20.453,-74.32
20.468,-68.6
20.484,-59.11
20.500,-46.79
20.515,-33.01
20.531,-19.21
20.546,-6.56
20.562,4.21
20.578,12.83
20.593,19.31
20.609,23.88
20.625,26.93
20.640,28.85
20.656,30.05
20.671,30.84
20.687,31.49
20.703,32.05
20.718,32.5
20.734,32.74
20.750,32.63
20.765,32.14
20.781,31.31
20.796,30.27
20.812,29.11
20.828,27.87
20.843,26.49
20.859,24.81
20.875,22.67
20.890,19.97
20.906,16.74
20.921,13.04
20.937,9.01
20.953,4.73
20.968,0.24
20.984,-4.43
21.000,-9.29
21.015,-14.36
21.031,-19.62
21.046,-24.9
21.062,-29.78
21.078,-33.53
21.093,-35.27
21.109,-34.25
21.125,-30.11
21.140,-23.09
21.156,-13.94
21.171,-3.75
21.187,6.46
21.203,15.87
21.218,24.07
21.234,30.89
21.250,36.3
21.265,40.32
21.281,42.97
21.296,44.33
21.312,44.52
21.328,43.72
21.343,42.21
21.359,40.31
21.375,38.4
21.390,36.82
21.406,35.83
21.421,35.5
21.437,35.64
21.453,35.83
21.468,35.53
21.484,34.27
21.500,31.8
21.515,28.18
21.531,23.7
21.546,18.8
21.562,13.84
21.578,9.05
21.593,4.45
21.609,-0.1
21.625,-4.76
21.640,-9.67
21.656,-14.95
21.671,-20.72
21.687,-26.95
21.703,-33.37
21.718,-39.23
21.734,-43.35
21.750,-44.36
21.765,-41.2
21.781,-33.58
21.796,-22.24
21.812,-8.8
21.828,4.85
21.843,17.08
21.859,27.01
21.875,34.51
21.890,40.0
21.906,43.98
21.921,46.84
21.937,48.71
21.953,49.54
21.968,49.24
21.984,47.85
22.000,45.53
22.015,42.59
22.031,39.47
22.046,36.58
22.062,34.28
22.078,32.64
22.093,31.51
22.109,30.48
22.125,29.02
22.140,26.7
22.156,23.41
22.171,19.48
22.187,15.6
22.203,12.52
22.218,10.81
22.234,10.59
22.250,11.48
22.265,12.68
22.281,13.18
22.296,12.16
22.312,9.24
22.328,4.56
22.343,-1.23
22.359,-7.25
22.375,-12.62
22.390,-16.62
22.406,-18.9
22.421,-19.41
22.437,-18.31
22.453,-15.8
22.468,-12.15
22.484,-7.59
22.500,-2.41
22.515,3.06
22.531,8.52
22.546,13.76
22.562,18.77
22.578,23.69
22.593,28.68
22.609,33.84
22.625,39.11
22.640,44.33
22.656,49.13
22.671,53.16
22.687,55.93
22.703,57.04
22.718,56.22
22.734,53.54
22.750,49.53
22.765,45.14
22.781,41.51
22.796,39.5
22.812,39.39
22.828,40.68
22.843,42.28
22.859,42.96
22.875,41.74
22.890,38.17
22.906,32.36
22.921,24.76
22.937,15.83
22.953,5.95
22.968,-4.7
22.984,-15.99
23.000,-27.55
23.015,-38.72
23.031,-48.6
23.046,-56.23
23.062,-60.86
23.078,-62.15
23.093,-60.27
23.109,-55.72
23.125,-49.15
23.140,-41.07
23.156,-31.84
23.171,-21.78
23.187,-11.23
23.203,-0.79
23.218,8.77
23.234,16.71
23.250,22.55
23.265,26.28
23.281,28.33
23.296,29.3
23.312,29.7
23.328,29.87
23.343,29.82
23.359,29.47
23.375,28.83
23.390,27.96
23.406,26.97
23.421,25.95
23.437,24.84
23.453,23.49
23.468,21.73
23.484,19.37
23.500,16.28
23.515,12.43
23.531,7.93
23.546,2.98
23.562,-2.05
23.578,-6.79
23.593,-11.04
23.609,-14.79
23.625,-18.33
23.640,-22.01
23.656,-26.15
23.671,-30.85
23.687,-35.98
23.703,-41.16
23.718,-45.9
23.734,-49.58
23.750,-51.54
23.765,-51.16
23.781,-47.97
23.796,-41.77
23.812,-32.88
23.828,-22.03
23.843,-10.23
23.859,1.37
23.875,11.9
23.890,20.82
23.906,27.97
23.921,33.51
23.937,37.73
23.953,40.83
23.968,42.92
23.984,44.08
24.000,44.36
24.015,43.9
24.031,42.92
24.046,41.53
24.062,39.76
24.078,37.53
24.093,34.73
24.109,31.44
24.125,27.92
24.140,24.59
24.156,21.83
24.171,19.81
24.187,18.37
24.203,17.03
24.218,15.16
24.234,12.32
24.250,8.39
24.265,3.69
24.281,-1.2
24.296,-5.67
24.312,-9.3
24.328,-12.03
24.343,-14.09
24.359,-15.98
24.375,-18.23
24.390,-21.23
24.406,-25.2
24.421,-29.91
24.437,-34.78
24.453,-38.77
24.468,-40.69
24.484,-39.49
24.500,-34.66
24.515,-26.4
24.531,-15.58
24.546,-3.43
24.562,8.9
24.578,20.49
24.593,30.92
24.609,40.08
24.625,48.04
24.640,54.9
24.656,60.65
24.671,65.09
24.687,67.94
24.703,68.86
24.718,67.56
24.734,63.92
24.750,58.04
24.765,50.22
24.781,40.89
24.796,30.62
24.812,20.06
24.828,9.96
24.843,1.13
24.859,-5.72
24.875,-10.16
24.890,-12.21
24.906,-12.36
24.921,-11.42
24.937,-10.35
24.953,-9.89
24.968,-10.54
24.984,-12.41
25.000,-15.38
25.015,-19.21
25.031,-23.64
25.046,-28.42
25.062,-33.29
25.078,-38.06
25.093,-42.52
25.109,-46.53
25.125,-49.94
25.140,-52.61
25.156,-54.33
25.171,-54.92
25.187,-54.15
25.203,-51.92
25.218,-48.22
25.234,-43.22
25.250,-37.06
25.265,-29.86
25.281,-21.75
25.296,-12.85
25.312,-3.47
25.328,5.86
25.343,14.39
25.359,21.42
25.375,26.45
25.390,29.41
25.406,30.6
25.421,30.62
25.437,30.16
25.453,29.84
25.468,30.02
25.484,30.67
25.500,31.33
25.515,31.07
25.531,28.79
25.546,23.66
25.562,15.59
25.578,5.46
25.593,-5.07
25.609,-14.07
25.625,-20.13
25.640,-22.69
25.656,-22.11
25.671,-19.28
25.687,-15.19
25.703,-10.7
25.718,-6.59
25.734,-3.68
25.750,-2.79
25.765,-4.45
25.781,-8.67
25.796,-14.72
25.812,-21.44
25.828,-27.61
25.843,-32.4
25.859,-35.38
25.875,-36.48
25.890,-35.6
25.906,-32.57
25.921,-27.31
25.937,-19.99
25.953,-11.26
25.968,-2.17
25.984,6.1
26.000,12.54
26.015,16.57
26.031,18.09
26.046,17.52
26.062,15.63
26.078,13.35
26.093,11.48
26.109,10.48
26.125,10.35
26.140,10.68
26.156,10.99
26.171,10.9
26.187,10.41
26.203,9.8
26.218,9.46
26.234,9.66
26.250,10.48
26.265,11.84
26.281,13.55
26.296,15.5
26.312,17.67
26.328,20.05
26.343,22.56
26.359,24.97
26.375,26.99
26.390,28.42
26.406,29.35
26.421,30.21
26.437,31.7
26.453,34.52
26.468,39.13
26.484,45.48
26.500,53.11
26.515,61.32
26.531,69.45
26.546,76.99
26.562,83.61
26.578,88.89
26.593,92.27
26.609,93.09
26.625,91.02
26.640,86.44
26.656,80.72
26.671,75.93
26.687,74.21
26.703,76.9
26.718,83.98
26.734,93.84
26.750,103.8
26.765,110.8
26.781,112.11
26.796,105.78
26.812,90.85
26.828,67.39
26.843,36.6
26.859,0.98
26.875,-35.82
26.890,-69.41
26.906,-95.64
26.921,-111.68
26.937,-117.04
26.953,-113.65
26.968,-105.33
26.984,-96.42
27.000,-90.45
27.015,-89.27
27.031,-92.92
27.046,-100.13
27.062,-109.13
27.078,-118.4
27.093,-126.9
27.109,-134.05
27.125,-139.56
27.140,-143.23
27.156,-144.97
27.171,-144.93
27.187,-143.54
27.203,-141.41
27.218,-139.03
27.234,-136.58
27.250,-133.81
27.265,-130.19
27.281,-125.25
27.296,-118.87
27.312,-111.48
27.328,-103.9
27.343,-97.07
27.359,-91.56
27.375,-87.29
27.390,-83.55
27.406,-79.24
27.421,-73.24
27.437,-64.81
27.453,-53.71
27.468,-40.33
27.484,-25.4
27.500,-9.82
27.515,5.62
27.531,20.32
27.546,33.93
27.562,46.24
27.578,57.07
27.593,66.3
27.609,73.81
27.625,79.59
27.640,83.74
27.656,86.57
27.671,88.53
27.687,90.04
27.703,91.46
27.718,92.94
27.734,94.43
27.750,95.66
27.765,96.31
27.781,96.09
27.796,94.86
27.812,92.69
27.828,89.85
27.843,86.66
27.859,83.51
27.875,80.74
27.890,78.64
27.906,77.44
27.921,77.36
27.937,78.66
27.953,81.76
27.968,87.12
27.984,94.94
28.000,104.88
28.015,115.79
28.031,125.87
28.046,133.26
28.062,136.64
28.078,135.76
28.093,131.49
28.109,125.35
28.125,118.89
28.140,113.27
28.156,109.06
28.171,106.34
28.187,104.68
28.203,103.04
28.218,99.56
28.234,91.73
28.250,76.86
28.265,53.13
28.281,20.53
28.296,-18.68
28.312,-60.24
28.328,-98.97
28.343,-130.15
28.359,-150.84
28.375,-160.37
28.390,-160.22
28.406,-153.2
28.421,-142.48
28.437,-130.71
28.453,-119.62
28.468,-109.86
28.484,-101.24
28.500,-92.93
28.515,-83.72
28.531,-72.37
28.546,-58.01
28.562,-40.56
28.578,-20.95
28.593,-0.94
28.609,17.44
28.625,32.52
28.640,43.62
28.656,51.08
28.671,56.01
28.687,59.71
28.703,63.16
28.718,66.49
28.734,68.84
28.750,68.48
28.765,63.28
28.781,51.59
28.796,33.18
28.812,9.83
28.828,-14.83
28.843,-36.39
28.859,-51.23
28.875,-57.91
28.890,-57.65
28.906,-53.83
28.921,-50.76
28.937,-52.04
28.953,-59.52
28.968,-72.74
28.984,-89.26
29.000,-105.56
29.015,-118.18
29.031,-124.67
29.046,-124.31
29.062,-118.17
29.078,-108.45
29.093,-97.78
29.109,-88.26
29.125,-81.11
29.140,-76.6
29.156,-74.42
29.171,-73.94
29.187,-74.49
29.203,-75.31
29.218,-75.53
29.234,-74.34
29.250,-71.19
29.265,-66.09
29.281,-59.68
29.296,-53.11
29.312,-47.64
29.328,-44.2
29.343,-43.22
29.359,-44.49
29.375,-47.5
29.390,-51.58
29.406,-56.23
29.421,-61.18
29.437,-66.47
29.453,-72.3
29.468,-78.88
29.484,-86.09
29.500,-93.22
29.515,-98.97
29.531,-101.59
29.546,-99.57
29.562,-92.21
29.578,-79.99
29.593,-64.4
29.609,-47.51
29.625,-31.34
29.640,-17.45
29.656,-6.97
29.671,-0.57
29.687,1.47
29.703,-0.67
29.718,-6.14
29.734,-13.5
29.750,-20.87
29.765,-26.58
29.781,-29.52
29.796,-29.45
29.812,-26.94
29.828,-22.95
29.843,-18.55
29.859,-14.54
29.875,-11.38
29.890,-9.16
29.906,-7.77
29.921,-6.9
29.937,-6.39
29.953,-6.15
29.968,-6.21
29.984,-6.61
30.000,-7.26
30.015,-7.92
30.031,-8.38
30.046,-8.51
30.062,-8.39
30.078,-8.3
30.093,-8.56
30.109,-9.47
30.125,-11.11
30.140,-13.43
30.156,-16.13
30.171,-18.67
30.187,-20.21
30.203,-19.69
30.218,-16.01
30.234,-8.44
30.250,3.15
30.265,18.06
30.281,34.96
30.296,52.25
30.312,68.47
30.328,82.77
30.343,94.93
30.359,105.17
30.375,113.94
30.390,121.57
30.406,128.11
30.421,133.44
30.437,137.31
30.453,139.51
30.468,140.02
30.484,139.06
30.500,136.99
30.515,134.31
30.531,131.5
30.546,128.89
30.562,126.56
30.578,124.34
30.593,121.78
30.609,118.22
30.625,112.92
30.640,105.02
30.656,93.68
30.671,78.18
30.687,58.17
30.703,33.67
30.718,5.14
30.734,-26.79
30.750,-61.49
30.765,-98.38
30.781,-136.64
30.796,-174.82
30.812,-210.61
30.828,-240.91
30.843,-262.37
30.859,-272.22
30.875,-268.99
30.890,-252.93
30.906,-225.86
30.921,-190.69
30.937,-150.64
30.953,-108.8
30.968,-67.75
30.984,-29.5
31.000,4.45
31.015,33.07
31.031,55.77
31.046,72.3
31.062,82.66
31.078,87.09
31.093,85.88
31.109,79.59
31.125,69.2
31.140,56.1
31.156,42.14
31.171,29.19
31.187,18.77
31.203,11.81
31.218,8.48
31.234,8.24
31.250,10.17
31.265,13.04
31.281,15.45
31.296,16.01
31.312,13.52
31.328,7.36
31.343,-2.2
31.359,-13.86
31.375,-25.64
31.390,-35.46
31.406,-41.88
31.421,-44.64
31.437,-44.61
31.453,-43.42
31.468,-42.71
31.484,-43.35
31.500,-45.11
31.515,-46.79
31.531,-46.67
31.546,-43.25
31.562,-35.86
31.578,-24.84
31.593,-11.41
31.609,2.73
31.625,16.0
31.640,27.38
31.656,36.54
31.671,43.82
31.687,49.85
31.703,55.22
31.718,60.23
31.734,64.8
31.750,68.61
31.765,71.35
31.781,72.91
31.796,73.44
31.812,73.29
31.828,72.72
31.843,71.8
31.859,70.47
31.875,68.64
31.890,66.42
31.906,64.27
31.921,62.74
31.937,62.25
31.953,62.84
31.968,64.07
31.984,65.19
32.000,65.49
32.015,64.54
32.031,62.25
32.046,58.91
32.062,54.96
32.078,50.85
32.093,46.96
32.109,43.54
32.125,40.7
32.140,38.35
32.156,36.3
32.171,34.3
32.187,32.21
32.203,30.01
32.218,27.81
32.234,25.76
32.250,23.93
32.265,22.31
32.281,20.83
32.296,19.46
32.312,18.24
32.328,17.29
32.343,16.63
32.359,16.18
32.375,15.63
32.390,14.62
32.406,12.83
32.421,10.17
32.437,6.85
32.453,3.38
32.468,0.34
32.484,-1.88
32.500,-3.19
32.515,-3.92
32.531,-4.62
32.546,-5.87
32.562,-7.98
32.578,-10.94
32.593,-14.45
32.609,-18.1
32.625,-21.56
32.640,-24.68
32.656,-27.53
32.671,-30.25
32.687,-32.95
32.703,-35.72
32.718,-38.58
32.734,-41.54
32.750,-44.67
32.765,-48.04
32.781,-51.67
32.796,-55.6
32.812,-59.85
32.828,-64.42
32.843,-69.3
32.859,-74.43
32.875,-79.56
32.890,-84.16
32.906,-87.39
32.921,-88.23
32.937,-85.74
32.953,-79.4
32.968,-69.23
32.984,-55.99
33.000,-40.9
33.015,-25.43
33.031,-10.87
33.046,1.9
33.062,12.51
33.078,21.0
33.093,27.58
33.109,32.5
33.125,35.86
33.140,37.7
33.156,38.1
33.171,37.35
33.187,35.93
33.203,34.32
33.218,32.95
33.234,31.93
33.250,31.17
33.265,30.44
33.281,29.59
33.296,28.63
33.312,27.65
33.328,26.64
33.343,25.41
33.359,23.6
33.375,20.88
33.390,17.1
33.406,12.45
33.421,7.42
33.437,2.66
33.453,-1.34
33.468,-4.37
33.484,-6.61
33.500,-8.53
33.515,-10.73
33.531,-13.66
33.546,-17.41
33.562,-21.57
33.578,-25.29
33.593,-27.49
33.609,-27.27
33.625,-24.12
33.640,-18.14
33.656,-9.97
33.671,-0.59
33.687,9.01
33.703,18.04
33.718,26.02
33.734,32.78
33.750,38.3
33.765,42.67
33.781,45.91
33.796,48.06
33.812,49.24
33.828,49.72
33.843,49.83
33.859,49.93
33.875,50.29
33.890,50.91
33.906,51.6
33.921,52.02
33.937,51.86
33.953,50.99
33.968,49.44
33.984,47.36
34.000,44.97
34.015,42.45
34.031,39.93
34.046,37.53
34.062,35.37
34.078,33.55
34.093,32.13
34.109,31.01
34.125,29.94
34.140,28.65
34.156,26.94
34.171,24.83
34.187,22.59
34.203,20.59
34.218,19.18
34.234,18.47
34.250,18.29
34.265,18.33
34.281,18.22
34.296,17.71
34.312,16.73
34.328,15.35
34.343,13.65
34.359,11.75
34.375,9.73
34.390,7.65
34.406,5.66
34.421,3.95
34.437,2.7
34.453,2.03
34.468,1.87
34.484,2.05
34.500,2.25
34.515,2.19
34.531,1.65
34.546,0.56
34.562,-1.04
34.578,-3.06
34.593,-5.35
34.609,-7.71
34.625,-9.95
34.640,-11.9
34.656,-13.52
34.671,-14.88
34.687,-16.2
34.703,-17.74
34.718,-19.7
34.734,-22.06
34.750,-24.65
34.765,-27.24
34.781,-29.64
34.796,-31.8
34.812,-33.85
34.828,-36.0
34.843,-38.49
34.859,-41.53
34.875,-45.27
34.890,-49.76
34.906,-54.85
34.921,-60.03
34.937,-64.37
34.953,-66.68
34.968,-65.76
34.984,-60.86
35.000,-51.96
35.015,-39.85
35.031,-25.87
35.046,-11.48
35.062,2.2
35.078,14.56
35.093,25.41
35.109,34.76
35.125,42.59
35.140,48.83
35.156,53.37
35.171,56.34
35.187,58.12
35.203,59.28
35.218,60.43
35.234,62.0
35.250,64.13
35.265,66.65
35.281,69.21
35.296,71.36
35.312,72.7
35.328,72.91
35.343,71.8
35.359,69.29
35.375,65.55
35.390,60.8
35.406,55.44
35.421,49.87
35.437,44.41
35.453,39.27
35.468,34.37
35.484,29.41
35.500,23.85
35.515,17.01
35.531,8.26
35.546,-2.73
35.562,-15.87
35.578,-30.57
35.593,-45.74
35.609,-60.07
35.625,-72.27
35.640,-81.26
35.656,-86.46
35.671,-87.69
35.687,-85.19
35.703,-79.58
35.718,-71.67
35.734,-62.4
35.750,-52.68
35.765,-43.3
35.781,-34.83
35.796,-27.56
35.812,-21.55
35.828,-16.66
35.843,-12.79
35.859,-9.86
35.875,-7.8
35.890,-6.51
35.906,-5.79
35.921,-5.33
35.937,-4.7
35.953,-3.51
35.968,-1.52
35.984,1.25
36.000,4.53
36.015,7.91
36.031,11.01
36.046,13.53
36.062,15.35
36.078,16.42
36.093,16.76
36.109,16.38
36.125,15.33
36.140,13.8
36.156,12.07
36.171,10.57
36.187,9.74
36.203,9.82
36.218,10.85
36.234,12.53
36.250,14.37
36.265,15.81
36.281,16.34
36.296,15.68
36.312,13.84
36.328,11.18
36.343,8.28
36.359,5.88
36.375,4.61
36.390,4.84
36.406,6.57
36.421,9.41
36.437,12.73
36.453,15.86
36.468,18.34
36.484,19.94
36.500,20.7
36.515,20.79
36.531,20.33
36.546,19.48
36.562,18.28
36.578,16.84
36.593,15.27
36.609,13.65
36.625,11.91
36.640,9.84
36.656,7.02
36.671,3.04
36.687,-2.27
36.703,-8.79
36.718,-16.14
36.734,-23.84
36.750,-31.51
36.765,-39.03
36.781,-46.45
36.796,-53.95
36.812,-61.72
36.828,-69.9
36.843,-78.53
36.859,-87.44
36.875,-96.16
36.890,-103.79
36.906,-109.17
36.921,-111.03
36.937,-108.53
36.953,-101.5
36.968,-90.51
36.984,-76.79
37.000,-61.84
37.015,-47.07
37.031,-33.61
37.046,-22.23
37.062,-13.32
37.078,-6.95
37.093,-2.9
37.109,-0.72
37.125,0.09
37.140,0.05
37.156,-0.46
37.171,-1.17
37.187,-1.96
37.203,-2.66
37.218,-3.06
37.234,-2.97
37.250,-2.28
37.265,-1.05
37.281,0.46
37.296,1.86
37.312,2.79
37.328,2.95
37.343,2.29
37.359,0.96
37.375,-0.72
37.390,-2.24
37.406,-3.13
37.421,-3.11
37.437,-2.21
37.453,-0.81
37.468,0.44
37.484,0.89
37.500,0.16
37.515,-1.73
37.531,-4.23
37.546,-6.4
37.562,-7.29
37.578,-6.18
37.593,-2.8
37.609,2.53
37.625,9.05
37.640,15.79
37.656,21.74
37.671,26.24
37.687,28.94
37.703,29.84
37.718,29.16
37.734,27.18
37.750,24.12
37.765,20.25
37.781,15.93
37.796,11.54
37.812,7.55
37.828,4.29
37.843,1.87
37.859,0.19
37.875,-1.1
37.890,-2.43
37.906,-4.09
37.921,-6.18
37.937,-8.62
37.953,-11.21
37.968,-13.78
37.984,-16.28
38.000,-18.8
38.015,-21.5
38.031,-24.5
38.046,-27.84
38.062,-31.49
38.078,-35.46
38.093,-39.7
38.109,-44.14
38.125,-48.54
38.140,-52.35
38.156,-54.76
38.171,-54.85
38.187,-51.95
38.203,-45.83
38.218,-36.87
38.234,-25.91
38.250,-14.08
38.265,-2.52
38.281,7.85
38.296,16.45
38.312,23.07
38.328,27.8
38.343,30.92
38.359,32.82
38.375,33.87
38.390,34.29
38.406,34.19
38.421,33.65
38.437,32.78
38.453,31.74
38.468,30.73
38.484,29.87
38.500,29.19
38.515,28.58
38.531,27.85
38.546,26.82
38.562,25.31
38.578,23.23
38.593,20.62
38.609,17.58
38.625,14.34
38.640,11.07
38.656,7.82
38.671,4.53
38.687,1.01
38.703,-2.94
38.718,-7.5
38.734,-12.63
38.750,-18.07
38.765,-23.35
38.781,-27.75
38.796,-30.48
38.812,-30.77
38.828,-28.08
38.843,-22.33
38.859,-14.0
38.875,-4.06
38.890,6.29
38.906,15.98
38.921,24.32
38.937,31.08
38.953,36.39
38.968,40.52
38.984,43.67
39.000,45.91
39.015,47.21
39.031,47.54
39.046,46.97
39.062,45.61
39.078,43.62
39.093,41.12
39.109,38.18
39.125,34.88
39.140,31.3
39.156,27.59
39.171,23.95
39.187,20.59
39.203,17.61
39.218,14.95
39.234,12.31
39.250,9.33
39.265,5.69
39.281,1.33
39.296,-3.57
39.312,-8.62
39.328,-13.4
39.343,-17.66
39.359,-21.36
39.375,-24.68
39.390,-27.85
39.406,-31.12
39.421,-34.54
39.437,-38.04
39.453,-41.3
39.468,-43.76
39.484,-44.65
39.500,-43.22
39.515,-38.96
39.531,-31.93
39.546,-22.77
39.562,-12.53
39.578,-2.36
39.593,6.92
39.609,15.0
39.625,21.96
39.640,28.08
39.656,33.48
39.671,38.01
39.687,41.32
39.703,43.15
39.718,43.52
39.734,42.79
39.750,41.49
39.765,40.09
39.781,38.77
39.796,37.43
39.812,35.92
39.828,34.1
39.843,32.13
39.859,30.17
39.875,28.33
39.890,26.45
39.906,24.12
39.921,20.89
39.937,16.5
39.953,11.08
39.968,5.04
39.984,-1.0
40.000,-6.48
40.015,-11.07
40.031,-14.69
40.046,-17.56
40.062,-20.03
40.078,-22.57
40.093,-25.67
40.109,-29.64
40.125,-34.47
40.140,-39.64
40.156,-44.11
40.171,-46.57
40.187,-45.89
40.203,-41.45
40.218,-33.5
40.234,-22.99
40.250,-11.31
40.265,0.2
40.281,10.62
40.296,19.57
40.312,27.17
40.328,33.64
40.343,39.19
40.359,43.78
40.375,47.2
40.390,49.29
40.406,50.0
40.421,49.55
40.437,48.31
40.453,46.78
40.468,45.22
40.484,43.76
40.500,42.3
40.515,40.69
40.531,38.88
40.546,36.96
40.562,35.17
40.578,33.74
40.593,32.74
40.609,32.02
40.625,31.26
40.640,30.09
40.656,28.32
40.671,26.03
40.687,23.5
40.703,21.1
40.718,19.11
40.734,17.54
40.750,16.23
40.765,14.92
40.781,13.47
40.796,11.87
40.812,10.31
40.828,8.96
40.843,7.86
40.859,6.88
40.875,5.78
40.890,4.33
40.906,2.48
40.921,0.31
40.937,-1.92
40.953,-3.97
40.968,-5.67
40.984,-7.02
41.000,-8.13
41.015,-9.08
41.031,-9.91
41.046,-10.61
41.062,-11.28
41.078,-12.03
41.093,-13.05
41.109,-14.5
41.125,-16.47
41.140,-18.93
41.156,-21.68
41.171,-24.49
41.187,-27.1
41.203,-29.41
41.218,-31.43
41.234,-33.36
41.250,-35.38
41.265,-37.61
41.281,-40.06
41.296,-42.56
41.312,-44.87
41.328,-46.82
41.343,-48.45
41.359,-49.95
41.375,-51.69
41.390,-53.91
41.406,-56.6
41.421,-59.36
41.437,-61.45
41.453,-61.96
41.468,-60.04
41.484,-55.21
41.500,-47.54
41.515,-37.65
41.531,-26.62
41.546,-15.61
41.562,-5.5
41.578,3.21
41.593,10.46
41.609,16.39
41.625,21.18
41.640,24.8
41.656,27.15
41.671,28.17
41.687,28.0
41.703,26.99
41.718,25.57
41.734,24.1
41.750,22.74
41.765,21.48
41.781,20.19
41.796,18.78
41.812,17.23
41.828,15.58
41.843,13.9
41.859,12.13
41.875,10.16
41.890,7.85
41.906,5.08
41.921,1.89
41.937,-1.57
41.953,-5.1
41.968,-8.47
41.984,-11.63
42.000,-14.68
42.015,-17.85
42.031,-21.35
42.046,-25.12
42.062,-28.72
42.078,-31.38
42.093,-32.26
42.109,-30.66
42.125,-26.38
42.140,-19.73
42.156,-11.45
42.171,-2.46
42.187,6.33
42.203,14.32
42.218,21.14
42.234,26.7
42.250,31.04
42.265,34.23
42.281,36.34
42.296,37.35
42.312,37.29
42.328,36.21
42.343,34.26
42.359,31.65
42.375,28.63
42.390,25.39
42.406,22.03
42.421,18.57
42.437,15.09
42.453,11.73
42.468,8.7
42.484,6.16
42.500,4.19
42.515,2.68
42.531,1.35
42.546,-0.13
42.562,-2.09
42.578,-4.72
42.593,-8.11
42.609,-12.2
42.625,-16.82
42.640,-21.66
42.656,-26.3
42.671,-30.28
42.687,-33.1
42.703,-34.26
42.718,-33.49
42.734,-30.74
42.750,-26.12
42.765,-20.0
42.781,-12.9
42.796,-5.38
42.812,1.96
42.828,8.63
42.843,14.2
42.859,18.38
42.875,20.92
42.890,21.73
42.906,20.84
42.921,18.46
42.937,15.1
42.953,11.41
42.968,8.11
42.984,5.71
43.000,4.38
43.015,3.97
43.031,4.09
43.046,4.27
43.062,4.19
43.078,3.73
43.093,2.86
43.109,1.72
43.125,0.45
43.140,-0.81
43.156,-1.9
43.171,-2.75
43.187,-3.4
43.203,-3.92
43.218,-4.49
43.234,-5.32
43.250,-6.49
43.265,-7.85
43.281,-8.93
43.296,-8.96
43.312,-7.08
43.328,-2.51
43.343,5.08
43.359,15.51
43.375,28.08
43.390,41.83
43.406,55.82
43.421,69.23
43.437,81.48
43.453,92.08
43.468,100.66
43.484,106.93
43.500,110.8
43.515,112.42
43.531,112.23
43.546,110.75
43.562,108.38
43.578,105.32
43.593,101.55
43.609,97.0
43.625,91.64
43.640,85.61
43.656,79.21
43.671,72.77
43.687,66.68
43.703,61.25
43.718,56.63
43.734,52.75
43.750,49.28
43.765,45.61
43.781,41.07
43.796,35.17
43.812,27.84
43.828,19.61
43.843,11.37
43.859,4.12
43.875,-1.46
43.890,-5.22
43.906,-7.39
43.921,-8.29
43.937,-8.02
43.953,-6.3
43.968,-2.75
43.984,2.73
44.000,9.62
44.015,16.75
44.031,22.58
44.046,25.76
44.062,25.48
44.078,21.64
44.093,14.67
44.109,5.31
44.125,-5.58
44.140,-17.11
44.156,-28.26
44.171,-38.09
44.187,-45.87
44.203,-51.28
44.218,-54.6
44.234,-56.48
44.250,-57.79
44.265,-59.18
44.281,-60.87
44.296,-62.69
44.312,-64.1
44.328,-64.56
44.343,-63.63
44.359,-61.25
44.375,-57.79
44.390,-54.07
44.406,-51.16
44.421,-50.12
44.437,-51.62
44.453,-55.7
44.468,-61.55
44.484,-67.64
44.500,-72.01
44.515,-72.69
44.531,-68.2
44.546,-57.93
44.562,-42.37
44.578,-22.99
44.593,-1.8
44.609,19.11
44.625,38.14
44.640,54.35
44.656,67.5
44.671,77.65
44.687,84.8
44.703,88.73
44.718,88.99
44.734,85.3
44.750,77.75
44.765,66.89
44.781,53.47
44.796,37.94
44.812,20.11
44.828,-0.82
44.843,-25.62
44.859,-54.2
44.875,-84.96
44.890,-114.8
44.906,-139.84
44.921,-156.53
44.937,-162.57
44.953,-157.21
44.968,-140.94
44.984,-114.96
45.000,-81.0
45.015,-41.6
45.031,-0.71
45.046,36.36
45.062,63.76
45.078,76.84
45.093,73.87
45.109,56.8
45.125,30.67
45.140,1.69
45.156,-24.82
45.171,-45.89
45.187,-60.9
45.203,-70.74
45.218,-76.54
45.234,-79.05
45.250,-78.87
45.265,-77.09
45.281,-75.79
45.296,-77.66
45.312,-84.95
45.328,-98.2
45.343,-115.68
45.359,-133.68
45.375,-147.92
45.390,-155.14
45.406,-154.21
45.421,-146.3
45.437,-134.02
45.453,-120.25
45.468,-107.09
45.484,-95.55
45.500,-85.74
45.515,-77.52
45.531,-70.93
45.546,-66.39
45.562,-64.4
45.578,-65.21
45.593,-68.62
45.609,-73.92
45.625,-80.17
45.640,-86.43
45.656,-91.78
45.671,-95.44
45.687,-96.54
45.703,-94.25
45.718,-87.89
45.734,-77.22
45.750,-62.64
45.765,-45.19
45.781,-26.37
45.796,-7.84
45.812,8.96
45.828,23.13
45.843,34.31
45.859,42.62
45.875,48.46
45.890,52.39
45.906,54.88
45.921,56.28
45.937,56.85
45.953,56.75
45.968,56.19
45.984,55.39
46.000,54.56
46.015,53.88
46.031,53.4
46.046,53.13
46.062,52.94
46.078,52.68
46.093,52.2
46.109,51.31
46.125,49.84
46.140,47.64
46.156,44.67
46.171,40.94
46.187,36.6
46.203,31.83
46.218,26.77
46.234,21.47
46.250,15.99
46.265,10.5
46.281,5.57
46.296,2.14
46.312,1.34
46.328,4.2
46.343,11.15
46.359,21.87
46.375,35.29
46.390,49.89
46.406,64.15
46.421,76.92
46.437,87.57
46.453,95.98
46.468,102.3
46.484,106.75
46.500,109.42
46.515,110.32
46.531,109.47
46.546,107.0
46.562,103.16
46.578,98.23
46.593,92.44
46.609,85.82
46.625,78.33
46.640,69.89
46.656,60.62
46.671,50.83
46.687,40.88
46.703,31.12
46.718,21.76
46.734,12.93
46.750,4.78
46.765,-2.46
46.781,-8.6
46.796,-13.71
46.812,-18.29
46.828,-23.17
46.843,-29.39
46.859,-37.73
46.875,-48.5
46.890,-61.2
46.906,-74.68
46.921,-87.18
46.937,-96.73
46.953,-101.44
46.968,-99.9
46.984,-91.41
47.000,-76.08
47.015,-54.9
47.031,-29.46
47.046,-1.72
47.062,26.33
47.078,52.92
47.093,76.67
47.109,96.61
47.125,112.0
47.140,122.24
47.156,126.67
47.171,124.8
47.187,116.57
47.203,102.65
47.218,84.42
47.234,63.65
47.250,42.07
47.265,20.94
47.281,1.09
47.296,-16.72
47.312,-31.37
47.328,-41.35
47.343,-45.15
47.359,-42.15
47.375,-33.32
47.390,-21.2
47.406,-9.33
47.421,-1.08
47.437,1.37
47.453,-2.58
47.468,-12.1
47.484,-25.41
47.500,-40.33
47.515,-54.62
47.531,-66.03
47.546,-72.77
47.562,-73.77
47.578,-69.2
47.593,-60.46
47.609,-49.77
47.625,-39.33
47.640,-30.52
47.656,-23.61
47.671,-18.02
47.687,-12.89
47.703,-7.55
47.718,-1.7
47.734,4.7
47.750,11.77
47.765,19.73
47.781,28.79
47.796,38.85
47.812,49.4
47.828,59.5
47.843,68.22
47.859,74.93
47.875,79.46
47.890,82.25
47.906,84.06
47.921,85.83
47.937,88.35
47.953,92.05
47.968,96.67
47.984,101.05
48.000,103.1
48.015,100.1
48.031,89.48
48.046,69.65
48.062,40.8
48.078,4.9
48.093,-34.7
48.109,-74.18
48.125,-110.03
48.140,-139.5
48.156,-160.79
48.171,-173.09
48.187,-176.63
48.203,-172.89
48.218,-164.54
48.234,-155.05
48.250,-147.71
48.265,-144.59
48.281,-145.99
48.296,-150.37
48.312,-155.16
48.328,-157.82
48.343,-156.74
48.359,-151.6
48.375,-143.15
48.390,-132.62
48.406,-121.17
48.421,-109.62
48.437,-98.39
48.453,-87.75
48.468,-77.97
48.484,-69.38
48.500,-62.18
48.515,-56.38
48.531,-51.58
48.546,-47.21
48.562,-42.72
48.578,-37.75
48.593,-32.27
48.609,-26.47
48.625,-20.72
48.640,-15.35
48.656,-10.74
48.671,-7.26
48.687,-5.39
48.703,-5.49
48.718,-7.59
48.734,-11.2
48.750,-15.17
48.765,-17.93
48.781,-18.0
48.796,-14.4
48.812,-6.95
48.828,3.63
48.843,16.09
48.859,29.04
48.875,41.36
48.890,52.44
48.906,62.11
48.921,70.58
48.937,78.06
48.953,84.6
48.968,89.93
48.984,93.5
49.000,94.77
49.015,93.42
49.031,89.61
49.046,84.05
49.062,77.8
49.078,71.83
49.093,66.81
49.109,62.9
49.125,59.89
49.140,57.37
49.156,54.9
49.171,52.14
49.187,48.86
49.203,44.98
49.218,40.44
49.234,35.27
49.250,29.67
49.265,23.91
49.281,18.29
49.296,12.96
49.312,7.87
49.328,2.83
49.343,-2.27
49.359,-7.28
49.375,-11.64
49.390,-14.4
49.406,-14.58
49.421,-11.47
49.437,-5.0
49.453,4.14
49.468,14.74
49.484,25.46
49.500,35.24
49.515,43.58
49.531,50.46
49.546,56.1
49.562,60.69
49.578,64.26
49.593,66.73
49.609,68.06
49.625,68.45
49.640,68.18
49.656,67.61
49.671,66.91
49.687,66.05
49.703,64.85
49.718,63.29
49.734,61.55
49.750,60.13
49.765,59.64
49.781,60.49
49.796,62.69
49.812,65.71
49.828,68.64
49.843,70.52
49.859,70.69
49.875,69.11
49.890,66.28
49.906,63.09
49.921,60.36
49.937,58.58
49.953,57.72
49.968,57.37
49.984,57.17
50.000,56.98
50.015,57.1
50.031,58.16
50.046,60.73
50.062,64.93
50.078,70.17
50.093,75.06
50.109,77.68
50.125,76.18
50.140,69.46
50.156,57.7
50.171,42.66
50.187,27.44
50.203,15.86
50.218,11.37
50.234,15.84
50.250,28.49
50.265,45.57
50.281,61.07
50.296,68.38
50.312,62.31
50.328,40.6
50.343,4.6
50.359,-41.17
50.375,-90.49
50.390,-137.1
50.406,-176.19
50.421,-205.21
50.437,-223.86
50.453,-233.41
50.468,-235.72
50.484,-232.33
50.500,-223.97
50.515,-210.63
50.531,-192.18
50.546,-169.05
50.562,-142.6
50.578,-114.97
50.593,-88.34
50.609,-64.33
50.625,-43.58
50.640,-25.88
50.656,-10.53
50.671,3.27
50.687,16.3
50.703,29.27
50.718,42.85
50.734,57.55
50.750,73.64
50.765,90.94
50.781,109.0
50.796,127.11
50.812,144.48
50.828,160.27
50.843,173.51
50.859,183.03
50.875,187.48
50.890,185.66
50.906,176.95
50.921,161.86
50.937,142.21
50.953,120.78
50.968,100.43
50.984,83.05
51.000,68.93
51.015,56.82
51.031,44.93
51.046,32.14
51.062,18.83
51.078,6.59
51.093,-2.8
51.109,-8.78
51.125,-12.73
51.140,-17.37
51.156,-25.29
51.171,-37.36
51.187,-52.06
51.203,-66.3
51.218,-77.08
51.234,-83.01
51.250,-84.91
51.265,-85.08
51.281,-85.71
51.296,-87.75
51.312,-90.7
51.328,-93.33
51.343,-94.97
51.359,-96.2
51.375,-98.61
51.390,-103.97
51.406,-113.25
51.421,-126.07
51.437,-140.95
51.453,-155.91
51.468,-169.15
51.484,-179.33
51.500,-185.54
51.515,-187.08
51.531,-183.36
51.546,-174.06
51.562,-159.27
51.578,-139.82
51.593,-117.17
51.609,-93.23
51.625,-69.99
51.640,-49.25
51.656,-32.33
51.671,-19.96
51.687,-12.16
51.703,-8.33
51.718,-7.47
51.734,-8.38
51.750,-10.07
51.765,-12.01
51.781,-14.27
51.796,-17.3
51.812,-21.55
51.828,-27.06
51.843,-33.22
51.859,-39.05
51.875,-43.51
51.890,-46.08
51.906,-46.77
51.921,-46.01
51.937,-44.14
51.953,-41.15
51.968,-36.84
51.984,-31.06
52.000,-24.17
52.015,-17.05
52.031,-10.9
52.046,-6.58
52.062,-4.19
52.078,-2.94
52.093,-1.53
52.109,1.32
52.125,6.46
52.140,13.97
52.156,23.29
52.171,33.37
52.187,43.02
52.203,51.18
52.218,57.15
52.234,60.73
52.250,62.13
52.265,61.91
52.281,60.73
52.296,59.28
52.312,58.0
52.328,57.19
52.343,56.95
52.359,57.16
52.375,57.59
52.390,57.86
52.406,57.53
52.421,56.15
52.437,53.4
52.453,49.07
52.468,43.13
52.484,35.71
52.500,26.85
52.515,16.62
52.531,5.01
52.546,-7.91
52.562,-21.81
52.578,-35.96
52.593,-49.16
52.609,-59.93
52.625,-66.72
52.640,-68.37
52.656,-64.41
52.671,-55.13
52.687,-41.55
52.703,-25.13
52.718,-7.47
52.734,9.99
52.750,26.08
52.765,40.0
52.781,51.23
52.796,59.51
52.812,64.85
52.828,67.42
52.843,67.67
52.859,66.16
52.875,63.54
52.890,60.42
52.906,57.26
52.921,54.33
52.937,51.72
52.953,49.45
52.968,47.41
52.984,45.46
53.000,43.37
53.015,40.88
53.031,37.69
53.046,33.67
53.062,28.89
53.078,23.73
53.093,18.83
53.109,14.88
53.125,12.37
53.140,11.3
53.156,11.18
53.171,11.02
53.187,9.72
53.203,6.53
53.218,1.29
53.234,-5.33
53.250,-11.95
53.265,-16.92
53.281,-18.71
53.296,-16.39
53.312,-9.88
53.328,0.01
53.343,11.86
53.359,23.89
53.375,34.51
53.390,42.64
53.406,47.82
53.421,50.23
53.437,50.3
53.453,48.43
53.468,44.81
53.484,39.61
53.500,33.28
53.515,27.0
53.531,22.45
53.546,21.36
53.562,24.77
53.578,32.44
53.593,42.81
53.609,53.65
53.625,62.98
53.640,69.75
53.656,74.19
53.671,77.37
53.687,80.54
53.703,84.5
53.718,89.42
53.734,94.78
53.750,99.9
53.765,104.19
53.781,107.18
53.796,108.61
53.812,108.2
53.828,105.73
53.843,101.16
53.859,94.74
53.875,87.26
53.890,80.0
53.906,74.48
53.921,71.99
53.937,73.33
53.953,78.63
53.968,87.62
53.984,99.72
54.000,114.19
54.015,129.86
54.031,144.69
54.046,155.69
54.062,159.26
54.078,152.15
54.093,132.48
54.109,100.44
54.125,58.26
54.140,9.56
54.156,-41.62
54.171,-91.77
54.187,-138.12
54.203,-178.61
54.218,-211.54
54.234,-235.36
54.250,-248.81
54.265,-251.32
54.281,-243.39
54.296,-226.84
54.312,-204.9
54.328,-181.71
54.343,-161.61
54.359,-148.17
54.375,-143.25
54.390,-146.61
54.406,-156.01
54.421,-168.06
54.437,-179.3
54.453,-187.32
54.468,-191.09
54.484,-191.01
54.500,-188.13
54.515,-183.44
54.531,-177.4
54.546,-169.82
54.562,-160.18
54.578,-148.02
54.593,-133.33
54.609,-116.48
54.625,-98.18
54.640,-79.14
54.656,-59.84
54.671,-40.62
54.687,-21.76
54.703,-3.64
54.718,13.09
54.734,27.56
54.750,39.04
54.765,47.05
54.781,51.66
54.796,53.56
54.812,53.81
54.828,53.45
54.843,53.19
54.859,53.16
54.875,53.11
54.890,52.65
54.906,51.6
54.921,50.03
54.937,48.21
54.953,46.34
54.968,44.33
54.984,41.81
55.000,38.26
55.015,33.37
55.031,27.17
55.046,20.11
55.062,12.82
55.078,5.92
55.093,-0.15
55.109,-5.19
55.125,-9.32
55.140,-12.93
55.156,-16.62
55.171,-21.07
55.187,-26.76
55.203,-33.65
55.218,-40.96
55.234,-47.31
55.250,-50.95
55.265,-50.43
55.281,-45.1
55.296,-35.39
55.312,-22.67
55.328,-8.86
55.343,4.18
55.359,15.09
55.375,23.23
55.390,28.51
55.406,31.3
55.421,32.01
55.437,30.98
55.453,28.44
55.468,24.54
55.484,19.5
55.500,13.61
55.515,7.2
55.531,0.57
55.546,-6.09
55.562,-12.57
55.578,-18.63
55.593,-23.89
55.609,-27.79
55.625,-29.82
55.640,-29.59
55.656,-27.03
55.671,-22.27
55.687,-15.58
55.703,-7.18
55.718,2.73
55.734,13.82
55.750,25.53
55.765,36.75
55.781,45.96
55.796,51.35
55.812,51.47
55.828,45.72
55.843,34.86
55.859,21.1
55.875,7.59
55.890,-2.39
55.906,-6.38
55.921,-3.41
55.937,5.89
55.953,19.68
55.968,35.6
55.984,51.4
56.000,65.43
56.015,76.81
56.031,85.36
56.046,91.44
56.062,95.64
56.078,98.45
56.093,100.02
56.109,100.13
56.125,98.32
56.140,94.22
56.156,87.88
56.171,79.9
56.187,71.32
56.203,63.4
56.218,57.35
56.234,54.12
56.250,54.33
56.265,58.05
56.281,64.89
56.296,73.96
56.312,84.08
56.328,94.03
56.343,102.8
56.359,109.73
56.375,114.45
56.390,116.83
56.406,116.69
56.421,113.73
56.437,107.48
56.453,97.59
56.468,84.04
56.484,67.46
56.500,49.35
56.515,31.91
56.531,17.71
56.546,8.98
56.562,6.93
56.578,11.15
56.593,19.53
56.609,28.67
56.625,34.78
56.640,34.79
56.656,27.24
56.671,12.78
56.687,-6.15
56.703,-26.07
56.718,-43.54
56.734,-56.1
56.750,-62.71
56.765,-63.91
56.781,-61.29
56.796,-56.96
56.812,-52.83
56.828,-50.04
56.843,-48.64
56.859,-47.58
56.875,-45.09
56.890,-39.28
56.906,-28.91
56.921,-13.92
56.937,4.25
56.953,22.96
56.968,39.09
56.984,50.03
57.000,54.54
57.015,53.32
57.031,48.87
57.046,44.71
57.062,44.13
57.078,48.93
57.093,58.61
57.109,70.28
57.125,79.5
57.140,81.51
57.156,72.55
57.171,50.99
57.187,17.61
57.203,-24.46
57.218,-70.43
57.234,-114.83
57.250,-152.52
57.265,-179.71
57.281,-194.49
57.296,-197.16
57.312,-189.89
57.328,-176.1
57.343,-159.64
57.359,-143.92
57.375,-131.27
57.390,-122.7
57.406,-117.82
57.421,-115.19
57.437,-112.69
57.453,-108.11
57.468,-99.6
57.484,-86.05
57.500,-67.18
57.515,-43.58
57.531,-16.5
57.546,12.37
57.562,41.18
57.578,67.99
57.593,91.07
57.609,109.03
57.625,121.14
57.640,127.5
57.656,128.97
57.671,126.98
57.687,122.98
57.703,118.01
57.718,112.24
57.734,105.06
57.750,95.39
57.765,82.22
57.781,65.06
57.796,44.17
57.812,20.5
57.828,-4.6
57.843,-29.61
57.859,-53.17
57.875,-74.1
57.890,-91.5
57.906,-104.76
57.921,-113.56
57.937,-117.9
57.953,-118.03
57.968,-114.47
57.984,-107.9
58.000,-99.12
58.015,-88.97
58.031,-78.25
58.046,-67.65
58.062,-57.58
58.078,-48.23
58.093,-39.54
58.109,-31.29
58.125,-23.22
58.140,-15.13
58.156,-6.82
58.171,1.86
58.187,11.03
58.203,20.67
58.218,30.53
58.234,40.12
58.250,48.86
58.265,56.18
58.281,61.83
58.296,66.01
58.312,69.33
58.328,72.58
58.343,76.46
58.359,81.34
58.375,87.17
58.390,93.44
58.406,99.35
58.421,103.79
58.437,105.42
58.453,102.65
58.468,93.84
58.484,77.5
58.500,52.81
58.515,19.91
58.531,-19.94
58.546,-64.46
58.562,-110.57
58.578,-154.79
58.593,-193.52
58.609,-223.43
58.625,-241.93
58.640,-247.69
58.656,-241.03
58.671,-223.87
58.687,-199.21
58.703,-170.29
58.718,-139.87
58.734,-110.0
58.750,-82.08
58.765,-57.27
58.781,-36.69
58.796,-21.26
58.812,-11.38
58.828,-6.68
58.843,-6.12
58.859,-8.41
58.875,-12.4
58.890,-17.19
58.906,-22.08
58.921,-26.27
58.937,-28.9
58.953,-29.2
58.968,-26.79
58.984,-21.88
59.000,-15.3
59.015,-8.21
59.031,-1.9
59.046,2.44
59.062,3.9
59.078,2.01
59.093,-3.2
59.109,-11.09
59.125,-20.57
59.140,-30.34
59.156,-39.28
59.171,-46.69
59.187,-52.37
59.203,-56.35
59.218,-58.55
59.234,-58.59
59.250,-55.87
59.265,-49.84
59.281,-40.34
59.296,-27.78
59.312,-13.05
59.328,2.65
59.343,18.2
59.359,32.73
59.375,45.64
59.390,56.54
59.406,65.14
59.421,71.25
59.437,74.72
59.453,75.56
59.468,73.98
59.484,70.34
59.500,65.12
59.515,58.83
59.531,51.97
59.546,44.99
59.562,38.3
59.578,32.13
59.593,26.63
59.609,21.84
59.625,17.75
59.640,14.3
59.656,11.54
59.671,9.5
59.687,8.15
59.703,7.32
59.718,6.61
59.734,5.54
59.750,3.68
59.765,0.77
59.781,-3.2
59.796,-8.02
59.812,-13.39
59.828,-19.03
59.843,-24.53
59.859,-29.35
59.875,-32.6
59.890,-33.23
59.906,-30.35
59.921,-23.53
59.937,-13.09
59.953,-0.04
59.968,14.18
59.984,28.21
