timestamp,value
00.000,-121.69
00.015,-123.77
00.031,-120.46
00.046,-110.38
00.062,-93.34
00.078,-70.54
00.093,-44.35
00.109,-17.61
00.125,7.18
00.140,28.41
00.156,45.49
00.171,58.63
00.187,68.37
00.203,75.26
00.218,79.68
00.234,81.97
00.250,82.53
00.265,81.91
00.281,80.75
00.296,79.56
00.312,78.62
00.328,77.9
00.343,77.19
00.359,76.23
00.375,75.01
00.390,73.66
00.406,72.46
00.421,71.64
00.437,71.16
00.453,70.73
00.468,69.84
00.484,67.9
00.500,64.47
00.515,59.48
00.531,53.19
00.546,46.15
00.562,39.06
00.578,32.44
00.593,26.46
00.609,20.91
00.625,15.29
00.640,9.02
00.656,1.64
00.671,-7.03
00.687,-16.72
00.703,-26.59
00.718,-35.25
00.734,-40.9
00.750,-41.73
00.765,-36.49
00.781,-24.98
00.796,-8.21
00.812,11.8
00.828,32.72
00.843,52.5
00.859,69.84
00.875,84.22
00.890,95.62
00.906,104.25
00.921,110.24
00.937,113.66
00.953,114.58
00.968,113.33
00.984,110.48
01.000,106.71
01.015,102.65
01.031,98.77
01.046,95.31
01.062,92.38
01.078,90.0
01.093,88.19
01.109,86.94
01.125,86.19
01.140,85.72
01.156,85.19
01.171,84.2
01.187,82.37
01.203,79.53
01.218,75.76
01.234,71.27
01.250,66.46
01.265,61.73
01.281,57.36
01.296,53.5
01.312,50.18
01.328,47.29
01.343,44.72
01.359,42.41
01.375,40.29
01.390,38.34
01.406,36.57
01.421,34.89
01.437,33.21
01.453,31.41
01.468,29.4
01.484,27.12
01.500,24.63
01.515,22.06
01.531,19.67
01.546,17.68
01.562,16.25
01.578,15.42
01.593,15.04
01.609,14.87
01.625,14.66
01.640,14.28
01.656,13.71
01.671,13.01
01.687,12.22
01.703,11.24
01.718,9.99
01.734,8.36
01.750,6.33
01.765,4.07
01.781,1.86
01.796,-0.09
01.812,-1.67
01.828,-2.97
01.843,-4.26
01.859,-5.78
01.875,-7.71
01.890,-10.04
01.906,-12.58
01.921,-14.97
01.937,-16.95
01.953,-18.47
01.968,-19.74
01.984,-21.24
02.000,-23.46
02.015,-26.72
02.031,-30.97
02.046,-35.83
02.062,-40.67
02.078,-45.01
02.093,-48.63
02.109,-51.71
02.125,-54.72
02.140,-58.23
02.156,-62.79
02.171,-68.75
02.187,-76.07
02.203,-84.09
02.218,-91.56
02.234,-96.71
02.250,-97.79
02.265,-93.57
02.281,-83.86
02.296,-69.63
02.312,-52.79
02.328,-35.5
02.343,-19.69
02.359,-6.56
02.375,3.38
02.390,10.17
02.406,14.15
02.421,15.84
02.437,15.85
02.453,14.81
02.468,13.41
02.484,12.28
02.500,11.88
02.515,12.4
02.531,13.77
02.546,15.68
02.562,17.65
02.578,19.21
02.593,20.02
02.609,19.96
02.625,19.17
02.640,17.93
02.656,16.5
02.671,15.0
02.687,13.35
02.703,11.28
02.718,8.53
02.734,4.96
02.750,0.63
02.765,-4.23
02.781,-9.26
02.796,-14.06
02.812,-18.4
02.828,-22.23
02.843,-25.83
02.859,-29.63
02.875,-34.07
02.890,-39.5
02.906,-46.01
02.921,-53.22
02.937,-60.29
02.953,-65.98
02.968,-68.88
02.984,-67.78
03.000,-62.09
03.015,-52.05
03.031,-38.76
03.046,-23.85
03.062,-9.04
03.078,4.31
03.093,15.38
03.109,23.99
03.125,30.31
03.140,34.66
03.156,37.37
03.171,38.73
03.187,39.02
03.203,38.64
03.218,37.98
03.234,37.41
03.250,37.19
03.265,37.36
03.281,37.65
03.296,37.68
03.312,37.04
03.328,35.58
03.343,33.4
03.359,30.86
03.375,28.31
03.390,25.94
03.406,23.64
03.421,21.02
03.437,17.7
03.453,13.42
03.468,8.33
03.484,2.78
03.500,-2.74
03.515,-7.88
03.531,-12.53
03.546,-16.8
03.562,-21.01
03.578,-25.47
03.593,-30.55
03.609,-36.48
03.625,-43.41
03.640,-51.12
03.656,-58.94
03.671,-65.73
03.687,-69.98
03.703,-70.28
03.718,-65.75
03.734,-56.49
03.750,-43.5
03.765,-28.45
03.781,-13.11
03.796,1.1
03.812,13.34
03.828,23.4
03.843,31.36
03.859,37.49
03.875,41.92
03.890,44.82
03.906,46.35
03.921,46.81
03.937,46.63
03.953,46.21
03.968,45.88
03.984,45.69
04.000,45.53
04.015,45.22
04.031,44.64
04.046,43.92
04.062,43.28
04.078,43.02
04.093,43.21
04.109,43.69
04.125,44.08
04.140,44.0
04.156,43.31
04.171,42.13
04.187,40.79
04.203,39.61
04.218,38.72
04.234,37.99
04.250,37.17
04.265,36.02
04.281,34.42
04.296,32.49
04.312,30.42
04.328,28.39
04.343,26.51
04.359,24.8
04.375,23.2
04.390,21.62
04.406,19.97
04.421,18.13
04.437,16.04
04.453,13.69
04.468,11.19
04.484,8.68
04.500,6.36
04.515,4.29
04.531,2.48
04.546,0.85
04.562,-0.75
04.578,-2.41
04.593,-4.16
04.609,-5.87
04.625,-7.36
04.640,-8.45
04.656,-9.08
04.671,-9.38
04.687,-9.54
04.703,-9.89
04.718,-10.64
04.734,-11.95
04.750,-13.83
04.765,-16.21
04.781,-18.98
04.796,-22.01
04.812,-25.14
04.828,-28.21
04.843,-31.07
04.859,-33.66
04.875,-36.02
04.890,-38.37
04.906,-41.01
04.921,-44.23
04.937,-48.15
04.953,-52.71
04.968,-57.65
04.984,-62.63
05.000,-67.4
05.015,-71.86
05.031,-76.16
05.046,-80.61
05.062,-85.66
05.078,-91.72
05.093,-98.89
05.109,-106.79
05.125,-114.31
05.140,-119.71
05.156,-121.04
05.171,-116.81
05.187,-106.52
05.203,-90.95
05.218,-71.99
05.234,-51.9
05.250,-32.78
05.265,-15.96
05.281,-2.04
05.296,8.9
05.312,16.95
05.328,22.26
05.343,25.0
05.359,25.58
05.375,24.72
05.390,23.34
05.406,22.37
05.421,22.34
05.437,23.37
05.453,25.07
05.468,26.8
05.484,28.06
05.500,28.6
05.515,28.49
05.531,28.06
05.546,27.56
05.562,27.05
05.578,26.23
05.593,24.65
05.609,21.83
05.625,17.59
05.640,12.12
05.656,5.99
05.671,-0.14
05.687,-5.7
05.703,-10.48
05.718,-14.66
05.734,-18.68
05.750,-23.02
05.765,-28.06
05.781,-33.95
05.796,-40.49
05.812,-47.2
05.828,-53.19
05.843,-57.3
05.859,-58.27
05.875,-55.04
05.890,-47.16
05.906,-35.05
05.921,-19.94
05.937,-3.55
05.953,12.46
05.968,26.78
05.984,38.78
06.000,48.34
06.015,55.69
06.031,61.11
06.046,64.85
06.062,67.19
06.078,68.44
06.093,69.03
06.109,69.39
06.125,69.88
06.140,70.59
06.156,71.51
06.171,72.49
06.187,73.49
06.203,74.66
06.218,76.26
06.234,78.51
06.250,81.35
06.265,84.37
06.281,86.74
06.296,87.67
06.312,86.68
06.328,83.91
06.343,80.12
06.359,76.37
06.375,73.62
06.390,72.22
06.406,71.66
06.421,70.65
06.437,67.43
06.453,60.39
06.468,48.6
06.484,32.21
06.500,12.48
06.515,-8.29
06.531,-27.33
06.546,-42.04
06.562,-50.59
06.578,-52.33
06.593,-47.82
06.609,-38.55
06.625,-26.33
06.640,-12.79
06.656,1.02
06.671,14.62
06.687,27.73
06.703,39.92
06.718,50.35
06.734,57.94
06.750,61.84
06.765,61.96
06.781,59.16
06.796,55.16
06.812,51.87
06.828,50.8
06.843,52.55
06.859,56.73
06.875,62.33
06.890,68.3
06.906,73.93
06.921,79.09
06.937,83.97
06.953,88.69
06.968,93.08
06.984,96.51
07.000,97.96
07.015,96.24
07.031,90.09
07.046,78.33
07.062,60.01
07.078,34.75
07.093,3.03
07.109,-33.56
07.125,-72.55
07.140,-111.24
07.156,-147.59
07.171,-180.66
07.187,-210.61
07.203,-238.05
07.218,-263.13
07.234,-284.87
07.250,-301.18
07.265,-309.55
07.281,-308.04
07.296,-296.21
07.312,-275.3
07.328,-247.9
07.343,-217.12
07.359,-185.72
07.375,-155.62
07.390,-127.82
07.406,-102.8
07.421,-80.8
07.437,-62.14
07.453,-47.07
07.468,-35.52
07.484,-26.85
07.500,-19.86
07.515,-13.09
07.531,-5.43
07.546,3.49
07.562,13.28
07.578,23.0
07.593,31.68
07.609,38.76
07.625,44.17
07.640,48.3
07.656,51.66
07.671,54.55
07.687,56.99
07.703,58.76
07.718,59.51
07.734,59.08
07.750,57.63
07.765,55.48
07.781,53.11
07.796,50.86
07.812,48.9
07.828,47.15
07.843,45.47
07.859,43.7
07.875,41.82
07.890,40.0
07.906,38.37
07.921,36.97
07.937,35.55
07.953,33.64
07.968,30.91
07.984,27.49
08.000,24.32
08.015,23.18
08.031,26.31
08.046,35.53
08.062,51.58
08.078,73.53
08.093,99.01
08.109,124.93
08.125,148.33
08.140,166.95
08.156,179.47
08.171,185.31
08.187,184.18
08.203,176.09
08.218,161.33
08.234,140.65
08.250,115.37
08.265,87.24
08.281,58.11
08.296,29.86
08.312,4.27
08.328,-17.06
08.343,-32.69
08.359,-41.61
08.375,-43.54
08.390,-39.16
08.406,-30.16
08.421,-18.97
08.437,-8.12
08.453,0.33
08.468,5.26
08.484,6.55
08.500,4.73
08.515,0.35
08.531,-6.4
08.546,-15.86
08.562,-28.46
08.578,-44.18
08.593,-62.28
08.609,-81.33
08.625,-99.74
08.640,-116.37
08.656,-130.88
08.671,-143.58
08.687,-155.16
08.703,-166.2
08.718,-176.98
08.734,-187.6
08.750,-197.97
08.765,-207.77
08.781,-216.34
08.796,-222.42
08.812,-224.24
08.828,-219.88
08.843,-207.8
08.859,-187.51
08.875,-159.95
08.890,-127.34
08.906,-92.72
08.921,-59.18
08.937,-29.3
08.953,-4.51
08.968,14.92
08.984,29.64
09.000,40.91
09.015,50.06
09.031,58.12
09.046,65.68
09.062,72.94
09.078,79.86
09.093,86.4
09.109,92.6
09.125,98.57
09.140,104.48
09.156,110.32
09.171,115.87
09.187,120.6
09.203,123.76
09.218,124.6
09.234,122.62
09.250,117.79
09.265,110.53
09.281,101.77
09.296,92.66
09.312,84.37
09.328,77.88
09.343,73.61
09.359,71.2
09.375,69.23
09.390,65.4
09.406,57.05
09.421,42.04
09.437,19.57
09.453,-9.36
09.468,-42.26
09.484,-75.95
09.500,-107.48
09.515,-134.72
09.531,-156.19
09.546,-170.65
09.562,-176.75
09.578,-173.28
09.593,-159.76
09.609,-137.26
09.625,-108.56
09.640,-77.64
09.656,-48.49
09.671,-23.84
09.687,-4.57
09.703,10.17
09.718,22.11
09.734,32.87
09.750,43.26
09.765,53.12
09.781,61.81
09.796,68.66
09.812,73.38
09.828,76.19
09.843,77.7
09.859,78.7
09.875,80.02
09.890,82.36
09.906,86.0
09.921,90.59
09.937,95.03
09.953,97.68
09.968,96.85
09.984,91.62
10.000,82.42
10.015,71.15
10.031,60.5
10.046,52.91
10.062,49.47
10.078,49.48
10.093,50.82
10.109,50.91
10.125,47.72
10.140,40.33
10.156,28.95
10.171,14.38
10.187,-2.42
10.203,-20.55
10.218,-39.21
10.234,-57.5
10.250,-74.44
10.265,-89.1
10.281,-100.79
10.296,-109.08
10.312,-113.76
10.328,-114.59
10.343,-111.24
10.359,-103.52
10.375,-91.64
10.390,-76.41
10.406,-59.16
10.421,-41.47
10.437,-24.74
10.453,-9.92
10.468,2.61
10.484,12.93
10.500,21.3
10.515,27.88
10.531,32.68
10.546,35.55
10.562,36.3
10.578,34.97
10.593,31.91
10.609,27.78
10.625,23.31
10.640,19.12
10.656,15.52
10.671,12.52
10.687,9.85
10.703,7.26
10.718,4.58
10.734,1.83
10.750,-0.84
10.765,-3.26
10.781,-5.39
10.796,-7.31
10.812,-9.28
10.828,-11.58
10.843,-14.36
10.859,-17.57
10.875,-20.95
10.890,-24.07
10.906,-26.6
10.921,-28.45
10.937,-29.8
10.953,-31.16
10.968,-33.1
10.984,-36.1
11.000,-40.38
11.015,-46.0
11.031,-52.77
11.046,-60.16
11.062,-67.4
11.078,-73.3
11.093,-76.54
11.109,-75.91
11.125,-70.7
11.140,-60.97
11.156,-47.63
11.171,-32.13
11.187,-16.11
11.203,-1.03
11.218,12.13
11.234,22.84
11.250,30.88
11.265,36.28
11.281,39.18
11.296,39.86
11.312,38.73
11.328,36.34
11.343,33.38
11.359,30.52
11.375,28.29
11.390,26.86
11.406,26.11
11.421,25.64
11.437,24.99
11.453,23.91
11.468,22.43
11.484,20.83
11.500,19.53
11.515,18.79
11.531,18.59
11.546,18.63
11.562,18.49
11.578,17.85
11.593,16.7
11.609,15.33
11.625,14.13
11.640,13.43
11.656,13.13
11.671,12.71
11.687,11.37
11.703,8.33
11.718,3.1
11.734,-4.35
11.750,-13.63
11.765,-23.98
11.781,-34.37
11.796,-43.57
11.812,-50.3
11.828,-53.38
11.843,-52.02
11.859,-46.14
11.875,-36.51
11.890,-24.63
11.906,-12.34
11.921,-1.36
11.937,7.16
11.953,12.77
11.968,15.59
11.984,16.1
12.000,14.81
12.015,12.18
12.031,8.55
12.046,4.24
12.062,-0.37
12.078,-4.89
12.093,-8.93
12.109,-12.15
12.125,-14.33
12.140,-15.3
12.156,-14.89
12.171,-12.92
12.187,-9.17
12.203,-3.49
12.218,4.14
12.234,13.51
12.250,24.11
12.265,35.17
12.281,45.87
12.296,55.49
12.312,63.62
12.328,70.22
12.343,75.51
12.359,79.73
12.375,82.92
12.390,84.85
12.406,85.03
12.421,83.01
12.437,78.7
12.453,72.57
12.468,65.7
12.484,59.48
12.500,55.14
12.515,53.36
12.531,53.99
12.546,56.19
12.562,58.68
12.578,60.2
12.593,59.87
12.609,57.4
12.625,52.96
12.640,46.95
12.656,39.8
12.671,31.87
12.687,23.44
12.703,14.78
12.718,6.31
12.734,-1.5
12.750,-8.18
12.765,-13.33
12.781,-16.51
12.796,-17.12
12.812,-14.36
12.828,-7.47
12.843,3.87
12.859,19.06
12.875,36.43
12.890,53.47
12.906,67.52
12.921,76.61
12.937,79.9
12.953,77.77
12.968,71.45
12.984,62.52
13.000,52.48
13.015,42.74
13.031,34.6
13.046,29.16
13.062,27.17
13.078,28.66
13.093,32.79
13.109,38.2
13.125,43.46
13.140,47.73
13.156,51.1
13.171,54.61
13.187,59.84
13.203,68.36
13.218,81.07
13.234,97.59
13.250,116.04
13.265,133.0
13.281,144.19
13.296,145.55
13.312,134.54
13.328,111.18
13.343,78.45
13.359,41.54
13.375,6.7
13.390,-20.25
13.406,-35.15
13.421,-36.33
13.437,-25.09
13.453,-5.59
13.468,15.82
13.484,31.95
13.500,36.48
13.515,25.42
13.531,-2.1
13.546,-44.24
13.562,-97.2
13.578,-156.21
13.593,-215.93
13.609,-270.7
13.625,-314.86
13.640,-343.7
13.656,-354.73
13.671,-348.73
13.687,-329.68
13.703,-303.45
13.718,-275.71
13.734,-250.23
13.750,-228.14
13.765,-208.47
13.781,-189.42
13.796,-169.44
13.812,-147.84
13.828,-124.72
13.843,-100.67
13.859,-76.41
13.875,-52.79
13.890,-30.75
13.906,-11.27
13.921,4.69
13.937,16.42
13.953,23.66
13.968,26.64
13.984,26.1
14.000,23.15
14.015,19.18
14.031,15.54
14.046,13.38
14.062,13.29
14.078,15.24
14.093,18.59
14.109,22.3
14.125,25.48
14.140,27.65
14.156,29.08
14.171,30.57
14.187,33.13
14.203,37.4
14.218,43.32
14.234,50.13
14.250,56.47
14.265,60.93
14.281,62.25
14.296,59.78
14.312,53.44
14.328,43.83
14.343,32.12
14.359,19.68
14.375,7.92
14.390,-2.18
14.406,-10.09
14.421,-15.8
14.437,-19.36
14.453,-20.66
14.468,-19.13
14.484,-13.86
14.500,-4.08
14.515,10.53
14.531,29.27
14.546,50.54
14.562,71.93
14.578,90.97
14.593,105.57
14.609,114.53
14.625,117.69
14.640,115.74
14.656,109.94
14.671,101.78
14.687,92.71
14.703,83.9
14.718,76.2
14.734,70.02
14.750,65.29
14.765,61.52
14.781,57.86
14.796,53.33
14.812,46.86
14.828,37.55
14.843,24.79
14.859,8.41
14.875,-11.09
14.890,-32.52
14.906,-54.15
14.921,-74.21
14.937,-91.41
14.953,-105.25
14.968,-115.84
14.984,-123.41
15.000,-127.72
15.015,-127.86
15.031,-122.57
15.046,-110.87
15.062,-92.76
15.078,-69.27
15.093,-42.15
15.109,-13.24
15.125,16.0
15.140,44.36
15.156,70.68
15.171,93.62
15.187,111.86
15.203,124.62
15.218,132.09
15.234,135.29
15.250,135.58
15.265,133.82
15.281,129.81
15.296,122.46
15.312,110.29
15.328,92.1
15.343,67.33
15.359,36.14
15.375,-0.59
15.390,-41.22
15.406,-83.13
15.421,-122.78
15.437,-156.23
15.453,-179.96
15.468,-191.85
15.484,-191.86
15.500,-181.81
15.515,-164.69
15.531,-144.02
15.546,-123.32
15.562,-105.98
15.578,-94.86
15.593,-91.57
15.609,-95.78
15.625,-105.06
15.640,-115.65
15.656,-123.87
15.671,-127.71
15.687,-127.37
15.703,-124.79
15.718,-122.34
15.734,-121.52
15.750,-122.54
15.765,-124.77
15.781,-127.54
15.796,-130.78
15.812,-134.76
15.828,-139.4
15.843,-143.73
15.859,-145.76
15.875,-143.16
15.890,-134.18
15.906,-118.33
15.921,-96.5
15.937,-70.73
15.953,-43.57
15.968,-17.48
15.984,5.65
16.000,24.61
16.015,38.91
16.031,48.62
16.046,54.21
16.062,56.39
16.078,56.01
16.093,53.9
16.109,50.9
16.125,47.72
16.140,44.86
16.156,42.63
16.171,41.14
16.187,40.36
16.203,40.21
16.218,40.65
16.234,41.64
16.250,43.11
16.265,44.81
16.281,46.25
16.296,46.84
16.312,45.98
16.328,43.4
16.343,39.19
16.359,33.76
16.375,27.68
16.390,21.42
16.406,15.27
16.421,9.26
16.437,3.32
16.453,-2.77
16.468,-9.17
16.484,-16.12
16.500,-23.68
16.515,-31.62
16.531,-39.19
16.546,-45.02
16.562,-47.48
16.578,-45.1
16.593,-37.22
16.609,-24.33
16.625,-7.98
16.640,9.67
16.656,26.5
16.671,40.96
16.687,52.37
16.703,60.65
16.718,66.19
16.734,69.4
16.750,70.66
16.765,70.31
16.781,68.6
16.796,65.83
16.812,62.32
16.828,58.41
16.843,54.44
16.859,50.75
16.875,47.63
16.890,45.29
16.906,43.8
16.921,43.05
16.937,42.81
16.953,42.73
16.968,42.49
16.984,41.83
17.000,40.6
17.015,38.73
17.031,36.18
17.046,32.93
17.062,28.99
17.078,24.39
17.093,19.24
17.109,13.72
17.125,7.97
17.140,2.13
17.156,-3.62
17.171,-8.96
17.187,-13.24
17.203,-15.58
17.218,-15.07
17.234,-11.15
17.250,-3.81
17.265,6.29
17.281,18.2
17.296,30.93
17.312,43.73
17.328,56.24
17.343,68.27
17.359,79.83
17.375,90.9
17.390,101.44
17.406,111.27
17.421,120.17
17.437,127.92
17.453,134.39
17.468,139.71
17.484,144.12
17.500,147.9
17.515,151.12
17.531,153.62
17.546,155.23
17.562,155.98
17.578,156.3
17.593,156.76
17.609,157.52
17.625,157.89
17.640,156.2
17.656,150.02
17.671,136.98
17.687,115.61
17.703,85.72
17.718,48.58
17.734,6.31
17.750,-38.5
17.765,-83.42
17.781,-126.37
17.796,-165.73
17.812,-200.35
17.828,-229.43
17.843,-252.54
17.859,-269.53
17.875,-280.43
17.890,-285.5
17.906,-285.22
17.921,-280.32
17.937,-271.79
17.953,-260.68
17.968,-247.67
17.984,-232.81
18.000,-215.34
18.015,-194.07
18.031,-168.16
18.046,-137.73
18.062,-104.25
18.078,-70.15
18.093,-38.05
18.109,-10.02
18.125,13.0
18.140,31.21
18.156,45.47
18.171,56.8
18.187,66.14
18.203,74.17
18.218,81.38
18.234,88.24
18.250,94.97
18.265,101.72
18.281,108.35
18.296,114.49
18.312,119.54
18.328,122.91
18.343,124.09
18.359,122.83
18.375,119.08
18.390,112.75
18.406,103.44
18.421,90.16
18.437,71.48
18.453,46.12
18.468,13.81
18.484,-24.03
18.500,-64.17
18.515,-101.9
18.531,-132.31
18.546,-151.31
18.562,-156.68
18.578,-148.28
18.593,-127.81
18.609,-98.3
18.625,-63.36
18.640,-26.66
18.656,8.55
18.671,39.7
18.687,65.19
18.703,84.25
18.718,96.9
18.734,103.88
18.750,106.36
18.765,105.89
18.781,104.22
18.796,102.75
18.812,102.0
18.828,101.15
18.843,98.31
18.859,91.54
18.875,80.1
18.890,65.2
18.906,49.78
18.921,37.14
18.937,29.35
18.953,26.24
18.968,25.62
18.984,24.69
19.000,21.51
19.015,15.9
19.031,9.11
19.046,2.8
19.062,-2.01
19.078,-5.39
19.093,-8.08
19.109,-10.92
19.125,-14.3
19.140,-18.15
19.156,-22.21
19.171,-26.33
19.187,-30.4
19.203,-34.24
19.218,-37.33
19.234,-38.64
19.250,-36.92
19.265,-31.06
19.281,-20.55
19.296,-5.71
19.312,12.25
19.328,31.52
19.343,50.21
19.359,66.81
19.375,80.49
19.390,91.1
19.406,99.1
19.421,105.13
19.437,109.85
19.453,113.86
19.468,117.53
19.484,121.09
19.500,124.4
19.515,126.85
19.531,127.31
19.546,124.31
19.562,116.51
19.578,103.09
19.593,84.06
19.609,60.22
19.625,32.91
19.640,3.6
19.656,-26.29
19.671,-55.56
19.687,-83.14
19.703,-108.11
19.718,-129.7
19.734,-147.34
19.750,-160.63
19.765,-169.39
19.781,-173.63
19.796,-173.59
19.812,-169.8
19.828,-163.11
19.843,-154.54
19.859,-145.09
19.875,-135.48
19.890,-125.96
19.906,-116.33
19.921,-106.16
19.937,-94.81
19.953,-81.57
19.968,-65.72
19.984,-46.74
20.000,-24.62
20.015,-0.11
20.031,25.13
20.046,48.81
20.062,68.62
20.078,82.75
20.093,90.33
20.109,91.25
20.125,85.85
20.140,74.57
20.156,57.98
20.171,36.99
20.187,13.26
20.203,-10.75
20.218,-32.2
20.234,-48.48
20.250,-58.01
20.265,-60.42
20.281,-56.55
20.296,-47.93
20.312,-36.28
20.328,-23.17
20.343,-9.97
20.359,2.14
20.375,12.1
20.390,19.05
20.406,22.39
20.421,21.93
20.437,17.92
20.453,11.09
20.468,2.56
20.484,-6.39
20.500,-14.59
20.515,-21.34
20.531,-26.58
20.546,-30.74
20.562,-34.5
20.578,-38.43
20.593,-42.78
20.609,-47.48
20.625,-52.41
20.640,-57.53
20.656,-62.98
20.671,-68.98
20.687,-75.39
20.703,-81.53
20.718,-86.16
20.734,-87.77
20.750,-85.11
20.765,-77.63
20.781,-65.64
20.796,-50.29
20.812,-33.19
20.828,-15.96
20.843,0.18
20.859,14.46
20.875,26.71
20.890,36.99
20.906,45.4
20.921,52.02
20.937,56.77
20.953,59.54
20.968,60.4
20.984,59.67
21.000,57.95
21.015,56.02
21.031,54.59
21.046,54.07
21.062,54.46
21.078,55.43
21.093,56.48
21.109,57.19
21.125,57.3
21.140,56.67
21.156,55.27
21.171,53.08
21.187,50.07
21.203,46.31
21.218,41.95
21.234,37.29
21.250,32.6
21.265,28.03
21.281,23.53
21.296,18.97
21.312,14.29
21.328,9.53
21.343,4.91
21.359,0.64
21.375,-3.28
21.390,-7.13
21.406,-11.39
21.421,-16.57
21.437,-22.95
21.453,-30.31
21.468,-37.91
21.484,-44.58
21.500,-48.97
21.515,-49.79
21.531,-46.25
21.546,-38.14
21.562,-26.02
21.578,-11.09
21.593,5.12
21.609,20.99
21.625,35.31
21.640,47.31
21.656,56.7
21.671,63.56
21.687,68.15
21.703,70.81
21.718,71.88
21.734,71.78
21.750,70.91
21.765,69.72
21.781,68.6
21.796,67.8
21.812,67.36
21.828,67.16
21.843,66.97
21.859,66.57
21.875,65.82
21.890,64.59
21.906,62.85
21.921,60.67
21.937,58.12
21.953,55.39
21.968,52.62
21.984,49.95
22.000,47.37
22.015,44.77
22.031,41.96
22.046,38.74
22.062,34.96
22.078,30.49
22.093,25.36
22.109,19.57
22.125,13.18
22.140,6.23
22.156,-1.25
22.171,-9.31
22.187,-18.04
22.203,-27.61
22.218,-38.15
22.234,-49.65
22.250,-61.72
22.265,-73.48
22.281,-83.56
22.296,-90.38
22.312,-92.55
22.328,-89.35
22.343,-80.97
22.359,-68.55
22.375,-53.75
22.390,-38.36
22.406,-23.83
22.421,-11.06
22.437,-0.42
22.453,8.06
22.468,14.56
22.484,19.27
22.500,22.36
22.515,24.05
22.531,24.58
22.546,24.29
22.562,23.57
22.578,22.78
22.593,22.19
22.609,21.97
22.625,22.18
22.640,22.79
22.656,23.73
22.671,24.87
22.687,26.05
22.703,27.06
22.718,27.68
22.734,27.74
22.750,27.1
22.765,25.72
22.781,23.59
22.796,20.75
22.812,17.27
22.828,13.26
22.843,8.95
22.859,4.62
22.875,0.52
22.890,-3.21
22.906,-6.58
22.921,-9.74
22.937,-12.97
22.953,-16.46
22.968,-20.41
22.984,-24.98
23.000,-30.32
23.015,-36.49
23.031,-43.27
23.046,-49.98
23.062,-55.5
23.078,-58.59
23.093,-58.22
23.109,-54.07
23.125,-46.72
23.140,-37.42
23.156,-27.71
23.171,-18.94
23.187,-11.88
23.203,-6.72
23.218,-3.23
23.234,-1.01
23.250,0.34
23.265,1.13
23.281,1.69
23.296,2.29
23.312,3.1
23.328,4.12
23.343,5.09
23.359,5.66
23.375,5.53
23.390,4.69
23.406,3.54
23.421,2.91
23.437,3.66
23.453,6.39
23.468,11.18
23.484,17.51
23.500,24.48
23.515,31.17
23.531,36.9
23.546,41.45
23.562,45.15
23.578,48.53
23.593,52.14
23.609,56.32
23.625,61.03
23.640,65.88
23.656,70.42
23.671,74.27
23.687,77.36
23.703,79.97
23.718,82.54
23.734,85.56
23.750,89.3
23.765,93.62
23.781,97.88
23.796,100.76
23.812,100.48
23.828,95.17
23.843,83.54
23.859,65.66
23.875,43.31
23.890,19.92
23.906,-0.4
23.921,-13.96
23.937,-18.58
23.953,-14.08
23.968,-2.09
23.984,14.84
24.000,34.03
24.015,53.28
24.031,71.1
24.046,86.4
24.062,98.45
24.078,106.58
24.093,110.33
24.109,109.5
24.125,104.34
24.140,95.65
24.156,84.8
24.171,73.61
24.187,64.08
24.203,58.04
24.218,56.67
24.234,60.23
24.250,67.97
24.265,78.24
24.281,88.88
24.296,97.66
24.312,102.93
24.328,103.99
24.343,101.63
24.359,97.94
24.375,95.63
24.390,96.87
24.406,101.97
24.421,108.7
24.437,112.66
24.453,108.89
24.468,93.69
24.484,66.21
24.500,28.94
24.515,-13.1
24.531,-53.93
24.546,-88.45
24.562,-113.94
24.578,-130.73
24.593,-142.01
24.609,-152.81
24.625,-168.21
24.640,-191.54
24.656,-223.0
24.671,-259.54
24.687,-295.82
24.703,-326.06
24.718,-345.9
24.734,-353.31
24.750,-348.54
24.765,-333.31
24.781,-309.92
24.796,-280.79
24.812,-248.45
24.828,-215.59
24.843,-184.94
24.859,-158.65
24.875,-137.84
24.890,-122.32
24.906,-110.72
24.921,-101.17
24.937,-91.96
24.953,-82.04
24.968,-71.19
24.984,-59.91
25.000,-48.97
25.015,-39.11
25.031,-30.75
25.046,-23.77
25.062,-17.69
25.078,-11.87
25.093,-5.83
25.109,0.51
25.125,6.76
25.140,12.29
25.156,16.56
25.171,19.41
25.187,21.05
25.203,21.93
25.218,22.5
25.234,22.95
25.250,23.16
25.265,22.81
25.281,21.55
25.296,19.2
25.312,15.88
25.328,12.06
25.343,8.32
25.359,5.18
25.375,2.79
25.390,0.8
25.406,-1.45
25.421,-4.44
25.437,-8.03
25.453,-11.1
25.468,-11.69
25.484,-7.52
25.500,3.07
25.515,20.46
25.531,43.51
25.546,69.84
25.562,96.68
25.578,121.7
25.593,143.64
25.609,162.23
25.625,177.96
25.640,191.54
25.656,203.57
25.671,214.32
25.687,223.51
25.703,229.94
25.718,231.45
25.734,225.32
25.750,209.05
25.765,181.61
25.781,144.22
25.796,100.43
25.812,55.27
25.828,14.0
25.843,-19.46
25.859,-43.3
25.875,-58.16
25.890,-66.72
25.906,-72.82
25.921,-80.36
25.937,-92.1
25.953,-108.77
25.968,-128.74
25.984,-148.73
26.000,-165.03
26.015,-175.1
26.031,-178.33
26.046,-175.9
26.062,-169.8
26.078,-161.78
26.093,-152.69
26.109,-142.8
26.125,-132.31
26.140,-122.03
26.156,-113.39
26.171,-108.04
26.187,-106.94
26.203,-109.73
26.218,-114.49
26.234,-118.1
26.250,-117.07
26.265,-108.45
26.281,-90.4
26.296,-62.74
26.312,-27.24
26.328,12.41
26.343,50.86
26.359,81.94
26.375,100.19
26.390,102.44
26.406,88.94
26.421,63.42
26.437,32.04
26.453,1.48
26.468,-22.7
26.484,-37.09
26.500,-40.55
26.515,-33.91
26.531,-19.46
26.546,-0.65
26.562,18.42
26.578,33.81
26.593,42.77
26.609,44.66
26.625,41.15
26.640,35.45
26.656,30.84
26.671,29.37
26.687,31.14
26.703,34.67
26.718,37.83
26.734,38.75
26.750,36.37
26.765,30.34
26.781,20.8
26.796,8.21
26.812,-6.48
26.828,-21.78
26.843,-35.66
26.859,-46.01
26.875,-51.52
26.890,-52.18
26.906,-49.43
26.921,-45.72
26.937,-43.55
26.953,-44.66
26.968,-49.69
26.984,-58.05
27.000,-68.25
27.015,-78.24
27.031,-85.66
27.046,-88.31
27.062,-84.55
27.078,-73.83
27.093,-56.84
27.109,-35.57
27.125,-12.69
27.140,9.19
27.156,28.13
27.171,43.28
27.187,54.75
27.203,63.37
27.218,70.16
27.234,75.97
27.250,81.19
27.265,85.74
27.281,89.16
27.296,90.82
27.312,90.32
27.328,87.67
27.343,83.45
27.359,78.79
27.375,75.06
27.390,73.5
27.406,74.79
27.421,78.86
27.437,84.92
27.453,91.74
27.468,98.15
27.484,103.43
27.500,107.5
27.515,110.65
27.531,113.25
27.546,115.29
27.562,116.32
27.578,115.59
27.593,112.36
27.609,106.25
27.625,97.32
27.640,86.16
27.656,73.89
27.671,62.17
27.687,53.05
27.703,48.41
27.718,49.03
27.734,53.65
27.750,58.64
27.765,58.67
27.781,48.64
27.796,25.75
27.812,-8.92
27.828,-50.25
27.843,-90.73
27.859,-122.86
27.875,-141.77
27.890,-146.48
27.906,-139.89
27.921,-127.27
27.937,-114.3
27.953,-105.38
27.968,-102.76
27.984,-106.54
28.000,-115.17
28.015,-126.26
28.031,-137.15
28.046,-145.59
28.062,-150.17
28.078,-150.75
28.093,-148.52
28.109,-145.61
28.125,-144.18
28.140,-145.39
28.156,-148.59
28.171,-151.44
28.187,-150.78
28.203,-143.86
28.218,-129.27
28.234,-107.32
28.250,-79.6
28.265,-48.31
28.281,-15.75
28.296,15.88
28.312,44.45
28.328,67.88
28.343,84.42
28.359,93.2
28.375,94.57
28.390,90.06
28.406,81.87
28.421,72.09
28.437,62.25
28.453,53.1
28.468,44.85
28.484,37.33
28.500,29.82
28.515,20.49
28.531,6.3
28.546,-16.43
28.562,-50.52
28.578,-96.15
28.593,-149.87
28.609,-205.19
28.625,-254.55
28.640,-291.91
28.656,-314.56
28.671,-323.15
28.687,-320.42
28.703,-309.21
28.718,-291.24
28.734,-267.02
28.750,-236.91
28.765,-202.12
28.781,-165.33
28.796,-130.13
28.812,-99.79
28.828,-76.16
28.843,-59.19
28.859,-47.18
28.875,-37.73
28.890,-28.79
28.906,-19.37
28.921,-9.59
28.937,-0.25
28.953,7.93
28.968,14.73
28.984,20.64
29.000,26.5
29.015,32.97
29.031,40.04
29.046,46.96
29.062,52.57
29.078,55.72
29.093,55.83
29.109,53.11
29.125,48.43
29.140,43.01
29.156,37.95
29.171,33.87
29.187,30.8
29.203,28.3
29.218,25.67
29.234,22.25
29.250,17.46
29.265,10.99
29.281,2.86
29.296,-6.38
29.312,-15.54
29.328,-22.79
29.343,-25.98
29.359,-23.2
29.375,-13.47
29.390,2.9
29.406,24.3
29.421,48.33
29.437,72.49
29.453,94.78
29.468,113.94
29.484,129.49
29.500,141.42
29.515,150.0
29.531,155.6
29.546,158.66
29.562,159.55
29.578,158.65
29.593,156.18
29.609,152.29
29.625,147.11
29.640,140.89
29.656,133.89
29.671,126.54
29.687,119.14
29.703,111.93
29.718,105.04
29.734,98.51
29.750,92.4
29.765,86.69
29.781,81.41
29.796,76.4
29.812,71.39
29.828,66.03
29.843,59.99
29.859,53.25
29.875,46.08
29.890,39.08
29.906,32.84
29.921,27.73
29.937,23.66
29.953,20.17
29.968,16.49
29.984,11.9
30.000,5.93
30.015,-1.57
30.031,-10.41
30.046,-20.04
30.062,-29.59
30.078,-37.76
30.093,-42.97
30.109,-43.72
30.125,-38.97
30.140,-28.54
30.156,-13.41
30.171,4.6
30.187,23.26
30.203,40.54
30.218,55.05
30.234,66.26
30.250,74.33
30.265,79.8
30.281,83.26
30.296,85.08
30.312,85.48
30.328,84.61
30.343,82.69
30.359,80.07
30.375,77.23
30.390,74.59
30.406,72.37
30.421,70.51
30.437,68.69
30.453,66.51
30.468,63.77
30.484,60.51
30.500,57.06
30.515,53.72
30.531,50.66
30.546,47.75
30.562,44.55
30.578,40.61
30.593,35.6
30.609,29.58
30.625,22.87
30.640,16.04
30.656,9.56
30.671,3.71
30.687,-1.47
30.703,-6.22
30.718,-10.86
30.734,-15.76
30.750,-21.24
30.765,-27.53
30.781,-34.58
30.796,-42.02
30.812,-49.04
30.828,-54.44
30.843,-56.83
30.859,-55.02
30.875,-48.46
30.890,-37.49
30.906,-23.29
30.921,-7.63
30.937,7.72
30.953,21.33
30.968,32.48
30.984,41.09
31.000,47.48
31.015,52.06
31.031,55.14
31.046,56.91
31.062,57.56
31.078,57.4
31.093,56.86
31.109,56.33
31.125,56.08
31.140,56.14
31.156,56.33
31.171,56.45
31.187,56.39
31.203,56.22
31.218,56.11
31.234,56.15
31.250,56.36
31.265,56.56
31.281,56.5
31.296,55.93
31.312,54.76
31.328,52.96
31.343,50.65
31.359,47.98
31.375,45.07
31.390,42.09
31.406,39.13
31.421,36.21
31.437,33.35
31.453,30.57
31.468,27.9
31.484,25.38
31.500,23.09
31.515,21.04
31.531,19.19
31.546,17.42
31.562,15.6
31.578,13.63
31.593,11.45
31.609,9.03
31.625,6.39
31.640,3.57
31.656,0.72
31.671,-1.93
31.687,-4.13
31.703,-5.64
31.718,-6.36
31.734,-6.46
31.750,-6.26
31.765,-6.15
31.781,-6.42
31.796,-7.18
31.812,-8.34
31.828,-9.74
31.843,-11.23
31.859,-12.73
31.875,-14.32
31.890,-16.13
31.906,-18.27
31.921,-20.81
31.937,-23.67
31.953,-26.68
31.968,-29.64
31.984,-32.37
32.000,-34.81
32.015,-37.06
32.031,-39.31
32.046,-41.86
32.062,-44.93
32.078,-48.58
32.093,-52.68
32.109,-56.95
32.125,-61.09
32.140,-64.86
32.156,-68.18
32.171,-71.24
32.187,-74.4
32.203,-78.13
32.218,-82.86
32.234,-88.77
32.250,-95.56
32.265,-102.34
32.281,-107.6
32.296,-109.54
32.312,-106.57
32.328,-97.89
32.343,-83.85
32.359,-65.94
32.375,-46.32
32.390,-27.22
32.406,-10.29
32.421,3.63
32.437,14.44
32.453,22.36
32.468,27.73
32.484,30.79
32.500,31.78
32.515,31.15
32.531,29.55
32.546,27.73
32.562,26.34
32.578,25.68
32.593,25.64
32.609,25.89
32.625,25.96
32.640,25.61
32.656,24.84
32.671,23.87
32.687,22.94
32.703,22.17
32.718,21.41
32.734,20.23
32.750,18.13
32.765,14.71
32.781,9.94
32.796,4.19
32.812,-1.86
32.828,-7.46
32.843,-12.1
32.859,-15.74
32.875,-18.79
32.890,-21.95
32.906,-25.9
32.921,-31.02
32.937,-37.15
32.953,-43.67
32.968,-49.5
32.984,-53.4
33.000,-54.22
33.015,-51.23
33.031,-44.3
33.046,-34.01
33.062,-21.53
33.078,-8.24
33.093,4.49
33.109,15.62
33.125,24.54
33.140,30.99
33.156,35.01
33.171,36.85
33.187,36.88
33.203,35.52
33.218,33.34
33.234,30.75
33.250,28.16
33.265,25.76
33.281,23.64
33.296,21.82
33.312,20.29
33.328,19.03
33.343,18.02
33.359,17.26
33.375,16.6
33.390,15.88
33.406,14.85
33.421,13.16
33.437,10.54
33.453,6.85
33.468,2.14
33.484,-3.22
33.500,-8.66
33.515,-13.67
33.531,-17.95
33.546,-21.65
33.562,-25.29
33.578,-29.53
33.593,-34.88
33.609,-41.31
33.625,-48.15
33.640,-54.09
33.656,-57.58
33.671,-57.16
33.687,-52.06
33.703,-42.45
33.718,-29.34
33.734,-14.45
33.750,0.48
33.765,14.0
33.781,25.31
33.796,34.28
33.812,41.24
33.828,46.59
33.843,50.57
33.859,53.18
33.875,54.05
33.890,52.82
33.906,49.32
33.921,43.76
33.937,36.72
33.953,29.13
33.968,21.84
33.984,15.51
34.000,10.38
34.015,6.35
34.031,3.22
34.046,0.72
34.062,-1.49
34.078,-3.79
34.093,-6.6
34.109,-10.31
34.125,-14.98
34.140,-20.29
34.156,-25.54
34.171,-29.97
34.187,-33.11
34.203,-35.17
34.218,-36.95
34.234,-39.55
34.250,-43.97
34.265,-50.58
34.281,-58.96
34.296,-67.91
34.312,-75.64
34.328,-80.31
34.343,-80.45
34.359,-75.37
34.375,-65.3
34.390,-51.36
34.406,-35.21
34.421,-18.58
34.437,-2.91
34.453,10.94
34.468,22.6
34.484,32.08
34.500,39.5
34.515,44.99
34.531,48.62
34.546,50.56
34.562,51.12
34.578,50.7
34.593,49.69
34.609,48.36
34.625,46.76
34.640,44.87
34.656,42.65
34.671,40.22
34.687,37.76
34.703,35.49
34.718,33.54
34.734,31.74
34.750,29.76
34.765,27.17
34.781,23.64
34.796,19.07
34.812,13.69
34.828,7.94
34.843,2.32
34.859,-2.84
34.875,-7.53
34.890,-12.03
34.906,-16.82
34.921,-22.34
34.937,-28.87
34.953,-36.31
34.968,-44.06
34.984,-51.21
35.000,-56.51
35.015,-58.74
35.031,-56.99
35.046,-51.0
35.062,-41.28
35.078,-28.99
35.093,-15.58
35.109,-2.41
35.125,9.65
35.140,20.25
35.156,29.38
35.171,37.2
35.187,43.73
35.203,48.84
35.218,52.36
35.234,54.27
35.250,54.76
35.265,54.23
35.281,53.14
35.296,51.82
35.312,50.45
35.328,48.97
35.343,47.19
35.359,44.98
35.375,42.36
35.390,39.5
35.406,36.7
35.421,34.15
35.437,31.88
35.453,29.71
35.468,27.25
35.484,24.11
35.500,20.0
35.515,14.89
35.531,8.98
35.546,2.61
35.562,-3.87
35.578,-10.1
35.593,-15.9
35.609,-21.27
35.625,-26.36
35.640,-31.46
35.656,-36.94
35.671,-43.08
35.687,-49.95
35.703,-57.24
35.718,-64.19
35.734,-69.64
35.750,-72.3
35.765,-71.07
35.781,-65.45
35.796,-55.73
35.812,-42.94
35.828,-28.53
35.843,-13.99
35.859,-0.36
35.875,11.78
35.890,22.25
35.906,31.03
35.921,38.06
35.937,43.19
35.953,46.31
35.968,47.52
35.984,47.21
36.000,45.98
36.015,44.4
36.031,42.9
36.046,41.62
36.062,40.46
36.078,39.22
36.093,37.75
36.109,36.03
36.125,34.13
36.140,32.16
36.156,30.1
36.171,27.92
36.187,25.46
36.203,22.63
36.218,19.34
36.234,15.62
36.250,11.53
36.265,7.13
36.281,2.47
36.296,-2.43
36.312,-7.43
36.328,-12.4
36.343,-17.1
36.359,-21.36
36.375,-25.1
36.390,-28.4
36.406,-31.58
36.421,-34.99
36.437,-39.04
36.453,-44.02
36.468,-49.95
36.484,-56.46
36.500,-62.71
36.515,-67.46
36.531,-69.29
36.546,-67.13
36.562,-60.53
36.578,-49.94
36.593,-36.62
36.609,-22.21
36.625,-8.25
36.640,4.19
36.656,14.63
36.671,23.09
36.687,29.75
36.703,34.78
36.718,38.21
36.734,40.07
36.750,40.51
36.765,39.93
36.781,38.83
36.796,37.71
36.812,36.86
36.828,36.25
36.843,35.74
36.859,35.06
36.875,34.13
36.890,32.97
36.906,31.73
36.921,30.45
36.937,29.05
36.953,27.39
36.968,25.26
36.984,22.57
37.000,19.39
37.015,15.82
37.031,11.99
37.046,7.96
37.062,3.69
37.078,-0.77
37.093,-5.33
37.109,-9.87
37.125,-14.27
37.140,-18.45
37.156,-22.55
37.171,-26.74
37.187,-31.19
37.203,-36.01
37.218,-41.18
37.234,-46.61
37.250,-52.1
37.265,-57.24
37.281,-61.31
37.296,-63.38
37.312,-62.43
37.328,-57.76
37.343,-49.31
37.359,-37.85
37.375,-24.69
37.390,-11.42
37.406,0.79
37.421,11.3
37.437,20.1
37.453,27.47
37.468,33.66
37.484,38.71
37.500,42.46
37.515,44.76
37.531,45.62
37.546,45.33
37.562,44.26
37.578,42.78
37.593,41.14
37.609,39.43
37.625,37.68
37.640,35.97
37.656,34.42
37.671,33.08
37.687,31.94
37.703,30.77
37.718,29.27
37.734,27.21
37.750,24.47
37.765,21.11
37.781,17.39
37.796,13.55
37.812,9.75
37.828,6.02
37.843,2.18
37.859,-1.95
37.875,-6.47
37.890,-11.29
37.906,-16.14
37.921,-20.69
37.937,-24.68
37.953,-28.04
37.968,-30.91
37.984,-33.65
38.000,-36.68
38.015,-40.4
38.031,-45.05
38.046,-50.57
38.062,-56.5
38.078,-61.96
38.093,-65.77
38.109,-66.71
38.125,-63.89
38.140,-57.05
38.156,-46.71
38.171,-34.02
38.187,-20.45
38.203,-7.42
38.218,4.03
38.234,13.42
38.250,20.73
38.265,26.24
38.281,30.3
38.296,33.2
38.312,35.11
38.328,36.12
38.343,36.37
38.359,36.04
38.375,35.34
38.390,34.47
38.406,33.51
38.421,32.44
38.437,31.24
38.453,29.97
38.468,28.75
38.484,27.73
38.500,26.9
38.515,26.08
38.531,24.91
38.546,23.05
38.562,20.32
38.578,16.83
38.593,12.87
38.609,8.83
38.625,4.97
38.640,1.35
38.656,-2.12
38.671,-5.62
38.687,-9.32
38.703,-13.3
38.718,-17.55
38.734,-22.05
38.750,-26.64
38.765,-31.2
38.781,-35.58
38.796,-39.72
38.812,-43.69
38.828,-47.69
38.843,-52.0
38.859,-56.85
38.875,-62.18
38.890,-67.5
38.906,-71.88
38.921,-74.15
38.937,-73.18
38.953,-68.33
38.968,-59.67
38.984,-47.97
39.000,-34.56
39.015,-20.87
39.031,-8.11
39.046,2.91
39.062,11.85
39.078,18.7
39.093,23.61
39.109,26.82
39.125,28.59
39.140,29.22
39.156,29.04
39.171,28.43
39.187,27.71
39.203,27.12
39.218,26.83
39.234,26.81
39.250,26.98
39.265,27.23
39.281,27.44
39.296,27.55
39.312,27.46
39.328,27.09
39.343,26.23
39.359,24.78
39.375,22.62
39.390,19.79
39.406,16.44
39.421,12.76
39.437,8.98
39.453,5.2
39.468,1.41
39.484,-2.48
39.500,-6.45
39.515,-10.43
39.531,-14.28
39.546,-17.86
39.562,-21.2
39.578,-24.47
39.593,-27.96
39.609,-31.89
39.625,-36.36
39.640,-41.35
39.656,-46.72
39.671,-52.27
39.687,-57.65
39.703,-62.29
39.718,-65.31
39.734,-65.72
39.750,-62.71
39.765,-56.04
39.781,-46.22
39.796,-34.41
39.812,-22.01
39.828,-10.26
39.843,0.05
39.859,8.64
39.875,15.58
39.890,21.05
39.906,25.18
39.921,28.07
39.937,29.82
39.953,30.71
39.968,31.08
39.984,31.33
40.000,31.75
40.015,32.47
40.031,33.33
40.046,34.05
40.062,34.31
40.078,33.9
40.093,32.79
40.109,31.16
40.125,29.22
40.140,27.19
40.156,25.15
40.171,22.98
40.187,20.6
40.203,17.92
40.218,15.01
40.234,11.98
40.250,8.91
40.265,5.79
40.281,2.51
40.296,-1.1
40.312,-5.11
40.328,-9.49
40.343,-14.04
40.359,-18.51
40.375,-22.75
40.390,-26.72
40.406,-30.58
40.421,-34.54
40.437,-38.87
40.453,-43.73
40.468,-49.02
40.484,-54.29
40.500,-58.71
40.515,-61.25
40.531,-60.87
40.546,-56.93
40.562,-49.4
40.578,-39.02
40.593,-27.01
40.609,-14.78
40.625,-3.52
40.640,6.1
40.656,13.94
40.671,20.22
40.687,25.24
40.703,29.25
40.718,32.33
40.734,34.44
40.750,35.57
40.765,35.82
40.781,35.42
40.796,34.68
40.812,33.88
40.828,33.2
40.843,32.72
40.859,32.41
40.875,32.17
40.890,31.9
40.906,31.46
40.921,30.72
40.937,29.47
40.953,27.58
40.968,24.94
40.984,21.58
41.000,17.68
41.015,13.51
41.031,9.3
41.046,5.14
41.062,1.04
41.078,-3.12
41.093,-7.38
41.109,-11.7
41.125,-16.02
41.140,-20.23
41.156,-24.24
41.171,-28.02
41.187,-31.72
41.203,-35.52
41.218,-39.72
41.234,-44.54
41.250,-49.99
41.265,-55.72
41.281,-60.93
41.296,-64.45
41.312,-65.0
41.328,-61.63
41.343,-54.04
41.359,-42.74
41.375,-28.91
41.390,-14.11
41.406,0.24
41.421,13.09
41.437,23.92
41.453,32.68
41.468,39.6
41.484,45.03
41.500,49.34
41.515,52.79
41.531,55.66
41.546,58.16
41.562,60.46
41.578,62.7
41.593,64.95
41.609,67.3
41.625,69.86
41.640,72.74
41.656,76.05
41.671,79.78
41.687,83.81
41.703,87.88
41.718,91.69
41.734,95.02
41.750,97.86
41.765,100.46
41.781,103.16
41.796,106.26
41.812,109.79
41.828,113.51
41.843,117.09
41.859,120.29
41.875,123.09
41.890,125.67
41.906,128.22
41.921,130.71
41.937,132.71
41.953,133.46
41.968,132.11
41.984,128.08
42.000,121.07
42.015,110.99
42.031,97.67
42.046,80.91
42.062,60.7
42.078,37.7
42.093,13.57
42.109,-9.13
42.125,-27.61
42.140,-39.87
42.156,-45.37
42.171,-45.23
42.187,-41.6
42.203,-36.8
42.218,-32.57
42.234,-30.0
42.250,-29.8
42.265,-32.57
42.281,-38.75
42.296,-48.01
42.312,-58.75
42.328,-67.88
42.343,-71.7
42.359,-67.32
42.375,-54.28
42.390,-35.38
42.406,-16.18
42.421,-3.34
42.437,-2.39
42.453,-15.89
42.468,-42.7
42.484,-78.52
42.500,-117.49
42.515,-153.87
42.531,-183.52
42.546,-204.37
42.562,-216.24
42.578,-220.22
42.593,-218.01
42.609,-211.58
42.625,-202.96
42.640,-194.18
42.656,-186.99
42.671,-182.44
42.687,-180.5
42.703,-179.92
42.718,-178.57
42.734,-174.32
42.750,-165.9
42.765,-153.49
42.781,-138.73
42.796,-123.99
42.812,-111.53
42.828,-102.79
42.843,-98.07
42.859,-96.63
42.875,-96.98
42.890,-97.35
42.906,-95.95
42.921,-91.27
42.937,-82.37
42.953,-69.14
42.968,-52.34
42.984,-33.48
43.000,-14.39
43.015,3.29
43.031,18.47
43.046,30.78
43.062,40.34
43.078,47.55
43.093,52.73
43.109,56.15
43.125,57.98
43.140,58.44
43.156,57.88
43.171,56.74
43.187,55.41
43.203,54.22
43.218,53.39
43.234,52.95
43.250,52.79
43.265,52.66
43.281,52.26
43.296,51.29
43.312,49.63
43.328,47.28
43.343,44.44
43.359,41.38
43.375,38.33
43.390,35.36
43.406,32.4
43.421,29.29
43.437,25.83
43.453,21.82
43.468,17.15
43.484,11.75
43.500,5.69
43.515,-0.87
43.531,-7.66
43.546,-14.42
43.562,-20.94
43.578,-27.14
43.593,-33.1
43.609,-38.93
43.625,-44.73
43.640,-50.4
43.656,-55.6
43.671,-59.63
43.687,-61.57
43.703,-60.51
43.718,-55.8
43.734,-47.33
43.750,-35.63
43.765,-21.83
43.781,-7.38
43.796,6.3
43.812,18.23
43.828,28.04
43.843,35.87
43.859,42.15
43.875,47.31
43.890,51.53
43.906,54.74
43.921,56.78
43.937,57.58
43.953,57.33
43.968,56.45
43.984,55.42
44.000,54.58
44.015,53.95
44.031,53.33
44.046,52.41
44.062,51.02
44.078,49.19
44.093,47.07
44.109,44.86
44.125,42.65
44.140,40.4
44.156,37.92
44.171,35.01
44.187,31.46
44.203,27.23
44.218,22.39
44.234,17.1
44.250,11.56
44.265,6.02
44.281,0.69
44.296,-4.29
44.312,-8.85
44.328,-13.09
44.343,-17.14
44.359,-21.25
44.375,-25.74
44.390,-30.88
44.406,-36.81
44.421,-43.32
44.437,-49.66
44.453,-54.64
44.468,-56.94
44.484,-55.46
44.500,-49.93
44.515,-40.94
44.531,-29.81
44.546,-18.12
44.562,-7.13
44.578,2.51
44.593,10.74
44.609,17.8
44.625,23.91
44.640,29.07
44.656,33.14
44.671,36.03
44.687,37.84
44.703,38.81
44.718,39.28
44.734,39.47
44.750,39.48
44.765,39.26
44.781,38.78
44.796,37.98
44.812,36.86
44.828,35.42
44.843,33.65
44.859,31.52
44.875,29.1
44.890,26.4
44.906,23.45
44.921,20.2
44.937,16.55
44.953,12.43
44.968,7.81
44.984,2.92
45.000,-1.94
45.015,-6.36
45.031,-10.1
45.046,-13.14
45.062,-15.71
45.078,-18.2
45.093,-21.0
45.109,-24.48
45.125,-28.91
45.140,-34.41
45.156,-40.97
45.171,-48.29
45.187,-55.57
45.203,-61.59
45.218,-64.87
45.234,-64.11
45.250,-58.78
45.265,-49.25
45.281,-36.84
45.296,-23.32
45.312,-10.33
45.328,1.03
45.343,10.33
45.359,17.67
45.375,23.34
45.390,27.52
45.406,30.27
45.421,31.56
45.437,31.44
45.453,30.22
45.468,28.42
45.484,26.61
45.500,25.29
45.515,24.66
45.531,24.6
45.546,24.73
45.562,24.57
45.578,23.82
45.593,22.44
45.609,20.57
45.625,18.43
45.640,16.16
45.656,13.79
45.671,11.18
45.687,8.21
45.703,4.81
45.718,1.01
45.734,-3.01
45.750,-7.07
45.765,-11.05
45.781,-14.85
45.796,-18.46
45.812,-21.9
45.828,-25.25
45.843,-28.65
45.859,-32.3
45.875,-36.4
45.890,-41.0
45.906,-45.94
45.921,-50.65
45.937,-54.22
45.953,-55.56
45.968,-53.75
45.984,-48.31
46.000,-39.5
46.015,-28.25
46.031,-15.9
46.046,-3.79
46.062,7.11
46.078,16.34
46.093,23.95
46.109,30.19
46.125,35.31
46.140,39.38
46.156,42.33
46.171,44.07
46.187,44.66
46.203,44.37
46.218,43.63
46.234,42.88
46.250,42.34
46.265,41.99
46.281,41.51
46.296,40.53
46.312,38.84
46.328,36.48
46.343,33.75
46.359,31.02
46.375,28.58
46.390,26.37
46.406,24.14
46.421,21.5
46.437,18.14
46.453,14.0
46.468,9.3
46.484,4.42
46.500,-0.26
46.515,-4.49
46.531,-8.26
46.546,-11.78
46.562,-15.39
46.578,-19.42
46.593,-24.03
46.609,-29.26
46.625,-34.87
46.640,-40.44
46.656,-45.25
46.671,-48.47
46.687,-49.21
46.703,-46.76
46.718,-40.88
46.734,-31.95
46.750,-20.93
46.765,-9.13
46.781,2.16
46.796,12.1
46.812,20.36
46.828,27.07
46.843,32.59
46.859,37.18
46.875,40.98
46.890,43.97
46.906,46.08
46.921,47.37
46.937,48.07
46.953,48.41
46.968,48.63
46.984,48.84
47.000,48.99
47.015,49.03
47.031,48.93
47.046,48.73
47.062,48.53
47.078,48.45
47.093,48.44
47.109,48.41
47.125,48.18
47.140,47.51
47.156,46.26
47.171,44.42
47.187,42.06
47.203,39.35
47.218,36.46
47.234,33.55
47.250,30.78
47.265,28.27
47.281,26.06
47.296,24.2
47.312,22.64
47.328,21.32
47.343,20.14
47.359,19.03
47.375,17.94
47.390,16.85
47.406,15.67
47.421,14.3
47.437,12.61
47.453,10.56
47.468,8.23
47.484,5.78
47.500,3.43
47.515,1.33
47.531,-0.43
47.546,-1.91
47.562,-3.16
47.578,-4.28
47.593,-5.35
47.609,-6.5
47.625,-7.79
47.640,-9.26
47.656,-10.91
47.671,-12.64
47.687,-14.33
47.703,-15.88
47.718,-17.24
47.734,-18.54
47.750,-19.92
47.765,-21.55
47.781,-23.5
47.796,-25.67
47.812,-27.84
47.828,-29.71
47.843,-31.09
47.859,-31.98
47.875,-32.66
47.890,-33.56
47.906,-35.14
47.921,-37.65
47.937,-40.99
47.953,-44.77
47.968,-48.53
47.984,-51.9
48.000,-54.79
48.015,-57.38
48.031,-60.04
48.046,-63.11
48.062,-66.84
48.078,-71.25
48.093,-76.04
48.109,-80.56
48.125,-83.75
48.140,-84.39
48.156,-81.37
48.171,-74.15
48.187,-62.99
48.203,-48.96
48.218,-33.63
48.234,-18.67
48.250,-5.41
48.265,5.46
48.281,13.68
48.296,19.35
48.312,22.74
48.328,24.13
48.343,23.92
48.359,22.66
48.375,20.99
48.390,19.53
48.406,18.7
48.421,18.59
48.437,19.02
48.453,19.61
48.468,20.02
48.484,20.06
48.500,19.74
48.515,19.22
48.531,18.6
48.546,17.87
48.562,16.84
48.578,15.21
48.593,12.72
48.609,9.27
48.625,5.01
48.640,0.28
48.656,-4.45
48.671,-8.79
48.687,-12.54
48.703,-15.77
48.718,-18.75
48.734,-21.84
48.750,-25.4
48.765,-29.52
48.781,-34.02
48.796,-38.31
48.812,-41.55
48.828,-42.77
48.843,-41.18
48.859,-36.44
48.875,-28.75
48.890,-18.88
48.906,-7.92
48.921,3.01
48.937,13.08
48.953,21.82
48.968,29.13
48.984,35.14
49.000,40.0
49.015,43.83
49.031,46.6
49.046,48.31
49.062,49.04
49.078,48.96
49.093,48.39
49.109,47.62
49.125,46.89
49.140,46.27
49.156,45.74
49.171,45.22
49.187,44.71
49.203,44.28
49.218,44.04
49.234,44.04
49.250,44.18
49.265,44.26
49.281,43.98
49.296,43.09
49.312,41.51
49.328,39.41
49.343,37.08
49.359,34.81
49.375,32.77
49.390,30.97
49.406,29.28
49.421,27.55
49.437,25.7
49.453,23.78
49.468,21.86
49.484,20.02
49.500,18.2
49.515,16.36
49.531,14.42
49.546,12.43
49.562,10.53
49.578,8.87
49.593,7.5
49.609,6.33
49.625,5.15
49.640,3.77
49.656,2.22
49.671,0.68
49.687,-0.58
49.703,-1.37
49.718,-1.73
49.734,-2.0
49.750,-2.63
49.765,-4.07
49.781,-6.48
49.796,-9.73
49.812,-13.56
49.828,-17.62
49.843,-21.63
49.859,-25.46
49.875,-29.05
49.890,-32.4
49.906,-35.56
49.921,-38.63
49.937,-41.73
49.953,-45.08
49.968,-48.75
49.984,-52.65
50.000,-56.56
50.015,-60.22
50.031,-63.48
50.046,-66.51
50.062,-69.75
50.078,-73.79
50.093,-79.11
50.109,-85.76
50.125,-93.16
50.140,-100.08
50.156,-104.84
50.171,-105.71
50.187,-101.4
50.203,-91.56
50.218,-76.92
50.234,-59.09
50.250,-40.13
50.265,-21.97
50.281,-6.02
50.296,7.04
50.312,17.15
50.328,24.65
50.343,30.04
50.359,33.76
50.375,36.19
50.390,37.69
50.406,38.62
50.421,39.37
50.437,40.32
50.453,41.74
50.468,43.73
50.484,46.21
50.500,48.99
50.515,51.77
50.531,54.41
50.546,56.86
50.562,59.17
50.578,61.44
50.593,63.73
50.609,65.99
50.625,68.15
50.640,70.13
50.656,71.84
50.671,73.23
50.687,74.28
50.703,75.02
50.718,75.48
50.734,75.7
50.750,75.69
50.765,75.5
50.781,75.34
50.796,75.69
50.812,77.17
50.828,80.36
50.843,85.57
50.859,92.72
50.875,101.36
50.890,110.83
50.906,120.34
50.921,128.96
50.937,135.47
50.953,138.41
50.968,136.22
50.984,127.7
51.000,112.44
51.015,91.0
51.031,64.69
51.046,35.11
51.062,3.65
51.078,-28.7
51.093,-61.36
51.109,-93.89
51.125,-125.67
51.140,-155.85
51.156,-183.21
51.171,-206.22
51.187,-223.22
51.203,-232.68
51.218,-233.56
51.234,-225.68
51.250,-209.91
51.265,-188.05
51.281,-162.46
51.296,-135.63
51.312,-109.8
51.328,-86.67
51.343,-67.28
51.359,-52.1
51.375,-41.08
51.390,-33.82
51.406,-29.78
51.421,-28.44
51.437,-29.32
51.453,-31.8
51.468,-34.95
51.484,-37.38
51.500,-37.58
51.515,-34.22
51.531,-26.8
51.546,-15.88
51.562,-3.06
51.578,9.57
51.593,20.14
51.609,27.54
51.625,31.85
51.640,34.05
51.656,35.65
51.671,38.02
51.687,41.99
51.703,47.69
51.718,54.55
51.734,61.6
51.750,67.62
51.765,71.47
51.781,72.32
51.796,69.86
51.812,64.4
51.828,56.91
51.843,48.83
51.859,41.64
51.875,36.47
51.890,33.73
51.906,33.11
51.921,33.73
51.937,34.47
51.953,34.27
51.968,32.48
51.984,28.89
52.000,23.73
52.015,17.55
52.031,10.98
52.046,4.62
52.062,-1.11
52.078,-6.05
52.093,-10.2
52.109,-13.68
52.125,-16.49
52.140,-18.35
52.156,-18.57
52.171,-16.2
52.187,-10.32
52.203,-0.5
52.218,12.84
52.234,28.3
52.250,43.9
52.265,57.6
52.281,67.98
52.296,74.55
52.312,77.65
52.328,78.1
52.343,76.63
52.359,73.7
52.375,69.39
52.390,63.72
52.406,56.86
52.421,49.29
52.437,41.64
52.453,34.44
52.468,27.86
52.484,21.5
52.500,14.65
52.515,6.56
52.531,-3.18
52.546,-14.49
52.562,-26.8
52.578,-39.36
52.593,-51.53
52.609,-62.86
52.625,-73.03
52.640,-81.7
52.656,-88.39
52.671,-92.6
52.687,-94.04
52.703,-92.85
52.718,-89.77
52.734,-85.87
52.750,-82.18
52.765,-79.37
52.781,-77.52
52.796,-76.17
52.812,-74.69
52.828,-72.52
52.843,-69.4
52.859,-65.34
52.875,-60.48
52.890,-54.92
52.906,-48.72
52.921,-41.89
52.937,-34.59
52.953,-27.18
52.968,-20.15
52.984,-14.0
53.000,-8.98
53.015,-5.03
53.031,-1.79
53.046,1.17
53.062,4.26
53.078,7.62
53.093,11.1
53.109,14.37
53.125,17.05
53.140,18.86
53.156,19.74
53.171,19.86
53.187,19.46
53.203,18.91
53.218,18.49
53.234,18.39
53.250,18.65
53.265,19.26
53.281,20.07
53.296,20.88
53.312,21.45
53.328,21.51
53.343,20.91
53.359,19.64
53.375,17.83
53.390,15.72
53.406,13.53
53.421,11.3
53.437,8.94
53.453,6.28
53.468,3.16
53.484,-0.44
53.500,-4.29
53.515,-8.03
53.531,-11.21
53.546,-13.56
53.562,-15.15
53.578,-16.45
53.593,-18.39
53.609,-22.18
53.625,-28.99
53.640,-39.53
53.656,-53.59
53.671,-69.87
53.687,-86.19
53.703,-99.96
53.718,-108.89
53.734,-111.64
53.750,-108.09
53.765,-99.24
53.781,-86.87
53.796,-73.01
53.812,-59.49
53.828,-47.72
53.843,-38.56
53.859,-32.3
53.875,-28.76
53.890,-27.24
53.906,-26.76
53.921,-26.15
53.937,-24.46
53.953,-21.04
53.968,-15.78
53.984,-9.17
54.000,-2.09
54.015,4.4
54.031,9.46
54.046,12.73
54.062,14.33
54.078,14.82
54.093,14.82
54.109,14.78
54.125,14.75
54.140,14.42
54.156,13.3
54.171,11.03
54.187,7.55
54.203,3.09
54.218,-1.93
54.234,-7.15
54.250,-12.38
54.265,-17.73
54.281,-23.5
54.296,-30.0
54.312,-37.48
54.328,-45.89
54.343,-54.92
54.359,-63.86
54.375,-71.62
54.390,-76.84
54.406,-78.17
54.421,-74.58
54.437,-65.75
54.453,-52.28
54.468,-35.5
54.484,-17.25
54.500,0.75
54.515,17.23
54.531,31.52
54.546,43.48
54.562,53.26
54.578,61.0
54.593,66.77
54.609,70.71
54.625,73.07
54.640,74.35
54.656,75.17
54.671,76.05
54.687,77.31
54.703,78.91
54.718,80.61
54.734,82.06
54.750,83.15
54.765,83.95
54.781,84.71
54.796,85.6
54.812,86.56
54.828,87.26
54.843,87.12
54.859,85.62
54.875,82.48
54.890,77.85
54.906,72.25
54.921,66.45
54.937,61.16
54.953,56.75
54.968,53.18
54.984,49.88
55.000,45.95
55.015,40.43
55.031,32.65
55.046,22.48
55.062,10.47
55.078,-2.15
55.093,-13.84
55.109,-23.09
55.125,-28.8
55.140,-30.56
55.156,-28.62
55.171,-23.64
55.187,-16.44
55.203,-7.78
55.218,1.85
55.234,12.13
55.250,22.92
55.265,34.11
55.281,45.49
55.296,56.67
55.312,67.11
55.328,76.24
55.343,83.67
55.359,89.28
55.375,93.27
55.390,96.02
55.406,97.91
55.421,99.06
55.437,99.33
55.453,98.36
55.468,95.87
55.484,91.8
55.500,86.33
55.515,79.75
55.531,72.22
55.546,63.73
55.562,54.12
55.578,43.2
55.593,30.97
55.609,17.51
55.625,2.92
55.640,-12.9
55.656,-30.22
55.671,-49.19
55.687,-69.47
55.703,-89.96
55.718,-108.95
55.734,-124.68
55.750,-135.96
55.765,-142.6
55.781,-145.4
55.796,-145.63
55.812,-144.43
55.828,-142.26
55.843,-138.82
55.859,-133.28
55.875,-124.76
55.890,-112.88
55.906,-97.85
55.921,-80.57
55.937,-62.13
55.953,-43.64
55.968,-25.88
55.984,-9.22
56.000,6.19
56.015,20.35
56.031,33.08
56.046,44.09
56.062,53.04
56.078,59.67
56.093,63.9
56.109,65.91
56.125,66.12
56.140,65.13
56.156,63.69
56.171,62.51
56.187,62.1
56.203,62.73
56.218,64.34
56.234,66.69
56.250,69.44
56.265,72.39
56.281,75.29
56.296,78.02
56.312,80.39
56.328,82.18
56.343,83.22
56.359,83.41
56.375,82.79
56.390,81.43
56.406,79.51
56.421,77.21
56.437,74.83
56.453,72.73
56.468,71.14
56.484,69.91
56.500,68.5
56.515,65.97
56.531,61.33
56.546,53.72
56.562,42.65
56.578,28.15
56.593,10.76
56.609,-8.52
56.625,-28.26
56.640,-46.91
56.656,-62.97
56.671,-75.39
56.687,-83.84
56.703,-88.77
56.718,-91.32
56.734,-92.99
56.750,-95.33
56.765,-99.39
56.781,-105.59
56.796,-113.57
56.812,-122.32
56.828,-130.62
56.843,-137.56
56.859,-143.01
56.875,-147.58
56.890,-152.39
56.906,-158.4
56.921,-165.91
56.937,-174.2
56.953,-181.64
56.968,-186.03
56.984,-185.25
57.000,-177.89
57.015,-163.77
57.031,-144.05
57.046,-121.16
57.062,-98.04
57.078,-77.43
57.093,-61.04
57.109,-49.27
57.125,-41.42
57.140,-36.34
57.156,-33.0
57.171,-30.73
57.187,-29.24
57.203,-28.33
57.218,-27.69
57.234,-26.95
57.250,-25.8
57.265,-24.19
57.281,-22.36
57.296,-20.79
57.312,-19.98
57.328,-20.31
57.343,-21.88
57.359,-24.75
57.375,-28.89
57.390,-34.38
57.406,-41.18
57.421,-48.92
57.437,-56.7
57.453,-63.05
57.468,-66.21
57.484,-64.59
57.500,-57.37
57.515,-44.87
57.531,-28.48
57.546,-10.27
57.562,7.69
57.578,23.82
57.593,37.32
57.609,48.03
57.625,56.23
57.640,62.33
57.656,66.72
57.671,69.73
57.687,71.73
57.703,73.07
57.718,74.06
57.734,74.91
57.750,75.67
57.765,76.2
57.781,76.28
57.796,75.75
57.812,74.65
57.828,73.15
57.843,71.58
57.859,70.17
57.875,69.02
57.890,67.93
57.906,66.56
57.921,64.53
57.937,61.6
57.953,57.74
57.968,53.13
57.984,48.1
58.000,42.92
58.015,37.79
58.031,32.65
58.046,27.34
58.062,21.65
58.078,15.49
58.093,9.03
58.109,2.63
58.125,-3.19
58.140,-8.13
58.156,-12.16
58.171,-15.67
58.187,-19.34
58.203,-23.86
58.218,-29.7
58.234,-36.7
58.250,-44.12
58.265,-50.62
58.281,-54.59
58.296,-54.62
58.312,-49.83
58.328,-40.19
58.343,-26.54
58.359,-10.37
58.375,6.59
58.390,22.71
58.406,36.81
58.421,48.3
58.437,57.09
58.453,63.48
58.468,67.85
58.484,70.51
58.500,71.71
58.515,71.64
58.531,70.52
58.546,68.68
58.562,66.53
58.578,64.42
58.593,62.58
58.609,61.0
58.625,59.6
58.640,58.23
58.656,56.84
58.671,55.41
58.687,53.87
58.703,52.08
58.718,49.79
58.734,46.77
58.750,42.91
58.765,38.35
58.781,33.37
58.796,28.34
58.812,23.46
58.828,18.81
58.843,14.22
58.859,9.49
58.875,4.48
58.890,-0.78
58.906,-6.09
58.921,-11.23
58.937,-16.02
58.953,-20.47
58.968,-24.74
58.984,-29.2
59.000,-34.24
59.015,-40.16
59.031,-46.97
59.046,-54.21
59.062,-60.93
59.078,-65.73
59.093,-67.1
59.109,-63.89
59.125,-55.69
59.140,-43.07
59.156,-27.48
59.171,-10.85
59.187,4.95
59.203,18.57
59.218,29.46
59.234,37.74
59.250,43.83
59.265,48.25
59.281,51.35
59.296,53.28
59.312,54.18
59.328,54.32
59.343,54.1
59.359,53.93
59.375,54.05
59.390,54.44
59.406,54.94
59.421,55.38
59.437,55.73
59.453,56.18
59.468,56.9
59.484,57.91
59.500,59.0
59.515,59.84
59.531,60.17
59.546,59.98
59.562,59.54
59.578,59.2
59.593,59.3
59.609,59.87
59.625,60.68
59.640,61.34
59.656,61.56
59.671,61.25
59.687,60.65
59.703,60.23
59.718,60.51
59.734,61.85
59.750,64.27
59.765,67.32
59.781,70.28
59.796,72.34
59.812,72.99
59.828,72.22
59.843,70.66
59.859,69.49
59.875,70.16
59.890,73.89
59.906,81.22
59.921,91.52
59.937,102.92
59.953,112.61
59.968,117.5
59.984,115.08
