timestamp,value
00.000,183.33
00.015,179.42
00.031,172.14
00.046,159.61
00.062,140.51
00.078,114.5
00.093,82.31
00.109,45.43
00.125,5.92
00.140,-33.73
00.156,-70.75
00.171,-102.16
00.187,-125.33
00.203,-138.87
00.218,-143.26
00.234,-140.63
00.250,-133.73
00.265,-124.33
00.281,-112.24
00.296,-95.67
00.312,-72.64
00.328,-42.65
00.343,-7.47
00.359,29.41
00.375,64.27
00.390,94.59
00.406,119.55
00.421,139.64
00.437,155.75
00.453,168.64
00.468,179.03
00.484,187.97
00.500,196.75
00.515,206.11
00.531,215.22
00.546,221.44
00.562,221.11
00.578,211.32
00.593,191.69
00.609,164.69
00.625,134.53
00.640,105.14
00.656,78.26
00.671,53.28
00.687,28.44
00.703,2.8
00.718,-22.67
00.734,-45.89
00.750,-65.92
00.765,-84.93
00.781,-108.07
00.796,-140.7
00.812,-184.55
00.828,-235.2
00.843,-283.08
00.859,-317.43
00.875,-331.27
00.890,-324.28
00.906,-302.07
00.921,-272.46
00.937,-241.35
00.953,-210.59
00.968,-178.99
00.984,-145.16
01.000,-109.9
01.015,-76.64
01.031,-49.73
01.046,-31.99
01.062,-23.32
01.078,-21.05
01.093,-21.47
01.109,-21.46
01.125,-19.37
01.140,-14.9
01.156,-8.65
01.171,-1.52
01.187,5.54
01.203,11.66
01.218,16.32
01.234,19.45
01.250,21.64
01.265,23.92
01.281,27.35
01.296,32.54
01.312,39.5
01.328,47.77
01.343,56.83
01.359,66.32
01.375,76.15
01.390,86.17
01.406,95.92
01.421,104.42
01.437,110.43
01.453,112.94
01.468,111.66
01.484,107.26
01.500,101.17
01.515,95.03
01.531,90.05
01.546,86.55
01.562,83.94
01.578,81.09
01.593,76.87
01.609,70.67
01.625,62.5
01.640,52.93
01.656,42.71
01.671,32.57
01.687,23.02
01.703,14.45
01.718,7.08
01.734,1.05
01.750,-3.56
01.765,-6.63
01.781,-7.89
01.796,-7.1
01.812,-4.02
01.828,1.29
01.843,8.57
01.859,17.39
01.875,27.34
01.890,37.88
01.906,48.15
01.921,56.63
01.937,61.29
01.953,60.28
01.968,52.94
01.984,40.49
02.000,25.71
02.015,11.94
02.031,1.66
02.046,-4.28
02.062,-6.53
02.078,-6.24
02.093,-4.02
02.109,0.39
02.125,7.72
02.140,18.25
02.156,31.28
02.171,45.15
02.187,57.93
02.203,68.04
02.218,74.65
02.234,77.59
02.250,76.81
02.265,72.15
02.281,63.38
02.296,50.54
02.312,34.39
02.328,16.63
02.343,-0.39
02.359,-14.38
02.375,-23.96
02.390,-29.21
02.406,-31.48
02.421,-32.46
02.437,-33.15
02.453,-33.19
02.468,-30.99
02.484,-24.92
02.500,-14.6
02.515,-1.9
02.531,9.24
02.546,13.84
02.562,7.65
02.578,-11.43
02.593,-42.4
02.609,-81.32
02.625,-122.26
02.640,-158.9
02.656,-186.28
02.671,-202.1
02.687,-207.22
02.703,-205.03
02.718,-200.04
02.734,-196.07
02.750,-195.01
02.765,-196.38
02.781,-197.89
02.796,-196.57
02.812,-189.95
02.828,-176.81
02.843,-157.28
02.859,-132.46
02.875,-103.91
02.890,-73.35
02.906,-42.63
02.921,-13.68
02.937,11.53
02.953,31.36
02.968,44.88
02.984,52.26
03.000,54.82
03.015,54.64
03.031,53.93
03.046,54.25
03.062,56.2
03.078,59.41
03.093,62.94
03.109,65.77
03.125,67.23
03.140,67.08
03.156,65.51
03.171,63.01
03.187,60.17
03.203,57.44
03.218,55.05
03.234,52.92
03.250,50.79
03.265,48.35
03.281,45.46
03.296,42.22
03.312,38.84
03.328,35.64
03.343,32.85
03.359,30.68
03.375,29.55
03.390,30.22
03.406,33.8
03.421,41.35
03.437,53.29
03.453,68.79
03.468,85.65
03.484,100.7
03.500,110.71
03.515,113.52
03.531,108.67
03.546,97.54
03.562,82.72
03.578,67.21
03.593,53.44
03.609,42.84
03.625,35.65
03.640,31.28
03.656,28.72
03.671,26.95
03.687,25.18
03.703,22.77
03.718,19.08
03.734,13.31
03.750,4.65
03.765,-7.41
03.781,-22.55
03.796,-39.37
03.812,-55.72
03.828,-69.26
03.843,-78.39
03.859,-82.68
03.875,-82.84
03.890,-80.19
03.906,-75.92
03.921,-70.58
03.937,-64.04
03.953,-55.79
03.968,-45.4
03.984,-32.89
04.000,-18.86
04.015,-4.29
04.031,9.78
04.046,22.5
04.062,33.41
04.078,42.4
04.093,49.62
04.109,55.31
04.125,59.7
04.140,63.03
04.156,65.53
04.171,67.4
04.187,68.78
04.203,69.66
04.218,69.86
04.234,69.13
04.250,67.29
04.265,64.33
04.281,60.42
04.296,55.8
04.312,50.72
04.328,45.4
04.343,40.09
04.359,35.05
04.375,30.42
04.390,26.12
04.406,21.87
04.421,17.37
04.437,12.65
04.453,8.3
04.468,5.43
04.484,5.26
04.500,8.56
04.515,15.15
04.531,23.96
04.546,33.27
04.562,41.4
04.578,47.21
04.593,50.44
04.609,51.59
04.625,51.57
04.640,51.09
04.656,50.3
04.671,48.8
04.687,46.02
04.703,41.92
04.718,37.4
04.734,34.08
04.750,33.63
04.765,36.81
04.781,42.91
04.796,49.95
04.812,55.4
04.828,57.14
04.843,53.93
04.859,45.48
04.875,31.99
04.890,13.95
04.906,-7.66
04.921,-30.91
04.937,-52.7
04.953,-69.32
04.968,-77.68
04.984,-76.63
05.000,-67.58
05.015,-53.98
05.031,-39.86
05.046,-28.07
05.062,-19.24
05.078,-11.88
05.093,-3.71
05.109,6.75
05.125,19.15
05.140,31.4
05.156,40.84
05.171,45.7
05.187,45.84
05.203,42.61
05.218,37.88
05.234,32.99
05.250,28.21
05.265,23.12
05.281,17.47
05.296,11.83
05.312,7.72
05.328,6.99
05.343,10.84
05.359,19.31
05.375,31.24
05.390,44.8
05.406,58.16
05.421,69.89
05.437,78.95
05.453,84.5
05.468,85.76
05.484,81.98
05.500,72.76
05.515,58.4
05.531,39.95
05.546,19.21
05.562,-1.58
05.578,-20.16
05.593,-34.65
05.609,-43.74
05.625,-46.91
05.640,-44.48
05.656,-37.38
05.671,-26.84
05.687,-14.12
05.703,-0.4
05.718,13.12
05.734,25.1
05.750,34.03
05.765,38.34
05.781,36.67
05.796,28.22
05.812,12.94
05.828,-8.24
05.843,-33.4
05.859,-59.87
05.875,-84.71
05.890,-105.38
05.906,-120.39
05.921,-129.63
05.937,-134.25
05.953,-136.13
05.968,-137.02
05.984,-137.98
06.000,-139.19
06.015,-140.02
06.031,-139.44
06.046,-136.43
06.062,-130.12
06.078,-119.97
06.093,-105.9
06.109,-88.31
06.125,-67.93
06.140,-45.73
06.156,-22.78
06.171,-0.27
06.187,20.33
06.203,37.31
06.218,48.96
06.234,54.0
06.250,52.2
06.265,44.58
06.281,33.26
06.296,20.79
06.312,9.31
06.328,0.04
06.343,-6.81
06.359,-11.77
06.375,-15.64
06.390,-19.17
06.406,-23.06
06.421,-28.09
06.437,-35.17
06.453,-45.16
06.468,-58.63
06.484,-75.52
06.500,-95.07
06.515,-115.88
06.531,-136.27
06.546,-154.51
06.562,-169.1
06.578,-178.91
06.593,-183.27
06.609,-182.01
06.625,-175.55
06.640,-164.82
06.656,-151.12
06.671,-135.85
06.687,-120.22
06.703,-105.02
06.718,-90.53
06.734,-76.59
06.750,-62.87
06.765,-49.23
06.781,-35.91
06.796,-23.51
06.812,-12.7
06.828,-3.82
06.843,3.55
06.859,10.32
06.875,17.5
06.890,25.63
06.906,34.42
06.921,42.81
06.937,49.59
06.953,53.94
06.968,55.84
06.984,55.96
07.000,55.28
07.015,54.54
07.031,53.87
07.046,52.82
07.062,50.6
07.078,46.6
07.093,40.73
07.109,33.48
07.125,25.63
07.140,17.98
07.156,11.12
07.171,5.5
07.187,1.59
07.203,0.01
07.218,1.42
07.234,6.2
07.250,14.1
07.265,24.13
07.281,34.73
07.296,44.1
07.312,50.59
07.328,53.02
07.343,50.7
07.359,43.59
07.375,32.16
07.390,17.45
07.406,1.07
07.421,-15.04
07.437,-28.97
07.453,-39.13
07.468,-44.63
07.484,-45.41
07.500,-42.13
07.515,-36.16
07.531,-29.25
07.546,-23.24
07.562,-19.76
07.578,-19.78
07.593,-23.41
07.609,-29.9
07.625,-37.92
07.640,-45.87
07.656,-52.37
07.671,-56.48
07.687,-57.79
07.703,-56.44
07.718,-52.9
07.734,-47.69
07.750,-41.19
07.765,-33.49
07.781,-24.36
07.796,-13.37
07.812,-0.26
07.828,14.74
07.843,30.76
07.859,46.45
07.875,60.36
07.890,71.43
07.906,79.31
07.921,84.4
07.937,87.63
07.953,90.05
07.968,92.4
07.984,94.76
08.000,96.34
08.015,95.69
08.031,91.19
08.046,81.86
08.062,67.89
08.078,50.92
08.093,33.53
08.109,18.41
08.125,7.41
08.140,1.11
08.156,-1.08
08.171,-0.39
08.187,2.06
08.203,5.61
08.218,10.17
08.234,15.95
08.250,23.14
08.265,31.75
08.281,41.38
08.296,51.4
08.312,61.09
08.328,69.9
08.343,77.51
08.359,83.84
08.375,88.88
08.390,92.52
08.406,94.42
08.421,94.15
08.437,91.36
08.453,86.01
08.468,78.46
08.484,69.41
08.500,59.61
08.515,49.75
08.531,40.3
08.546,31.56
08.562,23.69
08.578,16.72
08.593,10.6
08.609,5.18
08.625,0.34
08.640,-3.92
08.656,-7.42
08.671,-9.92
08.687,-11.35
08.703,-12.06
08.718,-12.79
08.734,-14.43
08.750,-17.54
08.765,-21.83
08.781,-26.05
08.796,-28.27
08.812,-26.64
08.828,-20.13
08.843,-9.11
08.859,4.69
08.875,18.8
08.890,30.81
08.906,39.2
08.921,43.67
08.937,44.92
08.953,44.1
08.968,42.13
08.984,39.39
09.000,35.65
09.015,30.36
09.031,22.73
09.046,11.86
09.062,-3.14
09.078,-22.82
09.093,-46.81
09.109,-73.31
09.125,-99.12
09.140,-120.49
09.156,-134.59
09.171,-140.85
09.187,-141.35
09.203,-139.88
09.218,-140.16
09.234,-144.06
09.250,-150.88
09.265,-157.83
09.281,-161.29
09.296,-158.11
09.312,-146.4
09.328,-125.73
09.343,-97.19
09.359,-63.32
09.375,-27.79
09.390,5.17
09.406,31.89
09.421,50.26
09.437,60.45
09.453,64.63
09.468,66.06
09.484,67.85
09.500,72.13
09.515,79.85
09.531,90.95
09.546,104.59
09.562,119.33
09.578,133.28
09.593,144.39
09.609,151.03
09.625,152.51
09.640,149.34
09.656,143.01
09.671,135.4
09.687,128.23
09.703,122.53
09.718,118.57
09.734,115.93
09.750,113.79
09.765,111.23
09.781,107.42
09.796,101.79
09.812,94.31
09.828,85.65
09.843,77.2
09.859,70.8
09.875,68.13
09.890,70.08
09.906,76.44
09.921,85.97
09.937,97.07
09.953,108.35
09.968,119.15
09.984,129.55
10.000,139.87
10.015,150.06
10.031,159.4
10.046,166.6
10.062,170.55
10.078,170.99
10.093,168.99
10.109,166.46
10.125,165.15
10.140,165.52
10.156,166.27
10.171,164.85
10.187,158.7
10.203,146.48
10.218,128.7
10.234,107.14
10.250,83.64
10.265,59.12
10.281,33.5
10.296,6.44
10.312,-21.49
10.328,-48.45
10.343,-71.94
10.359,-89.98
10.375,-102.23
10.390,-110.24
10.406,-116.58
10.421,-123.45
10.437,-131.64
10.453,-140.25
10.468,-147.36
10.484,-151.02
10.500,-150.02
10.515,-144.29
10.531,-134.69
10.546,-122.7
10.562,-110.19
10.578,-99.16
10.593,-91.37
10.609,-87.98
10.625,-89.4
10.640,-95.32
10.656,-104.9
10.671,-116.79
10.687,-129.16
10.703,-139.74
10.718,-146.05
10.734,-146.13
10.750,-139.31
10.765,-126.66
10.781,-110.62
10.796,-94.07
10.812,-79.21
10.828,-66.78
10.843,-56.23
10.859,-46.57
10.875,-37.47
10.890,-29.9
10.906,-25.86
10.921,-27.56
10.937,-36.28
10.953,-51.83
10.968,-72.44
10.984,-95.31
11.000,-117.35
11.015,-135.9
11.031,-149.19
11.046,-156.38
11.062,-157.4
11.078,-152.55
11.093,-142.42
11.109,-127.79
11.125,-109.71
11.140,-89.57
11.156,-68.99
11.171,-49.54
11.187,-32.56
11.203,-18.89
11.218,-8.79
11.234,-1.72
11.250,3.54
11.265,8.64
11.281,15.25
11.296,24.58
11.312,36.87
11.328,51.16
11.343,65.37
11.359,76.92
11.375,83.66
11.390,84.82
11.406,81.49
11.421,76.45
11.437,73.14
11.453,74.48
11.468,81.65
11.484,93.8
11.500,108.37
11.515,122.1
11.531,132.08
11.546,136.56
11.562,135.17
11.578,128.89
11.593,119.7
11.609,110.09
11.625,102.5
11.640,98.77
11.656,99.46
11.671,103.64
11.687,109.11
11.703,112.98
11.718,112.54
11.734,106.07
11.750,93.15
11.765,74.67
11.781,52.51
11.796,29.07
11.812,6.55
11.828,-13.71
11.843,-31.72
11.859,-49.01
11.875,-68.21
11.890,-92.34
11.906,-123.6
11.921,-162.37
11.937,-206.43
11.953,-251.01
11.968,-289.66
11.984,-315.95
12.000,-325.37
12.015,-316.79
12.031,-292.69
12.046,-258.2
12.062,-219.18
12.078,-180.52
12.093,-145.37
12.109,-115.45
12.125,-91.91
12.140,-75.85
12.156,-67.95
12.171,-67.64
12.187,-72.34
12.203,-77.85
12.218,-79.76
12.234,-75.16
12.250,-63.83
12.265,-48.11
12.281,-31.58
12.296,-17.58
12.312,-8.11
12.328,-3.78
12.343,-4.29
12.359,-9.01
12.375,-17.15
12.390,-27.51
12.406,-38.22
12.421,-46.74
12.437,-50.41
12.453,-47.36
12.468,-37.34
12.484,-21.91
12.500,-4.12
12.515,12.52
12.531,25.1
12.546,31.95
12.562,32.89
12.578,28.97
12.593,21.89
12.609,13.49
12.625,5.38
12.640,-1.32
12.656,-5.93
12.671,-8.02
12.687,-7.42
12.703,-4.17
12.718,1.3
12.734,8.15
12.750,15.22
12.765,21.37
12.781,25.93
12.796,28.89
12.812,30.79
12.828,32.28
12.843,33.61
12.859,34.34
12.875,33.56
12.890,30.42
12.906,24.71
12.921,17.17
12.937,9.25
12.953,2.56
12.968,-1.75
12.984,-3.41
13.000,-2.96
13.015,-1.43
13.031,0.23
13.046,1.45
13.062,2.15
13.078,2.58
13.093,2.96
13.109,3.21
13.125,2.91
13.140,1.43
13.156,-1.7
13.171,-6.53
13.187,-12.59
13.203,-19.04
13.218,-25.02
13.234,-29.87
13.250,-33.2
13.265,-34.85
13.281,-34.63
13.296,-32.36
13.312,-28.0
13.328,-21.82
13.343,-14.54
13.359,-7.29
13.375,-1.21
13.390,2.84
13.406,4.67
13.421,4.79
13.437,4.25
13.453,4.37
13.468,6.29
13.484,10.57
13.500,17.05
13.515,24.8
13.531,32.52
13.546,38.97
13.562,43.3
13.578,45.25
13.593,45.01
13.609,43.04
13.625,40.03
13.640,36.75
13.656,34.15
13.671,33.06
13.687,33.88
13.703,36.26
13.718,39.16
13.734,41.21
13.750,41.3
13.765,39.14
13.781,35.38
13.796,31.36
13.812,28.56
13.828,28.11
13.843,30.46
13.859,35.38
13.875,42.07
13.890,49.3
13.906,55.66
13.921,59.74
13.937,60.63
13.953,58.23
13.968,53.49
13.984,48.05
14.000,43.73
14.015,41.69
14.031,42.09
14.046,44.1
14.062,46.41
14.078,47.97
14.093,48.47
14.109,48.39
14.125,48.57
14.140,49.61
14.156,51.5
14.171,53.6
14.187,55.14
14.203,55.63
14.218,55.08
14.234,53.85
14.250,52.35
14.265,50.75
14.281,48.9
14.296,46.61
14.312,43.84
14.328,40.86
14.343,38.16
14.359,36.2
14.375,35.2
14.390,35.11
14.406,35.56
14.421,35.89
14.437,35.18
14.453,32.44
14.468,26.98
14.484,18.81
14.500,8.75
14.515,-1.91
14.531,-12.11
14.546,-21.65
14.562,-31.21
14.578,-41.95
14.593,-54.67
14.609,-69.31
14.625,-84.93
14.640,-100.27
14.656,-114.31
14.671,-126.59
14.687,-136.83
14.703,-144.61
14.718,-149.07
14.734,-149.31
14.750,-144.92
14.765,-136.43
14.781,-125.24
14.796,-113.09
14.812,-101.33
14.828,-90.53
14.843,-80.6
14.859,-71.05
14.875,-61.53
14.890,-51.86
14.906,-41.93
14.921,-31.42
14.937,-19.74
14.953,-6.38
14.968,8.65
14.984,24.58
15.000,39.91
15.015,53.03
15.031,62.84
15.046,69.11
15.062,72.5
15.078,74.07
15.093,74.69
15.109,74.77
15.125,74.22
15.140,72.77
15.156,70.31
15.171,67.08
15.187,63.67
15.203,60.87
15.218,59.48
15.234,60.05
15.250,62.76
15.265,67.28
15.281,72.67
15.296,77.51
15.312,80.28
15.328,79.82
15.343,75.84
15.359,69.38
15.375,62.71
15.390,58.85
15.406,60.82
15.421,70.54
15.437,88.1
15.453,111.62
15.468,137.68
15.484,162.45
15.500,182.82
15.515,197.16
15.531,205.49
15.546,208.97
15.562,209.1
15.578,207.0
15.593,203.2
15.609,197.74
15.625,190.62
15.640,182.07
15.656,172.61
15.671,162.76
15.687,152.78
15.703,142.67
15.718,132.27
15.734,121.5
15.750,110.41
15.765,99.05
15.781,87.3
15.796,74.85
15.812,61.37
15.828,46.81
15.843,31.4
15.859,15.48
15.875,-0.91
15.890,-18.16
15.906,-36.9
15.921,-57.52
15.937,-79.72
15.953,-102.44
15.968,-124.14
15.984,-143.28
16.000,-158.73
16.015,-169.9
16.031,-176.49
16.046,-178.5
16.062,-176.21
16.078,-170.29
16.093,-161.91
16.109,-152.5
16.125,-143.47
16.140,-135.86
16.156,-130.18
16.171,-126.41
16.187,-124.21
16.203,-123.0
16.218,-122.09
16.234,-120.83
16.250,-118.73
16.265,-115.6
16.281,-111.66
16.296,-107.41
16.312,-103.49
16.328,-100.39
16.343,-98.36
16.359,-97.28
16.375,-96.81
16.390,-96.59
16.406,-96.43
16.421,-96.5
16.437,-97.13
16.453,-98.69
16.468,-101.17
16.484,-104.09
16.500,-106.54
16.515,-107.45
16.531,-105.91
16.546,-101.45
16.562,-94.2
16.578,-84.92
16.593,-74.89
16.609,-65.65
16.625,-58.62
16.640,-54.65
16.656,-53.77
16.671,-55.03
16.687,-56.67
16.703,-56.59
16.718,-52.95
16.734,-44.76
16.750,-32.32
16.765,-17.19
16.781,-1.67
16.796,12.05
16.812,22.74
16.828,30.66
16.843,37.27
16.859,44.31
16.875,52.83
16.890,62.36
16.906,71.06
16.921,76.51
16.937,76.84
16.953,71.47
16.968,61.41
16.984,48.74
17.000,36.03
17.015,25.69
17.031,19.48
17.046,18.19
17.062,21.53
17.078,28.27
17.093,36.59
17.109,44.75
17.125,51.67
17.140,57.17
17.156,61.76
17.171,66.05
17.187,70.31
17.203,74.18
17.218,77.05
17.234,78.54
17.250,78.96
17.265,79.18
17.281,80.26
17.296,82.83
17.312,86.76
17.328,91.37
17.343,95.92
17.359,100.03
17.375,104.02
17.390,108.57
17.406,114.13
17.421,120.48
17.437,126.54
17.453,130.68
17.468,131.32
17.484,127.48
17.500,119.05
17.515,106.8
17.531,92.08
17.546,76.54
17.562,61.82
17.578,49.34
17.593,39.91
17.609,33.49
17.625,28.96
17.640,24.37
17.656,17.56
17.671,7.03
17.687,-7.49
17.703,-24.86
17.718,-43.0
17.734,-59.7
17.750,-73.29
17.765,-83.03
17.781,-89.15
17.796,-92.53
17.812,-94.32
17.828,-95.63
17.843,-97.24
17.859,-99.51
17.875,-102.38
17.890,-105.46
17.906,-108.17
17.921,-109.9
17.937,-110.13
17.953,-108.56
17.968,-105.21
17.984,-100.53
18.000,-95.4
18.015,-91.01
18.031,-88.46
18.046,-88.37
18.062,-90.65
18.078,-94.57
18.093,-99.11
18.109,-103.43
18.125,-107.17
18.140,-110.4
18.156,-113.49
18.171,-116.71
18.187,-120.01
18.203,-122.97
18.218,-124.87
18.234,-125.03
18.250,-123.03
18.265,-118.92
18.281,-112.99
18.296,-105.64
18.312,-96.92
18.328,-86.47
18.343,-73.66
18.359,-57.96
18.375,-39.52
18.390,-19.26
18.406,1.36
18.421,20.96
18.437,38.67
18.453,54.31
18.468,67.86
18.484,78.98
18.500,86.71
18.515,89.84
18.531,87.6
18.546,80.42
18.562,70.13
18.578,59.48
18.593,51.24
18.609,47.22
18.625,47.91
18.640,52.65
18.656,60.16
18.671,69.21
18.687,78.74
18.703,87.85
18.718,95.67
18.734,101.45
18.750,104.68
18.765,105.35
18.781,103.93
18.796,101.1
18.812,97.41
18.828,93.1
18.843,88.09
18.859,82.39
18.875,76.33
18.890,70.62
18.906,66.12
18.921,63.4
18.937,62.43
18.953,62.5
18.968,62.65
18.984,62.06
19.000,60.43
19.015,58.12
19.031,55.91
19.046,54.78
19.062,55.43
19.078,58.22
19.093,63.05
19.109,69.44
19.125,76.63
19.140,83.73
19.156,89.76
19.171,93.9
19.187,95.65
19.203,95.13
19.218,93.06
19.234,90.62
19.250,88.82
19.265,87.91
19.281,86.98
19.296,84.17
19.312,77.47
19.328,65.73
19.343,49.33
19.359,30.07
19.375,10.36
19.390,-7.99
19.406,-24.31
19.421,-38.99
19.437,-52.59
19.453,-65.01
19.468,-75.23
19.484,-82.01
19.500,-84.9
19.515,-84.98
19.531,-84.77
19.546,-86.97
19.562,-93.04
19.578,-102.34
19.593,-112.25
19.609,-119.46
19.625,-121.56
19.640,-118.11
19.656,-110.66
19.671,-101.81
19.687,-93.79
19.703,-87.53
19.718,-82.47
19.734,-77.37
19.750,-71.41
19.765,-65.03
19.781,-59.93
19.796,-58.33
19.812,-62.06
19.828,-71.76
19.843,-86.76
19.859,-105.29
19.875,-124.96
19.890,-143.12
19.906,-157.31
19.921,-165.83
19.937,-168.25
19.953,-165.56
19.968,-159.78
19.984,-153.11
20.000,-146.92
20.015,-141.4
20.031,-135.83
20.046,-129.36
20.062,-121.63
20.078,-112.77
20.093,-102.73
20.109,-90.6
20.125,-74.62
20.140,-53.0
20.156,-25.2
20.171,7.14
20.187,40.44
20.203,70.3
20.218,93.03
20.234,106.82
20.250,111.98
20.265,110.43
20.281,104.71
20.296,97.12
20.312,89.27
20.328,81.97
20.343,75.56
20.359,70.18
20.375,65.95
20.390,62.99
20.406,61.39
20.421,61.15
20.437,62.2
20.453,64.28
20.468,67.11
20.484,70.22
20.500,73.07
20.515,75.08
20.531,75.81
20.546,75.16
20.562,73.49
20.578,71.62
20.593,70.69
20.609,71.79
20.625,75.54
20.640,81.87
20.656,89.82
20.671,97.84
20.687,104.15
20.703,107.21
20.718,106.13
20.734,100.8
20.750,91.74
20.765,79.71
20.781,65.33
20.796,48.86
20.812,30.4
20.828,10.26
20.843,-10.61
20.859,-30.55
20.875,-47.63
20.890,-60.52
20.906,-69.19
20.921,-75.12
20.937,-80.52
20.953,-87.18
20.968,-95.4
20.984,-103.77
21.000,-109.99
21.015,-112.16
21.031,-109.81
21.046,-103.96
21.062,-96.36
21.078,-88.4
21.093,-80.44
21.109,-71.98
21.125,-62.27
21.140,-51.17
21.156,-39.29
21.171,-27.75
21.187,-17.59
21.203,-9.36
21.218,-3.14
21.234,1.11
21.250,3.29
21.265,3.12
21.281,0.38
21.296,-4.78
21.312,-11.58
21.328,-18.72
21.343,-24.83
21.359,-29.05
21.375,-31.43
21.390,-33.15
21.406,-35.84
21.421,-40.84
21.437,-48.3
21.453,-56.88
21.468,-64.19
21.484,-67.82
21.500,-66.5
21.515,-60.54
21.531,-51.54
21.546,-41.32
21.562,-31.08
21.578,-20.99
21.593,-10.66
21.609,0.11
21.625,10.84
21.640,20.47
21.656,28.15
21.671,33.8
21.687,38.4
21.703,43.39
21.718,49.87
21.734,57.89
21.750,66.4
21.765,73.79
21.781,78.63
21.796,80.32
21.812,79.11
21.828,75.84
21.843,71.44
21.859,66.59
21.875,61.71
21.890,56.93
21.906,52.32
21.921,47.83
21.937,43.29
21.953,38.4
21.968,32.71
21.984,25.92
22.000,17.95
22.015,9.08
22.031,-0.18
22.046,-9.17
22.062,-17.23
22.078,-23.71
22.093,-28.02
22.109,-29.64
22.125,-28.23
22.140,-23.82
22.156,-16.84
22.171,-8.16
22.187,1.2
22.203,10.19
22.218,18.09
22.234,24.43
22.250,29.0
22.265,31.71
22.281,32.52
22.296,31.47
22.312,28.71
22.328,24.63
22.343,19.75
22.359,14.66
22.375,9.95
22.390,6.0
22.406,3.05
22.421,1.21
22.437,0.64
22.453,1.54
22.468,4.13
22.484,8.47
22.500,14.26
22.515,20.87
22.531,27.35
22.546,32.75
22.562,36.46
22.578,38.54
22.593,39.83
22.609,41.74
22.625,45.82
22.640,53.13
22.656,63.86
22.671,77.17
22.687,91.65
22.703,105.87
22.718,119.05
22.734,131.33
22.750,143.63
22.765,156.96
22.781,171.79
22.796,187.67
22.812,203.12
22.828,215.9
22.843,223.33
22.859,222.69
22.875,211.85
22.890,190.0
22.906,158.29
22.921,120.02
22.937,79.97
22.953,43.18
22.968,13.49
22.984,-7.51
23.000,-20.56
23.015,-28.01
23.031,-32.66
23.046,-36.89
23.062,-42.31
23.078,-49.86
23.093,-60.11
23.109,-73.24
23.125,-88.86
23.140,-105.79
23.156,-122.21
23.171,-136.03
23.187,-145.58
23.203,-150.11
23.218,-150.05
23.234,-146.82
23.250,-142.23
23.265,-137.81
23.281,-134.28
23.296,-131.29
23.312,-127.69
23.328,-122.07
23.343,-113.39
23.359,-101.41
23.375,-86.75
23.390,-70.62
23.406,-54.35
23.421,-38.94
23.437,-24.87
23.453,-12.11
23.468,-0.39
23.484,10.5
23.500,20.41
23.515,28.74
23.531,34.6
23.546,37.25
23.562,36.42
23.578,32.51
23.593,26.54
23.609,19.79
23.625,13.37
23.640,8.04
23.656,4.06
23.671,1.33
23.687,-0.62
23.703,-2.58
23.718,-5.7
23.734,-11.32
23.750,-20.57
23.765,-34.0
23.781,-51.22
23.796,-71.08
23.812,-91.98
23.828,-112.35
23.843,-130.93
23.859,-146.81
23.875,-159.21
23.890,-167.52
23.906,-171.42
23.921,-171.16
23.937,-167.77
23.953,-162.93
23.968,-158.28
23.984,-154.71
24.000,-151.84
24.015,-148.06
24.031,-141.23
24.046,-129.61
24.062,-112.57
24.078,-90.94
24.093,-66.68
24.109,-42.25
24.125,-19.92
24.140,-1.22
24.156,13.22
24.171,23.75
24.187,31.45
24.203,37.94
24.218,45.03
24.234,54.39
24.250,67.19
24.265,83.67
24.281,102.93
24.296,123.01
24.312,141.21
24.328,154.79
24.343,161.64
24.359,160.88
24.375,153.01
24.390,139.68
24.406,123.09
24.421,105.4
24.437,88.39
24.453,73.25
24.468,60.79
24.484,51.47
24.500,45.49
24.515,42.58
24.531,41.89
24.546,42.02
24.562,41.23
24.578,37.91
24.593,31.12
24.609,20.94
24.625,8.58
24.640,-4.0
24.656,-14.61
24.671,-21.58
24.687,-24.1
24.703,-22.29
24.718,-17.06
24.734,-9.7
24.750,-1.66
24.765,5.71
24.781,11.34
24.796,14.64
24.812,15.62
24.828,14.83
24.843,13.23
24.859,11.84
24.875,11.4
24.890,12.14
24.906,13.79
24.921,15.77
24.937,17.45
24.953,18.36
24.968,18.25
24.984,17.09
25.000,15.05
25.015,12.45
25.031,9.75
25.046,7.47
25.062,6.05
25.078,5.69
25.093,6.23
25.109,7.14
25.125,7.65
25.140,7.05
25.156,4.91
25.171,1.32
25.187,-3.18
25.203,-7.69
25.218,-11.24
25.234,-12.99
25.250,-12.45
25.265,-9.52
25.281,-4.48
25.296,2.16
25.312,9.76
25.328,17.73
25.343,25.57
25.359,32.86
25.375,39.26
25.390,44.5
25.406,48.37
25.421,50.78
25.437,51.81
25.453,51.73
25.468,50.96
25.484,50.0
25.500,49.27
25.515,49.02
25.531,49.26
25.546,49.84
25.562,50.57
25.578,51.44
25.593,52.65
25.609,54.63
25.625,57.71
25.640,61.83
25.656,66.39
25.671,70.4
25.687,72.96
25.703,73.65
25.718,72.68
25.734,70.5
25.750,67.45
25.765,63.64
25.781,59.14
25.796,54.51
25.812,50.89
25.828,49.62
25.843,51.51
25.859,56.06
25.875,61.39
25.890,64.81
25.906,63.82
25.921,56.93
25.937,44.0
25.953,26.07
25.968,4.77
25.984,-17.97
26.000,-40.15
26.015,-59.84
26.031,-75.32
26.046,-85.63
26.062,-90.81
26.078,-91.93
26.093,-90.72
26.109,-88.84
26.125,-87.26
26.140,-85.94
26.156,-83.98
26.171,-80.06
26.187,-72.89
26.203,-61.73
26.218,-46.42
26.234,-27.39
26.250,-5.42
26.265,18.6
26.281,43.78
26.296,69.41
26.312,95.0
26.328,120.16
26.343,144.47
26.359,167.19
26.375,187.11
26.390,202.58
26.406,211.88
26.421,213.86
26.437,208.45
26.453,196.92
26.468,181.54
26.484,164.76
26.500,148.26
26.515,132.19
26.531,115.29
26.546,95.53
26.562,71.26
26.578,42.01
26.593,8.6
26.609,-27.41
26.625,-64.56
26.640,-102.15
26.656,-140.21
26.671,-178.78
26.687,-217.27
26.703,-254.23
26.718,-287.56
26.734,-315.14
26.750,-335.1
26.765,-346.04
26.781,-347.08
26.796,-338.07
26.812,-319.94
26.828,-294.97
26.843,-266.58
26.859,-238.66
26.875,-214.6
26.890,-196.36
26.906,-184.0
26.921,-175.83
26.937,-169.28
26.953,-161.63
26.968,-150.93
26.984,-136.39
27.000,-118.34
27.015,-97.91
27.031,-76.36
27.046,-54.62
27.062,-33.1
27.078,-12.09
27.093,7.72
27.109,24.86
27.125,37.4
27.140,43.7
27.156,43.32
27.171,37.4
27.187,28.27
27.203,18.48
27.218,9.7
27.234,2.2
27.250,-5.02
27.265,-13.3
27.281,-23.28
27.296,-34.26
27.312,-44.25
27.328,-50.96
27.343,-52.84
27.359,-49.85
27.375,-43.39
27.390,-35.44
27.406,-27.44
27.421,-19.51
27.437,-10.63
27.453,0.64
27.468,15.06
27.484,32.06
27.500,49.86
27.515,66.25
27.531,79.44
27.546,88.7
27.562,94.32
27.578,97.2
27.593,98.32
27.609,98.35
27.625,97.64
27.640,96.36
27.656,94.77
27.671,93.26
27.687,92.23
27.703,91.91
27.718,92.17
27.734,92.51
27.750,92.41
27.765,91.79
27.781,91.18
27.796,91.58
27.812,93.8
27.828,97.86
27.843,102.79
27.859,106.98
27.875,108.92
27.890,107.72
27.906,103.25
27.921,95.84
27.937,86.04
27.953,74.74
27.968,63.39
27.984,53.96
28.000,48.24
28.015,46.69
28.031,47.52
28.046,46.83
28.062,39.99
28.078,23.69
28.093,-2.59
28.109,-36.29
28.125,-72.96
28.140,-107.88
28.156,-137.4
28.171,-159.31
28.187,-172.61
28.203,-177.3
28.218,-174.44
28.234,-166.33
28.250,-156.4
28.265,-148.4
28.281,-145.18
28.296,-147.67
28.312,-154.6
28.328,-163.08
28.343,-169.83
28.359,-172.25
28.375,-168.95
28.390,-159.65
28.406,-144.87
28.421,-125.48
28.437,-102.72
28.453,-78.27
28.468,-54.06
28.484,-32.08
28.500,-13.76
28.515,0.45
28.531,11.11
28.546,19.51
28.562,27.08
28.578,34.85
28.593,43.16
28.609,51.66
28.625,59.54
28.640,65.83
28.656,69.77
28.671,71.05
28.687,69.95
28.703,67.21
28.718,63.72
28.734,60.08
28.750,56.53
28.765,52.83
28.781,48.69
28.796,43.86
28.812,38.15
28.828,30.91
28.843,20.74
28.859,5.78
28.875,-15.36
28.890,-42.28
28.906,-72.23
28.921,-100.5
28.937,-122.08
28.953,-133.55
28.968,-134.24
28.984,-126.16
29.000,-112.63
29.015,-96.82
29.031,-80.7
29.046,-65.38
29.062,-51.93
29.078,-42.1
29.093,-37.88
29.109,-40.26
29.125,-48.03
29.140,-57.41
29.156,-63.25
29.171,-61.18
29.187,-49.63
29.203,-30.72
29.218,-9.34
29.234,9.0
29.250,20.54
29.265,24.58
29.281,23.33
29.296,20.44
29.312,19.17
29.328,21.09
29.343,25.88
29.359,31.96
29.375,37.63
29.390,41.83
29.406,44.66
29.421,47.09
29.437,50.33
29.453,55.19
29.468,61.73
29.484,69.32
29.500,76.96
29.515,83.69
29.531,88.85
29.546,92.05
29.562,93.01
29.578,91.3
29.593,86.29
29.609,77.38
29.625,64.42
29.640,48.0
29.656,29.6
29.671,11.21
29.687,-5.16
29.703,-18.04
29.718,-26.8
29.734,-31.65
29.750,-33.32
29.765,-32.75
29.781,-30.9
29.796,-28.63
29.812,-26.75
29.828,-25.99
29.843,-26.95
29.859,-29.95
29.875,-34.81
29.890,-40.77
29.906,-46.51
29.921,-50.36
29.937,-50.71
29.953,-46.4
29.968,-37.16
29.984,-23.74
30.000,-7.77
30.015,8.71
30.031,23.9
30.046,36.75
30.062,47.08
30.078,55.35
30.093,62.08
30.109,67.39
30.125,70.9
30.140,71.91
30.156,69.94
30.171,65.05
30.187,57.96
30.203,49.77
30.218,41.45
30.234,33.57
30.250,26.1
30.265,18.82
30.281,11.6
30.296,4.68
30.312,-1.47
30.328,-6.46
30.343,-10.31
30.359,-13.52
30.375,-16.89
30.390,-20.9
30.406,-25.37
30.421,-29.26
30.437,-31.07
30.453,-29.32
30.468,-23.19
30.484,-12.86
30.500,0.63
30.515,15.53
30.531,29.87
30.546,41.73
30.562,49.6
30.578,52.71
30.593,51.23
30.609,46.32
30.625,39.93
30.640,34.52
30.656,32.34
30.671,34.91
30.687,42.6
30.703,54.66
30.718,69.53
30.734,85.53
30.750,101.37
30.765,116.47
30.781,130.78
30.796,144.24
30.812,156.16
30.828,165.01
30.843,168.77
30.859,165.87
30.875,156.14
30.890,141.17
30.906,123.91
30.921,107.64
30.937,94.84
30.953,86.59
30.968,82.71
30.984,82.38
31.000,84.75
31.015,89.15
31.031,94.79
31.046,100.3
31.062,103.71
31.078,102.87
31.093,96.26
31.109,83.81
31.125,67.07
31.140,48.94
31.156,32.88
31.171,21.86
31.187,17.74
31.203,20.87
31.218,30.32
31.234,44.3
31.250,60.62
31.265,76.91
31.281,90.71
31.296,99.36
31.312,100.09
31.328,90.53
31.343,69.59
31.359,38.2
31.375,-0.68
31.390,-43.09
31.406,-85.57
31.421,-126.3
31.437,-165.01
31.453,-201.79
31.468,-235.68
31.484,-263.94
31.500,-282.86
31.515,-289.41
31.531,-282.95
31.546,-265.7
31.562,-241.84
31.578,-215.76
31.593,-190.48
31.609,-167.18
31.625,-145.75
31.640,-125.79
31.656,-107.31
31.671,-90.81
31.687,-76.75
31.703,-65.17
31.718,-55.48
31.734,-46.64
31.750,-37.62
31.765,-27.86
31.781,-17.46
31.796,-7.08
31.812,2.39
31.828,10.22
31.843,16.1
31.859,20.19
31.875,23.03
31.890,25.11
31.906,26.7
31.921,27.78
31.937,28.19
31.953,27.95
31.968,27.37
31.984,27.13
32.000,27.92
32.015,30.18
32.031,33.78
32.046,38.0
32.062,41.73
32.078,43.86
32.093,43.7
32.109,41.16
32.125,36.63
32.140,30.76
32.156,24.1
32.171,16.91
32.187,9.07
32.203,0.38
32.218,-9.23
32.234,-19.37
32.250,-29.22
32.265,-37.85
32.281,-44.64
32.296,-49.59
32.312,-53.29
32.328,-56.64
32.343,-60.24
32.359,-64.1
32.375,-67.45
32.390,-69.08
32.406,-67.77
32.421,-62.72
32.437,-53.77
32.453,-41.32
32.468,-26.16
32.484,-9.3
32.500,8.17
32.515,25.09
32.531,40.29
32.546,52.75
32.562,61.76
32.578,67.1
32.593,69.06
32.609,68.45
32.625,66.33
32.640,63.76
32.656,61.57
32.671,60.09
32.687,59.29
32.703,58.82
32.718,58.26
32.734,57.41
32.750,56.28
32.765,55.04
32.781,53.92
32.796,53.02
32.812,52.34
32.828,51.84
32.843,51.46
32.859,51.24
32.875,51.24
32.890,51.48
32.906,51.99
32.921,52.77
32.937,53.85
32.953,55.11
32.968,56.3
32.984,56.84
33.000,55.94
33.015,52.89
33.031,47.28
33.046,39.25
33.062,29.55
33.078,19.32
33.093,9.73
33.109,1.77
33.125,-4.06
33.140,-7.8
33.156,-9.99
33.171,-11.55
33.187,-13.55
33.203,-16.97
33.218,-22.36
33.234,-29.8
33.250,-38.85
33.265,-48.79
33.281,-58.86
33.296,-68.42
33.312,-77.03
33.328,-84.34
33.343,-90.07
33.359,-93.93
33.375,-95.67
33.390,-95.16
33.406,-92.33
33.421,-87.16
33.437,-79.6
33.453,-69.6
33.468,-57.19
33.484,-42.63
33.500,-26.47
33.515,-9.57
33.531,7.01
33.546,22.2
33.562,35.12
33.578,45.24
33.593,52.39
33.609,56.76
33.625,58.8
33.640,59.06
33.656,58.04
33.671,56.14
33.687,53.61
33.703,50.67
33.718,47.52
33.734,44.36
33.750,41.39
33.765,38.68
33.781,36.1
33.796,33.33
33.812,29.87
33.828,25.32
33.843,19.6
33.859,13.12
33.875,6.81
33.890,1.83
33.906,-0.87
33.921,-0.89
33.937,1.39
33.953,5.03
33.968,8.93
33.984,12.37
34.000,15.23
34.015,17.89
34.031,20.81
34.046,24.09
34.062,27.24
34.078,29.48
34.093,30.07
34.109,28.76
34.125,25.93
34.140,22.24
34.156,18.33
34.171,14.39
34.187,10.06
34.203,4.69
34.218,-2.24
34.234,-10.9
34.250,-20.86
34.265,-31.38
34.281,-41.62
34.296,-50.92
34.312,-58.98
34.328,-65.81
34.343,-71.48
34.359,-75.91
34.375,-78.59
34.390,-78.77
34.406,-75.71
34.421,-69.18
34.437,-59.78
34.453,-48.91
34.468,-38.22
34.484,-28.91
34.500,-21.19
34.515,-14.34
34.531,-7.17
34.546,1.17
34.562,10.62
34.578,20.18
34.593,28.33
34.609,33.81
34.625,36.17
34.640,35.82
34.656,33.75
34.671,30.98
34.687,28.12
34.703,25.34
34.718,22.53
34.734,19.58
34.750,16.62
34.765,14.02
34.781,12.14
34.796,11.15
34.812,10.84
34.828,10.71
34.843,10.28
34.859,9.36
34.875,8.21
34.890,7.6
34.906,8.52
34.921,11.82
34.937,17.83
34.953,26.15
34.968,35.71
34.984,45.04
35.000,52.69
35.015,57.67
35.031,59.68
35.046,59.08
35.062,56.67
35.078,53.22
35.093,49.24
35.109,44.87
35.125,40.02
35.140,34.55
35.156,28.5
35.171,22.12
35.187,15.74
35.203,9.62
35.218,3.91
35.234,-1.39
35.250,-6.42
35.265,-11.46
35.281,-16.88
35.296,-23.19
35.312,-30.88
35.328,-40.17
35.343,-50.86
35.359,-62.24
35.375,-73.29
35.390,-82.92
35.406,-90.23
35.421,-94.7
35.437,-96.1
35.453,-94.49
35.468,-90.18
35.484,-83.58
35.500,-75.36
35.515,-66.26
35.531,-57.0
35.546,-48.08
35.562,-39.58
35.578,-31.3
35.593,-22.85
35.609,-13.97
35.625,-4.69
35.640,4.56
35.656,13.15
35.671,20.4
35.687,25.8
35.703,29.2
35.718,30.77
35.734,30.93
35.750,30.18
35.765,28.97
35.781,27.61
35.796,26.31
35.812,25.19
35.828,24.3
35.843,23.68
35.859,23.26
35.875,22.88
35.890,22.27
35.906,21.18
35.921,19.4
35.937,16.91
35.953,14.01
35.968,11.27
35.984,9.57
36.000,9.83
36.015,12.73
36.031,18.4
36.046,26.26
36.062,35.0
36.078,43.09
36.093,49.27
36.109,53.04
36.125,54.77
36.140,55.35
36.156,55.62
36.171,55.86
36.187,55.6
36.203,53.89
36.218,49.89
36.234,43.35
36.250,34.84
36.265,25.5
36.281,16.57
36.296,8.93
36.312,2.8
36.328,-2.27
36.343,-7.11
36.359,-12.62
36.375,-19.51
36.390,-28.09
36.406,-38.31
36.421,-49.83
36.437,-62.15
36.453,-74.66
36.468,-86.65
36.484,-97.26
36.500,-105.5
36.515,-110.4
36.531,-111.27
36.546,-107.99
36.562,-101.07
36.578,-91.58
36.593,-80.73
36.609,-69.51
36.625,-58.28
36.640,-46.88
36.656,-34.93
36.671,-22.21
36.687,-8.99
36.703,3.94
36.718,15.59
36.734,25.11
36.750,32.09
36.765,36.54
36.781,38.8
36.796,39.19
36.812,38.01
36.828,35.6
36.843,32.45
36.859,29.35
36.875,27.16
36.890,26.58
36.906,27.82
36.921,30.47
36.937,33.69
36.953,36.52
36.968,38.32
36.984,38.95
37.000,38.81
37.015,38.45
37.031,38.26
37.046,38.1
37.062,37.44
37.078,35.54
37.093,32.01
37.109,27.08
37.125,21.62
37.140,16.74
37.156,13.3
37.171,11.66
37.187,11.56
37.203,12.45
37.218,13.79
37.234,15.23
37.250,16.46
37.265,16.99
37.281,16.11
37.296,13.11
37.312,7.7
37.328,0.35
37.343,-7.67
37.359,-14.68
37.375,-19.19
37.390,-20.58
37.406,-19.3
37.421,-16.66
37.437,-14.4
37.453,-14.0
37.468,-16.24
37.484,-21.09
37.500,-27.79
37.515,-35.24
37.531,-42.37
37.546,-48.51
37.562,-53.28
37.578,-56.65
37.593,-58.63
37.609,-59.2
37.625,-58.34
37.640,-56.24
37.656,-53.33
37.671,-50.25
37.687,-47.61
37.703,-45.5
37.718,-43.37
37.734,-40.09
37.750,-34.42
37.765,-25.66
37.781,-14.01
37.796,-0.68
37.812,12.59
37.828,24.09
37.843,32.73
37.859,38.23
37.875,40.97
37.890,41.66
37.906,40.91
37.921,39.08
37.937,36.39
37.953,33.08
37.968,29.66
37.984,26.87
38.000,25.4
38.015,25.63
38.031,27.46
38.046,30.28
38.062,33.39
38.078,36.3
38.093,38.98
38.109,41.72
38.125,44.84
38.140,48.31
38.156,51.66
38.171,54.11
38.187,54.91
38.203,53.71
38.218,50.75
38.234,46.73
38.250,42.49
38.265,38.7
38.281,35.6
38.296,32.95
38.312,30.2
38.328,26.67
38.343,21.82
38.359,15.4
38.375,7.59
38.390,-1.12
38.406,-9.96
38.421,-18.21
38.437,-25.22
38.453,-30.63
38.468,-34.31
38.484,-36.44
38.500,-37.5
38.515,-38.21
38.531,-39.47
38.546,-42.09
38.562,-46.58
38.578,-52.95
38.593,-60.59
38.609,-68.36
38.625,-74.95
38.640,-79.17
38.656,-80.26
38.671,-78.07
38.687,-73.05
38.703,-66.14
38.718,-58.47
38.734,-51.14
38.750,-44.98
38.765,-40.32
38.781,-37.08
38.796,-34.78
38.812,-32.72
38.828,-30.12
38.843,-26.23
38.859,-20.42
38.875,-12.41
38.890,-2.33
38.906,9.12
38.921,20.79
38.937,31.33
38.953,39.61
38.968,45.09
38.984,47.92
39.000,48.77
39.015,48.49
39.031,47.7
39.046,46.59
39.062,44.99
39.078,42.66
39.093,39.62
39.109,36.35
39.125,33.58
39.140,32.02
39.156,31.89
39.171,32.82
39.187,34.01
39.203,34.67
39.218,34.54
39.234,34.02
39.250,33.89
39.265,34.82
39.281,36.77
39.296,38.9
39.312,39.82
39.328,38.26
39.343,33.66
39.359,26.42
39.375,17.63
39.390,8.64
39.406,0.48
39.421,-6.41
39.437,-12.05
39.453,-16.67
39.468,-20.38
39.484,-22.99
39.500,-24.14
39.515,-23.63
39.531,-21.59
39.546,-18.65
39.562,-15.73
39.578,-13.77
39.593,-13.36
39.609,-14.49
39.625,-16.72
39.640,-19.32
39.656,-21.68
39.671,-23.54
39.687,-25.0
39.703,-26.35
39.718,-27.79
39.734,-29.24
39.750,-30.4
39.765,-30.93
39.781,-30.74
39.796,-30.11
39.812,-29.61
39.828,-29.76
39.843,-30.71
39.859,-31.98
39.875,-32.68
39.890,-31.86
39.906,-29.04
39.921,-24.52
39.937,-19.24
39.953,-14.31
39.968,-10.45
39.984,-7.62
40.000,-5.14
40.015,-2.11
40.031,2.09
40.046,7.47
40.062,13.46
40.078,19.26
40.093,24.31
40.109,28.48
40.125,32.05
40.140,35.45
40.156,38.93
40.171,42.38
40.187,45.38
40.203,47.47
40.218,48.41
40.234,48.35
40.250,47.75
40.265,47.19
40.281,47.06
40.296,47.39
40.312,47.89
40.328,48.17
40.343,47.93
40.359,47.02
40.375,45.38
40.390,42.88
40.406,39.28
40.421,34.25
40.437,27.65
40.453,19.77
40.468,11.28
40.484,3.14
40.500,-3.83
40.515,-9.19
40.531,-13.03
40.546,-15.83
40.562,-18.15
40.578,-20.36
40.593,-22.5
40.609,-24.25
40.625,-25.1
40.640,-24.53
40.656,-22.32
40.671,-18.63
40.687,-14.08
40.703,-9.52
40.718,-5.76
40.734,-3.29
40.750,-2.13
40.765,-1.99
40.781,-2.53
40.796,-3.71
40.812,-5.73
40.828,-8.8
40.843,-12.88
40.859,-17.51
40.875,-21.99
40.890,-25.68
40.906,-28.28
40.921,-29.93
40.937,-30.93
40.953,-31.36
40.968,-30.95
40.984,-29.23
41.000,-25.83
41.015,-20.8
41.031,-14.7
41.046,-8.42
41.062,-2.77
41.078,1.77
41.093,5.17
41.109,7.65
41.125,9.56
41.140,11.17
41.156,12.58
41.171,13.88
41.187,15.13
41.203,16.44
41.218,17.95
41.234,19.7
41.250,21.58
41.265,23.36
41.281,24.78
41.296,25.69
41.312,26.15
41.328,26.38
41.343,26.7
41.359,27.33
41.375,28.33
41.390,29.66
41.406,31.23
41.421,32.95
41.437,34.71
41.453,36.25
41.468,37.12
41.484,36.79
41.500,34.78
41.515,31.0
41.531,25.79
41.546,19.79
41.562,13.77
41.578,8.23
41.593,3.42
41.609,-0.71
41.625,-4.27
41.640,-7.29
41.656,-9.67
41.671,-11.26
41.687,-12.03
41.703,-12.11
41.718,-11.91
41.734,-11.91
41.750,-12.58
41.765,-14.12
41.781,-16.41
41.796,-18.94
41.812,-21.05
41.828,-22.16
41.843,-22.05
41.859,-20.97
41.875,-19.39
41.890,-17.88
41.906,-16.79
41.921,-16.24
41.937,-16.18
41.953,-16.66
41.968,-17.89
41.984,-20.06
42.000,-23.2
42.015,-26.93
42.031,-30.46
42.046,-32.89
42.062,-33.54
42.078,-32.22
42.093,-29.26
42.109,-25.27
42.125,-20.85
42.140,-16.34
42.156,-11.89
42.171,-7.49
42.187,-3.18
42.203,0.92
42.218,4.68
42.234,8.07
42.250,11.23
42.265,14.47
42.281,18.1
42.296,22.25
42.312,26.67
42.328,30.74
42.343,33.6
42.359,34.5
42.375,33.18
42.390,30.16
42.406,26.75
42.421,24.6
42.437,25.06
42.453,28.53
42.468,34.19
42.484,40.3
42.500,44.96
42.515,47.07
42.531,46.68
42.546,44.8
42.562,42.73
42.578,41.38
42.593,40.77
42.609,40.28
42.625,39.19
42.640,37.18
42.656,34.67
42.671,32.65
42.687,32.24
42.703,34.32
42.718,39.29
42.734,46.88
42.750,56.11
42.765,65.25
42.781,72.21
42.796,75.22
42.812,73.66
42.828,68.73
42.843,63.28
42.859,60.9
42.875,64.26
42.890,73.7
42.906,86.6
42.921,98.15
42.937,103.12
42.953,98.06
42.968,82.89
42.984,61.44
43.000,40.55
43.015,27.99
43.031,29.72
43.046,47.41
43.062,77.38
43.078,111.38
43.093,139.37
43.109,153.01
43.125,148.38
43.140,126.61
43.156,92.72
43.171,53.75
43.187,16.51
43.203,-13.58
43.218,-33.33
43.234,-42.16
43.250,-42.45
43.265,-38.93
43.281,-37.24
43.296,-41.63
43.312,-53.27
43.328,-70.16
43.343,-88.75
43.359,-106.47
43.375,-123.1
43.390,-140.36
43.406,-159.77
43.421,-180.8
43.437,-200.52
43.453,-215.12
43.468,-222.36
43.484,-222.73
43.500,-218.96
43.515,-214.02
43.531,-209.42
43.546,-204.4
43.562,-196.71
43.578,-184.39
43.593,-166.9
43.609,-145.53
43.625,-122.61
43.640,-100.34
43.656,-79.95
43.671,-61.3
43.687,-43.32
43.703,-24.72
43.718,-4.8
43.734,16.05
43.750,36.45
43.765,54.53
43.781,68.61
43.796,77.76
43.812,82.01
43.828,82.08
43.843,79.05
43.859,73.97
43.875,67.87
43.890,61.85
43.906,57.1
43.921,54.92
43.937,56.47
43.953,62.48
43.968,73.09
43.984,87.75
44.000,105.33
44.015,124.26
44.031,142.83
44.046,159.47
44.062,173.2
44.078,183.75
44.093,191.64
44.109,197.8
44.125,203.16
44.140,208.27
44.156,213.26
44.171,217.98
44.187,222.27
44.203,226.24
44.218,230.21
44.234,234.56
44.250,239.37
44.265,244.09
44.281,247.44
44.296,247.75
44.312,243.58
44.328,234.36
44.343,220.81
44.359,204.48
44.375,187.04
44.390,169.34
44.406,150.96
44.421,130.66
44.437,107.23
44.453,80.29
44.468,50.57
44.484,19.35
44.500,-12.2
44.515,-43.48
44.531,-74.27
44.546,-104.24
44.562,-132.36
44.578,-156.91
44.593,-175.97
44.609,-188.11
44.625,-192.98
44.640,-191.34
44.656,-184.91
44.671,-175.78
44.687,-166.07
44.703,-157.57
44.718,-151.53
44.734,-148.65
44.750,-149.0
44.765,-152.08
44.781,-157.0
44.796,-162.7
44.812,-168.17
44.828,-172.64
44.843,-175.64
44.859,-176.92
44.875,-176.36
44.890,-173.8
44.906,-169.06
44.921,-162.12
44.937,-153.34
44.953,-143.61
44.968,-134.37
44.984,-127.34
45.000,-124.05
45.015,-125.23
45.031,-130.41
45.046,-137.97
45.062,-145.56
45.078,-150.88
45.093,-152.54
45.109,-150.45
45.125,-145.64
45.140,-139.51
45.156,-133.0
45.171,-126.21
45.187,-118.73
45.203,-110.44
45.218,-102.04
45.234,-95.19
45.250,-91.65
45.265,-92.27
45.281,-96.3
45.296,-101.43
45.312,-104.72
45.328,-103.79
45.343,-97.75
45.359,-87.43
45.375,-74.82
45.390,-62.22
45.406,-51.48
45.421,-43.62
45.437,-38.86
45.453,-36.92
45.468,-37.25
45.484,-39.18
45.500,-42.02
45.515,-45.01
45.531,-47.38
45.546,-48.5
45.562,-47.98
45.578,-45.82
45.593,-42.51
45.609,-38.83
45.625,-35.65
45.640,-33.67
45.656,-33.15
45.671,-33.85
45.687,-35.12
45.703,-36.25
45.718,-36.67
45.734,-36.24
45.750,-35.1
45.765,-33.49
45.781,-31.39
45.796,-28.44
45.812,-24.03
45.828,-17.53
45.843,-8.75
45.859,1.93
45.875,13.59
45.890,25.09
45.906,35.39
45.921,43.76
45.937,49.86
45.953,53.58
45.968,55.02
45.984,54.38
46.000,52.09
46.015,48.96
46.031,46.09
46.046,44.52
46.062,44.83
46.078,46.74
46.093,49.07
46.109,50.16
46.125,48.48
46.140,43.3
46.156,34.95
46.171,24.53
46.187,13.45
46.203,2.77
46.218,-6.94
46.234,-15.53
46.250,-22.91
46.265,-28.84
46.281,-32.96
46.296,-35.06
46.312,-35.27
46.328,-34.08
46.343,-32.04
46.359,-29.39
46.375,-25.87
46.390,-20.88
46.406,-13.92
46.421,-4.98
46.437,5.38
46.453,16.17
46.468,26.33
46.484,35.06
46.500,41.94
46.515,46.86
46.531,49.94
46.546,51.55
46.562,52.19
46.578,52.53
46.593,53.22
46.609,54.64
46.625,56.79
46.640,59.18
46.656,60.96
46.671,61.24
46.687,59.3
46.703,54.82
46.718,48.0
46.734,39.5
46.750,30.25
46.765,21.31
46.781,13.59
46.796,7.6
46.812,3.37
46.828,0.51
46.843,-1.52
46.859,-3.05
46.875,-3.98
46.890,-3.7
46.906,-1.36
46.921,3.76
46.937,11.87
46.953,22.59
46.968,35.0
46.984,48.02
47.000,60.75
47.015,72.64
47.031,83.49
47.046,93.36
47.062,102.29
47.078,110.29
47.093,117.33
47.109,123.47
47.125,128.86
47.140,133.74
47.156,138.22
47.171,142.11
47.187,144.79
47.203,145.28
47.218,142.59
47.234,136.23
47.250,126.6
47.265,115.02
47.281,103.3
47.296,92.82
47.312,83.83
47.328,75.09
47.343,64.4
47.359,49.68
47.375,30.23
47.390,7.23
47.406,-16.62
47.421,-38.15
47.437,-55.03
47.453,-66.37
47.468,-72.71
47.484,-75.35
47.500,-75.62
47.515,-74.51
47.531,-72.74
47.546,-70.96
47.562,-69.94
47.578,-70.36
47.593,-72.42
47.609,-75.66
47.625,-78.89
47.640,-80.7
47.656,-79.99
47.671,-76.46
47.687,-70.64
47.703,-63.76
47.718,-57.14
47.734,-51.74
47.750,-47.87
47.765,-45.14
47.781,-42.91
47.796,-40.68
47.812,-38.5
47.828,-36.92
47.843,-36.78
47.859,-38.69
47.875,-42.67
47.890,-48.09
47.906,-53.8
47.921,-58.65
47.937,-61.82
47.953,-63.14
47.968,-62.95
47.984,-61.89
48.000,-60.67
48.015,-59.77
48.031,-59.41
48.046,-59.42
48.062,-59.36
48.078,-58.48
48.093,-55.92
48.109,-50.95
48.125,-43.24
48.140,-33.02
48.156,-21.07
48.171,-8.51
48.187,3.54
48.203,14.2
48.218,23.01
48.234,29.84
48.250,34.77
48.265,37.98
48.281,39.67
48.296,40.02
48.312,39.16
48.328,37.15
48.343,34.02
48.359,29.81
48.375,24.71
48.390,19.04
48.406,13.27
48.421,7.94
48.437,3.43
48.453,-0.09
48.468,-2.61
48.484,-4.29
48.500,-5.31
48.515,-5.85
48.531,-6.12
48.546,-6.31
48.562,-6.62
48.578,-7.21
48.593,-8.16
48.609,-9.41
48.625,-10.82
48.640,-12.16
48.656,-13.16
48.671,-13.51
48.687,-12.9
48.703,-11.09
48.718,-7.99
48.734,-3.79
48.750,1.09
48.765,6.1
48.781,10.76
48.796,14.83
48.812,18.26
48.828,21.12
48.843,23.49
48.859,25.3
48.875,26.4
48.890,26.59
48.906,25.78
48.921,23.97
48.937,21.31
48.953,18.06
48.968,14.52
48.984,11.16
49.000,8.46
49.015,6.84
49.031,6.49
49.046,7.23
49.062,8.56
49.078,9.94
49.093,10.92
49.109,11.38
49.125,11.43
49.140,11.29
49.156,11.11
49.171,10.89
49.187,10.58
49.203,10.19
49.218,9.91
49.234,10.05
49.250,10.96
49.265,12.88
49.281,15.82
49.296,19.49
49.312,23.43
49.328,26.99
49.343,29.6
49.359,30.83
49.375,30.52
49.390,28.81
49.406,26.05
49.421,22.66
49.437,19.05
49.453,15.53
49.468,12.37
49.484,9.78
49.500,7.92
49.515,6.8
49.531,6.32
49.546,6.28
49.562,6.45
49.578,6.66
49.593,6.76
49.609,6.66
49.625,6.25
49.640,5.44
49.656,4.14
49.671,2.34
49.687,0.12
49.703,-2.43
49.718,-5.14
49.734,-7.85
49.750,-10.42
49.765,-12.8
49.781,-14.99
49.796,-17.04
49.812,-19.06
49.828,-21.07
49.843,-22.99
49.859,-24.58
49.875,-25.54
49.890,-25.6
49.906,-24.6
49.921,-22.56
49.937,-19.6
49.953,-15.98
49.968,-11.96
49.984,-7.89
50.000,-4.08
50.015,-0.82
50.031,1.68
50.046,3.29
50.062,4.06
50.078,4.15
50.093,3.83
50.109,3.4
50.125,3.13
50.140,3.19
50.156,3.63
50.171,4.36
50.187,5.22
50.203,6.02
50.218,6.59
50.234,6.75
50.250,6.34
50.265,5.21
50.281,3.29
50.296,0.71
50.312,-2.28
50.328,-5.33
50.343,-8.08
50.359,-10.36
50.375,-12.12
50.390,-13.47
50.406,-14.56
50.421,-15.5
50.437,-16.33
50.453,-17.11
50.468,-17.82
50.484,-18.45
50.500,-18.97
50.515,-19.28
50.531,-19.24
50.546,-18.72
50.562,-17.61
50.578,-15.96
50.593,-13.97
50.609,-11.95
50.625,-10.3
50.640,-9.37
50.656,-9.41
50.671,-10.43
50.687,-12.22
50.703,-14.31
50.718,-16.08
50.734,-16.94
50.750,-16.52
50.765,-14.78
50.781,-12.07
50.796,-9.01
50.812,-6.27
50.828,-4.27
50.843,-3.14
50.859,-2.74
50.875,-2.77
50.890,-2.98
50.906,-3.22
50.921,-3.46
50.937,-3.67
50.953,-3.8
50.968,-3.73
50.984,-3.32
51.000,-2.51
51.015,-1.26
51.031,0.39
51.046,2.38
51.062,4.69
51.078,7.27
51.093,10.11
51.109,13.18
51.125,16.37
51.140,19.48
51.156,22.22
51.171,24.27
51.187,25.43
51.203,25.67
51.218,25.2
51.234,24.3
51.250,23.22
51.265,21.89
51.281,20.08
51.296,17.43
51.312,13.77
51.328,9.26
51.343,4.34
51.359,-0.43
51.375,-4.67
51.390,-8.24
51.406,-11.3
51.421,-14.06
51.437,-16.73
51.453,-19.32
51.468,-21.74
51.484,-23.86
51.500,-25.5
51.515,-26.58
51.531,-27.04
51.546,-26.93
51.562,-26.44
51.578,-25.97
51.593,-26.05
51.609,-27.14
51.625,-29.47
51.640,-32.78
51.656,-36.46
51.671,-39.67
51.687,-41.69
51.703,-42.02
51.718,-40.49
51.734,-37.22
51.750,-32.55
51.765,-26.96
51.781,-21.11
51.796,-15.72
51.812,-11.36
51.828,-8.27
51.843,-6.2
51.859,-4.57
51.875,-2.75
51.890,-0.4
51.906,2.39
51.921,5.19
51.937,7.54
51.953,9.27
51.968,10.53
51.984,11.65
52.000,12.86
52.015,14.11
52.031,15.12
52.046,15.54
52.062,15.21
52.078,14.23
52.093,12.94
52.109,11.76
52.125,10.92
52.140,10.44
52.156,10.15
52.171,9.8
52.187,9.22
52.203,8.47
52.218,7.76
52.234,7.25
52.250,6.94
52.265,6.58
52.281,5.76
52.296,4.1
52.312,1.45
52.328,-2.04
52.343,-5.95
52.359,-9.81
52.375,-13.16
52.390,-15.67
52.406,-17.15
52.421,-17.47
52.437,-16.63
52.453,-14.75
52.468,-12.14
52.484,-9.27
52.500,-6.64
52.515,-4.66
52.531,-3.48
52.546,-2.98
52.562,-2.73
52.578,-2.24
52.593,-1.13
52.609,0.69
52.625,2.93
52.640,5.07
52.656,6.6
52.671,7.29
52.687,7.21
52.703,6.75
52.718,6.3
52.734,6.1
52.750,6.14
52.765,6.25
52.781,6.22
52.796,5.94
52.812,5.43
52.828,4.78
52.843,4.11
52.859,3.48
52.875,3.03
52.890,2.92
52.906,3.37
52.921,4.58
52.937,6.57
52.953,9.21
52.968,12.16
52.984,15.03
53.000,17.42
53.015,19.07
53.031,19.79
53.046,19.54
53.062,18.42
53.078,16.65
53.093,14.54
53.109,12.49
53.125,10.87
53.140,9.91
53.156,9.67
53.171,9.99
53.187,10.64
53.203,11.41
53.218,12.23
53.234,13.18
53.250,14.4
53.265,15.95
53.281,17.73
53.296,19.47
53.312,20.79
53.328,21.34
53.343,20.99
53.359,19.85
53.375,18.33
53.390,16.88
53.406,15.89
53.421,15.44
53.437,15.37
53.453,15.28
53.468,14.77
53.484,13.6
53.500,11.68
53.515,9.08
53.531,5.79
53.546,1.82
53.562,-2.84
53.578,-8.03
53.593,-13.39
53.609,-18.35
53.625,-22.28
53.640,-24.64
53.656,-25.08
53.671,-23.55
53.687,-20.21
53.703,-15.5
53.718,-10.03
53.734,-4.46
53.750,0.63
53.765,4.97
53.781,8.6
53.796,11.83
53.812,14.93
53.828,18.0
53.843,20.91
53.859,23.37
53.875,25.19
53.890,26.4
53.906,27.18
53.921,27.79
53.937,28.35
53.953,28.77
53.968,28.74
53.984,27.87
54.000,25.68
54.015,21.76
54.031,15.77
54.046,7.48
54.062,-3.11
54.078,-15.69
54.093,-29.57
54.109,-43.75
54.125,-57.16
54.140,-68.98
54.156,-78.91
54.171,-87.15
54.187,-94.21
54.203,-100.46
54.218,-105.76
54.234,-109.41
54.250,-110.49
54.265,-108.48
54.281,-103.68
54.296,-97.27
54.312,-90.9
54.328,-85.93
54.343,-82.8
54.359,-80.96
54.375,-79.24
54.390,-76.53
54.406,-72.41
54.421,-67.24
54.437,-61.83
54.453,-56.97
54.468,-52.98
54.484,-49.67
54.500,-46.61
54.515,-43.61
54.531,-40.93
54.546,-39.26
54.562,-39.42
54.578,-41.88
54.593,-46.55
54.609,-52.86
54.625,-59.98
54.640,-67.19
54.656,-73.85
54.671,-79.26
54.687,-82.47
54.703,-82.23
54.718,-77.39
54.734,-67.41
54.750,-52.74
54.765,-34.89
54.781,-15.94
54.796,2.05
54.812,17.66
54.828,30.34
54.843,40.21
54.859,47.79
54.875,53.6
54.890,58.13
54.906,61.86
54.921,65.33
54.937,69.11
54.953,73.66
54.968,79.06
54.984,84.89
55.000,90.31
55.015,94.21
55.031,95.74
55.046,94.59
55.062,91.13
55.078,86.3
55.093,81.25
55.109,76.88
55.125,73.57
55.140,71.15
55.156,69.1
55.171,66.85
55.187,64.12
55.203,60.92
55.218,57.47
55.234,53.99
55.250,50.56
55.265,47.02
55.281,43.11
55.296,38.6
55.312,33.56
55.328,28.35
55.343,23.57
55.359,19.79
55.375,17.25
55.390,15.77
55.406,14.86
55.421,13.99
55.437,12.88
55.453,11.6
55.468,10.49
55.484,9.8
55.500,9.51
55.515,9.31
55.531,8.79
55.546,7.74
55.562,6.31
55.578,4.97
55.593,4.19
55.609,4.22
55.625,4.94
55.640,5.84
55.656,6.25
55.671,5.54
55.687,3.35
55.703,-0.33
55.718,-5.14
55.734,-10.43
55.750,-15.47
55.765,-19.7
55.781,-23.0
55.796,-25.73
55.812,-28.59
55.828,-32.43
55.843,-37.81
55.859,-44.83
55.875,-52.86
55.890,-60.61
55.906,-66.35
55.921,-68.36
55.937,-65.51
55.953,-57.54
55.968,-45.28
55.984,-30.21
56.000,-14.05
56.015,1.75
56.031,16.17
56.046,28.52
56.062,38.24
56.078,44.82
56.093,47.96
56.109,47.72
56.125,44.73
56.140,39.94
56.156,34.32
56.171,28.41
56.187,22.21
56.203,15.33
56.218,7.26
56.234,-2.26
56.250,-13.11
56.265,-24.8
56.281,-36.62
56.296,-47.85
56.312,-57.9
56.328,-66.44
56.343,-73.5
56.359,-79.49
56.375,-85.14
56.390,-91.44
56.406,-99.29
56.421,-109.01
56.437,-119.9
56.453,-130.02
56.468,-136.5
56.484,-136.43
56.500,-127.92
56.515,-110.92
56.531,-87.37
56.546,-60.53
56.562,-33.86
56.578,-10.03
56.593,9.66
56.609,25.08
56.625,36.69
56.640,44.98
56.656,50.26
56.671,52.74
56.687,52.79
56.703,51.14
56.718,48.81
56.734,46.77
56.750,45.69
56.765,45.67
56.781,46.33
56.796,47.09
56.812,47.42
56.828,47.04
56.843,46.02
56.859,44.6
56.875,43.01
56.890,41.3
56.906,39.25
56.921,36.49
56.937,32.66
56.953,27.52
56.968,21.0
56.984,13.13
57.000,4.03
57.015,-6.08
57.031,-16.73
57.046,-27.04
57.062,-35.63
57.078,-40.83
57.093,-41.09
57.109,-35.48
57.125,-24.1
57.140,-8.13
57.156,10.5
57.171,29.77
57.187,47.96
57.203,64.06
57.218,77.64
57.234,88.63
57.250,97.06
57.265,102.89
57.281,106.21
57.296,107.27
57.312,106.62
57.328,104.96
57.343,102.92
57.359,100.83
57.375,98.62
57.390,95.89
57.406,92.14
57.421,87.09
57.437,80.9
57.453,74.2
57.468,67.95
57.484,63.07
57.500,60.21
57.515,59.47
57.531,60.39
57.546,62.01
57.562,63.02
57.578,61.97
57.593,57.59
57.609,49.16
57.625,36.83
57.640,21.87
57.656,6.46
57.671,-6.68
57.687,-15.04
57.703,-16.9
57.718,-11.62
57.734,0.4
57.750,18.05
57.765,39.8
57.781,63.94
57.796,88.68
57.812,112.36
57.828,133.61
57.843,151.61
57.859,166.21
57.875,177.64
57.890,186.21
57.906,191.93
57.921,194.37
57.937,192.78
57.953,186.45
57.968,174.9
57.984,157.88
58.000,135.38
58.015,107.64
58.031,75.41
58.046,40.2
58.062,4.32
58.078,-29.54
58.093,-58.97
58.109,-82.62
58.125,-100.55
58.140,-114.05
58.156,-124.96
58.171,-134.88
58.187,-144.64
58.203,-154.31
58.218,-163.52
58.234,-171.92
58.250,-179.39
58.265,-185.99
58.281,-191.66
58.296,-195.86
58.312,-197.58
58.328,-195.58
58.343,-188.91
58.359,-177.45
58.375,-162.13
58.390,-144.77
58.406,-127.51
58.421,-112.08
58.437,-99.39
58.453,-89.29
58.468,-80.94
58.484,-73.27
58.500,-65.5
58.515,-57.45
58.531,-49.5
58.546,-42.28
58.562,-36.33
58.578,-31.79
58.593,-28.37
58.609,-25.53
58.625,-22.72
58.640,-19.63
58.656,-16.25
58.671,-12.84
58.687,-9.69
58.703,-7.04
58.718,-4.97
58.734,-3.46
58.750,-2.47
58.765,-2.01
58.781,-2.11
58.796,-2.79
58.812,-4.08
58.828,-6.07
58.843,-8.94
58.859,-13.04
58.875,-18.67
58.890,-25.88
58.906,-34.13
58.921,-42.27
58.937,-48.63
58.953,-51.56
58.968,-49.87
58.984,-43.25
59.000,-32.32
59.015,-18.38
59.031,-3.03
59.046,12.14
59.062,25.82
59.078,37.04
59.093,45.19
59.109,50.1
59.125,52.02
59.140,51.55
59.156,49.5
59.171,46.66
59.187,43.58
59.203,40.58
59.218,37.75
59.234,35.11
59.250,32.65
59.265,30.37
59.281,28.25
59.296,26.19
59.312,24.1
59.328,21.9
59.343,19.61
59.359,17.31
59.375,15.08
59.390,12.9
59.406,10.65
59.421,8.12
59.437,5.16
59.453,1.76
59.468,-1.94
59.484,-5.7
59.500,-9.37
59.515,-12.96
59.531,-16.68
59.546,-20.82
59.562,-25.54
59.578,-30.6
59.593,-35.24
59.609,-38.38
59.625,-38.87
59.640,-35.96
59.656,-29.55
59.671,-20.31
59.687,-9.41
59.703,1.88
59.718,12.49
59.734,21.83
59.750,29.67
59.765,35.98
59.781,40.73
59.796,43.83
59.812,45.22
59.828,45.02
59.843,43.69
59.859,41.91
59.875,40.39
59.890,39.58
59.906,39.51
59.921,39.82
59.937,40.0
59.953,39.67
59.968,38.74
59.984,37.47
