timestamp,value
00.000,-44.22
00.015,-36.12
00.031,-27.52
00.046,-19.29
00.062,-12.03
00.078,-5.95
00.093,-0.96
00.109,3.26
00.125,7.11
00.140,10.88
00.156,14.73
00.171,18.62
00.187,22.38
00.203,25.93
00.218,29.29
00.234,32.66
00.250,36.31
00.265,40.36
00.281,44.69
00.296,48.91
00.312,52.52
00.328,55.08
00.343,56.46
00.359,56.86
00.375,56.67
00.390,56.32
00.406,56.14
00.421,56.21
00.437,56.53
00.453,57.08
00.468,57.98
00.484,59.42
00.500,61.62
00.515,64.55
00.531,67.94
00.546,71.27
00.562,73.97
00.578,75.77
00.593,76.75
00.609,77.25
00.625,77.34
00.640,76.36
00.656,72.84
00.671,64.91
00.687,51.09
00.703,31.03
00.718,5.77
00.734,-22.61
00.750,-51.77
00.765,-79.74
00.781,-105.08
00.796,-126.7
00.812,-143.5
00.828,-154.24
00.843,-157.99
00.859,-154.48
00.875,-144.56
00.890,-130.08
00.906,-113.36
00.921,-96.46
00.937,-80.71
00.953,-66.56
00.968,-53.88
00.984,-42.41
01.000,-32.1
01.015,-23.34
01.031,-16.75
01.046,-12.78
01.062,-11.38
01.078,-11.89
01.093,-13.21
01.109,-14.23
01.125,-14.3
01.140,-13.45
01.156,-12.2
01.171,-11.05
01.187,-10.12
01.203,-8.97
01.218,-6.9
01.234,-3.47
01.250,1.09
01.265,5.84
01.281,9.61
01.296,11.49
01.312,11.34
01.328,9.71
01.343,7.46
01.359,5.24
01.375,3.14
01.390,0.83
01.406,-2.14
01.421,-5.88
01.437,-10.01
01.453,-13.78
01.468,-16.44
01.484,-17.58
01.500,-17.33
01.515,-16.32
01.531,-15.26
01.546,-14.68
01.562,-14.71
01.578,-15.1
01.593,-15.37
01.609,-15.22
01.625,-14.63
01.640,-13.89
01.656,-13.39
01.671,-13.33
01.687,-13.59
01.703,-13.85
01.718,-13.8
01.734,-13.37
01.750,-12.8
01.765,-12.46
01.781,-12.6
01.796,-13.25
01.812,-14.07
01.828,-14.49
01.843,-13.84
01.859,-11.58
01.875,-7.37
01.890,-1.26
01.906,6.34
01.921,14.62
01.937,22.49
01.953,28.85
01.968,32.79
01.984,33.96
02.000,32.53
02.015,29.26
02.031,25.15
02.046,21.38
02.062,19.01
02.078,18.87
02.093,21.56
02.109,27.36
02.125,36.33
02.140,48.04
02.156,61.66
02.171,75.78
02.187,88.83
02.203,99.44
02.218,106.82
02.234,110.84
02.250,111.79
02.265,109.95
02.281,105.11
02.296,96.88
02.312,85.01
02.328,70.19
02.343,54.22
02.359,39.62
02.375,28.78
02.390,22.78
02.406,21.24
02.421,22.81
02.437,26.39
02.453,31.93
02.468,40.22
02.484,51.71
02.500,65.51
02.515,79.18
02.531,89.81
02.546,95.59
02.562,96.92
02.578,96.15
02.593,95.93
02.609,97.63
02.625,100.53
02.640,102.65
02.656,102.79
02.671,101.88
02.687,102.85
02.703,108.73
02.718,120.44
02.734,135.61
02.750,149.25
02.765,156.02
02.781,152.2
02.796,136.98
02.812,111.62
02.828,78.57
02.843,40.33
02.859,-0.65
02.875,-41.7
02.890,-80.16
02.906,-113.93
02.921,-142.52
02.937,-167.26
02.953,-190.39
02.968,-212.99
02.984,-233.67
03.000,-248.66
03.015,-254.0
03.031,-248.41
03.046,-234.66
03.062,-218.96
03.078,-207.58
03.093,-203.25
03.109,-203.37
03.125,-201.3
03.140,-189.73
03.156,-164.19
03.171,-124.83
03.187,-75.61
03.203,-22.51
03.218,28.26
03.234,70.99
03.250,100.52
03.265,112.84
03.281,106.15
03.296,82.42
03.312,47.45
03.328,9.5
03.343,-23.68
03.359,-47.53
03.375,-61.67
03.390,-68.92
03.406,-72.86
03.421,-75.81
03.437,-78.41
03.453,-80.42
03.468,-81.73
03.484,-82.92
03.500,-84.61
03.515,-86.82
03.531,-88.77
03.546,-89.08
03.562,-86.69
03.578,-81.57
03.593,-74.74
03.609,-67.88
03.625,-62.69
03.640,-60.12
03.656,-59.96
03.671,-61.2
03.687,-62.47
03.703,-62.82
03.718,-61.94
03.734,-60.15
03.750,-57.99
03.765,-55.78
03.781,-53.31
03.796,-50.08
03.812,-45.6
03.828,-39.83
03.843,-33.4
03.859,-27.39
03.875,-22.89
03.890,-20.6
03.906,-20.56
03.921,-22.06
03.937,-23.99
03.953,-24.99
03.968,-23.81
03.984,-19.6
04.000,-12.22
04.015,-2.24
04.031,9.14
04.046,20.36
04.062,30.07
04.078,37.38
04.093,42.02
04.109,44.18
04.125,44.24
04.140,42.6
04.156,39.71
04.171,36.05
04.187,32.19
04.203,28.62
04.218,25.54
04.234,22.72
04.250,19.72
04.265,16.0
04.281,11.39
04.296,6.18
04.312,0.98
04.328,-3.56
04.343,-7.0
04.359,-9.3
04.375,-10.81
04.390,-12.16
04.406,-13.98
04.421,-16.78
04.437,-20.82
04.453,-25.94
04.468,-31.64
04.484,-37.04
04.500,-41.13
04.515,-42.97
04.531,-42.0
04.546,-38.17
04.562,-31.97
04.578,-24.24
04.593,-15.96
04.609,-8.04
04.625,-1.08
04.640,4.54
04.656,8.79
04.671,11.8
04.687,13.89
04.703,15.51
04.718,17.21
04.734,19.45
04.750,22.51
04.765,26.36
04.781,30.51
04.796,34.34
04.812,37.15
04.828,38.51
04.843,38.38
04.859,37.1
04.875,35.26
04.890,33.28
04.906,31.41
04.921,29.56
04.937,27.54
04.953,25.19
04.968,22.54
04.984,19.83
05.000,17.38
05.015,15.45
05.031,13.98
05.046,12.7
05.062,11.18
05.078,9.08
05.093,6.31
05.109,3.08
05.125,-0.17
05.140,-3.04
05.156,-5.31
05.171,-7.07
05.187,-8.62
05.203,-10.21
05.218,-11.8
05.234,-12.98
05.250,-13.01
05.265,-11.2
05.281,-7.28
05.296,-1.5
05.312,5.4
05.328,12.46
05.343,18.9
05.359,24.3
05.375,28.57
05.390,31.88
05.406,34.4
05.421,36.19
05.437,37.3
05.453,37.79
05.468,37.85
05.484,37.78
05.500,37.82
05.515,38.16
05.531,38.78
05.546,39.45
05.562,39.8
05.578,39.48
05.593,38.2
05.609,35.98
05.625,33.08
05.640,30.02
05.656,27.32
05.671,25.35
05.687,24.31
05.703,24.12
05.718,24.66
05.734,25.71
05.750,27.12
05.765,28.66
05.781,30.14
05.796,31.27
05.812,31.95
05.828,32.32
05.843,32.77
05.859,33.79
05.875,35.56
05.890,37.76
05.906,39.55
05.921,39.91
05.937,38.07
05.953,33.86
05.968,27.84
05.984,21.08
06.000,14.62
06.015,9.14
06.031,4.71
06.046,0.85
06.062,-3.07
06.078,-7.57
06.093,-12.85
06.109,-18.78
06.125,-25.05
06.140,-31.3
06.156,-37.33
06.171,-43.01
06.187,-48.22
06.203,-52.79
06.218,-56.44
06.234,-58.83
06.250,-59.8
06.265,-59.34
06.281,-57.69
06.296,-55.22
06.312,-52.36
06.328,-49.48
06.343,-46.89
06.359,-44.85
06.375,-43.5
06.390,-42.93
06.406,-43.01
06.421,-43.47
06.437,-43.97
06.453,-44.21
06.468,-44.1
06.484,-43.73
06.500,-43.43
06.515,-43.48
06.531,-44.04
06.546,-45.09
06.562,-46.32
06.578,-47.35
06.593,-47.69
06.609,-46.98
06.625,-44.93
06.640,-41.51
06.656,-36.89
06.671,-31.49
06.687,-25.76
06.703,-20.07
06.718,-14.62
06.734,-9.33
06.750,-4.06
06.765,1.36
06.781,6.91
06.796,12.33
06.812,17.22
06.828,21.23
06.843,24.25
06.859,26.34
06.875,27.75
06.890,28.69
06.906,29.27
06.921,29.49
06.937,29.28
06.953,28.63
06.968,27.61
06.984,26.36
07.000,24.96
07.015,23.28
07.031,21.11
07.046,18.22
07.062,14.49
07.078,10.04
07.093,5.18
07.109,0.21
07.125,-4.58
07.140,-9.08
07.156,-13.27
07.171,-17.09
07.187,-20.43
07.203,-23.05
07.218,-24.72
07.234,-25.23
07.250,-24.47
07.265,-22.43
07.281,-19.23
07.296,-15.04
07.312,-10.19
07.328,-5.05
07.343,-0.03
07.359,4.53
07.375,8.4
07.390,11.42
07.406,13.49
07.421,14.46
07.437,14.28
07.453,12.94
07.468,10.7
07.484,7.97
07.500,5.31
07.515,3.17
07.531,1.77
07.546,1.13
07.562,1.02
07.578,1.21
07.593,1.46
07.609,1.69
07.625,1.84
07.640,1.9
07.656,1.81
07.671,1.41
07.687,0.65
07.703,-0.45
07.718,-1.72
07.734,-2.98
07.750,-4.13
07.765,-5.19
07.781,-6.37
07.796,-7.79
07.812,-9.54
07.828,-11.49
07.843,-13.36
07.859,-14.79
07.875,-15.52
07.890,-15.38
07.906,-14.18
07.921,-11.76
07.937,-7.98
07.953,-2.84
07.968,3.5
07.984,10.66
08.000,18.19
08.015,25.61
08.031,32.51
08.046,38.59
08.062,43.69
08.078,47.81
08.093,51.03
08.109,53.52
08.125,55.42
08.140,56.82
08.156,57.74
08.171,58.17
08.187,58.06
08.203,57.34
08.218,56.0
08.234,54.05
08.250,51.6
08.265,48.91
08.281,46.36
08.296,44.31
08.312,42.84
08.328,41.67
08.343,40.17
08.359,37.74
08.375,34.0
08.390,29.04
08.406,23.35
08.421,17.6
08.437,12.44
08.453,8.34
08.468,5.51
08.484,3.92
08.500,3.3
08.515,3.12
08.531,2.72
08.546,1.48
08.562,-0.87
08.578,-4.1
08.593,-7.51
08.609,-10.2
08.625,-11.55
08.640,-11.37
08.656,-10.07
08.671,-8.35
08.687,-6.95
08.703,-6.32
08.718,-6.59
08.734,-7.63
08.750,-9.23
08.765,-11.23
08.781,-13.53
08.796,-16.11
08.812,-18.99
08.828,-22.25
08.843,-25.93
08.859,-30.12
08.875,-34.86
08.890,-40.11
08.906,-45.69
08.921,-51.2
08.937,-56.03
08.953,-59.45
08.968,-60.78
08.984,-59.67
09.000,-56.25
09.015,-51.25
09.031,-45.75
09.046,-40.88
09.062,-37.41
09.078,-35.57
09.093,-35.06
09.109,-35.3
09.125,-35.75
09.140,-36.15
09.156,-36.42
09.171,-36.71
09.187,-37.15
09.203,-37.83
09.218,-38.65
09.234,-39.42
09.250,-39.78
09.265,-39.32
09.281,-37.6
09.296,-34.29
09.312,-29.23
09.328,-22.6
09.343,-14.8
09.359,-6.42
09.375,1.88
09.390,9.4
09.406,15.69
09.421,20.45
09.437,23.79
09.453,26.0
09.468,27.45
09.484,28.49
09.500,29.3
09.515,29.89
09.531,30.2
09.546,30.33
09.562,30.44
09.578,30.76
09.593,31.39
09.609,32.23
09.625,33.04
09.640,33.58
09.656,33.81
09.671,33.82
09.687,33.81
09.703,33.89
09.718,33.95
09.734,33.71
09.750,32.8
09.765,31.03
09.781,28.38
09.796,25.08
09.812,21.45
09.828,17.78
09.843,14.17
09.859,10.61
09.875,6.94
09.890,2.91
09.906,-1.61
09.921,-6.65
09.937,-12.03
09.953,-17.42
09.968,-22.37
09.984,-26.49
10.000,-29.47
10.015,-31.07
10.031,-31.31
10.046,-30.34
10.062,-28.43
10.078,-25.93
10.093,-23.17
10.109,-20.31
10.125,-17.4
10.140,-14.41
10.156,-11.34
10.171,-8.35
10.187,-5.71
10.203,-3.61
10.218,-2.1
10.234,-1.01
10.250,-0.03
10.265,1.07
10.281,2.45
10.296,4.15
10.312,6.18
10.328,8.53
10.343,11.18
10.359,14.01
10.375,16.83
10.390,19.45
10.406,21.73
10.421,23.7
10.437,25.45
10.453,27.0
10.468,28.24
10.484,28.94
10.500,28.85
10.515,28.02
10.531,26.69
10.546,25.23
10.562,23.92
10.578,22.85
10.593,21.96
10.609,21.03
10.625,19.97
10.640,18.68
10.656,17.12
10.671,15.3
10.687,13.16
10.703,10.72
10.718,8.12
10.734,5.66
10.750,3.66
10.765,2.38
10.781,1.87
10.796,1.95
10.812,2.34
10.828,2.78
10.843,3.16
10.859,3.59
10.875,4.33
10.890,5.66
10.906,7.64
10.921,10.02
10.937,12.35
10.953,14.2
10.968,15.3
10.984,15.78
11.000,15.96
11.015,16.26
11.031,17.01
11.046,18.23
11.062,19.75
11.078,21.29
11.093,22.63
11.109,23.6
11.125,24.22
11.140,24.45
11.156,24.28
11.171,23.71
11.187,22.75
11.203,21.45
11.218,19.88
11.234,18.08
11.250,16.07
11.265,13.84
11.281,11.32
11.296,8.38
11.312,4.81
11.328,0.34
11.343,-5.13
11.359,-11.49
11.375,-18.26
11.390,-24.72
11.406,-30.06
11.421,-33.75
11.437,-35.71
11.453,-36.31
11.468,-36.12
11.484,-35.49
11.500,-34.37
11.515,-32.39
11.531,-29.09
11.546,-24.27
11.562,-18.09
11.578,-11.01
11.593,-3.56
11.609,3.8
11.625,10.87
11.640,17.39
11.656,23.08
11.671,27.59
11.687,30.65
11.703,32.29
11.718,32.94
11.734,33.21
11.750,33.56
11.765,34.13
11.781,34.57
11.796,34.42
11.812,33.45
11.828,31.82
11.843,30.02
11.859,28.56
11.875,27.78
11.890,27.64
11.906,27.91
11.921,28.36
11.937,29.01
11.953,30.12
11.968,32.03
11.984,34.92
12.000,38.72
12.015,43.15
12.031,47.82
12.046,52.41
12.062,56.7
12.078,60.71
12.093,64.7
12.109,68.99
12.125,73.91
12.140,79.6
12.156,85.9
12.171,92.38
12.187,98.51
12.203,103.77
12.218,107.8
12.234,110.45
12.250,111.67
12.265,111.46
12.281,109.79
12.296,106.61
12.312,101.92
12.328,95.76
12.343,88.14
12.359,78.86
12.375,67.43
12.390,53.04
12.406,34.93
12.421,12.83
12.437,-12.62
12.453,-39.71
12.468,-66.02
12.484,-89.11
12.500,-107.15
12.515,-119.32
12.531,-125.71
12.546,-126.87
12.562,-123.48
12.578,-116.26
12.593,-106.12
12.609,-94.33
12.625,-82.46
12.640,-72.02
12.656,-63.91
12.671,-58.2
12.687,-54.09
12.703,-50.48
12.718,-46.52
12.734,-42.0
12.750,-37.34
12.765,-33.27
12.781,-30.46
12.796,-29.28
12.812,-29.66
12.828,-31.1
12.843,-32.68
12.859,-33.32
12.875,-31.95
12.890,-27.82
12.906,-20.77
12.921,-11.25
12.937,-0.15
12.953,11.51
12.968,22.95
12.984,33.86
13.000,44.23
13.015,54.23
13.031,63.9
13.046,73.19
13.062,82.01
13.078,90.19
13.093,97.28
13.109,102.25
13.125,103.66
13.140,100.08
13.156,90.94
13.171,76.96
13.187,60.1
13.203,42.9
13.218,27.51
13.234,14.93
13.250,4.96
13.265,-3.29
13.281,-10.79
13.296,-18.08
13.312,-25.27
13.328,-32.37
13.343,-39.42
13.359,-46.53
13.375,-53.69
13.390,-60.59
13.406,-66.71
13.421,-71.49
13.437,-74.39
13.453,-75.1
13.468,-73.54
13.484,-69.94
13.500,-64.91
13.515,-59.49
13.531,-54.94
13.546,-52.47
13.562,-52.79
13.578,-55.79
13.593,-60.54
13.609,-65.66
13.625,-69.8
13.640,-72.15
13.656,-72.66
13.671,-71.83
13.687,-70.37
13.703,-68.74
13.718,-66.93
13.734,-64.5
13.750,-60.88
13.765,-55.71
13.781,-49.02
13.796,-41.36
13.812,-33.42
13.828,-25.97
13.843,-19.55
13.859,-14.55
13.875,-11.22
13.890,-9.63
13.906,-9.6
13.921,-10.7
13.937,-12.16
13.953,-13.02
13.968,-12.51
13.984,-10.21
14.000,-6.19
14.015,-0.98
14.031,4.74
14.046,10.4
14.062,15.68
14.078,20.57
14.093,25.17
14.109,29.61
14.125,33.88
14.140,37.82
14.156,41.23
14.171,43.95
14.187,45.99
14.203,47.49
14.218,48.74
14.234,49.96
14.250,51.35
14.265,52.93
14.281,54.57
14.296,56.14
14.312,57.47
14.328,58.27
14.343,58.04
14.359,56.01
14.375,51.19
14.390,42.69
14.406,30.12
14.421,13.78
14.437,-5.18
14.453,-25.07
14.468,-44.1
14.484,-60.78
14.500,-73.99
14.515,-82.98
14.531,-87.17
14.546,-86.07
14.562,-79.57
14.578,-68.22
14.593,-53.51
14.609,-37.77
14.625,-23.59
14.640,-13.05
14.656,-7.16
14.671,-5.64
14.687,-7.14
14.703,-9.95
14.718,-12.67
14.734,-14.73
14.750,-16.54
14.765,-19.27
14.781,-24.49
14.796,-33.48
14.812,-46.56
14.828,-62.63
14.843,-79.09
14.859,-92.5
14.875,-99.63
14.890,-98.8
14.906,-90.43
14.921,-76.76
14.937,-60.69
14.953,-44.48
14.968,-29.09
14.984,-14.57
15.000,-1.03
15.015,10.65
15.031,19.06
15.046,23.55
15.062,25.31
15.078,27.26
15.093,32.42
15.109,42.17
15.125,55.44
15.140,69.82
15.156,83.58
15.171,97.0
15.187,111.93
15.203,129.92
15.218,150.17
15.234,168.97
15.250,181.29
15.265,183.13
15.281,173.42
15.296,154.02
15.312,128.32
15.328,99.54
15.343,69.97
15.359,41.31
15.375,15.44
15.390,-5.15
15.406,-17.86
15.421,-20.99
15.437,-14.31
15.453,0.74
15.468,21.32
15.484,43.72
15.500,64.21
15.515,79.9
15.531,89.64
15.546,94.37
15.562,96.58
15.578,99.19
15.593,103.92
15.609,110.23
15.625,115.14
15.640,114.36
15.656,103.86
15.671,81.48
15.687,47.93
15.703,6.55
15.718,-37.73
15.734,-80.07
15.750,-117.05
15.765,-147.34
15.781,-171.23
15.796,-189.58
15.812,-202.92
15.828,-211.07
15.843,-213.67
15.859,-210.91
15.875,-204.02
15.890,-194.88
15.906,-185.17
15.921,-175.45
15.937,-164.95
15.953,-152.21
15.968,-136.05
15.984,-116.51
16.000,-94.99
16.015,-73.84
16.031,-55.34
16.046,-40.91
16.062,-30.69
16.078,-23.77
16.093,-18.9
16.109,-15.02
16.125,-11.76
16.140,-9.25
16.156,-7.63
16.171,-6.55
16.187,-4.98
16.203,-1.58
16.218,4.64
16.234,13.6
16.250,24.04
16.265,34.0
16.281,41.65
16.296,45.99
16.312,47.02
16.328,45.58
16.343,42.83
16.359,39.86
16.375,37.42
16.390,35.73
16.406,34.56
16.421,32.98
16.437,29.46
16.453,22.25
16.468,10.22
16.484,-6.42
16.500,-25.83
16.515,-45.11
16.531,-61.26
16.546,-72.4
16.562,-78.39
16.578,-80.65
16.593,-81.36
16.609,-82.43
16.625,-84.85
16.640,-88.49
16.656,-92.49
16.671,-95.81
16.687,-97.65
16.703,-97.7
16.718,-95.82
16.734,-91.93
16.750,-85.85
16.765,-77.41
16.781,-66.71
16.796,-54.24
16.812,-41.09
16.828,-28.52
16.843,-17.6
16.859,-8.77
16.875,-1.68
16.890,4.5
16.906,10.78
16.921,17.93
16.937,26.28
16.953,35.63
16.968,45.28
16.984,54.12
17.000,60.83
17.015,64.19
17.031,63.62
17.046,59.49
17.062,53.17
17.078,46.67
17.093,42.02
17.109,40.59
17.125,42.64
17.140,47.44
17.156,53.56
17.171,59.53
17.187,64.33
17.203,67.76
17.218,70.68
17.234,74.87
17.250,83.28
17.265,99.59
17.281,127.42
17.296,168.31
17.312,219.89
17.328,274.58
17.343,320.88
17.359,347.1
17.375,345.84
17.390,317.2
17.406,268.34
17.421,209.86
17.437,150.88
17.453,95.79
17.468,44.48
17.484,-4.67
17.500,-51.51
17.515,-92.8
17.531,-124.11
17.546,-143.15
17.562,-152.03
17.578,-156.62
17.593,-163.04
17.609,-174.02
17.625,-187.61
17.640,-199.23
17.656,-205.37
17.671,-206.36
17.687,-205.79
17.703,-207.58
17.718,-212.64
17.734,-217.87
17.750,-218.03
17.765,-209.76
17.781,-194.38
17.796,-178.29
17.812,-169.8
17.828,-174.85
17.843,-194.11
17.859,-222.65
17.875,-252.69
17.890,-276.88
17.906,-290.48
17.921,-291.72
17.937,-281.08
17.953,-260.71
17.968,-234.35
17.984,-207.46
18.000,-186.6
18.015,-177.68
18.031,-183.58
18.046,-202.18
18.062,-226.19
18.078,-245.05
18.093,-248.55
18.109,-230.28
18.125,-189.68
18.140,-131.61
18.156,-64.09
18.171,4.69
18.187,68.72
18.203,125.13
18.218,174.02
18.234,217.33
18.250,258.12
18.265,299.5
18.281,343.87
18.296,391.8
18.312,441.42
18.328,488.27
18.343,526.23
18.359,549.76
18.375,556.15
18.390,546.95
18.406,527.35
18.421,504.18
18.437,482.9
18.453,465.65
18.468,450.66
18.484,433.5
18.500,409.31
18.515,374.54
18.531,327.97
18.546,271.11
18.562,208.01
18.578,144.28
18.593,86.0
18.609,38.23
18.625,3.72
18.640,-17.49
18.656,-27.63
18.671,-29.73
18.687,-26.25
18.703,-18.52
18.718,-7.8
18.734,3.12
18.750,9.3
18.765,4.39
18.781,-17.2
18.796,-58.11
18.812,-116.41
18.828,-185.55
18.843,-255.83
18.859,-317.01
18.875,-360.92
18.890,-383.28
18.906,-384.51
18.921,-368.42
18.937,-340.21
18.953,-304.36
18.968,-263.75
18.984,-220.21
19.000,-175.99
19.015,-134.46
19.031,-100.04
19.046,-76.66
19.062,-65.83
19.078,-65.59
19.093,-71.71
19.109,-79.46
19.125,-85.28
19.140,-87.61
19.156,-85.98
19.171,-80.21
19.187,-70.08
19.203,-55.25
19.218,-36.01
19.234,-13.86
19.250,8.47
19.265,27.5
19.281,40.28
19.296,45.67
19.312,45.06
19.328,42.09
19.343,40.98
19.359,44.35
19.375,51.67
19.390,59.73
19.406,64.74
19.421,64.76
19.437,61.06
19.453,57.27
19.468,56.85
19.484,60.82
19.500,66.9
19.515,71.06
19.531,69.96
19.546,62.75
19.562,51.09
19.578,38.04
19.593,26.07
19.609,15.94
19.625,7.32
19.640,-0.55
19.656,-7.88
19.671,-14.07
19.687,-18.27
19.703,-20.08
19.718,-19.85
19.734,-18.62
19.750,-17.5
19.765,-17.1
19.781,-17.2
19.796,-16.86
19.812,-14.85
19.828,-10.25
19.843,-2.63
19.859,7.82
19.875,20.49
19.890,34.59
19.906,49.3
19.921,63.84
19.937,77.48
19.953,89.6
19.968,99.69
19.984,107.52
20.000,113.14
20.015,116.71
20.031,118.46
20.046,118.49
20.062,116.98
20.078,114.5
20.093,112.39
20.109,112.63
20.125,117.26
20.140,127.26
20.156,141.49
20.171,156.74
20.187,168.95
20.203,174.78
20.218,173.04
20.234,164.88
20.250,152.41
20.265,137.08
20.281,118.71
20.296,96.07
20.312,68.49
20.328,36.99
20.343,4.1
20.359,-27.46
20.375,-56.41
20.390,-83.24
20.406,-109.22
20.421,-134.6
20.437,-157.63
20.453,-174.91
20.468,-183.16
20.484,-181.14
20.500,-170.16
20.515,-153.51
20.531,-134.78
20.546,-116.51
20.562,-99.83
20.578,-84.84
20.593,-71.31
20.609,-59.13
20.625,-48.27
20.640,-38.63
20.656,-29.98
20.671,-22.33
20.687,-15.94
20.703,-11.17
20.718,-8.49
20.734,-7.99
20.750,-9.44
20.765,-12.36
20.781,-16.19
20.796,-20.43
20.812,-24.69
20.828,-28.67
20.843,-32.06
20.859,-34.73
20.875,-36.67
20.890,-38.11
20.906,-39.43
20.921,-40.88
20.937,-42.55
20.953,-44.31
20.968,-46.04
20.984,-47.88
21.000,-50.29
21.015,-53.93
21.031,-59.35
21.046,-66.61
21.062,-75.2
21.078,-84.15
21.093,-92.25
21.109,-98.54
21.125,-102.48
21.140,-104.06
21.156,-103.55
21.171,-101.34
21.187,-97.68
21.203,-92.6
21.218,-86.01
21.234,-77.81
21.250,-68.07
21.265,-56.94
21.281,-44.73
21.296,-31.7
21.312,-18.02
21.328,-3.81
21.343,10.84
21.359,25.69
21.375,40.4
21.390,54.4
21.406,67.05
21.421,77.78
21.437,86.11
21.453,91.98
21.468,95.69
21.484,97.91
21.500,99.48
21.515,101.15
21.531,103.28
21.546,105.65
21.562,107.51
21.578,107.69
21.593,105.04
21.609,98.65
21.625,88.19
21.640,73.95
21.656,57.0
21.671,39.01
21.687,22.14
21.703,8.61
21.718,-0.01
21.734,-3.39
21.750,-3.04
21.765,-2.06
21.781,-4.26
21.796,-12.74
21.812,-28.62
21.828,-50.57
21.843,-75.3
21.859,-98.92
21.875,-118.3
21.890,-131.85
21.906,-139.5
21.921,-141.84
21.937,-139.41
21.953,-132.41
21.968,-120.95
21.984,-105.58
22.000,-87.57
22.015,-68.8
22.031,-51.16
22.046,-35.93
22.062,-23.46
22.078,-13.29
22.093,-4.56
22.109,3.53
22.125,11.37
22.140,18.86
22.156,25.69
22.171,31.61
22.187,36.63
22.203,41.1
22.218,45.43
22.234,49.93
22.250,54.5
22.265,58.62
22.281,61.49
22.296,62.44
22.312,61.15
22.328,57.78
22.343,52.78
22.359,46.78
22.375,40.35
22.390,33.94
22.406,27.86
22.421,22.31
22.437,17.37
22.453,12.92
22.468,8.63
22.484,4.01
22.500,-1.42
22.515,-7.83
22.531,-15.04
22.546,-22.45
22.562,-29.31
22.578,-35.03
22.593,-39.37
22.609,-42.38
22.625,-44.18
22.640,-44.63
22.656,-43.11
22.671,-38.76
22.687,-30.81
22.703,-19.08
22.718,-4.22
22.734,12.45
22.750,29.41
22.765,45.36
22.781,59.44
22.796,71.1
22.812,79.93
22.828,85.65
22.843,88.34
22.859,88.72
22.875,88.2
22.890,88.37
22.906,90.17
22.921,93.18
22.937,95.47
22.953,94.24
22.968,87.09
22.984,73.15
23.000,53.5
23.015,30.84
23.031,8.42
23.046,-11.01
23.062,-25.88
23.078,-35.97
23.093,-41.99
23.109,-45.07
23.125,-46.27
23.140,-46.32
23.156,-45.41
23.171,-43.27
23.187,-39.47
23.203,-33.62
23.218,-25.82
23.234,-16.75
23.250,-7.52
23.265,0.65
23.281,6.81
23.296,10.64
23.312,12.52
23.328,13.29
23.343,13.94
23.359,15.13
23.375,17.04
23.390,19.3
23.406,21.21
23.421,22.22
23.437,22.35
23.453,22.38
23.468,23.58
23.484,27.19
23.500,33.64
23.515,42.24
23.531,51.47
23.546,59.52
23.562,65.19
23.578,68.28
23.593,69.23
23.609,68.76
23.625,67.48
23.640,66.05
23.656,65.49
23.671,66.96
23.687,70.88
23.703,75.8
23.718,78.19
23.734,73.57
23.750,58.84
23.765,34.38
23.781,4.42
23.796,-24.83
23.812,-48.19
23.828,-63.83
23.843,-73.59
23.859,-81.12
23.875,-89.39
23.890,-99.33
23.906,-110.05
23.921,-120.5
23.937,-130.67
23.953,-141.58
23.968,-153.97
23.984,-166.8
24.000,-177.05
24.015,-180.78
24.031,-175.0
24.046,-159.08
24.062,-135.02
24.078,-106.38
24.093,-76.71
24.109,-48.46
24.125,-22.65
24.140,0.5
24.156,20.9
24.171,38.14
24.187,51.77
24.203,61.59
24.218,68.02
24.234,72.0
24.250,74.44
24.265,75.84
24.281,76.05
24.296,74.62
24.312,71.38
24.328,66.89
24.343,62.42
24.359,59.42
24.375,58.7
24.390,59.86
24.406,61.32
24.421,60.89
24.437,56.85
24.453,48.68
24.468,37.37
24.484,24.95
24.500,13.48
24.515,4.13
24.531,-3.48
24.546,-11.02
24.562,-20.73
24.578,-34.34
24.593,-52.12
24.609,-72.4
24.625,-91.84
24.640,-106.49
24.656,-112.96
24.671,-109.58
24.687,-96.71
24.703,-76.33
24.718,-50.65
24.734,-21.1
24.750,11.81
24.765,47.56
24.781,84.32
24.796,118.43
24.812,145.02
24.828,159.74
24.843,160.66
24.859,149.23
24.875,129.76
24.890,107.82
24.906,88.26
24.921,73.7
24.937,64.16
24.953,57.67
24.968,51.38
24.984,42.77
25.000,30.61
25.015,15.25
25.031,-1.57
25.046,-17.64
25.062,-31.24
25.078,-41.87
25.093,-50.19
25.109,-57.24
25.125,-63.56
25.140,-68.91
25.156,-72.83
25.171,-75.3
25.187,-77.25
25.203,-80.27
25.218,-85.78
25.234,-94.22
25.250,-104.77
25.265,-115.68
25.281,-125.03
25.296,-131.36
25.312,-133.98
25.328,-132.85
25.343,-128.35
25.359,-121.03
25.375,-111.52
25.390,-100.53
25.406,-88.76
25.421,-76.82
25.437,-65.16
25.453,-54.18
25.468,-44.22
25.484,-35.62
25.500,-28.68
25.515,-23.46
25.531,-19.83
25.546,-17.59
25.562,-16.5
25.578,-16.42
25.593,-17.27
25.609,-18.93
25.625,-21.28
25.640,-24.24
25.656,-27.77
25.671,-31.89
25.687,-36.47
25.703,-41.22
25.718,-45.62
25.734,-49.14
25.750,-51.41
25.765,-52.48
25.781,-52.88
25.796,-53.46
25.812,-55.26
25.828,-59.14
25.843,-65.67
25.859,-74.88
25.875,-86.06
25.890,-97.6
25.906,-107.03
25.921,-111.62
25.937,-109.08
25.953,-98.42
25.968,-80.39
25.984,-57.23
26.000,-32.07
26.015,-7.9
26.031,13.11
26.046,29.95
26.062,42.58
26.078,51.44
26.093,57.09
26.109,59.97
26.125,60.53
26.140,59.19
26.156,56.6
26.171,53.42
26.187,50.41
26.203,48.13
26.218,46.92
26.234,46.64
26.250,46.84
26.265,46.82
26.281,45.86
26.296,43.58
26.312,39.94
26.328,35.29
26.343,30.07
26.359,24.64
26.375,19.1
26.390,13.38
26.406,7.35
26.421,0.86
26.437,-6.13
26.453,-13.65
26.468,-21.68
26.484,-30.13
26.500,-38.67
26.515,-46.7
26.531,-53.4
26.546,-57.84
26.562,-59.29
26.578,-57.29
26.593,-51.83
26.609,-43.34
26.625,-32.6
26.640,-20.59
26.656,-8.28
26.671,3.46
26.687,13.94
26.703,22.76
26.718,29.75
26.734,34.9
26.750,38.39
26.765,40.45
26.781,41.46
26.796,41.8
26.812,41.82
26.828,41.76
26.843,41.62
26.859,41.21
26.875,40.16
26.890,38.16
26.906,35.18
26.921,31.48
26.937,27.63
26.953,24.26
26.968,21.8
26.984,20.32
27.000,19.44
27.015,18.57
27.031,17.09
27.046,14.65
27.062,11.17
27.078,6.83
27.093,2.11
27.109,-2.24
27.125,-5.23
27.140,-5.77
27.156,-2.84
27.171,4.11
27.187,15.02
27.203,29.07
27.218,44.84
27.234,60.66
27.250,75.05
27.265,86.96
27.281,95.86
27.296,101.6
27.312,104.29
27.328,104.07
27.343,101.14
27.359,95.88
27.375,88.91
27.390,81.05
27.406,73.21
27.421,66.07
27.437,59.89
27.453,54.53
27.468,49.47
27.484,44.1
27.500,37.96
27.515,30.85
27.531,22.88
27.546,14.28
27.562,5.31
27.578,-3.87
27.593,-13.15
27.609,-22.36
27.625,-31.18
27.640,-39.19
27.656,-46.0
27.671,-51.48
27.687,-55.79
27.703,-59.3
27.718,-62.23
27.734,-64.33
27.750,-64.92
27.765,-63.03
27.781,-57.84
27.796,-49.03
27.812,-36.96
27.828,-22.51
27.843,-6.83
27.859,8.82
27.875,23.25
27.890,35.33
27.906,44.07
27.921,48.84
27.937,49.43
27.953,46.16
27.968,39.83
27.984,31.46
28.000,22.17
28.015,12.99
28.031,4.98
28.046,-0.89
28.062,-3.72
28.078,-3.07
28.093,1.0
28.109,7.81
28.125,16.23
28.140,25.04
28.156,33.15
28.171,39.88
28.187,44.81
28.203,47.69
28.218,48.22
28.234,46.14
28.250,41.3
28.265,33.85
28.281,24.29
28.296,13.39
28.312,1.98
28.328,-9.28
28.343,-19.84
28.359,-29.26
28.375,-36.98
28.390,-42.24
28.406,-44.37
28.421,-42.94
28.437,-37.97
28.453,-29.87
28.468,-19.27
28.484,-6.67
28.500,7.57
28.515,22.91
28.531,38.38
28.546,52.43
28.562,63.38
28.578,70.09
28.593,72.61
28.609,72.28
28.625,71.21
28.640,71.46
28.656,74.02
28.671,78.58
28.687,83.8
28.703,87.87
28.718,89.29
28.734,87.06
28.750,80.7
28.765,70.22
28.781,56.27
28.796,40.36
28.812,25.03
28.828,13.47
28.843,8.56
28.859,11.5
28.875,21.09
28.890,33.87
28.906,45.25
28.921,51.09
28.937,48.91
28.953,38.32
28.968,20.6
28.984,-1.97
29.000,-26.8
29.015,-51.4
29.031,-73.66
29.046,-92.04
29.062,-105.61
29.078,-113.94
29.093,-116.77
29.109,-113.8
29.125,-104.7
29.140,-89.38
29.156,-68.47
29.171,-43.53
29.187,-16.66
29.203,9.97
29.218,34.89
29.234,57.56
29.250,77.86
29.265,95.59
29.281,110.21
29.296,120.78
29.312,126.37
29.328,126.52
29.343,121.42
29.359,111.82
29.375,99.01
29.390,84.67
29.406,70.83
29.421,59.66
29.437,53.15
29.453,52.6
29.468,57.89
29.484,67.24
29.500,77.5
29.515,85.35
29.531,88.43
29.546,86.12
29.562,79.32
29.578,69.47
29.593,57.59
29.609,43.71
29.625,27.3
29.640,8.1
29.656,-13.23
29.671,-35.2
29.687,-56.31
29.703,-75.78
29.718,-93.91
29.734,-111.36
29.750,-128.19
29.765,-143.21
29.781,-154.02
29.796,-157.78
29.812,-152.22
29.828,-136.27
29.843,-110.06
29.859,-74.79
29.875,-32.53
29.890,13.76
29.906,60.15
29.921,102.16
29.937,135.69
29.953,158.26
29.968,169.99
29.984,173.67
30.000,173.65
30.015,173.88
30.031,175.95
30.046,178.08
30.062,175.71
30.078,163.24
30.093,136.65
30.109,95.53
30.125,43.96
30.140,-10.34
30.156,-58.24
30.171,-91.9
30.187,-107.24
30.203,-105.31
30.218,-91.98
30.234,-75.99
30.250,-65.7
30.265,-66.07
30.281,-76.99
30.296,-93.91
30.312,-110.33
30.328,-121.02
30.343,-124.21
30.359,-121.84
30.375,-117.98
30.390,-116.37
30.406,-118.92
30.421,-125.39
30.437,-134.26
30.453,-144.05
30.468,-153.92
30.484,-163.44
30.500,-171.82
30.515,-177.57
30.531,-178.88
30.546,-174.29
30.562,-163.32
30.578,-146.48
30.593,-124.73
30.609,-98.99
30.625,-70.05
30.640,-38.59
30.656,-5.54
30.671,27.45
30.687,57.86
30.703,82.57
30.718,98.71
30.734,104.48
30.750,99.94
30.765,86.92
30.781,68.48
30.796,47.92
30.812,28.02
30.828,10.73
30.843,-2.77
30.859,-11.54
30.875,-14.9
30.890,-12.53
30.906,-5.07
30.921,5.47
30.937,15.87
30.953,22.66
30.968,23.48
30.984,18.46
31.000,10.71
31.015,5.62
31.031,8.75
31.046,23.49
31.062,49.28
31.078,81.24
31.093,111.99
31.109,134.21
31.125,143.22
31.140,138.11
31.156,121.38
31.171,97.38
31.187,70.78
31.203,45.49
31.218,23.92
31.234,6.68
31.250,-7.42
31.265,-20.69
31.281,-35.28
31.296,-51.59
31.312,-67.62
31.328,-79.34
31.343,-82.52
31.359,-74.86
31.375,-57.33
31.390,-34.27
31.406,-12.15
31.421,2.31
31.437,4.09
31.453,-8.65
31.468,-33.85
31.484,-66.1
31.500,-98.15
31.515,-123.44
31.531,-138.62
31.546,-144.68
31.562,-146.1
31.578,-148.27
31.593,-154.68
31.609,-165.48
31.625,-178.18
31.640,-189.6
31.656,-197.7
31.671,-202.07
31.687,-203.16
31.703,-200.9
31.718,-194.14
31.734,-181.36
31.750,-161.91
31.765,-137.12
31.781,-110.34
31.796,-85.63
31.812,-66.37
31.828,-54.0
31.843,-47.84
31.859,-45.87
31.875,-45.79
31.890,-45.86
31.906,-45.32
31.921,-44.24
31.937,-42.97
31.953,-41.78
31.968,-40.52
31.984,-38.64
32.000,-35.44
32.015,-30.29
32.031,-22.87
32.046,-13.19
32.062,-1.54
32.078,11.64
32.093,25.88
32.109,40.8
32.125,56.09
32.140,71.45
32.156,86.54
32.171,100.78
32.187,113.27
32.203,122.91
32.218,128.63
32.234,129.64
32.250,125.75
32.265,117.36
32.281,105.32
32.296,90.84
32.312,75.17
32.328,59.41
32.343,44.48
32.359,30.94
32.375,18.96
32.390,8.25
32.406,-1.79
32.421,-11.92
32.437,-22.82
32.453,-34.8
32.468,-47.85
32.484,-61.78
32.500,-76.57
32.515,-92.76
32.531,-111.37
32.546,-133.39
32.562,-159.05
32.578,-187.26
32.593,-215.71
32.609,-241.29
32.625,-260.87
32.640,-271.83
32.656,-272.15
32.671,-260.27
32.687,-235.17
32.703,-196.89
32.718,-147.36
32.734,-90.85
32.750,-33.23
32.765,19.55
32.781,63.23
32.796,96.23
32.812,119.45
32.828,135.11
32.843,145.54
32.859,152.38
32.875,156.97
32.890,160.73
32.906,165.51
32.921,173.07
32.937,184.28
32.953,198.48
32.968,213.48
32.984,226.55
33.000,235.68
33.015,240.76
33.031,243.54
33.046,246.66
33.062,251.94
33.078,259.3
33.093,266.57
33.109,270.55
33.125,268.74
33.140,260.49
33.156,247.07
33.171,230.7
33.187,213.32
33.203,195.93
33.218,179.02
33.234,162.99
33.250,148.35
33.265,135.32
33.281,123.44
33.296,111.19
33.312,96.62
33.328,78.37
33.343,56.38
33.359,32.17
33.375,8.16
33.390,-13.18
33.406,-29.63
33.421,-39.49
33.437,-41.6
33.453,-35.64
33.468,-22.52
33.484,-4.65
33.500,14.3
33.515,30.05
33.531,38.75
33.546,38.01
33.562,27.33
33.578,8.27
33.593,-16.02
33.609,-41.6
33.625,-64.86
33.640,-83.49
33.656,-96.99
33.671,-106.34
33.687,-113.0
33.703,-118.1
33.718,-121.95
33.734,-124.17
33.750,-124.39
33.765,-122.85
33.781,-120.12
33.796,-116.95
33.812,-113.59
33.828,-109.63
33.843,-104.59
33.859,-98.38
33.875,-91.63
33.890,-85.61
33.906,-81.62
33.921,-80.36
33.937,-81.53
33.953,-83.95
33.968,-86.06
33.984,-86.64
34.000,-85.21
34.015,-82.14
34.031,-78.52
34.046,-75.72
34.062,-74.91
34.078,-76.76
34.093,-81.14
34.109,-87.04
34.125,-92.77
34.140,-96.23
34.156,-95.48
34.171,-89.36
34.187,-77.84
34.203,-61.95
34.218,-43.47
34.234,-24.25
34.250,-5.76
34.265,11.13
34.281,26.09
34.296,38.98
34.312,49.6
34.328,57.71
34.343,63.14
34.359,65.99
34.375,66.74
34.390,66.22
34.406,65.32
34.421,64.71
34.437,64.75
34.453,65.5
34.468,66.85
34.484,68.61
34.500,70.64
34.515,72.63
34.531,74.28
34.546,75.3
34.562,75.43
34.578,74.59
34.593,72.91
34.609,70.6
34.625,67.84
34.640,64.76
34.656,61.38
34.671,57.82
34.687,54.24
34.703,50.85
34.718,47.86
34.734,45.34
34.750,43.3
34.765,41.79
34.781,41.14
34.796,42.01
34.812,45.26
34.828,51.64
34.843,61.4
34.859,74.18
34.875,89.06
34.890,104.9
34.906,120.62
34.921,135.47
34.937,148.9
34.953,160.51
34.968,169.95
34.984,176.86
35.000,181.17
35.015,183.06
35.031,183.09
35.046,181.92
35.062,180.08
35.078,177.84
35.093,175.2
35.109,172.16
35.125,168.91
35.140,165.87
35.156,163.52
35.171,162.29
35.187,162.17
35.203,162.65
35.218,162.64
35.234,160.52
35.250,154.39
35.265,142.3
35.281,122.89
35.296,96.04
35.312,63.35
35.328,27.9
35.343,-6.75
35.359,-37.98
35.375,-65.22
35.390,-89.93
35.406,-114.61
35.421,-141.04
35.437,-168.99
35.453,-196.08
35.468,-218.8
35.484,-234.04
35.500,-240.29
35.515,-237.67
35.531,-227.02
35.546,-209.01
35.562,-183.78
35.578,-151.8
35.593,-114.97
35.609,-77.15
35.625,-43.22
35.640,-17.22
35.656,-0.65
35.671,8.16
35.687,12.79
35.703,16.66
35.718,21.28
35.734,25.89
35.750,28.62
35.765,28.2
35.781,25.08
35.796,21.09
35.812,18.36
35.828,17.99
35.843,19.53
35.859,21.6
35.875,22.76
35.890,22.46
35.906,21.16
35.921,19.72
35.937,18.72
35.953,17.92
35.968,16.14
35.984,11.6
36.000,2.77
36.015,-10.9
36.031,-28.53
36.046,-47.77
36.062,-65.49
36.078,-78.75
36.093,-85.78
36.109,-86.31
36.125,-81.28
36.140,-72.12
36.156,-60.0
36.171,-45.61
36.187,-29.4
36.203,-12.09
36.218,4.97
36.234,19.89
36.250,30.86
36.265,36.81
36.281,37.89
36.296,35.38
36.312,31.13
36.328,26.68
36.343,22.83
36.359,19.47
36.375,16.02
36.390,12.04
36.406,7.64
36.421,3.52
36.437,0.5
36.453,-0.97
36.468,-1.16
36.484,-1.02
36.500,-1.65
36.515,-3.82
36.531,-7.58
36.546,-12.26
36.562,-16.87
36.578,-20.65
36.593,-23.63
36.609,-26.59
36.625,-30.8
36.640,-37.39
36.656,-46.97
36.671,-59.44
36.687,-74.16
36.703,-90.11
36.718,-106.09
36.734,-120.62
36.750,-131.75
36.765,-137.1
36.781,-134.54
36.796,-123.06
36.812,-103.77
36.828,-80.07
36.843,-56.79
36.859,-38.68
36.875,-28.8
36.890,-27.78
36.906,-34.04
36.921,-45.02
36.937,-58.43
36.953,-73.03
36.968,-88.49
36.984,-104.61
37.000,-120.58
37.015,-134.8
37.031,-145.67
37.046,-152.38
37.062,-155.7
37.078,-157.79
37.093,-161.17
37.109,-167.6
37.125,-177.36
37.140,-189.27
37.156,-201.54
37.171,-212.93
37.187,-223.14
37.203,-232.59
37.218,-241.33
37.234,-247.99
37.250,-249.48
37.265,-241.79
37.281,-221.56
37.296,-187.75
37.312,-142.61
37.328,-91.34
37.343,-40.7
37.359,2.89
37.375,35.2
37.390,54.88
37.406,63.32
37.421,63.61
37.437,59.37
37.453,53.68
37.468,48.57
37.484,45.08
37.500,43.41
37.515,43.33
37.531,44.36
37.546,45.91
37.562,47.48
37.578,48.6
37.593,48.87
37.609,47.98
37.625,45.94
37.640,43.05
37.656,40.03
37.671,37.75
37.687,36.82
37.703,37.18
37.718,37.84
37.734,37.15
37.750,33.57
37.765,26.43
37.781,16.34
37.796,4.96
37.812,-5.68
37.828,-13.91
37.843,-18.76
37.859,-19.93
37.875,-17.58
37.890,-12.2
37.906,-4.66
37.921,3.55
37.937,10.51
37.953,14.44
37.968,14.46
37.984,11.23
38.000,6.86
38.015,4.22
38.031,5.85
38.046,13.06
38.062,25.58
38.078,41.79
38.093,59.36
38.109,75.8
38.125,89.09
38.140,98.06
38.156,102.49
38.171,103.07
38.187,101.02
38.203,97.62
38.218,93.66
38.234,89.46
38.250,84.91
38.265,79.94
38.281,74.82
38.296,70.2
38.312,66.86
38.328,65.31
38.343,65.55
38.359,67.03
38.375,68.78
38.390,69.72
38.406,68.84
38.421,65.41
38.437,59.16
38.453,50.36
38.468,39.99
38.484,29.51
38.500,20.44
38.515,13.91
38.531,10.3
38.546,9.23
38.562,9.9
38.578,11.52
38.593,13.5
38.609,15.53
38.625,17.37
38.640,18.62
38.656,18.82
38.671,17.56
38.687,14.73
38.703,10.65
38.718,5.95
38.734,1.39
38.750,-2.35
38.765,-4.72
38.781,-5.23
38.796,-3.31
38.812,1.55
38.828,9.55
38.843,20.27
38.859,32.58
38.875,44.78
38.890,54.97
38.906,61.67
38.921,64.14
38.937,62.75
38.953,58.78
38.968,54.08
38.984,50.55
39.000,49.54
39.015,51.61
39.031,56.51
39.046,63.49
39.062,71.72
39.078,80.51
39.093,89.4
39.109,97.9
39.125,105.4
39.140,111.07
39.156,114.06
39.171,113.8
39.187,110.24
39.203,103.7
39.218,94.59
39.234,83.07
39.250,69.0
39.265,52.45
39.281,34.16
39.296,15.78
39.312,-0.43
39.328,-12.48
39.343,-19.55
39.359,-22.48
39.375,-23.39
39.390,-24.66
39.406,-27.72
39.421,-32.5
39.437,-37.85
39.453,-42.36
39.468,-45.42
39.484,-47.56
39.500,-50.34
39.515,-55.62
39.531,-64.88
39.546,-78.56
39.562,-95.96
39.578,-115.32
39.593,-134.01
39.609,-149.14
39.625,-157.94
39.640,-158.25
39.656,-148.94
39.671,-130.21
39.687,-103.5
39.703,-71.28
39.718,-36.62
39.734,-2.87
39.750,26.65
39.765,49.06
39.781,62.56
39.796,67.06
39.812,64.38
39.828,57.94
39.843,51.81
39.859,49.52
39.875,52.96
39.890,61.87
39.906,74.13
39.921,86.69
39.937,96.77
39.953,102.65
39.968,103.93
39.984,101.25
40.000,95.84
40.015,89.31
40.031,83.48
40.046,80.34
40.062,81.56
40.078,87.93
40.093,98.55
40.109,110.41
40.125,118.97
40.140,119.56
40.156,109.47
40.171,89.36
40.187,63.38
40.203,37.57
40.218,17.41
40.234,5.68
40.250,1.63
40.265,1.9
40.281,2.19
40.296,-0.83
40.312,-8.64
40.328,-20.87
40.343,-36.07
40.359,-52.24
40.375,-67.3
40.390,-79.05
40.406,-85.41
40.421,-85.01
40.437,-77.76
40.453,-65.11
40.468,-49.6
40.484,-34.25
40.500,-21.66
40.515,-13.41
40.531,-9.98
40.546,-10.82
40.562,-14.62
40.578,-19.51
40.593,-23.45
40.609,-24.84
40.625,-23.13
40.640,-19.39
40.656,-16.11
40.671,-16.35
40.687,-22.4
40.703,-34.66
40.718,-51.15
40.734,-68.13
40.750,-81.36
40.765,-87.48
40.781,-84.89
40.796,-73.93
40.812,-56.46
40.828,-35.05
40.843,-12.41
40.859,9.0
40.875,27.16
40.890,40.73
40.906,49.47
40.921,54.27
40.937,56.69
40.953,57.72
40.968,56.82
40.984,51.72
41.000,39.52
41.015,18.56
41.031,-9.88
41.046,-41.41
41.062,-69.9
41.078,-89.75
41.093,-98.02
41.109,-95.09
41.125,-83.86
41.140,-68.06
41.156,-50.83
41.171,-34.15
41.187,-19.04
41.203,-6.31
41.218,3.22
41.234,8.83
41.250,10.3
41.265,8.08
41.281,3.23
41.296,-2.9
41.312,-9.18
41.328,-14.98
41.343,-20.4
41.359,-26.01
41.375,-32.44
41.390,-39.82
41.406,-47.43
41.421,-53.83
41.437,-57.18
41.453,-55.95
41.468,-49.49
41.484,-38.14
41.500,-23.15
41.515,-6.28
41.531,10.75
41.546,26.65
41.562,40.68
41.578,52.6
41.593,62.48
41.609,70.45
41.625,76.63
41.640,81.14
41.656,84.14
41.671,85.87
41.687,86.75
41.703,87.23
41.718,87.85
41.734,89.1
41.750,91.35
41.765,94.64
41.781,98.68
41.796,102.78
41.812,105.93
41.828,107.13
41.843,105.69
41.859,101.54
41.875,95.35
41.890,88.24
41.906,81.24
41.921,74.9
41.937,68.96
41.953,62.48
41.968,54.24
41.984,43.28
42.000,29.39
42.015,13.13
42.031,-4.31
42.046,-21.45
42.062,-36.93
42.078,-49.69
42.093,-59.07
42.109,-64.83
42.125,-67.09
42.140,-66.14
42.156,-62.52
42.171,-56.79
42.187,-49.49
42.203,-41.13
42.218,-32.07
42.234,-22.54
42.250,-12.71
42.265,-2.77
42.281,7.17
42.296,16.92
42.312,26.35
42.328,35.32
42.343,43.72
42.359,51.43
42.375,58.36
42.390,64.41
42.406,69.33
42.421,72.7
42.437,74.01
42.453,72.7
42.468,68.35
42.484,60.98
42.500,51.01
42.515,39.14
42.531,25.87
42.546,11.1
42.562,-5.88
42.578,-25.87
42.593,-48.81
42.609,-73.25
42.625,-96.38
42.640,-114.92
42.656,-126.42
42.671,-130.16
42.687,-127.26
42.703,-120.04
42.718,-110.83
42.734,-101.2
42.750,-91.79
42.765,-82.61
42.781,-73.63
42.796,-64.95
42.812,-56.88
42.828,-49.67
42.843,-43.28
42.859,-37.56
42.875,-32.34
42.890,-27.59
42.906,-23.48
42.921,-20.32
42.937,-18.35
42.953,-17.72
42.968,-18.35
42.984,-19.92
43.000,-21.94
43.015,-23.95
43.031,-25.55
43.046,-26.57
43.062,-27.05
43.078,-27.29
43.093,-27.66
43.109,-28.51
43.125,-30.0
43.140,-32.06
43.156,-34.53
43.171,-37.22
43.187,-40.13
43.203,-43.31
43.218,-46.79
43.234,-50.26
43.250,-53.13
43.265,-54.6
43.281,-54.02
43.296,-51.17
43.312,-46.28
43.328,-39.91
43.343,-32.69
43.359,-25.05
43.375,-17.26
43.390,-9.5
43.406,-2.06
43.421,4.65
43.437,10.27
43.453,14.62
43.468,17.72
43.484,19.77
43.500,21.02
43.515,21.61
43.531,21.59
43.546,20.97
43.562,19.81
43.578,18.23
43.593,16.45
43.609,14.69
43.625,13.08
43.640,11.62
43.656,10.25
43.671,8.85
43.687,7.32
43.703,5.65
43.718,3.95
43.734,2.35
43.750,0.94
43.765,-0.31
43.781,-1.6
43.796,-3.24
43.812,-5.47
43.828,-8.34
43.843,-11.62
43.859,-14.82
43.875,-17.36
43.890,-18.73
43.906,-18.63
43.921,-17.04
43.937,-14.11
43.953,-10.11
43.968,-5.3
43.984,0.18
44.000,6.27
44.015,12.97
44.031,20.17
44.046,27.6
44.062,34.91
44.078,41.72
44.093,47.89
44.109,53.48
44.125,58.75
44.140,63.94
44.156,69.17
44.171,74.26
44.187,78.82
44.203,82.48
44.218,85.02
44.234,86.44
44.250,86.87
44.265,86.41
44.281,85.04
44.296,82.58
44.312,78.9
44.328,74.07
44.343,68.49
44.359,62.71
44.375,57.2
44.390,52.08
44.406,46.99
44.421,41.23
44.437,34.15
44.453,25.56
44.468,15.84
44.484,5.82
44.500,-3.7
44.515,-12.39
44.531,-20.37
44.546,-28.09
44.562,-35.75
44.578,-43.06
44.593,-49.31
44.609,-53.72
44.625,-55.89
44.640,-56.2
44.656,-55.63
44.671,-55.33
44.687,-56.18
44.703,-58.32
44.718,-61.22
44.734,-63.98
44.750,-65.7
44.765,-65.82
44.781,-64.15
44.796,-60.82
44.812,-56.16
44.828,-50.76
44.843,-45.44
44.859,-41.22
44.875,-39.04
44.890,-39.33
44.906,-41.7
44.921,-45.02
44.937,-47.8
44.953,-48.75
44.968,-47.3
44.984,-43.63
45.000,-38.34
45.015,-32.22
45.031,-25.89
45.046,-19.8
45.062,-14.36
45.078,-10.05
45.093,-7.34
45.109,-6.75
45.125,-8.72
45.140,-13.55
45.156,-21.23
45.171,-31.16
45.187,-41.99
45.203,-51.63
45.218,-57.97
45.234,-59.74
45.250,-57.16
45.265,-52.01
45.281,-46.9
45.296,-44.1
45.312,-44.5
45.328,-47.44
45.343,-51.21
45.359,-54.05
45.375,-54.96
45.390,-53.99
45.406,-51.73
45.421,-48.8
45.437,-45.3
45.453,-40.85
45.468,-35.02
45.484,-27.83
45.500,-19.85
45.515,-12.21
45.531,-6.13
45.546,-2.43
45.562,-1.17
45.578,-1.59
45.593,-2.34
45.609,-1.97
45.625,0.53
45.640,5.39
45.656,11.88
45.671,18.68
45.687,24.26
45.703,27.53
45.718,28.17
45.734,26.68
45.750,24.13
45.765,21.9
45.781,21.19
45.796,22.56
45.812,25.7
45.828,29.12
45.843,30.6
45.859,27.86
45.875,19.58
45.890,6.14
45.906,-10.11
45.921,-25.59
45.937,-36.57
45.953,-40.63
45.968,-37.46
45.984,-28.83
46.000,-17.69
46.015,-6.81
46.031,2.09
46.046,8.7
46.062,13.53
46.078,17.19
46.093,19.93
46.109,21.55
46.125,21.88
46.140,21.15
46.156,20.11
46.171,19.66
46.187,20.38
46.203,22.29
46.218,24.96
46.234,27.94
46.250,30.98
46.265,34.22
46.281,37.84
46.296,41.8
46.312,45.77
46.328,49.16
46.343,51.32
46.359,51.71
46.375,49.99
46.390,46.08
46.406,40.21
46.421,32.92
46.437,25.11
46.453,17.78
46.468,11.89
46.484,8.03
46.500,6.35
46.515,6.61
46.531,8.41
46.546,11.33
46.562,15.03
46.578,19.19
46.593,23.53
46.609,27.74
46.625,31.52
46.640,34.67
46.656,37.11
46.671,38.99
46.687,40.75
46.703,43.0
46.718,46.03
46.734,49.53
46.750,52.19
46.765,51.96
46.781,46.66
46.796,34.88
46.812,16.96
46.828,-4.64
46.843,-26.0
46.859,-43.02
46.875,-53.02
46.890,-55.8
46.906,-53.6
46.921,-49.98
46.937,-48.29
46.953,-50.38
46.968,-56.18
46.984,-64.18
47.000,-72.37
47.015,-79.03
47.031,-83.13
47.046,-84.13
47.062,-81.6
47.078,-75.05
47.093,-64.09
47.109,-48.95
47.125,-30.87
47.140,-11.9
47.156,5.53
47.171,19.37
47.187,28.43
47.203,32.53
47.218,32.26
47.234,28.76
47.250,23.47
47.265,17.79
47.281,12.92
47.296,9.38
47.312,6.85
47.328,4.42
47.343,1.14
47.359,-3.38
47.375,-8.59
47.390,-13.32
47.406,-16.64
47.421,-18.26
47.437,-18.76
47.453,-19.03
47.468,-19.37
47.484,-19.14
47.500,-17.1
47.515,-12.24
47.531,-4.61
47.546,4.35
47.562,12.51
47.578,18.03
47.593,20.15
47.609,19.44
47.625,17.19
47.640,14.7
47.656,12.76
47.671,11.66
47.687,11.34
47.703,11.78
47.718,12.99
47.734,14.77
47.750,16.67
47.765,17.92
47.781,17.82
47.796,16.05
47.812,12.83
47.828,8.56
47.843,3.44
47.859,-3.07
47.875,-12.0
47.890,-24.1
47.906,-38.86
47.921,-54.07
47.937,-66.17
47.953,-71.69
47.968,-68.79
47.984,-58.1
48.000,-42.63
48.015,-26.34
48.031,-12.41
48.046,-2.1
48.062,5.19
48.078,10.94
48.093,16.31
48.109,21.44
48.125,25.69
48.140,28.39
48.156,29.53
48.171,29.95
48.187,30.85
48.203,33.19
48.218,37.26
48.234,42.53
48.250,47.91
48.265,52.1
48.281,53.95
48.296,52.64
48.312,47.97
48.328,40.52
48.343,31.66
48.359,23.16
48.375,16.57
48.390,12.48
48.406,10.29
48.421,8.62
48.437,6.13
48.453,2.14
48.468,-3.26
48.484,-9.34
48.500,-15.19
48.515,-20.0
48.531,-23.31
48.546,-25.05
48.562,-25.71
48.578,-26.4
48.593,-28.58
48.609,-33.45
48.625,-41.28
48.640,-50.96
48.656,-60.22
48.671,-66.57
48.687,-68.62
48.703,-66.83
48.718,-63.35
48.734,-61.04
48.750,-62.31
48.765,-68.14
48.781,-78.17
48.796,-91.04
48.812,-105.0
48.828,-118.43
48.843,-129.92
48.859,-138.5
48.875,-143.59
48.890,-145.07
48.906,-143.47
48.921,-139.92
48.937,-135.95
48.953,-133.05
48.968,-132.24
48.984,-133.55
49.000,-136.0
49.015,-137.94
49.031,-137.71
49.046,-134.31
49.062,-127.92
49.078,-119.82
49.093,-111.84
49.109,-105.55
49.125,-101.45
49.140,-98.74
49.156,-95.51
49.171,-89.59
49.187,-79.29
49.203,-64.19
49.218,-45.07
49.234,-23.59
49.250,-1.68
49.265,19.13
49.281,37.87
49.296,54.34
49.312,68.99
49.328,82.98
49.343,97.57
49.359,113.41
49.375,129.84
49.390,145.05
49.406,157.22
49.421,165.94
49.437,173.11
49.453,182.05
49.468,195.62
49.484,214.18
49.500,235.14
49.515,254.4
49.531,268.69
49.546,277.5
49.562,283.2
49.578,289.36
49.593,298.37
49.609,310.31
49.625,323.27
49.640,334.66
49.656,342.57
49.671,345.76
49.687,342.63
49.703,330.6
49.718,306.6
49.734,268.58
49.750,217.43
49.765,157.44
49.781,94.87
49.796,35.58
49.812,-17.56
49.828,-65.62
49.843,-112.78
49.859,-163.64
49.875,-220.69
49.890,-282.55
49.906,-344.43
49.921,-400.11
49.937,-443.85
49.953,-472.02
49.968,-483.16
49.984,-477.39
50.000,-455.74
50.015,-419.96
50.031,-372.99
50.046,-319.25
50.062,-264.57
50.078,-214.79
50.093,-174.47
50.109,-145.51
50.125,-126.71
50.140,-114.72
50.156,-105.68
50.171,-96.62
50.187,-86.4
50.203,-75.74
50.218,-66.53
50.234,-61.2
50.250,-61.62
50.265,-68.46
50.281,-80.95
50.296,-97.03
50.312,-114.13
50.328,-129.91
50.343,-142.85
50.359,-151.98
50.375,-156.57
50.390,-155.42
50.406,-146.88
50.421,-129.68
50.437,-103.76
50.453,-70.86
50.468,-34.19
50.484,2.56
50.500,36.48
50.515,65.97
50.531,90.62
50.546,110.64
50.562,126.18
50.578,137.16
50.593,143.5
50.609,145.49
50.625,143.97
50.640,140.42
50.656,136.5
50.671,133.77
50.687,133.36
50.703,135.77
50.718,141.07
50.734,148.8
50.750,158.28
50.765,168.58
50.781,178.79
50.796,187.97
50.812,195.39
50.828,200.54
50.843,203.23
50.859,203.55
50.875,201.87
50.890,198.69
50.906,194.6
50.921,190.23
50.937,186.01
50.953,182.07
50.968,178.05
50.984,173.0
51.000,165.75
51.015,155.42
51.031,141.9
51.046,126.07
51.062,109.58
51.078,94.16
51.093,81.09
51.109,70.88
51.125,63.44
51.140,58.53
51.156,56.01
51.171,55.81
51.187,57.56
51.203,60.46
51.218,63.56
51.234,66.34
51.250,69.14
51.265,73.06
51.281,79.15
51.296,87.54
51.312,97.29
51.328,106.95
51.343,115.63
51.359,123.5
51.375,131.78
51.390,141.64
51.406,153.07
51.421,164.67
51.437,174.28
51.453,180.27
51.468,182.24
51.484,181.11
51.500,177.99
51.515,173.22
51.531,165.66
51.546,152.89
51.562,132.02
51.578,100.53
51.593,57.28
51.609,3.32
51.625,-57.79
51.640,-120.39
51.656,-177.98
51.671,-225.13
51.687,-258.94
51.703,-279.47
51.718,-288.98
51.734,-290.27
51.750,-285.55
51.765,-275.9
51.781,-261.86
51.796,-244.48
51.812,-225.73
51.828,-208.07
51.843,-193.6
51.859,-183.33
51.875,-176.95
51.890,-173.36
51.906,-171.32
51.921,-169.83
51.937,-168.11
51.953,-165.32
51.968,-160.69
51.984,-153.64
52.000,-144.03
52.015,-132.12
52.031,-118.44
52.046,-103.46
52.062,-87.67
52.078,-71.83
52.093,-57.21
52.109,-45.54
52.125,-38.44
52.140,-36.54
52.156,-38.79
52.171,-42.74
52.187,-45.49
52.203,-45.1
52.218,-41.52
52.234,-36.33
52.250,-31.5
52.265,-28.2
52.281,-26.13
52.296,-24.07
52.312,-20.74
52.328,-15.56
52.343,-8.76
52.359,-0.9
52.375,7.62
52.390,16.64
52.406,26.0
52.421,35.2
52.437,43.35
52.453,49.82
52.468,54.77
52.484,59.4
52.500,65.45
52.515,74.22
52.531,85.78
52.546,98.88
52.562,111.52
52.578,121.86
52.593,128.83
52.609,132.37
52.625,132.86
52.640,130.58
52.656,125.41
52.671,116.92
52.687,104.78
52.703,89.14
52.718,70.78
52.734,50.94
52.750,30.94
52.765,11.92
52.781,-5.2
52.796,-19.69
52.812,-30.96
52.828,-38.71
52.843,-43.07
52.859,-44.66
52.875,-44.46
52.890,-43.32
52.906,-41.72
52.921,-39.43
52.937,-35.87
52.953,-30.31
52.968,-22.4
52.984,-12.22
53.000,-0.2
53.015,12.99
53.031,26.6
53.046,39.88
53.062,52.18
53.078,62.81
53.093,71.25
53.109,77.09
53.125,80.14
53.140,80.36
53.156,77.94
53.171,73.26
53.187,67.05
53.203,60.33
53.218,54.21
53.234,49.66
53.250,47.17
53.265,46.62
53.281,47.36
53.296,48.65
53.312,49.85
53.328,50.72
53.343,51.28
53.359,51.54
53.375,51.26
53.390,50.01
53.406,47.33
53.421,43.13
53.437,37.74
53.453,31.78
53.468,25.92
53.484,20.47
53.500,15.31
53.515,9.95
53.531,3.9
53.546,-3.17
53.562,-11.22
53.578,-19.89
53.593,-28.78
53.609,-37.3
53.625,-44.92
53.640,-51.03
53.656,-55.01
53.671,-56.33
53.687,-54.81
53.703,-50.66
53.718,-44.52
53.734,-37.31
53.750,-29.81
53.765,-22.57
53.781,-15.75
53.796,-9.29
53.812,-3.15
53.828,2.43
53.843,7.03
53.859,10.2
53.875,11.72
53.890,11.78
53.906,10.89
53.921,9.68
53.937,8.68
53.953,8.16
53.968,8.17
53.984,8.61
54.000,9.39
54.015,10.37
54.031,11.43
54.046,12.29
54.062,12.63
54.078,12.26
54.093,11.06
54.109,9.25
54.125,7.18
54.140,5.22
54.156,3.55
54.171,2.01
54.187,0.22
54.203,-2.29
54.218,-5.74
54.234,-10.09
54.250,-14.93
54.265,-19.72
54.281,-24.04
54.296,-27.71
54.312,-30.82
54.328,-33.64
54.343,-36.4
54.359,-39.19
54.375,-42.02
54.390,-44.69
54.406,-46.87
54.421,-48.08
54.437,-47.69
54.453,-45.06
54.468,-39.74
54.484,-31.72
54.500,-21.53
54.515,-10.21
54.531,0.97
54.546,10.91
54.562,18.82
54.578,24.44
54.593,27.88
54.609,29.47
54.625,29.54
54.640,28.33
54.656,26.0
54.671,22.74
54.687,18.81
54.703,14.49
54.718,10.19
54.734,6.31
54.750,3.25
54.765,1.39
54.781,0.9
54.796,1.71
54.812,3.39
54.828,5.26
54.843,6.59
54.859,6.9
54.875,6.12
54.890,4.58
54.906,2.87
54.921,1.53
54.937,0.79
54.953,0.47
54.968,0.19
54.984,-0.45
55.000,-1.69
55.015,-3.56
55.031,-6.03
55.046,-9.0
55.062,-12.33
55.078,-15.74
55.093,-18.73
55.109,-20.54
55.125,-20.42
55.140,-17.89
55.156,-13.06
55.171,-6.77
55.187,-0.09
55.203,6.01
55.218,11.36
55.234,16.59
55.250,22.94
55.265,31.67
55.281,43.64
55.296,59.08
55.312,77.7
55.328,98.98
55.343,122.17
55.359,146.15
55.375,169.16
55.390,188.82
55.406,202.6
55.421,208.6
55.437,206.28
55.453,196.65
55.468,181.93
55.484,164.65
55.500,146.98
55.515,130.32
55.531,115.43
55.546,102.93
55.562,93.55
55.578,88.06
55.593,86.71
55.609,88.87
55.625,92.9
55.640,96.57
55.656,97.93
55.671,96.08
55.687,91.47
55.703,85.43
55.718,79.38
55.734,73.87
55.750,68.3
55.765,61.28
55.781,51.47
55.796,38.07
55.812,21.08
55.828,1.21
55.843,-19.92
55.859,-39.49
55.875,-53.47
55.890,-57.55
55.906,-49.16
55.921,-29.45
55.937,-3.95
55.953,18.95
55.968,31.4
55.984,29.53
56.000,15.04
56.015,-6.06
56.031,-26.76
56.046,-42.29
56.062,-51.68
56.078,-56.85
56.093,-60.37
56.109,-63.59
56.125,-66.11
56.140,-66.63
56.156,-64.44
56.171,-60.06
56.187,-55.05
56.203,-51.1
56.218,-49.06
56.234,-48.41
56.250,-47.82
56.265,-45.92
56.281,-42.3
56.296,-38.14
56.312,-35.96
56.328,-38.71
56.343,-48.4
56.359,-65.07
56.375,-86.41
56.390,-108.48
56.406,-127.09
56.421,-139.09
56.437,-143.35
56.453,-140.68
56.468,-133.28
56.484,-123.71
56.500,-114.17
56.515,-106.08
56.531,-100.23
56.546,-96.96
56.562,-96.39
56.578,-98.57
56.593,-103.25
56.609,-109.87
56.625,-117.45
56.640,-124.85
56.656,-130.92
56.671,-134.87
56.687,-136.39
56.703,-135.61
56.718,-132.98
56.734,-129.02
56.750,-124.18
56.765,-118.65
56.781,-112.35
56.796,-105.01
56.812,-96.3
56.828,-86.1
56.843,-74.62
56.859,-62.47
56.875,-50.41
56.890,-39.07
56.906,-28.79
56.921,-19.48
56.937,-10.79
56.953,-2.38
56.968,5.87
56.984,13.8
57.000,21.13
57.015,27.55
57.031,32.85
57.046,36.93
57.062,39.7
57.078,41.12
57.093,41.17
57.109,39.87
57.125,37.34
57.140,33.75
57.156,29.32
57.171,24.31
57.187,19.08
57.203,14.01
57.218,9.47
57.234,5.69
57.250,2.63
57.265,0.04
57.281,-2.43
57.296,-5.01
57.312,-7.68
57.328,-10.21
57.343,-12.38
57.359,-14.22
57.375,-16.14
57.390,-18.85
57.406,-22.97
57.421,-28.67
57.437,-35.53
57.453,-42.63
57.468,-49.07
57.484,-54.34
57.500,-58.52
57.515,-62.17
57.531,-66.04
57.546,-70.68
57.562,-76.3
57.578,-82.66
57.593,-89.28
57.609,-95.49
57.625,-100.48
57.640,-103.43
57.656,-103.55
57.671,-100.55
57.687,-94.95
57.703,-88.37
57.718,-83.25
57.734,-81.74
57.750,-84.41
57.765,-89.24
57.781,-91.76
57.796,-86.51
57.812,-69.32
57.828,-39.25
57.843,0.75
57.859,44.99
57.875,87.25
57.890,122.87
57.906,149.71
57.921,167.65
57.937,177.33
57.953,179.28
57.968,173.89
57.984,162.19
58.000,146.53
58.015,130.59
58.031,118.25
58.046,112.23
58.062,113.09
58.078,119.34
58.093,128.3
58.109,137.24
58.125,144.17
58.140,148.1
58.156,148.79
58.171,146.5
58.187,141.93
58.203,136.04
58.218,129.95
58.234,124.8
58.250,121.28
58.265,119.59
58.281,119.24
58.296,119.2
58.312,118.07
58.328,114.38
58.343,106.81
58.359,94.55
58.375,77.62
58.390,56.99
58.406,34.55
58.421,12.56
58.437,-6.76
58.453,-21.89
58.468,-32.16
58.484,-37.87
58.500,-39.98
58.515,-39.59
58.531,-37.62
58.546,-34.54
58.562,-30.42
58.578,-25.22
58.593,-18.9
58.609,-11.7
58.625,-4.1
58.640,3.17
58.656,9.0
58.671,11.69
58.687,9.0
58.703,-1.29
58.718,-20.44
58.734,-47.65
58.750,-79.67
58.765,-111.34
58.781,-137.14
58.796,-152.96
58.812,-157.41
58.828,-152.0
58.843,-140.2
58.859,-126.11
58.875,-113.26
58.890,-103.79
58.906,-98.25
58.921,-95.79
58.937,-94.49
58.953,-91.99
58.968,-86.18
58.984,-75.95
59.000,-61.61
59.015,-44.8
59.031,-28.07
59.046,-14.24
59.062,-5.9
59.078,-5.19
59.093,-13.36
59.109,-30.38
59.125,-54.45
59.140,-81.83
59.156,-107.44
59.171,-126.06
59.187,-134.03
59.203,-130.19
59.218,-116.25
59.234,-95.62
59.250,-72.2
59.265,-49.08
59.281,-27.97
59.296,-9.29
59.312,7.23
59.328,22.15
59.343,36.03
59.359,49.36
59.375,62.75
59.390,76.89
59.406,92.24
59.421,108.6
59.437,124.85
59.453,138.77
59.468,147.72
59.484,149.74
59.500,144.55
59.515,134.06
59.531,121.78
59.546,111.34
59.562,105.14
59.578,103.61
59.593,105.52
59.609,108.95
59.625,112.21
59.640,113.98
59.656,113.05
59.671,107.72
59.687,95.96
59.703,76.22
59.718,48.51
59.734,15.12
59.750,-19.58
59.765,-50.19
59.781,-71.91
59.796,-81.59
59.812,-78.21
59.828,-62.64
59.843,-37.09
59.859,-4.82
59.875,30.27
59.890,63.74
59.906,91.25
59.921,109.28
59.937,116.38
59.953,113.82
59.968,105.47
59.984,96.58
