timestamp,value
00.000,97.38
00.015,89.72
00.031,81.14
00.046,72.78
00.062,65.9
00.078,61.64
00.093,60.79
00.109,63.68
00.125,70.19
00.140,79.78
00.156,91.84
00.171,105.86
00.187,121.56
00.203,138.75
00.218,157.16
00.234,176.17
00.250,194.75
00.265,211.58
00.281,225.27
00.296,234.64
00.312,238.89
00.328,237.48
00.343,229.98
00.359,215.97
00.375,195.05
00.390,167.16
00.406,132.87
00.421,93.58
00.437,51.6
00.453,9.75
00.468,-28.99
00.484,-62.14
00.500,-88.15
00.515,-106.74
00.531,-118.8
00.546,-126.05
00.562,-130.41
00.578,-133.39
00.593,-135.76
00.609,-137.52
00.625,-138.25
00.640,-137.48
00.656,-135.05
00.671,-131.13
00.687,-126.11
00.703,-120.45
00.718,-114.57
00.734,-108.87
00.750,-103.68
00.765,-99.29
00.781,-95.83
00.796,-93.14
00.812,-90.72
00.828,-87.8
00.843,-83.59
00.859,-77.52
00.875,-69.41
00.890,-59.54
00.906,-48.53
00.921,-37.21
00.937,-26.38
00.953,-16.76
00.968,-8.91
00.984,-3.09
01.000,0.85
01.015,3.54
01.031,6.07
01.046,9.61
01.062,15.12
01.078,22.95
01.093,32.74
01.109,43.5
01.125,54.01
01.140,63.18
01.156,70.24
01.171,74.92
01.187,77.29
01.203,77.57
01.218,76.12
01.234,73.24
01.250,69.22
01.265,64.23
01.281,58.41
01.296,51.81
01.312,44.48
01.328,36.54
01.343,28.18
01.359,19.54
01.375,10.74
01.390,1.77
01.406,-7.47
01.421,-17.04
01.437,-26.83
01.453,-36.47
01.468,-45.34
01.484,-52.78
01.500,-58.28
01.515,-61.63
01.531,-63.07
01.546,-63.11
01.562,-62.39
01.578,-61.55
01.593,-61.08
01.609,-61.29
01.625,-62.41
01.640,-64.55
01.656,-67.81
01.671,-72.21
01.687,-77.6
01.703,-83.78
01.718,-90.44
01.734,-97.26
01.750,-103.92
01.765,-110.14
01.781,-115.65
01.796,-120.16
01.812,-123.44
01.828,-125.31
01.843,-125.71
01.859,-124.66
01.875,-122.28
01.890,-118.77
01.906,-114.42
01.921,-109.6
01.937,-104.72
01.953,-100.14
01.968,-96.13
01.984,-92.78
02.000,-90.04
02.015,-87.79
02.031,-85.96
02.046,-84.61
02.062,-83.87
02.078,-83.84
02.093,-84.58
02.109,-85.93
02.125,-87.58
02.140,-89.16
02.156,-90.38
02.171,-91.12
02.187,-91.48
02.203,-91.64
02.218,-91.65
02.234,-91.28
02.250,-90.07
02.265,-87.47
02.281,-83.12
02.296,-77.06
02.312,-69.68
02.328,-61.5
02.343,-52.98
02.359,-44.35
02.375,-35.64
02.390,-26.88
02.406,-18.18
02.421,-9.78
02.437,-1.96
02.453,5.15
02.468,11.54
02.484,17.29
02.500,22.51
02.515,27.26
02.531,31.53
02.546,35.32
02.562,38.59
02.578,41.24
02.593,43.18
02.609,44.35
02.625,44.73
02.640,44.39
02.656,43.48
02.671,42.16
02.687,40.53
02.703,38.68
02.718,36.63
02.734,34.47
02.750,32.24
02.765,30.0
02.781,27.76
02.796,25.53
02.812,23.34
02.828,21.35
02.843,19.88
02.859,19.35
02.875,20.2
02.890,22.8
02.906,27.36
02.921,33.85
02.937,41.94
02.953,51.12
02.968,60.72
02.984,70.07
03.000,78.6
03.015,85.94
03.031,91.86
03.046,96.32
03.062,99.46
03.078,101.52
03.093,102.98
03.109,104.54
03.125,107.0
03.140,111.19
03.156,117.67
03.171,126.56
03.187,137.46
03.203,149.5
03.218,161.43
03.234,171.84
03.250,179.29
03.265,182.43
03.281,180.08
03.296,171.44
03.312,156.24
03.328,135.0
03.343,109.12
03.359,80.65
03.375,51.88
03.390,24.82
03.406,0.68
03.421,-20.2
03.437,-38.24
03.453,-54.17
03.468,-68.68
03.484,-82.22
03.500,-94.98
03.515,-107.05
03.531,-118.45
03.546,-129.04
03.562,-138.41
03.578,-145.77
03.593,-150.15
03.609,-150.72
03.625,-147.18
03.640,-139.98
03.656,-130.22
03.671,-119.25
03.687,-108.27
03.703,-97.92
03.718,-88.36
03.734,-79.36
03.750,-70.71
03.765,-62.33
03.781,-54.35
03.796,-46.96
03.812,-40.28
03.828,-34.24
03.843,-28.71
03.859,-23.56
03.875,-18.75
03.890,-14.39
03.906,-10.57
03.921,-7.31
03.937,-4.43
03.953,-1.72
03.968,0.98
03.984,3.62
04.000,5.88
04.015,7.33
04.031,7.62
04.046,6.73
04.062,4.98
04.078,2.91
04.093,1.02
04.109,-0.51
04.125,-1.87
04.140,-3.49
04.156,-5.79
04.171,-8.98
04.187,-12.97
04.203,-17.44
04.218,-21.96
04.234,-26.2
04.250,-29.87
04.265,-32.64
04.281,-34.18
04.296,-34.12
04.312,-32.26
04.328,-28.7
04.343,-23.89
04.359,-18.56
04.375,-13.47
04.390,-9.19
04.406,-5.91
04.421,-3.56
04.437,-1.9
04.453,-0.72
04.468,-0.02
04.484,0.09
04.500,-0.51
04.515,-1.77
04.531,-3.41
04.546,-5.0
04.562,-6.11
04.578,-6.52
04.593,-6.26
04.609,-5.52
04.625,-4.56
04.640,-3.56
04.656,-2.56
04.671,-1.64
04.687,-0.96
04.703,-0.77
04.718,-1.35
04.734,-2.83
04.750,-5.08
04.765,-7.76
04.781,-10.37
04.796,-12.51
04.812,-14.06
04.828,-15.17
04.843,-16.29
04.859,-17.97
04.875,-20.7
04.890,-24.64
04.906,-29.62
04.921,-34.95
04.937,-39.72
04.953,-42.9
04.968,-43.71
04.984,-41.84
05.000,-37.51
05.015,-31.36
05.031,-24.23
05.046,-16.94
05.062,-10.09
05.078,-4.02
05.093,1.12
05.109,5.33
05.125,8.64
05.140,11.14
05.156,12.96
05.171,14.31
05.187,15.35
05.203,16.26
05.218,17.12
05.234,18.0
05.250,18.92
05.265,19.82
05.281,20.67
05.296,21.46
05.312,22.21
05.328,22.93
05.343,23.7
05.359,24.52
05.375,25.35
05.390,26.14
05.406,26.73
05.421,27.0
05.437,26.8
05.453,26.03
05.468,24.65
05.484,22.73
05.500,20.43
05.515,17.98
05.531,15.57
05.546,13.29
05.562,11.1
05.578,8.81
05.593,6.22
05.609,3.24
05.625,-0.08
05.640,-3.59
05.656,-7.1
05.671,-10.54
05.687,-13.91
05.703,-17.29
05.718,-20.76
05.734,-24.41
05.750,-28.36
05.765,-32.69
05.781,-37.38
05.796,-42.19
05.812,-46.59
05.828,-49.81
05.843,-51.05
05.859,-49.71
05.875,-45.64
05.890,-39.17
05.906,-30.97
05.921,-21.87
05.937,-12.6
05.953,-3.68
05.968,4.56
05.984,11.94
06.000,18.39
06.015,23.87
06.031,28.39
06.046,31.99
06.062,34.74
06.078,36.7
06.093,37.97
06.109,38.66
06.125,38.94
06.140,39.08
06.156,39.31
06.171,39.79
06.187,40.51
06.203,41.35
06.218,42.16
06.234,42.79
06.250,43.19
06.265,43.36
06.281,43.34
06.296,43.13
06.312,42.74
06.328,42.11
06.343,41.24
06.359,40.1
06.375,38.68
06.390,36.94
06.406,34.86
06.421,32.5
06.437,29.9
06.453,27.22
06.468,24.52
06.484,21.83
06.500,19.11
06.515,16.29
06.531,13.32
06.546,10.2
06.562,6.94
06.578,3.59
06.593,0.2
06.609,-3.21
06.625,-6.63
06.640,-10.09
06.656,-13.69
06.671,-17.55
06.687,-21.8
06.703,-26.51
06.718,-31.51
06.734,-36.37
06.750,-40.37
06.765,-42.68
06.781,-42.58
06.796,-39.72
06.812,-34.28
06.828,-26.91
06.843,-18.51
06.859,-9.96
06.875,-1.89
06.890,5.39
06.906,11.78
06.921,17.29
06.937,21.91
06.953,25.56
06.968,28.2
06.984,29.86
07.000,30.7
07.015,30.96
07.031,30.9
07.046,30.73
07.062,30.52
07.078,30.24
07.093,29.8
07.109,29.16
07.125,28.36
07.140,27.56
07.156,26.94
07.171,26.58
07.187,26.47
07.203,26.39
07.218,26.07
07.234,25.3
07.250,23.98
07.265,22.13
07.281,19.9
07.296,17.43
07.312,14.87
07.328,12.33
07.343,9.96
07.359,7.85
07.375,5.99
07.390,4.28
07.406,2.51
07.421,0.53
07.437,-1.71
07.453,-4.11
07.468,-6.46
07.484,-8.58
07.500,-10.41
07.515,-12.05
07.531,-13.68
07.546,-15.56
07.562,-17.89
07.578,-20.67
07.593,-23.71
07.609,-26.56
07.625,-28.53
07.640,-28.89
07.656,-27.03
07.671,-22.74
07.687,-16.32
07.703,-8.53
07.718,-0.33
07.734,7.47
07.750,14.34
07.765,20.15
07.781,24.98
07.796,28.95
07.812,32.13
07.828,34.53
07.843,36.12
07.859,36.98
07.875,37.24
07.890,37.06
07.906,36.52
07.921,35.66
07.937,34.48
07.953,33.03
07.968,31.46
07.984,29.94
08.000,28.64
08.015,27.63
08.031,26.86
08.046,26.28
08.062,25.78
08.078,25.32
08.093,24.77
08.109,23.95
08.125,22.66
08.140,20.77
08.156,18.33
08.171,15.55
08.187,12.82
08.203,10.45
08.218,8.57
08.234,7.01
08.250,5.43
08.265,3.5
08.281,1.03
08.296,-1.89
08.312,-4.98
08.328,-7.9
08.343,-10.44
08.359,-12.52
08.375,-14.27
08.390,-15.85
08.406,-17.47
08.421,-19.28
08.437,-21.4
08.453,-23.85
08.468,-26.51
08.484,-29.07
08.500,-31.02
08.515,-31.72
08.531,-30.65
08.546,-27.58
08.562,-22.69
08.578,-16.58
08.593,-10.01
08.609,-3.73
08.625,1.78
08.640,6.35
08.656,10.04
08.671,13.04
08.687,15.5
08.703,17.47
08.718,18.92
08.734,19.8
08.750,20.06
08.765,19.75
08.781,19.02
08.796,18.09
08.812,17.19
08.828,16.5
08.843,16.12
08.859,16.04
08.875,16.15
08.890,16.32
08.906,16.42
08.921,16.39
08.937,16.2
08.953,15.89
08.968,15.41
08.984,14.75
09.000,13.85
09.015,12.74
09.031,11.48
09.046,10.21
09.062,9.0
09.078,7.82
09.093,6.49
09.109,4.8
09.125,2.6
09.140,-0.11
09.156,-3.12
09.171,-6.15
09.187,-8.93
09.203,-11.38
09.218,-13.55
09.234,-15.61
09.250,-17.78
09.265,-20.23
09.281,-23.07
09.296,-26.3
09.312,-29.81
09.328,-33.35
09.343,-36.49
09.359,-38.69
09.375,-39.4
09.390,-38.27
09.406,-35.24
09.421,-30.6
09.437,-24.96
09.453,-19.03
09.468,-13.48
09.484,-8.74
09.500,-4.99
09.515,-2.2
09.531,-0.22
09.546,1.13
09.562,2.0
09.578,2.53
09.593,2.84
09.609,3.02
09.625,3.16
09.640,3.29
09.656,3.43
09.671,3.59
09.687,3.76
09.703,3.94
09.718,4.12
09.734,4.26
09.750,4.31
09.765,4.23
09.781,3.98
09.796,3.6
09.812,3.14
09.828,2.64
09.843,2.12
09.859,1.52
09.875,0.75
09.890,-0.33
09.906,-1.83
09.921,-3.81
09.937,-6.18
09.953,-8.76
09.968,-11.32
09.984,-13.64
10.000,-15.68
10.015,-17.47
10.031,-19.15
10.046,-20.85
10.062,-22.65
10.078,-24.51
10.093,-26.34
10.109,-27.94
10.125,-29.07
10.140,-29.41
10.156,-28.59
10.171,-26.38
10.187,-22.7
10.203,-17.76
10.218,-11.97
10.234,-5.82
10.250,0.21
10.265,5.78
10.281,10.74
10.296,15.05
10.312,18.74
10.328,21.86
10.343,24.45
10.359,26.56
10.375,28.25
10.390,29.59
10.406,30.67
10.421,31.54
10.437,32.18
10.453,32.49
10.468,32.37
10.484,31.75
10.500,30.63
10.515,29.11
10.531,27.41
10.546,25.67
10.562,23.98
10.578,22.31
10.593,20.56
10.609,18.62
10.625,16.41
10.640,13.99
10.656,11.41
10.671,8.75
10.687,6.02
10.703,3.15
10.718,0.04
10.734,-3.39
10.750,-7.08
10.765,-10.87
10.781,-14.49
10.796,-17.71
10.812,-20.39
10.828,-22.54
10.843,-24.36
10.859,-26.06
10.875,-27.83
10.890,-29.69
10.906,-31.46
10.921,-32.85
10.937,-33.47
10.953,-33.01
10.968,-31.22
10.984,-28.06
11.000,-23.64
11.015,-18.27
11.031,-12.43
11.046,-6.61
11.062,-1.27
11.078,3.26
11.093,6.82
11.109,9.4
11.125,11.09
11.140,12.04
11.156,12.45
11.171,12.5
11.187,12.35
11.203,12.07
11.218,11.64
11.234,11.01
11.250,10.13
11.265,9.08
11.281,8.0
11.296,7.12
11.312,6.59
11.328,6.43
11.343,6.5
11.359,6.56
11.375,6.44
11.390,6.07
11.406,5.52
11.421,4.98
11.437,4.52
11.453,4.15
11.468,3.73
11.484,3.15
11.500,2.29
11.515,1.2
11.531,-0.08
11.546,-1.5
11.562,-3.08
11.578,-4.87
11.593,-6.95
11.609,-9.3
11.625,-11.82
11.640,-14.39
11.656,-16.9
11.671,-19.4
11.687,-22.01
11.703,-24.81
11.718,-27.76
11.734,-30.57
11.750,-32.77
11.765,-33.85
11.781,-33.46
11.796,-31.56
11.812,-28.43
11.828,-24.56
11.843,-20.44
11.859,-16.41
11.875,-12.68
11.890,-9.33
11.906,-6.43
11.921,-4.1
11.937,-2.5
11.953,-1.65
11.968,-1.44
11.984,-1.57
12.000,-1.74
12.015,-1.73
12.031,-1.52
12.046,-1.24
12.062,-1.06
12.078,-1.07
12.093,-1.15
12.109,-1.05
12.125,-0.52
12.140,0.57
12.156,2.1
12.171,3.76
12.187,5.14
12.203,5.89
12.218,5.85
12.234,5.05
12.250,3.59
12.265,1.54
12.281,-1.19
12.296,-4.87
12.312,-9.85
12.328,-16.39
12.343,-24.47
12.359,-33.81
12.375,-43.79
12.390,-53.66
12.406,-62.64
12.421,-70.08
12.437,-75.52
12.453,-78.83
12.468,-80.2
12.484,-80.04
12.500,-78.95
12.515,-77.45
12.531,-75.81
12.546,-73.97
12.562,-71.55
12.578,-68.01
12.593,-62.93
12.609,-56.15
12.625,-47.9
12.640,-38.73
12.656,-29.28
12.671,-20.14
12.687,-11.57
12.703,-3.5
12.718,4.42
12.734,12.61
12.750,21.31
12.765,30.39
12.781,39.37
12.796,47.53
12.812,54.15
12.828,58.79
12.843,61.41
12.859,62.35
12.875,62.17
12.890,61.48
12.906,60.76
12.921,60.24
12.937,59.94
12.953,59.57
12.968,58.72
12.984,56.95
13.000,54.03
13.015,50.11
13.031,45.91
13.046,42.79
13.062,42.43
13.078,46.42
13.093,55.66
13.109,70.02
13.125,88.18
13.140,108.07
13.156,127.37
13.171,144.06
13.187,156.77
13.203,164.65
13.218,167.2
13.234,164.12
13.250,155.43
13.265,141.6
13.281,123.88
13.296,104.09
13.312,84.24
13.328,66.08
13.343,50.93
13.359,39.73
13.375,33.31
13.390,32.3
13.406,36.88
13.421,46.38
13.437,59.13
13.453,72.69
13.468,84.52
13.484,92.45
13.500,94.85
13.515,90.5
13.531,78.25
13.546,57.41
13.562,28.39
13.578,-6.45
13.593,-42.73
13.609,-74.82
13.625,-97.54
13.640,-107.8
13.656,-105.57
13.671,-93.76
13.687,-77.1
13.703,-60.53
13.718,-47.81
13.734,-40.83
13.750,-39.46
13.765,-42.26
13.781,-47.21
13.796,-52.41
13.812,-56.56
13.828,-58.95
13.843,-59.27
13.859,-57.37
13.875,-53.13
13.890,-46.56
13.906,-38.08
13.921,-28.49
13.937,-18.88
13.953,-10.21
13.968,-2.84
13.984,3.56
14.000,9.84
14.015,17.06
14.031,25.95
14.046,36.78
14.062,49.16
14.078,62.27
14.093,74.97
14.109,86.13
14.125,94.74
14.140,100.1
14.156,102.06
14.171,101.15
14.187,98.66
14.203,96.39
14.218,96.23
14.234,99.64
14.250,107.18
14.265,118.41
14.281,132.13
14.296,146.89
14.312,161.4
14.328,174.85
14.343,186.82
14.359,197.2
14.375,206.05
14.390,213.6
14.406,220.35
14.421,226.96
14.437,233.96
14.453,241.22
14.468,247.6
14.484,251.12
14.500,249.61
14.515,241.7
14.531,227.44
14.546,208.39
14.562,186.92
14.578,165.2
14.593,144.42
14.609,124.57
14.625,105.01
14.640,85.08
14.656,64.75
14.671,44.44
14.687,24.79
14.703,6.09
14.718,-11.8
14.734,-29.28
14.750,-46.66
14.765,-63.87
14.781,-80.47
14.796,-96.0
14.812,-110.33
14.828,-123.88
14.843,-137.62
14.859,-152.84
14.875,-170.71
14.890,-191.84
14.906,-215.98
14.921,-241.88
14.937,-267.46
14.953,-290.17
14.968,-307.66
14.984,-318.31
15.000,-321.71
15.015,-318.68
15.031,-310.94
15.046,-300.6
15.062,-289.62
15.078,-279.39
15.093,-270.64
15.109,-263.55
15.125,-257.95
15.140,-253.47
15.156,-249.64
15.171,-245.87
15.187,-241.54
15.203,-236.04
15.218,-228.86
15.234,-219.78
15.250,-208.93
15.265,-196.77
15.281,-184.0
15.296,-171.21
15.312,-158.65
15.328,-146.04
15.343,-132.64
15.359,-117.59
15.375,-100.34
15.390,-81.04
15.406,-60.71
15.421,-40.98
15.437,-23.69
15.453,-10.22
15.468,-1.18
15.484,3.65
15.500,5.09
15.515,4.12
15.531,1.64
15.546,-1.61
15.562,-5.08
15.578,-8.34
15.593,-11.05
15.609,-13.18
15.625,-15.08
15.640,-17.46
15.656,-21.19
15.671,-26.87
15.687,-34.55
15.703,-43.54
15.718,-52.53
15.734,-60.0
15.750,-64.63
15.765,-65.71
15.781,-63.43
15.796,-58.75
15.812,-53.11
15.828,-47.83
15.843,-43.61
15.859,-40.24
15.875,-36.7
15.890,-31.71
15.906,-24.32
15.921,-14.33
15.937,-2.28
15.953,10.82
15.968,23.98
15.984,36.54
16.000,48.18
16.015,58.74
16.031,67.99
16.046,75.67
16.062,81.53
16.078,85.5
16.093,87.78
16.109,88.77
16.125,88.91
16.140,88.58
16.156,88.04
16.171,87.39
16.187,86.8
16.203,86.45
16.218,86.51
16.234,86.97
16.250,87.45
16.265,87.23
16.281,85.52
16.296,81.85
16.312,76.49
16.328,70.47
16.343,65.15
16.359,61.49
16.375,59.49
16.390,58.12
16.406,55.83
16.421,51.38
16.437,44.51
16.453,36.01
16.468,27.24
16.484,19.46
16.500,13.42
16.515,9.37
16.531,7.36
16.546,7.43
16.562,9.6
16.578,13.66
16.593,18.88
16.609,24.19
16.625,28.7
16.640,32.24
16.656,35.57
16.671,40.07
16.687,47.09
16.703,57.27
16.718,70.26
16.734,84.64
16.750,98.3
16.765,108.77
16.781,113.64
16.796,111.04
16.812,100.12
16.828,81.46
16.843,57.12
16.859,30.28
16.875,4.25
16.890,-18.35
16.906,-36.25
16.921,-49.46
16.937,-58.76
16.953,-65.09
16.968,-69.19
16.984,-71.58
17.000,-72.76
17.015,-73.27
17.031,-73.63
17.046,-74.08
17.062,-74.45
17.078,-74.25
17.093,-72.93
17.109,-70.18
17.125,-66.05
17.140,-60.9
17.156,-55.11
17.171,-48.83
17.187,-41.98
17.203,-34.37
17.218,-25.85
17.234,-16.51
17.250,-6.75
17.265,2.89
17.281,11.72
17.296,19.11
17.312,24.46
17.328,27.36
17.343,27.64
17.359,25.47
17.375,21.28
17.390,15.6
17.406,8.91
17.421,1.42
17.437,-6.82
17.453,-15.77
17.468,-25.21
17.484,-34.62
17.500,-43.33
17.515,-50.88
17.531,-57.19
17.546,-62.66
17.562,-67.99
17.578,-73.87
17.593,-80.84
17.609,-89.23
17.625,-99.22
17.640,-110.76
17.656,-123.53
17.671,-136.76
17.687,-149.31
17.703,-160.07
17.718,-168.31
17.734,-174.04
17.750,-177.86
17.765,-180.54
17.781,-182.38
17.796,-182.81
17.812,-180.54
17.828,-174.04
17.843,-162.29
17.859,-145.16
17.875,-123.51
17.890,-98.84
17.906,-72.81
17.921,-46.79
17.937,-21.73
17.953,1.81
17.968,23.43
17.984,42.7
18.000,59.12
18.015,72.19
18.031,81.68
18.046,87.81
18.062,91.31
18.078,93.25
18.093,94.6
18.109,95.97
18.125,97.39
18.140,98.56
18.156,99.1
18.171,98.97
18.187,98.58
18.203,98.51
18.218,99.16
18.234,100.39
18.250,101.44
18.265,101.21
18.281,98.65
18.296,93.18
18.312,84.81
18.328,74.07
18.343,61.65
18.359,48.33
18.375,34.79
18.390,21.79
18.406,10.14
18.421,0.75
18.437,-5.67
18.453,-8.76
18.468,-8.64
18.484,-5.74
18.500,-0.43
18.515,7.12
18.531,17.09
18.546,29.59
18.562,44.28
18.578,60.03
18.593,75.02
18.609,87.22
18.625,95.02
18.640,97.79
18.656,95.95
18.671,90.7
18.687,83.5
18.703,75.53
18.718,67.53
18.734,59.84
18.750,52.68
18.765,46.2
18.781,40.62
18.796,35.93
18.812,31.75
18.828,27.4
18.843,22.15
18.859,15.55
18.875,7.79
18.890,-0.29
18.906,-7.54
18.921,-13.0
18.937,-16.48
18.953,-18.79
18.968,-21.6
18.984,-26.77
19.000,-35.53
19.015,-48.0
19.031,-63.12
19.046,-79.19
19.062,-94.53
19.078,-108.21
19.093,-120.15
19.109,-130.94
19.125,-141.26
19.140,-151.43
19.156,-161.09
19.171,-169.3
19.187,-174.87
19.203,-176.7
19.218,-174.16
19.234,-167.16
19.250,-156.23
19.265,-142.34
19.281,-126.69
19.296,-110.41
19.312,-94.32
19.328,-78.9
19.343,-64.4
19.359,-51.0
19.375,-38.98
19.390,-28.68
19.406,-20.39
19.421,-14.13
19.437,-9.58
19.453,-6.07
19.468,-2.79
19.484,0.88
19.500,5.2
19.515,9.81
19.531,13.97
19.546,16.78
19.562,17.61
19.578,16.48
19.593,14.07
19.609,11.58
19.625,10.2
19.640,10.75
19.656,13.31
19.671,17.3
19.687,21.78
19.703,25.79
19.718,28.66
19.734,30.08
19.750,29.98
19.765,28.47
19.781,25.83
19.796,22.54
19.812,19.31
19.828,16.82
19.843,15.57
19.859,15.65
19.875,16.94
19.890,19.42
19.906,23.49
19.921,30.09
19.937,40.31
19.953,54.85
19.968,73.34
19.984,94.19
20.000,114.89
20.015,132.78
20.031,145.89
20.046,153.4
20.062,155.73
20.078,153.96
20.093,149.21
20.109,142.13
20.125,132.76
20.140,120.83
20.156,106.19
20.171,89.25
20.187,71.08
20.203,53.12
20.218,36.64
20.234,22.25
20.250,9.52
20.265,-2.91
20.281,-17.0
20.296,-34.63
20.312,-56.81
20.328,-83.18
20.343,-111.72
20.359,-139.12
20.375,-161.61
20.390,-176.2
20.406,-181.74
20.421,-179.33
20.437,-172.07
20.453,-163.92
20.468,-158.46
20.484,-157.68
20.500,-161.43
20.515,-167.45
20.531,-172.06
20.546,-171.32
20.562,-162.25
20.578,-143.8
20.593,-117.18
20.609,-85.49
20.625,-52.52
20.640,-21.53
20.656,5.58
20.671,28.4
20.687,47.41
20.703,63.16
20.718,76.03
20.734,86.26
20.750,94.57
20.765,102.41
20.781,111.64
20.796,123.73
20.812,139.02
20.828,156.49
20.843,174.3
20.859,190.5
20.875,203.57
20.890,212.59
20.906,217.2
20.921,217.49
20.937,214.0
20.953,207.71
20.968,199.89
20.984,191.68
21.000,183.68
21.015,175.8
21.031,167.46
21.046,158.19
21.062,147.94
21.078,137.17
21.093,126.52
21.109,116.35
21.125,106.57
21.140,96.74
21.156,86.52
21.171,76.0
21.187,65.7
21.203,56.27
21.218,48.22
21.234,41.68
21.250,36.22
21.265,31.03
21.281,25.24
21.296,18.26
21.312,9.98
21.328,0.82
21.343,-8.51
21.359,-17.34
21.375,-25.25
21.390,-32.13
21.406,-38.12
21.421,-43.36
21.437,-47.79
21.453,-51.18
21.468,-53.17
21.484,-53.43
21.500,-51.8
21.515,-48.35
21.531,-43.43
21.546,-37.52
21.562,-31.22
21.578,-25.05
21.593,-19.42
21.609,-14.55
21.625,-10.54
21.640,-7.31
21.656,-4.71
21.671,-2.52
21.687,-0.43
21.703,1.91
21.718,4.77
21.734,8.19
21.750,11.9
21.765,15.35
21.781,17.94
21.796,19.17
21.812,18.86
21.828,17.19
21.843,14.52
21.859,11.26
21.875,7.65
21.890,3.72
21.906,-0.59
21.921,-5.32
21.937,-10.41
21.953,-15.69
21.968,-20.88
21.984,-25.82
22.000,-30.39
22.015,-34.6
22.031,-38.54
22.046,-42.22
22.062,-45.59
22.078,-48.54
22.093,-50.87
22.109,-52.45
22.125,-53.21
22.140,-53.19
22.156,-52.42
22.171,-50.92
22.187,-48.66
22.203,-45.59
22.218,-41.79
22.234,-37.46
22.250,-32.97
22.265,-28.73
22.281,-25.06
22.296,-22.04
22.312,-19.55
22.328,-17.36
22.343,-15.2
22.359,-12.97
22.375,-10.59
22.390,-8.12
22.406,-5.62
22.421,-3.19
22.437,-0.93
22.453,1.0
22.468,2.55
22.484,3.75
22.500,4.71
22.515,5.63
22.531,6.61
22.546,7.66
22.562,8.64
22.578,9.4
22.593,9.8
22.609,9.87
22.625,9.69
22.640,9.38
22.656,9.03
22.671,8.66
22.687,8.24
22.703,7.72
22.718,7.01
22.734,5.98
22.750,4.52
22.765,2.61
22.781,0.33
22.796,-2.03
22.812,-4.16
22.828,-5.79
22.843,-6.83
22.859,-7.34
22.875,-7.47
22.890,-7.28
22.906,-6.76
22.921,-5.81
22.937,-4.36
22.953,-2.46
22.968,-0.31
22.984,1.85
23.000,3.82
23.015,5.45
23.031,6.71
23.046,7.63
23.062,8.23
23.078,8.56
23.093,8.68
23.109,8.69
23.125,8.7
23.140,8.8
23.156,8.96
23.171,9.06
23.187,8.94
23.203,8.47
23.218,7.61
23.234,6.47
23.250,5.22
23.265,4.04
23.281,3.0
23.296,2.09
23.312,1.2
23.328,0.2
23.343,-1.01
23.359,-2.49
23.375,-4.22
23.390,-6.17
23.406,-8.25
23.421,-10.34
23.437,-12.31
23.453,-14.01
23.468,-15.29
23.484,-16.02
23.500,-16.11
23.515,-15.48
23.531,-14.05
23.546,-11.8
23.562,-8.79
23.578,-5.17
23.593,-1.18
23.609,2.89
23.625,6.78
23.640,10.15
23.656,12.62
23.671,13.85
23.687,13.73
23.703,12.52
23.718,10.97
23.734,10.11
23.750,10.88
23.765,13.75
23.781,18.48
23.796,24.23
23.812,29.9
23.828,34.56
23.843,37.66
23.859,39.01
23.875,38.6
23.890,36.44
23.906,32.53
23.921,27.0
23.937,20.23
23.953,12.83
23.968,5.58
23.984,-0.8
24.000,-5.85
24.015,-9.45
24.031,-11.8
24.046,-13.3
24.062,-14.45
24.078,-15.66
24.093,-17.18
24.109,-19.1
24.125,-21.3
24.140,-23.6
24.156,-25.77
24.171,-27.61
24.187,-29.02
24.203,-29.91
24.218,-30.19
24.234,-29.72
24.250,-28.41
24.265,-26.25
24.281,-23.3
24.296,-19.84
24.312,-16.16
24.328,-12.54
24.343,-9.18
24.359,-6.16
24.375,-3.53
24.390,-1.35
24.406,0.34
24.421,1.55
24.437,2.39
24.453,3.11
24.468,3.97
24.484,5.1
24.500,6.43
24.515,7.75
24.531,8.82
24.546,9.56
24.562,10.09
24.578,10.67
24.593,11.49
24.609,12.5
24.625,13.48
24.640,14.05
24.656,13.96
24.671,13.23
24.687,12.12
24.703,10.96
24.718,10.01
24.734,9.28
24.750,8.6
24.765,7.69
24.781,6.33
24.796,4.48
24.812,2.23
24.828,-0.29
24.843,-2.91
24.859,-5.55
24.875,-8.17
24.890,-10.81
24.906,-13.47
24.921,-16.1
24.937,-18.59
24.953,-20.79
24.968,-22.53
24.984,-23.67
25.000,-24.11
25.015,-23.79
25.031,-22.64
25.046,-20.67
25.062,-17.92
25.078,-14.6
25.093,-10.97
25.109,-7.35
25.125,-3.99
25.140,-0.97
25.156,1.78
25.171,4.34
25.187,6.74
25.203,8.95
25.218,10.88
25.234,12.5
25.250,13.88
25.265,15.12
25.281,16.27
25.296,17.28
25.312,18.05
25.328,18.47
25.343,18.54
25.359,18.35
25.375,18.09
25.390,17.91
25.406,17.82
25.421,17.76
25.437,17.56
25.453,17.06
25.468,16.16
25.484,14.91
25.500,13.43
25.515,11.91
25.531,10.5
25.546,9.23
25.562,8.01
25.578,6.72
25.593,5.26
25.609,3.61
25.625,1.83
25.640,-0.02
25.656,-1.93
25.671,-3.94
25.687,-6.12
25.703,-8.43
25.718,-10.8
25.734,-13.13
25.750,-15.4
25.765,-17.61
25.781,-19.8
25.796,-21.93
25.812,-23.83
25.828,-25.25
25.843,-25.85
25.859,-25.39
25.875,-23.81
25.890,-21.23
25.906,-17.98
25.921,-14.43
25.937,-10.94
25.953,-7.71
25.968,-4.78
25.984,-2.1
26.000,0.4
26.015,2.69
26.031,4.65
26.046,6.17
26.062,7.18
26.078,7.77
26.093,8.13
26.109,8.47
26.125,8.93
26.140,9.51
26.156,10.15
26.171,10.76
26.187,11.28
26.203,11.68
26.218,11.95
26.234,12.07
26.250,11.99
26.265,11.65
26.281,10.98
26.296,9.88
26.312,8.32
26.328,6.3
26.343,3.9
26.359,1.28
26.375,-1.33
26.390,-3.76
26.406,-5.92
26.421,-7.84
26.437,-9.66
26.453,-11.61
26.468,-13.82
26.484,-16.32
26.500,-19.06
26.515,-21.86
26.531,-24.57
26.546,-27.01
26.562,-28.99
26.578,-30.33
26.593,-30.84
26.609,-30.36
26.625,-28.85
26.640,-26.41
26.656,-23.34
26.671,-20.0
26.687,-16.73
26.703,-13.72
26.718,-10.98
26.734,-8.35
26.750,-5.71
26.765,-3.05
26.781,-0.57
26.796,1.41
26.812,2.62
26.828,3.02
26.843,2.83
26.859,2.49
26.875,2.4
26.890,2.83
26.906,3.68
26.921,4.64
26.937,5.29
26.953,5.27
26.968,4.43
26.984,2.92
27.000,1.02
27.015,-0.87
27.031,-2.52
27.046,-3.84
27.062,-4.94
27.078,-6.05
27.093,-7.41
27.109,-9.25
27.125,-11.76
27.140,-15.12
27.156,-19.38
27.171,-24.4
27.187,-29.69
27.203,-34.5
27.218,-38.02
27.234,-39.81
27.250,-39.99
27.265,-39.13
27.281,-37.89
27.296,-36.52
27.312,-34.63
27.328,-31.38
27.343,-25.99
27.359,-18.27
27.375,-8.82
27.390,1.14
27.406,10.39
27.421,18.18
27.437,24.44
27.453,29.59
27.468,34.13
27.484,38.27
27.500,41.9
27.515,44.66
27.531,46.31
27.546,46.88
27.562,46.81
27.578,46.71
27.593,47.2
27.609,48.66
27.625,51.0
27.640,53.79
27.656,56.36
27.671,58.04
27.687,58.28
27.703,56.77
27.718,53.33
27.734,47.8
27.750,39.99
27.765,29.74
27.781,17.01
27.796,2.11
27.812,-14.26
27.828,-31.12
27.843,-47.36
27.859,-62.09
27.875,-74.74
27.890,-85.21
27.906,-93.71
27.921,-100.6
27.937,-106.21
27.953,-110.74
27.968,-114.37
27.984,-117.3
28.000,-119.87
28.015,-122.37
28.031,-124.92
28.046,-127.22
28.062,-128.48
28.078,-127.65
28.093,-123.79
28.109,-116.44
28.125,-105.73
28.140,-92.4
28.156,-77.43
28.171,-61.8
28.187,-46.21
28.203,-31.07
28.218,-16.71
28.234,-3.53
28.250,7.87
28.265,16.75
28.281,22.42
28.296,24.44
28.312,22.88
28.328,18.31
28.343,11.77
28.359,4.55
28.375,-2.07
28.390,-7.04
28.406,-9.78
28.421,-10.37
28.437,-9.5
28.453,-8.36
28.468,-8.22
28.484,-9.97
28.500,-13.77
28.515,-18.95
28.531,-24.31
28.546,-28.62
28.562,-31.1
28.578,-31.55
28.593,-30.2
28.609,-27.36
28.625,-23.05
28.640,-17.08
28.656,-9.35
28.671,-0.18
28.687,9.54
28.703,18.44
28.718,25.15
28.734,28.65
28.750,28.69
28.765,25.69
28.781,20.62
28.796,14.67
28.812,8.97
28.828,4.46
28.843,1.87
28.859,1.65
28.875,4.0
28.890,8.85
28.906,15.79
28.921,24.17
28.937,33.16
28.953,42.01
28.968,50.23
28.984,57.65
29.000,64.32
29.015,70.27
29.031,75.33
29.046,79.1
29.062,81.09
29.078,81.02
29.093,79.03
29.109,75.61
29.125,71.5
29.140,67.41
29.156,63.85
29.171,61.13
29.187,59.37
29.203,58.55
29.218,58.57
29.234,59.16
29.250,59.94
29.265,60.51
29.281,60.56
29.296,59.98
29.312,58.85
29.328,57.4
29.343,55.9
29.359,54.48
29.375,53.21
29.390,52.03
29.406,50.8
29.421,49.4
29.437,47.74
29.453,45.8
29.468,43.64
29.484,41.4
29.500,39.25
29.515,37.34
29.531,35.82
29.546,34.76
29.562,34.1
29.578,33.7
29.593,33.43
29.609,33.17
29.625,32.88
29.640,32.57
29.656,32.22
29.671,31.75
29.687,31.01
29.703,29.84
29.718,28.14
29.734,25.97
29.750,23.49
29.765,20.89
29.781,18.34
29.796,15.85
29.812,13.4
29.828,10.92
29.843,8.4
29.859,5.9
29.875,3.48
29.890,1.19
29.906,-0.99
29.921,-3.14
29.937,-5.39
29.953,-7.88
29.968,-10.71
29.984,-13.86
30.000,-17.14
30.015,-20.25
30.031,-22.91
30.046,-24.95
30.062,-26.45
30.078,-27.72
30.093,-29.19
30.109,-31.25
30.125,-34.11
30.140,-37.66
30.156,-41.59
30.171,-45.52
30.187,-49.19
30.203,-52.52
30.218,-55.72
30.234,-59.14
30.250,-63.18
30.265,-68.14
30.281,-73.94
30.296,-79.92
30.312,-84.89
30.328,-87.33
30.343,-85.87
30.359,-79.81
30.375,-69.42
30.390,-55.92
30.406,-41.15
30.421,-27.03
30.437,-15.04
30.453,-5.93
30.468,0.4
30.484,4.58
30.500,7.54
30.515,10.2
30.531,13.21
30.546,16.89
30.562,21.18
30.578,25.77
30.593,30.24
30.609,34.3
30.625,37.77
30.640,40.7
30.656,43.22
30.671,45.44
30.687,47.41
30.703,49.14
30.718,50.65
30.734,52.03
30.750,53.51
30.765,55.3
30.781,57.5
30.796,59.98
30.812,62.3
30.828,63.83
30.843,64.08
30.859,62.83
30.875,60.29
30.890,56.92
30.906,53.26
30.921,49.6
30.937,45.92
30.953,41.87
30.968,37.05
30.984,31.11
31.000,23.89
31.015,15.45
31.031,6.03
31.046,-3.98
31.062,-13.92
31.078,-22.77
31.093,-29.21
31.109,-31.74
31.125,-29.21
31.140,-21.53
31.156,-10.28
31.171,1.26
31.187,8.98
31.203,9.38
31.218,1.03
31.234,-15.17
31.250,-36.73
31.265,-61.07
31.281,-86.5
31.296,-112.13
31.312,-136.67
31.328,-157.33
31.343,-169.8
31.359,-169.68
31.375,-154.78
31.390,-126.69
31.406,-90.63
31.421,-53.44
31.437,-20.9
31.453,4.06
31.468,21.6
31.484,33.52
31.500,41.51
31.515,46.12
31.531,46.92
31.546,43.47
31.562,36.28
31.578,27.08
31.593,18.12
31.609,11.19
31.625,6.65
31.640,3.39
31.656,-0.47
31.671,-6.44
31.687,-14.72
31.703,-24.15
31.718,-32.7
31.734,-38.52
31.750,-40.74
31.765,-39.64
31.781,-36.28
31.796,-31.88
31.812,-27.26
31.828,-22.75
31.843,-18.3
31.859,-13.68
31.875,-8.77
31.890,-3.5
31.906,2.08
31.921,7.87
31.937,13.71
31.953,19.24
31.968,23.99
31.984,27.48
32.000,29.39
32.015,29.67
32.031,28.6
32.046,26.64
32.062,24.32
32.078,22.14
32.093,20.45
32.109,19.43
32.125,19.03
32.140,19.09
32.156,19.35
32.171,19.62
32.187,19.72
32.203,19.58
32.218,19.17
32.234,18.55
32.250,17.94
32.265,17.72
32.281,18.42
32.296,20.55
32.312,24.43
32.328,29.92
32.343,36.35
32.359,42.73
32.375,47.89
32.390,50.94
32.406,51.5
32.421,49.73
32.437,46.23
32.453,41.88
32.468,37.57
32.484,34.18
32.500,32.55
32.515,33.31
32.531,36.65
32.546,42.15
32.562,48.72
32.578,54.89
32.593,59.35
32.609,61.45
32.625,61.39
32.640,59.95
32.656,58.0
32.671,56.03
32.687,54.07
32.703,51.97
32.718,49.68
32.734,47.37
32.750,45.13
32.765,42.75
32.781,39.69
32.796,35.27
32.812,29.13
32.828,21.5
32.843,13.12
32.859,4.96
32.875,-2.13
32.890,-7.66
32.906,-11.54
32.921,-14.11
32.937,-16.14
32.953,-18.66
32.968,-22.72
32.984,-28.93
33.000,-37.16
33.015,-46.43
33.031,-55.28
33.046,-62.36
33.062,-67.03
33.078,-69.48
33.093,-70.49
33.109,-71.0
33.125,-71.76
33.140,-73.26
33.156,-75.73
33.171,-79.28
33.187,-83.69
33.203,-88.21
33.218,-91.59
33.234,-92.3
33.250,-89.08
33.265,-81.44
33.281,-69.95
33.296,-56.06
33.312,-41.67
33.328,-28.42
33.343,-17.21
33.359,-8.12
33.375,-0.71
33.390,5.52
33.406,10.76
33.421,14.9
33.437,17.75
33.453,19.4
33.468,20.36
33.484,21.35
33.500,23.0
33.515,25.41
33.531,28.15
33.546,30.51
33.562,31.91
33.578,32.28
33.593,32.06
33.609,31.78
33.625,31.74
33.640,31.68
33.656,31.06
33.671,29.34
33.687,26.39
33.703,22.68
33.718,19.1
33.734,16.64
33.750,15.89
33.765,16.84
33.781,18.93
33.796,21.36
33.812,23.51
33.828,25.22
33.843,26.78
33.859,28.8
33.875,31.98
33.890,36.98
33.906,44.44
33.921,55.03
33.937,69.41
33.953,87.92
33.968,110.27
33.984,135.13
34.000,160.34
34.015,183.35
34.031,201.98
34.046,214.87
34.062,221.58
34.078,222.08
34.093,216.04
34.109,202.6
34.125,180.6
34.140,149.47
34.156,110.07
34.171,65.05
34.187,18.19
34.203,-26.62
34.218,-66.59
34.234,-100.47
34.250,-128.25
34.265,-150.32
34.281,-166.66
34.296,-176.73
34.312,-179.92
34.328,-176.25
34.343,-166.9
34.359,-154.08
34.375,-140.31
34.390,-127.58
34.406,-116.84
34.421,-107.95
34.437,-100.13
34.453,-92.62
34.468,-85.13
34.484,-77.93
34.500,-71.62
34.515,-66.8
34.531,-63.72
34.546,-62.3
34.562,-62.25
34.578,-63.26
34.593,-65.15
34.609,-67.74
34.625,-70.75
34.640,-73.7
34.656,-75.85
34.671,-76.35
34.687,-74.52
34.703,-70.05
34.718,-63.15
34.734,-54.45
34.750,-44.76
34.765,-34.86
34.781,-25.31
34.796,-16.44
34.812,-8.42
34.828,-1.37
34.843,4.57
34.859,9.32
34.875,12.92
34.890,15.59
34.906,17.67
34.921,19.58
34.937,21.56
34.953,23.72
34.968,25.96
34.984,28.08
35.000,29.79
35.015,30.9
35.031,31.16
35.046,30.33
35.062,28.25
35.078,24.88
35.093,20.4
35.109,15.28
35.125,10.14
35.140,5.68
35.156,2.56
35.171,1.25
35.187,2.09
35.203,5.31
35.218,10.95
35.234,18.79
35.250,28.33
35.265,38.8
35.281,49.26
35.296,58.86
35.312,66.92
35.328,73.04
35.343,77.11
35.359,79.17
35.375,79.46
35.390,78.24
35.406,75.73
35.421,71.97
35.437,66.83
35.453,60.01
35.468,51.25
35.484,40.37
35.500,27.28
35.515,11.95
35.531,-5.56
35.546,-24.92
35.562,-45.31
35.578,-65.3
35.593,-83.07
35.609,-96.91
35.625,-105.83
35.640,-109.81
35.656,-109.56
35.671,-106.13
35.687,-100.25
35.703,-92.19
35.718,-81.85
35.734,-69.23
35.750,-54.69
35.765,-38.94
35.781,-22.87
35.796,-7.19
35.812,7.51
35.828,20.68
35.843,31.58
35.859,39.26
35.875,42.77
35.890,41.53
35.906,35.64
35.921,25.97
35.937,14.02
35.953,1.44
35.968,-10.29
35.984,-20.24
36.000,-28.0
36.015,-33.62
36.031,-37.35
36.046,-39.47
36.062,-40.24
36.078,-39.83
36.093,-38.36
36.109,-35.81
36.125,-32.09
36.140,-26.99
36.156,-20.28
36.171,-11.89
36.187,-1.94
36.203,9.14
36.218,20.77
36.234,32.33
36.250,43.33
36.265,53.43
36.281,62.36
36.296,69.95
36.312,76.02
36.328,80.45
36.343,83.25
36.359,84.5
36.375,84.34
36.390,82.98
36.406,80.63
36.421,77.56
36.437,74.16
36.453,70.86
36.468,68.09
36.484,66.09
36.500,64.93
36.515,64.47
36.531,64.48
36.546,64.69
36.562,64.76
36.578,64.28
36.593,62.76
36.609,59.72
36.625,54.77
36.640,47.74
36.656,38.77
36.671,28.28
36.687,16.89
36.703,5.27
36.718,-5.94
36.734,-16.3
36.750,-25.69
36.765,-34.4
36.781,-43.11
36.796,-52.71
36.812,-64.03
36.828,-77.45
36.843,-92.73
36.859,-108.9
36.875,-124.5
36.890,-137.9
36.906,-147.82
36.921,-153.62
36.937,-155.38
36.953,-153.73
36.968,-149.44
36.984,-143.18
37.000,-135.32
37.015,-126.14
37.031,-116.08
37.046,-105.93
37.062,-96.71
37.078,-89.26
37.093,-83.8
37.109,-79.64
37.125,-75.31
37.140,-69.09
37.156,-59.61
37.171,-46.41
37.187,-29.95
37.203,-11.46
37.218,7.5
37.234,25.46
37.250,41.25
37.265,54.11
37.281,63.6
37.296,69.6
37.312,72.19
37.328,71.68
37.343,68.58
37.359,63.55
37.375,57.33
37.390,50.62
37.406,43.98
37.421,37.72
37.437,31.92
37.453,26.38
37.468,20.79
37.484,14.8
37.500,8.17
37.515,0.87
37.531,-6.93
37.546,-14.93
37.562,-22.79
37.578,-30.22
37.593,-37.02
37.609,-42.9
37.625,-47.46
37.640,-50.21
37.656,-50.62
37.671,-48.44
37.687,-43.72
37.703,-37.0
37.718,-29.06
37.734,-20.67
37.750,-12.39
37.765,-4.48
37.781,3.02
37.796,10.14
37.812,16.77
37.828,22.67
37.843,27.56
37.859,31.3
37.875,33.93
37.890,35.75
37.906,37.12
37.921,38.34
37.937,39.52
37.953,40.63
37.968,41.56
37.984,42.32
38.000,43.07
38.015,44.14
38.031,45.88
38.046,48.43
38.062,51.61
38.078,54.96
38.093,57.84
38.109,59.76
38.125,60.63
38.140,60.81
38.156,61.02
38.171,62.09
38.187,64.56
38.203,68.5
38.218,73.37
38.234,78.3
38.250,82.45
38.265,85.4
38.281,87.29
38.296,88.8
38.312,90.91
38.328,94.42
38.343,99.73
38.359,106.57
38.375,113.98
38.390,120.56
38.406,124.79
38.421,125.53
38.437,122.53
38.453,116.5
38.468,108.87
38.484,101.23
38.500,94.65
38.515,89.38
38.531,84.92
38.546,80.62
38.562,76.27
38.578,72.42
38.593,70.08
38.609,70.51
38.625,74.61
38.640,82.68
38.656,94.14
38.671,107.15
38.687,118.35
38.703,123.11
38.718,116.8
38.734,96.65
38.750,63.54
38.765,22.42
38.781,-19.28
38.796,-54.42
38.812,-78.95
38.828,-93.03
38.843,-99.95
38.859,-103.75
38.875,-107.07
38.890,-110.34
38.906,-112.72
38.921,-113.72
38.937,-114.18
38.953,-116.09
38.968,-121.32
38.984,-130.39
39.000,-141.9
39.015,-153.03
39.031,-160.73
39.046,-162.94
39.062,-159.14
39.078,-150.26
39.093,-138.29
39.109,-125.31
39.125,-112.96
39.140,-101.97
39.156,-92.22
39.171,-83.01
39.187,-73.59
39.203,-63.62
39.218,-53.37
39.234,-43.6
39.250,-35.25
39.265,-29.02
39.281,-25.11
39.296,-23.19
39.312,-22.57
39.328,-22.56
39.343,-22.61
39.359,-22.47
39.375,-22.1
39.390,-21.47
39.406,-20.46
39.421,-18.88
39.437,-16.59
39.453,-13.66
39.468,-10.46
39.484,-7.67
39.500,-5.99
39.515,-5.98
39.531,-7.81
39.546,-11.16
39.562,-15.35
39.578,-19.54
39.593,-22.96
39.609,-25.19
39.625,-26.27
39.640,-26.63
39.656,-26.92
39.671,-27.74
39.687,-29.38
39.703,-31.74
39.718,-34.27
39.734,-36.19
39.750,-36.7
39.765,-35.22
39.781,-31.53
39.796,-25.83
39.812,-18.51
39.828,-10.05
39.843,-0.88
39.859,8.67
39.875,18.16
39.890,26.95
39.906,34.2
39.921,39.09
39.937,41.06
39.953,40.12
39.968,36.78
39.984,31.86
40.000,26.16
40.015,20.2
40.031,14.21
40.046,8.21
40.062,2.27
40.078,-3.42
40.093,-8.44
40.109,-12.34
40.125,-14.69
40.140,-15.22
40.156,-13.83
40.171,-10.6
40.187,-5.74
40.203,0.39
40.218,7.26
40.234,14.23
40.250,20.63
40.265,25.94
40.281,29.83
40.296,32.16
40.312,32.98
40.328,32.38
40.343,30.49
40.359,27.52
40.375,23.87
40.390,20.14
40.406,16.97
40.421,14.76
40.437,13.51
40.453,12.75
40.468,11.82
40.484,10.27
40.500,8.02
40.515,5.46
40.531,3.06
40.546,1.0
40.562,-0.95
40.578,-3.46
40.593,-7.22
40.609,-12.61
40.625,-19.5
40.640,-27.32
40.656,-35.34
40.671,-42.94
40.687,-49.68
40.703,-55.37
40.718,-59.88
40.734,-63.16
40.750,-65.28
40.765,-66.52
40.781,-67.46
40.796,-68.83
40.812,-71.28
40.828,-75.15
40.843,-80.26
40.859,-86.0
40.875,-91.49
40.890,-95.86
40.906,-98.5
40.921,-99.17
40.937,-97.96
40.953,-95.23
40.968,-91.62
40.984,-87.98
41.000,-85.26
41.015,-84.24
41.031,-85.19
41.046,-87.58
41.062,-90.07
41.078,-90.91
41.093,-88.52
41.109,-82.08
41.125,-71.76
41.140,-58.64
41.156,-44.13
41.171,-29.57
41.187,-15.75
41.203,-3.05
41.218,8.44
41.234,18.59
41.250,27.17
41.265,33.98
41.281,38.99
41.296,42.42
41.312,44.72
41.328,46.37
41.343,47.79
41.359,49.19
41.375,50.59
41.390,51.92
41.406,53.08
41.421,54.07
41.437,54.92
41.453,55.78
41.468,56.71
41.484,57.71
41.500,58.63
41.515,59.17
41.531,59.0
41.546,57.87
41.562,55.78
41.578,52.89
41.593,49.59
41.609,46.19
41.625,42.88
41.640,39.59
41.656,36.09
41.671,32.12
41.687,27.59
41.703,22.7
41.718,17.97
41.734,14.13
41.750,11.89
41.765,11.77
41.781,13.92
41.796,18.15
41.812,23.97
41.828,30.72
41.843,37.75
41.859,44.43
41.875,50.2
41.890,54.59
41.906,57.22
41.921,57.89
41.937,56.58
41.953,53.56
41.968,49.27
41.984,44.3
42.000,39.27
42.015,34.7
42.031,30.96
42.046,28.13
42.062,26.11
42.078,24.6
42.093,23.27
42.109,21.81
42.125,20.08
42.140,18.08
42.156,15.92
42.171,13.74
42.187,11.62
42.203,9.57
42.218,7.51
42.234,5.33
42.250,2.95
42.265,0.36
42.281,-2.38
42.296,-5.13
42.312,-7.81
42.328,-10.4
42.343,-13.0
42.359,-15.86
42.375,-19.23
42.390,-23.33
42.406,-28.14
42.421,-33.35
42.437,-38.33
42.453,-42.25
42.468,-44.22
42.484,-43.64
42.500,-40.34
42.515,-34.62
42.531,-27.21
42.546,-18.95
42.562,-10.6
42.578,-2.65
42.593,4.62
42.609,11.13
42.625,16.77
42.640,21.35
42.656,24.65
42.671,26.51
42.687,26.94
42.703,26.17
42.718,24.55
42.734,22.46
42.750,20.2
42.765,17.94
42.781,15.74
42.796,13.69
42.812,11.91
42.828,10.54
42.843,9.71
42.859,9.39
42.875,9.36
42.890,9.25
42.906,8.67
42.921,7.34
42.937,5.18
42.953,2.29
42.968,-1.09
42.984,-4.78
43.000,-8.6
43.015,-12.51
43.031,-16.48
43.046,-20.53
43.062,-24.68
43.078,-28.93
43.093,-33.28
43.109,-37.67
43.125,-41.89
43.140,-45.53
43.156,-48.01
43.171,-48.66
43.187,-46.96
43.203,-42.73
43.218,-36.28
43.234,-28.33
43.250,-19.81
43.265,-11.56
43.281,-4.15
43.296,2.24
43.312,7.64
43.328,12.16
43.343,15.79
43.359,18.48
43.375,20.17
43.390,20.95
43.406,21.03
43.421,20.7
43.437,20.21
43.453,19.69
43.468,19.18
43.484,18.7
43.500,18.26
43.515,17.85
43.531,17.43
43.546,16.88
43.562,16.05
43.578,14.82
43.593,13.17
43.609,11.2
43.625,9.02
43.640,6.71
43.656,4.26
43.671,1.63
43.687,-1.17
43.703,-4.07
43.718,-6.92
43.734,-9.66
43.750,-12.29
43.765,-15.01
43.781,-18.04
43.796,-21.57
43.812,-25.66
43.828,-30.12
43.843,-34.56
43.859,-38.43
43.875,-41.11
43.890,-42.06
43.906,-40.91
43.921,-37.58
43.937,-32.28
43.953,-25.51
43.968,-17.9
43.984,-10.05
44.000,-2.42
44.015,4.71
44.031,11.16
44.046,16.85
44.062,21.63
44.078,25.37
44.093,27.95
44.109,29.43
44.125,30.02
44.140,30.05
44.156,29.86
44.171,29.72
44.187,29.8
44.203,30.14
44.218,30.66
44.234,31.2
44.250,31.53
44.265,31.45
44.281,30.83
44.296,29.67
44.312,28.14
44.328,26.41
44.343,24.63
44.359,22.82
44.375,20.88
44.390,18.7
44.406,16.23
44.421,13.51
44.437,10.68
44.453,7.96
44.468,5.58
44.484,3.81
44.500,2.94
44.515,3.19
44.531,4.68
44.546,7.26
44.562,10.63
44.578,14.36
44.593,18.1
44.609,21.66
44.625,24.97
44.640,28.07
44.656,30.95
44.671,33.54
44.687,35.72
44.703,37.41
44.718,38.56
44.734,39.18
44.750,39.29
44.765,38.88
44.781,37.96
44.796,36.62
44.812,35.02
44.828,33.41
44.843,32.05
44.859,31.06
44.875,30.42
44.890,30.05
44.906,29.86
44.921,29.83
44.937,29.97
44.953,30.26
44.968,30.55
44.984,30.6
45.000,30.16
45.015,29.09
45.031,27.4
45.046,25.21
45.062,22.63
45.078,19.65
45.093,16.24
45.109,12.31
45.125,7.97
45.140,3.41
45.156,-0.99
45.171,-5.03
45.187,-8.56
45.203,-11.67
45.218,-14.52
45.234,-17.26
45.250,-19.99
45.265,-22.73
45.281,-25.42
45.296,-27.98
45.312,-30.37
45.328,-32.57
45.343,-34.61
45.359,-36.57
45.375,-38.62
45.390,-40.99
45.406,-43.94
45.421,-47.68
45.437,-52.31
45.453,-57.77
45.468,-63.74
45.484,-69.67
45.500,-74.92
45.515,-78.91
45.531,-81.32
45.546,-82.25
45.562,-82.15
45.578,-81.63
45.593,-81.14
45.609,-80.72
45.625,-79.98
45.640,-78.23
45.656,-74.8
45.671,-69.38
45.687,-62.16
45.703,-53.69
45.718,-44.75
45.734,-36.02
45.750,-27.96
45.765,-20.8
45.781,-14.64
45.796,-9.53
45.812,-5.54
45.828,-2.7
45.843,-0.92
45.859,0.07
45.875,0.64
45.890,1.17
45.906,1.88
45.921,2.72
45.937,3.42
45.953,3.65
45.968,3.21
45.984,2.14
46.000,0.82
46.015,-0.32
46.031,-0.88
46.046,-0.79
46.062,-0.32
46.078,0.08
46.093,-0.1
46.109,-1.15
46.125,-3.11
46.140,-5.66
46.156,-8.37
46.171,-10.7
46.187,-12.25
46.203,-12.85
46.218,-12.83
46.234,-12.97
46.250,-14.5
46.265,-18.65
46.281,-26.21
46.296,-37.13
46.312,-50.33
46.328,-63.88
46.343,-75.46
46.359,-82.91
46.375,-84.72
46.390,-80.42
46.406,-70.54
46.421,-56.52
46.437,-40.37
46.453,-24.23
46.468,-9.94
46.484,1.27
46.500,9.06
46.515,13.86
46.531,16.63
46.546,18.49
46.562,20.35
46.578,22.75
46.593,25.8
46.609,29.3
46.625,32.86
46.640,36.12
46.656,38.81
46.671,40.9
46.687,42.46
46.703,43.71
46.718,44.83
46.734,45.92
46.750,46.92
46.765,47.6
46.781,47.69
46.796,46.97
46.812,45.38
46.828,43.06
46.843,40.34
46.859,37.69
46.875,35.55
46.890,34.26
46.906,33.96
46.921,34.53
46.937,35.46
46.953,36.07
46.968,35.6
46.984,33.56
47.000,29.91
47.015,25.15
47.031,20.13
47.046,15.72
47.062,12.46
47.078,10.35
47.093,8.87
47.109,7.26
47.125,4.86
47.140,1.39
47.156,-2.88
47.171,-7.17
47.187,-10.46
47.203,-11.79
47.218,-10.56
47.234,-6.77
47.250,-0.97
47.265,5.86
47.281,12.66
47.296,18.54
47.312,22.98
47.328,25.95
47.343,27.69
47.359,28.6
47.375,29.05
47.390,29.29
47.406,29.47
47.421,29.69
47.437,29.96
47.453,30.24
47.468,30.43
47.484,30.4
47.500,30.12
47.515,29.64
47.531,29.18
47.546,28.96
47.562,29.16
47.578,29.7
47.593,30.33
47.609,30.68
47.625,30.41
47.640,29.39
47.656,27.68
47.671,25.4
47.687,22.72
47.703,19.7
47.718,16.38
47.734,12.76
47.750,8.9
47.765,4.92
47.781,0.98
47.796,-2.76
47.812,-6.23
47.828,-9.49
47.843,-12.72
47.859,-16.23
47.875,-20.29
47.890,-25.08
47.906,-30.45
47.921,-35.94
47.937,-40.81
47.953,-44.29
47.968,-45.76
47.984,-44.97
48.000,-42.11
48.015,-37.65
48.031,-32.21
48.046,-26.35
48.062,-20.53
48.078,-15.07
48.093,-10.2
48.109,-6.08
48.125,-2.83
48.140,-0.48
48.156,1.04
48.171,1.91
48.187,2.35
48.203,2.53
48.218,2.52
48.234,2.32
48.250,1.93
48.265,1.47
48.281,1.11
48.296,1.08
48.312,1.53
48.328,2.49
48.343,3.84
48.359,5.36
48.375,6.86
48.390,8.19
48.406,9.24
48.421,9.86
48.437,9.92
48.453,9.25
48.468,7.82
48.484,5.74
48.500,3.25
48.515,0.6
48.531,-2.06
48.546,-4.8
48.562,-7.88
48.578,-11.57
48.593,-16.11
48.609,-21.55
48.625,-27.77
48.640,-34.48
48.656,-41.3
48.671,-47.73
48.687,-53.18
48.703,-56.97
48.718,-58.49
48.734,-57.35
48.750,-53.57
48.765,-47.6
48.781,-40.22
48.796,-32.3
48.812,-24.54
48.828,-17.31
48.843,-10.73
48.859,-4.77
48.875,0.56
48.890,5.16
48.906,8.86
48.921,11.57
48.937,13.33
48.953,14.31
48.968,14.8
48.984,15.1
49.000,15.45
49.015,16.04
49.031,16.95
49.046,18.19
49.062,19.65
49.078,21.16
49.093,22.44
49.109,23.26
49.125,23.47
49.140,23.13
49.156,22.43
49.171,21.63
49.187,20.91
49.203,20.27
49.218,19.51
49.234,18.34
49.250,16.53
49.265,13.97
49.281,10.78
49.296,7.25
49.312,3.69
49.328,0.36
49.343,-2.61
49.359,-5.24
49.375,-7.7
49.390,-10.18
49.406,-12.94
49.421,-16.18
49.437,-19.91
49.453,-23.9
49.468,-27.62
49.484,-30.34
49.500,-31.37
49.515,-30.26
49.531,-26.95
49.546,-21.79
49.562,-15.42
49.578,-8.53
49.593,-1.76
49.609,4.54
49.625,10.22
49.640,15.29
49.656,19.87
49.671,24.05
49.687,27.8
49.703,31.02
49.718,33.5
49.734,35.1
49.750,35.82
49.765,35.91
49.781,35.75
49.796,35.74
49.812,36.12
49.828,36.85
49.843,37.7
49.859,38.34
49.875,38.57
49.890,38.41
49.906,38.05
49.921,37.82
49.937,38.01
49.953,38.8
49.968,40.09
49.984,41.58
50.000,42.74
50.015,43.03
50.031,42.13
50.046,40.14
50.062,37.75
50.078,35.96
50.093,35.77
50.109,37.6
50.125,40.96
50.140,44.43
50.156,46.16
50.171,44.38
50.187,37.88
50.203,26.3
50.218,10.14
50.234,-9.04
50.250,-28.6
50.265,-45.14
50.281,-55.32
50.296,-56.89
50.312,-49.48
50.328,-34.78
50.343,-15.61
50.359,5.14
50.375,25.77
50.390,45.95
50.406,66.31
50.421,87.55
50.437,109.77
50.453,132.36
50.468,154.39
50.484,175.11
50.500,194.09
50.515,211.11
50.531,225.84
50.546,237.8
50.562,246.52
50.578,251.77
50.593,253.79
50.609,253.25
50.625,251.09
50.640,248.24
50.656,245.29
50.671,242.28
50.687,238.71
50.703,233.77
50.718,226.8
50.734,217.62
50.750,206.65
50.765,194.76
50.781,182.66
50.796,170.57
50.812,157.94
50.828,143.73
50.843,126.89
50.859,106.86
50.875,83.91
50.890,58.93
50.906,33.11
50.921,7.32
50.937,-18.11
50.953,-43.38
50.968,-69.05
50.984,-95.85
51.000,-124.64
51.015,-156.3
51.031,-191.49
51.046,-230.04
51.062,-270.51
51.078,-310.05
51.093,-344.85
51.109,-371.27
51.125,-386.91
51.140,-391.36
51.156,-386.02
51.171,-373.39
51.187,-356.06
51.203,-336.03
51.218,-314.58
51.234,-292.5
51.250,-270.42
51.265,-248.98
51.281,-228.68
51.296,-209.7
51.312,-191.8
51.328,-174.55
51.343,-157.57
51.359,-140.83
51.375,-124.67
51.390,-109.72
51.406,-96.56
51.421,-85.5
51.437,-76.41
51.453,-68.83
51.468,-62.11
51.484,-55.7
51.500,-49.29
51.515,-42.84
51.531,-36.52
51.546,-30.57
51.562,-25.24
51.578,-20.73
51.593,-17.19
51.609,-14.64
51.625,-12.91
51.640,-11.65
51.656,-10.36
51.671,-8.68
51.687,-6.51
51.703,-4.03
51.718,-1.66
51.734,0.24
51.750,1.49
51.765,2.17
51.781,2.43
51.796,2.43
51.812,2.22
51.828,1.76
51.843,1.04
51.859,0.08
51.875,-1.08
51.890,-2.4
51.906,-3.97
51.921,-5.92
51.937,-8.27
51.953,-10.83
51.968,-13.18
51.984,-14.66
52.000,-14.65
52.015,-12.71
52.031,-8.72
52.046,-2.95
52.062,4.01
52.078,11.43
52.093,18.57
52.109,24.84
52.125,29.92
52.140,33.71
52.156,36.3
52.171,37.9
52.187,38.68
52.203,38.81
52.218,38.39
52.234,37.48
52.250,36.24
52.265,34.91
52.281,33.81
52.296,33.17
52.312,33.09
52.328,33.37
52.343,33.62
52.359,33.51
52.375,32.85
52.390,31.81
52.406,30.72
52.421,29.83
52.437,29.16
52.453,28.39
52.468,27.05
52.484,24.82
52.500,21.71
52.515,18.07
52.531,14.43
52.546,11.22
52.562,8.55
52.578,6.24
52.593,3.99
52.609,1.53
52.625,-1.21
52.640,-4.11
52.656,-7.03
52.671,-9.91
52.687,-12.86
52.703,-16.08
52.718,-19.7
52.734,-23.56
52.750,-27.21
52.765,-29.92
52.781,-30.97
52.796,-29.91
52.812,-26.7
52.828,-21.72
52.843,-15.61
52.859,-9.04
52.875,-2.48
52.890,3.8
52.906,9.65
52.921,14.96
52.937,19.48
52.953,22.94
52.968,25.05
52.984,25.73
53.000,25.13
53.015,23.65
53.031,21.77
53.046,19.98
53.062,18.57
53.078,17.65
53.093,17.14
53.109,16.83
53.125,16.56
53.140,16.16
53.156,15.59
53.171,14.85
53.187,14.01
53.203,13.12
53.218,12.2
53.234,11.23
53.250,10.09
53.265,8.73
53.281,7.13
53.296,5.37
53.312,3.57
53.328,1.77
53.343,-0.02
53.359,-1.92
53.375,-4.05
53.390,-6.49
53.406,-9.21
53.421,-12.15
53.437,-15.22
53.453,-18.37
53.468,-21.59
53.484,-24.74
53.500,-27.55
53.515,-29.55
53.531,-30.19
53.546,-29.05
53.562,-25.95
53.578,-21.09
53.593,-14.93
53.609,-8.15
53.625,-1.39
53.640,4.82
53.656,10.18
53.671,14.56
53.687,17.9
53.703,20.18
53.718,21.35
53.734,21.44
53.750,20.55
53.765,18.97
53.781,17.08
53.796,15.34
53.812,14.13
53.828,13.65
53.843,13.88
53.859,14.6
53.875,15.51
53.890,16.34
53.906,16.92
53.921,17.16
53.937,17.02
53.953,16.48
53.968,15.43
53.984,13.78
54.000,11.46
54.015,8.54
54.031,5.21
54.046,1.76
54.062,-1.57
54.078,-4.62
54.093,-7.4
54.109,-10.03
54.125,-12.71
54.140,-15.61
54.156,-18.84
54.171,-22.5
54.187,-26.47
54.203,-30.53
54.218,-34.24
54.234,-37.03
54.250,-38.29
54.265,-37.61
54.281,-34.81
54.296,-30.02
54.312,-23.66
54.328,-16.26
54.343,-8.4
54.359,-0.65
54.375,6.48
54.390,12.58
54.406,17.35
54.421,20.72
54.437,22.79
54.453,23.74
54.468,23.86
54.484,23.35
54.500,22.46
54.515,21.42
54.531,20.51
54.546,19.99
54.562,19.98
54.578,20.41
54.593,21.03
54.609,21.53
54.625,21.66
54.640,21.31
54.656,20.57
54.671,19.58
54.687,18.49
54.703,17.38
54.718,16.24
54.734,14.97
54.750,13.44
54.765,11.54
54.781,9.17
54.796,6.37
54.812,3.26
54.828,0.05
54.843,-3.08
54.859,-6.05
54.875,-8.92
54.890,-11.87
54.906,-15.15
54.921,-18.98
54.937,-23.41
54.953,-28.3
54.968,-33.21
54.984,-37.45
55.000,-40.19
55.015,-40.73
55.031,-38.64
55.046,-34.05
55.062,-27.52
55.078,-19.94
55.093,-12.2
55.109,-4.93
55.125,1.56
55.140,7.23
55.156,12.17
55.171,16.43
55.187,20.0
55.203,22.85
55.218,24.97
55.234,26.39
55.250,27.2
55.265,27.46
55.281,27.24
55.296,26.63
55.312,25.8
55.328,24.95
55.343,24.27
55.359,23.86
55.375,23.66
55.390,23.5
55.406,23.21
55.421,22.65
55.437,21.8
55.453,20.73
55.468,19.52
55.484,18.19
55.500,16.71
55.515,15.0
55.531,13.01
55.546,10.71
55.562,8.1
55.578,5.21
55.593,2.11
55.609,-1.1
55.625,-4.24
55.640,-7.12
55.656,-9.58
55.671,-11.66
55.687,-13.62
55.703,-15.79
55.718,-18.52
55.734,-21.96
55.750,-25.96
55.765,-30.02
55.781,-33.47
55.796,-35.59
55.812,-35.72
55.828,-33.51
55.843,-28.95
55.859,-22.49
55.875,-14.88
55.890,-7.05
55.906,0.17
55.921,6.27
55.937,11.08
55.953,14.8
55.968,17.69
55.984,20.0
56.000,21.78
56.015,22.99
56.031,23.59
56.046,23.62
56.062,23.24
56.078,22.67
56.093,22.13
56.109,21.73
56.125,21.52
56.140,21.46
56.156,21.54
56.171,21.71
56.187,21.91
56.203,22.06
56.218,22.02
56.234,21.65
56.250,20.85
56.265,19.58
56.281,17.86
56.296,15.75
56.312,13.39
56.328,10.93
56.343,8.53
56.359,6.29
56.375,4.22
56.390,2.2
56.406,0.04
56.421,-2.4
56.437,-5.14
56.453,-7.99
56.468,-10.73
56.484,-13.15
56.500,-15.26
56.515,-17.24
56.531,-19.43
56.546,-22.15
56.562,-25.48
56.578,-29.18
56.593,-32.68
56.609,-35.18
56.625,-35.89
56.640,-34.26
56.656,-30.19
56.671,-24.15
56.687,-16.98
56.703,-9.69
56.718,-3.14
56.734,2.25
56.750,6.5
56.765,9.88
56.781,12.74
56.796,15.2
56.812,17.2
56.828,18.54
56.843,19.09
56.859,18.88
56.875,18.12
56.890,17.12
56.906,16.19
56.921,15.51
56.937,15.16
56.953,15.13
56.968,15.37
56.984,15.77
57.000,16.19
57.015,16.43
57.031,16.27
57.046,15.54
57.062,14.19
57.078,12.35
57.093,10.25
57.109,8.11
57.125,6.07
57.140,4.12
57.156,2.17
57.171,0.16
57.187,-1.88
57.203,-3.84
57.218,-5.62
57.234,-7.22
57.250,-8.76
57.265,-10.41
57.281,-12.34
57.296,-14.6
57.312,-17.21
57.328,-20.14
57.343,-23.33
57.359,-26.58
57.375,-29.48
57.390,-31.42
57.406,-31.71
57.421,-29.86
57.437,-25.77
57.453,-19.87
57.468,-12.91
57.484,-5.75
57.500,0.93
57.515,6.74
57.531,11.56
57.546,15.4
57.562,18.29
57.578,20.25
57.593,21.28
57.609,21.48
57.625,21.02
57.640,20.18
57.656,19.22
57.671,18.36
57.687,17.73
57.703,17.3
57.718,16.97
57.734,16.66
57.750,16.33
57.765,16.02
57.781,15.88
57.796,15.99
57.812,16.35
57.828,16.78
57.843,16.99
57.859,16.69
57.875,15.66
57.890,13.87
57.906,11.4
57.921,8.41
57.937,4.95
57.953,1.08
57.968,-3.17
57.984,-7.7
58.000,-12.22
58.015,-16.4
58.031,-19.95
58.046,-22.71
58.062,-24.8
58.078,-26.53
58.093,-28.31
58.109,-30.42
58.125,-32.94
58.140,-35.63
58.156,-37.99
58.171,-39.46
58.187,-39.51
58.203,-37.77
58.218,-34.18
58.234,-28.9
58.250,-22.4
58.265,-15.31
58.281,-8.28
58.296,-1.85
58.312,3.61
58.328,7.98
58.343,11.27
58.359,13.62
58.375,15.18
58.390,16.08
58.406,16.46
58.421,16.48
58.437,16.29
58.453,16.01
58.468,15.76
58.484,15.56
58.500,15.46
58.515,15.51
58.531,15.78
58.546,16.26
58.562,16.86
58.578,17.39
58.593,17.62
58.609,17.43
58.625,16.8
58.640,15.89
58.656,14.9
58.671,13.98
58.687,13.19
58.703,12.47
58.718,11.71
58.734,10.87
58.750,10.01
58.765,9.23
58.781,8.66
58.796,8.36
58.812,8.3
58.828,8.4
58.843,8.59
58.859,8.71
58.875,8.65
58.890,8.28
58.906,7.46
58.921,6.2
58.937,4.67
58.953,3.22
58.968,2.37
58.984,2.66
59.000,4.53
59.015,8.22
59.031,13.63
59.046,20.4
59.062,27.95
59.078,35.6
59.093,42.75
59.109,48.97
59.125,54.11
59.140,58.23
59.156,61.55
59.171,64.25
59.187,66.44
59.203,68.09
59.218,69.12
59.234,69.46
59.250,69.15
59.265,68.37
59.281,67.32
59.296,66.18
59.312,64.99
59.328,63.62
59.343,61.88
59.359,59.59
59.375,56.64
59.390,53.05
59.406,48.94
59.421,44.4
59.437,39.54
59.453,34.37
59.468,28.91
59.484,23.17
59.500,17.23
59.515,11.18
59.531,5.13
59.546,-0.77
59.562,-6.4
59.578,-11.6
59.593,-16.26
59.609,-20.34
59.625,-23.95
59.640,-27.28
59.656,-30.56
59.671,-33.99
59.687,-37.67
59.703,-41.57
59.718,-45.57
59.734,-49.45
59.750,-52.9
59.765,-55.53
59.781,-56.93
59.796,-56.69
59.812,-54.65
59.828,-50.89
59.843,-45.86
59.859,-40.25
59.875,-34.72
59.890,-29.78
59.906,-25.59
59.921,-22.07
59.937,-19.0
59.953,-16.19
59.968,-13.59
59.984,-11.29
