timestamp,value
00.000,30.99
00.015,28.94
00.031,27.1
00.046,25.24
00.062,23.22
00.078,21.0
00.093,18.6
00.109,16.13
00.125,13.69
00.140,11.35
00.156,9.2
00.171,7.21
00.187,5.26
00.203,3.2
00.218,0.81
00.234,-2.02
00.250,-5.34
00.265,-9.15
00.281,-13.31
00.296,-17.58
00.312,-21.57
00.328,-24.69
00.343,-26.14
00.359,-25.17
00.375,-21.31
00.390,-14.64
00.406,-5.83
00.421,4.03
00.437,13.8
00.453,22.64
00.468,30.16
00.484,36.43
00.500,41.68
00.515,46.09
00.531,49.65
00.546,52.2
00.562,53.63
00.578,53.91
00.593,53.19
00.609,51.69
00.625,49.62
00.640,47.17
00.656,44.47
00.671,41.63
00.687,38.72
00.703,35.82
00.718,32.88
00.734,29.79
00.750,26.38
00.765,22.46
00.781,17.94
00.796,12.9
00.812,7.54
00.828,2.14
00.843,-2.99
00.859,-7.69
00.875,-11.95
00.890,-15.97
00.906,-20.03
00.921,-24.46
00.937,-29.36
00.953,-34.41
00.968,-38.9
00.984,-41.73
01.000,-41.76
01.015,-38.13
01.031,-30.63
01.046,-19.85
01.062,-6.96
01.078,6.59
01.093,19.61
01.109,31.39
01.125,41.75
01.140,50.86
01.156,58.89
01.171,65.85
01.187,71.56
01.203,75.9
01.218,78.88
01.234,80.86
01.250,82.39
01.265,84.11
01.281,86.45
01.296,89.57
01.312,93.34
01.328,97.41
01.343,101.44
01.359,105.02
01.375,107.82
01.390,109.57
01.406,110.09
01.421,109.44
01.437,107.9
01.453,105.9
01.468,103.79
01.484,101.38
01.500,97.54
01.515,90.33
01.531,77.46
01.546,57.14
01.562,28.87
01.578,-6.32
01.593,-46.01
01.609,-86.88
01.625,-125.4
01.640,-158.24
01.656,-182.54
01.671,-196.11
01.687,-197.63
01.703,-186.91
01.718,-165.17
01.734,-135.07
01.750,-100.36
01.765,-65.34
01.781,-34.06
01.796,-9.53
01.812,6.78
01.828,15.09
01.843,17.14
01.859,15.56
01.875,13.08
01.890,11.96
01.906,13.56
01.921,18.45
01.937,26.52
01.953,37.21
01.968,49.75
01.984,63.42
02.000,77.79
02.015,92.86
02.031,109.05
02.046,126.77
02.062,145.96
02.078,165.74
02.093,184.39
02.109,200.02
02.125,211.38
02.140,218.45
02.156,222.48
02.171,225.36
02.187,228.56
02.203,232.14
02.218,234.32
02.234,231.88
02.250,221.42
02.265,200.96
02.281,171.01
02.296,134.86
02.312,97.58
02.328,64.09
02.343,37.21
02.359,16.55
02.375,-1.17
02.390,-20.48
02.406,-44.94
02.421,-75.52
02.437,-110.21
02.453,-145.16
02.468,-176.43
02.484,-201.54
02.500,-220.03
02.515,-232.94
02.531,-241.84
02.546,-248.22
02.562,-253.17
02.578,-257.71
02.593,-262.73
02.609,-268.65
02.625,-274.78
02.640,-279.15
02.656,-279.47
02.671,-274.58
02.687,-265.52
02.703,-255.04
02.718,-245.86
02.734,-238.48
02.750,-230.41
02.765,-217.42
02.781,-196.29
02.796,-167.49
02.812,-135.64
02.828,-107.67
02.843,-89.22
02.859,-81.88
02.875,-82.55
02.890,-85.36
02.906,-84.88
02.921,-78.63
02.937,-67.71
02.953,-55.47
02.968,-45.22
02.984,-38.43
03.000,-34.27
03.015,-30.4
03.031,-24.37
03.046,-15.0
03.062,-2.7
03.078,10.82
03.093,23.66
03.109,34.53
03.125,43.21
03.140,50.17
03.156,56.09
03.171,61.3
03.187,65.56
03.203,68.25
03.218,68.67
03.234,66.5
03.250,61.96
03.265,55.76
03.281,48.78
03.296,41.88
03.312,35.71
03.328,30.71
03.343,27.24
03.359,25.6
03.375,25.98
03.390,28.27
03.406,32.05
03.421,36.71
03.437,41.78
03.453,47.05
03.468,52.56
03.484,58.42
03.500,64.51
03.515,70.22
03.531,74.38
03.546,75.42
03.562,71.68
03.578,61.83
03.593,45.4
03.609,23.02
03.625,-3.26
03.640,-30.16
03.656,-53.73
03.671,-70.3
03.687,-77.51
03.703,-74.93
03.718,-64.2
03.734,-48.34
03.750,-31.02
03.765,-15.41
03.781,-3.62
03.796,3.63
03.812,6.86
03.828,7.41
03.843,6.61
03.859,4.98
03.875,2.03
03.890,-3.14
03.906,-10.7
03.921,-19.23
03.937,-25.9
03.953,-27.59
03.968,-22.75
03.984,-12.4
04.000,0.01
04.015,10.37
04.031,15.87
04.046,16.25
04.062,13.52
04.078,10.49
04.093,9.17
04.109,10.02
04.125,12.39
04.140,15.58
04.156,19.67
04.171,25.5
04.187,33.94
04.203,44.99
04.218,57.43
04.234,69.14
04.250,77.76
04.265,81.64
04.281,80.56
04.296,75.88
04.312,70.08
04.328,65.94
04.343,65.59
04.359,69.73
04.375,77.54
04.390,86.99
04.406,95.69
04.421,101.61
04.437,103.4
04.453,100.35
04.468,92.06
04.484,78.38
04.500,59.65
04.515,37.13
04.531,13.24
04.546,-8.94
04.562,-26.6
04.578,-38.32
04.593,-44.52
04.609,-47.2
04.625,-48.83
04.640,-51.24
04.656,-54.79
04.671,-58.53
04.687,-60.7
04.703,-59.53
04.718,-53.83
04.734,-43.28
04.750,-28.36
04.765,-10.47
04.781,8.3
04.796,25.53
04.812,38.97
04.828,47.34
04.843,50.73
04.859,50.51
04.875,48.8
04.890,47.55
04.906,47.99
04.921,50.24
04.937,53.54
04.953,56.76
04.968,58.98
04.984,59.87
05.000,59.72
05.015,59.26
05.031,59.21
05.046,59.76
05.062,60.39
05.078,59.87
05.093,56.63
05.109,49.36
05.125,37.46
05.140,21.3
05.156,2.09
05.171,-18.4
05.187,-38.21
05.203,-55.42
05.218,-68.37
05.234,-75.92
05.250,-77.76
05.265,-74.57
05.281,-68.08
05.296,-60.52
05.312,-53.92
05.328,-49.48
05.343,-47.11
05.359,-45.52
05.375,-42.77
05.390,-37.07
05.406,-27.55
05.421,-14.72
05.437,-0.48
05.453,12.56
05.468,21.97
05.484,26.54
05.500,26.62
05.515,23.91
05.531,20.65
05.546,18.58
05.562,18.36
05.578,19.59
05.593,21.41
05.609,23.05
05.625,24.23
05.640,24.96
05.656,25.1
05.671,24.25
05.687,21.9
05.703,17.84
05.718,12.43
05.734,6.31
05.750,-0.12
05.765,-6.97
05.781,-14.7
05.796,-23.54
05.812,-32.8
05.828,-40.86
05.843,-45.87
05.859,-46.7
05.875,-43.64
05.890,-38.21
05.906,-32.24
05.921,-26.82
05.937,-21.76
05.953,-16.02
05.968,-8.6
05.984,0.61
06.000,10.72
06.015,20.32
06.031,28.33
06.046,34.52
06.062,39.38
06.078,43.62
06.093,47.5
06.109,50.6
06.125,51.98
06.140,50.82
06.156,46.9
06.171,40.96
06.187,34.45
06.203,28.96
06.218,25.58
06.234,24.57
06.250,25.51
06.265,27.67
06.281,30.63
06.296,34.36
06.312,39.25
06.328,45.65
06.343,53.51
06.359,62.28
06.375,71.03
06.390,78.79
06.406,84.74
06.421,88.2
06.437,88.63
06.453,85.53
06.468,78.53
06.484,67.49
06.500,52.6
06.515,34.18
06.531,12.61
06.546,-11.85
06.562,-38.99
06.578,-68.25
06.593,-98.32
06.609,-127.05
06.625,-151.67
06.640,-169.51
06.656,-178.5
06.671,-177.7
06.687,-167.46
06.703,-149.44
06.718,-126.18
06.734,-100.72
06.750,-76.08
06.765,-54.84
06.781,-38.73
06.796,-28.4
06.812,-23.38
06.828,-22.26
06.843,-23.15
06.859,-24.25
06.875,-24.32
06.890,-23.07
06.906,-21.05
06.921,-19.2
06.937,-18.31
06.953,-18.54
06.968,-19.31
06.984,-19.66
07.000,-18.76
07.015,-16.42
07.031,-13.16
07.046,-9.78
07.062,-6.93
07.078,-4.87
07.093,-3.49
07.109,-2.52
07.125,-1.8
07.140,-1.29
07.156,-1.07
07.171,-1.07
07.187,-0.92
07.203,0.04
07.218,2.54
07.234,7.13
07.250,13.93
07.265,22.47
07.281,31.84
07.296,41.12
07.312,49.81
07.328,57.89
07.343,65.56
07.359,72.58
07.375,77.92
07.390,79.82
07.406,76.35
07.421,66.35
07.437,50.25
07.453,30.06
07.468,8.71
07.484,-10.98
07.500,-27.29
07.515,-39.82
07.531,-49.0
07.546,-55.5
07.562,-59.7
07.578,-61.75
07.593,-61.81
07.609,-60.37
07.625,-58.2
07.640,-56.06
07.656,-54.4
07.671,-53.16
07.687,-51.84
07.703,-49.87
07.718,-46.99
07.734,-43.4
07.750,-39.56
07.765,-35.98
07.781,-32.79
07.796,-29.73
07.812,-26.12
07.828,-21.28
07.843,-14.75
07.859,-6.54
07.875,2.9
07.890,12.83
07.906,22.61
07.921,31.76
07.937,40.09
07.953,47.64
07.968,54.44
07.984,60.51
08.000,65.79
08.015,70.21
08.031,73.73
08.046,76.4
08.062,78.34
08.078,79.65
08.093,80.36
08.109,80.31
08.125,79.17
08.140,76.52
08.156,72.01
08.171,65.55
08.187,57.44
08.203,48.3
08.218,38.89
08.234,29.92
08.250,21.82
08.265,14.68
08.281,8.41
08.296,2.87
08.312,-2.0
08.328,-6.11
08.343,-9.38
08.359,-11.82
08.375,-13.55
08.390,-14.8
08.406,-15.71
08.421,-16.33
08.437,-16.49
08.453,-15.99
08.468,-14.76
08.484,-12.92
08.500,-10.81
08.515,-8.94
08.531,-7.79
08.546,-7.72
08.562,-8.92
08.578,-11.39
08.593,-14.95
08.609,-19.38
08.625,-24.39
08.640,-29.69
08.656,-35.01
08.671,-40.05
08.687,-44.37
08.703,-47.52
08.718,-48.98
08.734,-48.48
08.750,-46.07
08.765,-42.24
08.781,-37.71
08.796,-33.18
08.812,-29.05
08.828,-25.34
08.843,-21.79
08.859,-18.12
08.875,-14.33
08.890,-10.67
08.906,-7.64
08.921,-5.65
08.937,-4.82
08.953,-4.89
08.968,-5.32
08.984,-5.48
09.000,-4.83
09.015,-3.11
09.031,-0.22
09.046,3.76
09.062,8.61
09.078,14.01
09.093,19.56
09.109,24.77
09.125,29.16
09.140,32.42
09.156,34.48
09.171,35.53
09.187,35.96
09.203,36.11
09.218,36.18
09.234,36.14
09.250,35.81
09.265,35.03
09.281,33.76
09.296,32.21
09.312,30.59
09.328,29.13
09.343,27.79
09.359,26.38
09.375,24.57
09.390,22.13
09.406,19.01
09.421,15.38
09.437,11.62
09.453,8.08
09.468,5.05
09.484,2.65
09.500,0.87
09.515,-0.44
09.531,-1.5
09.546,-2.57
09.562,-3.76
09.578,-4.96
09.593,-5.77
09.609,-5.54
09.625,-3.68
09.640,0.14
09.656,5.78
09.671,12.48
09.687,19.07
09.703,24.18
09.718,26.56
09.734,25.4
09.750,20.52
09.765,12.53
09.781,2.64
09.796,-7.55
09.812,-16.6
09.828,-23.48
09.843,-27.83
09.859,-29.8
09.875,-29.96
09.890,-28.9
09.906,-27.17
09.921,-25.12
09.937,-22.9
09.953,-20.62
09.968,-18.22
09.984,-15.63
10.000,-12.83
10.015,-9.87
10.031,-7.03
10.046,-4.68
10.062,-3.14
10.078,-2.57
10.093,-2.85
10.109,-3.7
10.125,-4.82
10.140,-6.02
10.156,-7.2
10.171,-8.32
10.187,-9.22
10.203,-9.62
10.218,-9.2
10.234,-7.76
10.250,-5.33
10.265,-2.22
10.281,1.05
10.296,4.07
10.312,6.59
10.328,8.6
10.343,10.2
10.359,11.52
10.375,12.53
10.390,13.15
10.406,13.21
10.421,12.63
10.437,11.44
10.453,9.81
10.468,7.99
10.484,6.2
10.500,4.59
10.515,3.14
10.531,1.77
10.546,0.31
10.562,-1.32
10.578,-3.02
10.593,-4.65
10.609,-5.96
10.625,-6.81
10.640,-7.21
10.656,-7.34
10.671,-7.54
10.687,-8.2
10.703,-9.56
10.718,-11.62
10.734,-14.2
10.750,-16.9
10.765,-19.21
10.781,-20.62
10.796,-20.77
10.812,-19.51
10.828,-16.87
10.843,-13.1
10.859,-8.51
10.875,-3.54
10.890,1.39
10.906,5.92
10.921,9.84
10.937,13.08
10.953,15.75
10.968,17.97
10.984,19.81
11.000,21.22
11.015,22.11
11.031,22.35
11.046,21.96
11.062,21.07
11.078,19.91
11.093,18.74
11.109,17.67
11.125,16.63
11.140,15.51
11.156,14.14
11.171,12.49
11.187,10.59
11.203,8.61
11.218,6.69
11.234,4.97
11.250,3.54
11.265,2.35
11.281,1.3
11.296,0.2
11.312,-1.14
11.328,-2.83
11.343,-4.78
11.359,-6.71
11.375,-8.15
11.390,-8.67
11.406,-8.1
11.421,-6.57
11.437,-4.59
11.453,-2.79
11.468,-1.64
11.484,-1.33
11.500,-1.76
11.515,-2.53
11.531,-3.27
11.546,-3.63
11.562,-3.44
11.578,-2.68
11.593,-1.5
11.609,-0.16
11.625,1.05
11.640,1.78
11.656,1.83
11.671,1.1
11.687,-0.33
11.703,-2.29
11.718,-4.51
11.734,-6.76
11.750,-8.79
11.765,-10.42
11.781,-11.55
11.796,-12.19
11.812,-12.41
11.828,-12.34
11.843,-12.11
11.859,-11.84
11.875,-11.62
11.890,-11.53
11.906,-11.53
11.921,-11.51
11.937,-11.2
11.953,-10.26
11.968,-8.43
11.984,-5.59
12.000,-1.89
12.015,2.3
12.031,6.53
12.046,10.37
12.062,13.55
12.078,15.93
12.093,17.54
12.109,18.41
12.125,18.63
12.140,18.29
12.156,17.43
12.171,16.14
12.187,14.52
12.203,12.72
12.218,10.89
12.234,9.23
12.250,7.93
12.265,7.15
12.281,6.94
12.296,7.26
12.312,7.97
12.328,8.87
12.343,9.74
12.359,10.43
12.375,10.96
12.390,11.36
12.406,11.76
12.421,12.24
12.437,12.78
12.453,13.3
12.468,13.66
12.484,13.8
12.500,13.76
12.515,13.73
12.531,13.91
12.546,14.38
12.562,15.22
12.578,16.36
12.593,17.8
12.609,19.62
12.625,21.91
12.640,24.59
12.656,27.34
12.671,29.55
12.687,30.5
12.703,29.8
12.718,27.43
12.734,23.84
12.750,19.68
12.765,15.44
12.781,11.18
12.796,6.62
12.812,1.33
12.828,-4.91
12.843,-11.92
12.859,-19.17
12.875,-25.83
12.890,-31.04
12.906,-34.16
12.921,-34.8
12.937,-32.91
12.953,-28.76
12.968,-22.88
12.984,-15.85
13.000,-8.3
13.015,-0.71
13.031,6.62
13.046,13.53
13.062,20.02
13.078,26.22
13.093,32.36
13.109,38.69
13.125,45.46
13.140,52.7
13.156,60.3
13.171,67.92
13.187,75.1
13.203,81.39
13.218,86.53
13.234,90.45
13.250,93.3
13.265,95.41
13.281,97.09
13.296,98.58
13.312,99.95
13.328,101.12
13.343,101.96
13.359,102.31
13.375,102.04
13.390,100.89
13.406,98.43
13.421,94.1
13.437,87.4
13.453,78.07
13.468,66.19
13.484,52.07
13.500,35.97
13.515,18.14
13.531,-0.78
13.546,-19.38
13.562,-35.4
13.578,-46.28
13.593,-50.32
13.609,-47.74
13.625,-40.94
13.640,-33.91
13.656,-30.81
13.671,-34.54
13.687,-46.05
13.703,-64.39
13.718,-87.38
13.734,-112.35
13.750,-136.7
13.765,-158.23
13.781,-175.63
13.796,-188.92
13.812,-199.48
13.828,-209.56
13.843,-221.23
13.859,-235.24
13.875,-250.48
13.890,-264.35
13.906,-273.69
13.921,-275.81
13.937,-269.16
13.953,-253.17
13.968,-227.97
13.984,-194.24
14.000,-153.34
14.015,-107.81
14.031,-61.37
14.046,-18.4
14.062,17.18
14.078,43.1
14.093,59.41
14.109,68.11
14.125,72.21
14.140,74.4
14.156,76.23
14.171,77.92
14.187,78.94
14.203,78.74
14.218,77.39
14.234,75.75
14.250,75.01
14.265,76.1
14.281,79.3
14.296,84.0
14.312,89.07
14.328,93.33
14.343,95.99
14.359,96.75
14.375,95.77
14.390,93.38
14.406,89.73
14.421,84.91
14.437,78.87
14.453,71.66
14.468,63.54
14.484,54.95
14.500,46.3
14.515,37.87
14.531,29.69
14.546,21.6
14.562,13.47
14.578,5.21
14.593,-3.04
14.609,-10.96
14.625,-18.09
14.640,-24.01
14.656,-28.42
14.671,-31.31
14.687,-32.95
14.703,-33.77
14.718,-34.17
14.734,-34.23
14.750,-33.62
14.765,-31.68
14.781,-27.74
14.796,-21.43
14.812,-13.01
14.828,-3.29
14.843,6.61
14.859,15.63
14.875,23.02
14.890,28.41
14.906,31.73
14.921,33.16
14.937,33.13
14.953,32.25
14.968,31.31
14.984,31.0
15.000,31.7
15.015,33.25
15.031,35.07
15.046,36.33
15.062,36.36
15.078,35.0
15.093,32.69
15.109,30.2
15.125,28.3
15.140,27.25
15.156,26.67
15.171,25.78
15.187,23.81
15.203,20.64
15.218,17.06
15.234,14.72
15.250,15.5
15.265,20.73
15.281,30.61
15.296,44.27
15.312,60.02
15.328,75.82
15.343,89.66
15.359,99.8
15.375,105.05
15.390,105.06
15.406,100.55
15.421,93.28
15.437,85.73
15.453,80.04
15.468,77.28
15.484,76.81
15.500,76.51
15.515,73.53
15.531,65.57
15.546,51.86
15.562,33.53
15.578,13.28
15.593,-5.9
15.609,-22.0
15.625,-34.95
15.640,-46.63
15.656,-59.99
15.671,-77.4
15.687,-99.25
15.703,-123.79
15.718,-147.81
15.734,-168.13
15.750,-182.61
15.765,-190.44
15.781,-191.55
15.796,-185.94
15.812,-173.5
15.828,-154.42
15.843,-130.05
15.859,-103.22
15.875,-77.73
15.890,-57.24
15.906,-44.01
15.921,-38.13
15.937,-37.7
15.953,-39.74
15.968,-41.33
15.984,-40.66
16.000,-37.29
16.015,-31.95
16.031,-25.97
16.046,-20.56
16.062,-16.39
16.078,-13.53
16.093,-11.71
16.109,-10.61
16.125,-10.19
16.140,-10.5
16.156,-11.5
16.171,-12.86
16.187,-14.02
16.203,-14.5
16.218,-14.15
16.234,-13.28
16.250,-12.43
16.265,-12.12
16.281,-12.64
16.296,-13.88
16.312,-15.49
16.328,-16.92
16.343,-17.68
16.359,-17.38
16.375,-15.86
16.390,-13.18
16.406,-9.71
16.421,-6.0
16.437,-2.57
16.453,0.19
16.468,2.19
16.484,3.56
16.500,4.67
16.515,5.85
16.531,7.35
16.546,9.09
16.562,10.87
16.578,12.39
16.593,13.41
16.609,13.87
16.625,13.78
16.640,13.25
16.656,12.33
16.671,10.96
16.687,9.0
16.703,6.39
16.718,3.28
16.734,-0.04
16.750,-3.12
16.765,-5.66
16.781,-7.54
16.796,-8.91
16.812,-10.08
16.828,-11.28
16.843,-12.55
16.859,-13.63
16.875,-14.17
16.890,-13.81
16.906,-12.36
16.921,-9.9
16.937,-6.69
16.953,-3.07
16.968,0.67
16.984,4.24
17.000,7.44
17.015,10.06
17.031,11.91
17.046,12.83
17.062,12.71
17.078,11.63
17.093,9.78
17.109,7.54
17.125,5.33
17.140,3.57
17.156,2.52
17.171,2.33
17.187,2.89
17.203,4.02
17.218,5.51
17.234,7.18
17.250,8.94
17.265,10.69
17.281,12.33
17.296,13.66
17.312,14.45
17.328,14.44
17.343,13.5
17.359,11.63
17.375,9.05
17.390,6.09
17.406,3.12
17.421,0.53
17.437,-1.42
17.453,-2.55
17.468,-2.81
17.484,-2.28
17.500,-1.19
17.515,0.13
17.531,1.36
17.546,2.18
17.562,2.44
17.578,2.12
17.593,1.3
17.609,0.17
17.625,-1.12
17.640,-2.39
17.656,-3.51
17.671,-4.3
17.687,-4.64
17.703,-4.44
17.718,-3.68
17.734,-2.44
17.750,-0.84
17.765,0.93
17.781,2.72
17.796,4.43
17.812,6.03
17.828,7.52
17.843,8.92
17.859,10.22
17.875,11.33
17.890,12.12
17.906,12.47
17.921,12.29
17.937,11.55
17.953,10.34
17.968,8.8
17.984,7.21
18.000,5.98
18.015,5.51
18.031,6.11
18.046,7.8
18.062,10.32
18.078,13.25
18.093,16.14
18.109,18.72
18.125,20.9
18.140,22.71
18.156,24.04
18.171,24.63
18.187,24.13
18.203,22.34
18.218,19.4
18.234,15.82
18.250,12.33
18.265,9.6
18.281,7.93
18.296,7.25
18.312,7.19
18.328,7.29
18.343,7.24
18.359,6.93
18.375,6.44
18.390,5.87
18.406,5.36
18.421,4.9
18.437,4.47
18.453,4.07
18.468,3.75
18.484,3.62
18.500,3.81
18.515,4.34
18.531,5.06
18.546,5.77
18.562,6.28
18.578,6.56
18.593,6.79
18.609,7.21
18.625,8.05
18.640,9.36
18.656,10.93
18.671,12.44
18.687,13.56
18.703,14.16
18.718,14.25
18.734,13.94
18.750,13.25
18.765,12.12
18.781,10.37
18.796,7.85
18.812,4.58
18.828,0.79
18.843,-3.09
18.859,-6.67
18.875,-9.63
18.890,-11.88
18.906,-13.43
18.921,-14.37
18.937,-14.81
18.953,-14.83
18.968,-14.64
18.984,-14.49
19.000,-14.66
19.015,-15.34
19.031,-16.57
19.046,-18.16
19.062,-19.81
19.078,-21.22
19.093,-22.22
19.109,-22.78
19.125,-22.99
19.140,-22.87
19.156,-22.31
19.171,-21.11
19.187,-19.07
19.203,-16.11
19.218,-12.38
19.234,-8.19
19.250,-3.97
19.265,-0.06
19.281,3.38
19.296,6.38
19.312,9.02
19.328,11.43
19.343,13.62
19.359,15.5
19.375,16.95
19.390,17.88
19.406,18.29
19.421,18.27
19.437,17.99
19.453,17.58
19.468,17.16
19.484,16.69
19.500,16.11
19.515,15.34
19.531,14.36
19.546,13.2
19.562,11.94
19.578,10.69
19.593,9.5
19.609,8.39
19.625,7.25
19.640,5.96
19.656,4.34
19.671,2.26
19.687,-0.33
19.703,-3.38
19.718,-6.66
19.734,-9.85
19.750,-12.57
19.765,-14.5
19.781,-15.38
19.796,-15.11
19.812,-13.77
19.828,-11.54
19.843,-8.67
19.859,-5.48
19.875,-2.33
19.890,0.46
19.906,2.6
19.921,3.96
19.937,4.58
19.953,4.62
19.968,4.36
19.984,4.02
20.000,3.77
20.015,3.66
20.031,3.71
20.046,3.93
20.062,4.28
20.078,4.73
20.093,5.22
20.109,5.57
20.125,5.63
20.140,5.28
20.156,4.51
20.171,3.36
20.187,1.97
20.203,0.45
20.218,-1.08
20.234,-2.49
20.250,-3.67
20.265,-4.6
20.281,-5.26
20.296,-5.72
20.312,-6.05
20.328,-6.24
20.343,-6.23
20.359,-5.91
20.375,-5.13
20.390,-3.79
20.406,-1.9
20.421,0.47
20.437,3.17
20.453,5.95
20.468,8.52
20.484,10.54
20.500,11.64
20.515,11.6
20.531,10.35
20.546,8.05
20.562,5.06
20.578,1.79
20.593,-1.34
20.609,-4.05
20.625,-6.17
20.640,-7.69
20.656,-8.65
20.671,-9.17
20.687,-9.41
20.703,-9.55
20.718,-9.78
20.734,-10.23
20.750,-10.92
20.765,-11.82
20.781,-12.78
20.796,-13.65
20.812,-14.36
20.828,-14.91
20.843,-15.43
20.859,-16.01
20.875,-16.69
20.890,-17.39
20.906,-17.94
20.921,-18.15
20.937,-17.78
20.953,-16.69
20.968,-14.87
20.984,-12.42
21.000,-9.63
21.015,-6.79
21.031,-4.2
21.046,-2.1
21.062,-0.6
21.078,0.29
21.093,0.58
21.109,0.37
21.125,-0.15
21.140,-0.77
21.156,-1.15
21.171,-1.06
21.187,-0.38
21.203,0.8
21.218,2.28
21.234,3.82
21.250,5.27
21.265,6.64
21.281,7.94
21.296,9.15
21.312,10.17
21.328,10.79
21.343,10.87
21.359,10.34
21.375,9.28
21.390,7.89
21.406,6.38
21.421,4.91
21.437,3.56
21.453,2.4
21.468,1.44
21.484,0.78
21.500,0.45
21.515,0.55
21.531,1.1
21.546,2.1
21.562,3.44
21.578,5.04
21.593,6.79
21.609,8.62
21.625,10.49
21.640,12.36
21.656,14.24
21.671,16.07
21.687,17.79
21.703,19.18
21.718,20.07
21.734,20.31
21.750,19.95
21.765,19.23
21.781,18.61
21.796,18.55
21.812,19.32
21.828,20.81
21.843,22.46
21.859,23.42
21.875,22.83
21.890,20.19
21.906,15.56
21.921,9.64
21.937,3.54
21.953,-1.61
21.968,-4.98
21.984,-6.3
22.000,-5.87
22.015,-4.39
22.031,-2.68
22.046,-1.45
22.062,-1.1
22.078,-1.74
22.093,-3.16
22.109,-5.0
22.125,-6.72
22.140,-7.84
22.156,-7.95
22.171,-6.96
22.187,-5.08
22.203,-2.78
22.218,-0.67
22.234,0.74
22.250,1.16
22.265,0.58
22.281,-0.8
22.296,-2.73
22.312,-4.95
22.328,-7.33
22.343,-9.76
22.359,-12.18
22.375,-14.52
22.390,-16.67
22.406,-18.54
22.421,-20.11
22.437,-21.47
22.453,-22.78
22.468,-24.23
22.484,-25.88
22.500,-27.61
22.515,-29.11
22.531,-30.01
22.546,-30.01
22.562,-28.98
22.578,-27.05
22.593,-24.47
22.609,-21.57
22.625,-18.64
22.640,-15.99
22.656,-13.8
22.671,-12.15
22.687,-10.93
22.703,-9.76
22.718,-8.11
22.734,-5.5
22.750,-1.71
22.765,3.11
22.781,8.41
22.796,13.52
22.812,17.84
22.828,21.08
22.843,23.22
22.859,24.49
22.875,25.12
22.890,25.21
22.906,24.77
22.921,23.65
22.937,21.74
22.953,19.11
22.968,16.03
22.984,12.95
23.000,10.37
23.015,8.66
23.031,7.91
23.046,7.9
23.062,8.24
23.078,8.48
23.093,8.43
23.109,8.11
23.125,7.78
23.140,7.73
23.156,8.16
23.171,9.09
23.187,10.38
23.203,11.87
23.218,13.26
23.234,14.27
23.250,14.49
23.265,13.54
23.281,11.19
23.296,7.56
23.312,3.28
23.328,-0.68
23.343,-3.24
23.359,-3.75
23.375,-2.14
23.390,0.9
23.406,4.35
23.421,7.19
23.437,8.83
23.453,9.22
23.468,8.74
23.484,7.89
23.500,7.06
23.515,6.44
23.531,5.98
23.546,5.59
23.562,5.16
23.578,4.6
23.593,3.9
23.609,3.05
23.625,2.1
23.640,1.16
23.656,0.39
23.671,-0.07
23.687,-0.12
23.703,0.21
23.718,0.8
23.734,1.45
23.750,1.92
23.765,2.02
23.781,1.59
23.796,0.53
23.812,-1.22
23.828,-3.69
23.843,-6.88
23.859,-10.77
23.875,-15.23
23.890,-20.0
23.906,-24.69
23.921,-28.78
23.937,-31.82
23.953,-33.46
23.968,-33.57
23.984,-32.23
24.000,-29.72
24.015,-26.44
24.031,-22.84
24.046,-19.42
24.062,-16.53
24.078,-14.41
24.093,-13.01
24.109,-12.07
24.125,-11.17
24.140,-9.92
24.156,-8.09
24.171,-5.67
24.187,-2.85
24.203,0.15
24.218,3.04
24.234,5.63
24.250,7.71
24.265,9.09
24.281,9.66
24.296,9.44
24.312,8.6
24.328,7.46
24.343,6.42
24.359,5.73
24.375,5.5
24.390,5.67
24.406,6.03
24.421,6.36
24.437,6.51
24.453,6.45
24.468,6.18
24.484,5.75
24.500,5.21
24.515,4.68
24.531,4.3
24.546,4.22
24.562,4.65
24.578,5.68
24.593,7.32
24.609,9.41
24.625,11.71
24.640,13.96
24.656,15.92
24.671,17.46
24.687,18.4
24.703,18.52
24.718,17.56
24.734,15.35
24.750,11.93
24.765,7.7
24.781,3.34
24.796,-0.32
24.812,-2.6
24.828,-3.22
24.843,-2.35
24.859,-0.55
24.875,1.49
24.890,3.24
24.906,4.44
24.921,5.05
24.937,5.12
24.953,4.72
24.968,3.83
24.984,2.46
25.000,0.69
25.015,-1.31
25.031,-3.36
25.046,-5.3
25.062,-7.17
25.078,-9.0
25.093,-10.8
25.109,-12.41
25.125,-13.5
25.140,-13.66
25.156,-12.59
25.171,-10.21
25.187,-6.74
25.203,-2.71
25.218,1.13
25.234,4.08
25.250,5.6
25.265,5.53
25.281,4.11
25.296,1.84
25.312,-0.69
25.328,-3.03
25.343,-4.94
25.359,-6.4
25.375,-7.48
25.390,-8.27
25.406,-8.83
25.421,-9.23
25.437,-9.58
25.453,-10.01
25.468,-10.54
25.484,-11.02
25.500,-11.17
25.515,-10.64
25.531,-9.24
25.546,-7.0
25.562,-4.24
25.578,-1.41
25.593,0.98
25.609,2.56
25.625,3.12
25.640,2.68
25.656,1.47
25.671,-0.21
25.687,-1.93
25.703,-3.3
25.718,-4.04
25.734,-3.98
25.750,-3.1
25.765,-1.54
25.781,0.46
25.796,2.59
25.812,4.52
25.828,5.97
25.843,6.78
25.859,6.98
25.875,6.7
25.890,6.21
25.906,5.69
25.921,5.2
25.937,4.67
25.953,4.0
25.968,3.14
25.984,2.19
26.000,1.35
26.015,0.83
26.031,0.78
26.046,1.17
26.062,1.84
26.078,2.52
26.093,2.99
26.109,3.0
26.125,2.43
26.140,1.23
26.156,-0.58
26.171,-2.84
26.187,-5.23
26.203,-7.31
26.218,-8.66
26.234,-8.9
26.250,-7.84
26.265,-5.58
26.281,-2.42
26.296,1.26
26.312,5.05
26.328,8.74
26.343,12.25
26.359,15.55
26.375,18.62
26.390,21.36
26.406,23.55
26.421,24.95
26.437,25.35
26.453,24.62
26.468,22.68
26.484,19.55
26.500,15.32
26.515,10.19
26.531,4.51
26.546,-1.25
26.562,-6.59
26.578,-11.08
26.593,-14.42
26.609,-16.49
26.625,-17.29
26.640,-16.83
26.656,-15.14
26.671,-12.3
26.687,-8.51
26.703,-4.13
26.718,0.23
26.734,3.98
26.750,6.54
26.765,7.61
26.781,7.23
26.796,5.7
26.812,3.53
26.828,1.25
26.843,-0.72
26.859,-2.25
26.875,-3.42
26.890,-4.47
26.906,-5.61
26.921,-6.94
26.937,-8.47
26.953,-10.07
26.968,-11.63
26.984,-13.05
27.000,-14.28
27.015,-15.32
27.031,-16.17
27.046,-16.83
27.062,-17.25
27.078,-17.46
27.093,-17.41
27.109,-17.07
27.125,-16.38
27.140,-15.33
27.156,-13.88
27.171,-12.01
27.187,-9.67
27.203,-6.77
27.218,-3.28
27.234,0.82
27.250,5.34
27.265,9.91
27.281,14.01
27.296,17.12
27.312,18.91
27.328,19.31
27.343,18.56
27.359,17.15
27.375,15.62
27.390,14.41
27.406,13.81
27.421,13.93
27.437,14.75
27.453,16.2
27.468,18.22
27.484,20.69
27.500,23.38
27.515,26.0
27.531,28.2
27.546,29.7
27.562,30.39
27.578,30.35
27.593,29.86
27.609,29.21
27.625,28.65
27.640,28.17
27.656,27.53
27.671,26.28
27.687,23.92
27.703,20.0
27.718,14.34
27.734,7.11
27.750,-1.17
27.765,-9.72
27.781,-17.71
27.796,-24.4
27.812,-29.34
27.828,-32.33
27.843,-33.43
27.859,-32.85
27.875,-30.95
27.890,-28.2
27.906,-25.13
27.921,-22.26
27.937,-19.94
27.953,-18.27
27.968,-17.06
27.984,-15.91
28.000,-14.44
28.015,-12.41
28.031,-9.9
28.046,-7.19
28.062,-4.68
28.078,-2.68
28.093,-1.39
28.109,-0.89
28.125,-1.06
28.140,-1.76
28.156,-2.78
28.171,-3.86
28.187,-4.71
28.203,-5.11
28.218,-4.91
28.234,-4.14
28.250,-2.98
28.265,-1.7
28.281,-0.57
28.296,0.17
28.312,0.43
28.328,0.2
28.343,-0.49
28.359,-1.58
28.375,-3.02
28.390,-4.77
28.406,-6.71
28.421,-8.73
28.437,-10.71
28.453,-12.6
28.468,-14.4
28.484,-16.11
28.500,-17.71
28.515,-19.1
28.531,-20.06
28.546,-20.3
28.562,-19.64
28.578,-17.93
28.593,-15.23
28.609,-11.75
28.625,-7.79
28.640,-3.64
28.656,0.41
28.671,4.16
28.687,7.48
28.703,10.24
28.718,12.4
28.734,13.95
28.750,14.95
28.765,15.48
28.781,15.71
28.796,15.78
28.812,15.79
28.828,15.79
28.843,15.71
28.859,15.53
28.875,15.28
28.890,14.99
28.906,14.76
28.921,14.58
28.937,14.43
28.953,14.14
28.968,13.56
28.984,12.56
29.000,11.05
29.015,9.03
29.031,6.49
29.046,3.6
29.062,0.59
29.078,-2.18
29.093,-4.3
29.109,-5.48
29.125,-5.75
29.140,-5.35
29.156,-4.78
29.171,-4.57
29.187,-4.98
29.203,-6.09
29.218,-7.71
29.234,-9.54
29.250,-11.29
29.265,-12.78
29.281,-13.87
29.296,-14.53
29.312,-14.8
29.328,-14.78
29.343,-14.61
29.359,-14.47
29.375,-14.39
29.390,-14.3
29.406,-14.0
29.421,-13.28
29.437,-12.04
29.453,-10.34
29.468,-8.34
29.484,-6.23
29.500,-4.16
29.515,-2.17
29.531,-0.3
29.546,1.38
29.562,2.83
29.578,3.96
29.593,4.73
29.609,5.19
29.625,5.4
29.640,5.43
29.656,5.36
29.671,5.23
29.687,5.09
29.703,5.07
29.718,5.25
29.734,5.73
29.750,6.55
29.765,7.65
29.781,8.86
29.796,9.98
29.812,10.77
29.828,11.02
29.843,10.63
29.859,9.61
29.875,8.18
29.890,6.63
29.906,5.24
29.921,4.11
29.937,3.16
29.953,2.11
29.968,0.66
29.984,-1.3
30.000,-3.67
30.015,-6.13
30.031,-8.25
30.046,-9.67
30.062,-10.22
30.078,-9.91
30.093,-8.94
30.109,-7.55
30.125,-6.02
30.140,-4.64
30.156,-3.65
30.171,-3.23
30.187,-3.44
30.203,-4.24
30.218,-5.45
30.234,-6.84
30.250,-8.14
30.265,-9.14
30.281,-9.75
30.296,-9.96
30.312,-9.85
30.328,-9.54
30.343,-9.15
30.359,-8.69
30.375,-8.15
30.390,-7.44
30.406,-6.49
30.421,-5.25
30.437,-3.73
30.453,-2.03
30.468,-0.29
30.484,1.27
30.500,2.47
30.515,3.13
30.531,3.16
30.546,2.61
30.562,1.65
30.578,0.54
30.593,-0.49
30.609,-1.31
30.625,-1.84
30.640,-2.16
30.656,-2.4
30.671,-2.63
30.687,-2.95
30.703,-3.48
30.718,-4.33
30.734,-5.57
30.750,-7.17
30.765,-8.88
30.781,-10.32
30.796,-11.04
30.812,-10.7
30.828,-9.13
30.843,-6.49
30.859,-3.1
30.875,0.71
30.890,4.58
30.906,8.24
30.921,11.44
30.937,13.92
30.953,15.48
30.968,16.07
30.984,15.82
31.000,15.04
31.015,14.13
31.031,13.36
31.046,12.9
31.062,12.75
31.078,12.89
31.093,13.29
31.109,13.9
31.125,14.62
31.140,15.3
31.156,15.71
31.171,15.63
31.187,15.02
31.203,13.97
31.218,12.66
31.234,11.29
31.250,9.89
31.265,8.36
31.281,6.54
31.296,4.29
31.312,1.68
31.328,-0.98
31.343,-3.24
31.359,-4.69
31.375,-5.02
31.390,-4.25
31.406,-2.58
31.421,-0.34
31.437,2.1
31.453,4.39
31.468,6.19
31.484,7.11
31.500,6.72
31.515,4.84
31.531,1.58
31.546,-2.53
31.562,-6.65
31.578,-9.92
31.593,-11.69
31.609,-11.79
31.625,-10.49
31.640,-8.34
31.656,-5.91
31.671,-3.74
31.687,-2.18
31.703,-1.41
31.718,-1.5
31.734,-2.41
31.750,-3.98
31.765,-6.03
31.781,-8.28
31.796,-10.5
31.812,-12.53
31.828,-14.28
31.843,-15.73
31.859,-16.88
31.875,-17.74
31.890,-18.22
31.906,-18.25
31.921,-17.73
31.937,-16.62
31.953,-14.99
31.968,-12.96
31.984,-10.7
32.000,-8.35
32.015,-5.97
32.031,-3.57
32.046,-1.15
32.062,1.28
32.078,3.74
32.093,6.29
32.109,9.08
32.125,12.31
32.140,16.12
32.156,20.54
32.171,25.43
32.187,30.52
32.203,35.62
32.218,40.68
32.234,45.85
32.250,51.4
32.265,57.57
32.281,64.41
32.296,71.78
32.312,79.31
32.328,86.55
32.343,93.02
32.359,98.28
32.375,101.96
32.390,103.88
32.406,104.07
32.421,102.82
32.437,100.68
32.453,98.31
32.468,96.37
32.484,95.26
32.500,94.93
32.515,94.86
32.531,94.2
32.546,92.05
32.562,87.78
32.578,81.24
32.593,72.78
32.609,63.04
32.625,52.62
32.640,41.85
32.656,30.78
32.671,19.29
32.687,7.32
32.703,-5.0
32.718,-17.33
32.734,-29.3
32.750,-40.53
32.765,-50.73
32.781,-59.61
32.796,-66.88
32.812,-72.4
32.828,-76.2
32.843,-78.68
32.859,-80.41
32.875,-81.95
32.890,-83.53
32.906,-84.83
32.921,-85.11
32.937,-83.41
32.953,-78.99
32.968,-71.48
32.984,-61.07
33.000,-48.4
33.015,-34.43
33.031,-20.25
33.046,-6.98
33.062,4.35
33.078,12.94
33.093,18.38
33.109,20.72
33.125,20.5
33.140,18.48
33.156,15.49
33.171,12.18
33.187,8.86
33.203,5.59
33.218,2.2
33.234,-1.47
33.250,-5.48
33.265,-9.63
33.281,-13.56
33.296,-16.85
33.312,-19.16
33.328,-20.53
33.343,-21.31
33.359,-22.16
33.375,-23.77
33.390,-26.58
33.406,-30.5
33.421,-34.9
33.437,-38.84
33.453,-41.39
33.468,-41.96
33.484,-40.49
33.500,-37.37
33.515,-33.25
33.531,-28.77
33.546,-24.32
33.562,-20.1
33.578,-16.15
33.593,-12.44
33.609,-9.0
33.625,-5.79
33.640,-2.67
33.656,0.68
33.671,4.66
33.687,9.5
33.703,15.16
33.718,21.24
33.734,27.08
33.750,32.01
33.765,35.56
33.781,37.57
33.796,38.1
33.812,37.32
33.828,35.32
33.843,32.11
33.859,27.66
33.875,22.01
33.890,15.3
33.906,7.82
33.921,-0.1
33.937,-8.18
33.953,-16.19
33.968,-23.97
33.984,-31.34
34.000,-38.01
34.015,-43.63
34.031,-48.02
34.046,-51.24
34.062,-53.68
34.078,-55.98
34.093,-58.77
34.109,-62.41
34.125,-66.89
34.140,-71.85
34.156,-76.64
34.171,-80.64
34.187,-83.27
34.203,-84.11
34.218,-83.04
34.234,-80.16
34.250,-75.83
34.265,-70.64
34.281,-65.22
34.296,-60.12
34.312,-55.64
34.328,-51.8
34.343,-48.49
34.359,-45.46
34.375,-42.51
34.390,-39.48
34.406,-36.28
34.421,-32.91
34.437,-29.44
34.453,-26.02
34.468,-22.79
34.484,-19.9
34.500,-17.48
34.515,-15.53
34.531,-14.06
34.546,-12.98
34.562,-12.14
34.578,-11.43
34.593,-10.73
34.609,-10.08
34.625,-9.55
34.640,-9.32
34.656,-9.5
34.671,-10.15
34.687,-11.14
34.703,-12.26
34.718,-13.22
34.734,-13.79
34.750,-13.88
34.765,-13.49
34.781,-12.8
34.796,-11.97
34.812,-11.28
34.828,-10.82
34.843,-10.61
34.859,-10.49
34.875,-10.22
34.890,-9.49
34.906,-8.06
34.921,-5.85
34.937,-2.92
34.953,0.43
34.968,3.88
34.984,7.1
35.000,9.88
35.015,12.15
35.031,13.88
35.046,15.11
35.062,15.79
35.078,15.84
35.093,15.19
35.109,13.83
35.125,11.92
35.140,9.73
35.156,7.65
35.171,5.96
35.187,4.86
35.203,4.31
35.218,4.09
35.234,3.96
35.250,3.63
35.265,2.95
35.281,1.89
35.296,0.56
35.312,-0.89
35.328,-2.23
35.343,-3.32
35.359,-4.11
35.375,-4.58
35.390,-4.87
35.406,-5.2
35.421,-5.87
35.437,-7.15
35.453,-9.16
35.468,-11.71
35.484,-14.25
35.500,-16.08
35.515,-16.5
35.531,-15.16
35.546,-12.17
35.562,-8.04
35.578,-3.56
35.593,0.56
35.609,3.89
35.625,6.3
35.640,7.82
35.656,8.61
35.671,8.69
35.687,8.11
35.703,6.95
35.718,5.38
35.734,3.69
35.750,2.28
35.765,1.46
35.781,1.39
35.796,2.05
35.812,3.2
35.828,4.48
35.843,5.53
35.859,6.05
35.875,5.87
35.890,4.97
35.906,3.47
35.921,1.61
35.937,-0.33
35.953,-2.06
35.968,-3.46
35.984,-4.53
36.000,-5.44
36.015,-6.5
36.031,-7.94
36.046,-9.84
36.062,-11.98
36.078,-13.9
36.093,-14.97
36.109,-14.64
36.125,-12.59
36.140,-8.91
36.156,-4.25
36.171,0.41
36.187,3.95
36.203,5.5
36.218,4.7
36.234,1.87
36.250,-2.15
36.265,-6.26
36.281,-9.44
36.296,-11.11
36.312,-11.15
36.328,-9.81
36.343,-7.56
36.359,-4.79
36.375,-1.83
36.390,1.07
36.406,3.72
36.421,5.94
36.437,7.6
36.453,8.69
36.468,9.33
36.484,9.79
36.500,10.34
36.515,11.14
36.531,12.21
36.546,13.37
36.562,14.37
36.578,14.92
36.593,14.86
36.609,14.09
36.625,12.72
36.640,11.01
36.656,9.32
36.671,8.12
36.687,7.87
36.703,8.88
36.718,11.19
36.734,14.54
36.750,18.4
36.765,22.12
36.781,25.23
36.796,27.49
36.812,29.01
36.828,30.09
36.843,31.08
36.859,32.2
36.875,33.5
36.890,34.82
36.906,35.81
36.921,36.09
36.937,35.18
36.953,32.78
36.968,28.74
36.984,23.24
37.000,16.85
37.015,10.32
37.031,4.44
37.046,-0.18
37.062,-3.26
37.078,-4.9
37.093,-5.46
37.109,-5.43
37.125,-5.36
37.140,-5.67
37.156,-6.7
37.171,-8.66
37.187,-11.53
37.203,-15.08
37.218,-18.87
37.234,-22.32
37.250,-24.83
37.265,-25.95
37.281,-25.51
37.296,-23.66
37.312,-20.82
37.328,-17.54
37.343,-14.34
37.359,-11.64
37.375,-9.64
37.390,-8.37
37.406,-7.82
37.421,-7.89
37.437,-8.52
37.453,-9.63
37.468,-11.04
37.484,-12.51
37.500,-13.77
37.515,-14.55
37.531,-14.68
37.546,-14.09
37.562,-12.79
37.578,-10.78
37.593,-8.02
37.609,-4.45
37.625,-0.2
37.640,4.41
37.656,8.78
37.671,12.23
37.687,14.24
37.703,14.59
37.718,13.49
37.734,11.47
37.750,9.25
37.765,7.51
37.781,6.84
37.796,7.66
37.812,10.16
37.828,14.29
37.843,19.75
37.859,26.01
37.875,32.46
37.890,38.56
37.906,43.9
37.921,48.28
37.937,51.64
37.953,53.91
37.968,55.1
37.984,55.15
38.000,54.17
38.015,52.34
38.031,49.96
38.046,47.4
38.062,44.99
38.078,42.92
38.093,41.2
38.109,39.78
38.125,38.52
38.140,37.43
38.156,36.57
38.171,36.1
38.187,36.18
38.203,36.88
38.218,38.09
38.234,39.51
38.250,40.73
38.265,41.36
38.281,41.12
38.296,39.86
38.312,37.61
38.328,34.57
38.343,30.97
38.359,27.06
38.375,23.03
38.390,18.94
38.406,14.68
38.421,9.97
38.437,4.52
38.453,-1.88
38.468,-9.04
38.484,-16.49
38.500,-23.39
38.515,-28.87
38.531,-32.33
38.546,-33.69
38.562,-33.5
38.578,-32.71
38.593,-32.36
38.609,-33.2
38.625,-35.49
38.640,-38.85
38.656,-42.51
38.671,-45.63
38.687,-47.58
38.703,-48.09
38.718,-47.23
38.734,-45.27
38.750,-42.45
38.765,-39.03
38.781,-35.17
38.796,-31.19
38.812,-27.56
38.828,-24.89
38.843,-23.71
38.859,-24.28
38.875,-26.36
38.890,-29.22
38.906,-31.95
38.921,-33.7
38.937,-34.02
38.953,-33.01
38.968,-31.14
38.984,-29.07
39.000,-27.29
39.015,-25.97
39.031,-24.84
39.046,-23.41
39.062,-21.16
39.078,-17.81
39.093,-13.53
39.109,-8.82
39.125,-4.42
39.140,-1.06
39.156,0.86
39.171,1.35
39.187,0.77
39.203,-0.3
39.218,-1.38
39.234,-2.18
39.250,-2.6
39.265,-2.72
39.281,-2.62
39.296,-2.33
39.312,-1.86
39.328,-1.21
39.343,-0.44
39.359,0.28
39.375,0.8
39.390,1.01
39.406,0.91
39.421,0.65
39.437,0.5
39.453,0.75
39.468,1.67
39.484,3.38
39.500,5.8
39.515,8.67
39.531,11.71
39.546,14.62
39.562,17.18
39.578,19.32
39.593,20.94
39.609,21.99
39.625,22.42
39.640,22.2
39.656,21.38
39.671,20.16
39.687,18.77
39.703,17.46
39.718,16.41
39.734,15.63
39.750,15.12
39.765,14.88
39.781,15.03
39.796,15.73
39.812,17.09
39.828,18.98
39.843,20.99
39.859,22.46
39.875,22.7
39.890,21.23
39.906,17.98
39.921,13.35
39.937,8.05
39.953,2.92
39.968,-1.27
39.984,-4.05
40.000,-5.21
40.015,-4.86
40.031,-3.35
40.046,-1.15
40.062,1.18
40.078,3.2
40.093,4.63
40.109,5.4
40.125,5.53
40.140,5.19
40.156,4.49
40.171,3.57
40.187,2.52
40.203,1.37
40.218,0.18
40.234,-1.04
40.250,-2.28
40.265,-3.6
40.281,-5.0
40.296,-6.53
40.312,-8.19
40.328,-9.95
40.343,-11.76
40.359,-13.54
40.375,-15.16
40.390,-16.45
40.406,-17.28
40.421,-17.57
40.437,-17.36
40.453,-16.78
40.468,-15.97
40.484,-15.04
40.500,-13.98
40.515,-12.77
40.531,-11.35
40.546,-9.76
40.562,-8.06
40.578,-6.3
40.593,-4.42
40.609,-2.16
40.625,0.81
40.640,4.78
40.656,9.8
40.671,15.64
40.687,21.81
40.703,27.73
40.718,32.94
40.734,37.23
40.750,40.68
40.765,43.52
40.781,46.14
40.796,48.85
40.812,51.87
40.828,55.27
40.843,58.9
40.859,62.51
40.875,65.82
40.890,68.64
40.906,70.98
40.921,73.07
40.937,75.29
40.953,77.95
40.968,81.27
40.984,85.19
41.000,89.55
41.015,94.14
41.031,98.91
41.046,103.94
41.062,109.42
41.078,115.48
41.093,122.13
41.109,129.14
41.125,136.11
41.140,142.53
41.156,147.95
41.171,152.18
41.187,155.42
41.203,158.24
41.218,161.37
41.234,165.44
41.250,170.64
41.265,176.62
41.281,182.53
41.296,187.18
41.312,189.43
41.328,188.35
41.343,183.41
41.359,174.45
41.375,161.74
41.390,146.02
41.406,128.4
41.421,110.25
41.437,92.92
41.453,77.49
41.468,64.56
41.484,54.29
41.500,46.57
41.515,41.24
41.531,38.26
41.546,37.53
41.562,38.71
41.578,40.94
41.593,42.84
41.609,42.72
41.625,39.08
41.640,31.09
41.656,18.85
41.671,3.49
41.687,-13.05
41.703,-28.34
41.718,-39.86
41.734,-45.67
41.750,-45.02
41.765,-38.74
41.781,-29.26
41.796,-19.93
41.812,-14.03
41.828,-13.69
41.843,-19.26
41.859,-29.38
41.875,-41.78
41.890,-54.05
41.906,-64.22
41.921,-71.01
41.937,-73.94
41.953,-73.42
41.968,-70.78
41.984,-67.97
42.000,-66.84
42.015,-68.11
42.031,-70.66
42.046,-71.59
42.062,-67.2
42.078,-54.58
42.093,-32.88
42.109,-3.89
42.125,28.42
42.140,59.14
42.156,83.76
42.171,99.34
42.187,105.09
42.203,102.16
42.218,93.0
42.234,80.29
42.250,66.08
42.265,51.11
42.281,35.14
42.296,17.63
42.312,-1.35
42.328,-20.78
42.343,-38.95
42.359,-54.14
42.375,-65.4
42.390,-72.91
42.406,-77.81
42.421,-81.74
42.437,-86.34
42.453,-93.08
42.468,-103.43
42.484,-119.14
42.500,-142.01
42.515,-173.3
42.531,-212.39
42.546,-256.11
42.562,-298.66
42.578,-333.03
42.593,-353.33
42.609,-356.97
42.625,-345.65
42.640,-324.48
42.656,-299.7
42.671,-276.2
42.687,-256.06
42.703,-238.63
42.718,-221.98
42.734,-204.5
42.750,-185.72
42.765,-166.22
42.781,-146.8
42.796,-127.8
42.812,-109.0
42.828,-90.0
42.843,-70.7
42.859,-51.62
42.875,-33.68
42.890,-17.65
42.906,-3.63
42.921,9.23
42.937,22.42
42.953,37.51
42.968,55.48
42.984,76.34
43.000,99.06
43.015,121.98
43.031,143.38
43.046,162.01
43.062,177.27
43.078,189.11
43.093,197.74
43.109,203.41
43.125,206.32
43.140,206.77
43.156,205.24
43.171,202.45
43.187,199.25
43.203,196.33
43.218,194.0
43.234,192.05
43.250,189.64
43.265,185.48
43.281,178.15
43.296,166.47
43.312,149.83
43.328,128.37
43.343,102.85
43.359,74.29
43.375,43.7
43.390,11.85
43.406,-20.57
43.421,-52.63
43.437,-83.1
43.453,-110.51
43.468,-133.62
43.484,-151.73
43.500,-165.06
43.515,-174.74
43.531,-182.64
43.546,-190.8
43.562,-200.74
43.578,-212.9
43.593,-226.4
43.609,-239.07
43.625,-248.05
43.640,-250.76
43.656,-245.81
43.671,-233.63
43.687,-216.26
43.703,-196.66
43.718,-177.71
43.734,-161.47
43.750,-149.04
43.765,-140.77
43.781,-136.62
43.796,-136.32
43.812,-139.22
43.828,-144.12
43.843,-149.22
43.859,-152.62
43.875,-152.67
43.890,-148.69
43.906,-141.08
43.921,-131.06
43.937,-120.01
43.953,-108.91
43.968,-98.06
43.984,-87.31
44.000,-76.46
44.015,-65.43
44.031,-54.4
44.046,-43.52
44.062,-32.57
44.078,-20.84
44.093,-7.42
44.109,8.29
44.125,26.16
44.140,45.21
44.156,63.92
44.171,80.92
44.187,95.63
44.203,108.48
44.218,120.58
44.234,133.05
44.250,146.36
44.265,160.23
44.281,173.88
44.296,186.61
44.312,198.42
44.328,210.02
44.343,222.59
44.359,237.03
44.375,253.42
44.390,270.71
44.406,286.96
44.421,299.77
44.437,306.77
44.453,306.17
44.468,297.16
44.484,279.96
44.500,255.9
44.515,227.06
44.531,195.8
44.546,164.21
44.562,133.69
44.578,104.74
44.593,77.08
44.609,50.24
44.625,24.24
44.640,0.07
44.656,-20.57
44.671,-36.03
44.687,-45.89
44.703,-51.71
44.718,-56.56
44.734,-63.66
44.750,-74.67
44.765,-88.49
44.781,-101.7
44.796,-110.6
44.812,-113.38
44.828,-111.39
44.843,-108.72
44.859,-110.25
44.875,-119.29
44.890,-135.96
44.906,-156.93
44.921,-176.77
44.937,-190.22
44.953,-194.12
44.968,-188.44
44.984,-176.09
45.000,-161.6
45.015,-149.63
45.031,-143.64
45.046,-145.24
45.062,-154.12
45.078,-168.44
45.093,-185.24
45.109,-200.96
45.125,-212.0
45.140,-215.63
45.156,-210.82
45.171,-198.62
45.187,-181.33
45.203,-161.36
45.218,-139.94
45.234,-116.59
45.250,-89.94
45.265,-59.02
45.281,-24.06
45.296,13.0
45.312,49.33
45.328,82.48
45.343,110.93
45.359,134.05
45.375,151.52
45.390,162.56
45.406,165.7
45.421,159.57
45.437,143.92
45.453,120.33
45.468,92.33
45.484,64.23
45.500,39.44
45.515,19.06
45.531,1.43
45.546,-17.07
45.562,-40.03
45.578,-69.01
45.593,-102.3
45.609,-135.3
45.625,-162.13
45.640,-177.71
45.656,-179.45
45.671,-168.21
45.687,-147.76
45.703,-123.56
45.718,-101.15
45.734,-84.64
45.750,-76.11
45.765,-75.49
45.781,-81.03
45.796,-89.95
45.812,-99.27
45.828,-106.23
45.843,-108.71
45.859,-105.65
45.875,-97.24
45.890,-84.78
45.906,-70.47
45.921,-56.78
45.937,-45.72
45.953,-38.27
45.968,-34.12
45.984,-31.74
46.000,-29.19
46.015,-24.9
46.031,-17.93
46.046,-8.23
46.062,3.48
46.078,15.85
46.093,26.93
46.109,34.54
46.125,36.76
46.140,32.28
46.156,20.75
46.171,2.58
46.187,-21.35
46.203,-49.79
46.218,-81.09
46.234,-112.98
46.250,-142.59
46.265,-166.94
46.281,-183.9
46.296,-192.95
46.312,-195.58
46.328,-194.59
46.343,-192.82
46.359,-191.94
46.375,-191.84
46.390,-190.98
46.406,-187.18
46.421,-178.73
46.437,-164.8
46.453,-145.7
46.468,-122.66
46.484,-97.39
46.500,-71.74
46.515,-47.55
46.531,-26.41
46.546,-9.56
46.562,2.21
46.578,9.04
46.593,12.05
46.609,13.38
46.625,15.73
46.640,21.47
46.656,31.86
46.671,46.55
46.687,63.77
46.703,81.01
46.718,96.16
46.734,108.18
46.750,117.39
46.765,125.02
46.781,132.28
46.796,139.56
46.812,146.05
46.828,150.09
46.843,149.93
46.859,144.73
46.875,135.01
46.890,122.65
46.906,110.27
46.921,100.34
46.937,94.49
46.953,93.19
46.968,95.97
46.984,101.71
47.000,109.07
47.015,116.68
47.031,123.24
47.046,127.62
47.062,129.0
47.078,127.11
47.093,122.31
47.109,115.46
47.125,107.61
47.140,99.51
47.156,91.43
47.171,83.08
47.187,74.0
47.203,63.83
47.218,52.73
47.234,41.34
47.250,30.53
47.265,20.99
47.281,12.95
47.296,6.11
47.312,-0.13
47.328,-6.2
47.343,-12.23
47.359,-17.87
47.375,-22.63
47.390,-26.16
47.406,-28.51
47.421,-29.97
47.437,-30.86
47.453,-31.25
47.468,-30.83
47.484,-29.06
47.500,-25.34
47.515,-19.3
47.531,-10.85
47.546,-0.25
47.562,12.07
47.578,25.48
47.593,39.17
47.609,52.19
47.625,63.52
47.640,72.28
47.656,77.87
47.671,80.11
47.687,79.31
47.703,76.12
47.718,71.42
47.734,66.01
47.750,60.64
47.765,55.78
47.781,51.66
47.796,48.23
47.812,45.27
47.828,42.47
47.843,39.6
47.859,36.61
47.875,33.54
47.890,30.52
47.906,27.53
47.921,24.32
47.937,20.62
47.953,16.28
47.968,11.65
47.984,7.63
48.000,5.49
48.015,6.35
48.031,10.73
48.046,18.17
48.062,27.42
48.078,36.8
48.093,44.8
48.109,50.53
48.125,53.83
48.140,55.1
48.156,54.93
48.171,53.87
48.187,52.24
48.203,50.19
48.218,47.78
48.234,44.92
48.250,41.41
48.265,36.94
48.281,31.19
48.296,24.0
48.312,15.64
48.328,6.78
48.343,-1.61
48.359,-8.51
48.375,-13.29
48.390,-15.89
48.406,-16.83
48.421,-17.08
48.437,-17.6
48.453,-19.09
48.468,-21.83
48.484,-25.57
48.500,-29.69
48.515,-33.38
48.531,-35.81
48.546,-36.33
48.562,-34.63
48.578,-30.82
48.593,-25.29
48.609,-18.68
48.625,-11.58
48.640,-4.43
48.656,2.62
48.671,9.55
48.687,16.37
48.703,22.93
48.718,28.88
48.734,33.64
48.750,36.63
48.765,37.43
48.781,36.01
48.796,32.76
48.812,28.45
48.828,24.08
48.843,20.63
48.859,18.82
48.875,18.92
48.890,20.72
48.906,23.59
48.921,26.69
48.937,29.24
48.953,30.67
48.968,30.73
48.984,29.46
49.000,27.03
49.015,23.76
49.031,19.89
49.046,15.71
49.062,11.58
49.078,7.98
49.093,5.45
49.109,4.45
49.125,5.19
49.140,7.55
49.156,11.23
49.171,15.74
49.187,20.71
49.203,25.87
49.218,31.11
49.234,36.27
49.250,41.07
49.265,45.08
49.281,47.79
49.296,48.91
49.312,48.46
49.328,46.94
49.343,45.07
49.359,43.58
49.375,42.79
49.390,42.56
49.406,42.3
49.421,41.31
49.437,39.1
49.453,35.71
49.468,31.62
49.484,27.58
49.500,24.23
49.515,21.83
49.531,20.18
49.546,18.69
49.562,16.66
49.578,13.58
49.593,9.21
49.609,3.72
49.625,-2.49
49.640,-8.82
49.656,-14.66
49.671,-19.5
49.687,-22.99
49.703,-25.07
49.718,-25.87
49.734,-25.81
49.750,-25.38
49.765,-25.14
49.781,-25.49
49.796,-26.71
49.812,-28.89
49.828,-31.95
49.843,-35.69
49.859,-39.73
49.875,-43.56
49.890,-46.6
49.906,-48.39
49.921,-48.59
49.937,-47.18
49.953,-44.34
49.968,-40.34
49.984,-35.52
50.000,-30.14
50.015,-24.49
50.031,-18.94
50.046,-13.98
50.062,-10.09
50.078,-7.63
50.093,-6.59
50.109,-6.6
50.125,-7.15
50.140,-7.66
50.156,-7.79
50.171,-7.45
50.187,-6.67
50.203,-5.38
50.218,-3.4
50.234,-0.41
50.250,3.86
50.265,9.41
50.281,15.95
50.296,22.96
50.312,29.79
50.328,35.96
50.343,41.15
50.359,45.25
50.375,48.28
50.390,50.27
50.406,51.25
50.421,51.36
50.437,50.8
50.453,49.95
50.468,49.25
50.484,49.04
50.500,49.39
50.515,50.04
50.531,50.49
50.546,50.22
50.562,48.97
50.578,46.89
50.593,44.44
50.609,42.06
50.625,39.82
50.640,37.3
50.656,33.44
50.671,26.92
50.687,16.67
50.703,2.45
50.718,-14.68
50.734,-32.47
50.750,-48.0
50.765,-58.53
50.781,-62.27
50.796,-58.97
50.812,-50.02
50.828,-37.89
50.843,-25.31
50.859,-14.65
50.875,-7.44
50.890,-4.3
50.906,-5.18
50.921,-9.46
50.937,-16.13
50.953,-23.86
50.968,-31.17
50.984,-36.63
51.000,-39.17
51.015,-38.33
51.031,-34.35
51.046,-28.04
51.062,-20.59
51.078,-13.12
51.093,-6.44
51.109,-0.95
51.125,3.26
51.140,6.36
51.156,8.55
51.171,10.02
51.187,10.95
51.203,11.37
51.218,11.36
51.234,10.98
51.250,10.23
51.265,8.91
51.281,6.76
51.296,3.55
51.312,-0.66
51.328,-5.44
51.343,-10.07
51.359,-13.81
51.375,-16.25
51.390,-17.52
51.406,-18.21
51.421,-19.03
51.437,-20.41
51.453,-22.34
51.468,-24.41
51.484,-26.04
51.500,-26.8
51.515,-26.58
51.531,-25.54
51.546,-24.03
51.562,-22.29
51.578,-20.39
51.593,-18.19
51.609,-15.46
51.625,-12.04
51.640,-7.96
51.656,-3.52
51.671,0.87
51.687,4.8
51.703,8.13
51.718,10.98
51.734,13.7
51.750,16.66
51.765,19.9
51.781,23.12
51.796,25.68
51.812,26.97
51.828,26.69
51.843,25.06
51.859,22.72
51.875,20.52
51.890,19.15
51.906,18.92
51.921,19.63
51.937,20.79
51.953,21.75
51.968,21.89
51.984,20.86
52.000,18.6
52.015,15.4
52.031,11.86
52.046,8.66
52.062,6.39
52.078,5.33
52.093,5.31
52.109,5.82
52.125,6.16
52.140,5.81
52.156,4.52
52.171,2.49
52.187,0.17
52.203,-1.93
52.218,-3.46
52.234,-4.36
52.250,-4.74
52.265,-4.82
52.281,-4.83
52.296,-4.92
52.312,-5.18
52.328,-5.72
52.343,-6.66
52.359,-8.11
52.375,-10.14
52.390,-12.75
52.406,-15.84
52.421,-19.33
52.437,-23.08
52.453,-26.85
52.468,-30.29
52.484,-32.9
52.500,-34.1
52.515,-33.45
52.531,-30.85
52.546,-26.59
52.562,-21.33
52.578,-15.91
52.593,-11.07
52.609,-7.29
52.625,-4.76
52.640,-3.27
52.656,-2.47
52.671,-1.95
52.687,-1.28
52.703,-0.16
52.718,1.55
52.734,3.9
52.750,6.82
52.765,10.12
52.781,13.53
52.796,16.64
52.812,19.02
52.828,20.31
52.843,20.33
52.859,19.19
52.875,17.24
52.890,14.98
52.906,12.85
52.921,11.07
52.937,9.58
52.953,8.12
52.968,6.43
52.984,4.33
53.000,1.8
53.015,-0.89
53.031,-3.37
53.046,-5.23
53.062,-6.08
53.078,-5.6
53.093,-3.64
53.109,-0.13
53.125,4.85
53.140,11.05
53.156,18.06
53.171,25.25
53.187,31.74
53.203,36.56
53.218,38.9
53.234,38.33
53.250,35.06
53.265,29.89
53.281,23.94
53.296,18.27
53.312,13.54
53.328,9.84
53.343,6.82
53.359,4.0
53.375,1.07
53.390,-2.03
53.406,-5.14
53.421,-8.05
53.437,-10.65
53.453,-12.95
53.468,-15.08
53.484,-17.11
53.500,-19.09
53.515,-21.09
53.531,-23.25
53.546,-25.75
53.562,-28.76
53.578,-32.22
53.593,-35.82
53.609,-39.0
53.625,-41.19
53.640,-41.98
53.656,-41.3
53.671,-39.41
53.687,-36.67
53.703,-33.33
53.718,-29.45
53.734,-24.94
53.750,-19.68
53.765,-13.77
53.781,-7.53
53.796,-1.5
53.812,3.77
53.828,7.94
53.843,10.99
53.859,13.15
53.875,14.88
53.890,16.7
53.906,18.93
53.921,21.68
53.937,24.76
53.953,27.77
53.968,30.21
53.984,31.63
54.000,31.74
54.015,30.53
54.031,28.2
54.046,25.04
54.062,21.38
54.078,17.53
54.093,13.69
54.109,10.06
54.125,6.76
54.140,3.85
54.156,1.39
54.171,-0.54
54.187,-1.92
54.203,-2.68
54.218,-2.82
54.234,-2.39
54.250,-1.51
54.265,-0.29
54.281,1.2
54.296,2.84
54.312,4.58
54.328,6.25
54.343,7.67
54.359,8.69
54.375,9.27
54.390,9.53
54.406,9.72
54.421,10.08
54.437,10.81
54.453,12.0
54.468,13.56
54.484,15.3
54.500,16.93
54.515,18.04
54.531,18.23
54.546,17.18
54.562,14.85
54.578,11.61
54.593,8.11
54.609,5.1
54.625,3.11
54.640,2.28
54.656,2.29
54.671,2.59
54.687,2.62
54.703,2.05
54.718,0.85
54.734,-0.86
54.750,-2.85
54.765,-4.96
54.781,-6.99
54.796,-8.72
54.812,-9.94
54.828,-10.47
54.843,-10.27
54.859,-9.52
54.875,-8.57
54.890,-7.79
54.906,-7.48
54.921,-7.77
54.937,-8.62
54.953,-9.85
54.968,-11.26
54.984,-12.67
55.000,-13.97
55.015,-15.04
55.031,-15.82
55.046,-16.26
55.062,-16.37
55.078,-16.09
55.093,-15.36
55.109,-14.05
55.125,-12.07
55.140,-9.45
55.156,-6.34
55.171,-3.05
55.187,-0.01
55.203,2.35
55.218,3.73
55.234,3.97
55.250,3.15
55.265,1.54
55.281,-0.51
55.296,-2.57
55.312,-4.21
55.328,-5.1
55.343,-4.98
55.359,-3.71
55.375,-1.34
55.390,1.93
55.406,5.78
55.421,9.8
55.437,13.63
55.453,17.04
55.468,19.96
55.484,22.38
55.500,24.32
55.515,25.77
55.531,26.65
55.546,26.84
55.562,26.23
55.578,24.74
55.593,22.41
55.609,19.41
55.625,16.01
55.640,12.55
55.656,9.44
55.671,6.95
55.687,5.26
55.703,4.27
55.718,3.73
55.734,3.34
55.750,2.89
55.765,2.34
55.781,1.77
55.796,1.34
55.812,1.14
55.828,1.18
55.843,1.33
55.859,1.44
55.875,1.35
55.890,0.99
55.906,0.33
55.921,-0.56
55.937,-1.56
55.953,-2.5
55.968,-3.14
55.984,-3.24
56.000,-2.69
56.015,-1.49
56.031,0.2
56.046,2.06
56.062,3.76
56.078,5.11
56.093,5.94
56.109,6.34
56.125,6.36
56.140,6.11
56.156,5.66
56.171,5.05
56.187,4.32
56.203,3.53
56.218,2.76
56.234,2.01
56.250,1.26
56.265,0.39
56.281,-0.73
56.296,-2.28
56.312,-4.38
56.328,-6.99
56.343,-9.95
56.359,-12.97
56.375,-15.75
56.390,-18.17
56.406,-20.27
56.421,-22.25
56.437,-24.37
56.453,-26.74
56.468,-29.22
56.484,-31.43
56.500,-32.8
56.515,-32.69
56.531,-30.64
56.546,-26.46
56.562,-20.38
56.578,-13.1
56.593,-5.61
56.609,1.06
56.625,6.17
56.640,9.46
56.656,11.28
56.671,12.32
56.687,13.35
56.703,14.86
56.718,16.9
56.734,19.18
56.750,21.34
56.765,23.1
56.781,24.47
56.796,25.58
56.812,26.52
56.828,27.14
56.843,27.1
56.859,26.04
56.875,23.92
56.890,21.09
56.906,18.2
56.921,15.93
56.937,14.66
56.953,14.2
56.968,14.0
56.984,13.37
57.000,11.8
57.015,9.23
57.031,5.99
57.046,2.59
57.062,-0.47
57.078,-2.88
57.093,-4.62
57.109,-5.8
57.125,-6.54
57.140,-6.85
57.156,-6.61
57.171,-5.63
57.187,-3.86
57.203,-1.43
57.218,1.3
57.234,3.92
57.250,6.14
57.265,7.9
57.281,9.3
57.296,10.41
57.312,11.18
57.328,11.39
57.343,10.82
57.359,9.46
57.375,7.67
57.390,6.09
57.406,5.37
57.421,5.91
57.437,7.64
57.453,10.1
57.468,12.56
57.484,14.41
57.500,15.29
57.515,15.16
57.531,14.22
57.546,12.73
57.562,10.87
57.578,8.69
57.593,6.1
57.609,3.07
57.625,-0.32
57.640,-3.87
57.656,-7.22
57.671,-10.03
57.687,-12.08
57.703,-13.37
57.718,-14.06
57.734,-14.45
57.750,-14.78
57.765,-15.19
57.781,-15.69
57.796,-16.25
57.812,-16.82
57.828,-17.36
57.843,-17.87
57.859,-18.22
57.875,-18.21
57.890,-17.52
57.906,-15.85
57.921,-13.09
57.937,-9.46
57.953,-5.48
57.968,-1.8
57.984,1.01
58.000,2.66
58.015,3.21
58.031,3.08
58.046,2.82
58.062,2.94
58.078,3.74
58.093,5.17
58.109,7.04
58.125,9.12
58.140,11.21
58.156,13.25
58.171,15.26
58.187,17.27
58.203,19.17
58.218,20.69
58.234,21.46
58.250,21.21
58.265,19.84
58.281,17.47
58.296,14.47
58.312,11.24
58.328,8.13
58.343,5.27
58.359,2.64
58.375,0.12
58.390,-2.38
58.406,-4.75
58.421,-6.77
58.437,-8.16
58.453,-8.75
58.468,-8.63
58.484,-8.07
58.500,-7.4
58.515,-6.88
58.531,-6.59
58.546,-6.4
58.562,-6.13
58.578,-5.58
58.593,-4.75
58.609,-3.83
58.625,-3.13
58.640,-2.99
58.656,-3.63
58.671,-5.08
58.687,-7.12
58.703,-9.37
58.718,-11.31
58.734,-12.54
58.750,-12.75
58.765,-11.85
58.781,-9.9
58.796,-7.07
58.812,-3.56
58.828,0.46
58.843,4.72
58.859,8.99
58.875,12.87
58.890,15.95
58.906,17.76
58.921,17.98
58.937,16.46
58.953,13.36
58.968,9.1
58.984,4.24
59.000,-0.57
59.015,-4.81
59.031,-8.05
59.046,-10.13
59.062,-11.03
59.078,-10.92
59.093,-10.09
59.109,-8.88
59.125,-7.61
59.140,-6.44
59.156,-5.49
59.171,-4.73
59.187,-4.16
59.203,-3.79
59.218,-3.68
59.234,-3.88
59.250,-4.3
59.265,-4.76
59.281,-4.91
59.296,-4.39
59.312,-3.02
59.328,-0.8
59.343,1.92
59.359,4.6
59.375,6.7
59.390,7.84
59.406,7.96
59.421,7.31
59.437,6.32
59.453,5.44
59.468,4.92
59.484,4.76
59.500,4.79
59.515,4.78
59.531,4.6
59.546,4.28
59.562,3.88
59.578,3.44
59.593,2.91
59.609,2.22
59.625,1.34
59.640,0.33
59.656,-0.65
59.671,-1.45
59.687,-1.97
59.703,-2.27
59.718,-2.54
59.734,-2.96
59.750,-3.68
59.765,-4.74
59.781,-6.07
59.796,-7.52
59.812,-8.86
59.828,-9.83
59.843,-10.17
59.859,-9.77
59.875,-8.69
59.890,-7.11
59.906,-5.33
59.921,-3.52
59.937,-1.85
59.953,-0.31
59.968,1.13
59.984,2.44
