timestamp,value
00.000,34.61
00.015,31.51
00.031,27.66
00.046,23.82
00.062,20.52
00.078,17.98
00.093,16.03
00.109,14.18
00.125,11.86
00.140,8.59
00.156,4.21
00.171,-0.92
00.187,-6.15
00.203,-10.82
00.218,-14.5
00.234,-17.29
00.250,-19.75
00.265,-22.66
00.281,-26.83
00.296,-32.97
00.312,-41.51
00.328,-52.69
00.343,-66.18
00.359,-80.97
00.375,-95.2
00.390,-106.44
00.406,-112.32
00.421,-111.25
00.437,-103.02
00.453,-88.68
00.468,-70.21
00.484,-49.75
00.500,-29.08
00.515,-9.48
00.531,8.15
00.546,23.07
00.562,34.63
00.578,42.3
00.593,45.97
00.609,45.99
00.625,43.1
00.640,38.3
00.656,32.53
00.671,26.52
00.687,20.71
00.703,15.31
00.718,10.38
00.734,5.92
00.750,1.88
00.765,-1.83
00.781,-5.31
00.796,-8.68
00.812,-12.09
00.828,-15.6
00.843,-19.17
00.859,-22.69
00.875,-25.99
00.890,-28.99
00.906,-31.82
00.921,-34.83
00.937,-38.42
00.953,-42.85
00.968,-47.93
00.984,-52.88
01.000,-56.52
01.015,-57.53
01.031,-55.01
01.046,-48.86
01.062,-39.72
01.078,-28.81
01.093,-17.34
01.109,-6.26
01.125,4.02
01.140,13.36
01.156,21.75
01.171,29.09
01.187,35.1
01.203,39.46
01.218,41.87
01.234,42.27
01.250,40.76
01.265,37.71
01.281,33.59
01.296,29.07
01.312,24.76
01.328,21.14
01.343,18.44
01.359,16.57
01.375,15.19
01.390,13.83
01.406,12.08
01.421,9.58
01.437,6.17
01.453,1.81
01.468,-3.41
01.484,-9.3
01.500,-15.59
01.515,-22.03
01.531,-28.42
01.546,-34.71
01.562,-40.99
01.578,-47.4
01.593,-53.98
01.609,-60.48
01.625,-66.29
01.640,-70.5
01.656,-72.07
01.671,-70.24
01.687,-64.73
01.703,-55.93
01.718,-44.7
01.734,-32.11
01.750,-19.11
01.765,-6.28
01.781,6.01
01.796,17.55
01.812,27.97
01.828,36.79
01.843,43.44
01.859,47.54
01.875,49.13
01.890,48.59
01.906,46.54
01.921,43.6
01.937,40.24
01.953,36.75
01.968,33.27
01.984,29.87
02.000,26.61
02.015,23.52
02.031,20.49
02.046,17.27
02.062,13.6
02.078,9.34
02.093,4.49
02.109,-0.67
02.125,-5.77
02.140,-10.52
02.156,-14.73
02.171,-18.52
02.187,-22.17
02.203,-26.16
02.218,-31.07
02.234,-37.48
02.250,-45.64
02.265,-55.23
02.281,-65.11
02.296,-73.46
02.312,-78.32
02.328,-78.2
02.343,-72.65
02.359,-62.37
02.375,-48.86
02.390,-33.71
02.406,-18.21
02.421,-3.13
02.437,11.12
02.453,24.2
02.468,35.7
02.484,45.19
02.500,52.35
02.515,57.24
02.531,60.14
02.546,61.48
02.562,61.64
02.578,60.88
02.593,59.35
02.609,57.22
02.625,54.73
02.640,52.11
02.656,49.7
02.671,47.71
02.687,46.2
02.703,44.93
02.718,43.38
02.734,40.8
02.750,36.54
02.765,30.24
02.781,22.04
02.796,12.6
02.812,2.75
02.828,-6.76
02.843,-15.52
02.859,-23.5
02.875,-31.0
02.890,-38.39
02.906,-45.95
02.921,-53.73
02.937,-61.37
02.953,-68.1
02.968,-72.77
02.984,-74.19
03.000,-71.59
03.015,-64.99
03.031,-55.24
03.046,-43.77
03.062,-31.96
03.078,-20.66
03.093,-10.11
03.109,-0.09
03.125,9.53
03.140,18.48
03.156,26.17
03.171,32.0
03.187,35.8
03.203,37.93
03.218,39.16
03.234,40.2
03.250,41.38
03.265,42.56
03.281,43.31
03.296,43.21
03.312,42.07
03.328,40.0
03.343,37.3
03.359,34.41
03.375,31.57
03.390,28.82
03.406,25.93
03.421,22.5
03.437,18.19
03.453,12.88
03.468,6.79
03.484,0.36
03.500,-5.85
03.515,-11.47
03.531,-16.48
03.546,-21.16
03.562,-26.0
03.578,-31.38
03.593,-37.48
03.609,-44.11
03.625,-50.72
03.640,-56.46
03.656,-60.27
03.671,-61.14
03.687,-58.4
03.703,-51.89
03.718,-42.12
03.734,-30.07
03.750,-16.91
03.765,-3.67
03.781,8.92
03.796,20.49
03.812,30.83
03.828,39.71
03.843,46.87
03.859,52.03
03.875,55.11
03.890,56.32
03.906,56.13
03.921,55.09
03.937,53.7
03.953,52.23
03.968,50.76
03.984,49.31
04.000,48.02
04.015,47.21
04.031,47.28
04.046,48.39
04.062,50.25
04.078,52.07
04.093,52.66
04.109,50.87
04.125,45.99
04.140,38.03
04.156,27.7
04.171,16.17
04.187,4.54
04.203,-6.49
04.218,-16.77
04.234,-26.56
04.250,-36.26
04.265,-46.16
04.281,-56.26
04.296,-66.42
04.312,-76.4
04.328,-85.95
04.343,-94.56
04.359,-101.31
04.375,-104.87
04.390,-103.89
04.406,-97.45
04.421,-85.59
04.437,-69.35
04.453,-50.42
04.468,-30.58
04.484,-11.11
04.500,7.32
04.515,24.63
04.531,40.79
04.546,55.58
04.562,68.45
04.578,78.66
04.593,85.58
04.609,88.92
04.625,88.89
04.640,86.11
04.656,81.36
04.671,75.28
04.687,68.17
04.703,60.06
04.718,50.91
04.734,40.87
04.750,30.49
04.765,20.64
04.781,12.09
04.796,5.27
04.812,0.04
04.828,-4.24
04.843,-8.38
04.859,-12.99
04.875,-18.28
04.890,-24.01
04.906,-29.59
04.921,-34.33
04.937,-37.69
04.953,-39.41
04.968,-39.74
04.984,-39.42
05.000,-39.58
05.015,-41.34
05.031,-45.49
05.046,-52.01
05.062,-59.87
05.078,-67.33
05.093,-72.31
05.109,-73.15
05.125,-69.09
05.140,-60.42
05.156,-48.22
05.171,-33.87
05.187,-18.58
05.203,-3.21
05.218,11.65
05.234,25.47
05.250,37.59
05.265,47.24
05.281,53.81
05.296,57.12
05.312,57.59
05.328,56.13
05.343,53.76
05.359,51.25
05.375,48.9
05.390,46.59
05.406,43.97
05.421,40.78
05.437,37.1
05.453,33.3
05.468,29.9
05.484,27.24
05.500,25.3
05.515,23.65
05.531,21.62
05.546,18.62
05.562,14.39
05.578,9.09
05.593,3.14
05.609,-2.97
05.625,-8.92
05.640,-14.6
05.656,-20.09
05.671,-25.56
05.687,-31.22
05.703,-37.36
05.718,-44.31
05.734,-52.32
05.750,-61.24
05.765,-70.39
05.781,-78.4
05.796,-83.5
05.812,-84.1
05.828,-79.25
05.843,-69.04
05.859,-54.47
05.875,-37.12
05.890,-18.55
05.906,-0.06
05.921,17.53
05.937,33.71
05.953,48.04
05.968,60.01
05.984,69.15
06.000,75.11
06.015,77.94
06.031,78.16
06.046,76.62
06.062,74.28
06.078,71.88
06.093,69.75
06.109,67.73
06.125,65.35
06.140,62.1
06.156,57.69
06.171,52.16
06.187,45.9
06.203,39.5
06.218,33.43
06.234,27.98
06.250,23.14
06.265,18.6
06.281,14.0
06.296,9.06
06.312,3.63
06.328,-2.15
06.343,-7.97
06.359,-13.53
06.375,-18.66
06.390,-23.35
06.406,-27.84
06.421,-32.41
06.437,-37.33
06.453,-42.84
06.468,-49.09
06.484,-55.98
06.500,-63.1
06.515,-69.62
06.531,-74.27
06.546,-75.79
06.562,-73.21
06.578,-66.34
06.593,-55.8
06.609,-42.82
06.625,-28.76
06.640,-14.74
06.656,-1.39
06.671,11.05
06.687,22.36
06.703,32.28
06.718,40.29
06.734,45.88
06.750,48.81
06.765,49.18
06.781,47.51
06.796,44.58
06.812,41.17
06.828,37.86
06.843,34.89
06.859,32.13
06.875,29.3
06.890,26.14
06.906,22.57
06.921,18.72
06.937,14.84
06.953,11.13
06.968,7.52
06.984,3.73
07.000,-0.77
07.015,-6.45
07.031,-13.55
07.046,-21.91
07.062,-30.98
07.078,-39.97
07.093,-48.08
07.109,-54.72
07.125,-59.55
07.140,-62.64
07.156,-64.3
07.171,-65.16
07.187,-65.94
07.203,-67.38
07.218,-70.02
07.234,-73.94
07.250,-78.45
07.265,-82.17
07.281,-83.33
07.296,-80.37
07.312,-72.51
07.328,-60.04
07.343,-44.17
07.359,-26.63
07.375,-9.05
07.390,7.47
07.406,22.34
07.421,35.36
07.437,46.34
07.453,54.97
07.468,60.94
07.484,64.19
07.500,65.13
07.515,64.53
07.531,63.35
07.546,62.24
07.562,61.4
07.578,60.5
07.593,59.02
07.609,56.54
07.625,53.04
07.640,48.94
07.656,44.85
07.671,41.3
07.687,38.43
07.703,36.05
07.718,33.69
07.734,30.81
07.750,27.02
07.765,22.11
07.781,16.13
07.796,9.19
07.812,1.5
07.828,-6.74
07.843,-15.35
07.859,-24.15
07.875,-33.02
07.890,-41.92
07.906,-50.89
07.921,-59.95
07.937,-68.9
07.953,-77.2
07.968,-83.79
07.984,-87.34
08.000,-86.6
08.015,-80.83
08.031,-70.21
08.046,-55.72
08.062,-38.9
08.078,-21.32
08.093,-4.25
08.109,11.54
08.125,25.59
08.140,37.64
08.156,47.46
08.171,54.92
08.187,60.07
08.203,63.18
08.218,64.7
08.234,65.04
08.250,64.45
08.265,62.89
08.281,60.17
08.296,56.07
08.312,50.57
08.328,43.96
08.343,36.85
08.359,29.96
08.375,23.96
08.390,19.15
08.406,15.35
08.421,11.97
08.437,8.32
08.453,3.87
08.468,-1.5
08.484,-7.52
08.500,-13.76
08.515,-19.84
08.531,-25.67
08.546,-31.41
08.562,-37.36
08.578,-43.79
08.593,-50.86
08.609,-58.55
08.625,-66.59
08.640,-74.42
08.656,-81.12
08.671,-85.41
08.687,-85.94
08.703,-81.6
08.718,-72.01
08.734,-57.69
08.750,-39.92
08.765,-20.45
08.781,-0.97
08.796,17.22
08.812,33.28
08.828,46.75
08.843,57.32
08.859,64.79
08.875,69.08
08.890,70.39
08.906,69.32
08.921,66.69
08.937,63.46
08.953,60.38
08.968,57.82
08.984,55.74
09.000,53.76
09.015,51.42
09.031,48.34
09.046,44.37
09.062,39.57
09.078,34.15
09.093,28.26
09.109,21.87
09.125,14.77
09.140,6.7
09.156,-2.44
09.171,-12.51
09.187,-23.14
09.203,-33.84
09.218,-44.27
09.234,-54.37
09.250,-64.36
09.265,-74.52
09.281,-85.05
09.296,-95.84
09.312,-106.43
09.328,-115.96
09.343,-123.23
09.359,-126.9
09.375,-125.74
09.390,-119.03
09.406,-106.81
09.421,-90.02
09.437,-70.21
09.453,-49.08
09.468,-27.96
09.484,-7.65
09.500,11.47
09.515,29.1
09.531,44.67
09.546,57.35
09.562,66.34
09.578,71.24
09.593,72.44
09.609,71.01
09.625,68.35
09.640,65.73
09.656,63.8
09.671,62.64
09.687,61.81
09.703,60.74
09.718,59.03
09.734,56.61
09.750,53.67
09.765,50.58
09.781,47.61
09.796,44.76
09.812,41.76
09.828,38.15
09.843,33.5
09.859,27.54
09.875,20.25
09.890,11.75
09.906,2.2
09.921,-8.31
09.937,-19.78
09.953,-32.17
09.968,-45.28
09.984,-58.72
10.000,-71.91
10.015,-84.17
10.031,-94.79
10.046,-102.97
10.062,-107.71
10.078,-107.96
10.093,-102.86
10.109,-92.22
10.125,-76.66
10.140,-57.63
10.156,-36.99
10.171,-16.46
10.187,2.78
10.203,20.12
10.218,35.37
10.234,48.36
10.250,58.83
10.265,66.44
10.281,70.96
10.296,72.59
10.312,71.88
10.328,69.62
10.343,66.55
10.359,63.14
10.375,59.59
10.390,55.84
10.406,51.89
10.421,47.78
10.437,43.69
10.453,39.9
10.468,36.57
10.484,33.64
10.500,30.81
10.515,27.63
10.531,23.69
10.546,18.75
10.562,12.85
10.578,6.26
10.593,-0.54
10.609,-7.22
10.625,-13.61
10.640,-19.87
10.656,-26.48
10.671,-34.0
10.687,-42.82
10.703,-52.79
10.718,-63.07
10.734,-72.1
10.750,-78.02
10.765,-79.07
10.781,-74.23
10.796,-63.52
10.812,-48.03
10.828,-29.56
10.843,-10.28
10.859,7.79
10.875,23.15
10.890,34.86
10.906,42.6
10.921,46.62
10.937,47.5
10.953,46.03
10.968,42.98
10.984,38.98
11.000,34.4
11.015,29.37
11.031,23.84
11.046,17.79
11.062,11.36
11.078,4.94
11.093,-0.82
11.109,-5.18
11.125,-7.53
11.140,-7.62
11.156,-5.69
11.171,-2.55
11.187,0.66
11.203,2.83
11.218,3.12
11.234,1.19
11.250,-2.75
11.265,-8.19
11.281,-14.56
11.296,-21.49
11.312,-28.94
11.328,-37.14
11.343,-46.46
11.359,-57.1
11.375,-68.77
11.390,-80.48
11.406,-90.64
11.421,-97.32
11.437,-98.8
11.453,-94.13
11.468,-83.41
11.484,-67.81
11.500,-49.07
11.515,-29.06
11.531,-9.24
11.546,9.4
11.562,26.21
11.578,40.75
11.593,52.55
11.609,61.29
11.625,66.85
11.640,69.59
11.656,70.17
11.671,69.46
11.687,68.2
11.703,66.84
11.718,65.46
11.734,63.88
11.750,61.85
11.765,59.14
11.781,55.86
11.796,52.23
11.812,48.63
11.828,45.34
11.843,42.38
11.859,39.49
11.875,36.15
11.890,31.86
11.906,26.3
11.921,19.47
11.937,11.71
11.953,3.47
11.968,-4.82
11.984,-12.94
12.000,-20.99
12.015,-29.25
12.031,-38.04
12.046,-47.49
12.062,-57.3
12.078,-66.69
12.093,-74.36
12.109,-78.7
12.125,-78.32
12.140,-72.35
12.156,-60.85
12.171,-44.75
12.187,-25.59
12.203,-5.13
12.218,15.15
12.234,34.18
12.250,51.34
12.265,66.23
12.281,78.54
12.296,88.0
12.312,94.5
12.328,98.21
12.343,99.67
12.359,99.76
12.375,99.33
12.390,99.03
12.406,99.09
12.421,99.35
12.437,99.48
12.453,99.14
12.468,98.21
12.484,96.69
12.500,94.64
12.515,91.97
12.531,88.49
12.546,83.97
12.562,78.33
12.578,71.74
12.593,64.5
12.609,57.04
12.625,49.78
12.640,42.99
12.656,36.84
12.671,31.38
12.687,26.57
12.703,22.22
12.718,18.16
12.734,14.2
12.750,10.24
12.765,6.3
12.781,2.47
12.796,-1.1
12.812,-4.26
12.828,-6.81
12.843,-8.71
12.859,-9.97
12.875,-10.75
12.890,-11.31
12.906,-11.89
12.921,-12.66
12.937,-13.58
12.953,-14.5
12.968,-15.09
12.984,-15.11
13.000,-14.33
13.015,-12.72
13.031,-10.45
13.046,-7.93
13.062,-5.84
13.078,-4.86
13.093,-5.5
13.109,-7.83
13.125,-11.46
13.140,-15.73
13.156,-20.1
13.171,-24.35
13.187,-28.64
13.203,-33.37
13.218,-38.72
13.234,-44.51
13.250,-50.18
13.265,-54.99
13.281,-58.47
13.296,-60.58
13.312,-61.72
13.328,-62.6
13.343,-64.16
13.359,-67.48
13.375,-73.63
13.390,-83.54
13.406,-97.6
13.421,-115.46
13.437,-135.96
13.453,-157.34
13.468,-177.71
13.484,-195.51
13.500,-209.61
13.515,-219.37
13.531,-224.36
13.546,-224.01
13.562,-217.92
13.578,-206.17
13.593,-189.82
13.609,-171.05
13.625,-152.76
13.640,-137.76
13.656,-127.85
13.671,-123.29
13.687,-122.18
13.703,-120.92
13.718,-115.01
13.734,-100.36
13.750,-74.9
13.765,-39.57
13.781,1.63
13.796,42.74
13.812,77.84
13.828,103.18
13.843,118.3
13.859,125.87
13.875,130.33
13.890,135.97
13.906,145.51
13.921,159.7
13.937,177.6
13.953,197.24
13.968,216.09
13.984,231.19
14.000,239.32
14.015,237.53
14.031,223.74
14.046,197.65
14.062,161.24
14.078,118.46
14.093,74.45
14.109,34.04
14.125,0.27
14.140,-26.27
14.156,-47.18
14.171,-65.15
14.187,-82.32
14.203,-99.0
14.218,-113.55
14.234,-123.1
14.250,-125.13
14.265,-118.92
14.281,-105.95
14.296,-89.29
14.312,-72.22
14.328,-56.72
14.343,-42.77
14.359,-28.91
14.375,-13.65
14.390,3.05
14.406,18.84
14.421,29.61
14.437,31.1
14.453,20.78
14.468,-0.9
14.484,-30.56
14.500,-63.1
14.515,-93.07
14.531,-115.91
14.546,-128.5
14.562,-129.22
14.578,-117.99
14.593,-96.38
14.609,-67.68
14.625,-36.54
14.640,-8.03
14.656,13.61
14.671,25.98
14.687,28.88
14.703,23.84
14.718,13.13
14.734,-1.04
14.750,-17.02
14.765,-33.76
14.781,-50.75
14.796,-67.74
14.812,-84.34
14.828,-99.72
14.843,-112.4
14.859,-120.62
14.875,-123.05
14.890,-119.47
14.906,-110.99
14.921,-99.67
14.937,-87.68
14.953,-76.35
14.968,-65.8
14.984,-55.17
15.000,-43.35
15.015,-29.8
15.031,-14.75
15.046,0.9
15.062,16.15
15.078,30.29
15.093,43.01
15.109,54.23
15.125,63.88
15.140,71.85
15.156,78.08
15.171,82.66
15.187,85.83
15.203,88.01
15.218,89.61
15.234,90.87
15.250,91.61
15.265,91.3
15.281,89.26
15.296,84.8
15.312,77.64
15.328,67.93
15.343,56.28
15.359,43.41
15.375,30.0
15.390,16.33
15.406,2.32
15.421,-12.34
15.437,-27.84
15.453,-43.86
15.468,-59.23
15.484,-71.86
15.500,-79.16
15.515,-78.77
15.531,-69.5
15.546,-51.85
15.562,-27.97
15.578,-1.03
15.593,25.8
15.609,50.26
15.625,71.31
15.640,88.85
15.656,103.21
15.671,114.58
15.687,122.94
15.703,128.1
15.718,130.14
15.734,129.43
15.750,126.7
15.765,122.71
15.781,118.1
15.796,113.21
15.812,108.25
15.828,103.26
15.843,98.24
15.859,93.26
15.875,88.31
15.890,83.42
15.906,78.61
15.921,73.92
15.937,69.37
15.953,64.97
15.968,60.6
15.984,56.08
16.000,51.25
16.015,45.99
16.031,40.23
16.046,34.03
16.062,27.45
16.078,20.53
16.093,13.38
16.109,6.43
16.125,0.61
16.140,-2.53
16.156,-1.16
16.171,6.28
16.187,20.54
16.203,41.2
16.218,66.7
16.234,94.82
16.250,123.26
16.265,149.89
16.281,172.83
16.296,190.23
16.312,200.27
16.328,201.43
16.343,192.97
16.359,175.3
16.375,150.08
16.390,119.67
16.406,86.36
16.421,51.78
16.437,16.65
16.453,-18.61
16.468,-53.21
16.484,-85.32
16.500,-112.13
16.515,-130.4
16.531,-137.71
16.546,-133.37
16.562,-118.69
16.578,-96.77
16.593,-71.3
16.609,-45.63
16.625,-22.0
16.640,-1.43
16.656,15.86
16.671,29.97
16.687,40.79
16.703,47.83
16.718,50.13
16.734,46.58
16.750,36.36
16.765,19.57
16.781,-2.25
16.796,-26.15
16.812,-48.41
16.828,-65.75
16.843,-76.32
16.859,-80.16
16.875,-78.73
16.890,-73.77
16.906,-66.43
16.921,-56.79
16.937,-44.57
16.953,-29.83
16.968,-13.7
16.984,1.82
17.000,14.62
17.015,23.37
17.031,28.03
17.046,29.68
17.062,29.94
17.078,30.28
17.093,31.53
17.109,33.76
17.125,36.5
17.140,38.93
17.156,40.26
17.171,39.91
17.187,37.73
17.203,33.99
17.218,29.19
17.234,23.87
17.250,18.33
17.265,12.69
17.281,6.94
17.296,1.12
17.312,-4.75
17.328,-10.63
17.343,-16.75
17.359,-23.68
17.375,-32.13
17.390,-42.76
17.406,-55.65
17.421,-69.96
17.437,-83.8
17.453,-94.54
17.468,-99.48
17.484,-96.67
17.500,-85.66
17.515,-67.64
17.531,-45.13
17.546,-20.97
17.562,2.46
17.578,23.82
17.593,42.83
17.609,59.44
17.625,73.38
17.640,83.65
17.656,88.89
17.671,87.88
17.687,80.37
17.703,67.24
17.718,50.38
17.734,32.11
17.750,14.4
17.765,-1.37
17.781,-14.56
17.796,-24.83
17.812,-31.96
17.828,-35.68
17.843,-35.88
17.859,-32.88
17.875,-27.54
17.890,-21.27
17.906,-15.48
17.921,-11.29
17.937,-9.12
17.953,-8.72
17.968,-9.37
17.984,-10.24
18.000,-10.72
18.015,-10.58
18.031,-9.9
18.046,-9.0
18.062,-8.4
18.078,-8.74
18.093,-10.78
18.109,-15.24
18.125,-22.66
18.140,-32.92
18.156,-44.92
18.171,-56.53
18.187,-64.86
18.203,-67.17
18.218,-61.84
18.234,-49.03
18.250,-30.63
18.265,-9.58
18.281,11.35
18.296,30.38
18.312,47.02
18.328,61.67
18.343,74.82
18.359,86.51
18.375,96.09
18.390,102.59
18.406,105.27
18.421,104.18
18.437,100.23
18.453,94.79
18.468,89.28
18.484,84.6
18.500,80.98
18.515,78.0
18.531,74.94
18.546,71.17
18.562,66.46
18.578,61.06
18.593,55.42
18.609,49.95
18.625,44.75
18.640,39.55
18.656,33.88
18.671,27.16
18.687,18.81
18.703,8.17
18.718,-5.52
18.734,-22.96
18.750,-44.37
18.765,-69.05
18.781,-95.15
18.796,-120.04
18.812,-140.98
18.828,-156.02
18.843,-164.58
18.859,-167.46
18.875,-166.34
18.890,-163.07
18.906,-159.23
18.921,-155.89
18.937,-153.59
18.953,-152.32
18.968,-151.32
18.984,-149.05
19.000,-143.33
19.015,-131.9
19.031,-113.24
19.046,-87.12
19.062,-54.8
19.078,-18.7
19.093,18.26
19.109,53.28
19.125,83.99
19.140,108.65
19.156,126.26
19.171,136.64
19.187,140.48
19.203,139.24
19.218,134.7
19.234,128.45
19.250,121.5
19.265,114.26
19.281,106.81
19.296,99.3
19.312,92.15
19.328,85.86
19.343,80.68
19.359,76.47
19.375,72.64
19.390,68.5
19.406,63.45
19.421,57.14
19.437,49.4
19.453,40.05
19.468,29.04
19.484,16.44
19.500,2.67
19.515,-11.53
19.531,-25.5
19.546,-38.91
19.562,-52.15
19.578,-66.16
19.593,-82.04
19.609,-100.35
19.625,-120.72
19.640,-141.69
19.656,-161.14
19.671,-177.03
19.687,-187.98
19.703,-193.82
19.718,-195.49
19.734,-194.77
19.750,-193.49
19.765,-192.93
19.781,-193.35
19.796,-193.9
19.812,-192.87
19.828,-188.25
19.843,-178.39
19.859,-162.54
19.875,-141.06
19.890,-115.25
19.906,-86.96
19.921,-58.02
19.937,-29.95
19.953,-3.8
19.968,19.72
19.984,40.14
20.000,57.12
20.015,70.48
20.031,80.39
20.046,87.39
20.062,92.35
20.078,96.16
20.093,99.45
20.109,102.52
20.125,105.37
20.140,107.88
20.156,110.11
20.171,112.27
20.187,114.61
20.203,117.2
20.218,119.85
20.234,122.01
20.250,123.11
20.265,122.78
20.281,121.06
20.296,118.47
20.312,115.8
20.328,113.9
20.343,113.38
20.359,114.38
20.375,116.54
20.390,118.94
20.406,120.31
20.421,119.39
20.437,115.21
20.453,107.41
20.468,96.21
20.484,82.27
20.500,66.38
20.515,49.19
20.531,31.26
20.546,13.11
20.562,-4.66
20.578,-21.37
20.593,-36.44
20.609,-49.46
20.625,-60.29
20.640,-68.89
20.656,-75.26
20.671,-79.45
20.687,-81.82
20.703,-83.24
20.718,-84.98
20.734,-88.23
20.750,-93.51
20.765,-100.2
20.781,-106.7
20.796,-111.07
20.812,-111.93
20.828,-109.03
20.843,-103.35
20.859,-96.5
20.875,-89.92
20.890,-84.31
20.906,-79.54
20.921,-74.99
20.937,-69.99
20.953,-64.15
20.968,-57.39
20.984,-49.78
21.000,-41.29
21.015,-31.88
21.031,-21.63
21.046,-10.91
21.062,-0.47
21.078,8.78
21.093,16.14
21.109,21.45
21.125,25.26
21.140,28.61
21.156,32.56
21.171,37.74
21.187,44.11
21.203,50.93
21.218,57.08
21.234,61.55
21.250,63.79
21.265,63.98
21.281,62.94
21.296,62.04
21.312,62.61
21.328,65.56
21.343,70.68
21.359,76.37
21.375,79.8
21.390,77.7
21.406,67.62
21.421,49.1
21.437,24.13
21.453,-3.27
21.468,-28.29
21.484,-46.98
21.500,-57.34
21.515,-59.67
21.531,-56.09
21.546,-49.56
21.562,-42.93
21.578,-38.42
21.593,-37.43
21.609,-40.57
21.625,-47.75
21.640,-58.21
21.656,-70.57
21.671,-83.06
21.687,-93.81
21.703,-101.32
21.718,-104.75
21.734,-104.11
21.750,-100.08
21.765,-93.76
21.781,-86.22
21.796,-78.26
21.812,-70.26
21.828,-62.24
21.843,-54.01
21.859,-45.37
21.875,-36.29
21.890,-26.96
21.906,-17.79
21.921,-9.32
21.937,-2.01
21.953,3.81
21.968,8.05
21.984,10.89
22.000,12.65
22.015,13.68
22.031,14.26
22.046,14.52
22.062,14.45
22.078,13.89
22.093,12.61
22.109,10.38
22.125,7.09
22.140,2.82
22.156,-2.05
22.171,-6.98
22.187,-11.43
22.203,-15.06
22.218,-17.89
22.234,-20.26
22.250,-22.78
22.265,-26.07
22.281,-30.56
22.296,-36.18
22.312,-42.3
22.328,-47.72
22.343,-50.83
22.359,-50.07
22.375,-44.33
22.390,-33.35
22.406,-17.88
22.421,0.46
22.437,19.67
22.453,37.85
22.468,53.61
22.484,66.24
22.500,75.54
22.515,81.66
22.531,84.77
22.546,85.06
22.562,82.78
22.578,78.4
22.593,72.6
22.609,66.24
22.625,60.2
22.640,55.07
22.656,51.1
22.671,48.28
22.687,46.42
22.703,45.34
22.718,44.94
22.734,45.13
22.750,45.85
22.765,46.95
22.781,48.18
22.796,49.26
22.812,49.93
22.828,49.96
22.843,49.18
22.859,47.52
22.875,44.99
22.890,41.68
22.906,37.79
22.921,33.51
22.937,29.0
22.953,24.34
22.968,19.51
22.984,14.49
23.000,9.36
23.015,4.4
23.031,-0.01
23.046,-3.63
23.062,-6.53
23.078,-9.27
23.093,-12.73
23.109,-17.76
23.125,-24.71
23.140,-33.34
23.156,-42.96
23.171,-52.76
23.187,-62.15
23.203,-70.69
23.218,-77.79
23.234,-82.39
23.250,-82.97
23.265,-78.03
23.281,-66.74
23.296,-49.63
23.312,-28.54
23.328,-6.09
23.343,15.21
23.359,33.71
23.375,48.88
23.390,61.05
23.406,70.9
23.421,79.06
23.437,85.81
23.453,91.2
23.468,95.25
23.484,98.1
23.500,100.07
23.515,101.5
23.531,102.57
23.546,103.25
23.562,103.37
23.578,102.76
23.593,101.62
23.609,100.42
23.625,99.75
23.640,99.72
23.656,99.55
23.671,97.45
23.687,91.15
23.703,78.74
23.718,59.54
23.734,34.55
23.750,6.15
23.765,-22.79
23.781,-49.75
23.796,-73.13
23.812,-92.27
23.828,-106.98
23.843,-117.16
23.859,-122.66
23.875,-123.43
23.890,-119.88
23.906,-113.19
23.921,-105.0
23.937,-97.09
23.953,-90.78
23.968,-86.64
23.984,-84.49
24.000,-83.72
24.015,-83.7
24.031,-83.91
24.046,-83.99
24.062,-83.39
24.078,-81.28
24.093,-76.48
24.109,-67.96
24.125,-55.18
24.140,-38.55
24.156,-19.43
24.171,0.21
24.187,18.31
24.203,33.37
24.218,44.67
24.234,52.35
24.250,57.06
24.265,59.71
24.281,61.13
24.296,61.99
24.312,62.67
24.328,63.38
24.343,64.17
24.359,64.87
24.375,65.04
24.390,63.93
24.406,60.67
24.421,54.48
24.437,44.99
24.453,32.45
24.468,17.67
24.484,1.82
24.500,-13.92
24.515,-28.63
24.531,-41.75
24.546,-52.97
24.562,-62.09
24.578,-68.91
24.593,-73.18
24.609,-74.86
24.625,-74.16
24.640,-71.76
24.656,-68.64
24.671,-65.81
24.687,-64.09
24.703,-63.75
24.718,-64.53
24.734,-65.73
24.750,-66.53
24.765,-66.29
24.781,-64.84
24.796,-62.48
24.812,-59.87
24.828,-57.8
24.843,-56.91
24.859,-57.46
24.875,-59.16
24.890,-61.19
24.906,-62.25
24.921,-60.93
24.937,-56.04
24.953,-46.99
24.968,-34.0
24.984,-18.03
25.000,-0.59
25.015,16.71
25.031,32.5
25.046,45.87
25.062,56.4
25.078,64.08
25.093,69.07
25.109,71.56
25.125,71.73
25.140,69.73
25.156,65.83
25.171,60.47
25.187,54.28
25.203,48.03
25.218,42.52
25.234,38.31
25.250,35.69
25.265,34.54
25.281,34.41
25.296,34.73
25.312,34.97
25.328,34.66
25.343,33.51
25.359,31.43
25.375,28.45
25.390,24.81
25.406,20.89
25.421,17.12
25.437,13.89
25.453,11.5
25.468,10.01
25.484,9.21
25.500,8.67
25.515,7.85
25.531,6.21
25.546,3.39
25.562,-0.69
25.578,-5.75
25.593,-11.23
25.609,-16.51
25.625,-21.15
25.640,-25.07
25.656,-28.59
25.671,-32.31
25.687,-36.87
25.703,-42.71
25.718,-49.79
25.734,-57.6
25.750,-65.07
25.765,-70.82
25.781,-73.45
25.796,-71.89
25.812,-65.68
25.828,-55.15
25.843,-41.34
25.859,-25.66
25.875,-9.58
25.890,5.72
25.906,19.44
25.921,31.04
25.937,40.17
25.953,46.53
25.968,50.06
25.984,51.01
26.000,50.03
26.015,48.07
26.031,46.05
26.046,44.65
26.062,44.09
26.078,44.18
26.093,44.55
26.109,44.94
26.125,45.28
26.140,45.71
26.156,46.39
26.171,47.4
26.187,48.66
26.203,50.05
26.218,51.38
26.234,52.55
26.250,53.67
26.265,54.85
26.281,56.31
26.296,58.16
26.312,60.43
26.328,62.98
26.343,65.67
26.359,68.29
26.375,70.73
26.390,73.04
26.406,75.26
26.421,77.53
26.437,79.89
26.453,82.25
26.468,84.37
26.484,85.9
26.500,86.4
26.515,85.43
26.531,82.67
26.546,78.11
26.562,72.29
26.578,66.3
26.593,61.52
26.609,59.04
26.625,59.04
26.640,60.53
26.656,61.51
26.671,59.68
26.687,53.16
26.703,41.07
26.718,23.48
26.734,1.15
26.750,-24.87
26.765,-53.49
26.781,-83.52
26.796,-113.57
26.812,-142.0
26.828,-167.24
26.843,-187.87
26.859,-202.99
26.875,-212.17
26.890,-215.29
26.906,-212.53
26.921,-204.33
26.937,-191.51
26.953,-175.34
26.968,-157.42
26.984,-139.39
27.000,-122.64
27.015,-108.07
27.031,-96.0
27.046,-86.32
27.062,-78.61
27.078,-72.35
27.093,-67.06
27.109,-62.33
27.125,-57.91
27.140,-53.64
27.156,-49.52
27.171,-45.59
27.187,-41.96
27.203,-38.8
27.218,-36.27
27.234,-34.56
27.250,-33.86
27.265,-34.37
27.281,-36.17
27.296,-39.13
27.312,-42.82
27.328,-46.49
27.343,-49.06
27.359,-49.4
27.375,-46.56
27.390,-40.03
27.406,-29.9
27.421,-16.93
27.437,-2.28
27.453,12.72
27.468,26.86
27.484,39.34
27.500,49.73
27.515,57.9
27.531,63.89
27.546,67.82
27.562,69.78
27.578,70.01
27.593,68.88
27.609,66.99
27.625,64.97
27.640,63.41
27.656,62.63
27.671,62.65
27.687,63.28
27.703,64.25
27.718,65.27
27.734,66.14
27.750,66.75
27.765,66.95
27.781,66.61
27.796,65.55
27.812,63.6
27.828,60.64
27.843,56.57
27.859,51.39
27.875,45.24
27.890,38.43
27.906,31.42
27.921,24.71
27.937,18.64
27.953,13.32
27.968,8.57
27.984,4.02
28.000,-0.71
28.015,-5.9
28.031,-11.55
28.046,-17.33
28.062,-22.53
28.078,-26.23
28.093,-27.45
28.109,-25.44
28.125,-19.86
28.140,-10.91
28.156,0.68
28.171,13.78
28.187,27.17
28.203,39.81
28.218,51.01
28.234,60.39
28.250,67.85
28.265,73.39
28.281,77.06
28.296,78.83
28.312,78.77
28.328,77.0
28.343,73.84
28.359,69.71
28.375,65.07
28.390,60.26
28.406,55.48
28.421,50.8
28.437,46.22
28.453,41.81
28.468,37.67
28.484,33.86
28.500,30.44
28.515,27.28
28.531,24.19
28.546,20.88
28.562,17.16
28.578,12.98
28.593,8.41
28.609,3.63
28.625,-1.18
28.640,-5.88
28.656,-10.41
28.671,-14.76
28.687,-19.01
28.703,-23.24
28.718,-27.56
28.734,-32.13
28.750,-37.11
28.765,-42.59
28.781,-48.41
28.796,-54.18
28.812,-59.16
28.828,-62.35
28.843,-62.78
28.859,-59.71
28.875,-52.93
28.890,-42.86
28.906,-30.48
28.921,-16.98
28.937,-3.54
28.953,8.96
28.968,20.04
28.984,29.49
29.000,37.3
29.015,43.44
29.031,47.88
29.046,50.6
29.062,51.78
29.078,51.74
29.093,50.99
29.109,49.95
29.125,48.84
29.140,47.58
29.156,45.85
29.171,43.3
29.187,39.67
29.203,34.89
29.218,29.05
29.234,22.4
29.250,15.21
29.265,7.73
29.281,0.25
29.296,-7.01
29.312,-13.9
29.328,-20.35
29.343,-26.42
29.359,-32.2
29.375,-37.68
29.390,-42.78
29.406,-47.41
29.421,-51.47
29.437,-54.96
29.453,-58.06
29.468,-61.06
29.484,-64.28
29.500,-67.93
29.515,-71.88
29.531,-75.69
29.546,-78.46
29.562,-79.14
29.578,-76.76
29.593,-70.72
29.609,-61.11
29.625,-48.58
29.640,-34.22
29.656,-19.23
29.671,-4.64
29.687,8.86
29.703,20.88
29.718,31.14
29.734,39.49
29.750,45.81
29.765,50.16
29.781,52.79
29.796,54.18
29.812,54.93
29.828,55.57
29.843,56.43
29.859,57.55
29.875,58.76
29.890,59.77
29.906,60.32
29.921,60.18
29.937,59.04
29.953,56.53
29.968,52.11
29.984,45.25
30.000,35.64
30.015,23.35
30.031,8.97
30.046,-6.48
30.062,-21.78
30.078,-35.77
30.093,-47.52
30.109,-56.54
30.125,-62.7
30.140,-66.27
30.156,-67.88
30.171,-68.34
30.187,-68.5
30.203,-68.94
30.218,-69.83
30.234,-70.75
30.250,-70.94
30.265,-69.39
30.281,-65.29
30.296,-58.22
30.312,-48.28
30.328,-36.09
30.343,-22.62
30.359,-8.95
30.375,3.95
30.390,15.37
30.406,25.01
30.421,32.93
30.437,39.41
30.453,44.82
30.468,49.4
30.484,53.27
30.500,56.41
30.515,58.73
30.531,60.21
30.546,60.94
30.562,61.09
30.578,60.85
30.593,60.39
30.609,59.8
30.625,59.06
30.640,58.17
30.656,57.05
30.671,55.61
30.687,53.72
30.703,51.26
30.718,48.14
30.734,44.34
30.750,39.84
30.765,34.68
30.781,28.89
30.796,22.49
30.812,15.48
30.828,7.92
30.843,-0.12
30.859,-8.48
30.875,-16.89
30.890,-24.97
30.906,-32.13
30.921,-37.64
30.937,-40.76
30.953,-40.86
30.968,-37.62
30.984,-31.14
31.000,-21.93
31.015,-10.83
31.031,1.22
31.046,13.38
31.062,24.97
31.078,35.54
31.093,44.88
31.109,53.0
31.125,59.98
31.140,66.0
31.156,71.15
31.171,75.36
31.187,78.48
31.203,80.22
31.218,80.35
31.234,78.79
31.250,75.75
31.265,71.62
31.281,66.98
31.296,62.42
31.312,58.35
31.328,54.81
31.343,51.36
31.359,47.16
31.375,41.06
31.390,32.04
31.406,19.44
31.421,3.26
31.437,-15.76
31.453,-36.4
31.468,-57.24
31.484,-76.88
31.500,-94.21
31.515,-108.48
31.531,-119.28
31.546,-126.54
31.562,-130.5
31.578,-131.51
31.593,-130.03
31.609,-126.36
31.625,-120.65
31.640,-112.95
31.656,-103.45
31.671,-92.59
31.687,-81.05
31.703,-69.67
31.718,-59.11
31.734,-49.84
31.750,-41.99
31.765,-35.61
31.781,-30.73
31.796,-27.49
31.812,-25.99
31.828,-26.17
31.843,-27.7
31.859,-29.95
31.875,-32.26
31.890,-34.02
31.906,-34.99
31.921,-35.2
31.937,-34.92
31.953,-34.33
31.968,-33.52
31.984,-32.4
32.000,-30.83
32.015,-28.74
32.031,-26.24
32.046,-23.63
32.062,-21.24
32.078,-19.39
32.093,-18.23
32.109,-17.73
32.125,-17.74
32.140,-18.05
32.156,-18.51
32.171,-19.08
32.187,-19.82
32.203,-20.9
32.218,-22.51
32.234,-24.81
32.250,-27.83
32.265,-31.43
32.281,-35.24
32.296,-38.62
32.312,-40.76
32.328,-40.8
32.343,-38.04
32.359,-32.22
32.375,-23.66
32.390,-13.09
32.406,-1.58
32.421,9.92
32.437,20.66
32.453,30.3
32.468,38.76
32.484,46.11
32.500,52.38
32.515,57.53
32.531,61.45
32.546,64.14
32.562,65.8
32.578,66.85
32.593,67.87
32.609,69.37
32.625,71.69
32.640,74.84
32.656,78.54
32.671,82.37
32.687,85.96
32.703,89.2
32.718,92.31
32.734,95.78
32.750,100.2
32.765,106.07
32.781,113.45
32.796,122.04
32.812,131.14
32.828,139.99
32.843,148.0
32.859,155.04
32.875,161.42
32.890,167.81
32.906,174.96
32.921,183.27
32.937,192.6
32.953,202.18
32.968,210.53
32.984,215.75
33.000,215.83
33.015,209.09
33.031,194.71
33.046,173.21
33.062,146.51
33.078,117.76
33.093,90.57
33.109,68.01
33.125,51.92
33.140,42.64
33.156,39.32
33.171,40.53
33.187,44.91
33.203,51.16
33.218,57.84
33.234,62.9
33.250,63.64
33.265,57.16
33.281,41.44
33.296,16.1
33.312,-17.08
33.328,-54.45
33.343,-91.6
33.359,-124.6
33.375,-151.16
33.390,-171.24
33.406,-186.59
33.421,-199.64
33.437,-212.25
33.453,-224.72
33.468,-235.74
33.484,-243.26
33.500,-245.71
33.515,-242.96
33.531,-236.59
33.546,-229.39
33.562,-224.44
33.578,-224.22
33.593,-230.07
33.609,-242.06
33.625,-259.03
33.640,-278.76
33.656,-298.25
33.671,-314.21
33.687,-323.82
33.703,-325.65
33.718,-319.97
33.734,-308.51
33.750,-293.72
33.765,-277.76
33.781,-261.86
33.796,-246.25
33.812,-230.4
33.828,-213.71
33.843,-195.8
33.859,-176.71
33.875,-156.68
33.890,-135.96
33.906,-114.67
33.921,-92.92
33.937,-71.0
33.953,-49.53
33.968,-29.4
33.984,-11.48
34.000,3.67
34.015,16.01
34.031,26.02
34.046,34.45
34.062,41.96
34.078,48.91
34.093,55.23
34.109,60.59
34.125,64.62
34.140,67.23
34.156,68.61
34.171,69.25
34.187,69.69
34.203,70.28
34.218,71.08
34.234,71.87
34.250,72.27
34.265,71.99
34.281,70.97
34.296,69.33
34.312,67.37
34.328,65.3
34.343,63.21
34.359,60.94
34.375,58.26
34.390,54.92
34.406,50.82
34.421,46.05
34.437,40.84
34.453,35.51
34.468,30.31
34.484,25.31
34.500,20.46
34.515,15.52
34.531,10.14
34.546,4.11
34.562,-2.46
34.578,-8.98
34.593,-14.4
34.609,-17.45
34.625,-17.03
34.640,-12.61
34.656,-4.47
34.671,6.4
34.687,18.63
34.703,30.93
34.718,42.33
34.734,52.31
34.750,60.67
34.765,67.34
34.781,72.35
34.796,75.69
34.812,77.51
34.828,78.07
34.843,77.71
34.859,76.7
34.875,75.18
34.890,73.17
34.906,70.64
34.921,67.63
34.937,64.31
34.953,60.91
34.968,57.66
34.984,54.69
35.000,52.0
35.015,49.48
35.031,46.96
35.046,44.24
35.062,41.19
35.078,37.7
35.093,33.78
35.109,29.56
35.125,25.23
35.140,20.97
35.156,16.88
35.171,12.99
35.187,9.23
35.203,5.54
35.218,1.95
35.234,-1.46
35.250,-4.65
35.265,-7.65
35.281,-10.58
35.296,-13.64
35.312,-17.03
35.328,-20.94
35.343,-25.5
35.359,-30.62
35.375,-35.95
35.390,-40.78
35.406,-44.07
35.421,-44.67
35.437,-41.68
35.453,-34.79
35.468,-24.44
35.484,-11.71
35.500,1.98
35.515,15.27
35.531,27.11
35.546,36.9
35.562,44.41
35.578,49.63
35.593,52.75
35.609,54.01
35.625,53.71
35.640,52.24
35.656,50.01
35.671,47.45
35.687,44.91
35.703,42.65
35.718,40.81
35.734,39.42
35.750,38.39
35.765,37.55
35.781,36.73
35.796,35.74
35.812,34.5
35.828,33.0
35.843,31.25
35.859,29.26
35.875,26.99
35.890,24.37
35.906,21.32
35.921,17.93
35.937,14.31
35.953,10.7
35.968,7.25
35.984,4.04
36.000,0.96
36.015,-2.11
36.031,-5.29
36.046,-8.62
36.062,-12.01
36.078,-15.47
36.093,-19.07
36.109,-22.96
36.125,-27.34
36.140,-32.25
36.156,-37.46
36.171,-42.35
36.187,-46.01
36.203,-47.35
36.218,-45.49
36.234,-39.95
36.250,-30.81
36.265,-18.85
36.281,-5.26
36.296,8.63
36.312,21.63
36.328,32.93
36.343,42.21
36.359,49.45
36.375,54.77
36.390,58.33
36.406,60.22
36.421,60.52
36.437,59.38
36.453,57.1
36.468,54.08
36.484,50.77
36.500,47.5
36.515,44.46
36.531,41.71
36.546,39.19
36.562,36.89
36.578,34.82
36.593,32.95
36.609,31.19
36.625,29.34
36.640,27.16
36.656,24.42
36.671,21.08
36.687,17.26
36.703,13.25
36.718,9.36
36.734,5.76
36.750,2.46
36.765,-0.74
36.781,-4.11
36.796,-7.84
36.812,-11.96
36.828,-16.35
36.843,-20.76
36.859,-24.89
36.875,-28.65
36.890,-32.02
36.906,-35.21
36.921,-38.53
36.937,-42.23
36.953,-46.39
36.968,-50.76
36.984,-54.74
37.000,-57.46
37.015,-58.05
37.031,-55.82
37.046,-50.53
37.062,-42.47
37.078,-32.37
37.093,-21.22
37.109,-9.99
37.125,0.55
37.140,9.9
37.156,17.83
37.171,24.21
37.187,29.0
37.203,32.16
37.218,33.71
37.234,33.78
37.250,32.63
37.265,30.61
37.281,28.1
37.296,25.37
37.312,22.56
37.328,19.71
37.343,16.83
37.359,14.03
37.375,11.45
37.390,9.34
37.406,7.81
37.421,6.84
37.437,6.25
37.453,5.7
37.468,4.88
37.484,3.56
37.500,1.71
37.515,-0.56
37.531,-3.04
37.546,-5.57
37.562,-8.02
37.578,-10.43
37.593,-12.92
37.609,-15.66
37.625,-18.77
37.640,-22.3
37.656,-26.07
37.671,-29.83
37.687,-33.24
37.703,-36.11
37.718,-38.42
37.734,-40.35
37.750,-42.23
37.765,-44.37
37.781,-46.91
37.796,-49.67
37.812,-52.17
37.828,-53.74
37.843,-53.6
37.859,-51.13
37.875,-46.0
37.890,-38.35
37.906,-28.75
37.921,-18.1
37.937,-7.38
37.953,2.6
37.968,11.29
37.984,18.55
38.000,24.37
38.015,28.83
38.031,31.97
38.046,33.87
38.062,34.62
38.078,34.45
38.093,33.7
38.109,32.66
38.125,31.59
38.140,30.56
38.156,29.54
38.171,28.51
38.187,27.47
38.203,26.43
38.218,25.44
38.234,24.49
38.250,23.54
38.265,22.6
38.281,21.66
38.296,20.7
38.312,19.71
38.328,18.58
38.343,17.16
38.359,15.37
38.375,13.18
38.390,10.66
38.406,7.93
38.421,5.15
38.437,2.44
38.453,-0.1
38.468,-2.44
38.484,-4.57
38.500,-6.57
38.515,-8.58
38.531,-10.8
38.546,-13.46
38.562,-16.71
38.578,-20.56
38.593,-24.72
38.609,-28.65
38.625,-31.6
38.640,-32.74
38.656,-31.46
38.671,-27.47
38.687,-20.92
38.703,-12.38
38.718,-2.66
38.734,7.38
38.750,17.0
38.765,25.62
38.781,32.89
38.796,38.53
38.812,42.45
38.828,44.61
38.843,45.14
38.859,44.24
38.875,42.22
38.890,39.42
38.906,36.2
38.921,32.85
38.937,29.62
38.953,26.68
38.968,24.04
38.984,21.7
39.000,19.57
39.015,17.6
39.031,15.71
39.046,13.87
39.062,11.99
39.078,10.0
39.093,7.83
39.109,5.46
39.125,2.91
39.140,0.24
39.156,-2.55
39.171,-5.49
39.187,-8.62
39.203,-11.99
39.218,-15.63
39.234,-19.48
39.250,-23.43
39.265,-27.34
39.281,-31.06
39.296,-34.5
39.312,-37.64
39.328,-40.57
39.343,-43.5
39.359,-46.62
39.375,-49.96
39.390,-53.26
39.406,-55.95
39.421,-57.21
39.437,-56.31
39.453,-52.75
39.468,-46.49
39.484,-37.96
39.500,-27.91
39.515,-17.21
39.531,-6.76
39.546,2.76
39.562,10.84
39.578,17.18
39.593,21.64
39.609,24.29
39.625,25.33
39.640,25.07
39.656,23.8
39.671,21.78
39.687,19.22
39.703,16.32
39.718,13.25
39.734,10.28
39.750,7.71
39.765,5.82
39.781,4.86
39.796,4.93
39.812,6.04
39.828,8.06
39.843,10.76
39.859,13.78
39.875,16.75
39.890,19.3
39.906,21.19
39.921,22.35
39.937,22.89
39.953,23.1
39.968,23.28
39.984,23.66
40.000,24.3
40.015,25.16
40.031,26.14
40.046,27.2
40.062,28.44
40.078,30.04
40.093,32.17
40.109,34.93
40.125,38.3
40.140,42.19
40.156,46.52
40.171,51.27
40.187,56.62
40.203,62.87
40.218,70.32
40.234,79.05
40.250,88.72
40.265,98.51
40.281,107.19
40.296,113.4
40.312,116.01
40.328,114.42
40.343,108.68
40.359,99.43
40.375,87.76
40.390,74.97
40.406,62.42
40.421,51.32
40.437,42.61
40.453,36.8
40.468,33.78
40.484,32.96
40.500,33.4
40.515,34.18
40.531,34.68
40.546,34.77
40.562,34.8
40.578,35.35
40.593,37.01
40.609,40.0
40.625,44.11
40.640,48.7
40.656,52.98
40.671,56.21
40.687,57.91
40.703,57.94
40.718,56.36
40.734,53.43
40.750,49.34
40.765,44.17
40.781,37.78
40.796,29.87
40.812,20.2
40.828,8.73
40.843,-4.25
40.859,-18.37
40.875,-33.54
40.890,-50.25
40.906,-69.36
40.921,-91.62
40.937,-116.84
40.953,-143.33
40.968,-168.23
40.984,-188.4
41.000,-201.54
41.015,-207.06
41.031,-205.96
41.046,-200.02
41.062,-190.88
41.078,-179.46
41.093,-165.99
41.109,-150.67
41.125,-134.16
41.140,-117.79
41.156,-103.2
41.171,-91.7
41.187,-83.78
41.203,-78.99
41.218,-76.23
41.234,-74.19
41.250,-71.82
41.265,-68.64
41.281,-64.68
41.296,-60.32
41.312,-56.05
41.328,-52.29
41.343,-49.27
41.359,-47.12
41.375,-45.91
41.390,-45.64
41.406,-46.23
41.421,-47.52
41.437,-49.27
41.453,-51.24
41.468,-53.24
41.484,-55.24
41.500,-57.19
41.515,-59.14
41.531,-61.04
41.546,-62.75
41.562,-64.06
41.578,-64.95
41.593,-65.56
41.609,-66.19
41.625,-67.27
41.640,-69.07
41.656,-71.63
41.671,-74.66
41.687,-77.6
41.703,-79.61
41.718,-79.84
41.734,-77.55
41.750,-72.32
41.765,-64.16
41.781,-53.62
41.796,-41.67
41.812,-29.41
41.828,-17.93
41.843,-7.91
41.859,0.34
41.875,6.84
41.890,11.79
41.906,15.4
41.921,17.81
41.937,19.19
41.953,19.74
41.968,19.74
41.984,19.49
42.000,19.32
42.015,19.38
42.031,19.68
42.046,20.05
42.062,20.33
42.078,20.39
42.093,20.22
42.109,19.93
42.125,19.62
42.140,19.35
42.156,19.01
42.171,18.34
42.187,17.07
42.203,15.05
42.218,12.3
42.234,9.09
42.250,5.75
42.265,2.59
42.281,-0.19
42.296,-2.66
42.312,-5.0
42.328,-7.47
42.343,-10.27
42.359,-13.52
42.375,-17.2
42.390,-21.22
42.406,-25.29
42.421,-28.98
42.437,-31.65
42.453,-32.59
42.468,-31.14
42.484,-27.01
42.500,-20.43
42.515,-12.08
42.531,-2.96
42.546,5.96
42.562,13.97
42.578,20.7
42.593,26.07
42.609,30.1
42.625,32.8
42.640,34.2
42.656,34.48
42.671,33.92
42.687,32.96
42.703,32.05
42.718,31.51
42.734,31.42
42.750,31.58
42.765,31.65
42.781,31.3
42.796,30.34
42.812,28.81
42.828,26.93
42.843,24.95
42.859,23.03
42.875,21.15
42.890,19.07
42.906,16.46
42.921,13.16
42.937,9.22
42.953,4.93
42.968,0.74
42.984,-2.93
43.000,-5.84
43.015,-8.0
43.031,-9.61
43.046,-10.98
43.062,-12.41
43.078,-14.2
43.093,-16.52
43.109,-19.41
43.125,-22.66
43.140,-25.78
43.156,-28.06
43.171,-28.68
43.187,-27.04
43.203,-22.87
43.218,-16.48
43.234,-8.58
43.250,-0.13
43.265,8.01
43.281,15.26
43.296,21.31
43.312,26.11
43.328,29.68
43.343,32.11
43.359,33.44
43.375,33.81
43.390,33.45
43.406,32.63
43.421,31.7
43.437,30.91
43.453,30.41
43.468,30.13
43.484,29.92
43.500,29.55
43.515,28.85
43.531,27.81
43.546,26.57
43.562,25.39
43.578,24.45
43.593,23.81
43.609,23.31
43.625,22.65
43.640,21.51
43.656,19.69
43.671,17.21
43.687,14.23
43.703,11.07
43.718,7.97
43.734,5.17
43.750,2.74
43.765,0.56
43.781,-1.59
43.796,-4.05
43.812,-7.01
43.828,-10.48
43.843,-14.1
43.859,-17.21
43.875,-18.95
43.890,-18.56
43.906,-15.58
43.921,-10.06
43.937,-2.54
43.953,6.1
43.968,14.88
43.984,22.97
44.000,29.85
44.015,35.33
44.031,39.49
44.046,42.51
44.062,44.57
44.078,45.72
44.093,45.96
44.109,45.36
44.125,44.06
44.140,42.32
44.156,40.41
44.171,38.51
44.187,36.68
44.203,34.89
44.218,33.11
44.234,31.39
44.250,29.85
44.265,28.64
44.281,27.82
44.296,27.32
44.312,26.94
44.328,26.42
44.343,25.48
44.359,23.91
44.375,21.59
44.390,18.48
44.406,14.75
44.421,10.65
44.437,6.51
44.453,2.59
44.468,-1.01
44.484,-4.41
44.500,-7.78
44.515,-11.33
44.531,-15.18
44.546,-19.25
44.562,-23.39
44.578,-27.3
44.593,-30.55
44.609,-32.47
44.625,-32.28
44.640,-29.28
44.656,-23.17
44.671,-14.24
44.687,-3.42
44.703,7.93
44.718,18.5
44.734,27.33
44.750,34.02
44.765,38.7
44.781,41.7
44.796,43.38
44.812,43.93
44.828,43.43
44.843,41.94
44.859,39.62
44.875,36.76
44.890,33.69
44.906,30.74
44.921,28.08
44.937,25.73
44.953,23.64
44.968,21.69
44.984,19.8
45.000,17.96
45.015,16.19
45.031,14.46
45.046,12.69
45.062,10.75
45.078,8.5
45.093,5.9
45.109,2.97
45.125,-0.18
45.140,-3.47
45.156,-6.78
45.171,-10.09
45.187,-13.32
45.203,-16.41
45.218,-19.26
45.234,-21.89
45.250,-24.37
45.265,-26.87
45.281,-29.62
45.296,-32.74
45.312,-36.32
45.328,-40.25
45.343,-44.3
45.359,-48.03
45.375,-50.82
45.390,-51.9
45.406,-50.53
45.421,-46.19
45.437,-38.85
45.453,-29.0
45.468,-17.64
45.484,-5.97
45.500,4.89
45.515,14.13
45.531,21.4
45.546,26.65
45.562,30.07
45.578,31.86
45.593,32.25
45.609,31.45
45.625,29.72
45.640,27.35
45.656,24.62
45.671,21.77
45.687,18.96
45.703,16.27
45.718,13.83
45.734,11.69
45.750,9.95
45.765,8.67
45.781,7.8
45.796,7.28
45.812,6.96
45.828,6.66
45.843,6.23
45.859,5.56
45.875,4.56
45.890,3.23
45.906,1.59
45.921,-0.26
45.937,-2.18
45.953,-4.07
45.968,-5.9
45.984,-7.69
46.000,-9.46
46.015,-11.29
46.031,-13.17
46.046,-15.07
46.062,-16.99
46.078,-18.94
46.093,-20.97
46.109,-23.11
46.125,-25.29
46.140,-27.23
46.156,-28.49
46.171,-28.5
46.187,-26.64
46.203,-22.46
46.218,-15.85
46.234,-7.15
46.250,2.85
46.265,13.16
46.281,22.71
46.296,30.69
46.312,36.69
46.328,40.69
46.343,42.89
46.359,43.6
46.375,43.07
46.390,41.5
46.406,39.14
46.421,36.3
46.437,33.35
46.453,30.69
46.468,28.58
46.484,27.13
46.500,26.27
46.515,25.84
46.531,25.65
46.546,25.52
46.562,25.26
46.578,24.73
46.593,23.83
46.609,22.52
46.625,20.86
46.640,18.95
46.656,16.9
46.671,14.7
46.687,12.3
46.703,9.62
46.718,6.67
46.734,3.56
46.750,0.44
46.765,-2.51
46.781,-5.15
46.796,-7.43
46.812,-9.43
46.828,-11.25
46.843,-13.09
46.859,-15.15
46.875,-17.59
46.890,-20.39
46.906,-23.33
46.921,-25.87
46.937,-27.3
46.953,-26.86
46.968,-23.99
46.984,-18.47
47.000,-10.61
47.015,-1.2
47.031,8.67
47.046,17.78
47.062,25.12
47.078,30.08
47.093,32.58
47.109,32.9
47.125,31.56
47.140,29.09
47.156,25.87
47.171,22.15
47.187,18.17
47.203,14.18
47.218,10.51
47.234,7.5
47.250,5.39
47.265,4.19
47.281,3.73
47.296,3.72
47.312,3.82
47.328,3.85
47.343,3.71
47.359,3.41
47.375,2.93
47.390,2.23
47.406,1.22
47.421,-0.15
47.437,-1.86
47.453,-3.79
47.468,-5.79
47.484,-7.75
47.500,-9.68
47.515,-11.65
47.531,-13.78
47.546,-16.1
47.562,-18.58
47.578,-21.13
47.593,-23.65
47.609,-26.12
47.625,-28.6
47.640,-31.22
47.656,-34.08
47.671,-37.23
47.687,-40.49
47.703,-43.39
47.718,-45.25
47.734,-45.27
47.750,-42.77
47.765,-37.45
47.781,-29.5
47.796,-19.64
47.812,-8.99
47.828,1.26
47.843,10.07
47.859,16.76
47.875,21.05
47.890,23.07
47.906,23.15
47.921,21.75
47.937,19.29
47.953,16.12
47.968,12.51
47.984,8.73
48.000,4.98
48.015,1.44
48.031,-1.75
48.046,-4.5
48.062,-6.74
48.078,-8.38
48.093,-9.43
48.109,-9.89
48.125,-9.85
48.140,-9.51
48.156,-9.11
48.171,-8.82
48.187,-8.78
48.203,-8.99
48.218,-9.44
48.234,-10.12
48.250,-11.06
48.265,-12.28
48.281,-13.74
48.296,-15.33
48.312,-16.91
48.328,-18.43
48.343,-19.84
48.359,-21.21
48.375,-22.57
48.390,-23.9
48.406,-25.16
48.421,-26.34
48.437,-27.49
48.453,-28.69
48.468,-29.87
48.484,-30.72
48.500,-30.64
48.515,-28.99
48.531,-25.31
48.546,-19.58
48.562,-12.31
48.578,-4.29
48.593,3.61
48.609,10.75
48.625,16.8
48.640,21.66
48.656,25.35
48.671,27.89
48.687,29.28
48.703,29.52
48.718,28.69
48.734,26.97
48.750,24.67
48.765,22.13
48.781,19.76
48.796,17.92
48.812,16.84
48.828,16.51
48.843,16.78
48.859,17.31
48.875,17.79
48.890,18.0
48.906,17.81
48.921,17.23
48.937,16.33
48.953,15.16
48.968,13.8
48.984,12.29
49.000,10.72
49.015,9.14
49.031,7.6
49.046,6.08
49.062,4.55
49.078,2.97
49.093,1.3
49.109,-0.51
49.125,-2.48
49.140,-4.63
49.156,-6.98
49.171,-9.58
49.187,-12.45
49.203,-15.57
49.218,-18.79
49.234,-21.77
49.250,-23.92
49.265,-24.53
49.281,-22.9
49.296,-18.63
49.312,-11.73
49.328,-2.75
49.343,7.46
49.359,17.81
49.375,27.27
49.390,35.07
49.406,40.69
49.421,43.92
49.437,44.82
49.453,43.61
49.468,40.69
49.484,36.53
49.500,31.64
49.515,26.56
49.531,21.83
49.546,17.81
49.562,14.71
49.578,12.48
49.593,10.87
49.609,9.59
49.625,8.38
49.640,7.12
49.656,5.85
49.671,4.65
49.687,3.56
49.703,2.51
49.718,1.36
49.734,-0.1
49.750,-1.94
49.765,-4.17
49.781,-6.73
49.796,-9.47
49.812,-12.26
49.828,-14.99
49.843,-17.56
49.859,-19.88
49.875,-21.93
49.890,-23.72
49.906,-25.34
49.921,-26.95
49.937,-28.74
49.953,-30.87
49.968,-33.33
49.984,-35.86
50.000,-37.92
50.015,-38.78
50.031,-37.69
50.046,-34.06
50.062,-27.74
50.078,-19.03
50.093,-8.75
50.109,2.06
50.125,12.27
50.140,20.96
50.156,27.55
50.171,31.83
50.187,33.91
50.203,34.11
50.218,32.8
50.234,30.28
50.250,26.85
50.265,22.76
50.281,18.3
50.296,13.78
50.312,9.53
50.328,5.82
50.343,2.75
50.359,0.3
50.375,-1.65
50.390,-3.26
50.406,-4.68
50.421,-5.93
50.437,-7.02
50.453,-7.98
50.468,-8.86
50.484,-9.78
50.500,-10.89
50.515,-12.25
50.531,-13.95
50.546,-15.99
50.562,-18.35
50.578,-20.93
50.593,-23.66
50.609,-26.43
50.625,-29.16
50.640,-31.83
50.656,-34.49
50.671,-37.25
50.687,-40.21
50.703,-43.34
50.718,-46.34
50.734,-48.73
50.750,-49.86
50.765,-49.06
50.781,-45.87
50.796,-40.21
50.812,-32.43
50.828,-23.21
50.843,-13.45
50.859,-4.01
50.875,4.45
50.890,11.5
50.906,16.97
50.921,20.79
50.937,22.98
50.953,23.56
50.968,22.69
50.984,20.63
51.000,17.79
51.015,14.67
51.031,11.76
51.046,9.43
51.062,7.82
51.078,6.93
51.093,6.56
51.109,6.45
51.125,6.36
51.140,6.08
51.156,5.54
51.171,4.74
51.187,3.77
51.203,2.74
51.218,1.7
51.234,0.62
51.250,-0.6
51.265,-2.09
51.281,-3.82
51.296,-5.62
51.312,-7.24
51.328,-8.46
51.343,-9.29
51.359,-9.91
51.375,-10.66
51.390,-11.88
51.406,-13.74
51.421,-16.2
51.437,-19.01
51.453,-21.79
51.468,-24.03
51.484,-25.15
51.500,-24.55
51.515,-21.74
51.531,-16.52
51.546,-9.11
51.562,-0.16
51.578,9.41
51.593,18.59
51.609,26.58
51.625,32.86
51.640,37.22
51.656,39.69
51.671,40.46
51.687,39.74
51.703,37.8
51.718,34.95
51.734,31.52
51.750,27.94
51.765,24.61
51.781,21.9
51.796,20.07
51.812,19.16
51.828,19.05
51.843,19.43
51.859,19.93
51.875,20.29
51.890,20.42
51.906,20.32
51.921,20.06
51.937,19.65
51.953,18.91
51.968,17.6
51.984,15.49
52.000,12.48
52.015,8.69
52.031,4.49
52.046,0.28
52.062,-3.57
52.078,-6.85
52.093,-9.56
52.109,-11.87
52.125,-14.04
52.140,-16.35
52.156,-18.94
52.171,-21.72
52.187,-24.33
52.203,-26.17
52.218,-26.48
52.234,-24.57
52.250,-20.04
52.265,-12.98
52.281,-3.98
52.296,5.97
52.312,15.69
52.328,24.12
52.343,30.47
52.359,34.44
52.375,36.06
52.390,35.67
52.406,33.66
52.421,30.44
52.437,26.37
52.453,21.81
52.468,17.17
52.484,12.87
52.500,9.26
52.515,6.59
52.531,4.86
52.546,3.91
52.562,3.4
52.578,3.04
52.593,2.65
52.609,2.19
52.625,1.7
52.640,1.18
52.656,0.58
52.671,-0.3
52.687,-1.69
52.703,-3.71
52.718,-6.37
52.734,-9.4
52.750,-12.45
52.765,-15.19
52.781,-17.47
52.796,-19.3
52.812,-20.89
52.828,-22.44
52.843,-24.12
52.859,-26.06
52.875,-28.28
52.890,-30.69
52.906,-33.04
52.921,-34.79
52.937,-35.16
52.953,-33.35
52.968,-28.78
52.984,-21.46
53.000,-12.01
53.015,-1.56
53.031,8.62
53.046,17.48
53.062,24.38
53.078,29.16
53.093,31.91
53.109,32.88
53.125,32.29
53.140,30.36
53.156,27.31
53.171,23.43
53.187,19.17
53.203,15.01
53.218,11.38
53.234,8.51
53.250,6.45
53.265,5.08
53.281,4.11
53.296,3.37
53.312,2.66
53.328,1.91
53.343,1.11
53.359,0.24
53.375,-0.77
53.390,-2.02
53.406,-3.64
53.421,-5.76
53.437,-8.45
53.453,-11.66
53.468,-15.18
53.484,-18.75
53.500,-22.05
53.515,-24.9
53.531,-27.27
53.546,-29.32
53.562,-31.32
53.578,-33.51
53.593,-36.06
53.609,-38.92
53.625,-41.87
53.640,-44.46
53.656,-46.05
53.671,-45.96
53.687,-43.66
53.703,-38.93
53.718,-31.94
53.734,-23.28
53.750,-13.77
53.765,-4.3
53.781,4.34
53.796,11.53
53.812,16.89
53.828,20.26
53.843,21.74
53.859,21.56
53.875,20.11
53.890,17.78
53.906,14.93
53.921,11.87
53.937,8.91
53.953,6.34
53.968,4.42
53.984,3.29
54.000,2.85
54.015,2.83
54.031,2.85
54.046,2.62
54.062,2.09
54.078,1.37
54.093,0.69
54.109,0.2
54.125,-0.1
54.140,-0.46
54.156,-1.19
54.171,-2.56
54.187,-4.61
54.203,-7.17
54.218,-9.92
54.234,-12.49
54.250,-14.69
54.265,-16.46
54.281,-17.94
54.296,-19.3
54.312,-20.72
54.328,-22.3
54.343,-24.02
54.359,-25.76
54.375,-27.26
54.390,-28.13
54.406,-27.79
54.421,-25.62
54.437,-21.17
54.453,-14.4
54.468,-5.78
54.484,3.79
54.500,13.25
54.515,21.61
54.531,28.24
54.546,32.87
54.562,35.56
54.578,36.59
54.593,36.24
54.609,34.73
54.625,32.29
54.640,29.16
54.656,25.63
54.671,22.08
54.687,18.87
54.703,16.32
54.718,14.61
54.734,13.74
54.750,13.5
54.765,13.62
54.781,13.79
54.796,13.87
54.812,13.82
54.828,13.69
54.843,13.5
54.859,13.22
54.875,12.71
54.890,11.83
54.906,10.49
54.921,8.72
54.937,6.63
54.953,4.4
54.968,2.13
54.984,-0.13
55.000,-2.39
55.015,-4.76
55.031,-7.32
55.046,-10.09
55.062,-13.1
55.078,-16.25
55.093,-19.42
55.109,-22.4
55.125,-24.87
55.140,-26.42
55.156,-26.55
55.171,-24.74
55.187,-20.59
55.203,-14.01
55.218,-5.35
55.234,4.58
55.250,14.71
55.265,23.93
55.281,31.39
55.296,36.61
55.312,39.6
55.328,40.6
55.343,39.97
55.359,38.04
55.375,35.05
55.390,31.29
55.406,27.07
55.421,22.8
55.437,18.92
55.453,15.73
55.468,13.32
55.484,11.6
55.500,10.41
55.515,9.51
55.531,8.79
55.546,8.17
55.562,7.6
55.578,7.03
55.593,6.35
55.609,5.49
55.625,4.39
55.640,3.06
55.656,1.5
55.671,-0.31
55.687,-2.42
55.703,-4.83
55.718,-7.47
55.734,-10.19
55.750,-12.79
55.765,-15.18
55.781,-17.38
55.796,-19.46
55.812,-21.51
55.828,-23.58
55.843,-25.73
55.859,-27.95
55.875,-30.28
55.890,-32.73
55.906,-35.06
55.921,-36.78
55.937,-37.15
55.953,-35.39
55.968,-30.91
55.984,-23.69
56.000,-14.26
56.015,-3.64
56.031,7.01
56.046,16.68
56.062,24.65
56.078,30.61
56.093,34.47
56.109,36.32
56.125,36.36
56.140,34.83
56.156,32.08
56.171,28.58
56.187,24.82
56.203,21.22
56.218,18.05
56.234,15.4
56.250,13.22
56.265,11.47
56.281,10.07
56.296,9.0
56.312,8.17
56.328,7.44
56.343,6.58
56.359,5.42
56.375,3.82
56.390,1.83
56.406,-0.37
56.421,-2.56
56.437,-4.55
56.453,-6.24
56.468,-7.63
56.484,-8.81
56.500,-9.89
56.515,-11.02
56.531,-12.35
56.546,-13.97
56.562,-15.95
56.578,-18.21
56.593,-20.62
56.609,-22.99
56.625,-25.17
56.640,-27.16
56.656,-29.04
56.671,-30.99
56.687,-33.14
56.703,-35.44
56.718,-37.61
56.734,-39.1
56.750,-39.22
56.765,-37.28
56.781,-32.87
56.796,-26.02
56.812,-17.16
56.828,-7.19
56.843,2.84
56.859,11.87
56.875,19.16
56.890,24.29
56.906,27.23
56.921,28.19
56.937,27.46
56.953,25.41
56.968,22.4
56.984,18.81
57.000,14.99
57.015,11.25
57.031,7.81
57.046,4.71
57.062,1.93
57.078,-0.54
57.093,-2.62
57.109,-4.16
57.125,-5.04
57.140,-5.27
57.156,-5.03
57.171,-4.71
57.187,-4.72
57.203,-5.32
57.218,-6.57
57.234,-8.28
57.250,-10.12
57.265,-11.8
57.281,-13.12
57.296,-14.01
57.312,-14.62
57.328,-15.15
57.343,-15.83
57.359,-16.88
57.375,-18.34
57.390,-20.15
57.406,-22.09
57.421,-23.91
57.437,-25.38
57.453,-26.44
57.468,-27.21
57.484,-27.89
57.500,-28.77
57.515,-29.99
57.531,-31.51
57.546,-33.07
57.562,-34.19
57.578,-34.25
57.593,-32.66
57.609,-28.94
57.625,-22.99
57.640,-15.15
57.656,-6.15
57.671,3.04
57.687,11.46
57.703,18.48
57.718,23.75
57.734,27.32
57.750,29.43
57.765,30.24
57.781,29.87
57.796,28.38
57.812,25.89
57.828,22.69
57.843,19.21
57.859,15.89
57.875,13.13
57.890,11.15
57.906,9.96
57.921,9.48
57.937,9.53
57.953,9.98
57.968,10.64
57.984,11.34
58.000,11.9
58.015,12.19
58.031,12.21
58.046,11.98
58.062,11.62
58.078,11.2
58.093,10.69
58.109,9.96
58.125,8.88
58.140,7.37
58.156,5.43
58.171,3.22
58.187,0.89
58.203,-1.39
58.218,-3.52
58.234,-5.43
58.250,-7.15
58.265,-8.77
58.281,-10.43
58.296,-12.27
58.312,-14.31
58.328,-16.35
58.343,-17.86
58.359,-18.17
58.375,-16.59
58.390,-12.67
58.406,-6.44
58.421,1.62
58.437,10.65
58.453,19.73
58.468,27.94
58.484,34.66
58.500,39.46
58.515,42.2
58.531,42.98
58.546,42.05
58.562,39.83
58.578,36.7
58.593,33.07
58.609,29.21
58.625,25.4
58.640,21.83
58.656,18.73
58.671,16.28
58.687,14.48
58.703,13.21
58.718,12.23
58.734,11.34
58.750,10.42
58.765,9.5
58.781,8.58
58.796,7.63
58.812,6.53
58.828,5.12
58.843,3.34
58.859,1.24
58.875,-1.01
58.890,-3.28
58.906,-5.55
58.921,-7.82
58.937,-10.15
58.953,-12.46
58.968,-14.64
58.984,-16.53
59.000,-18.1
59.015,-19.47
59.031,-20.89
59.046,-22.63
59.062,-24.83
59.078,-27.42
59.093,-30.07
59.109,-32.22
59.125,-33.13
59.140,-32.08
59.156,-28.54
59.171,-22.34
59.187,-13.85
59.203,-3.87
59.218,6.42
59.234,15.86
59.250,23.53
59.265,28.99
59.281,32.24
59.296,33.57
59.312,33.33
59.328,31.81
59.343,29.25
59.359,25.9
59.375,22.12
59.390,18.35
59.406,14.99
59.421,12.28
59.437,10.23
59.453,8.71
59.468,7.54
59.484,6.58
59.500,5.73
59.515,4.88
59.531,3.87
59.546,2.53
59.562,0.81
59.578,-1.25
59.593,-3.43
59.609,-5.51
59.625,-7.39
59.640,-9.09
59.656,-10.75
59.671,-12.56
59.687,-14.64
59.703,-16.95
59.718,-19.33
59.734,-21.57
59.750,-23.47
59.765,-24.91
59.781,-25.97
59.796,-26.88
59.812,-28.04
59.828,-29.86
59.843,-32.52
59.859,-35.86
59.875,-39.33
59.890,-42.05
59.906,-43.12
59.921,-41.75
59.937,-37.6
59.953,-30.82
59.968,-22.04
59.984,-12.17
