timestamp,value
00.000,-18.63
00.015,-23.24
00.031,-28.19
00.046,-34.77
00.062,-43.44
00.078,-53.03
00.093,-60.79
00.109,-63.44
00.125,-58.85
00.140,-47.22
00.156,-31.49
00.171,-16.31
00.187,-6.17
00.203,-3.8
00.218,-9.23
00.234,-20.21
00.250,-33.29
00.265,-45.16
00.281,-53.5
00.296,-57.21
00.312,-56.28
00.328,-51.18
00.343,-42.64
00.359,-31.36
00.375,-18.05
00.390,-3.27
00.406,12.56
00.421,29.27
00.437,46.88
00.453,65.52
00.468,85.37
00.484,106.47
00.500,128.54
00.515,150.55
00.531,170.55
00.546,185.91
00.562,194.08
00.578,193.48
00.593,184.27
00.609,168.38
00.625,149.0
00.640,129.62
00.656,113.23
00.671,101.94
00.687,97.21
00.703,100.06
00.718,110.94
00.734,129.24
00.750,152.51
00.765,176.45
00.781,195.54
00.796,204.74
00.812,200.89
00.828,183.69
00.843,155.32
00.859,119.34
00.875,79.27
00.890,37.82
00.906,-3.38
00.921,-43.35
00.937,-81.17
00.953,-116.09
00.968,-147.87
00.984,-177.32
01.000,-206.56
01.015,-238.76
01.031,-276.91
01.046,-322.32
01.062,-372.97
01.078,-422.94
01.093,-463.55
01.109,-485.98
01.125,-484.69
01.140,-459.75
01.156,-417.11
01.171,-366.4
01.187,-317.26
01.203,-276.08
01.218,-244.57
01.234,-220.67
01.250,-200.82
01.265,-182.15
01.281,-163.48
01.296,-144.76
01.312,-125.99
01.328,-106.45
01.343,-84.79
01.359,-59.95
01.375,-32.12
01.390,-2.99
01.406,24.76
01.421,48.57
01.437,67.26
01.453,81.52
01.468,93.45
01.484,105.56
01.500,119.52
01.515,135.45
01.531,152.01
01.546,167.13
01.562,179.04
01.578,186.83
01.593,190.67
01.609,191.51
01.625,190.74
01.640,189.92
01.656,190.35
01.671,192.46
01.687,195.14
01.703,195.45
01.718,189.2
01.734,172.27
01.750,142.41
01.765,100.63
01.781,51.24
01.796,0.44
01.812,-45.86
01.828,-84.12
01.843,-113.86
01.859,-137.02
01.875,-156.2
01.890,-173.15
01.906,-187.83
01.921,-198.97
01.937,-205.22
01.953,-206.37
01.968,-203.83
01.984,-200.06
02.000,-197.58
02.015,-197.78
02.031,-200.49
02.046,-204.29
02.062,-207.39
02.078,-208.37
02.093,-206.64
02.109,-202.13
02.125,-194.94
02.140,-184.92
02.156,-171.7
02.171,-155.08
02.187,-135.37
02.203,-113.52
02.218,-90.98
02.234,-69.16
02.250,-49.12
02.265,-31.23
02.281,-15.27
02.296,-0.63
02.312,13.26
02.328,26.65
02.343,39.42
02.359,51.1
02.375,61.17
02.390,69.29
02.406,75.44
02.421,79.91
02.437,83.25
02.453,86.11
02.468,89.06
02.484,92.45
02.500,96.36
02.515,100.6
02.531,104.84
02.546,108.6
02.562,111.5
02.578,113.35
02.593,114.17
02.609,114.27
02.625,114.1
02.640,114.06
02.656,114.38
02.671,114.95
02.687,115.42
02.703,115.43
02.718,114.87
02.734,114.07
02.750,113.67
02.765,114.3
02.781,116.28
02.796,119.36
02.812,122.79
02.828,125.64
02.843,127.21
02.859,127.3
02.875,126.19
02.890,124.41
02.906,122.25
02.921,119.6
02.937,115.96
02.953,110.86
02.968,104.32
02.984,97.11
03.000,90.75
03.015,87.01
03.031,87.43
03.046,92.78
03.062,102.86
03.078,116.3
03.093,130.61
03.109,142.33
03.125,147.52
03.140,142.72
03.156,126.19
03.171,98.83
03.187,64.41
03.203,28.75
03.218,-1.87
03.234,-22.69
03.250,-31.77
03.265,-30.48
03.281,-22.76
03.296,-13.63
03.312,-7.7
03.328,-7.93
03.343,-15.09
03.359,-28.17
03.375,-45.13
03.390,-63.67
03.406,-81.93
03.421,-98.38
03.437,-111.52
03.453,-119.48
03.468,-120.22
03.484,-112.22
03.500,-95.7
03.515,-73.3
03.531,-49.85
03.546,-31.17
03.562,-22.07
03.578,-24.62
03.593,-37.53
03.609,-56.62
03.625,-76.52
03.640,-92.54
03.656,-101.87
03.671,-103.89
03.687,-99.69
03.703,-91.52
03.718,-82.2
03.734,-75.12
03.750,-73.89
03.765,-81.76
03.781,-100.35
03.796,-128.31
03.812,-160.76
03.828,-190.14
03.843,-208.48
03.859,-209.99
03.875,-193.2
03.890,-161.24
03.906,-120.23
03.921,-77.06
03.937,-36.99
03.953,-2.5
03.968,26.38
03.984,51.14
04.000,73.53
04.015,94.85
04.031,115.52
04.046,135.33
04.062,153.33
04.078,167.92
04.093,176.9
04.109,177.78
04.125,168.59
04.140,148.61
04.156,119.0
04.171,82.8
04.187,44.56
04.203,9.28
04.218,-18.65
04.234,-36.5
04.250,-43.87
04.265,-42.58
04.281,-36.05
04.296,-28.07
04.312,-21.59
04.328,-17.8
04.343,-16.11
04.359,-14.86
04.375,-12.32
04.390,-7.75
04.406,-1.65
04.421,4.73
04.437,10.19
04.453,14.36
04.468,17.8
04.484,21.51
04.500,26.21
04.515,31.92
04.531,37.87
04.546,43.01
04.562,46.71
04.578,49.02
04.593,50.73
04.609,52.98
04.625,56.61
04.640,61.72
04.656,67.48
04.671,72.43
04.687,75.15
04.703,74.86
04.718,71.89
04.734,67.66
04.750,64.38
04.765,64.37
04.781,69.59
04.796,81.01
04.812,98.08
04.828,118.55
04.843,138.58
04.859,153.28
04.875,158.11
04.890,150.42
04.906,130.69
04.921,102.83
04.937,73.2
04.953,48.41
04.968,33.04
04.984,28.1
05.000,30.76
05.015,35.76
05.031,37.57
05.046,32.56
05.062,20.2
05.078,3.1
05.093,-14.21
05.109,-26.92
05.125,-31.67
05.140,-27.79
05.156,-17.44
05.171,-4.97
05.187,4.4
05.203,6.27
05.218,-1.53
05.234,-18.21
05.250,-40.22
05.265,-62.38
05.281,-79.73
05.296,-89.08
05.312,-90.19
05.328,-85.71
05.343,-80.19
05.359,-78.33
05.375,-83.47
05.390,-96.41
05.406,-115.39
05.421,-136.88
05.437,-156.81
05.453,-171.95
05.468,-180.65
05.484,-182.91
05.500,-179.92
05.515,-173.38
05.531,-164.89
05.546,-155.66
05.562,-146.34
05.578,-137.02
05.593,-127.33
05.609,-116.37
05.625,-102.9
05.640,-85.74
05.656,-64.28
05.671,-38.87
05.687,-10.94
05.703,17.35
05.718,43.81
05.734,66.82
05.750,85.76
05.765,100.96
05.781,113.26
05.796,123.62
05.812,132.8
05.828,141.15
05.843,148.67
05.859,155.29
05.875,160.95
05.890,165.59
05.906,169.05
05.921,170.8
05.937,170.05
05.953,165.95
05.968,157.98
05.984,146.39
06.000,132.36
06.015,117.63
06.031,103.97
06.046,92.38
06.062,82.73
06.078,73.61
06.093,62.78
06.109,47.72
06.125,26.53
06.140,-1.6
06.156,-35.91
06.171,-74.15
06.187,-112.87
06.203,-148.04
06.218,-175.88
06.234,-193.56
06.250,-199.63
06.265,-194.0
06.281,-177.9
06.296,-153.52
06.312,-123.84
06.328,-92.19
06.343,-61.98
06.359,-36.23
06.375,-17.25
06.390,-6.49
06.406,-4.5
06.421,-11.12
06.437,-25.52
06.453,-45.86
06.468,-69.15
06.484,-91.22
06.500,-107.43
06.515,-113.85
06.531,-108.56
06.546,-92.34
06.562,-68.4
06.578,-41.27
06.593,-15.12
06.609,7.17
06.625,24.4
06.640,36.57
06.656,44.28
06.671,48.22
06.687,49.23
06.703,48.48
06.718,47.4
06.734,47.29
06.750,48.61
06.765,50.7
06.781,52.2
06.796,51.88
06.812,49.55
06.828,46.32
06.843,44.03
06.859,44.1
06.875,46.53
06.890,49.56
06.906,50.28
06.921,45.86
06.937,34.8
06.953,17.67
06.968,-3.17
06.984,-24.41
07.000,-42.99
07.015,-56.9
07.031,-65.46
07.046,-69.01
07.062,-68.3
07.078,-63.96
07.093,-56.28
07.109,-45.58
07.125,-32.43
07.140,-18.0
07.156,-3.88
07.171,8.08
07.187,16.3
07.203,19.73
07.218,18.27
07.234,12.93
07.250,5.58
07.265,-1.66
07.281,-7.38
07.296,-11.66
07.312,-15.91
07.328,-22.0
07.343,-31.0
07.359,-42.31
07.375,-53.96
07.390,-63.52
07.406,-69.16
07.421,-70.27
07.437,-67.03
07.453,-59.81
07.468,-48.68
07.484,-33.68
07.500,-15.65
07.515,3.3
07.531,19.98
07.546,31.19
07.562,34.77
07.578,30.38
07.593,19.48
07.609,4.65
07.625,-11.26
07.640,-25.91
07.656,-37.92
07.671,-46.91
07.687,-53.19
07.703,-57.35
07.718,-59.87
07.734,-60.77
07.750,-59.98
07.765,-57.47
07.781,-53.71
07.796,-49.61
07.812,-46.15
07.828,-44.03
07.843,-43.31
07.859,-43.47
07.875,-43.69
07.890,-43.41
07.906,-42.49
07.921,-41.2
07.937,-40.05
07.953,-39.4
07.968,-39.39
07.984,-39.96
08.000,-40.96
08.015,-42.23
08.031,-43.52
08.046,-44.33
08.062,-43.65
08.078,-40.16
08.093,-32.41
08.109,-19.4
08.125,-1.02
08.140,21.81
08.156,47.22
08.171,73.03
08.187,97.24
08.203,118.71
08.218,137.19
08.234,153.27
08.250,167.92
08.265,181.96
08.281,195.79
08.296,209.18
08.312,221.57
08.328,232.16
08.343,239.99
08.359,243.75
08.375,241.76
08.390,232.33
08.406,214.43
08.421,188.6
08.437,157.05
08.453,123.13
08.468,90.16
08.484,60.42
08.500,34.88
08.515,13.8
08.531,-2.4
08.546,-12.62
08.562,-15.59
08.578,-11.21
08.593,-1.75
08.609,7.99
08.625,11.74
08.640,3.73
08.656,-19.4
08.671,-57.27
08.687,-105.92
08.703,-158.93
08.718,-209.31
08.734,-251.42
08.750,-282.14
08.765,-301.05
08.781,-309.52
08.796,-309.48
08.812,-302.38
08.828,-288.94
08.843,-269.66
08.859,-245.64
08.875,-218.99
08.890,-192.42
08.906,-168.41
08.921,-148.13
08.937,-131.19
08.953,-116.05
08.968,-101.08
08.984,-85.39
09.000,-69.19
09.015,-53.47
09.031,-39.39
09.046,-27.76
09.062,-18.65
09.078,-11.53
09.093,-5.6
09.109,-0.26
09.125,4.66
09.140,8.89
09.156,11.92
09.171,13.44
09.187,13.48
09.203,12.57
09.218,11.43
09.234,10.6
09.250,10.24
09.265,10.06
09.281,9.52
09.296,8.13
09.312,5.73
09.328,2.45
09.343,-1.4
09.359,-5.6
09.375,-10.07
09.390,-14.89
09.406,-20.13
09.421,-25.74
09.437,-31.55
09.453,-37.18
09.468,-42.18
09.484,-46.21
09.500,-49.03
09.515,-50.73
09.531,-51.66
09.546,-52.56
09.562,-54.12
09.578,-56.79
09.593,-60.21
09.609,-63.2
09.625,-64.02
09.640,-60.95
09.656,-53.09
09.671,-40.7
09.687,-25.16
09.703,-8.29
09.718,8.3
09.734,23.84
09.750,38.35
09.765,52.3
09.781,66.05
09.796,79.34
09.812,91.41
09.828,101.37
09.843,108.73
09.859,113.7
09.875,117.03
09.890,119.62
09.906,122.08
09.921,124.54
09.937,126.75
09.953,128.43
09.968,129.57
09.984,130.46
10.000,131.32
10.015,132.11
10.031,132.42
10.046,131.56
10.062,129.12
10.078,125.17
10.093,120.31
10.109,115.36
10.125,111.08
10.140,107.74
10.156,105.21
10.171,103.11
10.187,100.95
10.203,98.42
10.218,95.41
10.234,92.01
10.250,88.53
10.265,85.4
10.281,83.17
10.296,82.35
10.312,83.26
10.328,85.96
10.343,90.21
10.359,95.54
10.375,101.38
10.390,107.21
10.406,112.53
10.421,116.92
10.437,120.02
10.453,121.67
10.468,121.8
10.484,120.6
10.500,118.36
10.515,115.29
10.531,111.48
10.546,106.87
10.562,101.32
10.578,94.86
10.593,87.69
10.609,80.17
10.625,72.79
10.640,65.95
10.656,59.82
10.671,54.32
10.687,49.11
10.703,43.78
10.718,37.99
10.734,31.59
10.750,24.75
10.765,17.9
10.781,11.54
10.796,6.09
10.812,1.65
10.828,-2.07
10.843,-5.56
10.859,-9.39
10.875,-13.97
10.890,-19.45
10.906,-25.68
10.921,-32.32
10.937,-38.91
10.953,-44.87
10.968,-49.61
10.984,-52.47
11.000,-52.92
11.015,-50.65
11.031,-45.59
11.046,-38.03
11.062,-28.49
11.078,-17.61
11.093,-6.05
11.109,5.51
11.125,16.46
11.140,26.22
11.156,34.34
11.171,40.6
11.187,44.94
11.203,47.53
11.218,48.75
11.234,49.07
11.250,48.91
11.265,48.64
11.281,48.42
11.296,48.11
11.312,47.39
11.328,45.76
11.343,42.93
11.359,38.8
11.375,33.63
11.390,27.77
11.406,21.53
11.421,15.11
11.437,8.5
11.453,1.74
11.468,-5.11
11.484,-11.83
11.500,-18.19
11.515,-24.11
11.531,-29.72
11.546,-35.44
11.562,-41.72
11.578,-48.85
11.593,-56.72
11.609,-64.75
11.625,-71.92
11.640,-76.97
11.656,-78.84
11.671,-76.87
11.687,-71.1
11.703,-62.19
11.718,-51.19
11.734,-39.12
11.750,-26.83
11.765,-14.81
11.781,-3.32
11.796,7.32
11.812,16.66
11.828,24.15
11.843,29.3
11.859,31.97
11.875,32.4
11.890,31.13
11.906,28.78
11.921,25.91
11.937,22.87
11.953,19.9
11.968,17.14
11.984,14.6
12.000,12.17
12.015,9.54
12.031,6.33
12.046,2.28
12.062,-2.57
12.078,-7.79
12.093,-12.73
12.109,-16.81
12.125,-19.82
12.140,-21.95
12.156,-23.68
12.171,-25.47
12.187,-27.54
12.203,-29.94
12.218,-32.63
12.234,-35.58
12.250,-38.75
12.265,-41.97
12.281,-44.71
12.296,-46.19
12.312,-45.63
12.328,-42.58
12.343,-37.19
12.359,-30.16
12.375,-22.48
12.390,-14.95
12.406,-7.99
12.421,-1.65
12.437,4.14
12.453,9.2
12.468,13.01
12.484,14.87
12.500,14.32
12.515,11.46
12.531,7.01
12.546,2.17
12.562,-1.93
12.578,-4.76
12.593,-6.54
12.609,-8.11
12.625,-10.4
12.640,-14.02
12.656,-19.0
12.671,-24.82
12.687,-30.71
12.703,-36.08
12.718,-40.77
12.734,-45.09
12.750,-49.69
12.765,-55.24
12.781,-62.07
12.796,-69.94
12.812,-78.06
12.828,-85.28
12.843,-90.62
12.859,-93.55
12.875,-94.18
12.890,-92.96
12.906,-90.1
12.921,-85.32
12.937,-77.77
12.953,-66.47
12.968,-50.67
12.984,-30.22
13.000,-5.64
13.015,21.91
13.031,50.76
13.046,79.13
13.062,105.28
13.078,127.88
13.093,146.11
13.109,159.5
13.125,167.78
13.140,170.45
13.156,166.87
13.171,156.37
13.187,139.06
13.203,116.07
13.218,89.39
13.234,61.35
13.250,34.15
13.265,10.33
13.281,-6.78
13.296,-13.49
13.312,-7.33
13.328,10.95
13.343,35.99
13.359,58.74
13.375,69.77
13.390,63.38
13.406,40.56
13.421,8.61
13.437,-22.38
13.453,-44.43
13.468,-55.22
13.484,-58.51
13.500,-61.3
13.515,-69.67
13.531,-85.72
13.546,-106.79
13.562,-127.56
13.578,-142.92
13.593,-150.31
13.609,-150.4
13.625,-145.94
13.640,-139.88
13.656,-133.63
13.671,-127.01
13.687,-118.95
13.703,-109.0
13.718,-98.03
13.734,-87.92
13.750,-80.57
13.765,-76.77
13.781,-75.48
13.796,-74.17
13.812,-70.18
13.828,-61.99
13.843,-49.94
13.859,-36.1
13.875,-23.31
13.890,-14.05
13.906,-9.53
13.921,-9.49
13.937,-12.46
13.953,-16.53
13.968,-19.94
13.984,-21.66
14.000,-21.52
14.015,-20.19
14.031,-18.86
14.046,-18.72
14.062,-20.46
14.078,-24.05
14.093,-28.95
14.109,-34.43
14.125,-40.13
14.140,-46.22
14.156,-53.13
14.171,-61.13
14.187,-69.7
14.203,-77.54
14.218,-82.79
14.234,-83.84
14.250,-79.85
14.265,-71.13
14.281,-58.92
14.296,-44.91
14.312,-30.69
14.328,-17.38
14.343,-5.57
14.359,4.49
14.375,12.72
14.390,18.9
14.406,22.82
14.421,24.17
14.437,22.82
14.453,18.96
14.468,13.11
14.484,6.08
14.500,-1.22
14.515,-7.94
14.531,-13.52
14.546,-17.68
14.562,-20.56
14.578,-22.58
14.593,-24.39
14.609,-26.68
14.625,-29.99
14.640,-34.59
14.656,-40.41
14.671,-47.14
14.687,-54.23
14.703,-61.13
14.718,-67.33
14.734,-72.48
14.750,-76.47
14.765,-79.44
14.781,-81.6
14.796,-83.11
14.812,-83.93
14.828,-83.64
14.843,-81.55
14.859,-76.83
14.875,-68.86
14.890,-57.4
14.906,-42.63
14.921,-25.04
14.937,-5.27
14.953,15.81
14.968,37.19
14.984,57.56
15.000,75.53
15.015,89.87
15.031,99.81
15.046,105.27
15.062,106.94
15.078,106.01
15.093,103.78
15.109,101.38
15.125,99.48
15.140,98.25
15.156,97.38
15.171,96.22
15.187,93.96
15.203,89.84
15.218,83.31
15.234,74.15
15.250,62.55
15.265,49.03
15.281,34.41
15.296,19.61
15.312,5.54
15.328,-7.1
15.343,-17.96
15.359,-27.06
15.375,-34.77
15.390,-41.68
15.406,-48.4
15.421,-55.4
15.437,-62.71
15.453,-69.9
15.468,-76.02
15.484,-79.79
15.500,-79.86
15.515,-75.21
15.531,-65.44
15.546,-51.06
15.562,-33.35
15.578,-14.09
15.593,4.76
15.609,21.54
15.625,35.18
15.640,45.29
15.656,52.11
15.671,56.31
15.687,58.58
15.703,59.51
15.718,59.47
15.734,58.64
15.750,57.29
15.765,55.91
15.781,55.05
15.796,55.22
15.812,56.54
15.828,58.7
15.843,61.05
15.859,62.93
15.875,63.83
15.890,63.54
15.906,62.04
15.921,59.23
15.937,54.92
15.953,48.94
15.968,41.19
15.984,31.91
16.000,21.66
16.015,11.01
16.031,0.39
16.046,-10.2
16.062,-21.23
16.078,-33.22
16.093,-46.41
16.109,-60.31
16.125,-73.49
16.140,-83.87
16.156,-89.34
16.171,-88.43
16.187,-80.83
16.203,-67.53
16.218,-50.23
16.234,-30.89
16.250,-11.2
16.265,7.77
16.281,25.43
16.296,41.42
16.312,55.52
16.328,67.42
16.343,76.78
16.359,83.28
16.375,86.67
16.390,86.79
16.406,83.7
16.421,77.71
16.437,69.45
16.453,59.8
16.468,49.61
16.484,39.58
16.500,30.12
16.515,21.43
16.531,13.57
16.546,6.6
16.562,0.64
16.578,-4.26
16.593,-8.16
16.609,-11.23
16.625,-13.79
16.640,-16.14
16.656,-18.57
16.671,-21.35
16.687,-24.85
16.703,-29.45
16.718,-35.44
16.734,-42.73
16.750,-50.67
16.765,-58.03
16.781,-63.19
16.796,-64.71
16.812,-61.69
16.828,-54.12
16.843,-42.81
16.859,-29.16
16.875,-14.7
16.890,-0.73
16.906,11.96
16.921,23.1
16.937,32.73
16.953,40.98
16.968,47.95
16.984,53.57
17.000,57.75
17.015,60.51
17.031,62.08
17.046,63.03
17.062,64.12
17.078,66.03
17.093,69.12
17.109,73.3
17.125,77.98
17.140,82.32
17.156,85.3
17.171,86.0
17.187,83.57
17.203,77.32
17.218,66.78
17.234,51.78
17.250,32.57
17.265,9.97
17.281,-14.86
17.296,-40.59
17.312,-66.06
17.328,-90.71
17.343,-114.6
17.359,-138.22
17.375,-162.17
17.390,-186.66
17.406,-211.02
17.421,-233.57
17.437,-251.76
17.453,-262.77
17.468,-264.3
17.484,-255.35
17.500,-236.5
17.515,-209.89
17.531,-178.65
17.546,-146.08
17.562,-114.99
17.578,-87.35
17.593,-64.19
17.609,-45.79
17.625,-31.85
17.640,-21.51
17.656,-13.57
17.671,-6.63
17.687,0.56
17.703,8.7
17.718,17.83
17.734,27.42
17.750,36.71
17.765,45.1
17.781,52.49
17.796,59.14
17.812,65.44
17.828,71.59
17.843,77.32
17.859,82.1
17.875,85.28
17.890,86.39
17.906,85.37
17.921,82.63
17.937,78.88
17.953,74.89
17.968,71.24
17.984,68.13
18.000,65.48
18.015,63.08
18.031,60.94
18.046,59.48
18.062,59.54
18.078,61.96
18.093,67.29
18.109,75.64
18.125,86.73
18.140,100.2
18.156,115.49
18.171,131.73
18.187,147.37
18.203,160.33
18.218,168.43
18.234,170.32
18.250,166.07
18.265,157.19
18.281,145.86
18.296,133.82
18.312,121.67
18.328,108.83
18.343,94.31
18.359,77.55
18.375,59.09
18.390,40.35
18.406,23.0
18.421,8.31
18.437,-3.09
18.453,-11.15
18.468,-16.15
18.484,-18.46
18.500,-18.47
18.515,-16.73
18.531,-13.99
18.546,-11.18
18.562,-9.24
18.578,-8.8
18.593,-10.1
18.609,-13.04
18.625,-17.33
18.640,-22.72
18.656,-29.21
18.671,-36.97
18.687,-46.15
18.703,-56.52
18.718,-67.24
18.734,-76.78
18.750,-83.22
18.765,-84.74
18.781,-80.18
18.796,-69.52
18.812,-53.84
18.828,-35.04
18.843,-15.11
18.859,4.38
18.875,22.67
18.890,39.65
18.906,55.54
18.921,70.38
18.937,83.81
18.953,95.17
18.968,103.81
18.984,109.53
19.000,112.64
19.015,114.02
19.031,114.67
19.046,115.41
19.062,116.58
19.078,118.01
19.093,119.22
19.109,119.57
19.125,118.38
19.140,115.04
19.156,109.02
19.171,99.9
19.187,87.4
19.203,71.61
19.218,52.86
19.234,31.91
19.250,9.64
19.265,-12.97
19.281,-35.06
19.296,-55.98
19.312,-75.44
19.328,-93.38
19.343,-109.81
19.359,-124.53
19.375,-136.64
19.390,-144.61
19.406,-146.46
19.421,-140.52
19.437,-126.12
19.453,-104.17
19.468,-77.0
19.484,-47.58
19.500,-18.57
19.515,8.52
19.531,33.51
19.546,57.09
19.562,80.0
19.578,102.41
19.593,123.62
19.609,142.39
19.625,157.48
19.640,168.01
19.656,173.75
19.671,175.03
19.687,172.62
19.703,167.77
19.718,162.13
19.734,157.57
19.750,155.73
19.765,157.21
19.781,160.82
19.796,163.45
19.812,160.71
19.828,148.38
19.843,124.02
19.859,88.32
19.875,45.29
19.890,1.13
19.906,-38.0
19.921,-68.21
19.937,-89.24
19.953,-104.21
19.968,-118.01
19.984,-135.12
20.000,-158.23
20.015,-187.93
20.031,-223.43
20.046,-263.24
20.062,-305.3
20.078,-346.34
20.093,-381.72
20.109,-406.17
20.125,-415.64
20.140,-409.26
20.156,-390.1
20.171,-363.94
20.187,-336.57
20.203,-311.46
20.218,-288.74
20.234,-266.34
20.250,-242.06
20.265,-215.34
20.281,-187.59
20.296,-161.22
20.312,-138.05
20.328,-118.55
20.343,-101.95
20.359,-87.11
20.375,-73.42
20.390,-60.88
20.406,-49.86
20.421,-40.53
20.437,-32.41
20.453,-24.51
20.468,-15.75
20.484,-5.56
20.500,5.76
20.515,17.06
20.531,26.85
20.546,33.86
20.562,37.65
20.578,38.79
20.593,38.63
20.609,38.76
20.625,40.29
20.640,43.51
20.656,47.77
20.671,51.74
20.687,54.08
20.703,53.96
20.718,51.71
20.734,48.95
20.750,48.41
20.765,52.99
20.781,64.78
20.796,84.11
20.812,109.22
20.828,136.72
20.843,162.74
20.859,184.24
20.875,199.69
20.890,209.27
20.906,214.07
20.921,215.29
20.937,213.61
20.953,209.19
20.968,202.03
20.984,192.38
21.000,180.74
21.015,167.56
21.031,153.11
21.046,137.39
21.062,120.68
21.078,103.92
21.093,88.83
21.109,77.18
21.125,69.62
21.140,65.03
21.156,60.57
21.171,53.15
21.187,41.02
21.203,24.85
21.218,7.49
21.234,-7.38
21.250,-16.86
21.265,-20.01
21.281,-17.71
21.296,-11.64
21.312,-3.15
21.328,7.04
21.343,18.5
21.359,30.46
21.375,41.44
21.390,49.67
21.406,53.86
21.421,53.99
21.437,51.27
21.453,47.41
21.468,43.52
21.484,39.57
21.500,34.52
21.515,27.28
21.531,17.79
21.546,7.38
21.562,-1.6
21.578,-7.17
21.593,-8.87
21.609,-8.41
21.625,-9.2
21.640,-15.29
21.656,-29.92
21.671,-54.52
21.687,-88.23
21.703,-128.15
21.718,-170.05
21.734,-209.33
21.750,-242.07
21.765,-265.83
21.781,-280.41
21.796,-287.56
21.812,-290.14
21.828,-290.83
21.843,-290.89
21.859,-289.79
21.875,-285.66
21.890,-276.49
21.906,-261.39
21.921,-241.21
21.937,-218.3
21.953,-195.61
21.968,-175.64
21.984,-159.82
22.000,-148.47
22.015,-141.24
22.031,-137.5
22.046,-136.45
22.062,-136.83
22.078,-136.72
22.093,-133.73
22.109,-125.62
22.125,-111.11
22.140,-90.46
22.156,-65.47
22.171,-38.79
22.187,-13.11
22.203,9.66
22.218,28.67
22.234,44.0
22.250,56.14
22.265,65.66
22.281,72.8
22.296,77.57
22.312,79.92
22.328,79.95
22.343,78.09
22.359,75.12
22.375,71.89
22.390,69.16
22.406,67.4
22.421,66.56
22.437,66.18
22.453,65.66
22.468,64.42
22.484,62.11
22.500,58.6
22.515,53.92
22.531,48.27
22.546,41.93
22.562,35.27
22.578,28.74
22.593,22.75
22.609,17.57
22.625,13.16
22.640,9.11
22.656,4.65
22.671,-1.08
22.687,-8.72
22.703,-18.2
22.718,-28.56
22.734,-38.01
22.750,-44.4
22.765,-45.77
22.781,-41.04
22.796,-30.38
22.812,-15.0
22.828,3.27
22.843,22.65
22.859,41.75
22.875,59.58
22.890,75.31
22.906,88.01
22.921,96.81
22.937,101.18
22.953,101.48
22.968,99.15
22.984,96.49
23.000,95.9
23.015,98.97
23.031,105.88
23.046,115.27
23.062,124.92
23.078,132.66
23.093,137.15
23.109,138.21
23.125,136.67
23.140,133.86
23.156,131.05
23.171,129.11
23.187,128.42
23.203,128.91
23.218,130.31
23.234,132.16
23.250,133.79
23.265,134.64
23.281,134.47
23.296,133.71
23.312,133.51
23.328,135.24
23.343,139.73
23.359,146.47
23.375,153.37
23.390,157.31
23.406,155.46
23.421,146.67
23.437,132.28
23.453,116.03
23.468,102.79
23.484,97.04
23.500,101.3
23.515,115.33
23.531,136.1
23.546,158.42
23.562,176.23
23.578,183.93
23.593,177.88
23.609,157.15
23.625,123.56
23.640,80.79
23.656,33.13
23.671,-15.68
23.687,-62.9
23.703,-106.81
23.718,-146.28
23.734,-180.58
23.750,-209.54
23.765,-233.43
23.781,-252.52
23.796,-266.25
23.812,-272.8
23.828,-269.43
23.843,-254.14
23.859,-227.27
23.875,-192.37
23.890,-155.34
23.906,-122.03
23.921,-95.78
23.937,-76.21
23.953,-60.17
23.968,-44.11
23.984,-26.47
24.000,-8.49
24.015,6.98
24.031,17.52
24.046,22.99
24.062,25.73
24.078,29.46
24.093,37.47
24.109,51.41
24.125,70.86
24.140,93.63
24.156,116.67
24.171,136.36
24.187,149.06
24.203,151.33
24.218,140.94
24.234,117.82
24.250,84.71
24.265,46.44
24.281,8.33
24.296,-25.73
24.312,-54.38
24.328,-78.07
24.343,-97.46
24.359,-111.66
24.375,-118.05
24.390,-113.68
24.406,-97.59
24.421,-72.44
24.437,-44.2
24.453,-19.98
24.468,-5.07
24.484,-0.91
24.500,-5.01
24.515,-12.69
24.531,-19.59
24.546,-23.53
24.562,-25.23
24.578,-27.71
24.593,-35.28
24.609,-51.99
24.625,-80.53
24.640,-120.93
24.656,-169.91
24.671,-220.96
24.687,-265.6
24.703,-295.76
24.718,-306.28
24.734,-296.61
24.750,-270.61
24.765,-234.83
24.781,-195.79
24.796,-157.97
24.812,-123.11
24.828,-91.07
24.843,-61.34
24.859,-34.17
24.875,-10.67
24.890,8.03
24.906,21.73
24.921,31.63
24.937,39.84
24.953,48.33
24.968,58.0
24.984,68.3
25.000,77.69
25.015,84.6
25.031,88.33
25.046,89.45
25.062,89.51
25.078,90.31
25.093,92.99
25.109,97.65
25.125,103.27
25.140,108.27
25.156,111.16
25.171,111.06
25.187,107.95
25.203,102.48
25.218,95.61
25.234,88.09
25.250,80.17
25.265,71.27
25.281,60.29
25.296,45.93
25.312,27.26
25.328,4.26
25.343,-22.05
25.359,-49.72
25.375,-76.6
25.390,-100.79
25.406,-121.17
25.421,-137.33
25.437,-149.29
25.453,-157.23
25.468,-161.35
25.484,-161.96
25.500,-159.68
25.515,-155.52
25.531,-150.76
25.546,-146.61
25.562,-143.82
25.578,-142.46
25.593,-141.92
25.609,-141.09
25.625,-138.55
25.640,-132.98
25.656,-123.42
25.671,-109.67
25.687,-92.46
25.703,-73.33
25.718,-54.27
25.734,-37.19
25.750,-23.32
25.765,-12.99
25.781,-5.8
25.796,-0.96
25.812,2.29
25.828,4.48
25.843,5.85
25.859,6.56
25.875,6.75
25.890,6.55
25.906,5.95
25.921,4.7
25.937,2.39
25.953,-1.25
25.968,-5.99
25.984,-10.88
26.000,-14.4
26.015,-14.8
26.031,-10.76
26.046,-1.83
26.062,11.38
26.078,27.43
26.093,44.54
26.109,61.04
26.125,75.84
26.140,88.36
26.156,98.43
26.171,106.05
26.187,111.19
26.203,113.87
26.218,114.16
26.234,112.39
26.250,109.02
26.265,104.62
26.281,99.7
26.296,94.55
26.312,89.25
26.328,83.8
26.343,78.29
26.359,72.95
26.375,68.23
26.390,64.61
26.406,62.4
26.421,61.62
26.437,62.03
26.453,63.15
26.468,64.44
26.484,65.45
26.500,65.96
26.515,65.9
26.531,65.24
26.546,63.93
26.562,61.76
26.578,58.43
26.593,53.64
26.609,47.32
26.625,39.76
26.640,31.72
26.656,24.45
26.671,19.42
26.687,18.04
26.703,21.33
26.718,29.58
26.734,42.25
26.750,57.84
26.765,73.98
26.781,87.77
26.796,96.43
26.812,98.11
26.828,92.3
26.843,80.18
26.859,64.17
26.875,47.29
26.890,32.47
26.906,21.9
26.921,16.78
26.937,17.29
26.953,22.72
26.968,31.6
26.984,41.98
27.000,51.84
27.015,59.43
27.031,63.84
27.046,64.99
27.062,63.58
27.078,60.65
27.093,57.15
27.109,53.6
27.125,50.27
27.140,47.17
27.156,44.42
27.171,42.31
27.187,41.19
27.203,41.35
27.218,42.72
27.234,44.83
27.250,46.91
27.265,48.17
27.281,47.99
27.296,46.16
27.312,42.99
27.328,39.17
27.343,35.69
27.359,33.64
27.375,33.92
27.390,36.98
27.406,42.82
27.421,50.9
27.437,60.39
27.453,70.41
27.468,80.26
27.484,89.55
27.500,98.14
27.515,105.92
27.531,112.7
27.546,118.17
27.562,121.89
27.578,123.5
27.593,122.78
27.609,119.72
27.625,114.48
27.640,107.35
27.656,98.66
27.671,88.71
27.687,77.8
27.703,66.27
27.718,54.49
27.734,42.85
27.750,31.73
27.765,21.42
27.781,12.07
27.796,3.64
27.812,-4.01
27.828,-11.12
27.843,-17.9
27.859,-24.46
27.875,-30.86
27.890,-37.06
27.906,-43.01
27.921,-48.72
27.937,-54.2
27.953,-59.5
27.968,-64.68
27.984,-69.78
28.000,-74.8
28.015,-79.64
28.031,-84.03
28.046,-87.45
28.062,-89.19
28.078,-88.53
28.093,-84.92
28.109,-78.17
28.125,-68.59
28.140,-56.95
28.156,-44.21
28.171,-31.31
28.187,-18.97
28.203,-7.59
28.218,2.63
28.234,11.61
28.250,19.26
28.265,25.51
28.281,30.32
28.296,33.8
28.312,36.21
28.328,37.93
28.343,39.32
28.359,40.67
28.375,42.13
28.390,43.7
28.406,45.34
28.421,47.1
28.437,49.16
28.453,51.78
28.468,55.25
28.484,59.72
28.500,65.18
28.515,71.44
28.531,78.14
28.546,85.0
28.562,91.89
28.578,98.94
28.593,106.45
28.609,114.82
28.625,124.37
28.640,135.13
28.656,146.7
28.671,158.14
28.687,168.11
28.703,175.1
28.718,177.78
28.734,175.34
28.750,167.77
28.765,155.88
28.781,141.2
28.796,125.73
28.812,111.5
28.828,100.2
28.843,92.97
28.859,90.19
28.875,91.43
28.890,95.5
28.906,100.71
28.921,105.21
28.937,107.37
28.953,106.15
28.968,101.14
28.984,92.67
29.000,81.71
29.015,69.42
29.031,56.83
29.046,44.52
29.062,32.5
29.078,20.4
29.093,7.66
29.109,-6.33
29.125,-22.07
29.140,-39.99
29.156,-60.37
29.171,-83.06
29.187,-107.21
29.203,-131.11
29.218,-152.52
29.234,-169.41
29.250,-180.81
29.265,-187.15
29.281,-189.89
29.296,-190.68
29.312,-190.49
29.328,-189.36
29.343,-186.93
29.359,-183.24
29.375,-179.12
29.390,-176.31
29.406,-176.54
29.421,-180.85
29.437,-189.1
29.453,-200.01
29.468,-211.8
29.484,-222.89
29.500,-232.05
29.515,-238.3
29.531,-240.73
29.546,-238.35
29.562,-230.36
29.578,-216.46
29.593,-197.17
29.609,-173.84
29.625,-148.37
29.640,-122.74
29.656,-98.51
29.671,-76.58
29.687,-57.19
29.703,-40.11
29.718,-24.99
29.734,-11.51
29.750,0.42
29.765,10.76
29.781,19.41
29.796,26.45
29.812,32.08
29.828,36.62
29.843,40.4
29.859,43.61
29.875,46.35
29.890,48.64
29.906,50.44
29.921,51.64
29.937,51.92
29.953,50.73
29.968,47.26
29.984,40.64
30.000,30.29
30.015,16.19
30.031,-0.97
30.046,-19.83
30.062,-38.73
30.078,-56.01
30.093,-70.43
30.109,-81.35
30.125,-88.87
30.140,-93.66
30.156,-96.76
30.171,-99.29
30.187,-102.16
30.203,-105.92
30.218,-110.59
30.234,-115.62
30.250,-119.99
30.265,-122.41
30.281,-121.64
30.296,-116.92
30.312,-108.25
30.328,-96.33
30.343,-82.24
30.359,-67.11
30.375,-51.67
30.390,-36.18
30.406,-20.76
30.421,-5.65
30.437,8.44
30.453,20.29
30.468,28.55
30.484,32.24
30.500,31.09
30.515,25.69
30.531,17.3
30.546,7.47
30.562,-2.33
30.578,-11.03
30.593,-17.99
30.609,-22.95
30.625,-25.88
30.640,-26.91
30.656,-26.28
30.671,-24.33
30.687,-21.56
30.703,-18.53
30.718,-15.89
30.734,-14.27
30.750,-14.27
30.765,-16.25
30.781,-20.39
30.796,-26.53
30.812,-34.23
30.828,-43.03
30.843,-52.36
30.859,-61.86
30.875,-71.37
30.890,-80.83
30.906,-90.38
30.921,-100.19
30.937,-110.34
30.953,-120.71
30.968,-130.83
30.984,-139.88
31.000,-146.79
31.015,-150.54
31.031,-150.46
31.046,-146.48
31.062,-139.05
31.078,-129.06
31.093,-117.46
31.109,-105.13
31.125,-92.74
31.140,-80.69
31.156,-69.28
31.171,-58.7
31.187,-49.08
31.203,-40.48
31.218,-32.94
31.234,-26.41
31.250,-20.74
31.265,-15.66
31.281,-10.86
31.296,-6.07
31.312,-1.04
31.328,4.24
31.343,9.65
31.359,14.96
31.375,19.96
31.390,24.44
31.406,28.28
31.421,31.31
31.437,33.29
31.453,34.06
31.468,33.57
31.484,31.98
31.500,29.68
31.515,27.16
31.531,24.81
31.546,22.78
31.562,20.91
31.578,18.8
31.593,15.98
31.609,12.07
31.625,6.92
31.640,0.75
31.656,-5.87
31.671,-12.07
31.687,-16.73
31.703,-18.69
31.718,-17.09
31.734,-11.56
31.750,-2.51
31.765,9.03
31.781,21.66
31.796,34.0
31.812,45.12
31.828,54.6
31.843,62.54
31.859,69.11
31.875,74.41
31.890,78.27
31.906,80.39
31.921,80.58
31.937,78.87
31.953,75.62
31.968,71.41
31.984,66.88
32.000,62.64
32.015,59.15
32.031,56.68
32.046,55.33
32.062,54.99
32.078,55.35
32.093,55.95
32.109,56.21
32.125,55.61
32.140,53.72
32.156,50.44
32.171,45.89
32.187,40.37
32.203,34.34
32.218,28.17
32.234,22.04
32.250,15.87
32.265,9.41
32.281,2.31
32.296,-5.49
32.312,-13.68
32.328,-21.44
32.343,-27.6
32.359,-30.9
32.375,-30.43
32.390,-25.92
32.406,-17.76
32.421,-7.0
32.437,5.01
32.453,16.96
32.468,27.86
32.484,37.19
32.500,44.9
32.515,51.18
32.531,56.26
32.546,60.23
32.562,62.93
32.578,64.15
32.593,63.78
32.609,61.96
32.625,59.17
32.640,56.0
32.656,53.05
32.671,50.68
32.687,48.92
32.703,47.51
32.718,46.04
32.734,44.07
32.750,41.28
32.765,37.62
32.781,33.18
32.796,28.27
32.812,23.19
32.828,18.23
32.843,13.53
32.859,9.11
32.875,4.9
32.890,0.73
32.906,-3.59
32.921,-8.33
32.937,-13.63
32.953,-19.36
32.968,-24.94
32.984,-29.24
33.000,-30.91
33.015,-28.78
33.031,-22.36
33.046,-12.06
33.062,0.84
33.078,14.73
33.093,28.11
33.109,40.05
33.125,50.25
33.140,58.84
33.156,66.09
33.171,72.05
33.187,76.59
33.203,79.42
33.218,80.52
33.234,80.12
33.250,78.74
33.265,77.07
33.281,75.49
33.296,74.15
33.312,72.91
33.328,71.54
33.343,69.9
33.359,68.05
33.375,66.03
33.390,63.85
33.406,61.45
33.421,58.71
33.437,55.79
33.453,53.14
33.468,51.2
33.484,50.09
33.500,49.31
33.515,47.76
33.531,44.33
33.546,38.5
33.562,30.8
33.578,22.74
33.593,16.2
33.609,12.75
33.625,13.17
33.640,17.41
33.656,24.99
33.671,35.27
33.687,47.68
33.703,61.51
33.718,75.73
33.734,89.13
33.750,100.52
33.765,109.27
33.781,115.51
33.796,120.11
33.812,124.25
33.828,129.04
33.843,135.22
33.859,142.98
33.875,151.88
33.890,160.74
33.906,167.65
33.921,170.1
33.937,165.61
33.953,152.6
33.968,131.13
33.984,103.3
34.000,72.82
34.015,44.12
34.031,21.13
34.046,6.16
34.062,-0.87
34.078,-2.38
34.093,-2.6
34.109,-6.38
34.125,-17.82
34.140,-39.18
34.156,-70.14
34.171,-107.96
34.187,-148.36
34.203,-186.66
34.218,-218.99
34.234,-242.98
34.250,-257.91
34.265,-264.42
34.281,-263.93
34.296,-258.17
34.312,-248.58
34.328,-236.27
34.343,-221.8
34.359,-205.4
34.375,-187.18
34.390,-167.32
34.406,-146.17
34.421,-124.29
34.437,-102.43
34.453,-81.54
34.468,-62.63
34.484,-46.67
34.500,-34.29
34.515,-25.63
34.531,-20.18
34.546,-16.84
34.562,-14.31
34.578,-11.46
34.593,-7.8
34.609,-3.51
34.625,0.67
34.640,3.99
34.656,6.0
34.671,6.83
34.687,7.11
34.703,7.65
34.718,9.09
34.734,11.67
34.750,15.08
34.765,18.62
34.781,21.55
34.796,23.28
34.812,23.64
34.828,22.91
34.843,21.75
34.859,20.86
34.875,20.81
34.890,21.76
34.906,23.48
34.921,25.5
34.937,27.31
34.953,28.58
34.968,29.29
34.984,29.63
35.000,30.01
35.015,30.97
35.031,33.15
35.046,37.29
35.062,44.15
35.078,54.32
35.093,68.07
35.109,85.21
35.125,105.08
35.140,126.73
35.156,149.19
35.171,171.64
35.187,193.42
35.203,213.85
35.218,231.98
35.234,246.51
35.250,256.1
35.265,259.8
35.281,257.41
35.296,249.59
35.312,237.58
35.328,222.57
35.343,205.43
35.359,186.63
35.375,166.66
35.390,146.35
35.406,126.98
35.421,110.08
35.437,96.68
35.453,86.8
35.468,79.1
35.484,71.22
35.500,60.48
35.515,44.87
35.531,23.73
35.546,-2.04
35.562,-30.49
35.578,-59.37
35.593,-87.08
35.609,-113.2
35.625,-138.43
35.640,-163.92
35.656,-190.25
35.671,-216.55
35.687,-240.36
35.703,-258.22
35.718,-266.82
35.734,-264.27
35.750,-250.78
35.765,-228.46
35.781,-200.48
35.796,-169.8
35.812,-138.34
35.828,-107.0
35.843,-76.19
35.859,-46.72
35.875,-20.01
35.890,2.31
35.906,19.31
35.921,31.39
35.937,40.47
35.953,49.27
35.968,60.42
35.984,75.49
36.000,94.29
36.015,114.69
36.031,132.91
36.046,144.53
36.062,145.74
36.078,134.59
36.093,111.68
36.109,79.9
36.125,43.21
36.140,5.11
36.156,-32.45
36.171,-69.3
36.187,-106.37
36.203,-144.74
36.218,-184.93
36.234,-226.63
36.250,-268.72
36.265,-309.44
36.281,-346.49
36.296,-377.24
36.312,-399.36
36.328,-411.38
36.343,-413.23
36.359,-406.0
36.375,-391.29
36.390,-370.41
36.406,-344.18
36.421,-313.32
36.437,-279.21
36.453,-244.31
36.468,-211.7
36.484,-183.97
36.500,-161.98
36.515,-144.49
36.531,-128.68
36.546,-111.64
36.562,-91.66
36.578,-68.87
36.593,-44.92
36.609,-21.8
36.625,-0.84
36.640,17.83
36.656,34.88
36.671,51.1
36.687,66.72
36.703,81.2
36.718,93.52
36.734,102.83
36.750,109.16
36.765,113.42
36.781,117.19
36.796,121.98
36.812,128.64
36.828,136.99
36.843,145.96
36.859,154.03
36.875,159.87
36.890,162.88
36.906,163.32
36.921,162.27
36.937,161.1
36.953,161.1
36.968,162.75
36.984,165.37
37.000,167.29
37.015,166.26
37.031,160.5
37.046,149.46
37.062,134.1
37.078,116.36
37.093,98.17
37.109,80.51
37.125,63.01
37.140,44.64
37.156,24.59
37.171,3.42
37.187,-16.74
37.203,-32.59
37.218,-40.79
37.234,-39.15
37.250,-27.31
37.265,-7.1
37.281,17.86
37.296,42.5
37.312,61.45
37.328,70.24
37.343,66.65
37.359,51.57
37.375,28.85
37.390,4.13
37.406,-17.2
37.421,-31.51
37.437,-38.08
37.453,-38.71
37.468,-36.54
37.484,-34.64
37.500,-34.87
37.515,-37.64
37.531,-42.12
37.546,-47.0
37.562,-50.92
37.578,-52.85
37.593,-52.07
37.609,-48.03
37.625,-40.48
37.640,-29.53
37.656,-15.95
37.671,-1.17
37.687,12.93
37.703,24.43
37.718,32.15
37.734,36.02
37.750,37.36
37.765,38.31
37.781,40.98
37.796,46.18
37.812,52.62
37.828,57.18
37.843,56.11
37.859,46.93
37.875,30.26
37.890,10.6
37.906,-4.78
37.921,-8.32
37.937,4.65
37.953,33.62
37.968,72.65
37.984,112.31
38.000,142.88
38.015,157.47
38.031,153.88
38.046,134.48
38.062,104.79
38.078,71.4
38.093,40.06
38.109,14.48
38.125,-4.18
38.140,-17.3
38.156,-28.14
38.171,-40.54
38.187,-57.42
38.203,-79.3
38.218,-103.84
38.234,-126.71
38.250,-143.38
38.265,-151.02
38.281,-149.57
38.296,-141.38
38.312,-130.01
38.328,-118.71
38.343,-109.74
38.359,-104.41
38.375,-103.63
38.390,-108.04
38.406,-117.77
38.421,-131.79
38.437,-147.89
38.453,-163.34
38.468,-176.18
38.484,-186.06
38.500,-194.19
38.515,-202.18
38.531,-210.74
38.546,-218.64
38.562,-223.04
38.578,-220.48
38.593,-208.43
38.609,-186.32
38.625,-155.71
38.640,-119.84
38.656,-82.5
38.671,-47.21
38.687,-16.47
38.703,8.55
38.718,28.08
38.734,43.5
38.750,56.55
38.765,68.61
38.781,79.98
38.796,89.47
38.812,94.52
38.828,92.02
38.843,79.15
38.859,54.51
38.875,18.81
38.890,-24.83
38.906,-71.34
38.921,-114.73
38.937,-149.48
38.953,-171.89
38.968,-180.89
38.984,-178.17
39.000,-167.44
39.015,-153.24
39.031,-139.7
39.046,-129.61
39.062,-124.09
39.078,-122.9
39.093,-124.87
39.109,-128.68
39.125,-133.17
39.140,-137.61
39.156,-141.7
39.171,-145.53
39.187,-149.49
39.203,-154.2
39.218,-160.34
39.234,-168.22
39.250,-177.29
39.265,-185.93
39.281,-191.6
39.296,-191.51
39.312,-183.55
39.328,-167.09
39.343,-143.12
39.359,-113.95
39.375,-82.32
39.390,-50.69
39.406,-20.67
39.421,6.94
39.437,31.87
39.453,53.95
39.468,72.9
39.484,88.31
39.500,99.92
39.515,107.92
39.531,112.99
39.546,116.26
39.562,118.84
39.578,121.62
39.593,124.97
39.609,128.77
39.625,132.65
39.640,136.25
39.656,139.53
39.671,142.68
39.687,145.97
39.703,149.48
39.718,152.92
39.734,155.68
39.750,157.0
39.765,156.35
39.781,153.61
39.796,149.3
39.812,144.46
39.828,140.26
39.843,137.55
39.859,136.5
39.875,136.58
39.890,136.75
39.906,135.7
39.921,132.18
39.937,125.29
39.953,114.71
39.968,101.02
39.984,85.75
40.000,71.29
40.015,60.39
40.031,55.28
40.046,56.98
40.062,64.89
40.078,77.09
40.093,91.17
40.109,105.01
40.125,117.28
40.140,127.41
40.156,135.24
40.171,140.6
40.187,143.28
40.203,143.19
40.218,140.71
40.234,136.95
40.250,133.61
40.265,132.54
40.281,135.0
40.296,140.85
40.312,148.09
40.328,153.18
40.343,151.83
40.359,140.5
40.375,117.64
40.390,84.45
40.406,44.54
40.421,2.76
40.437,-36.28
40.453,-69.36
40.468,-95.04
40.484,-113.39
40.500,-125.23
40.515,-131.57
40.531,-133.3
40.546,-131.3
40.562,-126.59
40.578,-120.37
40.593,-113.89
40.609,-108.18
40.625,-103.85
40.640,-100.99
40.656,-99.33
40.671,-98.51
40.687,-98.4
40.703,-99.16
40.718,-100.98
40.734,-103.77
40.750,-106.7
40.765,-108.22
40.781,-106.31
40.796,-99.21
40.812,-86.1
40.828,-67.42
40.843,-44.81
40.859,-20.49
40.875,3.45
40.890,25.67
40.906,45.64
40.921,63.52
40.937,79.63
40.953,94.02
40.968,106.44
40.984,116.31
41.000,123.12
41.015,126.63
41.031,127.07
41.046,125.08
41.062,121.57
41.078,117.46
41.093,113.45
41.109,110.09
41.125,107.55
41.140,105.79
41.156,104.52
41.171,103.31
41.187,101.63
41.203,99.01
41.218,95.22
41.234,90.33
41.250,84.76
41.265,79.05
41.281,73.76
41.296,69.16
41.312,65.22
41.328,61.63
41.343,58.05
41.359,54.28
41.375,50.43
41.390,46.83
41.406,43.83
41.421,41.66
41.437,40.22
41.453,39.04
41.468,37.49
41.484,35.03
41.500,31.5
41.515,27.42
41.531,24.06
41.546,23.16
41.562,26.56
41.578,35.53
41.593,50.3
41.609,69.86
41.625,92.35
41.640,115.67
41.656,138.29
41.671,159.68
41.687,180.06
41.703,199.77
41.718,218.54
41.734,235.08
41.750,247.31
41.765,253.12
41.781,251.17
41.796,241.55
41.812,225.76
41.828,206.22
41.843,185.57
41.859,165.94
41.875,148.51
41.890,133.22
41.906,118.88
41.921,103.51
41.937,85.13
41.953,62.68
41.968,36.74
41.984,9.81
42.000,-14.57
42.015,-33.2
42.031,-44.81
42.046,-50.83
42.062,-55.03
42.078,-61.9
42.093,-74.54
42.109,-93.23
42.125,-115.04
42.140,-135.15
42.156,-148.68
42.171,-152.64
42.187,-146.91
42.203,-134.03
42.218,-117.93
42.234,-102.4
42.250,-89.89
42.265,-81.16
42.281,-75.7
42.296,-72.25
42.312,-69.38
42.328,-65.76
42.343,-60.37
42.359,-52.83
42.375,-43.62
42.390,-34.4
42.406,-27.58
42.421,-25.56
42.437,-29.59
42.453,-39.02
42.468,-51.22
42.484,-62.34
42.500,-68.76
42.515,-68.35
42.531,-61.06
42.546,-48.79
42.562,-34.64
42.578,-21.79
42.593,-12.64
42.609,-8.17
42.625,-7.84
42.640,-10.18
42.656,-13.49
42.671,-16.62
42.687,-19.31
42.703,-22.1
42.718,-25.72
42.734,-30.37
42.750,-35.36
42.765,-39.11
42.781,-39.86
42.796,-36.53
42.812,-29.52
42.828,-20.83
42.843,-13.66
42.859,-11.51
42.875,-17.16
42.890,-31.81
42.906,-54.72
42.921,-83.28
42.937,-113.52
42.953,-140.98
42.968,-161.73
42.984,-173.11
43.000,-174.25
43.015,-165.96
43.031,-150.4
43.046,-130.45
43.062,-109.52
43.078,-91.06
43.093,-78.48
43.109,-74.5
43.125,-80.44
43.140,-95.54
43.156,-116.67
43.171,-139.02
43.187,-157.33
43.203,-167.48
43.218,-167.65
43.234,-158.38
43.250,-142.04
43.265,-121.56
43.281,-99.5
43.296,-77.46
43.312,-56.15
43.328,-35.81
43.343,-16.58
43.359,1.2
43.375,17.12
43.390,30.81
43.406,42.11
43.421,51.07
43.437,57.81
43.453,62.48
43.468,65.24
43.484,66.33
43.500,66.17
43.515,65.36
43.531,64.64
43.546,64.62
43.562,65.74
43.578,68.08
43.593,71.39
43.609,75.15
43.625,78.75
43.640,81.5
43.656,82.87
43.671,82.58
43.687,80.68
43.703,77.54
43.718,73.66
43.734,69.55
43.750,65.53
43.765,61.69
43.781,57.91
43.796,53.98
43.812,49.76
43.828,45.32
43.843,41.0
43.859,37.37
43.875,34.97
43.890,34.2
43.906,35.02
43.921,36.98
43.937,39.22
43.953,40.8
43.968,40.92
43.984,39.24
44.000,36.07
44.015,32.29
44.031,29.18
44.046,27.98
44.062,29.54
44.078,33.9
44.093,40.38
44.109,47.77
44.125,54.76
44.140,60.3
44.156,63.81
44.171,65.12
44.187,64.37
44.203,61.74
44.218,57.49
44.234,51.9
44.250,45.32
44.265,38.09
44.281,30.45
44.296,22.5
44.312,14.14
44.328,5.26
44.343,-4.25
44.359,-14.34
44.375,-24.84
44.390,-35.55
44.406,-46.32
44.421,-57.12
44.437,-67.94
44.453,-78.73
44.468,-89.29
44.484,-99.25
44.500,-108.01
44.515,-115.02
44.531,-119.76
44.546,-122.01
44.562,-121.87
44.578,-119.77
44.593,-116.43
44.609,-112.7
44.625,-109.4
44.640,-107.13
44.656,-106.17
44.671,-106.4
44.687,-107.44
44.703,-108.84
44.718,-110.29
44.734,-111.78
44.750,-113.58
44.765,-116.11
44.781,-119.64
44.796,-124.09
44.812,-128.81
44.828,-132.66
44.843,-134.21
44.859,-132.09
44.875,-125.46
44.890,-114.24
44.906,-99.22
44.921,-81.72
44.937,-63.28
44.953,-45.17
44.968,-28.22
44.984,-12.71
45.000,1.41
45.015,14.26
45.031,25.82
45.046,35.97
45.062,44.48
45.078,51.11
45.093,55.79
45.109,58.59
45.125,59.72
45.140,59.58
45.156,58.59
45.171,57.19
45.187,55.79
45.203,54.59
45.218,53.71
45.234,53.06
45.250,52.48
45.265,51.75
45.281,50.63
45.296,48.99
45.312,46.77
45.328,44.14
45.343,41.27
45.359,38.37
45.375,35.56
45.390,32.86
45.406,30.16
45.421,27.3
45.437,24.14
45.453,20.65
45.468,16.96
45.484,13.21
45.500,9.6
45.515,6.21
45.531,3.03
45.546,-0.02
45.562,-3.12
45.578,-6.46
45.593,-10.18
45.609,-14.18
45.625,-18.09
45.640,-21.18
45.656,-22.46
45.671,-21.0
45.687,-16.1
45.703,-7.63
45.718,4.0
45.734,17.87
45.750,32.85
45.765,47.87
45.781,62.09
45.796,75.06
45.812,86.62
45.828,96.83
45.843,105.74
45.859,113.41
45.875,119.78
45.890,124.78
45.906,128.41
45.921,130.72
45.937,131.83
45.953,131.69
45.968,130.14
45.984,126.84
46.000,121.68
46.015,114.83
46.031,107.0
46.046,99.18
46.062,92.32
46.078,87.0
46.093,83.27
46.109,80.82
46.125,79.12
46.140,77.79
46.156,76.56
46.171,75.25
46.187,73.68
46.203,71.57
46.218,68.58
46.234,64.5
46.250,59.33
46.265,53.19
46.281,46.28
46.296,38.72
46.312,30.49
46.328,21.5
46.343,11.59
46.359,0.61
46.375,-11.6
46.390,-25.1
46.406,-39.8
46.421,-55.28
46.437,-70.8
46.453,-85.26
46.468,-97.4
46.484,-106.23
46.500,-111.18
46.515,-112.41
46.531,-110.62
46.546,-106.76
46.562,-101.77
46.578,-96.25
46.593,-90.43
46.609,-84.29
46.625,-77.77
46.640,-70.95
46.656,-64.12
46.671,-57.74
46.687,-52.14
46.703,-47.46
46.718,-43.51
46.734,-39.91
46.750,-36.33
46.765,-32.56
46.781,-28.58
46.796,-24.5
46.812,-20.52
46.828,-16.77
46.843,-13.3
46.859,-10.13
46.875,-7.29
46.890,-4.95
46.906,-3.25
46.921,-2.26
46.937,-1.9
46.953,-1.91
46.968,-1.94
46.984,-1.7
47.000,-1.04
47.015,-0.11
47.031,0.74
47.046,1.13
47.062,0.71
47.078,-0.62
47.093,-2.76
47.109,-5.54
47.125,-8.76
47.140,-12.32
47.156,-16.23
47.171,-20.62
47.187,-25.5
47.203,-30.87
47.218,-36.44
47.234,-41.64
47.250,-45.66
47.265,-47.56
47.281,-46.48
47.296,-41.93
47.312,-33.97
47.328,-23.21
47.343,-10.72
47.359,2.36
47.375,15.14
47.390,27.14
47.406,38.27
47.421,48.7
47.437,58.56
47.453,67.69
47.468,75.69
47.484,81.98
47.500,86.09
47.515,87.83
47.531,87.26
47.546,84.73
47.562,80.65
47.578,75.41
47.593,69.35
47.609,62.76
47.625,55.97
47.640,49.34
47.656,43.18
47.671,37.5
47.687,32.14
47.703,26.68
47.718,20.69
47.734,13.95
47.750,6.56
47.765,-1.11
47.781,-8.61
47.796,-15.57
47.812,-21.87
47.828,-27.55
47.843,-32.73
47.859,-37.47
47.875,-41.66
47.890,-45.18
47.906,-47.94
47.921,-50.03
47.937,-51.68
47.953,-53.17
47.968,-54.82
47.984,-56.9
48.000,-59.62
48.015,-63.12
48.031,-67.29
48.046,-71.64
48.062,-75.29
48.078,-77.11
48.093,-76.01
48.109,-71.34
48.125,-63.15
48.140,-52.2
48.156,-39.66
48.171,-26.78
48.187,-14.53
48.203,-3.5
48.218,6.04
48.234,14.05
48.250,20.57
48.265,25.61
48.281,29.27
48.296,31.76
48.312,33.25
48.328,33.95
48.343,33.99
48.359,33.45
48.375,32.44
48.390,31.15
48.406,29.83
48.421,28.69
48.437,27.83
48.453,27.2
48.468,26.61
48.484,25.83
48.500,24.72
48.515,23.25
48.531,21.47
48.546,19.35
48.562,16.83
48.578,13.79
48.593,10.15
48.609,6.04
48.625,1.66
48.640,-2.72
48.656,-6.92
48.671,-10.91
48.687,-14.77
48.703,-18.56
48.718,-22.22
48.734,-25.67
48.750,-28.8
48.765,-31.65
48.781,-34.48
48.796,-37.54
48.812,-40.86
48.828,-44.06
48.843,-46.36
48.859,-46.8
48.875,-44.56
48.890,-39.33
48.906,-31.4
48.921,-21.59
48.937,-10.97
48.953,-0.51
48.968,9.1
48.984,17.59
49.000,24.96
49.015,31.34
49.031,36.89
49.046,41.66
49.062,45.61
49.078,48.69
49.093,50.91
49.109,52.35
49.125,53.23
49.140,53.83
49.156,54.43
49.171,55.27
49.187,56.53
49.203,58.21
49.218,60.24
49.234,62.44
49.250,64.55
49.265,66.32
49.281,67.6
49.296,68.31
49.312,68.48
49.328,68.24
49.343,67.73
49.359,67.06
49.375,66.25
49.390,65.21
49.406,63.82
49.421,61.98
49.437,59.63
49.453,56.92
49.468,54.05
49.484,51.22
49.500,48.51
49.515,45.77
49.531,42.54
49.546,38.15
49.562,31.89
49.578,23.17
49.593,11.94
49.609,-1.32
49.625,-15.57
49.640,-29.46
49.656,-41.66
49.671,-51.3
49.687,-58.13
49.703,-62.61
49.718,-65.62
49.734,-68.1
49.750,-70.82
49.765,-74.09
49.781,-77.83
49.796,-81.61
49.812,-84.91
49.828,-87.25
49.843,-88.29
49.859,-87.9
49.875,-86.06
49.890,-82.87
49.906,-78.43
49.921,-72.93
49.937,-66.6
49.953,-59.77
49.968,-52.86
49.984,-46.3
50.000,-40.42
50.015,-35.33
50.031,-30.99
50.046,-27.22
50.062,-23.88
50.078,-20.91
50.093,-18.3
50.109,-16.13
50.125,-14.42
50.140,-13.23
50.156,-12.56
50.171,-12.43
50.187,-12.78
50.203,-13.47
50.218,-14.4
50.234,-15.47
50.250,-16.66
50.265,-18.05
50.281,-19.74
50.296,-21.79
50.312,-24.2
50.328,-26.93
50.343,-29.96
50.359,-33.34
50.375,-37.13
50.390,-41.15
50.406,-44.84
50.421,-47.29
50.437,-47.46
50.453,-44.6
50.468,-38.59
50.484,-30.0
50.500,-19.88
50.515,-9.36
50.531,0.71
50.546,9.95
50.562,18.34
50.578,25.96
50.593,32.77
50.609,38.59
50.625,43.21
50.640,46.53
50.656,48.67
50.671,49.85
50.687,50.3
50.703,50.18
50.718,49.52
50.734,48.33
50.750,46.64
50.765,44.58
50.781,42.46
50.796,40.56
50.812,39.09
50.828,38.05
50.843,37.24
50.859,36.37
50.875,35.15
50.890,33.41
50.906,31.16
50.921,28.55
50.937,25.81
50.953,23.13
50.968,20.58
50.984,18.13
51.000,15.75
51.015,13.35
51.031,10.89
51.046,8.34
51.062,5.7
51.078,2.94
51.093,0.03
51.109,-3.09
51.125,-6.57
51.140,-10.55
51.156,-15.17
51.171,-20.5
51.187,-26.48
51.203,-32.83
51.218,-39.07
51.234,-44.48
51.250,-48.28
51.265,-49.8
51.281,-48.66
51.296,-44.9
51.312,-38.99
51.328,-31.76
51.343,-24.01
51.359,-16.48
51.375,-9.49
51.390,-3.14
51.406,2.66
51.421,7.94
51.437,12.63
51.453,16.56
51.468,19.55
51.484,21.62
51.500,22.95
51.515,23.75
51.531,24.21
51.546,24.37
51.562,24.19
51.578,23.65
51.593,22.83
51.609,21.92
51.625,21.13
51.640,20.53
51.656,20.03
51.671,19.44
51.687,18.52
51.703,17.16
51.718,15.38
51.734,13.35
51.750,11.23
51.765,9.14
51.781,7.06
51.796,4.9
51.812,2.55
51.828,-0.13
51.843,-3.24
51.859,-6.76
51.875,-10.48
51.890,-14.14
51.906,-17.39
51.921,-20.04
51.937,-22.12
51.953,-23.85
51.968,-25.69
51.984,-28.08
52.000,-31.28
52.015,-35.28
52.031,-39.81
52.046,-44.31
52.062,-48.03
52.078,-50.17
52.093,-50.04
52.109,-47.26
52.125,-41.91
52.140,-34.53
52.156,-25.92
52.171,-16.94
52.187,-8.24
52.203,-0.15
52.218,7.21
52.234,13.85
52.250,19.7
52.265,24.65
52.281,28.59
52.296,31.51
52.312,33.52
52.328,34.87
52.343,35.76
52.359,36.29
52.375,36.49
52.390,36.27
52.406,35.63
52.421,34.63
52.437,33.4
52.453,32.12
52.468,30.89
52.484,29.76
52.500,28.62
52.515,27.34
52.531,25.76
52.546,23.77
52.562,21.36
52.578,18.62
52.593,15.74
52.609,12.93
52.625,10.41
52.640,8.21
52.656,6.24
52.671,4.25
52.687,1.94
52.703,-0.92
52.718,-4.33
52.734,-8.1
52.750,-11.9
52.765,-15.39
52.781,-18.41
52.796,-20.96
52.812,-23.27
52.828,-25.65
52.843,-28.45
52.859,-31.93
52.875,-36.11
52.890,-40.8
52.906,-45.44
52.921,-49.25
52.937,-51.35
52.953,-51.06
52.968,-48.15
52.984,-42.84
53.000,-35.77
53.015,-27.81
53.031,-19.74
53.046,-12.07
53.062,-5.0
53.078,1.47
53.093,7.41
53.109,12.77
53.125,17.44
53.140,21.28
53.156,24.19
53.171,26.2
53.187,27.46
53.203,28.19
53.218,28.64
53.234,28.95
53.250,29.19
53.265,29.39
53.281,29.5
53.296,29.53
53.312,29.47
53.328,29.36
53.343,29.15
53.359,28.79
53.375,28.19
53.390,27.2
53.406,25.74
53.421,23.79
53.437,21.42
53.453,18.84
53.468,16.25
53.484,13.78
53.500,11.46
53.515,9.21
53.531,6.88
53.546,4.33
53.562,1.53
53.578,-1.48
53.593,-4.59
53.609,-7.66
53.625,-10.56
53.640,-13.22
53.656,-15.58
53.671,-17.66
53.687,-19.56
53.703,-21.55
53.718,-23.92
53.734,-26.96
53.750,-30.71
53.765,-34.82
53.781,-38.52
53.796,-40.86
53.812,-40.93
53.828,-38.25
53.843,-32.9
53.859,-25.5
53.875,-16.95
53.890,-8.12
53.906,0.39
53.921,8.3
53.937,15.55
53.953,22.16
53.968,28.11
53.984,33.25
54.000,37.38
54.015,40.41
54.031,42.38
54.046,43.53
54.062,44.18
54.078,44.62
54.093,45.01
54.109,45.32
54.125,45.36
54.140,44.88
54.156,43.72
54.171,41.87
54.187,39.44
54.203,36.53
54.218,33.24
54.234,29.58
54.250,25.54
54.265,21.2
54.281,16.71
54.296,12.31
54.312,8.22
54.328,4.52
54.343,1.1
54.359,-2.28
54.375,-5.92
54.390,-10.05
54.406,-14.71
54.421,-19.79
54.437,-25.03
54.453,-30.09
54.468,-34.72
54.484,-38.83
54.500,-42.45
54.515,-45.75
54.531,-48.95
54.546,-52.24
54.562,-55.6
54.578,-58.79
54.593,-61.32
54.609,-62.5
54.625,-61.71
54.640,-58.57
54.656,-53.14
54.671,-45.96
54.687,-37.82
54.703,-29.58
54.718,-21.86
54.734,-14.98
54.750,-8.95
54.765,-3.63
54.781,1.18
54.796,5.6
54.812,9.64
54.828,13.23
54.843,16.25
54.859,18.64
54.875,20.38
54.890,21.56
54.906,22.37
54.921,22.96
54.937,23.46
54.953,23.88
54.968,24.24
54.984,24.6
55.000,25.07
55.015,25.79
55.031,26.84
55.046,28.12
55.062,29.37
55.078,30.28
55.093,30.57
55.109,30.16
55.125,29.11
55.140,27.61
55.156,25.85
55.171,23.97
55.187,22.0
55.203,19.88
55.218,17.57
55.234,15.06
55.250,12.39
55.265,9.62
55.281,6.79
55.296,3.88
55.312,0.77
55.328,-2.73
55.343,-6.74
55.359,-11.32
55.375,-16.38
55.390,-21.75
55.406,-27.17
55.421,-32.29
55.437,-36.61
55.453,-39.49
55.468,-40.29
55.484,-38.54
55.500,-34.14
55.515,-27.48
55.531,-19.31
55.546,-10.49
55.562,-1.8
55.578,6.44
55.593,14.25
55.609,21.92
55.625,29.73
55.640,37.77
55.656,45.89
55.671,53.75
55.687,60.99
55.703,67.28
55.718,72.49
55.734,76.61
55.750,79.74
55.765,81.99
55.781,83.44
55.796,84.07
55.812,83.75
55.828,82.32
55.843,79.51
55.859,75.06
55.875,68.67
55.890,60.07
55.906,49.14
55.921,35.95
55.937,20.91
55.953,4.78
55.968,-11.42
55.984,-26.72
56.000,-40.42
56.015,-52.32
56.031,-62.74
56.046,-72.26
56.062,-81.4
56.078,-90.38
56.093,-99.09
56.109,-107.23
56.125,-114.51
56.140,-120.83
56.156,-126.24
56.171,-130.8
56.187,-134.51
56.203,-137.18
56.218,-138.46
56.234,-137.91
56.250,-135.01
56.265,-129.26
56.281,-120.3
56.296,-108.02
56.312,-92.74
56.328,-75.18
56.343,-56.35
56.359,-37.31
56.375,-18.86
56.390,-1.4
56.406,15.03
56.421,30.63
56.437,45.6
56.453,60.07
56.468,73.99
56.484,87.25
56.500,99.62
56.515,110.93
56.531,121.07
56.546,130.18
56.562,138.49
56.578,146.49
56.593,154.68
56.609,163.44
56.625,172.89
56.640,182.76
56.656,192.4
56.671,200.9
56.687,207.48
56.703,211.69
56.718,213.67
56.734,214.05
56.750,213.61
56.765,212.96
56.781,212.1
56.796,210.32
56.812,206.39
56.828,198.79
56.843,186.19
56.859,167.78
56.875,143.48
56.890,113.93
56.906,80.38
56.921,44.32
56.937,7.21
56.953,-29.9
56.968,-66.66
56.984,-103.26
57.000,-140.03
57.015,-176.94
57.031,-213.16
57.046,-247.0
57.062,-276.35
57.078,-299.36
57.093,-314.98
57.109,-323.27
57.125,-325.13
57.140,-321.81
57.156,-314.46
57.171,-303.98
57.187,-291.05
57.203,-276.47
57.218,-261.24
57.234,-246.48
57.250,-233.01
57.265,-221.01
57.281,-209.9
57.296,-198.6
57.312,-185.99
57.328,-171.36
57.343,-154.7
57.359,-136.7
57.375,-118.36
57.390,-100.72
57.406,-84.4
57.421,-69.7
57.437,-56.64
57.453,-45.16
57.468,-35.3
57.484,-27.19
57.500,-20.95
57.515,-16.53
57.531,-13.79
57.546,-12.42
57.562,-12.02
57.578,-12.16
57.593,-12.41
57.609,-12.4
57.625,-11.95
57.640,-11.11
57.656,-10.09
57.671,-9.3
57.687,-9.08
57.703,-9.67
57.718,-11.16
57.734,-13.49
57.750,-16.49
57.765,-19.81
57.781,-22.86
57.796,-24.72
57.812,-24.39
57.828,-21.09
57.843,-14.55
57.859,-5.2
57.875,5.94
57.890,17.56
57.906,28.62
57.921,38.48
57.937,47.05
57.953,54.53
57.968,61.13
57.984,66.9
58.000,71.7
58.015,75.36
58.031,77.82
58.046,79.2
58.062,79.68
58.078,79.45
58.093,78.56
58.109,76.94
58.125,74.55
58.140,71.5
58.156,68.1
58.171,64.77
58.187,61.87
58.203,59.49
58.218,57.5
58.234,55.57
58.250,53.34
58.265,50.68
58.281,47.65
58.296,44.44
58.312,41.25
58.328,38.08
58.343,34.73
58.359,30.93
58.375,26.47
58.390,21.3
58.406,15.63
58.421,9.84
58.437,4.28
58.453,-0.76
58.468,-5.24
58.484,-9.32
58.500,-13.29
58.515,-17.44
58.531,-22.03
58.546,-27.07
58.562,-32.31
58.578,-37.16
58.593,-40.81
58.609,-42.36
58.625,-41.1
58.640,-36.78
58.656,-29.61
58.671,-20.3
58.687,-9.82
58.703,0.83
58.718,10.85
58.734,19.72
58.750,27.27
58.765,33.59
58.781,38.82
58.796,43.15
58.812,46.66
58.828,49.35
58.843,51.22
58.859,52.23
58.875,52.49
58.890,52.17
58.906,51.41
58.921,50.34
58.937,49.04
58.953,47.58
58.968,46.02
58.984,44.44
59.000,42.83
59.015,41.15
59.031,39.23
59.046,36.81
59.062,33.63
59.078,29.59
59.093,24.81
59.109,19.6
59.125,14.3
59.140,9.2
59.156,4.4
59.171,-0.14
59.187,-4.6
59.203,-9.08
59.218,-13.57
59.234,-17.96
59.250,-22.05
59.265,-25.7
59.281,-28.87
59.296,-31.73
59.312,-34.53
59.328,-37.63
59.343,-41.32
59.359,-45.74
59.375,-50.79
59.390,-55.98
59.406,-60.48
59.421,-63.27
59.437,-63.39
59.453,-60.25
59.468,-53.76
59.484,-44.48
59.500,-33.34
59.515,-21.5
59.531,-9.95
59.546,0.68
59.562,10.14
59.578,18.48
59.593,25.87
59.609,32.45
59.625,38.22
59.640,43.11
59.656,47.04
59.671,50.06
59.687,52.29
59.703,53.91
59.718,55.05
59.734,55.76
59.750,55.99
59.765,55.72
59.781,54.99
59.796,53.93
59.812,52.67
59.828,51.31
59.843,49.9
59.859,48.38
59.875,46.64
59.890,44.54
59.906,41.96
59.921,38.87
59.937,35.34
59.953,31.52
59.968,27.67
59.984,23.99
