timestamp,value
00.000,258.99
00.015,234.36
00.031,208.41
00.046,181.17
00.062,153.98
00.078,127.02
00.093,100.16
00.109,74.0
00.125,50.16
00.140,30.91
00.156,18.18
00.171,12.57
00.187,13.06
00.203,18.13
00.218,24.95
00.234,30.72
00.250,33.63
00.265,33.14
00.281,29.68
00.296,24.13
00.312,17.46
00.328,10.52
00.343,4.52
00.359,0.09
00.375,-2.64
00.390,-3.88
00.406,-4.06
00.421,-3.91
00.437,-4.34
00.453,-5.93
00.468,-8.87
00.484,-12.44
00.500,-15.75
00.515,-18.38
00.531,-20.34
00.546,-22.33
00.562,-25.25
00.578,-30.64
00.593,-39.66
00.609,-53.02
00.625,-70.84
00.640,-92.6
00.656,-116.55
00.671,-139.21
00.687,-155.33
00.703,-159.76
00.718,-149.77
00.734,-126.63
00.750,-95.89
00.765,-65.48
00.781,-42.76
00.796,-31.92
00.812,-33.03
00.828,-42.49
00.843,-56.09
00.859,-70.97
00.875,-86.17
00.890,-101.86
00.906,-118.19
00.921,-134.4
00.937,-149.2
00.953,-161.57
00.968,-170.7
00.984,-177.16
01.000,-182.13
01.015,-186.63
01.031,-190.62
01.046,-192.89
01.062,-191.04
01.078,-181.92
01.093,-168.14
01.109,-150.98
01.125,-132.26
01.140,-114.0
01.156,-97.79
01.171,-84.41
01.187,-73.84
01.203,-65.41
01.218,-58.37
01.234,-52.44
01.250,-46.96
01.265,-41.96
01.281,-37.79
01.296,-34.73
01.312,-32.71
01.328,-31.47
01.343,-30.49
01.359,-29.41
01.375,-27.74
01.390,-24.86
01.406,-20.89
01.421,-16.47
01.437,-12.25
01.453,-8.44
01.468,-4.99
01.484,-1.68
01.500,1.5
01.515,4.72
01.531,8.25
01.546,11.77
01.562,14.69
01.578,16.55
01.593,17.39
01.609,17.64
01.625,17.97
01.640,18.84
01.656,21.54
01.671,27.16
01.687,35.68
01.703,46.25
01.718,58.06
01.734,70.87
01.750,84.98
01.765,100.82
01.781,118.37
01.796,140.09
01.812,167.43
01.828,199.2
01.843,231.95
01.859,262.36
01.875,289.08
01.890,312.76
01.906,334.94
01.921,356.81
01.937,384.74
01.953,422.85
01.968,469.4
01.984,517.24
02.000,558.54
02.015,589.15
02.031,609.63
02.046,623.76
02.062,635.97
02.078,658.59
02.093,698.79
02.109,751.51
02.125,800.63
02.140,828.43
02.156,824.51
02.171,788.83
02.187,729.7
02.203,660.05
02.218,606.11
02.234,591.03
02.250,624.91
02.265,702.99
02.281,813.23
02.296,943.35
02.312,1082.1
02.328,1218.42
02.343,1258.93
02.359,1147.09
02.375,894.37
02.390,572.43
02.406,257.74
02.421,-9.43
02.437,-224.02
02.453,-396.98
02.468,-539.46
02.484,-651.88
02.500,-729.35
02.515,-763.55
02.531,-755.97
02.546,-721.25
02.562,-678.98
02.578,-643.97
02.593,-623.36
02.609,-618.87
02.625,-620.99
02.640,-614.72
02.656,-588.32
02.671,-540.82
02.687,-481.64
02.703,-422.5
02.718,-370.65
02.734,-327.98
02.750,-292.97
02.765,-263.46
02.781,-233.79
02.796,-199.31
02.812,-161.12
02.828,-125.56
02.843,-99.14
02.859,-84.51
02.875,-80.43
02.890,-83.62
02.906,-90.48
02.921,-96.71
02.937,-98.79
02.953,-96.47
02.968,-92.54
02.984,-90.0
03.000,-89.89
03.015,-91.14
03.031,-91.62
03.046,-89.17
03.062,-81.97
03.078,-68.82
03.093,-50.16
03.109,-28.1
03.125,-5.23
03.140,16.29
03.156,34.84
03.171,49.53
03.187,59.89
03.203,65.48
03.218,66.52
03.234,63.62
03.250,57.61
03.265,49.56
03.281,40.58
03.296,31.63
03.312,23.49
03.328,16.61
03.343,11.09
03.359,6.86
03.375,3.79
03.390,1.62
03.406,0.11
03.421,-1.0
03.437,-1.89
03.453,-2.67
03.468,-3.45
03.484,-4.26
03.500,-5.15
03.515,-6.05
03.531,-6.95
03.546,-7.76
03.562,-8.38
03.578,-8.76
03.593,-8.85
03.609,-8.67
03.625,-8.25
03.640,-7.66
03.656,-6.99
03.671,-6.41
03.687,-6.07
03.703,-6.06
03.718,-6.48
03.734,-7.38
03.750,-8.77
03.765,-10.61
03.781,-12.83
03.796,-15.27
03.812,-17.81
03.828,-20.28
03.843,-22.51
03.859,-24.34
03.875,-25.67
03.890,-26.44
03.906,-26.64
03.921,-26.32
03.937,-25.57
03.953,-24.53
03.968,-23.37
03.984,-22.26
04.000,-21.39
04.015,-20.86
04.031,-20.74
04.046,-21.03
04.062,-21.65
04.078,-22.52
04.093,-23.5
04.109,-24.5
04.125,-25.44
04.140,-26.3
04.156,-27.02
04.171,-27.6
04.187,-28.04
04.203,-28.26
04.218,-28.27
04.234,-28.0
04.250,-27.46
04.265,-26.69
04.281,-25.83
04.296,-25.02
04.312,-24.41
04.328,-24.11
04.343,-24.17
04.359,-24.65
04.375,-25.56
04.390,-26.97
04.406,-29.05
04.421,-32.02
04.437,-36.07
04.453,-41.22
04.468,-47.4
04.484,-54.33
04.500,-61.64
04.515,-68.99
04.531,-76.2
04.546,-83.37
04.562,-90.68
04.578,-98.4
04.593,-106.65
04.609,-115.35
04.625,-124.26
04.640,-133.12
04.656,-141.88
04.671,-150.85
04.687,-160.69
04.703,-172.15
04.718,-185.81
04.734,-201.78
04.750,-219.87
04.765,-239.85
04.781,-261.61
04.796,-285.28
04.812,-310.78
04.828,-337.32
04.843,-363.33
04.859,-386.91
04.875,-406.64
04.890,-422.08
04.906,-433.42
04.921,-440.72
04.937,-443.26
04.953,-439.8
04.968,-429.49
04.984,-413.03
05.000,-392.95
05.015,-372.74
05.031,-355.28
05.046,-341.62
05.062,-330.74
05.078,-320.51
05.093,-309.31
05.109,-297.01
05.125,-284.99
05.140,-275.22
05.156,-269.13
05.171,-266.72
05.187,-266.39
05.203,-265.36
05.218,-260.27
05.234,-247.92
05.250,-226.1
05.265,-194.39
05.281,-154.18
05.296,-108.48
05.312,-61.13
05.328,-16.07
05.343,23.33
05.359,54.68
05.375,77.01
05.390,90.86
05.406,98.17
05.421,101.85
05.437,104.97
05.453,109.87
05.468,117.61
05.484,127.89
05.500,139.53
05.515,151.15
05.531,161.59
05.546,170.0
05.562,175.68
05.578,177.92
05.593,176.09
05.609,170.05
05.625,160.47
05.640,149.01
05.656,137.82
05.671,128.86
05.687,123.19
05.703,120.59
05.718,119.69
05.734,118.71
05.750,116.18
05.765,111.52
05.781,105.12
05.796,97.94
05.812,90.86
05.828,84.23
05.843,77.66
05.859,70.23
05.875,61.05
05.890,49.64
05.906,36.12
05.921,21.2
05.937,6.0
05.953,-8.14
05.968,-19.67
05.984,-27.01
06.000,-28.87
06.015,-24.52
06.031,-14.28
06.046,0.42
06.062,17.36
06.078,34.15
06.093,48.89
06.109,60.52
06.125,68.88
06.140,74.32
06.156,77.45
06.171,78.66
06.187,78.25
06.203,76.55
06.218,73.96
06.234,70.97
06.250,68.05
06.265,65.4
06.281,62.93
06.296,60.4
06.312,57.51
06.328,54.22
06.343,50.79
06.359,47.56
06.375,44.78
06.390,42.34
06.406,39.74
06.421,36.32
06.437,31.48
06.453,25.08
06.468,17.4
06.484,9.13
06.500,1.01
06.515,-6.37
06.531,-12.76
06.546,-18.24
06.562,-23.2
06.578,-28.22
06.593,-33.83
06.609,-40.48
06.625,-48.33
06.640,-57.11
06.656,-66.02
06.671,-73.72
06.687,-78.61
06.703,-79.2
06.718,-74.57
06.734,-64.62
06.750,-50.2
06.765,-32.81
06.781,-14.3
06.796,3.64
06.812,19.8
06.828,33.47
06.843,44.42
06.859,52.69
06.875,58.48
06.890,62.01
06.906,63.6
06.921,63.63
06.937,62.59
06.953,60.96
06.968,59.13
06.984,57.33
07.000,55.55
07.015,53.7
07.031,51.67
07.046,49.48
07.062,47.33
07.078,45.44
07.093,43.91
07.109,42.55
07.125,40.91
07.140,38.41
07.156,34.56
07.171,29.16
07.187,22.31
07.203,14.5
07.218,6.33
07.234,-1.62
07.250,-9.05
07.265,-16.03
07.281,-22.99
07.296,-30.52
07.312,-39.07
07.328,-48.5
07.343,-57.86
07.359,-65.52
07.375,-69.53
07.390,-68.34
07.406,-61.27
07.421,-48.81
07.437,-32.4
07.453,-13.89
07.468,4.89
07.484,22.63
07.500,38.5
07.515,52.07
07.531,63.09
07.546,71.41
07.562,76.98
07.578,79.96
07.593,80.76
07.609,79.83
07.625,77.75
07.640,74.91
07.656,71.58
07.671,67.9
07.687,63.95
07.703,59.77
07.718,55.48
07.734,51.16
07.750,46.87
07.765,42.6
07.781,38.2
07.796,33.46
07.812,28.14
07.828,22.09
07.843,15.34
07.859,8.1
07.875,0.78
07.890,-6.23
07.906,-12.68
07.921,-18.62
07.937,-24.49
07.953,-30.86
07.968,-38.26
07.984,-46.76
08.000,-55.76
08.015,-63.95
08.031,-69.61
08.046,-71.02
08.062,-67.07
08.078,-57.54
08.093,-43.21
08.109,-25.64
08.125,-6.73
08.140,11.63
08.156,27.99
08.171,41.51
08.187,51.91
08.203,59.33
08.218,64.21
08.234,67.02
08.250,68.19
08.265,67.98
08.281,66.48
08.296,63.8
08.312,60.09
08.328,55.72
08.343,51.14
08.359,46.77
08.375,42.91
08.390,39.56
08.406,36.53
08.421,33.51
08.437,30.22
08.453,26.5
08.468,22.26
08.484,17.5
08.500,12.21
08.515,6.38
08.531,0.08
08.546,-6.53
08.562,-13.24
08.578,-19.83
08.593,-26.28
08.609,-32.82
08.625,-39.74
08.640,-47.12
08.656,-54.54
08.671,-60.88
08.687,-64.56
08.703,-64.04
08.718,-58.32
08.734,-47.4
08.750,-32.3
08.765,-14.78
08.781,3.28
08.796,20.22
08.812,34.97
08.828,46.98
08.843,56.17
08.859,62.63
08.875,66.59
08.890,68.21
08.906,67.7
08.921,65.34
08.937,61.45
08.953,56.58
08.968,51.27
08.984,46.08
09.000,41.39
09.015,37.33
09.031,33.81
09.046,30.54
09.062,27.23
09.078,23.56
09.093,19.4
09.109,14.71
09.125,9.53
09.140,3.98
09.156,-1.78
09.171,-7.6
09.187,-13.34
09.203,-18.99
09.218,-24.7
09.234,-30.72
09.250,-37.28
09.265,-44.4
09.281,-51.61
09.296,-57.86
09.312,-61.72
09.328,-61.74
09.343,-56.9
09.359,-47.04
09.375,-32.9
09.390,-16.02
09.406,1.68
09.421,18.36
09.437,32.63
09.453,43.63
09.468,51.07
09.484,55.07
09.500,55.94
09.515,54.12
09.531,50.15
09.546,44.65
09.562,38.4
09.578,32.2
09.593,26.77
09.609,22.49
09.625,19.42
09.640,17.19
09.656,15.3
09.671,13.19
09.687,10.56
09.703,7.4
09.718,3.85
09.734,0.05
09.750,-3.97
09.765,-8.29
09.781,-13.05
09.796,-18.27
09.812,-23.93
09.828,-29.94
09.843,-36.29
09.859,-42.96
09.875,-49.89
09.890,-56.61
09.906,-62.16
09.921,-65.22
09.937,-64.35
09.953,-58.64
09.968,-48.05
09.984,-33.58
10.000,-16.98
10.015,-0.22
10.031,15.03
10.046,27.74
10.062,37.45
10.078,44.19
10.093,48.23
10.109,49.8
10.125,49.14
10.140,46.56
10.156,42.52
10.171,37.65
10.187,32.66
10.203,28.15
10.218,24.51
10.234,21.79
10.250,19.71
10.265,17.91
10.281,16.04
10.296,13.91
10.312,11.52
10.328,8.9
10.343,6.06
10.359,2.94
10.375,-0.55
10.390,-4.45
10.406,-8.55
10.421,-12.6
10.437,-16.33
10.453,-19.65
10.468,-22.8
10.484,-26.15
10.500,-29.89
10.515,-33.8
10.531,-37.09
10.546,-38.45
10.562,-36.65
10.578,-30.93
10.593,-21.33
10.609,-8.73
10.625,5.39
10.640,19.5
10.656,32.24
10.671,42.75
10.687,50.62
10.703,55.78
10.718,58.36
10.734,58.7
10.750,57.22
10.765,54.43
10.781,50.81
10.796,46.72
10.812,42.39
10.828,37.95
10.843,33.47
10.859,29.01
10.875,24.64
10.890,20.4
10.906,16.37
10.921,12.67
10.937,9.36
10.953,6.52
10.968,4.1
10.984,1.9
11.000,-0.39
11.015,-3.1
11.031,-6.48
11.046,-10.54
11.062,-15.05
11.078,-19.71
11.093,-24.22
11.109,-28.44
11.125,-32.48
11.140,-36.67
11.156,-41.35
11.171,-46.68
11.187,-52.32
11.203,-57.4
11.218,-60.58
11.234,-60.47
11.250,-55.98
11.265,-46.8
11.281,-33.5
11.296,-17.49
11.312,-0.58
11.328,15.37
11.343,28.81
11.359,38.7
11.375,44.62
11.390,46.73
11.406,45.88
11.421,43.57
11.437,41.67
11.453,41.97
11.468,45.66
11.484,52.79
11.500,62.32
11.515,72.38
11.531,80.92
11.546,86.35
11.562,87.92
11.578,85.68
11.593,80.24
11.609,72.33
11.625,62.66
11.640,51.79
11.656,40.24
11.671,28.55
11.687,17.31
11.703,7.08
11.718,-1.7
11.734,-8.82
11.750,-14.36
11.765,-18.64
11.781,-22.15
11.796,-25.49
11.812,-29.23
11.828,-33.78
11.843,-39.34
11.859,-45.69
11.875,-52.2
11.890,-57.81
11.906,-61.28
11.921,-61.36
11.937,-57.24
11.953,-48.83
11.968,-36.82
11.984,-22.63
12.000,-8.06
12.015,5.24
12.031,16.01
12.046,23.64
12.062,28.2
12.078,30.12
12.093,30.04
12.109,28.57
12.125,26.16
12.140,23.21
12.156,20.11
12.171,17.2
12.187,14.79
12.203,13.07
12.218,12.02
12.234,11.49
12.250,11.31
12.265,11.25
12.281,11.21
12.296,11.1
12.312,10.76
12.328,9.99
12.343,8.59
12.359,6.46
12.375,3.66
12.390,0.5
12.406,-2.63
12.421,-5.49
12.437,-8.04
12.453,-10.5
12.468,-13.26
12.484,-16.68
12.500,-21.02
12.515,-26.23
12.531,-31.9
12.546,-37.24
12.562,-41.17
12.578,-42.47
12.593,-40.15
12.609,-33.75
12.625,-23.59
12.640,-10.9
12.656,2.71
12.671,15.46
12.687,26.0
12.703,33.59
12.718,38.13
12.734,39.88
12.750,39.34
12.765,36.95
12.781,33.11
12.796,28.32
12.812,23.12
12.828,18.13
12.843,13.86
12.859,10.66
12.875,8.52
12.890,7.18
12.906,6.24
12.921,5.41
12.937,4.56
12.953,3.73
12.968,3.01
12.984,2.38
13.000,1.73
13.015,0.83
13.031,-0.5
13.046,-2.28
13.062,-4.39
13.078,-6.61
13.093,-8.78
13.109,-10.87
13.125,-13.07
13.140,-15.75
13.156,-19.18
13.171,-23.4
13.187,-28.03
13.203,-32.25
13.218,-34.92
13.234,-35.02
13.250,-31.86
13.265,-25.44
13.281,-16.5
13.296,-6.19
13.312,4.13
13.328,13.39
13.343,20.86
13.359,26.36
13.375,29.89
13.390,31.72
13.406,32.09
13.421,31.24
13.437,29.43
13.453,26.97
13.468,24.29
13.484,21.72
13.500,19.62
13.515,18.1
13.531,17.13
13.546,16.5
13.562,15.98
13.578,15.34
13.593,14.41
13.609,13.15
13.625,11.48
13.640,9.4
13.656,6.88
13.671,3.96
13.687,0.77
13.703,-2.6
13.718,-5.98
13.734,-9.37
13.750,-12.81
13.765,-16.45
13.781,-20.4
13.796,-24.6
13.812,-28.73
13.828,-32.1
13.843,-33.89
13.859,-33.22
13.875,-29.67
13.890,-23.25
13.906,-14.61
13.921,-4.79
13.937,5.08
13.953,13.99
13.968,21.32
13.984,26.81
14.000,30.45
14.015,32.37
14.031,32.79
14.046,32.0
14.062,30.33
14.078,28.15
14.093,25.74
14.109,23.39
14.125,21.3
14.140,19.6
14.156,18.36
14.171,17.55
14.187,17.09
14.203,16.72
14.218,16.23
14.234,15.41
14.250,14.15
14.265,12.45
14.281,10.33
14.296,7.88
14.312,5.14
14.328,2.24
14.343,-0.78
14.359,-3.84
14.375,-6.98
14.390,-10.27
14.406,-13.79
14.421,-17.55
14.437,-21.37
14.453,-24.77
14.468,-27.12
14.484,-27.76
14.500,-26.09
14.515,-21.85
14.531,-15.22
14.546,-6.76
14.562,2.58
14.578,11.77
14.593,19.89
14.609,26.32
14.625,30.85
14.640,33.61
14.656,34.87
14.671,34.96
14.687,34.19
14.703,32.81
14.718,31.12
14.734,29.34
14.750,27.69
14.765,26.27
14.781,25.13
14.796,24.16
14.812,23.32
14.828,22.61
14.843,22.09
14.859,21.76
14.875,21.56
14.890,21.24
14.906,20.55
14.921,19.27
14.937,17.26
14.953,14.56
14.968,11.38
14.984,8.04
15.000,4.89
15.015,2.1
15.031,-0.33
15.046,-2.63
15.062,-5.13
15.078,-8.16
15.093,-11.8
15.109,-15.85
15.125,-19.78
15.140,-22.81
15.156,-24.19
15.171,-23.37
15.187,-20.02
15.203,-14.22
15.218,-6.36
15.234,2.83
15.250,12.43
15.265,21.51
15.281,29.34
15.296,35.49
15.312,39.8
15.328,42.41
15.343,43.45
15.359,43.09
15.375,41.53
15.390,39.05
15.406,36.01
15.421,32.92
15.437,30.18
15.453,28.01
15.468,26.39
15.484,25.04
15.500,23.72
15.515,22.29
15.531,20.75
15.546,19.21
15.562,17.76
15.578,16.39
15.593,14.95
15.609,13.21
15.625,10.95
15.640,8.05
15.656,4.55
15.671,0.65
15.687,-3.34
15.703,-7.2
15.718,-10.75
15.734,-13.98
15.750,-16.95
15.765,-19.81
15.781,-22.6
15.796,-25.16
15.812,-27.16
15.828,-28.04
15.843,-27.27
15.859,-24.41
15.875,-19.34
15.890,-12.29
15.906,-3.83
15.921,5.17
15.937,13.68
15.953,20.66
15.968,25.33
15.984,27.33
16.000,26.85
16.015,24.65
16.031,21.81
16.046,19.5
16.062,18.52
16.078,19.25
16.093,21.52
16.109,24.89
16.125,28.74
16.140,32.42
16.156,35.17
16.171,36.11
16.187,34.35
16.203,29.32
16.218,21.09
16.234,10.58
16.250,-0.49
16.265,-10.13
16.281,-16.71
16.296,-19.39
16.312,-18.43
16.328,-14.9
16.343,-10.23
16.359,-5.76
16.375,-2.36
16.390,-0.47
16.406,-0.17
16.421,-1.4
16.437,-4.13
16.453,-8.29
16.468,-13.69
16.484,-19.89
16.500,-26.22
16.515,-31.89
16.531,-36.19
16.546,-38.63
16.562,-38.99
16.578,-37.29
16.593,-33.63
16.609,-28.12
16.625,-20.9
16.640,-12.22
16.656,-2.49
16.671,7.69
16.687,17.56
16.703,26.41
16.718,33.65
16.734,38.92
16.750,42.09
16.765,43.2
16.781,42.4
16.796,39.84
16.812,35.8
16.828,30.6
16.843,24.73
16.859,18.8
16.875,13.49
16.890,9.26
16.906,6.38
16.921,4.72
16.937,3.95
16.953,3.58
16.968,3.18
16.984,2.44
17.000,1.18
17.015,-0.61
17.031,-2.87
17.046,-5.47
17.062,-8.23
17.078,-11.02
17.093,-13.66
17.109,-16.09
17.125,-18.22
17.140,-20.08
17.156,-21.75
17.171,-23.42
17.187,-25.32
17.203,-27.68
17.218,-30.63
17.234,-34.07
17.250,-37.75
17.265,-41.23
17.281,-44.08
17.296,-45.93
17.312,-46.42
17.328,-45.25
17.343,-42.15
17.359,-37.02
17.375,-30.02
17.390,-21.61
17.406,-12.43
17.421,-3.05
17.437,6.17
17.453,15.11
17.468,23.68
17.484,31.69
17.500,38.77
17.515,44.53
17.531,48.85
17.546,52.0
17.562,54.61
17.578,57.41
17.593,60.93
17.609,65.36
17.625,70.63
17.640,76.42
17.656,82.4
17.671,88.35
17.687,94.4
17.703,101.3
17.718,110.5
17.734,123.88
17.750,143.21
17.765,169.17
17.781,200.82
17.796,235.66
17.812,270.6
17.828,302.91
17.843,330.78
17.859,353.08
17.875,368.85
17.890,377.2
17.906,377.64
17.921,370.62
17.937,357.62
17.953,340.31
17.968,319.44
17.984,293.95
18.000,261.53
18.015,219.85
18.031,168.41
18.046,109.22
18.062,45.99
18.078,-17.58
18.093,-79.3
18.109,-138.45
18.125,-194.57
18.140,-245.99
18.156,-289.52
18.171,-321.39
18.187,-339.0
18.203,-342.22
18.218,-333.62
18.234,-317.76
18.250,-299.85
18.265,-284.72
18.281,-275.9
18.296,-275.26
18.312,-282.69
18.328,-296.14
18.343,-312.09
18.359,-326.46
18.375,-335.82
18.390,-338.28
18.406,-333.72
18.421,-323.29
18.437,-308.53
18.453,-290.69
18.468,-270.58
18.484,-249.01
18.500,-226.85
18.515,-205.18
18.531,-184.9
18.546,-166.37
18.562,-149.19
18.578,-132.41
18.593,-114.96
18.609,-96.16
18.625,-76.06
18.640,-55.37
18.656,-35.13
18.671,-16.25
18.687,0.91
18.703,16.59
18.718,31.42
18.734,46.05
18.750,60.81
18.765,75.52
18.781,89.51
18.796,101.84
18.812,111.65
18.828,118.34
18.843,121.77
18.859,122.19
18.875,120.13
18.890,116.27
18.906,111.27
18.921,105.6
18.937,99.46
18.953,92.79
18.968,85.34
18.984,76.96
19.000,67.76
19.015,58.22
19.031,49.09
19.046,41.08
19.062,34.6
19.078,29.67
19.093,25.9
19.109,22.87
19.125,20.26
19.140,18.04
19.156,16.34
19.171,15.35
19.187,15.16
19.203,15.79
19.218,17.3
19.234,19.71
19.250,23.03
19.265,27.05
19.281,31.28
19.296,35.02
19.312,37.5
19.328,38.26
19.343,37.1
19.359,34.28
19.375,30.17
19.390,25.23
19.406,19.86
19.421,14.42
19.437,9.26
19.453,4.7
19.468,0.99
19.484,-1.82
19.500,-3.86
19.515,-5.49
19.531,-7.18
19.546,-9.4
19.562,-12.6
19.578,-17.08
19.593,-22.87
19.609,-29.63
19.625,-36.66
19.640,-43.08
19.656,-48.12
19.671,-51.42
19.687,-53.17
19.703,-54.09
19.718,-55.07
19.734,-56.88
19.750,-59.86
19.765,-63.83
19.781,-68.22
19.796,-72.23
19.812,-75.14
19.828,-76.42
19.843,-76.0
19.859,-74.19
19.875,-71.59
19.890,-68.94
19.906,-66.83
19.921,-65.48
19.937,-64.69
19.953,-63.97
19.968,-62.68
19.984,-60.46
20.000,-57.2
20.015,-53.05
20.031,-48.21
20.046,-42.82
20.062,-36.75
20.078,-29.81
20.093,-21.79
20.109,-12.62
20.125,-2.58
20.140,7.87
20.156,18.17
20.171,27.82
20.187,36.55
20.203,44.39
20.218,51.53
20.234,58.1
20.250,64.25
20.265,69.9
20.281,74.9
20.296,79.19
20.312,82.65
20.328,85.13
20.343,86.15
20.359,84.73
20.375,79.47
20.390,68.95
20.406,52.25
20.421,29.57
20.437,2.54
20.453,-26.17
20.468,-53.23
20.484,-75.51
20.500,-90.56
20.515,-96.9
20.531,-93.79
20.546,-81.32
20.562,-60.56
20.578,-34.06
20.593,-6.05
20.609,18.19
20.625,33.72
20.640,37.65
20.656,30.3
20.671,15.15
20.687,-2.64
20.703,-18.46
20.718,-29.79
20.734,-36.85
20.750,-41.53
20.765,-45.92
20.781,-51.2
20.796,-57.36
20.812,-63.78
20.828,-70.0
20.843,-76.08
20.859,-82.25
20.875,-88.5
20.890,-94.18
20.906,-98.31
20.921,-100.06
20.937,-99.09
20.953,-95.61
20.968,-90.24
20.984,-83.6
21.000,-76.02
21.015,-67.61
21.031,-58.35
21.046,-48.21
21.062,-37.37
21.078,-25.95
21.093,-14.15
21.109,-2.27
21.125,9.33
21.140,20.16
21.156,29.59
21.171,37.01
21.187,42.06
21.203,44.68
21.218,45.37
21.234,45.0
21.250,44.59
21.265,44.96
21.281,46.4
21.296,48.43
21.312,50.09
21.328,50.33
21.343,48.44
21.359,44.57
21.375,39.66
21.390,35.2
21.406,32.63
21.421,32.78
21.437,35.42
21.453,39.45
21.468,43.19
21.484,44.91
21.500,43.52
21.515,38.67
21.531,30.93
21.546,21.59
21.562,12.33
21.578,4.84
21.593,0.67
21.609,0.81
21.625,5.57
21.640,14.46
21.656,26.17
21.671,38.84
21.687,50.54
21.703,59.76
21.718,65.72
21.734,68.52
21.750,68.83
21.765,67.44
21.781,64.84
21.796,60.95
21.812,55.32
21.828,47.52
21.843,37.54
21.859,25.94
21.875,13.71
21.890,1.81
21.906,-9.2
21.921,-19.22
21.937,-28.52
21.953,-37.26
21.968,-45.21
21.984,-51.88
22.000,-56.68
22.015,-59.4
22.031,-60.29
22.046,-60.13
22.062,-59.76
22.078,-59.92
22.093,-61.06
22.109,-63.33
22.125,-66.81
22.140,-71.42
22.156,-76.83
22.171,-82.21
22.187,-86.24
22.203,-87.37
22.218,-84.33
22.234,-76.66
22.250,-64.86
22.265,-50.27
22.281,-34.47
22.296,-18.9
22.312,-4.48
22.328,8.33
22.343,19.4
22.359,28.7
22.375,36.15
22.390,41.7
22.406,45.39
22.421,47.39
22.437,48.06
22.453,48.0
22.468,47.94
22.484,48.67
22.500,50.81
22.515,54.53
22.531,59.29
22.546,63.92
22.562,66.86
22.578,66.71
22.593,62.92
22.609,55.98
22.625,47.44
22.640,39.11
22.656,32.35
22.671,27.35
22.687,23.09
22.703,17.91
22.718,10.43
22.734,0.14
22.750,-12.31
22.765,-25.55
22.781,-38.05
22.796,-48.63
22.812,-56.46
22.828,-61.05
22.843,-61.86
22.859,-58.39
22.875,-50.39
22.890,-38.2
22.906,-22.81
22.921,-5.79
22.937,11.13
22.953,26.55
22.968,39.62
22.984,50.06
23.000,58.1
23.015,64.13
23.031,68.59
23.046,71.81
23.062,74.11
23.078,75.79
23.093,77.27
23.109,78.96
23.125,81.08
23.140,83.47
23.156,85.6
23.171,86.63
23.187,85.66
23.203,81.94
23.218,75.04
23.234,64.93
23.250,52.03
23.265,37.24
23.281,21.82
23.296,7.2
23.312,-5.31
23.328,-14.88
23.343,-21.4
23.359,-25.41
23.375,-27.95
23.390,-30.08
23.406,-32.58
23.421,-35.68
23.437,-39.22
23.453,-42.81
23.468,-46.02
23.484,-48.69
23.500,-50.82
23.515,-52.64
23.531,-54.47
23.546,-56.58
23.562,-59.02
23.578,-61.65
23.593,-64.05
23.609,-65.58
23.625,-65.51
23.640,-63.25
23.656,-58.51
23.671,-51.39
23.687,-42.4
23.703,-32.22
23.718,-21.7
23.734,-11.66
23.750,-2.65
23.765,5.01
23.781,11.35
23.796,16.59
23.812,21.04
23.828,24.72
23.843,27.36
23.859,28.5
23.875,27.87
23.890,25.7
23.906,22.8
23.921,20.3
23.937,19.1
23.953,19.5
23.968,21.05
23.984,22.96
24.000,24.54
24.015,25.59
24.031,26.4
24.046,27.58
24.062,29.74
24.078,33.25
24.093,38.29
24.109,44.81
24.125,52.69
24.140,61.65
24.156,71.25
24.171,80.85
24.187,89.69
24.203,97.11
24.218,102.61
24.234,105.89
24.250,106.77
24.265,105.13
24.281,100.85
24.296,93.93
24.312,84.57
24.328,73.29
24.343,60.98
24.359,48.73
24.375,37.67
24.390,28.8
24.406,22.74
24.421,19.74
24.437,19.71
24.453,22.34
24.468,27.12
24.484,33.55
24.500,41.12
24.515,49.49
24.531,58.43
24.546,67.76
24.562,77.41
24.578,87.32
24.593,97.5
24.609,107.93
24.625,118.59
24.640,129.22
24.656,139.34
24.671,148.28
24.687,155.29
24.703,159.79
24.718,161.46
24.734,160.17
24.750,155.82
24.765,148.25
24.781,137.19
24.796,122.6
24.812,104.97
24.828,85.44
24.843,65.61
24.859,47.07
24.875,30.84
24.890,17.26
24.906,5.95
24.921,-3.74
24.937,-12.39
24.953,-20.33
24.968,-27.71
24.984,-34.73
25.000,-41.85
25.015,-49.96
25.031,-59.97
25.046,-72.58
25.062,-87.79
25.078,-104.66
25.093,-121.42
25.109,-136.02
25.125,-146.73
25.140,-152.79
25.156,-154.64
25.171,-153.47
25.187,-150.59
25.203,-146.75
25.218,-141.8
25.234,-135.02
25.250,-125.66
25.265,-113.52
25.281,-99.09
25.296,-83.5
25.312,-68.06
25.328,-53.87
25.343,-41.61
25.359,-31.43
25.375,-23.24
25.390,-16.95
25.406,-12.66
25.421,-10.69
25.437,-11.4
25.453,-14.88
25.468,-20.63
25.484,-27.43
25.500,-33.53
25.515,-37.22
25.531,-37.42
25.546,-34.11
25.562,-28.33
25.578,-21.64
25.593,-15.55
25.609,-11.0
25.625,-8.24
25.640,-7.04
25.656,-7.05
25.671,-8.2
25.687,-10.74
25.703,-15.22
25.718,-22.1
25.734,-31.28
25.750,-42.03
25.765,-53.0
25.781,-62.53
25.796,-69.19
25.812,-72.14
25.828,-71.3
25.843,-67.17
25.859,-60.6
25.875,-52.4
25.890,-43.31
25.906,-34.01
25.921,-25.2
25.937,-17.64
25.953,-12.0
25.968,-8.66
25.984,-7.57
26.000,-8.25
26.015,-9.9
26.031,-11.67
26.046,-12.84
26.062,-12.97
26.078,-11.99
26.093,-10.11
26.109,-7.7
26.125,-5.16
26.140,-2.82
26.156,-0.79
26.171,0.88
26.187,2.27
26.203,3.39
26.218,4.23
26.234,4.82
26.250,5.33
26.265,6.1
26.281,7.59
26.296,10.26
26.312,14.26
26.328,19.42
26.343,25.35
26.359,31.56
26.375,37.59
26.390,43.05
26.406,47.57
26.421,50.8
26.437,52.51
26.453,52.59
26.468,51.21
26.484,48.6
26.500,44.89
26.515,39.82
26.531,32.93
26.546,23.76
26.562,12.36
26.578,-0.54
26.593,-13.7
26.609,-25.71
26.625,-35.6
26.640,-43.11
26.656,-48.63
26.671,-52.94
26.687,-56.76
26.703,-60.5
26.718,-64.19
26.734,-67.66
26.750,-70.62
26.765,-72.89
26.781,-74.51
26.796,-75.7
26.812,-76.75
26.828,-77.76
26.843,-78.49
26.859,-78.19
26.875,-75.87
26.890,-70.6
26.906,-61.93
26.921,-50.11
26.937,-36.1
26.953,-21.24
26.968,-6.79
26.984,6.33
27.000,17.75
27.015,27.46
27.031,35.48
27.046,41.73
27.062,46.01
27.078,48.17
27.093,48.3
27.109,46.88
27.125,44.54
27.140,41.86
27.156,39.07
27.171,36.13
27.187,32.66
27.203,28.39
27.218,23.23
27.234,17.35
27.250,11.02
27.265,4.45
27.281,-2.35
27.296,-9.56
27.312,-17.31
27.328,-25.63
27.343,-34.13
27.359,-42.11
27.375,-48.69
27.390,-52.99
27.406,-54.46
27.421,-53.02
27.437,-49.12
27.453,-43.6
27.468,-37.43
27.484,-31.38
27.500,-25.87
27.515,-20.97
27.531,-16.54
27.546,-12.53
27.562,-9.01
27.578,-6.23
27.593,-4.42
27.609,-3.64
27.625,-3.64
27.640,-3.93
27.656,-3.99
27.671,-3.43
27.687,-2.24
27.703,-0.68
27.718,0.78
27.734,1.66
27.750,1.65
27.765,0.66
27.781,-1.17
27.796,-3.55
27.812,-6.2
27.828,-8.99
27.843,-11.97
27.859,-15.35
27.875,-19.26
27.890,-23.56
27.906,-27.69
27.921,-30.69
27.937,-31.44
27.953,-29.03
27.968,-23.2
27.984,-14.4
28.000,-3.75
28.015,7.36
28.031,17.6
28.046,26.0
28.062,31.99
28.078,35.38
28.093,36.25
28.109,34.81
28.125,31.44
28.140,26.65
28.156,21.09
28.171,15.43
28.187,10.27
28.203,5.97
28.218,2.71
28.234,0.51
28.250,-0.76
28.265,-1.3
28.281,-1.37
28.296,-1.28
28.312,-1.41
28.328,-2.08
28.343,-3.55
28.359,-6.01
28.375,-9.5
28.390,-14.04
28.406,-19.62
28.421,-26.15
28.437,-33.31
28.453,-40.44
28.468,-46.42
28.484,-50.0
28.500,-50.13
28.515,-46.31
28.531,-38.89
28.546,-28.88
28.562,-17.71
28.578,-6.71
28.593,3.16
28.609,11.43
28.625,18.04
28.640,23.1
28.656,26.93
28.671,29.86
28.687,32.3
28.703,34.63
28.718,37.1
28.734,39.8
28.750,42.64
28.765,45.46
28.781,48.11
28.796,50.66
28.812,53.27
28.828,56.22
28.843,59.57
28.859,62.94
28.875,65.39
28.890,65.53
28.906,61.96
28.921,53.85
28.937,41.58
28.953,26.74
28.968,11.92
28.984,-0.12
29.000,-7.22
29.015,-8.26
29.031,-3.2
29.046,7.13
29.062,21.49
29.078,38.5
29.093,56.73
29.109,74.96
29.125,92.13
29.140,107.5
29.156,120.71
29.171,131.64
29.187,140.08
29.203,145.57
29.218,147.38
29.234,144.71
29.250,137.17
29.265,125.0
29.281,109.09
29.296,90.86
29.312,71.78
29.328,53.16
29.343,35.98
29.359,20.91
29.375,8.31
29.390,-1.75
29.406,-9.58
29.421,-16.06
29.437,-22.33
29.453,-29.65
29.468,-38.82
29.484,-49.73
29.500,-61.33
29.515,-71.88
29.531,-79.61
29.546,-83.4
29.562,-83.23
29.578,-80.0
29.593,-75.22
29.609,-70.31
29.625,-66.23
29.640,-63.41
29.656,-61.99
29.671,-62.01
29.687,-63.54
29.703,-66.54
29.718,-70.59
29.734,-74.9
29.750,-78.46
29.765,-80.42
29.781,-80.47
29.796,-78.94
29.812,-76.51
29.828,-73.88
29.843,-71.42
29.859,-69.16
29.875,-66.97
29.890,-64.91
29.906,-63.3
29.921,-62.53
29.937,-62.69
29.953,-63.2
29.968,-62.91
29.984,-60.56
30.000,-55.39
30.015,-47.54
30.031,-37.99
30.046,-28.03
30.062,-18.6
30.078,-10.0
30.093,-1.94
30.109,5.98
30.125,13.85
30.140,21.23
30.156,27.37
30.171,31.53
30.187,33.4
30.203,33.08
30.218,30.98
30.234,27.67
30.250,23.62
30.265,19.24
30.281,14.88
30.296,10.79
30.312,7.1
30.328,3.77
30.343,0.62
30.359,-2.6
30.375,-6.08
30.390,-9.9
30.406,-13.97
30.421,-18.1
30.437,-22.04
30.453,-25.61
30.468,-28.75
30.484,-31.54
30.500,-34.18
30.515,-37.01
30.531,-40.21
30.546,-43.86
30.562,-47.72
30.578,-51.23
30.593,-53.69
30.609,-54.34
30.625,-52.6
30.640,-48.21
30.656,-41.31
30.671,-32.4
30.687,-22.29
30.703,-11.79
30.718,-1.69
30.734,7.5
30.750,15.52
30.765,22.34
30.781,28.02
30.796,32.66
30.812,36.33
30.828,39.08
30.843,40.92
30.859,41.73
30.875,41.31
30.890,39.43
30.906,35.93
30.921,30.98
30.937,25.14
30.953,19.32
30.968,14.5
30.984,11.35
31.000,10.03
31.015,10.21
31.031,11.41
31.046,13.21
31.062,15.39
31.078,17.88
31.093,20.54
31.109,23.03
31.125,24.98
31.140,25.99
31.156,25.88
31.171,24.73
31.187,22.68
31.203,19.76
31.218,15.78
31.234,10.37
31.250,3.37
31.265,-5.0
31.281,-14.07
31.296,-22.87
31.312,-30.44
31.328,-36.17
31.343,-39.91
31.359,-41.99
31.375,-42.95
31.390,-43.3
31.406,-43.32
31.421,-43.04
31.437,-42.4
31.453,-41.34
31.468,-40.02
31.484,-38.74
31.500,-37.82
31.515,-37.51
31.531,-37.86
31.546,-38.78
31.562,-40.13
31.578,-41.75
31.593,-43.51
31.609,-45.29
31.625,-46.75
31.640,-47.35
31.656,-46.41
31.671,-43.32
31.687,-37.78
31.703,-30.08
31.718,-20.93
31.734,-11.34
31.750,-2.29
31.765,5.5
31.781,11.79
31.796,16.67
31.812,20.48
31.828,23.51
31.843,25.99
31.859,28.0
31.875,29.48
31.890,30.4
31.906,30.65
31.921,30.23
31.937,29.1
31.953,27.39
31.968,25.25
31.984,22.94
32.000,20.75
32.015,18.88
32.031,17.41
32.046,16.23
32.062,15.09
32.078,13.57
32.093,11.32
32.109,8.01
32.125,3.63
32.140,-1.54
32.156,-6.85
32.171,-11.46
32.187,-14.46
32.203,-15.3
32.218,-13.79
32.234,-10.19
32.250,-5.11
32.265,0.73
32.281,6.65
32.296,12.12
32.312,16.85
32.328,20.73
32.343,23.74
32.359,25.9
32.375,27.16
32.390,27.39
32.406,26.46
32.421,24.35
32.437,21.23
32.453,17.5
32.468,13.67
32.484,10.17
32.500,7.28
32.515,5.04
32.531,3.36
32.546,2.14
32.562,1.35
32.578,0.94
32.593,0.87
32.609,0.97
32.625,0.92
32.640,0.35
32.656,-1.0
32.671,-3.12
32.687,-5.5
32.703,-7.36
32.718,-7.68
32.734,-5.58
32.750,-0.51
32.765,7.49
32.781,17.87
32.796,29.63
32.812,41.6
32.828,52.67
32.843,61.92
32.859,68.77
32.875,72.98
32.890,74.7
32.906,74.43
32.921,72.89
32.937,70.91
32.953,69.16
32.968,68.12
32.984,67.85
33.000,68.08
33.015,68.32
33.031,68.09
33.046,67.05
33.062,65.19
33.078,62.76
33.093,60.14
33.109,57.92
33.125,56.6
33.140,56.6
33.156,58.14
33.171,61.15
33.187,65.37
33.203,70.48
33.218,76.28
33.234,82.8
33.250,90.33
33.265,99.18
33.281,109.49
33.296,120.98
33.312,132.94
33.328,144.53
33.343,154.92
33.359,163.48
33.375,169.77
33.390,173.47
33.406,174.28
33.421,171.95
33.437,166.31
33.453,157.32
33.468,144.98
33.484,129.27
33.500,110.19
33.515,87.92
33.531,63.11
33.546,36.93
33.562,10.97
33.578,-13.22
33.593,-34.52
33.609,-52.58
33.625,-67.64
33.640,-80.26
33.656,-90.99
33.671,-100.31
33.687,-108.76
33.703,-117.03
33.718,-125.86
33.734,-135.76
33.750,-146.5
33.765,-157.04
33.781,-165.67
33.796,-170.57
33.812,-170.41
33.828,-164.69
33.843,-153.85
33.859,-139.1
33.875,-122.15
33.890,-104.87
33.906,-88.9
33.921,-75.44
33.937,-64.95
33.953,-57.17
33.968,-51.32
33.984,-46.49
34.000,-42.11
34.015,-37.98
34.031,-34.31
34.046,-31.3
34.062,-28.93
34.078,-27.04
34.093,-25.31
34.109,-23.67
34.125,-22.41
34.140,-22.07
34.156,-23.15
34.171,-25.94
34.187,-30.25
34.203,-35.61
34.218,-41.43
34.234,-47.23
34.250,-52.74
34.265,-57.78
34.281,-62.04
34.296,-64.95
34.312,-65.82
34.328,-63.99
34.343,-59.3
34.359,-52.17
34.375,-43.59
34.390,-34.69
34.406,-26.32
34.421,-18.84
34.437,-12.08
34.453,-5.75
34.468,0.27
34.484,5.79
34.500,10.45
34.515,13.98
34.531,16.44
34.546,18.23
34.562,19.85
34.578,21.7
34.593,23.89
34.609,26.23
34.625,28.35
34.640,29.89
34.656,30.69
34.671,30.84
34.687,30.66
34.703,30.61
34.718,31.04
34.734,31.99
34.750,33.06
34.765,33.57
34.781,32.77
34.796,30.33
34.812,26.65
34.828,22.98
34.843,20.97
34.859,22.23
34.875,27.78
34.890,37.76
34.906,51.49
34.921,67.47
34.937,83.71
34.953,97.88
34.968,107.74
34.984,111.7
35.000,109.38
35.015,102.0
35.031,92.12
35.046,82.83
35.062,76.54
35.078,74.03
35.093,74.22
35.109,74.91
35.125,73.84
35.140,69.7
35.156,62.36
35.171,52.46
35.187,40.68
35.203,27.34
35.218,12.41
35.234,-3.9
35.250,-20.78
35.265,-36.79
35.281,-50.52
35.296,-61.34
35.312,-69.81
35.328,-77.47
35.343,-85.94
35.359,-96.14
35.375,-107.85
35.390,-119.91
35.406,-130.78
35.421,-139.22
35.437,-144.51
35.453,-146.57
35.468,-145.65
35.484,-142.08
35.500,-136.17
35.515,-128.19
35.531,-118.38
35.546,-107.11
35.562,-94.89
35.578,-82.43
35.593,-70.67
35.609,-60.46
35.625,-52.36
35.640,-46.38
35.656,-41.96
35.671,-38.26
35.687,-34.54
35.703,-30.49
35.718,-26.29
35.734,-22.4
35.750,-19.27
35.765,-17.13
35.781,-15.96
35.796,-15.61
35.812,-15.93
35.828,-16.79
35.843,-18.09
35.859,-19.72
35.875,-21.45
35.890,-23.06
35.906,-24.27
35.921,-24.8
35.937,-24.36
35.953,-22.69
35.968,-19.65
35.984,-15.28
36.000,-9.83
36.015,-3.78
36.031,2.37
36.046,8.09
36.062,13.01
36.078,16.93
36.093,19.78
36.109,21.63
36.125,22.54
36.140,22.65
36.156,22.13
36.171,21.14
36.187,19.89
36.203,18.55
36.218,17.26
36.234,16.03
36.250,14.75
36.265,13.17
36.281,11.06
36.296,8.39
36.312,5.36
36.328,2.32
36.343,-0.36
36.359,-2.51
36.375,-4.21
36.390,-5.73
36.406,-7.41
36.421,-9.44
36.437,-11.79
36.453,-14.32
36.468,-16.85
36.484,-19.24
36.500,-21.29
36.515,-22.63
36.531,-22.68
36.546,-20.86
36.562,-16.84
36.578,-10.86
36.593,-3.82
36.609,3.0
36.625,8.28
36.640,11.18
36.656,11.5
36.671,9.71
36.687,6.58
36.703,3.0
36.718,-0.37
36.734,-2.99
36.750,-4.55
36.765,-4.92
36.781,-4.15
36.796,-2.59
36.812,-0.81
36.828,0.43
36.843,0.51
36.859,-0.94
36.875,-3.92
36.890,-8.05
36.906,-12.73
36.921,-17.35
36.937,-21.53
36.953,-25.1
36.968,-28.22
36.984,-31.19
37.000,-34.31
37.015,-37.76
37.031,-41.33
37.046,-44.43
37.062,-46.26
37.078,-45.97
37.093,-43.0
37.109,-37.26
37.125,-29.25
37.140,-19.86
37.156,-10.18
37.171,-1.16
37.187,6.52
37.203,12.51
37.218,16.66
37.234,19.02
37.250,19.73
37.265,19.02
37.281,17.32
37.296,15.12
37.312,12.96
37.328,11.21
37.343,9.99
37.359,9.21
37.375,8.67
37.390,8.2
37.406,7.77
37.421,7.52
37.437,7.56
37.453,7.89
37.468,8.3
37.484,8.43
37.500,7.84
37.515,6.18
37.531,3.29
37.546,-0.74
37.562,-5.48
37.578,-10.23
37.593,-13.99
37.609,-15.76
37.625,-14.63
37.640,-10.19
37.656,-2.63
37.671,7.21
37.687,18.06
37.703,28.62
37.718,37.8
37.734,45.0
37.750,49.96
37.765,52.73
37.781,53.46
37.796,52.34
37.812,49.69
37.828,45.91
37.843,41.54
37.859,37.12
37.875,33.08
37.890,29.58
37.906,26.54
37.921,23.68
37.937,20.69
37.953,17.36
37.968,13.67
37.984,9.78
38.000,5.92
38.015,2.24
38.031,-1.25
38.046,-4.74
38.062,-8.61
38.078,-13.2
38.093,-18.5
38.109,-24.07
38.125,-28.94
38.140,-31.94
38.156,-31.98
38.171,-28.48
38.187,-21.56
38.203,-12.0
38.218,-0.99
38.234,10.26
38.250,20.73
38.265,29.73
38.281,36.86
38.296,41.91
38.312,44.76
38.328,45.45
38.343,44.12
38.359,41.2
38.375,37.24
38.390,32.94
38.406,28.92
38.421,25.69
38.437,23.44
38.453,22.11
38.468,21.42
38.484,21.01
38.500,20.51
38.515,19.62
38.531,18.21
38.546,16.21
38.562,13.69
38.578,10.68
38.593,7.25
38.609,3.31
38.625,-1.24
38.640,-6.45
38.656,-12.22
38.671,-18.08
38.687,-23.26
38.703,-26.81
38.718,-27.93
38.734,-26.13
38.750,-21.56
38.765,-14.9
38.781,-7.18
38.796,0.53
38.812,7.38
38.828,12.82
38.843,16.7
38.859,19.14
38.875,20.33
38.890,20.5
38.906,19.81
38.921,18.41
38.937,16.46
38.953,14.18
38.968,11.82
38.984,9.66
39.000,7.84
39.015,6.32
39.031,4.96
39.046,3.55
39.062,2.01
39.078,0.4
39.093,-1.05
39.109,-2.13
39.125,-2.74
39.140,-3.0
39.156,-3.23
39.171,-3.79
39.187,-5.03
39.203,-7.14
39.218,-10.13
39.234,-13.77
39.250,-17.63
39.265,-21.04
39.281,-23.19
39.296,-23.27
39.312,-20.72
39.328,-15.45
39.343,-7.86
39.359,1.16
39.375,10.51
39.390,19.16
39.406,26.37
39.421,31.8
39.437,35.42
39.453,37.5
39.468,38.31
39.484,38.18
39.500,37.36
39.515,36.11
39.531,34.61
39.546,32.99
39.562,31.38
39.578,29.75
39.593,28.02
39.609,26.03
39.625,23.63
39.640,20.71
39.656,17.35
39.671,13.69
39.687,10.01
39.703,6.56
39.718,3.45
39.734,0.67
39.750,-1.92
39.765,-4.56
39.781,-7.48
39.796,-10.82
39.812,-14.57
39.828,-18.65
39.843,-22.9
39.859,-27.06
39.875,-30.75
39.890,-33.44
39.906,-34.49
39.921,-33.34
39.937,-29.72
39.953,-23.67
39.968,-15.74
39.984,-6.76
40.000,2.33
40.015,10.67
40.031,17.64
40.046,22.92
40.062,26.5
40.078,28.54
40.093,29.4
40.109,29.46
40.125,28.98
40.140,28.07
40.156,26.68
40.171,24.77
40.187,22.38
40.203,19.79
40.218,17.31
40.234,15.26
40.250,13.76
40.265,12.69
40.281,11.73
40.296,10.53
40.312,8.86
40.328,6.62
40.343,3.92
40.359,0.93
40.375,-2.18
40.390,-5.19
40.406,-7.93
40.421,-10.26
40.437,-12.23
40.453,-13.93
40.468,-15.55
40.484,-17.12
40.500,-18.52
40.515,-19.38
40.531,-19.25
40.546,-17.69
40.562,-14.6
40.578,-10.19
40.593,-4.98
40.609,0.39
40.625,5.39
40.640,9.65
40.656,13.02
40.671,15.37
40.687,16.6
40.703,16.62
40.718,15.38
40.734,13.02
40.750,9.95
40.765,6.77
40.781,4.12
40.796,2.59
40.812,2.41
40.828,3.51
40.843,5.5
40.859,7.88
40.875,10.06
40.890,11.58
40.906,12.23
40.921,12.02
40.937,11.11
40.953,9.73
40.968,8.12
40.984,6.34
41.000,4.42
41.015,2.24
41.031,-0.37
41.046,-3.52
41.062,-7.31
41.078,-11.71
41.093,-16.55
41.109,-21.49
41.125,-26.08
41.140,-29.85
41.156,-32.35
41.171,-33.38
41.187,-32.99
41.203,-31.47
41.218,-29.31
41.234,-27.05
41.250,-25.08
41.265,-23.55
41.281,-22.37
41.296,-21.2
41.312,-19.68
41.328,-17.57
41.343,-14.91
41.359,-12.0
41.375,-9.26
41.390,-7.04
41.406,-5.51
41.421,-4.61
41.437,-4.16
41.453,-4.02
41.468,-4.19
41.484,-4.88
41.500,-6.32
41.515,-8.55
41.531,-11.35
41.546,-14.2
41.562,-16.5
41.578,-17.77
41.593,-17.9
41.609,-17.13
41.625,-16.02
41.640,-15.3
41.656,-15.63
41.671,-17.45
41.687,-20.87
41.703,-25.6
41.718,-30.98
41.734,-36.08
41.750,-39.85
41.765,-41.36
41.781,-40.04
41.796,-35.88
41.812,-29.4
41.828,-21.6
41.843,-13.66
41.859,-6.73
41.875,-1.66
41.890,1.07
41.906,1.52
41.921,0.06
41.937,-2.66
41.953,-5.87
41.968,-8.81
41.984,-10.78
42.000,-11.32
42.015,-10.23
42.031,-7.66
42.046,-4.07
42.062,-0.04
42.078,3.8
42.093,7.02
42.109,9.42
42.125,11.0
42.140,11.82
42.156,11.93
42.171,11.34
42.187,10.04
42.203,8.11
42.218,5.73
42.234,3.15
42.250,0.57
42.265,-1.81
42.281,-3.84
42.296,-5.34
42.312,-5.97
42.328,-5.41
42.343,-3.35
42.359,0.24
42.375,5.08
42.390,10.59
42.406,16.02
42.421,20.69
42.437,24.09
42.453,25.99
42.468,26.35
42.484,25.31
42.500,23.1
42.515,20.06
42.531,16.59
42.546,13.23
42.562,10.49
42.578,8.73
42.593,8.02
42.609,8.0
42.625,8.04
42.640,7.45
42.656,5.77
42.671,2.87
42.687,-0.97
42.703,-5.29
42.718,-9.65
42.734,-13.82
42.750,-17.8
42.765,-21.7
42.781,-25.58
42.796,-29.4
42.812,-33.0
42.828,-36.06
42.843,-38.26
42.859,-39.16
42.875,-38.37
42.890,-35.72
42.906,-31.28
42.921,-25.48
42.937,-19.02
42.953,-12.64
42.968,-7.08
42.984,-2.8
43.000,-0.08
43.015,1.04
43.031,0.68
43.046,-0.86
43.062,-3.17
43.078,-5.76
43.093,-8.13
43.109,-9.98
43.125,-11.14
43.140,-11.68
43.156,-11.64
43.171,-11.05
43.187,-9.81
43.203,-7.84
43.218,-5.24
43.234,-2.3
43.250,0.5
43.265,2.67
43.281,3.87
43.296,4.05
43.312,3.42
43.328,2.3
43.343,1.03
43.359,-0.21
43.375,-1.38
43.390,-2.55
43.406,-3.79
43.421,-5.15
43.437,-6.56
43.453,-7.73
43.468,-8.23
43.484,-7.45
43.500,-4.72
43.515,0.53
43.531,8.6
43.546,19.38
43.562,32.31
43.578,46.3
43.593,60.04
43.609,72.1
43.625,81.25
43.640,86.59
43.656,87.74
43.671,84.81
43.687,78.44
43.703,69.73
43.718,60.06
43.734,50.84
43.750,43.24
43.765,37.94
43.781,35.0
43.796,33.88
43.812,33.79
43.828,33.9
43.843,33.69
43.859,32.99
43.875,32.01
43.890,31.13
43.906,30.86
43.921,31.59
43.937,33.49
43.953,36.52
43.968,40.39
43.984,44.66
44.000,48.79
44.015,52.3
44.031,54.82
44.046,56.3
44.062,57.05
44.078,57.73
44.093,59.15
44.109,61.95
44.125,66.14
44.140,70.8
44.156,74.3
44.171,74.59
44.187,70.04
44.203,59.99
44.218,45.01
44.234,26.55
44.250,6.53
44.265,-13.36
44.281,-31.94
44.296,-48.57
44.312,-62.98
44.328,-75.04
44.343,-84.49
44.359,-91.05
44.375,-94.48
44.390,-94.8
44.406,-92.4
44.421,-88.03
44.437,-82.61
44.453,-77.07
44.468,-72.04
44.484,-67.64
44.500,-63.61
44.515,-59.39
44.531,-54.65
44.546,-49.33
44.562,-43.79
44.578,-38.56
44.593,-34.19
44.609,-30.93
44.625,-28.71
44.640,-27.17
44.656,-25.8
44.671,-24.08
44.687,-21.64
44.703,-18.25
44.718,-13.85
44.734,-8.49
44.750,-2.34
44.765,4.24
44.781,10.83
44.796,16.9
44.812,21.99
44.828,25.74
44.843,27.94
44.859,28.55
44.875,27.61
44.890,25.17
44.906,21.23
44.921,15.93
44.937,9.55
44.953,2.61
44.968,-4.21
44.984,-10.3
45.000,-15.37
45.015,-19.52
45.031,-23.1
45.046,-26.56
45.062,-30.02
45.078,-33.31
45.093,-35.96
45.109,-37.52
45.125,-37.78
45.140,-37.01
45.156,-35.81
45.171,-34.92
45.187,-34.96
45.203,-36.15
45.218,-38.32
45.234,-41.01
45.250,-43.53
45.265,-45.21
45.281,-45.44
45.296,-43.72
45.312,-39.73
45.328,-33.47
45.343,-25.26
45.359,-15.8
45.375,-6.0
45.390,3.2
45.406,11.06
45.421,17.17
45.437,21.58
45.453,24.51
45.468,26.27
45.484,27.01
45.500,26.74
45.515,25.42
45.531,23.1
45.546,20.05
45.562,16.72
45.578,13.61
45.593,11.11
45.609,9.38
45.625,8.33
45.640,7.77
45.656,7.5
45.671,7.42
45.687,7.47
45.703,7.62
45.718,7.73
45.734,7.58
45.750,6.95
45.765,5.68
45.781,3.73
45.796,1.12
45.812,-2.12
45.828,-5.98
45.843,-10.45
45.859,-15.38
45.875,-20.42
45.890,-24.98
45.906,-28.24
45.921,-29.47
45.937,-28.22
45.953,-24.53
45.968,-18.93
45.984,-12.38
46.000,-5.94
46.015,-0.52
46.031,3.28
46.046,5.23
46.062,5.46
46.078,4.34
46.093,2.38
46.109,0.21
46.125,-1.61
46.140,-2.54
46.156,-2.34
46.171,-1.03
46.187,1.06
46.203,3.45
46.218,5.72
46.234,7.57
46.250,8.91
46.265,9.69
46.281,9.93
46.296,9.6
46.312,8.62
46.328,6.95
46.343,4.54
46.359,1.4
46.375,-2.49
46.390,-7.18
46.406,-12.75
46.421,-19.11
46.437,-25.92
46.453,-32.57
46.468,-38.1
46.484,-41.57
46.500,-42.13
46.515,-39.42
46.531,-33.62
46.546,-25.53
46.562,-16.36
46.578,-7.5
46.593,-0.22
46.609,4.78
46.625,7.35
46.640,8.01
46.656,7.71
46.671,7.53
46.687,8.35
46.703,10.62
46.718,14.31
46.734,18.95
46.750,23.87
46.765,28.34
46.781,31.73
46.796,33.66
46.812,34.0
46.828,32.94
46.843,30.84
46.859,28.18
46.875,25.38
46.890,22.79
46.906,20.56
46.921,18.68
46.937,17.11
46.953,15.75
46.968,14.59
46.984,13.69
47.000,13.16
47.015,13.15
47.031,13.86
47.046,15.38
47.062,17.72
47.078,20.87
47.093,24.76
47.109,29.34
47.125,34.58
47.140,40.39
47.156,46.51
47.171,52.57
47.187,57.97
47.203,62.12
47.218,64.51
47.234,64.81
47.250,63.04
47.265,59.39
47.281,54.24
47.296,48.03
47.312,41.22
47.328,34.23
47.343,27.43
47.359,21.12
47.375,15.49
47.390,10.71
47.406,6.87
47.421,3.99
47.437,2.1
47.453,1.13
47.468,0.88
47.484,1.01
47.500,1.06
47.515,0.52
47.531,-1.13
47.546,-4.32
47.562,-9.39
47.578,-16.43
47.593,-25.22
47.609,-35.1
47.625,-44.93
47.640,-53.24
47.656,-58.64
47.671,-60.16
47.687,-57.62
47.703,-51.67
47.718,-43.59
47.734,-34.94
47.750,-27.05
47.765,-20.76
47.781,-16.4
47.796,-13.76
47.812,-12.34
47.828,-11.43
47.843,-10.34
47.859,-8.41
47.875,-5.24
47.890,-0.69
47.906,5.04
47.921,11.44
47.937,17.9
47.953,23.85
47.968,28.97
47.984,33.09
48.000,36.27
48.015,38.56
48.031,39.99
48.046,40.56
48.062,40.19
48.078,38.86
48.093,36.5
48.109,33.09
48.125,28.61
48.140,23.21
48.156,17.21
48.171,11.18
48.187,5.85
48.203,1.95
48.218,0.08
48.234,0.42
48.250,2.82
48.265,6.75
48.281,11.47
48.296,16.18
48.312,20.28
48.328,23.43
48.343,25.53
48.359,26.66
48.375,26.85
48.390,26.05
48.406,24.15
48.421,21.05
48.437,16.75
48.453,11.44
48.468,5.32
48.484,-1.42
48.500,-8.64
48.515,-16.21
48.531,-23.91
48.546,-31.5
48.562,-38.74
48.578,-45.55
48.593,-51.98
48.609,-58.21
48.625,-64.33
48.640,-70.26
48.656,-75.72
48.671,-80.27
48.687,-83.46
48.703,-84.93
48.718,-84.54
48.734,-82.33
48.750,-78.48
48.765,-73.16
48.781,-66.38
48.796,-58.03
48.812,-47.87
48.828,-35.76
48.843,-21.83
48.859,-6.61
48.875,9.01
48.890,23.93
48.906,37.06
48.921,47.5
48.937,54.61
48.953,58.1
48.968,58.04
48.984,54.99
49.000,49.99
49.015,44.4
49.031,39.59
49.046,36.51
49.062,35.36
49.078,35.41
49.093,35.39
49.109,33.94
49.125,30.23
49.140,24.37
49.156,17.41
49.171,10.92
49.187,6.41
49.203,4.82
49.218,6.16
49.234,9.77
49.250,14.67
49.265,20.02
49.281,25.58
49.296,31.58
49.312,38.58
49.328,47.05
49.343,57.2
49.359,68.88
49.375,81.77
49.390,95.57
49.406,109.98
49.421,124.85
49.437,140.01
49.453,155.3
49.468,170.63
49.484,185.95
49.500,201.43
49.515,217.26
49.531,233.65
49.546,250.52
49.562,267.57
49.578,284.2
49.593,299.69
49.609,313.19
49.625,323.92
49.640,331.24
49.656,334.82
49.671,334.76
49.687,331.36
49.703,324.97
49.718,315.56
49.734,302.62
49.750,285.25
49.765,262.6
49.781,234.41
49.796,201.31
49.812,164.85
49.828,127.03
49.843,89.76
49.859,54.32
49.875,21.18
49.890,-9.86
49.906,-39.26
49.921,-67.3
49.937,-93.94
49.953,-118.82
49.968,-141.58
49.984,-162.28
50.000,-181.46
50.015,-199.99
50.031,-218.43
50.046,-236.7
50.062,-253.98
50.078,-269.16
50.093,-281.31
50.109,-289.97
50.125,-295.02
50.140,-296.26
50.156,-293.16
50.171,-284.95
50.187,-271.29
50.203,-252.89
50.218,-231.81
50.234,-210.74
50.250,-192.0
50.265,-176.52
50.281,-163.57
50.296,-151.38
50.312,-138.31
50.328,-123.79
50.343,-108.52
50.359,-93.99
50.375,-81.65
50.390,-72.18
50.406,-65.31
50.421,-59.96
50.437,-54.86
50.453,-49.12
50.468,-42.5
50.484,-35.38
50.500,-28.67
50.515,-23.31
50.531,-20.0
50.546,-18.94
50.562,-19.91
50.578,-22.51
50.593,-26.6
50.609,-32.49
50.625,-40.76
50.640,-51.84
50.656,-65.35
50.671,-79.85
50.687,-93.09
50.703,-102.72
50.718,-107.23
50.734,-106.45
50.750,-101.55
50.765,-94.37
50.781,-86.7
50.796,-79.56
50.812,-73.17
50.828,-67.35
50.843,-62.03
50.859,-57.63
50.875,-54.91
50.890,-54.51
50.906,-56.45
50.921,-59.87
50.937,-63.21
50.953,-64.88
50.968,-63.94
50.984,-60.54
51.000,-55.85
51.015,-51.47
51.031,-48.79
51.046,-48.42
51.062,-50.02
51.078,-52.52
51.093,-54.6
51.109,-55.26
51.125,-54.06
51.140,-51.2
51.156,-47.21
51.171,-42.79
51.187,-38.47
51.203,-34.53
51.218,-31.05
51.234,-27.93
51.250,-25.05
51.265,-22.39
51.281,-20.06
51.296,-18.33
51.312,-17.62
51.328,-18.19
51.343,-20.05
51.359,-22.97
51.375,-26.58
51.390,-30.67
51.406,-35.38
51.421,-41.04
51.437,-47.95
51.453,-56.05
51.468,-64.76
51.484,-73.12
51.500,-80.26
51.515,-85.63
51.531,-89.18
51.546,-91.12
51.562,-91.73
51.578,-91.19
51.593,-89.62
51.609,-87.23
51.625,-84.48
51.640,-81.87
51.656,-79.66
51.671,-77.59
51.687,-74.77
51.703,-69.91
51.718,-61.78
51.734,-49.77
51.750,-34.06
51.765,-15.67
51.781,3.99
51.796,23.58
51.812,42.06
51.828,58.83
51.843,73.44
51.859,85.43
51.875,94.17
51.890,99.05
51.906,99.69
51.921,96.26
51.937,89.53
51.953,80.69
51.968,71.12
51.984,61.99
52.000,54.05
52.015,47.61
52.031,42.68
52.046,39.04
52.062,36.4
52.078,34.48
52.093,32.91
52.109,31.35
52.125,29.49
52.140,27.07
52.156,24.04
52.171,20.54
52.187,16.8
52.203,12.98
52.218,8.96
52.234,4.27
52.250,-1.67
52.265,-9.17
52.281,-17.89
52.296,-26.69
52.312,-33.81
52.328,-37.55
52.343,-36.76
52.359,-31.31
52.375,-22.13
52.390,-10.7
52.406,1.45
52.421,13.17
52.437,23.79
52.453,32.95
52.468,40.39
52.484,45.87
52.500,49.19
52.515,50.41
52.531,49.89
52.546,48.27
52.562,46.17
52.578,44.03
52.593,41.89
52.609,39.53
52.625,36.66
52.640,33.12
52.656,28.91
52.671,24.21
52.687,19.17
52.703,13.89
52.718,8.45
52.734,2.97
52.750,-2.21
52.765,-6.68
52.781,-10.0
52.796,-12.07
52.812,-13.22
52.828,-14.2
52.843,-15.91
52.859,-19.11
52.875,-24.08
52.890,-30.55
52.906,-37.73
52.921,-44.42
52.937,-49.36
52.953,-51.38
52.968,-49.62
52.984,-43.69
53.000,-33.76
53.015,-20.55
53.031,-5.32
53.046,10.32
53.062,24.68
53.078,36.37
53.093,44.47
53.109,48.63
53.125,48.97
53.140,45.95
53.156,40.17
53.171,32.39
53.187,23.42
53.203,14.18
53.218,5.62
53.234,-1.41
53.250,-6.36
53.265,-9.04
53.281,-9.62
53.296,-8.47
53.312,-6.01
53.328,-2.7
53.343,1.08
53.359,4.94
53.375,8.52
53.390,11.51
53.406,13.66
53.421,14.76
53.437,14.69
53.453,13.27
53.468,10.39
53.484,6.12
53.500,0.85
53.515,-4.78
53.531,-9.94
53.546,-13.97
53.562,-16.59
53.578,-17.97
53.593,-18.67
53.609,-19.39
53.625,-20.63
53.640,-22.43
53.656,-24.29
53.671,-25.31
53.687,-24.34
53.703,-20.45
53.718,-13.18
53.734,-2.64
53.750,10.53
53.765,25.43
53.781,41.12
53.796,56.72
53.812,71.39
53.828,84.24
53.843,94.37
53.859,101.06
53.875,104.01
53.890,103.56
53.906,100.53
53.921,96.05
53.937,91.14
53.953,86.5
53.968,82.42
53.984,78.9
54.000,75.76
54.015,72.69
54.031,69.27
54.046,65.05
54.062,59.66
54.078,53.0
54.093,45.37
54.109,37.42
54.125,29.99
54.140,23.76
54.156,19.06
54.171,15.84
54.187,13.77
54.203,12.49
54.218,11.85
54.234,11.95
54.250,13.02
54.265,15.32
54.281,18.9
54.296,23.61
54.312,29.1
54.328,34.92
54.343,40.56
54.359,45.4
54.375,48.74
54.390,49.96
54.406,48.76
54.421,45.37
54.437,40.61
54.453,35.62
54.468,31.28
54.484,27.89
54.500,25.11
54.515,22.26
54.531,18.88
54.546,15.01
54.562,11.26
54.578,8.44
54.593,7.07
54.609,7.13
54.625,8.01
54.640,8.89
54.656,9.05
54.671,8.05
54.687,5.81
54.703,2.5
54.718,-1.51
54.734,-5.62
54.750,-9.27
54.765,-12.0
54.781,-13.72
54.796,-14.82
54.812,-16.01
54.828,-18.02
54.843,-21.28
54.859,-25.64
54.875,-30.37
54.890,-34.54
54.906,-37.24
54.921,-37.88
54.937,-36.25
54.953,-32.42
54.968,-26.69
54.984,-19.56
55.000,-11.72
55.015,-3.97
55.031,2.94
55.046,8.54
55.062,12.73
55.078,15.71
55.093,17.68
55.109,18.59
55.125,18.0
55.140,15.4
55.156,10.6
55.171,4.16
55.187,-2.59
55.203,-7.92
55.218,-10.37
55.234,-9.31
55.250,-5.24
55.265,0.31
55.281,5.44
55.296,8.5
55.312,8.61
55.328,5.82
55.343,0.81
55.359,-5.51
55.375,-12.36
55.390,-19.2
55.406,-25.63
55.421,-31.15
55.437,-35.15
55.453,-37.0
55.468,-36.41
55.484,-33.67
55.500,-29.59
55.515,-25.32
55.531,-21.9
55.546,-19.92
55.562,-19.34
55.578,-19.7
55.593,-20.47
55.609,-21.31
55.625,-22.24
55.640,-23.51
55.656,-25.45
55.671,-28.19
55.687,-31.48
55.703,-34.78
55.718,-37.45
55.734,-38.99
55.750,-39.19
55.765,-38.17
55.781,-36.26
55.796,-33.9
55.812,-31.47
55.828,-29.27
55.843,-27.5
55.859,-26.25
55.875,-25.54
55.890,-25.35
55.906,-25.65
55.921,-26.32
55.937,-27.17
55.953,-27.93
55.968,-28.2
55.984,-27.64
56.000,-25.97
56.015,-23.14
56.031,-19.41
56.046,-15.26
56.062,-11.17
56.078,-7.51
56.093,-4.43
56.109,-1.82
56.125,0.46
56.140,2.57
56.156,4.54
56.171,6.31
56.187,7.8
56.203,8.96
56.218,9.74
56.234,10.13
56.250,10.1
56.265,9.64
56.281,8.79
56.296,7.62
56.312,6.17
56.328,4.29
56.343,1.62
56.359,-2.38
56.375,-8.18
56.390,-15.9
56.406,-25.07
56.421,-34.75
56.437,-43.75
56.453,-51.02
56.468,-55.98
56.484,-58.58
56.500,-59.2
56.515,-58.6
56.531,-57.63
56.546,-57.26
56.562,-58.26
56.578,-60.97
56.593,-64.99
56.609,-68.95
56.625,-70.72
56.640,-67.92
56.656,-58.88
56.671,-43.35
56.687,-22.72
56.703,0.45
56.718,23.42
56.734,44.18
56.750,62.0
56.765,77.3
56.781,91.0
56.796,103.75
56.812,115.58
56.828,125.94
56.843,134.06
56.859,139.34
56.875,141.33
56.890,139.75
56.906,134.54
56.921,126.0
56.937,115.05
56.953,103.19
56.968,92.06
56.984,82.81
57.000,75.54
57.015,69.03
57.031,61.39
57.046,50.73
57.062,36.2
57.078,18.44
57.093,-0.67
57.109,-18.66
57.125,-33.44
57.140,-43.96
57.156,-50.49
57.171,-54.32
57.187,-57.2
57.203,-60.73
57.218,-65.74
57.234,-72.11
57.250,-78.89
57.265,-84.79
57.281,-88.65
57.296,-89.89
57.312,-88.58
57.328,-85.31
57.343,-80.9
57.359,-76.03
57.375,-71.09
57.390,-66.13
57.406,-61.16
57.421,-56.24
57.437,-51.73
57.453,-48.16
57.468,-46.08
57.484,-45.83
57.500,-47.39
57.515,-50.29
57.531,-53.65
57.546,-56.28
57.562,-56.95
57.578,-54.91
57.593,-50.12
57.609,-43.45
57.625,-36.19
57.640,-29.56
57.656,-24.12
57.671,-19.68
57.687,-15.59
57.703,-11.15
57.718,-5.95
57.734,0.13
57.750,7.25
57.765,15.72
57.781,25.91
57.796,37.91
57.812,51.0
57.828,63.72
57.843,74.24
57.859,81.1
57.875,83.86
57.890,83.23
57.906,80.76
57.921,78.23
57.937,76.94
57.953,77.49
57.968,79.67
57.984,82.79
58.000,85.98
58.015,88.62
58.031,90.41
58.046,91.39
58.062,91.71
58.078,91.45
58.093,90.55
58.109,88.67
58.125,85.42
58.140,80.42
58.156,73.53
58.171,64.8
58.187,54.57
58.203,43.33
58.218,31.56
58.234,19.7
58.250,7.89
58.265,-3.91
58.281,-15.93
58.296,-28.4
58.312,-41.46
58.328,-55.03
58.343,-68.75
58.359,-81.97
58.375,-93.9
58.390,-103.8
58.406,-111.37
58.421,-116.94
58.437,-121.45
58.453,-126.17
58.468,-131.95
58.484,-138.72
58.500,-145.14
58.515,-148.97
58.531,-147.81
58.546,-140.09
58.562,-125.76
58.578,-106.28
58.593,-84.1
58.609,-61.82
58.625,-41.46
58.640,-24.09
58.656,-9.93
58.671,1.32
58.687,10.13
58.703,16.91
58.718,21.91
58.734,25.36
58.750,27.5
58.765,28.59
58.781,28.85
58.796,28.55
58.812,27.9
58.828,27.15
58.843,26.55
58.859,26.25
58.875,26.3
58.890,26.63
58.906,27.11
58.921,27.61
58.937,28.11
58.953,28.62
58.968,29.15
58.984,29.63
59.000,29.82
59.015,29.3
59.031,27.58
59.046,24.26
59.062,19.14
59.078,12.35
59.093,4.24
59.109,-4.61
59.125,-13.44
59.140,-21.26
59.156,-26.83
59.171,-28.7
59.187,-25.54
59.203,-16.46
59.218,-1.39
59.234,18.78
59.250,42.34
59.265,67.18
59.281,91.16
59.296,112.47
59.312,129.58
59.328,141.18
59.343,146.1
59.359,143.71
59.375,134.37
59.390,119.76
59.406,102.71
59.421,86.33
59.437,72.94
59.453,63.18
59.468,55.92
59.484,49.03
59.500,40.82
59.515,31.01
59.531,21.14
59.546,13.7
59.562,10.67
59.578,12.2
59.593,16.19
59.609,19.05
59.625,17.08
59.640,7.97
59.656,-8.64
59.671,-31.18
59.687,-57.08
59.703,-83.52
59.718,-108.22
59.734,-129.52
59.750,-146.31
59.765,-157.81
59.781,-163.53
59.796,-163.34
59.812,-157.44
59.828,-146.2
59.843,-129.96
59.859,-109.07
59.875,-84.06
59.890,-56.07
59.906,-26.97
59.921,0.68
59.937,24.18
59.953,41.4
59.968,51.27
59.984,53.99
