timestamp,value
00.000,7.3
00.015,6.12
00.031,5.04
00.046,3.88
00.062,2.65
00.078,1.54
00.093,0.88
00.109,0.98
00.125,1.91
00.140,3.41
00.156,5.05
00.171,6.39
00.187,7.12
00.203,7.12
00.218,6.48
00.234,5.32
00.250,3.7
00.265,1.7
00.281,-0.63
00.296,-3.14
00.312,-5.65
00.328,-7.95
00.343,-9.91
00.359,-11.46
00.375,-12.6
00.390,-13.32
00.406,-13.53
00.421,-13.2
00.437,-12.3
00.453,-10.94
00.468,-9.35
00.484,-7.84
00.500,-6.71
00.515,-6.12
00.531,-6.03
00.546,-6.31
00.562,-6.83
00.578,-7.59
00.593,-8.68
00.609,-10.24
00.625,-12.32
00.640,-14.88
00.656,-17.72
00.671,-20.54
00.687,-23.03
00.703,-24.91
00.718,-26.0
00.734,-26.17
00.750,-25.42
00.765,-23.68
00.781,-20.94
00.796,-17.26
00.812,-12.8
00.828,-7.91
00.843,-3.04
00.859,1.27
00.875,4.64
00.890,6.86
00.906,8.04
00.921,8.46
00.937,8.48
00.953,8.33
00.968,8.17
00.984,8.03
01.000,7.64
01.015,6.63
01.031,4.36
01.046,0.26
01.062,-5.95
01.078,-13.99
01.093,-22.79
01.109,-30.68
01.125,-35.69
01.140,-36.26
01.156,-31.68
01.171,-22.51
01.187,-10.47
01.203,2.01
01.218,12.54
01.234,19.51
01.250,22.43
01.265,21.79
01.281,18.79
01.296,14.71
01.312,10.69
01.328,7.7
01.343,6.63
01.359,8.28
01.375,13.14
01.390,20.94
01.406,30.49
01.421,39.99
01.437,47.72
01.453,52.71
01.468,55.17
01.484,56.2
01.500,57.03
01.515,58.4
01.531,60.08
01.546,61.17
01.562,60.54
01.578,57.45
01.593,51.71
01.609,43.64
01.625,33.77
01.640,22.52
01.656,10.28
01.671,-2.55
01.687,-15.4
01.703,-27.39
01.718,-37.56
01.734,-45.07
01.750,-49.43
01.765,-50.67
01.781,-49.25
01.796,-45.84
01.812,-41.23
01.828,-36.11
01.843,-31.06
01.859,-26.57
01.875,-23.04
01.890,-20.72
01.906,-19.71
01.921,-19.86
01.937,-20.8
01.953,-22.09
01.968,-23.21
01.984,-23.7
02.000,-23.19
02.015,-21.43
02.031,-18.37
02.046,-14.15
02.062,-8.99
02.078,-3.25
02.093,2.82
02.109,8.99
02.125,15.1
02.140,20.89
02.156,25.97
02.171,29.93
02.187,32.49
02.203,33.76
02.218,34.11
02.234,34.05
02.250,33.94
02.265,33.78
02.281,33.33
02.296,32.29
02.312,30.58
02.328,28.49
02.343,26.55
02.359,25.18
02.375,24.45
02.390,23.98
02.406,23.08
02.421,20.96
02.437,17.09
02.453,11.3
02.468,3.81
02.484,-4.79
02.500,-13.71
02.515,-22.04
02.531,-29.02
02.546,-34.18
02.562,-37.43
02.578,-39.07
02.593,-39.59
02.609,-39.5
02.625,-39.07
02.640,-38.39
02.656,-37.31
02.671,-35.69
02.687,-33.33
02.703,-30.05
02.718,-25.73
02.734,-20.36
02.750,-14.13
02.765,-7.43
02.781,-0.68
02.796,5.89
02.812,12.34
02.828,18.9
02.843,25.77
02.859,32.76
02.875,39.18
02.890,44.08
02.906,46.6
02.921,46.39
02.937,43.84
02.953,39.97
02.968,35.94
02.984,32.68
03.000,30.47
03.015,28.88
03.031,26.93
03.046,23.56
03.062,18.03
03.078,10.4
03.093,1.57
03.109,-7.01
03.125,-13.86
03.140,-17.94
03.156,-19.02
03.171,-17.66
03.187,-14.93
03.203,-12.03
03.218,-10.05
03.234,-9.61
03.250,-10.69
03.265,-12.52
03.281,-13.7
03.296,-12.81
03.312,-9.23
03.328,-3.81
03.343,1.05
03.359,2.15
03.375,-3.4
03.390,-16.96
03.406,-37.69
03.421,-62.86
03.437,-88.79
03.453,-111.55
03.468,-127.35
03.484,-132.86
03.500,-125.95
03.515,-106.71
03.531,-78.36
03.546,-46.81
03.562,-18.78
03.578,0.8
03.593,10.83
03.609,14.07
03.625,15.21
03.640,18.04
03.656,23.51
03.671,29.84
03.687,34.26
03.703,35.17
03.718,33.17
03.734,30.35
03.750,28.65
03.765,28.48
03.781,28.67
03.796,27.53
03.812,24.28
03.828,19.57
03.843,15.22
03.859,13.25
03.875,14.68
03.890,19.11
03.906,24.95
03.921,30.34
03.937,34.16
03.953,36.34
03.968,37.71
03.984,39.38
04.000,41.97
04.015,45.28
04.031,48.46
04.046,50.49
04.062,50.67
04.078,48.97
04.093,45.87
04.109,42.03
04.125,38.02
04.140,34.11
04.156,30.19
04.171,25.75
04.187,20.09
04.203,12.54
04.218,2.89
04.234,-8.43
04.250,-20.29
04.265,-31.15
04.281,-39.57
04.296,-44.61
04.312,-46.05
04.328,-44.35
04.343,-40.35
04.359,-35.03
04.375,-29.38
04.390,-24.2
04.406,-20.08
04.421,-17.22
04.437,-15.33
04.453,-13.72
04.468,-11.57
04.484,-8.35
04.500,-4.06
04.515,0.77
04.531,5.42
04.546,9.53
04.562,13.25
04.578,17.12
04.593,21.63
04.609,26.71
04.625,31.73
04.640,35.76
04.656,38.1
04.671,38.66
04.687,37.89
04.703,36.38
04.718,34.46
04.734,32.07
04.750,28.95
04.765,25.24
04.781,21.67
04.796,19.47
04.812,19.79
04.828,23.03
04.843,28.55
04.859,34.87
04.875,40.24
04.890,43.41
04.906,44.0
04.921,42.48
04.937,39.83
04.953,36.99
04.968,34.68
04.984,33.25
05.000,32.93
05.015,34.0
05.031,36.75
05.046,41.32
05.062,47.48
05.078,54.53
05.093,61.41
05.109,67.03
05.125,70.62
05.140,72.07
05.156,71.89
05.171,71.0
05.187,70.41
05.203,70.78
05.218,72.26
05.234,74.56
05.250,77.07
05.265,79.23
05.281,80.9
05.296,82.5
05.312,84.86
05.328,88.92
05.343,95.02
05.359,102.48
05.375,109.51
05.390,113.61
05.406,112.4
05.421,104.47
05.437,90.11
05.453,71.23
05.468,50.78
05.484,31.62
05.500,15.77
05.515,4.22
05.531,-2.97
05.546,-6.12
05.562,-5.78
05.578,-2.92
05.593,0.88
05.609,3.69
05.625,4.0
05.640,1.51
05.656,-2.67
05.671,-7.06
05.687,-11.36
05.703,-17.63
05.718,-30.06
05.734,-53.13
05.750,-89.03
05.765,-135.76
05.781,-187.15
05.796,-234.97
05.812,-272.27
05.828,-295.64
05.843,-306.0
05.859,-307.06
05.875,-303.04
05.890,-296.52
05.906,-288.01
05.921,-276.68
05.937,-261.78
05.953,-243.66
05.968,-223.77
05.984,-203.91
06.000,-185.2
06.015,-167.6
06.031,-150.24
06.046,-132.35
06.062,-114.13
06.078,-96.8
06.093,-82.09
06.109,-71.15
06.125,-63.82
06.140,-58.7
06.156,-53.7
06.171,-46.99
06.187,-37.77
06.203,-26.56
06.218,-14.77
06.234,-4.02
06.250,4.58
06.265,10.86
06.281,15.46
06.296,19.39
06.312,23.56
06.328,28.38
06.343,33.72
06.359,39.13
06.375,44.08
06.390,48.15
06.406,51.08
06.421,52.8
06.437,53.3
06.453,52.74
06.468,51.33
06.484,49.35
06.500,47.02
06.515,44.44
06.531,41.49
06.546,38.02
06.562,33.94
06.578,29.34
06.593,24.52
06.609,19.89
06.625,15.83
06.640,12.51
06.656,9.97
06.671,8.07
06.687,6.61
06.703,5.39
06.718,4.24
06.734,3.01
06.750,1.58
06.765,-0.07
06.781,-1.89
06.796,-3.74
06.812,-5.5
06.828,-7.14
06.843,-8.72
06.859,-10.43
06.875,-12.4
06.890,-14.54
06.906,-16.51
06.921,-17.78
06.937,-17.83
06.953,-16.34
06.968,-13.35
06.984,-9.17
07.000,-4.33
07.015,0.65
07.031,5.3
07.046,9.23
07.062,12.12
07.078,13.65
07.093,13.61
07.109,11.98
07.125,9.0
07.140,5.2
07.156,1.25
07.171,-2.28
07.187,-4.93
07.203,-6.49
07.218,-6.79
07.234,-5.81
07.250,-3.57
07.265,-0.19
07.281,4.09
07.296,9.06
07.312,14.61
07.328,20.86
07.343,28.09
07.359,36.39
07.375,45.4
07.390,54.08
07.406,60.9
07.421,64.31
07.437,63.33
07.453,57.92
07.468,48.97
07.484,38.02
07.500,26.77
07.515,16.69
07.531,8.87
07.546,3.95
07.562,2.08
07.578,2.94
07.593,5.66
07.609,8.98
07.625,11.46
07.640,11.88
07.656,9.59
07.671,4.63
07.687,-2.38
07.703,-10.51
07.718,-18.77
07.734,-26.27
07.750,-32.33
07.765,-36.39
07.781,-38.08
07.796,-37.25
07.812,-34.01
07.828,-28.71
07.843,-21.89
07.859,-14.19
07.875,-6.24
07.890,1.45
07.906,8.54
07.921,14.83
07.937,20.25
07.953,24.68
07.968,28.0
07.984,30.09
08.000,30.97
08.015,30.91
08.031,30.54
08.046,30.78
08.062,32.57
08.078,36.5
08.093,42.46
08.109,49.57
08.125,56.27
08.140,60.83
08.156,61.88
08.171,58.89
08.187,52.33
08.203,43.4
08.218,33.62
08.234,24.23
08.250,15.93
08.265,8.86
08.281,2.87
08.296,-2.05
08.312,-5.58
08.328,-7.14
08.343,-6.17
08.359,-2.37
08.375,4.12
08.390,12.89
08.406,23.48
08.421,35.53
08.437,48.87
08.453,63.31
08.468,78.42
08.484,93.5
08.500,107.54
08.515,119.48
08.531,128.42
08.546,133.84
08.562,135.69
08.578,134.34
08.593,130.36
08.609,124.27
08.625,116.52
08.640,107.45
08.656,97.41
08.671,86.88
08.687,76.31
08.703,66.01
08.718,56.0
08.734,46.21
08.750,36.57
08.765,27.49
08.781,19.78
08.796,14.3
08.812,11.53
08.828,11.06
08.843,11.62
08.859,11.59
08.875,9.71
08.890,5.58
08.906,-0.15
08.921,-6.34
08.937,-11.93
08.953,-16.39
08.968,-19.88
08.984,-22.98
09.000,-26.25
09.015,-29.94
09.031,-33.96
09.046,-37.86
09.062,-41.06
09.078,-42.95
09.093,-42.98
09.109,-40.72
09.125,-35.98
09.140,-28.93
09.156,-20.09
09.171,-10.39
09.187,-0.93
09.203,7.23
09.218,13.29
09.234,16.81
09.250,17.74
09.265,16.42
09.281,13.47
09.296,9.73
09.312,5.99
09.328,2.82
09.343,0.41
09.359,-1.43
09.375,-3.06
09.390,-4.82
09.406,-6.8
09.421,-8.8
09.437,-10.47
09.453,-11.55
09.468,-11.95
09.484,-11.86
09.500,-11.56
09.515,-11.24
09.531,-10.86
09.546,-10.12
09.562,-8.58
09.578,-5.95
09.593,-2.31
09.609,1.94
09.625,6.14
09.640,9.66
09.656,12.18
09.671,13.75
09.687,14.62
09.703,15.06
09.718,15.2
09.734,14.96
09.750,14.28
09.765,13.28
09.781,12.35
09.796,12.02
09.812,12.59
09.828,13.8
09.843,14.78
09.859,14.31
09.875,11.41
09.890,5.64
09.906,-2.71
09.921,-12.85
09.937,-23.86
09.953,-35.05
09.968,-46.03
09.984,-56.44
10.000,-65.83
10.015,-73.56
10.031,-78.97
10.046,-81.74
10.062,-82.07
10.078,-80.62
10.093,-78.14
10.109,-75.09
10.125,-71.34
10.140,-66.41
10.156,-59.88
10.171,-51.87
10.187,-43.28
10.203,-35.49
10.218,-29.82
10.234,-26.78
10.250,-25.78
10.265,-25.29
10.281,-23.51
10.296,-19.12
10.312,-11.83
10.328,-2.43
10.343,7.5
10.359,16.16
10.375,21.94
10.390,23.84
10.406,21.63
10.421,15.94
10.437,8.16
10.453,0.13
10.468,-6.5
10.484,-10.92
10.500,-13.4
10.515,-15.27
10.531,-18.21
10.546,-23.62
10.562,-32.09
10.578,-43.34
10.593,-56.45
10.609,-70.09
10.625,-82.81
10.640,-93.14
10.656,-99.82
10.671,-101.88
10.687,-98.83
10.703,-90.41
10.718,-76.59
10.734,-57.53
10.750,-33.99
10.765,-7.77
10.781,18.46
10.796,41.78
10.812,60.24
10.828,73.67
10.843,83.52
10.859,91.77
10.875,99.38
10.890,105.36
10.906,107.11
10.921,101.8
10.937,87.76
10.953,65.24
10.968,36.44
10.984,4.68
11.000,-26.12
11.015,-51.83
11.031,-68.2
11.046,-71.77
11.062,-61.22
11.078,-38.67
11.093,-9.89
11.109,17.21
11.125,35.28
11.140,40.37
11.156,33.65
11.171,21.34
11.187,12.6
11.203,16.79
11.218,39.9
11.234,82.2
11.250,137.45
11.265,193.93
11.281,237.6
11.296,256.01
11.312,242.27
11.328,197.37
11.343,130.01
11.359,53.88
11.375,-16.72
11.390,-70.93
11.406,-103.84
11.421,-116.42
11.437,-113.4
11.453,-101.05
11.468,-85.17
11.484,-70.25
11.500,-59.47
11.515,-54.75
11.531,-56.43
11.546,-63.05
11.562,-71.57
11.578,-78.44
11.593,-81.29
11.609,-79.96
11.625,-76.45
11.640,-73.54
11.656,-72.79
11.671,-73.35
11.687,-72.51
11.703,-67.42
11.718,-57.15
11.734,-43.83
11.750,-32.16
11.765,-27.74
11.781,-35.09
11.796,-56.22
11.812,-90.05
11.828,-132.55
11.843,-177.45
11.859,-217.32
11.875,-245.24
11.890,-256.4
11.906,-249.7
11.921,-228.29
11.937,-198.62
11.953,-168.24
11.968,-143.15
11.984,-125.77
12.000,-114.58
12.015,-105.41
12.031,-93.78
12.046,-77.08
12.062,-55.63
12.078,-32.08
12.093,-10.26
12.109,6.57
12.125,16.63
12.140,19.8
12.156,17.34
12.171,11.23
12.187,3.71
12.203,-3.15
12.218,-7.63
12.234,-8.75
12.250,-6.37
12.265,-1.32
12.281,4.9
12.296,10.64
12.312,14.64
12.328,16.6
12.343,17.14
12.359,17.6
12.375,19.35
12.390,23.17
12.406,29.04
12.421,36.23
12.437,43.9
12.453,51.39
12.468,58.43
12.484,64.9
12.500,70.69
12.515,75.64
12.531,79.86
12.546,84.05
12.562,89.34
12.578,96.87
12.593,106.96
12.609,118.69
12.625,129.91
12.640,138.01
12.656,140.82
12.671,137.77
12.687,129.78
12.703,118.85
12.718,107.29
12.734,97.02
12.750,89.47
12.765,85.51
12.781,85.72
12.796,89.97
12.812,97.39
12.828,106.1
12.843,113.6
12.859,117.85
12.875,118.35
12.890,116.86
12.906,116.8
12.921,121.94
12.937,134.48
12.953,154.56
12.968,179.48
12.984,204.63
13.000,225.07
13.015,237.03
13.031,238.67
13.046,230.17
13.062,213.07
13.078,188.58
13.093,159.04
13.109,125.66
13.125,89.61
13.140,52.65
13.156,16.97
13.171,-15.59
13.187,-44.62
13.203,-71.57
13.218,-100.72
13.234,-133.05
13.250,-169.14
13.265,-207.15
13.281,-243.43
13.296,-274.75
13.312,-300.21
13.328,-321.64
13.343,-342.57
13.359,-368.72
13.375,-399.36
13.390,-433.67
13.406,-468.18
13.421,-497.24
13.437,-513.84
13.453,-511.23
13.468,-484.64
13.484,-433.3
13.500,-364.59
13.515,-283.93
13.531,-201.86
13.546,-127.57
13.562,-66.18
13.578,-17.88
13.593,20.65
13.609,53.62
13.625,102.18
13.640,141.3
13.656,171.0
13.671,187.06
13.687,187.07
13.703,171.91
13.718,145.92
13.734,115.48
13.750,87.02
13.765,64.8
13.781,47.25
13.796,36.78
13.812,31.44
13.828,29.6
13.843,30.47
13.859,33.68
13.875,38.33
13.890,42.58
13.906,44.01
13.921,38.38
13.937,27.85
13.953,13.7
13.968,-1.66
13.984,-15.74
14.000,-27.06
14.015,-35.43
14.031,-41.55
14.046,-46.2
14.062,-51.37
14.078,-55.45
14.093,-58.23
14.109,-59.21
14.125,-57.67
14.140,-52.87
14.156,-44.33
14.171,-32.08
14.187,-16.69
14.203,0.26
14.218,19.07
14.234,40.1
14.250,64.54
14.265,93.72
14.281,128.41
14.296,168.46
14.312,212.58
14.328,258.04
14.343,300.19
14.359,333.34
14.375,350.59
14.390,346.04
14.406,316.96
14.421,265.34
14.437,197.73
14.453,122.95
14.468,49.28
14.484,-17.73
14.500,-75.55
14.515,-123.6
14.531,-161.28
14.546,-186.75
14.562,-197.6
14.578,-192.29
14.593,-172.13
14.609,-141.8
14.625,-108.43
14.640,-79.38
14.656,-60.09
14.671,-52.86
14.687,-56.92
14.703,-69.66
14.718,-88.01
14.734,-109.26
14.750,-131.22
14.765,-152.0
14.781,-170.07
14.796,-184.86
14.812,-197.24
14.828,-209.3
14.843,-222.87
14.859,-237.48
14.875,-249.24
14.890,-251.88
14.906,-239.59
14.921,-210.06
14.937,-166.15
14.953,-114.69
14.968,-63.24
14.984,-16.94
15.000,23.42
15.015,60.75
15.031,99.1
15.046,141.12
15.062,187.09
15.078,235.24
15.093,282.64
15.109,325.71
15.125,360.05
15.140,381.09
15.156,385.73
15.171,374.57
15.187,353.27
15.203,331.59
15.218,319.58
15.234,322.89
15.250,339.47
15.265,360.26
15.281,373.24
15.296,368.89
15.312,343.79
15.328,300.94
15.343,246.72
15.359,186.85
15.375,124.19
15.390,59.09
15.406,-8.08
15.421,-74.19
15.437,-132.91
15.453,-176.37
15.468,-198.53
15.484,-198.31
15.500,-180.85
15.515,-155.49
15.531,-131.96
15.546,-116.69
15.562,-110.72
15.578,-110.42
15.593,-110.31
15.609,-106.3
15.625,-97.76
15.640,-87.47
15.656,-79.67
15.671,-77.33
15.687,-80.57
15.703,-86.62
15.718,-91.33
15.734,-91.26
15.750,-85.28
15.765,-75.05
15.781,-63.96
15.796,-55.58
15.812,-52.06
15.828,-53.26
15.843,-57.12
15.859,-60.83
15.875,-62.15
15.890,-60.46
15.906,-56.69
15.921,-52.5
15.937,-49.13
15.953,-46.55
15.968,-43.57
15.984,-38.65
16.000,-31.02
16.015,-21.26
16.031,-11.11
16.046,-2.52
16.062,3.37
16.078,6.65
16.093,8.45
16.109,10.09
16.125,12.35
16.140,15.25
16.156,18.34
16.171,21.15
16.187,23.41
16.203,25.06
16.218,26.05
16.234,26.2
16.250,25.31
16.265,23.38
16.281,20.82
16.296,18.34
16.312,16.65
16.328,16.12
16.343,16.63
16.359,17.68
16.375,18.62
16.390,18.97
16.406,18.63
16.421,17.88
16.437,17.29
16.453,17.54
16.468,19.28
16.484,22.94
16.500,28.66
16.515,36.34
16.531,45.65
16.546,56.17
16.562,67.4
16.578,78.74
16.593,89.5
16.609,99.06
16.625,106.99
16.640,113.25
16.656,118.09
16.671,121.84
16.687,124.58
16.703,125.85
16.718,124.84
16.734,120.58
16.750,112.36
16.765,100.01
16.781,83.86
16.796,64.46
16.812,42.47
16.828,18.63
16.843,-6.1
16.859,-30.32
16.875,-52.23
16.890,-69.89
16.906,-81.74
16.921,-87.07
16.937,-86.21
16.953,-80.37
16.968,-71.16
16.984,-60.13
17.000,-48.51
17.015,-37.09
17.031,-26.29
17.046,-16.33
17.062,-7.44
17.078,0.08
17.093,5.78
17.109,9.33
17.125,10.53
17.140,9.42
17.156,6.22
17.171,1.27
17.187,-5.03
17.203,-12.22
17.218,-19.71
17.234,-26.86
17.250,-32.91
17.265,-37.24
17.281,-39.58
17.296,-40.26
17.312,-40.12
17.328,-40.24
17.343,-41.49
17.359,-44.31
17.375,-48.78
17.390,-54.77
17.406,-62.19
17.421,-70.93
17.437,-80.54
17.453,-90.02
17.468,-98.0
17.484,-103.2
17.500,-105.2
17.515,-104.99
17.531,-104.57
17.546,-105.99
17.562,-110.22
17.578,-116.65
17.593,-123.46
17.609,-128.68
17.625,-131.1
17.640,-130.64
17.656,-127.79
17.671,-122.88
17.687,-115.52
17.703,-104.88
17.718,-90.42
17.734,-72.8
17.750,-53.91
17.765,-36.25
17.781,-21.94
17.796,-11.78
17.812,-5.14
17.828,-0.41
17.843,4.17
17.859,9.72
17.875,16.24
17.890,22.78
17.906,28.04
17.921,31.1
17.937,31.94
17.953,31.4
17.968,30.76
17.984,31.03
18.000,32.43
18.015,34.26
18.031,35.26
18.046,34.22
18.062,30.32
18.078,23.27
18.093,13.11
18.109,0.33
18.125,-13.83
18.140,-27.14
18.156,-36.7
18.171,-40.04
18.187,-36.43
18.203,-27.59
18.218,-17.16
18.234,-9.01
18.250,-5.34
18.265,-5.62
18.281,-7.28
18.296,-7.27
18.312,-3.91
18.328,2.33
18.343,9.45
18.359,15.33
18.375,18.98
18.390,20.84
18.406,22.15
18.421,23.78
18.437,25.72
18.453,27.07
18.468,26.75
18.484,24.2
18.500,19.84
18.515,14.83
18.531,10.56
18.546,8.0
18.562,7.15
18.578,7.26
18.593,7.31
18.609,6.61
18.625,5.24
18.640,4.07
18.656,4.24
18.671,6.6
18.687,11.23
18.703,17.3
18.718,23.52
18.734,28.58
18.750,31.62
18.765,32.49
18.781,31.6
18.796,29.7
18.812,27.54
18.828,25.67
18.843,24.29
18.859,23.34
18.875,22.59
18.890,21.77
18.906,20.76
18.921,19.61
18.937,18.46
18.953,17.45
18.968,16.57
18.984,15.66
19.000,14.49
19.015,12.81
19.031,10.44
19.046,7.42
19.062,3.84
19.078,-0.12
19.093,-4.22
19.109,-8.04
19.125,-11.01
19.140,-12.43
19.156,-11.77
19.171,-8.93
19.187,-4.25
19.203,1.41
19.218,7.03
19.234,11.74
19.250,15.11
19.265,17.11
19.281,18.09
19.296,18.4
19.312,18.33
19.328,18.01
19.343,17.46
19.359,16.75
19.375,16.0
19.390,15.41
19.406,15.09
19.421,15.02
19.437,15.07
19.453,15.04
19.468,14.76
19.484,14.14
19.500,13.18
19.515,11.95
19.531,10.46
19.546,8.64
19.562,6.33
19.578,3.35
19.593,-0.23
19.609,-4.11
19.625,-7.64
19.640,-9.98
19.656,-10.42
19.671,-8.67
19.687,-4.9
19.703,0.25
19.718,5.97
19.734,11.5
19.750,16.23
19.765,19.73
19.781,21.71
19.796,22.03
19.812,20.81
19.828,18.42
19.843,15.46
19.859,12.53
19.875,10.08
19.890,8.28
19.906,7.07
19.921,6.25
19.937,5.6
19.953,5.0
19.968,4.37
19.984,3.67
20.000,2.92
20.015,2.19
20.031,1.6
20.046,1.17
20.062,0.82
20.078,0.26
20.093,-0.82
20.109,-2.56
20.125,-4.73
20.140,-6.75
20.156,-7.77
20.171,-7.08
20.187,-4.33
20.203,0.25
20.218,5.91
20.234,11.64
20.250,16.52
20.265,19.98
20.281,21.86
20.296,22.47
20.312,22.26
20.328,21.68
20.343,20.98
20.359,20.18
20.375,19.14
20.390,17.84
20.406,16.36
20.421,14.87
20.437,13.65
20.453,12.81
20.468,12.25
20.484,11.75
20.500,11.0
20.515,9.85
20.531,8.36
20.546,6.74
20.562,5.17
20.578,3.71
20.593,2.19
20.609,0.33
20.625,-2.05
20.640,-4.8
20.656,-7.46
20.671,-9.3
20.687,-9.67
20.703,-8.16
20.718,-4.84
20.734,-0.25
20.750,4.79
20.765,9.5
20.781,13.32
20.796,16.08
20.812,17.79
20.828,18.56
20.843,18.45
20.859,17.49
20.875,15.72
20.890,13.35
20.906,10.79
20.921,8.54
20.937,6.99
20.953,6.29
20.968,6.22
20.984,6.38
21.000,6.38
21.015,5.97
21.031,5.13
21.046,4.0
21.062,2.73
21.078,1.42
21.093,0.06
21.109,-1.4
21.125,-3.01
21.140,-4.78
21.156,-6.67
21.171,-8.58
21.187,-10.38
21.203,-11.81
21.218,-12.49
21.234,-12.08
21.250,-10.26
21.265,-7.05
21.281,-2.76
21.296,2.02
21.312,6.63
21.328,10.47
21.343,13.17
21.359,14.55
21.375,14.57
21.390,13.36
21.406,11.15
21.421,8.32
21.437,5.38
21.453,2.84
21.468,1.05
21.484,0.05
21.500,-0.22
21.515,-0.02
21.531,0.45
21.546,1.05
21.562,1.63
21.578,2.1
21.593,2.33
21.609,2.31
21.625,2.06
21.640,1.66
21.656,1.15
21.671,0.51
21.687,-0.35
21.703,-1.49
21.718,-2.87
21.734,-4.39
21.750,-5.93
21.765,-7.36
21.781,-8.45
21.796,-8.81
21.812,-7.9
21.828,-5.17
21.843,-0.37
21.859,6.29
21.875,14.06
21.890,21.89
21.906,28.76
21.921,33.97
21.937,37.31
21.953,38.9
21.968,39.15
21.984,38.46
22.000,37.26
22.015,35.9
22.031,34.63
22.046,33.52
22.062,32.35
22.078,30.53
22.093,27.24
22.109,21.77
22.125,13.85
22.140,4.0
22.156,-6.48
22.171,-15.87
22.187,-22.61
22.203,-25.81
22.218,-25.58
22.234,-22.86
22.250,-19.04
22.265,-15.44
22.281,-13.05
22.296,-12.34
22.312,-13.45
22.328,-16.21
22.343,-20.21
22.359,-24.86
22.375,-29.31
22.390,-32.62
22.406,-33.95
22.421,-32.86
22.437,-29.37
22.453,-24.07
22.468,-17.85
22.484,-11.65
22.500,-6.17
22.515,-1.74
22.531,1.68
22.546,4.31
22.562,6.39
22.578,8.1
22.593,9.53
22.609,10.67
22.625,11.6
22.640,12.33
22.656,12.88
22.671,13.1
22.687,12.79
22.703,11.69
22.718,9.78
22.734,7.22
22.750,4.41
22.765,1.87
22.781,-0.02
22.796,-1.0
22.812,-1.03
22.828,-0.21
22.843,1.22
22.859,2.96
22.875,4.57
22.890,5.6
22.906,5.72
22.921,4.84
22.937,3.26
22.953,1.55
22.968,0.38
22.984,0.23
23.000,1.27
23.015,3.27
23.031,5.78
23.046,8.35
23.062,10.58
23.078,12.29
23.093,13.39
23.109,13.82
23.125,13.57
23.140,12.68
23.156,11.26
23.171,9.48
23.187,7.63
23.203,5.91
23.218,4.55
23.234,3.7
23.250,3.37
23.265,3.49
23.281,3.87
23.296,4.24
23.312,4.32
23.328,3.99
23.343,3.17
23.359,2.06
23.375,0.9
23.390,-0.16
23.406,-1.05
23.421,-1.85
23.437,-2.7
23.453,-3.69
23.468,-4.79
23.484,-5.86
23.500,-6.67
23.515,-6.95
23.531,-6.58
23.546,-5.52
23.562,-3.88
23.578,-1.91
23.593,0.1
23.609,1.99
23.625,3.62
23.640,4.99
23.656,6.11
23.671,6.91
23.687,7.27
23.703,7.07
23.718,6.26
23.734,4.98
23.750,3.56
23.765,2.35
23.781,1.66
23.796,1.62
23.812,2.1
23.828,2.84
23.843,3.46
23.859,3.56
23.875,2.94
23.890,1.61
23.906,-0.2
23.921,-1.97
23.937,-3.23
23.953,-3.61
23.968,-3.03
23.984,-1.69
24.000,-0.04
24.015,1.46
24.031,2.45
24.046,2.72
24.062,2.35
24.078,1.56
24.093,0.75
24.109,0.33
24.125,0.69
24.140,1.97
24.156,4.07
24.171,6.63
24.187,9.07
24.203,10.88
24.218,11.7
24.234,11.49
24.250,10.45
24.265,8.92
24.281,7.23
24.296,5.65
24.312,4.36
24.328,3.46
24.343,3.1
24.359,3.3
24.375,4.04
24.390,5.1
24.406,6.12
24.421,6.7
24.437,6.53
24.453,5.59
24.468,4.13
24.484,2.62
24.500,1.54
24.515,1.2
24.531,1.58
24.546,2.39
24.562,3.21
24.578,3.65
24.593,3.52
24.609,2.78
24.625,1.62
24.640,0.43
24.656,-0.19
24.671,0.46
24.687,3.1
24.703,8.24
24.718,15.91
24.734,25.57
24.750,36.13
24.765,46.14
24.781,54.21
24.796,59.27
24.812,60.9
24.828,59.49
24.843,56.18
24.859,52.67
24.875,50.97
24.890,52.86
24.906,59.19
24.921,69.48
24.937,81.84
24.953,93.5
24.968,101.8
24.984,105.2
25.000,103.87
25.015,99.54
25.031,94.63
25.046,91.19
25.062,90.1
25.078,90.79
25.093,91.45
25.109,90.1
25.125,85.28
25.140,77.01
25.156,66.94
25.171,57.98
25.187,53.16
25.203,54.53
25.218,61.81
25.234,72.02
25.250,80.23
25.265,80.71
25.281,68.57
25.296,41.05
25.312,-1.19
25.328,-53.68
25.343,-108.41
25.359,-155.65
25.375,-186.59
25.390,-196.32
25.406,-185.76
25.421,-161.22
25.437,-131.87
25.453,-106.11
25.468,-88.55
25.484,-79.08
25.500,-74.41
25.515,-70.53
25.531,-64.97
25.546,-57.59
25.562,-49.76
25.578,-43.05
25.593,-38.58
25.609,-36.97
25.625,-38.79
25.640,-44.69
25.656,-54.98
25.671,-68.97
25.687,-84.69
25.703,-99.08
25.718,-108.85
25.734,-111.62
25.750,-106.52
25.765,-94.36
25.781,-77.12
25.796,-57.44
25.812,-37.78
25.828,-19.91
25.843,-4.6
25.859,8.27
25.875,19.43
25.890,29.54
25.906,38.62
25.921,46.02
25.937,50.72
25.953,51.91
25.968,49.61
25.984,44.64
26.000,38.32
26.015,31.78
26.031,25.62
26.046,19.72
26.062,13.55
26.078,6.6
26.093,-1.29
26.109,-9.73
26.125,-18.01
26.140,-25.19
26.156,-30.54
26.171,-33.53
26.187,-33.91
26.203,-31.55
26.218,-26.49
26.234,-18.97
26.250,-9.52
26.265,0.88
26.281,10.98
26.296,19.39
26.312,24.92
26.328,26.95
26.343,25.56
26.359,21.46
26.375,15.73
26.390,9.64
26.406,4.18
26.421,0.08
26.437,-2.33
26.453,-3.11
26.468,-2.42
26.484,-0.44
26.500,2.64
26.515,6.62
26.531,11.18
26.546,15.84
26.562,20.07
26.578,23.46
26.593,25.77
26.609,27.08
26.625,27.53
26.640,27.28
26.656,26.34
26.671,24.64
26.687,22.12
26.703,18.89
26.718,15.2
26.734,11.32
26.750,7.45
26.765,3.62
26.781,-0.23
26.796,-4.1
26.812,-7.74
26.828,-10.55
26.843,-11.74
26.859,-10.67
26.875,-7.14
26.890,-1.51
26.906,5.38
26.921,12.47
26.937,18.76
26.953,23.5
26.968,26.39
26.984,27.51
27.000,27.19
27.015,25.8
27.031,23.47
27.046,20.17
27.062,15.65
27.078,9.87
27.093,3.1
27.109,-3.9
27.125,-10.09
27.140,-14.45
27.156,-16.37
27.171,-15.89
27.187,-13.6
27.203,-10.35
27.218,-6.82
27.234,-3.45
27.250,-0.51
27.265,1.84
27.281,3.36
27.296,3.88
27.312,3.41
27.328,2.32
27.343,1.21
27.359,0.79
27.375,1.55
27.390,3.49
27.406,6.23
27.421,9.07
27.437,11.35
27.453,12.57
27.468,12.46
27.484,10.94
27.500,8.09
27.515,4.2
27.531,-0.15
27.546,-4.1
27.562,-6.8
27.578,-7.62
27.593,-6.46
27.609,-3.66
27.625,0.03
27.640,3.8
27.656,6.94
27.671,8.85
27.687,9.02
27.703,6.88
27.718,1.98
27.734,-5.85
27.750,-16.26
27.765,-28.23
27.781,-40.31
27.796,-50.94
27.812,-58.98
27.828,-63.94
27.843,-65.97
27.859,-65.7
27.875,-63.81
27.890,-60.81
27.906,-56.9
27.921,-52.08
27.937,-46.31
27.953,-39.67
27.968,-32.36
27.984,-24.79
28.000,-17.48
28.015,-10.95
28.031,-5.59
28.046,-1.62
28.062,0.98
28.078,2.39
28.093,2.91
28.109,2.92
28.125,2.78
28.140,2.78
28.156,3.06
28.171,3.51
28.187,3.72
28.203,3.08
28.218,1.02
28.234,-2.72
28.250,-7.91
28.265,-13.83
28.281,-19.52
28.296,-24.11
28.312,-27.06
28.328,-28.29
28.343,-28.02
28.359,-26.51
28.375,-24.04
28.390,-20.82
28.406,-17.17
28.421,-13.49
28.437,-10.3
28.453,-8.1
28.468,-7.15
28.484,-7.41
28.500,-8.46
28.515,-9.67
28.531,-10.37
28.546,-10.03
28.562,-8.4
28.578,-5.52
28.593,-1.68
28.609,2.81
28.625,7.59
28.640,12.41
28.656,16.99
28.671,21.04
28.687,24.22
28.703,26.11
28.718,26.44
28.734,25.16
28.750,22.5
28.765,18.83
28.781,14.49
28.796,9.62
28.812,4.16
28.828,-1.91
28.843,-8.29
28.859,-14.15
28.875,-18.38
28.890,-19.96
28.906,-18.59
28.921,-14.91
28.937,-10.42
28.953,-6.91
28.968,-5.67
28.984,-7.13
29.000,-10.75
29.015,-15.43
29.031,-20.01
29.046,-23.61
29.062,-25.7
29.078,-26.03
29.093,-24.53
29.109,-21.27
29.125,-16.49
29.140,-10.7
29.156,-4.56
29.171,1.29
29.187,6.43
29.203,10.71
29.218,14.19
29.234,16.94
29.250,19.03
29.265,20.51
29.281,21.54
29.296,22.33
29.312,23.17
29.328,24.2
29.343,25.41
29.359,26.65
29.375,27.76
29.390,28.7
29.406,29.54
29.421,30.5
29.437,31.69
29.453,33.18
29.468,34.83
29.484,36.39
29.500,37.59
29.515,38.01
29.531,37.07
29.546,34.04
29.562,28.25
29.578,19.41
29.593,7.96
29.609,-4.93
29.625,-17.6
29.640,-28.41
29.656,-36.26
29.671,-40.82
29.687,-42.47
29.703,-41.94
29.718,-39.95
29.734,-37.03
29.750,-33.54
29.765,-29.91
29.781,-26.58
29.796,-24.03
29.812,-22.56
29.828,-22.19
29.843,-22.73
29.859,-23.81
29.875,-25.06
29.890,-26.06
29.906,-26.45
29.921,-25.93
29.937,-24.45
29.953,-22.29
29.968,-19.96
29.984,-18.02
30.000,-16.77
30.015,-16.1
30.031,-15.56
30.046,-14.66
30.062,-13.09
30.078,-11.03
30.093,-8.87
30.109,-6.95
30.125,-5.36
30.140,-3.96
30.156,-2.56
30.171,-1.11
30.187,0.16
30.203,1.05
30.218,1.49
30.234,1.79
30.250,2.54
30.265,4.27
30.281,7.17
30.296,10.96
30.312,14.98
30.328,18.38
30.343,20.54
30.359,21.2
30.375,20.51
30.390,19.06
30.406,17.62
30.421,16.89
30.437,17.27
30.453,18.68
30.468,20.55
30.484,22.1
30.500,22.67
30.515,21.92
30.531,19.95
30.546,17.1
30.562,13.79
30.578,10.41
30.593,7.24
30.609,4.64
30.625,2.97
30.640,2.55
30.656,3.3
30.671,4.74
30.687,6.01
30.703,6.26
30.718,5.04
30.734,2.42
30.750,-1.08
30.765,-4.77
30.781,-8.04
30.796,-10.54
30.812,-12.09
30.828,-12.6
30.843,-11.9
30.859,-9.81
30.875,-6.35
30.890,-1.79
30.906,3.31
30.921,8.26
30.937,12.4
30.953,15.3
30.968,16.78
30.984,16.89
31.000,15.82
31.015,13.73
31.031,10.7
31.046,6.64
31.062,1.4
31.078,-5.17
31.093,-13.0
31.109,-21.7
31.125,-30.43
31.140,-38.06
31.156,-43.41
31.171,-45.59
31.187,-44.31
31.203,-39.98
31.218,-33.55
31.234,-26.22
31.250,-19.07
31.265,-12.85
31.281,-7.93
31.296,-4.36
31.312,-2.01
31.328,-0.69
31.343,-0.19
31.359,-0.21
31.375,-0.4
31.390,-0.46
31.406,-0.2
31.421,0.42
31.437,1.31
31.453,2.31
31.468,3.23
31.484,3.9
31.500,4.2
31.515,3.99
31.531,3.2
31.546,1.7
31.562,-0.6
31.578,-3.75
31.593,-7.67
31.609,-12.17
31.625,-16.9
31.640,-21.46
31.656,-25.47
31.671,-28.6
31.687,-30.75
31.703,-31.9
31.718,-32.17
31.734,-31.68
31.750,-30.52
31.765,-28.79
31.781,-26.65
31.796,-24.31
31.812,-22.06
31.828,-20.16
31.843,-18.76
31.859,-17.93
31.875,-17.54
31.890,-17.38
31.906,-17.25
31.921,-16.95
31.937,-16.35
31.953,-15.35
31.968,-13.92
31.984,-12.04
32.000,-9.75
32.015,-7.03
32.031,-3.94
32.046,-0.47
32.062,3.33
32.078,7.31
32.093,11.21
32.109,14.62
32.125,17.12
32.140,18.41
32.156,18.43
32.171,17.45
32.187,15.97
32.203,14.57
32.218,13.65
32.234,13.35
32.250,13.55
32.265,13.97
32.281,14.37
32.296,14.53
32.312,14.38
32.328,13.9
32.343,13.16
32.359,12.32
32.375,11.66
32.390,11.41
32.406,11.73
32.421,12.53
32.437,13.49
32.453,14.2
32.468,14.32
32.484,13.75
32.500,12.77
32.515,11.96
32.531,11.99
32.546,13.5
32.562,16.8
32.578,21.72
32.593,27.69
32.609,33.77
32.625,39.01
32.640,42.64
32.656,44.31
32.671,44.05
32.687,42.2
32.703,39.35
32.718,36.13
32.734,33.23
32.750,31.24
32.765,30.48
32.781,31.01
32.796,32.44
32.812,34.13
32.828,35.38
32.843,35.78
32.859,35.36
32.875,34.68
32.890,34.49
32.906,35.38
32.921,37.4
32.937,39.86
32.953,41.54
32.968,40.98
32.984,37.06
33.000,29.36
33.015,18.31
33.031,4.86
33.046,-9.7
33.062,-24.14
33.078,-37.45
33.093,-48.85
33.109,-57.72
33.125,-63.74
33.140,-66.97
33.156,-67.86
33.171,-67.21
33.187,-65.83
33.203,-64.34
33.218,-63.03
33.234,-61.9
33.250,-60.81
33.265,-59.77
33.281,-58.86
33.296,-58.17
33.312,-57.68
33.328,-57.12
33.343,-56.12
33.359,-54.34
33.375,-51.67
33.390,-48.24
33.406,-44.41
33.421,-40.59
33.437,-37.1
33.453,-34.12
33.468,-31.65
33.484,-29.62
33.500,-27.98
33.515,-26.74
33.531,-25.92
33.546,-25.53
33.562,-25.43
33.578,-25.39
33.593,-25.21
33.609,-24.77
33.625,-24.07
33.640,-23.21
33.656,-22.18
33.671,-20.8
33.687,-18.72
33.703,-15.63
33.718,-11.45
33.734,-6.47
33.750,-1.27
33.765,3.58
33.781,7.65
33.796,10.82
33.812,13.16
33.828,14.76
33.843,15.67
33.859,15.93
33.875,15.66
33.890,15.12
33.906,14.71
33.921,14.7
33.937,15.17
33.953,15.95
33.968,16.71
33.984,17.13
34.000,17.18
34.015,16.9
34.031,16.38
34.046,15.64
34.062,14.58
34.078,13.15
34.093,11.43
34.109,9.64
34.125,8.0
34.140,6.64
34.156,5.42
34.171,4.05
34.187,2.25
34.203,-0.03
34.218,-2.57
34.234,-4.87
34.250,-6.37
34.265,-6.56
34.281,-5.14
34.296,-2.17
34.312,2.02
34.328,6.86
34.343,11.73
34.359,16.09
34.375,19.66
34.390,22.41
34.406,24.47
34.421,25.94
34.437,26.76
34.453,26.77
34.468,25.91
34.484,24.3
34.500,22.3
34.515,20.39
34.531,18.88
34.546,17.82
34.562,17.03
34.578,16.29
34.593,15.54
34.609,14.92
34.625,14.58
34.640,14.59
34.656,14.68
34.671,14.53
34.687,13.77
34.703,12.34
34.718,10.32
34.734,7.95
34.750,5.38
34.765,2.6
34.781,-0.46
34.796,-3.8
34.812,-7.27
34.828,-10.57
34.843,-13.29
34.859,-15.16
34.875,-16.01
34.890,-15.85
34.906,-14.74
34.921,-12.75
34.937,-9.94
34.953,-6.41
34.968,-2.29
34.984,2.2
35.000,6.87
35.015,11.54
35.031,16.11
35.046,20.44
35.062,24.38
35.078,27.74
35.093,30.35
35.109,32.12
35.125,33.04
35.140,33.3
35.156,33.13
35.171,32.82
35.187,32.53
35.203,32.38
35.218,32.31
35.234,32.12
35.250,31.65
35.265,30.78
35.281,29.59
35.296,28.24
35.312,26.98
35.328,25.88
35.343,24.95
35.359,24.05
35.375,23.0
35.390,21.61
35.406,19.64
35.421,16.82
35.437,12.84
35.453,7.53
35.468,0.92
35.484,-6.58
35.500,-14.36
35.515,-21.59
35.531,-27.56
35.546,-31.75
35.562,-33.92
35.578,-34.11
35.593,-32.55
35.609,-29.64
35.625,-25.91
35.640,-22.04
35.656,-18.68
35.671,-16.41
35.687,-15.56
35.703,-16.17
35.718,-17.93
35.734,-20.3
35.750,-22.69
35.765,-24.6
35.781,-25.8
35.796,-26.25
35.812,-26.04
35.828,-25.3
35.843,-24.1
35.859,-22.5
35.875,-20.56
35.890,-18.45
35.906,-16.43
35.921,-14.78
35.937,-13.69
35.953,-13.21
35.968,-13.17
35.984,-13.32
36.000,-13.43
36.015,-13.4
36.031,-13.33
36.046,-13.4
36.062,-13.76
36.078,-14.3
36.093,-14.65
36.109,-14.35
36.125,-12.97
36.140,-10.4
36.156,-6.9
36.171,-2.99
36.187,0.77
36.203,3.97
36.218,6.49
36.234,8.38
36.250,9.8
36.265,10.88
36.281,11.68
36.296,12.2
36.312,12.43
36.328,12.4
36.343,12.25
36.359,12.15
36.375,12.27
36.390,12.73
36.406,13.51
36.421,14.43
36.437,15.21
36.453,15.56
36.468,15.34
36.484,14.55
36.500,13.38
36.515,12.09
36.531,10.9
36.546,9.95
36.562,9.29
36.578,8.93
36.593,8.89
36.609,9.2
36.625,9.81
36.640,10.68
36.656,11.63
36.671,12.48
36.687,13.12
36.703,13.54
36.718,13.87
36.734,14.32
36.750,15.09
36.765,16.24
36.781,17.71
36.796,19.31
36.812,20.85
36.828,22.21
36.843,23.37
36.859,24.45
36.875,25.5
36.890,26.52
36.906,27.38
36.921,27.91
36.937,28.0
36.953,27.63
36.968,26.99
36.984,26.29
37.000,25.92
37.015,26.12
37.031,26.97
37.046,28.19
37.062,29.17
37.078,29.13
37.093,27.37
37.109,23.63
37.125,18.19
37.140,11.83
37.156,5.5
37.171,-0.11
37.187,-4.8
37.203,-8.89
37.218,-12.99
37.234,-17.72
37.250,-23.31
37.265,-29.62
37.281,-36.12
37.296,-42.02
37.312,-46.58
37.328,-49.17
37.343,-49.43
37.359,-47.31
37.375,-43.0
37.390,-36.98
37.406,-29.84
37.421,-22.33
37.437,-15.24
37.453,-9.25
37.468,-4.82
37.484,-2.08
37.500,-0.78
37.515,-0.39
37.531,-0.39
37.546,-0.34
37.562,-0.07
37.578,0.41
37.593,1.01
37.609,1.61
37.625,2.13
37.640,2.44
37.656,2.39
37.671,1.76
37.687,0.48
37.703,-1.45
37.718,-3.87
37.734,-6.57
37.750,-9.34
37.765,-12.05
37.781,-14.6
37.796,-16.85
37.812,-18.68
37.828,-19.95
37.843,-20.64
37.859,-20.88
37.875,-20.85
37.890,-20.69
37.906,-20.44
37.921,-19.94
37.937,-18.93
37.953,-17.17
37.968,-14.58
37.984,-11.29
38.000,-7.69
38.015,-4.24
38.031,-1.38
38.046,0.6
38.062,1.65
38.078,1.88
38.093,1.52
38.109,0.78
38.125,-0.23
38.140,-1.47
38.156,-2.9
38.171,-4.36
38.187,-5.6
38.203,-6.27
38.218,-6.15
38.234,-5.15
38.250,-3.43
38.265,-1.28
38.281,0.96
38.296,3.05
38.312,4.81
38.328,6.12
38.343,6.91
38.359,7.09
38.375,6.63
38.390,5.6
38.406,4.17
38.421,2.59
38.437,1.03
38.453,-0.44
38.468,-1.83
38.484,-3.16
38.500,-4.38
38.515,-5.42
38.531,-6.18
38.546,-6.69
38.562,-7.03
38.578,-7.36
38.593,-7.78
38.609,-8.31
38.625,-8.77
38.640,-9.0
38.656,-8.91
38.671,-8.53
38.687,-7.99
38.703,-7.5
38.718,-7.23
38.734,-7.24
38.750,-7.53
38.765,-8.05
38.781,-8.8
38.796,-9.73
38.812,-10.83
38.828,-12.02
38.843,-13.17
38.859,-14.15
38.875,-14.89
38.890,-15.39
38.906,-15.76
38.921,-16.16
38.937,-16.73
38.953,-17.58
38.968,-18.76
38.984,-20.21
39.000,-21.78
39.015,-23.13
39.031,-23.86
39.046,-23.6
39.062,-22.07
39.078,-19.28
39.093,-15.52
39.109,-11.27
39.125,-7.04
39.140,-3.24
39.156,-0.07
39.171,2.43
39.187,4.34
39.203,5.73
39.218,6.57
39.234,6.81
39.250,6.45
39.265,5.64
39.281,4.68
39.296,3.95
39.312,3.69
39.328,3.94
39.343,4.53
39.359,5.13
39.375,5.44
39.390,5.38
39.406,5.01
39.421,4.48
39.437,3.95
39.453,3.46
39.468,2.97
39.484,2.42
39.500,1.75
39.515,0.9
39.531,-0.19
39.546,-1.59
39.562,-3.28
39.578,-5.09
39.593,-6.73
39.609,-7.76
39.625,-7.82
39.640,-6.74
39.656,-4.56
39.671,-1.61
39.687,1.69
39.703,4.91
39.718,7.76
39.734,10.08
39.750,11.79
39.765,12.93
39.781,13.5
39.796,13.57
39.812,13.25
39.828,12.67
39.843,11.95
39.859,11.2
39.875,10.54
39.890,9.99
39.906,9.53
39.921,9.08
39.937,8.5
39.953,7.74
39.968,6.78
39.984,5.68
40.000,4.61
40.015,3.69
40.031,2.94
40.046,2.23
40.062,1.35
40.078,0.14
40.093,-1.32
40.109,-2.76
40.125,-3.75
40.140,-3.92
40.156,-3.1
40.171,-1.35
40.187,1.13
40.203,4.08
40.218,7.3
40.234,10.66
40.250,14.04
40.265,17.36
40.281,20.44
40.296,23.11
40.312,25.14
40.328,26.36
40.343,26.66
40.359,26.05
40.375,24.66
40.390,22.73
40.406,20.59
40.421,18.5
40.437,16.65
40.453,15.06
40.468,13.71
40.484,12.48
40.500,11.31
40.515,10.11
40.531,8.82
40.546,7.42
40.562,5.88
40.578,4.22
40.593,2.5
40.609,0.72
40.625,-1.18
40.640,-3.19
40.656,-5.22
40.671,-7.04
40.687,-8.31
40.703,-8.77
40.718,-8.27
40.734,-6.88
40.750,-4.81
40.765,-2.31
40.781,0.44
40.796,3.32
40.812,6.26
40.828,9.11
40.843,11.66
40.859,13.68
40.875,14.99
40.890,15.52
40.906,15.34
40.921,14.61
40.937,13.56
40.953,12.43
40.968,11.5
40.984,10.96
41.000,10.92
41.015,11.24
41.031,11.58
41.046,11.51
41.062,10.71
41.078,9.08
41.093,6.84
41.109,4.44
41.125,2.3
41.140,0.68
41.156,-0.51
41.171,-1.63
41.187,-3.08
41.203,-5.09
41.218,-7.63
41.234,-10.36
41.250,-12.8
41.265,-14.48
41.281,-15.09
41.296,-14.6
41.312,-13.07
41.328,-10.71
41.343,-7.69
41.359,-4.23
41.375,-0.56
41.390,3.03
41.406,6.26
41.421,8.89
41.437,10.84
41.453,12.15
41.468,12.98
41.484,13.52
41.500,13.84
41.515,13.98
41.531,13.89
41.546,13.44
41.562,12.6
41.578,11.37
41.593,9.8
41.609,8.0
41.625,6.07
41.640,4.12
41.656,2.24
41.671,0.51
41.687,-1.03
41.703,-2.35
41.718,-3.48
41.734,-4.52
41.750,-5.63
41.765,-6.94
41.781,-8.54
41.796,-10.4
41.812,-12.35
41.828,-14.21
41.843,-15.69
41.859,-16.59
41.875,-16.74
41.890,-16.11
41.906,-14.64
41.921,-12.4
41.937,-9.45
41.953,-5.96
41.968,-2.21
41.984,1.51
42.000,4.88
42.015,7.69
42.031,9.81
42.046,11.27
42.062,12.22
42.078,12.83
42.093,13.27
42.109,13.55
42.125,13.61
42.140,13.35
42.156,12.72
42.171,11.74
42.187,10.58
42.203,9.42
42.218,8.4
42.234,7.47
42.250,6.5
42.265,5.33
42.281,3.95
42.296,2.55
42.312,1.42
42.328,0.81
42.343,0.77
42.359,1.07
42.375,1.28
42.390,0.94
42.406,-0.21
42.421,-2.12
42.437,-4.51
42.453,-6.88
42.468,-8.78
42.484,-9.85
42.500,-9.95
42.515,-9.08
42.531,-7.4
42.546,-5.1
42.562,-2.39
42.578,0.59
42.593,3.7
42.609,6.79
42.625,9.71
42.640,12.2
42.656,14.12
42.671,15.39
42.687,16.05
42.703,16.24
42.718,16.23
42.734,16.24
42.750,16.38
42.765,16.68
42.781,17.05
42.796,17.29
42.812,17.19
42.828,16.64
42.843,15.51
42.859,13.83
42.875,11.72
42.890,9.32
42.906,6.83
42.921,4.47
42.937,2.36
42.953,0.51
42.968,-1.16
42.984,-2.79
43.000,-4.42
43.015,-6.0
43.031,-7.42
43.046,-8.55
43.062,-9.38
43.078,-9.97
43.093,-10.44
43.109,-10.81
43.125,-10.99
43.140,-10.76
43.156,-9.93
43.171,-8.47
43.187,-6.46
43.203,-4.15
43.218,-1.77
43.234,0.54
43.250,2.73
43.265,4.73
43.281,6.49
43.296,7.91
43.312,8.85
43.328,9.3
43.343,9.29
43.359,8.96
43.375,8.6
43.390,8.46
43.406,8.65
43.421,9.14
43.437,9.82
43.453,10.41
43.468,10.76
43.484,10.75
43.500,10.42
43.515,9.85
43.531,9.12
43.546,8.27
43.562,7.23
43.578,6.0
43.593,4.59
43.609,3.07
43.625,1.54
43.640,0.08
43.656,-1.31
43.671,-2.67
43.687,-4.04
43.703,-5.53
43.718,-7.16
43.734,-8.9
43.750,-10.66
43.765,-12.27
43.781,-13.59
43.796,-14.48
43.812,-14.97
43.828,-15.05
43.843,-14.74
43.859,-13.95
43.875,-12.59
43.890,-10.56
43.906,-7.89
43.921,-4.79
43.937,-1.56
43.953,1.44
43.968,4.0
43.984,6.06
44.000,7.66
44.015,8.82
44.031,9.55
44.046,9.8
44.062,9.5
44.078,8.72
44.093,7.66
44.109,6.58
44.125,5.75
44.140,5.33
44.156,5.35
44.171,5.68
44.187,6.17
44.203,6.63
44.218,6.93
44.234,7.02
44.250,6.88
44.265,6.55
44.281,6.0
44.296,5.22
44.312,4.19
44.328,2.92
44.343,1.49
44.359,-0.03
44.375,-1.56
44.390,-3.01
44.406,-4.38
44.421,-5.7
44.437,-6.97
44.453,-8.21
44.468,-9.42
44.484,-10.62
44.500,-11.89
44.515,-13.27
44.531,-14.7
44.546,-16.02
44.562,-16.92
44.578,-17.08
44.593,-16.29
44.609,-14.55
44.625,-12.06
44.640,-9.17
44.656,-6.18
44.671,-3.27
44.687,-0.49
44.703,2.19
44.718,4.74
44.734,7.03
44.750,8.84
44.765,10.04
44.781,10.62
44.796,10.73
44.812,10.61
44.828,10.47
44.843,10.4
44.859,10.36
44.875,10.23
44.890,9.91
44.906,9.36
44.921,8.57
44.937,7.56
44.953,6.38
44.968,5.08
44.984,3.7
45.000,2.27
45.015,0.82
45.031,-0.59
45.046,-1.9
45.062,-3.04
45.078,-3.98
45.093,-4.74
45.109,-5.38
45.125,-5.99
45.140,-6.71
45.156,-7.58
45.171,-8.62
45.187,-9.81
45.203,-11.1
45.218,-12.44
45.234,-13.8
45.250,-15.18
45.265,-16.57
45.281,-17.93
45.296,-19.19
45.312,-20.17
45.328,-20.65
45.343,-20.33
45.359,-18.97
45.375,-16.52
45.390,-13.21
45.406,-9.45
45.421,-5.71
45.437,-2.37
45.453,0.41
45.468,2.71
45.484,4.67
45.500,6.44
45.515,7.98
45.531,9.21
45.546,10.0
45.562,10.37
45.578,10.32
45.593,9.9
45.609,9.09
45.625,7.88
45.640,6.23
45.656,4.25
45.671,2.14
45.687,0.16
45.703,-1.5
45.718,-2.72
45.734,-3.5
45.750,-3.89
45.765,-3.99
45.781,-3.84
45.796,-3.47
45.812,-2.88
45.828,-2.05
45.843,-1.1
45.859,-0.16
45.875,0.55
45.890,0.79
45.906,0.46
45.921,-0.4
45.937,-1.52
45.953,-2.53
45.968,-3.11
45.984,-3.07
46.000,-2.4
46.015,-1.24
46.031,0.22
46.046,1.87
46.062,3.76
46.078,6.13
46.093,9.31
46.109,13.6
46.125,19.14
46.140,25.73
46.156,32.76
46.171,39.36
46.187,44.67
46.203,48.11
46.218,49.63
46.234,49.58
46.250,48.59
46.265,47.29
46.281,46.25
46.296,45.91
46.312,46.58
46.328,48.41
46.343,51.08
46.359,53.73
46.375,55.13
46.390,53.96
46.406,49.43
46.421,41.47
46.437,30.83
46.453,18.7
46.468,6.33
46.484,-5.38
46.500,-15.9
46.515,-24.97
46.531,-32.41
46.546,-38.04
46.562,-41.79
46.578,-43.75
46.593,-44.23
46.609,-43.71
46.625,-42.72
46.640,-41.75
46.656,-41.06
46.671,-40.74
46.687,-40.58
46.703,-40.21
46.718,-39.2
46.734,-37.22
46.750,-34.24
46.765,-30.46
46.781,-26.21
46.796,-21.73
46.812,-17.01
46.828,-11.79
46.843,-5.79
46.859,1.09
46.875,8.59
46.890,16.07
46.906,22.89
46.921,28.58
46.937,33.01
46.953,36.3
46.968,38.65
46.984,40.2
47.000,41.07
47.015,41.28
47.031,40.87
47.046,39.96
47.062,38.61
47.078,36.85
47.093,34.61
47.109,31.84
47.125,28.57
47.140,25.02
47.156,21.55
47.171,18.49
47.187,16.08
47.203,14.25
47.218,12.67
47.234,10.79
47.250,8.07
47.265,4.2
47.281,-0.76
47.296,-6.36
47.312,-11.93
47.328,-16.81
47.343,-20.58
47.359,-23.05
47.375,-24.3
47.390,-24.62
47.406,-24.38
47.421,-23.95
47.437,-23.65
47.453,-23.62
47.468,-23.86
47.484,-24.24
47.500,-24.65
47.515,-25.1
47.531,-25.78
47.546,-26.91
47.562,-28.7
47.578,-31.12
47.593,-34.02
47.609,-37.16
47.625,-40.29
47.640,-43.24
47.656,-45.75
47.671,-47.53
47.687,-48.16
47.703,-47.34
47.718,-44.98
47.734,-41.35
47.750,-37.06
47.765,-32.79
47.781,-29.17
47.796,-26.5
47.812,-24.77
47.828,-23.69
47.843,-22.82
47.859,-21.68
47.875,-19.88
47.890,-17.2
47.906,-13.62
47.921,-9.45
47.937,-5.23
47.953,-1.62
47.968,0.79
47.984,1.7
48.000,1.08
48.015,-0.76
48.031,-3.45
48.046,-6.6
48.062,-9.87
48.078,-12.93
48.093,-15.41
48.109,-16.87
48.125,-16.98
48.140,-15.69
48.156,-13.32
48.171,-10.53
48.187,-8.06
48.203,-6.39
48.218,-5.64
48.234,-5.54
48.250,-5.65
48.265,-5.62
48.281,-5.34
48.296,-4.88
48.312,-4.44
48.328,-4.18
48.343,-4.1
48.359,-4.09
48.375,-4.0
48.390,-3.75
48.406,-3.38
48.421,-3.01
48.437,-2.79
48.453,-2.83
48.468,-3.12
48.484,-3.56
48.500,-4.05
48.515,-4.44
48.531,-4.64
48.546,-4.7
48.562,-4.71
48.578,-4.8
48.593,-5.14
48.609,-5.84
48.625,-6.93
48.640,-8.37
48.656,-9.99
48.671,-11.54
48.687,-12.71
48.703,-13.25
48.718,-12.95
48.734,-11.74
48.750,-9.71
48.765,-7.05
48.781,-4.0
48.796,-0.76
48.812,2.47
48.828,5.57
48.843,8.4
48.859,10.85
48.875,12.84
48.890,14.3
48.906,15.17
48.921,15.5
48.937,15.41
48.953,15.11
48.968,14.81
48.984,14.71
49.000,14.96
49.015,15.58
49.031,16.55
49.046,17.74
49.062,19.08
49.078,20.51
49.093,22.01
49.109,23.52
49.125,24.99
49.140,26.29
49.156,27.34
49.171,28.12
49.187,28.72
49.203,29.3
49.218,29.98
49.234,30.74
49.250,31.36
49.265,31.43
49.281,30.52
49.296,28.38
49.312,25.08
49.328,21.0
49.343,16.59
49.359,12.22
49.375,8.06
49.390,4.14
49.406,0.4
49.421,-3.15
49.437,-6.39
49.453,-9.2
49.468,-11.56
49.484,-13.52
49.500,-15.27
49.515,-16.9
49.531,-18.35
49.546,-19.43
49.562,-19.96
49.578,-19.97
49.593,-19.72
49.609,-19.66
49.625,-20.16
49.640,-21.35
49.656,-23.03
49.671,-24.78
49.687,-26.15
49.703,-26.92
49.718,-27.14
49.734,-27.07
49.750,-27.03
49.765,-27.21
49.781,-27.63
49.796,-28.21
49.812,-28.83
49.828,-29.41
49.843,-29.94
49.859,-30.43
49.875,-30.83
49.890,-31.06
49.906,-30.96
49.921,-30.32
49.937,-28.95
49.953,-26.73
49.968,-23.68
49.984,-20.01
50.000,-16.03
50.015,-12.07
50.031,-8.44
50.046,-5.3
50.062,-2.65
50.078,-0.44
50.093,1.39
50.109,2.84
50.125,3.87
50.140,4.46
50.156,4.64
50.171,4.44
50.187,3.95
50.203,3.22
50.218,2.29
50.234,1.23
50.250,0.22
50.265,-0.51
50.281,-0.7
50.296,-0.27
50.312,0.63
50.328,1.63
50.343,2.32
50.359,2.35
50.375,1.67
50.390,0.41
50.406,-1.13
50.421,-2.71
50.437,-4.25
50.453,-5.76
50.468,-7.31
50.484,-8.93
50.500,-10.54
50.515,-11.89
50.531,-12.69
50.546,-12.7
50.562,-11.81
50.578,-10.07
50.593,-7.66
50.609,-4.77
50.625,-1.66
50.640,1.46
50.656,4.44
50.671,7.09
50.687,9.23
50.703,10.68
50.718,11.34
50.734,11.2
50.750,10.49
50.765,9.48
50.781,8.57
50.796,8.03
50.812,8.01
50.828,8.48
50.843,9.32
50.859,10.32
50.875,11.33
50.890,12.24
50.906,13.0
50.921,13.67
50.937,14.25
50.953,14.81
50.968,15.36
50.984,15.82
51.000,16.07
51.015,15.96
51.031,15.37
51.046,14.29
51.062,12.88
51.078,11.44
51.093,10.32
51.109,9.86
51.125,10.22
51.140,11.31
51.156,12.87
51.171,14.5
51.187,15.85
51.203,16.69
51.218,17.01
51.234,16.85
51.250,16.38
51.265,15.72
51.281,14.97
51.296,14.17
51.312,13.38
51.328,12.64
51.343,11.94
51.359,11.2
51.375,10.32
51.390,9.21
51.406,7.78
51.421,6.07
51.437,4.08
51.453,1.95
51.468,-0.2
51.484,-2.25
51.500,-4.23
51.515,-6.21
51.531,-8.37
51.546,-10.82
51.562,-13.54
51.578,-16.37
51.593,-18.93
51.609,-20.88
51.625,-22.02
51.640,-22.34
51.656,-22.0
51.671,-21.16
51.687,-19.85
51.703,-17.99
51.718,-15.51
51.734,-12.48
51.750,-9.18
51.765,-6.01
51.781,-3.36
51.796,-1.39
51.812,-0.03
51.828,1.04
51.843,2.22
51.859,3.8
51.875,5.85
51.890,8.28
51.906,10.8
51.921,13.05
51.937,14.7
51.953,15.48
51.968,15.27
51.984,14.16
52.000,12.32
52.015,10.04
52.031,7.55
52.046,4.97
52.062,2.27
52.078,-0.7
52.093,-4.06
52.109,-7.83
52.125,-11.88
52.140,-15.84
52.156,-19.27
52.171,-21.68
52.187,-22.74
52.203,-22.3
52.218,-20.4
52.234,-17.28
52.250,-13.26
52.265,-8.72
52.281,-3.97
52.296,0.78
52.312,5.38
52.328,9.79
52.343,13.97
52.359,17.91
52.375,21.59
52.390,24.99
52.406,28.14
52.421,31.1
52.437,33.91
52.453,36.61
52.468,39.05
52.484,40.98
52.500,42.11
52.515,42.21
52.531,41.3
52.546,39.59
52.562,37.39
52.578,34.91
52.593,32.23
52.609,29.21
52.625,25.72
52.640,21.74
52.656,17.4
52.671,12.93
52.687,8.56
52.703,4.39
52.718,0.38
52.734,-3.5
52.750,-7.26
52.765,-10.81
52.781,-13.97
52.796,-16.58
52.812,-18.49
52.828,-19.66
52.843,-20.09
52.859,-19.83
52.875,-18.88
52.890,-17.31
52.906,-15.2
52.921,-12.71
52.937,-10.13
52.953,-7.76
52.968,-5.96
52.984,-5.02
53.000,-5.0
53.015,-5.74
53.031,-6.92
53.046,-8.11
53.062,-8.96
53.078,-9.37
53.093,-9.4
53.109,-9.33
53.125,-9.44
53.140,-9.98
53.156,-11.04
53.171,-12.54
53.187,-14.32
53.203,-16.12
53.218,-17.8
53.234,-19.28
53.250,-20.58
53.265,-21.82
53.281,-23.15
53.296,-24.71
53.312,-26.48
53.328,-28.34
53.343,-30.03
53.359,-31.17
53.375,-31.4
53.390,-30.39
53.406,-27.99
53.421,-24.22
53.437,-19.39
53.453,-13.93
53.468,-8.42
53.484,-3.32
53.500,1.01
53.515,4.41
53.531,6.94
53.546,8.76
53.562,10.16
53.578,11.46
53.593,12.95
53.609,14.73
53.625,16.79
53.640,18.94
53.656,20.94
53.671,22.62
53.687,23.92
53.703,24.89
53.718,25.6
53.734,26.06
53.750,26.22
53.765,26.11
53.781,25.91
53.796,26.01
53.812,26.84
53.828,28.66
53.843,31.39
53.859,34.54
53.875,37.49
53.890,39.66
53.906,40.78
53.921,40.89
53.937,40.33
53.953,39.5
53.968,38.63
53.984,37.72
54.000,36.61
54.015,35.13
54.031,33.28
54.046,31.27
54.062,29.45
54.078,28.15
54.093,27.58
54.109,27.68
54.125,28.17
54.140,28.7
54.156,28.89
54.171,28.53
54.187,27.54
54.203,25.87
54.218,23.46
54.234,20.22
54.250,16.03
54.265,10.77
54.281,4.42
54.296,-2.88
54.312,-10.84
54.328,-19.0
54.343,-26.91
54.359,-34.27
54.375,-40.95
54.390,-46.98
54.406,-52.46
54.421,-57.44
54.437,-61.87
54.453,-65.59
54.468,-68.38
54.484,-70.14
54.500,-70.87
54.515,-70.64
54.531,-69.48
54.546,-67.35
54.562,-64.12
54.578,-59.7
54.593,-54.17
54.609,-47.8
54.625,-41.07
54.640,-34.44
54.656,-28.25
54.671,-22.71
54.687,-17.83
54.703,-13.57
54.718,-9.95
54.734,-7.09
54.750,-5.08
54.765,-3.94
54.781,-3.47
54.796,-3.32
54.812,-3.2
54.828,-2.9
54.843,-2.41
54.859,-1.83
54.875,-1.28
54.890,-0.77
54.906,-0.22
54.921,0.47
54.937,1.29
54.953,2.11
54.968,2.75
54.984,3.0
55.000,2.77
55.015,2.09
55.031,1.09
55.046,-0.17
55.062,-1.6
55.078,-3.23
55.093,-5.06
55.109,-7.0
55.125,-8.92
55.140,-10.66
55.156,-12.03
55.171,-12.89
55.187,-13.11
55.203,-12.61
55.218,-11.34
55.234,-9.35
55.250,-6.73
55.265,-3.73
55.281,-0.65
55.296,2.17
55.312,4.5
55.328,6.22
55.343,7.37
55.359,8.07
55.375,8.49
55.390,8.76
55.406,8.92
55.421,9.01
55.437,9.01
55.453,8.97
55.468,8.95
55.484,8.97
55.500,8.9
55.515,8.6
55.531,7.92
55.546,6.81
55.562,5.43
55.578,4.08
55.593,3.06
55.609,2.55
55.625,2.4
55.640,2.34
55.656,1.99
55.671,1.1
55.687,-0.38
55.703,-2.22
55.718,-4.16
55.734,-5.9
55.750,-7.19
55.765,-7.91
55.781,-7.97
55.796,-7.33
55.812,-6.01
55.828,-4.11
55.843,-1.82
55.859,0.55
55.875,2.72
55.890,4.49
55.906,5.77
55.921,6.61
55.937,7.14
55.953,7.46
55.968,7.69
55.984,7.95
56.000,8.32
56.015,8.89
56.031,9.71
56.046,10.67
56.062,11.56
56.078,12.13
56.093,12.19
56.109,11.77
56.125,11.05
56.140,10.17
56.156,9.23
56.171,8.18
56.187,6.88
56.203,5.25
56.218,3.32
56.234,1.24
56.250,-0.86
56.265,-2.89
56.281,-4.93
56.296,-7.02
56.312,-9.2
56.328,-11.38
56.343,-13.39
56.359,-15.04
56.375,-16.14
56.390,-16.51
56.406,-16.01
56.421,-14.58
56.437,-12.28
56.453,-9.36
56.468,-6.15
56.484,-2.99
56.500,-0.08
56.515,2.48
56.531,4.74
56.546,6.7
56.562,8.35
56.578,9.63
56.593,10.54
56.609,11.15
56.625,11.57
56.640,11.88
56.656,12.07
56.671,12.08
56.687,11.84
56.703,11.32
56.718,10.59
56.734,9.81
56.750,9.12
56.765,8.62
56.781,8.35
56.796,8.21
56.812,8.03
56.828,7.58
56.843,6.63
56.859,4.96
56.875,2.49
56.890,-0.72
56.906,-4.53
56.921,-8.66
56.937,-12.82
56.953,-16.74
56.968,-20.11
56.984,-22.68
57.000,-24.22
57.015,-24.6
57.031,-23.87
57.046,-22.23
57.062,-19.92
57.078,-17.23
57.093,-14.33
57.109,-11.32
57.125,-8.24
57.140,-5.09
57.156,-1.94
57.171,1.12
57.187,3.99
57.203,6.61
57.218,8.98
57.234,11.13
57.250,13.12
57.265,14.94
57.281,16.58
57.296,18.02
57.312,19.25
57.328,20.23
57.343,20.88
57.359,21.05
57.375,20.62
57.390,19.55
57.406,17.91
57.421,15.93
57.437,13.87
57.453,11.97
57.468,10.37
57.484,9.02
57.500,7.79
57.515,6.55
57.531,5.19
57.546,3.57
57.562,1.57
57.578,-0.88
57.593,-3.81
57.609,-7.05
57.625,-10.21
57.640,-12.8
57.656,-14.4
57.671,-14.79
57.687,-14.03
57.703,-12.41
57.718,-10.27
57.734,-7.82
57.750,-5.14
57.765,-2.19
57.781,1.05
57.796,4.45
57.812,7.71
57.828,10.56
57.843,12.73
57.859,14.15
57.875,14.86
57.890,15.02
57.906,14.79
57.921,14.35
57.937,13.85
57.953,13.33
57.968,12.83
57.984,12.28
58.000,11.59
58.015,10.66
58.031,9.52
58.046,8.18
58.062,6.72
58.078,5.23
58.093,3.77
58.109,2.35
58.125,0.99
58.140,-0.32
58.156,-1.58
58.171,-2.79
58.187,-3.92
58.203,-4.97
58.218,-5.92
58.234,-6.75
58.250,-7.46
58.265,-8.14
58.281,-8.91
58.296,-9.92
58.312,-11.24
58.328,-12.82
58.343,-14.48
58.359,-15.89
58.375,-16.73
58.390,-16.71
58.406,-15.71
58.421,-13.69
58.437,-10.76
58.453,-7.1
58.468,-3.03
58.484,1.14
58.500,5.08
58.515,8.49
58.531,11.22
58.546,13.21
58.562,14.5
58.578,15.16
58.593,15.34
58.609,15.13
58.625,14.66
58.640,14.15
58.656,13.74
58.671,13.55
58.687,13.61
58.703,13.87
58.718,14.2
58.734,14.47
58.750,14.6
58.765,14.46
58.781,14.01
58.796,13.23
58.812,12.2
58.828,11.07
58.843,9.97
58.859,9.03
58.875,8.21
58.890,7.41
58.906,6.41
58.921,5.06
58.937,3.31
58.953,1.32
58.968,-0.73
58.984,-2.65
59.000,-4.44
59.015,-6.16
59.031,-7.87
59.046,-9.51
59.062,-10.82
59.078,-11.46
59.093,-11.16
59.109,-9.84
59.125,-7.72
59.140,-5.1
59.156,-2.28
59.171,0.61
59.187,3.57
59.203,6.63
59.218,9.71
59.234,12.61
59.250,15.12
59.265,17.08
59.281,18.54
59.296,19.67
59.312,20.73
59.328,21.85
59.343,23.02
59.359,24.13
59.375,24.97
59.390,25.37
59.406,25.2
59.421,24.52
59.437,23.46
59.453,22.25
59.468,21.01
59.484,19.77
59.500,18.38
59.515,16.58
59.531,14.22
59.546,11.29
59.562,8.02
59.578,4.77
59.593,1.83
59.609,-0.74
59.625,-3.08
59.640,-5.46
59.656,-8.1
59.671,-11.02
59.687,-14.12
59.703,-17.21
59.718,-20.19
59.734,-22.97
59.750,-25.51
59.765,-27.67
59.781,-29.25
59.796,-30.05
59.812,-29.9
59.828,-28.77
59.843,-26.77
59.859,-24.04
59.875,-20.7
59.890,-16.91
59.906,-12.86
59.921,-8.8
59.937,-5.0
59.953,-1.62
59.968,1.26
59.984,3.69
