timestamp,value
00.000,37.09
00.015,33.4
00.031,29.2
00.046,24.59
00.062,19.75
00.078,14.94
00.093,10.35
00.109,5.97
00.125,1.55
00.140,-3.15
00.156,-8.21
00.171,-13.46
00.187,-18.44
00.203,-22.67
00.218,-25.86
00.234,-28.04
00.250,-29.51
00.265,-30.79
00.281,-32.36
00.296,-34.46
00.312,-37.1
00.328,-39.89
00.343,-42.22
00.359,-43.3
00.375,-42.39
00.390,-38.99
00.406,-32.97
00.421,-24.69
00.437,-14.82
00.453,-4.31
00.468,5.97
00.484,15.25
00.500,22.97
00.515,28.84
00.531,32.75
00.546,34.84
00.562,35.4
00.578,34.84
00.593,33.59
00.609,32.08
00.625,30.55
00.640,29.09
00.656,27.64
00.671,26.02
00.687,24.06
00.703,21.65
00.718,18.78
00.734,15.52
00.750,12.05
00.765,8.57
00.781,5.24
00.796,2.17
00.812,-0.63
00.828,-3.15
00.843,-5.45
00.859,-7.5
00.875,-9.35
00.890,-11.08
00.906,-12.88
00.921,-14.94
00.937,-17.33
00.953,-20.04
00.968,-22.88
00.984,-25.62
01.000,-28.11
01.015,-30.38
01.031,-32.57
01.046,-34.9
01.062,-37.46
01.078,-40.2
01.093,-43.03
01.109,-45.72
01.125,-48.01
01.140,-49.52
01.156,-49.76
01.171,-48.21
01.187,-44.51
01.203,-38.74
01.218,-31.39
01.234,-23.32
01.250,-15.36
01.265,-8.13
01.281,-1.85
01.296,3.54
01.312,8.12
01.328,11.89
01.343,14.64
01.359,16.21
01.375,16.54
01.390,15.89
01.406,14.68
01.421,13.47
01.437,12.74
01.453,12.72
01.468,13.38
01.484,14.45
01.500,15.55
01.515,16.24
01.531,16.23
01.546,15.38
01.562,13.76
01.578,11.64
01.593,9.33
01.609,7.13
01.625,5.16
01.640,3.38
01.656,1.52
01.671,-0.78
01.687,-3.81
01.703,-7.68
01.718,-12.24
01.734,-17.16
01.750,-22.0
01.765,-26.38
01.781,-30.13
01.796,-33.26
01.812,-35.95
01.828,-38.49
01.843,-41.18
01.859,-44.24
01.875,-47.66
01.890,-51.12
01.906,-53.95
01.921,-55.26
01.937,-54.2
01.953,-50.26
01.968,-43.48
01.984,-34.53
02.000,-24.47
02.015,-14.47
02.031,-5.42
02.046,2.22
02.062,8.44
02.078,13.52
02.093,17.75
02.109,21.31
02.125,24.23
02.140,26.41
02.156,27.8
02.171,28.46
02.187,28.64
02.203,28.61
02.218,28.67
02.234,28.96
02.250,29.48
02.265,30.11
02.281,30.77
02.296,31.38
02.312,31.93
02.328,32.41
02.343,32.72
02.359,32.73
02.375,32.3
02.390,31.32
02.406,29.87
02.421,28.14
02.437,26.37
02.453,24.7
02.468,23.1
02.484,21.39
02.500,19.33
02.515,16.78
02.531,13.78
02.546,10.59
02.562,7.5
02.578,4.78
02.593,2.51
02.609,0.55
02.625,-1.39
02.640,-3.63
02.656,-6.48
02.671,-10.01
02.687,-14.01
02.703,-18.06
02.718,-21.52
02.734,-23.76
02.750,-24.28
02.765,-22.89
02.781,-19.71
02.796,-15.13
02.812,-9.66
02.828,-3.79
02.843,2.1
02.859,7.72
02.875,12.91
02.890,17.54
02.906,21.56
02.921,24.97
02.937,27.79
02.953,29.96
02.968,31.35
02.984,31.84
03.000,31.38
03.015,30.12
03.031,28.4
03.046,26.67
03.062,25.31
03.078,24.52
03.093,24.3
03.109,24.41
03.125,24.58
03.140,24.59
03.156,24.29
03.171,23.62
03.187,22.61
03.203,21.25
03.218,19.57
03.234,17.63
03.250,15.51
03.265,13.38
03.281,11.38
03.296,9.62
03.312,8.03
03.328,6.47
03.343,4.71
03.359,2.5
03.375,-0.18
03.390,-3.27
03.406,-6.49
03.421,-9.6
03.437,-12.42
03.453,-14.99
03.468,-17.42
03.484,-19.91
03.500,-22.65
03.515,-25.68
03.531,-28.87
03.546,-31.94
03.562,-34.41
03.578,-35.83
03.593,-35.74
03.609,-33.93
03.625,-30.43
03.640,-25.55
03.656,-19.75
03.671,-13.53
03.687,-7.33
03.703,-1.44
03.718,3.95
03.734,8.68
03.750,12.66
03.765,15.77
03.781,17.99
03.796,19.38
03.812,20.09
03.828,20.34
03.843,20.34
03.859,20.25
03.875,20.21
03.890,20.26
03.906,20.37
03.921,20.5
03.937,20.57
03.953,20.51
03.968,20.27
03.984,19.83
04.000,19.21
04.015,18.41
04.031,17.44
04.046,16.21
04.062,14.64
04.078,12.6
04.093,10.04
04.109,7.05
04.125,3.84
04.140,0.72
04.156,-2.03
04.171,-4.23
04.187,-5.93
04.203,-7.39
04.218,-8.97
04.234,-10.95
04.250,-13.38
04.265,-16.06
04.281,-18.64
04.296,-20.8
04.312,-22.43
04.328,-23.69
04.343,-24.93
04.359,-26.47
04.375,-28.53
04.390,-31.06
04.406,-33.82
04.421,-36.43
04.437,-38.44
04.453,-39.43
04.468,-39.03
04.484,-37.02
04.500,-33.34
04.515,-28.18
04.531,-21.96
04.546,-15.23
04.562,-8.58
04.578,-2.51
04.593,2.59
04.609,6.56
04.625,9.36
04.640,11.14
04.656,12.18
04.671,12.8
04.687,13.31
04.703,13.87
04.718,14.57
04.734,15.3
04.750,15.93
04.765,16.26
04.781,16.19
04.796,15.76
04.812,15.07
04.828,14.3
04.843,13.64
04.859,13.19
04.875,12.92
04.890,12.71
04.906,12.39
04.921,11.81
04.937,10.95
04.953,9.9
04.968,8.81
04.984,7.84
05.000,7.02
05.015,6.28
05.031,5.4
05.046,4.2
05.062,2.56
05.078,0.59
05.093,-1.58
05.109,-3.73
05.125,-5.82
05.140,-7.94
05.156,-10.23
05.171,-12.74
05.187,-15.31
05.203,-17.7
05.218,-19.68
05.234,-21.16
05.250,-22.1
05.265,-22.47
05.281,-22.09
05.296,-20.69
05.312,-18.0
05.328,-13.99
05.343,-8.96
05.359,-3.42
05.375,2.08
05.390,7.16
05.406,11.71
05.421,15.8
05.437,19.47
05.453,22.68
05.468,25.23
05.484,26.93
05.500,27.68
05.515,27.62
05.531,27.01
05.546,26.22
05.562,25.54
05.578,25.1
05.593,24.76
05.609,24.29
05.625,23.46
05.640,22.19
05.656,20.63
05.671,19.05
05.687,17.73
05.703,16.72
05.718,15.91
05.734,15.0
05.750,13.78
05.765,12.17
05.781,10.26
05.796,8.27
05.812,6.33
05.828,4.48
05.843,2.6
05.859,0.59
05.875,-1.59
05.890,-3.89
05.906,-6.19
05.921,-8.37
05.937,-10.33
05.953,-12.11
05.968,-13.81
05.984,-15.67
06.000,-17.94
06.015,-20.73
06.031,-23.97
06.046,-27.33
06.062,-30.18
06.078,-31.8
06.093,-31.61
06.109,-29.35
06.125,-25.22
06.140,-19.75
06.156,-13.64
06.171,-7.53
06.187,-1.9
06.203,3.0
06.218,7.08
06.234,10.32
06.250,12.84
06.265,14.77
06.281,16.23
06.296,17.31
06.312,17.99
06.328,18.25
06.343,18.09
06.359,17.55
06.375,16.78
06.390,16.02
06.406,15.44
06.421,15.11
06.437,14.99
06.453,14.9
06.468,14.69
06.484,14.2
06.500,13.41
06.515,12.31
06.531,11.0
06.546,9.53
06.562,7.95
06.578,6.28
06.593,4.54
06.609,2.8
06.625,1.15
06.640,-0.37
06.656,-1.83
06.671,-3.33
06.687,-5.03
06.703,-6.98
06.718,-9.14
06.734,-11.35
06.750,-13.46
06.765,-15.41
06.781,-17.25
06.796,-19.15
06.812,-21.26
06.828,-23.69
06.843,-26.35
06.859,-29.08
06.875,-31.53
06.890,-33.23
06.906,-33.75
06.921,-32.68
06.937,-29.84
06.953,-25.32
06.968,-19.44
06.984,-12.8
07.000,-6.02
07.015,0.3
07.031,5.78
07.046,10.21
07.062,13.65
07.078,16.23
07.093,18.13
07.109,19.56
07.125,20.67
07.140,21.57
07.156,22.27
07.171,22.71
07.187,22.81
07.203,22.5
07.218,21.76
07.234,20.7
07.250,19.48
07.265,18.21
07.281,16.95
07.296,15.71
07.312,14.45
07.328,13.2
07.343,12.01
07.359,10.86
07.375,9.64
07.390,8.26
07.406,6.6
07.421,4.67
07.437,2.62
07.453,0.69
07.468,-0.93
07.484,-2.21
07.500,-3.36
07.515,-4.67
07.531,-6.33
07.546,-8.37
07.562,-10.65
07.578,-12.93
07.593,-15.06
07.609,-17.07
07.625,-19.08
07.640,-21.27
07.656,-23.79
07.671,-26.62
07.687,-29.56
07.703,-32.31
07.718,-34.42
07.734,-35.45
07.750,-35.07
07.765,-33.03
07.781,-29.4
07.796,-24.47
07.812,-18.69
07.828,-12.54
07.843,-6.44
07.859,-0.62
07.875,4.71
07.890,9.44
07.906,13.45
07.921,16.65
07.937,18.96
07.953,20.39
07.968,21.02
07.984,21.01
08.000,20.63
08.015,20.1
08.031,19.6
08.046,19.18
08.062,18.76
08.078,18.21
08.093,17.46
08.109,16.51
08.125,15.46
08.140,14.41
08.156,13.34
08.171,12.07
08.187,10.46
08.203,8.46
08.218,6.23
08.234,4.06
08.250,2.14
08.265,0.57
08.281,-0.76
08.296,-1.99
08.312,-3.29
08.328,-4.71
08.343,-6.26
08.359,-7.93
08.375,-9.72
08.390,-11.69
08.406,-13.87
08.421,-16.26
08.437,-18.8
08.453,-21.38
08.468,-23.96
08.484,-26.54
08.500,-29.17
08.515,-31.85
08.531,-34.6
08.546,-37.24
08.562,-39.51
08.578,-41.02
08.593,-41.31
08.609,-39.99
08.625,-36.97
08.640,-32.44
08.656,-26.85
08.671,-20.78
08.687,-14.7
08.703,-8.93
08.718,-3.61
08.734,1.21
08.750,5.45
08.765,9.0
08.781,11.73
08.796,13.58
08.812,14.67
08.828,15.27
08.843,15.62
08.859,15.9
08.875,16.11
08.890,16.07
08.906,15.65
08.921,14.86
08.937,13.86
08.953,12.91
08.968,12.21
08.984,11.76
09.000,11.4
09.015,10.9
09.031,10.15
09.046,9.15
09.062,8.06
09.078,7.01
09.093,5.98
09.109,4.87
09.125,3.44
09.140,1.62
09.156,-0.52
09.171,-2.73
09.187,-4.78
09.203,-6.51
09.218,-7.94
09.234,-9.24
09.250,-10.62
09.265,-12.28
09.281,-14.28
09.296,-16.58
09.312,-18.99
09.328,-21.33
09.343,-23.36
09.359,-24.82
09.375,-25.41
09.390,-24.78
09.406,-22.72
09.421,-19.15
09.437,-14.33
09.453,-8.73
09.468,-2.91
09.484,2.66
09.500,7.67
09.515,12.05
09.531,15.81
09.546,18.86
09.562,21.08
09.578,22.31
09.593,22.57
09.609,22.1
09.625,21.37
09.640,20.78
09.656,20.63
09.671,20.91
09.687,21.4
09.703,21.85
09.718,22.09
09.734,22.09
09.750,21.88
09.765,21.49
09.781,20.86
09.796,19.93
09.812,18.69
09.828,17.21
09.843,15.64
09.859,14.08
09.875,12.56
09.890,11.01
09.906,9.33
09.921,7.45
09.937,5.41
09.953,3.26
09.968,1.11
09.984,-0.96
10.000,-2.93
10.015,-4.8
10.031,-6.64
10.046,-8.55
10.062,-10.67
10.078,-13.09
10.093,-15.81
10.109,-18.74
10.125,-21.61
10.140,-24.16
10.156,-26.05
10.171,-26.92
10.187,-26.45
10.203,-24.41
10.218,-20.69
10.234,-15.54
10.250,-9.5
10.265,-3.23
10.281,2.56
10.296,7.47
10.312,11.48
10.328,14.81
10.343,17.77
10.359,20.47
10.375,22.82
10.390,24.58
10.406,25.54
10.421,25.64
10.437,25.06
10.453,24.05
10.468,22.92
10.484,21.89
10.500,21.08
10.515,20.52
10.531,20.13
10.546,19.79
10.562,19.31
10.578,18.56
10.593,17.45
10.609,15.98
10.625,14.27
10.640,12.47
10.656,10.67
10.671,8.94
10.687,7.26
10.703,5.55
10.718,3.72
10.734,1.68
10.750,-0.56
10.765,-2.92
10.781,-5.26
10.796,-7.43
10.812,-9.34
10.828,-11.03
10.843,-12.62
10.859,-14.3
10.875,-16.28
10.890,-18.72
10.906,-21.65
10.921,-24.95
10.937,-28.29
10.953,-31.15
10.968,-32.94
10.984,-33.17
11.000,-31.56
11.015,-28.23
11.031,-23.58
11.046,-18.14
11.062,-12.4
11.078,-6.65
11.093,-1.05
11.109,4.35
11.125,9.43
11.140,14.02
11.156,17.91
11.171,20.91
11.187,22.99
11.203,24.22
11.218,24.77
11.234,24.87
11.250,24.71
11.265,24.45
11.281,24.19
11.296,23.9
11.312,23.47
11.328,22.79
11.343,21.8
11.359,20.58
11.375,19.25
11.390,17.93
11.406,16.6
11.421,15.12
11.437,13.29
11.453,10.96
11.468,8.2
11.484,5.22
11.500,2.37
11.515,-0.13
11.531,-2.21
11.546,-4.01
11.562,-5.75
11.578,-7.56
11.593,-9.51
11.609,-11.51
11.625,-13.47
11.640,-15.3
11.656,-17.01
11.671,-18.63
11.687,-20.26
11.703,-22.04
11.718,-24.13
11.734,-26.7
11.750,-29.82
11.765,-33.39
11.781,-37.05
11.796,-40.23
11.812,-42.36
11.828,-42.93
11.843,-41.7
11.859,-38.73
11.875,-34.35
11.890,-29.08
11.906,-23.46
11.921,-17.94
11.937,-12.78
11.953,-8.01
11.968,-3.56
11.984,0.65
12.000,4.58
12.015,7.99
12.031,10.53
12.046,11.98
12.062,12.36
12.078,12.02
12.093,11.42
12.109,10.97
12.125,10.83
12.140,10.89
12.156,10.94
12.171,10.78
12.187,10.4
12.203,9.95
12.218,9.6
12.234,9.4
12.250,9.22
12.265,8.8
12.281,7.86
12.296,6.29
12.312,4.21
12.328,1.96
12.343,-0.08
12.359,-1.66
12.375,-2.76
12.390,-3.58
12.406,-4.44
12.421,-5.58
12.437,-7.05
12.453,-8.76
12.468,-10.51
12.484,-12.15
12.500,-13.68
12.515,-15.19
12.531,-16.76
12.546,-18.38
12.562,-19.97
12.578,-21.35
12.593,-22.44
12.609,-23.26
12.625,-23.9
12.640,-24.38
12.656,-24.58
12.671,-24.23
12.687,-23.0
12.703,-20.61
12.718,-16.99
12.734,-12.35
12.750,-7.08
12.765,-1.78
12.781,3.08
12.796,7.15
12.812,10.33
12.828,12.71
12.843,14.48
12.859,15.83
12.875,16.86
12.890,17.61
12.906,18.06
12.921,18.25
12.937,18.27
12.953,18.25
12.968,18.25
12.984,18.31
13.000,18.4
13.015,18.46
13.031,18.5
13.046,18.5
13.062,18.47
13.078,18.36
13.093,18.17
13.109,17.85
13.125,17.3
13.140,16.41
13.156,15.08
13.171,13.27
13.187,11.14
13.203,8.93
13.218,6.93
13.234,5.25
13.250,3.85
13.265,2.45
13.281,0.76
13.296,-1.37
13.312,-3.85
13.328,-6.4
13.343,-8.77
13.359,-10.84
13.375,-12.7
13.390,-14.59
13.406,-16.69
13.421,-19.01
13.437,-21.29
13.453,-23.11
13.468,-23.99
13.484,-23.59
13.500,-21.82
13.515,-18.77
13.531,-14.67
13.546,-9.82
13.562,-4.54
13.578,0.86
13.593,6.05
13.609,10.75
13.625,14.79
13.640,18.06
13.656,20.55
13.671,22.33
13.687,23.45
13.703,23.96
13.718,23.99
13.734,23.71
13.750,23.39
13.765,23.22
13.781,23.26
13.796,23.41
13.812,23.41
13.828,23.01
13.843,22.08
13.859,20.67
13.875,19.03
13.890,17.44
13.906,16.01
13.921,14.71
13.937,13.33
13.953,11.72
13.968,9.86
13.984,7.89
14.000,6.05
14.015,4.46
14.031,3.09
14.046,1.71
14.062,0.06
14.078,-2.0
14.093,-4.4
14.109,-6.88
14.125,-9.17
14.140,-11.11
14.156,-12.74
14.171,-14.25
14.187,-15.92
14.203,-18.04
14.218,-20.76
14.234,-24.11
14.250,-27.85
14.265,-31.46
14.281,-34.22
14.296,-35.39
14.312,-34.45
14.328,-31.33
14.343,-26.39
14.359,-20.33
14.375,-13.92
14.390,-7.68
14.406,-1.89
14.421,3.43
14.437,8.25
14.453,12.46
14.468,15.87
14.484,18.34
14.500,19.9
14.515,20.73
14.531,21.08
14.546,21.18
14.562,21.13
14.578,20.95
14.593,20.63
14.609,20.17
14.625,19.67
14.640,19.21
14.656,18.75
14.671,18.21
14.687,17.53
14.703,16.7
14.718,15.84
14.734,15.03
14.750,14.31
14.765,13.59
14.781,12.74
14.796,11.59
14.812,10.11
14.828,8.38
14.843,6.56
14.859,4.81
14.875,3.21
14.890,1.72
14.906,0.16
14.921,-1.68
14.937,-3.97
14.953,-6.68
14.968,-9.62
14.984,-12.53
15.000,-15.12
15.015,-17.25
15.031,-18.99
15.046,-20.47
15.062,-21.97
15.078,-23.68
15.093,-25.76
15.109,-28.29
15.125,-31.24
15.140,-34.42
15.156,-37.42
15.171,-39.68
15.187,-40.51
15.203,-39.4
15.218,-36.18
15.234,-31.13
15.250,-24.84
15.265,-18.05
15.281,-11.39
15.296,-5.27
15.312,0.14
15.328,4.86
15.343,8.91
15.359,12.31
15.375,15.03
15.390,17.09
15.406,18.61
15.421,19.68
15.437,20.5
15.453,21.13
15.468,21.63
15.484,21.93
15.500,21.93
15.515,21.47
15.531,20.5
15.546,19.07
15.562,17.41
15.578,15.86
15.593,14.71
15.609,14.1
15.625,13.94
15.640,13.84
15.656,13.4
15.671,12.33
15.687,10.63
15.703,8.54
15.718,6.38
15.734,4.35
15.750,2.39
15.765,0.3
15.781,-2.16
15.796,-5.06
15.812,-8.22
15.828,-11.37
15.843,-14.24
15.859,-16.74
15.875,-18.89
15.890,-20.83
15.906,-22.63
15.921,-24.24
15.937,-25.67
15.953,-26.94
15.968,-28.27
15.984,-29.94
16.000,-32.1
16.015,-34.72
16.031,-37.51
16.046,-39.98
16.062,-41.61
16.078,-42.01
16.093,-40.96
16.109,-38.45
16.125,-34.61
16.140,-29.68
16.156,-23.96
16.171,-17.83
16.187,-11.64
16.203,-5.75
16.218,-0.42
16.234,4.15
16.250,7.84
16.265,10.56
16.281,12.34
16.296,13.22
16.312,13.4
16.328,13.16
16.343,12.84
16.359,12.67
16.375,12.75
16.390,13.03
16.406,13.29
16.421,13.37
16.437,13.15
16.453,12.65
16.468,12.0
16.484,11.37
16.500,10.84
16.515,10.38
16.531,9.89
16.546,9.28
16.562,8.49
16.578,7.57
16.593,6.64
16.609,5.82
16.625,5.23
16.640,4.81
16.656,4.38
16.671,3.69
16.687,2.53
16.703,0.85
16.718,-1.18
16.734,-3.28
16.750,-5.15
16.765,-6.61
16.781,-7.7
16.796,-8.6
16.812,-9.52
16.828,-10.69
16.843,-12.18
16.859,-13.91
16.875,-15.78
16.890,-17.54
16.906,-18.91
16.921,-19.51
16.937,-18.95
16.953,-16.9
16.968,-13.26
16.984,-8.23
17.000,-2.27
17.015,4.0
17.031,10.06
17.046,15.58
17.062,20.49
17.078,24.86
17.093,28.74
17.109,32.09
17.125,34.77
17.140,36.75
17.156,38.07
17.171,38.97
17.187,39.81
17.203,40.93
17.218,42.51
17.234,44.53
17.250,46.75
17.265,48.84
17.281,50.53
17.296,51.72
17.312,52.56
17.328,53.45
17.343,54.87
17.359,57.18
17.375,60.49
17.390,64.55
17.406,68.83
17.421,72.78
17.437,76.04
17.453,78.64
17.468,81.06
17.484,84.03
17.500,88.27
17.515,94.17
17.531,101.58
17.546,109.82
17.562,117.85
17.578,124.56
17.593,129.23
17.609,131.76
17.625,132.73
17.640,133.41
17.656,135.34
17.671,139.57
17.687,146.02
17.703,152.97
17.718,157.23
17.734,154.94
17.750,143.01
17.765,120.3
17.781,88.37
17.796,51.26
17.812,14.28
17.828,-17.29
17.843,-39.52
17.859,-50.65
17.875,-51.09
17.890,-43.24
17.906,-30.72
17.921,-17.54
17.937,-7.26
17.953,-2.31
17.968,-3.59
17.984,-10.64
18.000,-22.1
18.015,-36.32
18.031,-51.76
18.046,-67.26
18.062,-81.96
18.078,-95.18
18.093,-106.27
18.109,-114.42
18.125,-118.79
18.140,-118.59
18.156,-113.24
18.171,-102.78
18.187,-87.98
18.203,-70.43
18.218,-52.17
18.234,-35.13
18.250,-20.54
18.265,-8.65
18.281,1.12
18.296,9.72
18.312,17.71
18.328,24.97
18.343,30.63
18.359,33.54
18.375,32.93
18.390,28.88
18.406,22.09
18.421,13.37
18.437,2.81
18.453,-10.58
18.468,-28.53
18.484,-52.72
18.500,-84.06
18.515,-122.4
18.531,-166.69
18.546,-215.22
18.562,-265.35
18.578,-313.12
18.593,-353.06
18.609,-379.01
18.625,-385.91
18.640,-371.8
18.656,-338.89
18.671,-292.83
18.687,-240.75
18.703,-188.99
18.718,-141.71
18.734,-100.92
18.750,-67.3
18.765,-41.05
18.781,-22.22
18.796,-10.27
18.812,-3.81
18.828,-0.58
18.843,1.85
18.859,5.28
18.875,10.4
18.890,16.9
18.906,23.85
18.921,30.25
18.937,35.45
18.953,39.29
18.968,42.07
18.984,44.43
19.000,47.01
19.015,50.15
19.031,53.72
19.046,57.22
19.062,60.0
19.078,61.66
19.093,62.22
19.109,62.06
19.125,61.74
19.140,61.68
19.156,61.91
19.171,62.16
19.187,61.94
19.203,60.87
19.218,58.81
19.234,55.94
19.250,52.57
19.265,49.02
19.281,45.45
19.296,41.77
19.312,37.79
19.328,33.32
19.343,28.33
19.359,23.07
19.375,18.03
19.390,13.75
19.406,10.63
19.421,8.8
19.437,8.06
19.453,7.98
19.468,8.15
19.484,8.27
19.500,8.31
19.515,8.34
19.531,8.47
19.546,8.7
19.562,8.93
19.578,9.06
19.593,9.07
19.609,9.12
19.625,9.43
19.640,10.23
19.656,11.56
19.671,13.22
19.687,14.82
19.703,15.98
19.718,16.46
19.734,16.32
19.750,15.89
19.765,15.6
19.781,15.78
19.796,16.47
19.812,17.43
19.828,18.28
19.843,18.73
19.859,18.7
19.875,18.35
19.890,17.96
19.906,17.76
19.921,17.83
19.937,18.08
19.953,18.3
19.968,18.38
19.984,18.2
20.000,17.67
20.015,16.64
20.031,15.07
20.046,13.19
20.062,11.73
20.078,11.9
20.093,15.05
20.109,22.21
20.125,33.55
20.140,48.23
20.156,64.63
20.171,80.86
20.187,95.33
20.203,107.05
20.218,115.74
20.234,121.49
20.250,124.53
20.265,124.96
20.281,122.64
20.296,117.34
20.312,108.83
20.328,97.12
20.343,82.52
20.359,65.75
20.375,47.93
20.390,30.48
20.406,14.94
20.421,2.64
20.437,-5.56
20.453,-9.61
20.468,-10.13
20.484,-8.15
20.500,-4.68
20.515,-0.38
20.531,4.52
20.546,9.99
20.562,15.85
20.578,21.6
20.593,26.49
20.609,29.94
20.625,31.89
20.640,32.84
20.656,33.55
20.671,34.58
20.687,36.0
20.703,37.33
20.718,37.68
20.734,35.9
20.750,30.59
20.765,20.21
20.781,3.13
20.796,-21.87
20.812,-55.09
20.828,-95.31
20.843,-139.85
20.859,-184.98
20.875,-227.01
20.890,-263.14
20.906,-291.91
20.921,-312.87
20.937,-325.9
20.953,-330.59
20.968,-326.15
20.984,-311.98
21.000,-288.3
21.015,-256.64
21.031,-219.61
21.046,-180.29
21.062,-141.38
21.078,-104.79
21.093,-71.7
21.109,-42.87
21.125,-19.01
21.140,-0.78
21.156,11.47
21.171,18.06
21.187,20.06
21.203,19.1
21.218,16.91
21.234,14.78
21.250,13.38
21.265,12.73
21.281,12.44
21.296,12.06
21.312,11.31
21.328,10.22
21.343,8.96
21.359,7.64
21.375,6.23
21.390,4.52
21.406,2.2
21.421,-0.94
21.437,-4.91
21.453,-9.43
21.468,-13.86
21.484,-17.37
21.500,-19.05
21.515,-18.07
21.531,-13.98
21.546,-6.83
21.562,2.85
21.578,14.18
21.593,26.19
21.609,38.1
21.625,49.31
21.640,59.41
21.656,68.05
21.671,74.88
21.687,79.64
21.703,82.28
21.718,83.05
21.734,82.34
21.750,80.49
21.765,77.54
21.781,73.24
21.796,67.21
21.812,59.21
21.828,49.55
21.843,39.02
21.859,28.7
21.875,19.42
21.890,11.51
21.906,4.7
21.921,-1.62
21.937,-8.0
21.953,-14.65
21.968,-21.23
21.984,-27.05
22.000,-31.36
22.015,-33.6
22.031,-33.71
22.046,-32.22
22.062,-30.26
22.078,-29.49
22.093,-31.56
22.109,-37.42
22.125,-46.72
22.140,-57.75
22.156,-67.98
22.171,-75.08
22.187,-77.79
22.203,-76.18
22.218,-71.38
22.234,-64.75
22.250,-57.19
22.265,-48.99
22.281,-40.09
22.296,-30.53
22.312,-20.71
22.328,-11.2
22.343,-2.48
22.359,5.45
22.375,12.87
22.390,20.02
22.406,26.92
22.421,33.28
22.437,38.71
22.453,42.93
22.468,45.87
22.484,47.62
22.500,48.41
22.515,48.47
22.531,47.96
22.546,47.04
22.562,45.89
22.578,44.61
22.593,43.24
22.609,41.68
22.625,39.76
22.640,37.33
22.656,34.39
22.671,31.03
22.687,27.46
22.703,23.84
22.718,20.15
22.734,16.23
22.750,11.8
22.765,6.62
22.781,0.52
22.796,-6.43
22.812,-13.91
22.828,-21.34
22.843,-27.93
22.859,-32.88
22.875,-35.42
22.890,-35.11
22.906,-31.82
22.921,-25.9
22.937,-17.99
22.953,-9.04
22.968,0.06
22.984,8.57
23.000,16.1
23.015,22.59
23.031,28.12
23.046,32.75
23.062,36.44
23.078,39.06
23.093,40.43
23.109,40.52
23.125,39.53
23.140,37.78
23.156,35.63
23.171,33.3
23.187,30.84
23.203,28.14
23.218,25.07
23.234,21.59
23.250,17.83
23.265,14.05
23.281,10.48
23.296,7.26
23.312,4.24
23.328,1.07
23.343,-2.61
23.359,-6.9
23.375,-11.59
23.390,-16.18
23.406,-20.12
23.421,-23.18
23.437,-25.42
23.453,-27.29
23.468,-29.33
23.484,-31.96
23.500,-35.31
23.515,-39.2
23.531,-43.21
23.546,-46.69
23.562,-48.99
23.578,-49.44
23.593,-47.6
23.609,-43.31
23.625,-36.76
23.640,-28.43
23.656,-18.87
23.671,-8.65
23.687,1.78
23.703,11.95
23.718,21.41
23.734,29.69
23.750,36.42
23.765,41.38
23.781,44.55
23.796,46.15
23.812,46.52
23.828,46.01
23.843,44.88
23.859,43.32
23.875,41.47
23.890,39.37
23.906,37.12
23.921,34.75
23.937,32.29
23.953,29.74
23.968,27.1
23.984,24.36
24.000,21.55
24.015,18.68
24.031,15.76
24.046,12.74
24.062,9.56
24.078,6.2
24.093,2.72
24.109,-0.71
24.125,-3.89
24.140,-6.68
24.156,-9.18
24.171,-11.74
24.187,-14.85
24.203,-18.89
24.218,-24.03
24.234,-30.08
24.250,-36.42
24.265,-42.24
24.281,-46.66
24.296,-48.86
24.312,-48.27
24.328,-44.59
24.343,-37.89
24.359,-28.66
24.375,-17.68
24.390,-5.87
24.406,5.88
24.421,16.93
24.437,26.87
24.453,35.41
24.468,42.26
24.484,47.15
24.500,49.86
24.515,50.37
24.531,49.09
24.546,46.61
24.562,43.7
24.578,41.01
24.593,38.87
24.609,37.28
24.625,36.04
24.640,34.9
24.656,33.71
24.671,32.5
24.687,31.32
24.703,30.24
24.718,29.12
24.734,27.61
24.750,25.29
24.765,21.87
24.781,17.4
24.796,12.34
24.812,7.35
24.828,3.01
24.843,-0.39
24.859,-2.99
24.875,-5.2
24.890,-7.43
24.906,-9.92
24.921,-12.66
24.937,-15.53
24.953,-18.39
24.968,-21.28
24.984,-24.3
25.000,-27.62
25.015,-31.4
25.031,-35.85
25.046,-41.14
25.062,-47.41
25.078,-54.44
25.093,-61.56
25.109,-67.63
25.125,-71.23
25.140,-71.18
25.156,-66.9
25.171,-58.64
25.187,-47.4
25.203,-34.54
25.218,-21.35
25.234,-8.75
25.250,2.76
25.265,13.08
25.281,22.2
25.296,30.09
25.312,36.58
25.328,41.36
25.343,44.17
25.359,44.98
25.375,44.14
25.390,42.38
25.406,40.58
25.421,39.42
25.437,39.19
25.453,39.71
25.468,40.55
25.484,41.29
25.500,41.74
25.515,41.9
25.531,41.81
25.546,41.46
25.562,40.57
25.578,38.89
25.593,36.22
25.609,32.71
25.625,28.75
25.640,24.83
25.656,21.34
25.671,18.44
25.687,16.0
25.703,13.77
25.718,11.49
25.734,8.97
25.750,6.19
25.765,3.27
25.781,0.26
25.796,-2.76
25.812,-5.81
25.828,-8.98
25.843,-12.37
25.859,-15.99
25.875,-19.84
25.890,-23.8
25.906,-27.74
25.921,-31.57
25.937,-35.29
25.953,-39.01
25.968,-42.91
25.984,-47.17
26.000,-51.8
26.015,-56.59
26.031,-61.0
26.046,-64.23
26.062,-65.43
26.078,-63.98
26.093,-59.73
26.109,-53.04
26.125,-44.65
26.140,-35.41
26.156,-25.99
26.171,-16.79
26.187,-7.93
26.203,0.56
26.218,8.6
26.234,15.92
26.250,22.17
26.265,27.08
26.281,30.61
26.296,33.01
26.312,34.74
26.328,36.25
26.343,37.8
26.359,39.45
26.375,41.08
26.390,42.5
26.406,43.61
26.421,44.46
26.437,45.18
26.453,46.05
26.468,47.35
26.484,49.3
26.500,52.02
26.515,55.52
26.531,59.62
26.546,63.99
26.562,68.27
26.578,72.17
26.593,75.56
26.609,78.48
26.625,81.11
26.640,83.56
26.656,85.84
26.671,87.88
26.687,89.52
26.703,90.75
26.718,91.67
26.734,92.56
26.750,93.84
26.765,95.88
26.781,98.86
26.796,102.67
26.812,106.98
26.828,111.32
26.843,115.33
26.859,118.75
26.875,121.47
26.890,123.42
26.906,124.45
26.921,124.23
26.937,122.15
26.953,117.29
26.968,108.56
26.984,94.99
27.000,76.09
27.015,52.11
27.031,24.35
27.046,-5.07
27.062,-33.57
27.078,-58.78
27.093,-78.96
27.109,-93.29
27.125,-101.79
27.140,-105.27
27.156,-105.14
27.171,-103.25
27.187,-101.4
27.203,-100.94
27.218,-102.41
27.234,-105.46
27.250,-109.31
27.265,-113.25
27.281,-117.01
27.296,-120.81
27.312,-124.88
27.328,-129.06
27.343,-132.62
27.359,-134.54
27.375,-134.02
27.390,-130.96
27.406,-126.02
27.421,-120.18
27.437,-114.22
27.453,-108.46
27.468,-102.76
27.484,-96.91
27.500,-90.83
27.515,-84.69
27.531,-78.82
27.546,-73.55
27.562,-68.97
27.578,-65.0
27.593,-61.42
27.609,-58.03
27.625,-54.73
27.640,-51.52
27.656,-48.5
27.671,-45.89
27.687,-43.91
27.703,-42.75
27.718,-42.51
27.734,-43.1
27.750,-44.3
27.765,-45.88
27.781,-47.77
27.796,-50.02
27.812,-52.68
27.828,-55.55
27.843,-58.01
27.859,-59.11
27.875,-57.87
27.890,-53.7
27.906,-46.72
27.921,-37.69
27.937,-27.69
27.953,-17.73
27.968,-8.41
27.984,0.13
28.000,7.95
28.015,15.12
28.031,21.55
28.046,27.03
28.062,31.37
28.078,34.54
28.093,36.66
28.109,37.96
28.125,38.75
28.140,39.29
28.156,39.85
28.171,40.59
28.187,41.55
28.203,42.68
28.218,43.76
28.234,44.6
28.250,45.07
28.265,45.17
28.281,45.03
28.296,44.78
28.312,44.46
28.328,43.96
28.343,43.01
28.359,41.38
28.375,38.93
28.390,35.77
28.406,32.16
28.421,28.46
28.437,24.94
28.453,21.71
28.468,18.69
28.484,15.75
28.500,12.75
28.515,9.71
28.531,6.68
28.546,3.76
28.562,0.92
28.578,-1.94
28.593,-4.97
28.609,-8.26
28.625,-11.84
28.640,-15.67
28.656,-19.71
28.671,-24.1
28.687,-28.97
28.703,-34.41
28.718,-40.24
28.734,-45.83
28.750,-50.22
28.765,-52.37
28.781,-51.43
28.796,-47.13
28.812,-39.9
28.828,-30.66
28.843,-20.59
28.859,-10.72
28.875,-1.7
28.890,6.23
28.906,13.14
28.921,19.14
28.937,24.37
28.953,28.86
28.968,32.7
28.984,35.92
29.000,38.65
29.015,40.9
29.031,42.71
29.046,44.04
29.062,44.81
29.078,45.0
29.093,44.62
29.109,43.83
29.125,42.81
29.140,41.81
29.156,41.0
29.171,40.43
29.187,39.98
29.203,39.4
29.218,38.39
29.234,36.72
29.250,34.42
29.265,31.64
29.281,28.64
29.296,25.66
29.312,22.76
29.328,19.88
29.343,16.89
29.359,13.78
29.375,10.61
29.390,7.55
29.406,4.65
29.421,1.88
29.437,-0.97
29.453,-4.21
29.468,-7.91
29.484,-12.01
29.500,-16.14
29.515,-19.97
29.531,-23.26
29.546,-26.12
29.562,-28.97
29.578,-32.28
29.593,-36.5
29.609,-41.62
29.625,-47.2
29.640,-52.29
29.656,-55.71
29.671,-56.37
29.687,-53.63
29.703,-47.54
29.718,-38.74
29.734,-28.29
29.750,-17.32
29.765,-6.73
29.781,2.86
29.796,11.2
29.812,18.22
29.828,23.93
29.843,28.38
29.859,31.7
29.875,34.0
29.890,35.46
29.906,36.24
29.921,36.46
29.937,36.2
29.953,35.5
29.968,34.45
29.984,33.19
30.000,31.87
30.015,30.67
30.031,29.7
30.046,29.03
30.062,28.65
30.078,28.46
30.093,28.26
30.109,27.86
30.125,27.06
30.140,25.73
30.156,23.83
30.171,21.47
30.187,18.83
30.203,16.17
30.218,13.64
30.234,11.24
30.250,8.81
30.265,6.14
30.281,3.08
30.296,-0.38
30.312,-4.04
30.328,-7.64
30.343,-11.02
30.359,-14.18
30.375,-17.28
30.390,-20.54
30.406,-24.16
30.421,-28.11
30.437,-32.3
30.453,-36.56
30.468,-40.6
30.484,-44.1
30.500,-46.52
30.515,-47.24
30.531,-45.67
30.546,-41.57
30.562,-35.11
30.578,-26.92
30.593,-17.85
30.609,-8.74
30.625,-0.21
30.640,7.43
30.656,14.07
30.671,19.64
30.687,24.0
30.703,27.07
30.718,28.81
30.734,29.37
30.750,29.06
30.765,28.21
30.781,27.23
30.796,26.41
30.812,25.94
30.828,25.84
30.843,25.99
30.859,26.22
30.875,26.39
30.890,26.44
30.906,26.38
30.921,26.29
30.937,26.16
30.953,25.89
30.968,25.28
30.984,24.11
31.000,22.21
31.015,19.61
31.031,16.52
31.046,13.16
31.062,9.7
31.078,6.14
31.093,2.41
31.109,-1.55
31.125,-5.69
31.140,-9.85
31.156,-13.8
31.171,-17.33
31.187,-20.38
31.203,-23.02
31.218,-25.43
31.234,-27.86
31.250,-30.59
31.265,-33.86
31.281,-37.81
31.296,-42.28
31.312,-46.76
31.328,-50.43
31.343,-52.28
31.359,-51.53
31.375,-47.8
31.390,-41.28
31.406,-32.72
31.421,-23.14
31.437,-13.6
31.453,-4.87
31.468,2.68
31.484,9.05
31.500,14.46
31.515,19.12
31.531,23.11
31.546,26.3
31.562,28.44
31.578,29.39
31.593,29.31
31.609,28.65
31.625,28.02
31.640,27.91
31.656,28.37
31.671,29.17
31.687,29.83
31.703,30.02
31.718,29.73
31.734,29.21
31.750,28.84
31.765,28.76
31.781,28.78
31.796,28.42
31.812,27.18
31.828,24.78
31.843,21.38
31.859,17.47
31.875,13.72
31.890,10.65
31.906,8.36
31.921,6.55
31.937,4.61
31.953,1.98
31.968,-1.59
31.984,-5.9
32.000,-10.46
32.015,-14.76
32.031,-18.49
32.046,-21.7
32.062,-24.64
32.078,-27.66
32.093,-30.95
32.109,-34.62
32.125,-38.69
32.140,-43.1
32.156,-47.79
32.171,-52.52
32.187,-56.79
32.203,-59.81
32.218,-60.72
32.234,-58.87
32.250,-54.03
32.265,-46.51
32.281,-37.06
32.296,-26.62
32.312,-16.08
32.328,-6.11
32.343,2.94
32.359,10.92
32.375,17.85
32.390,23.78
32.406,28.77
32.421,32.88
32.437,36.09
32.453,38.35
32.468,39.71
32.484,40.29
32.500,40.36
32.515,40.23
32.531,40.2
32.546,40.47
32.562,41.05
32.578,41.84
32.593,42.76
32.609,43.73
32.625,44.73
32.640,45.78
32.656,46.88
32.671,48.03
32.687,49.22
32.703,50.38
32.718,51.37
32.734,52.0
32.750,52.01
32.765,51.25
32.781,49.84
32.796,48.17
32.812,46.82
32.828,46.31
32.843,46.86
32.859,48.25
32.875,49.97
32.890,51.31
32.906,51.75
32.921,51.13
32.937,49.63
32.953,47.75
32.968,46.11
32.984,45.31
33.000,45.8
33.015,47.67
33.031,50.41
33.046,52.82
33.062,53.07
33.078,49.13
33.093,39.52
33.109,24.07
33.125,4.29
33.140,-16.88
33.156,-35.88
33.171,-49.69
33.187,-56.54
33.203,-56.29
33.218,-49.95
33.234,-39.05
33.250,-25.04
33.265,-8.99
33.281,8.23
33.296,25.79
33.312,42.81
33.328,58.44
33.343,72.08
33.359,83.55
33.375,93.07
33.390,101.05
33.406,107.83
33.421,113.46
33.437,117.6
33.453,119.67
33.468,119.04
33.484,115.34
33.500,108.52
33.515,98.91
33.531,87.11
33.546,73.74
33.562,59.35
33.578,44.26
33.593,28.68
33.609,12.79
33.625,-2.99
33.640,-18.05
33.656,-31.64
33.671,-43.29
33.687,-53.15
33.703,-62.2
33.718,-72.03
33.734,-84.13
33.750,-99.22
33.765,-116.8
33.781,-135.14
33.796,-152.03
33.812,-165.6
33.828,-175.11
33.843,-181.1
33.859,-185.03
33.875,-188.49
33.890,-192.63
33.906,-197.78
33.921,-203.39
33.937,-208.32
33.953,-211.11
33.968,-210.35
33.984,-204.93
34.000,-194.2
34.015,-178.15
34.031,-157.44
34.046,-133.34
34.062,-107.5
34.078,-81.68
34.093,-57.36
34.109,-35.57
34.125,-16.74
34.140,-0.77
34.156,12.83
34.171,24.79
34.187,35.87
34.203,46.7
34.218,57.67
34.234,68.86
34.250,80.15
34.265,91.32
34.281,102.13
34.296,112.44
34.312,122.25
34.328,131.67
34.343,140.74
34.359,149.41
34.375,157.31
34.390,163.77
34.406,167.9
34.421,168.64
34.437,165.08
34.453,156.65
34.468,143.24
34.484,125.25
34.500,103.49
34.515,79.11
34.531,53.41
34.546,27.74
34.562,3.32
34.578,-18.86
34.593,-38.14
34.609,-54.26
34.625,-67.35
34.640,-77.91
34.656,-86.64
34.671,-94.38
34.687,-101.79
34.703,-109.16
34.718,-116.18
34.734,-121.9
34.750,-124.93
34.765,-123.91
34.781,-117.94
34.796,-106.93
34.812,-91.7
34.828,-73.63
34.843,-54.35
34.859,-35.3
34.875,-17.6
34.890,-1.91
34.906,11.36
34.921,22.05
34.937,30.2
34.953,36.06
34.968,40.17
34.984,43.21
35.000,45.83
35.015,48.43
35.031,51.04
35.046,53.36
35.062,54.94
35.078,55.43
35.093,54.86
35.109,53.62
35.125,52.27
35.140,51.23
35.156,50.49
35.171,49.52
35.187,47.34
35.203,43.02
35.218,36.07
35.234,26.78
35.250,16.3
35.265,6.24
35.281,-1.83
35.296,-6.98
35.312,-9.25
35.328,-9.8
35.343,-10.48
35.359,-13.27
35.375,-19.63
35.390,-29.99
35.406,-43.52
35.421,-58.35
35.437,-72.17
35.453,-83.05
35.468,-90.3
35.484,-94.8
35.500,-98.88
35.515,-105.43
35.531,-116.85
35.546,-134.02
35.562,-155.64
35.578,-178.44
35.593,-197.84
35.609,-209.16
35.625,-208.84
35.640,-195.49
35.656,-170.42
35.671,-137.2
35.687,-100.75
35.703,-65.87
35.718,-36.24
35.734,-13.67
35.750,1.71
35.765,10.74
35.781,14.52
35.796,13.95
35.812,9.87
35.828,3.38
35.843,-3.92
35.859,-10.2
35.875,-13.92
35.890,-14.39
35.906,-11.95
35.921,-7.69
35.937,-2.85
35.953,1.81
35.968,6.17
35.984,10.61
36.000,15.49
36.015,20.74
36.031,25.77
36.046,29.61
36.062,31.36
36.078,30.61
36.093,27.69
36.109,23.47
36.125,19.15
36.140,15.71
36.156,13.56
36.171,12.38
36.187,11.36
36.203,9.6
36.218,6.57
36.234,2.32
36.250,-2.62
36.265,-7.5
36.281,-11.8
36.296,-15.45
36.312,-18.8
36.328,-22.36
36.343,-26.55
36.359,-31.56
36.375,-37.36
36.390,-43.79
36.406,-50.53
36.421,-57.11
36.437,-62.8
36.453,-66.57
36.468,-67.25
36.484,-63.99
36.500,-56.53
36.515,-45.48
36.531,-32.15
36.546,-18.12
36.562,-4.81
36.578,6.96
36.593,16.87
36.609,25.03
36.625,31.58
36.640,36.56
36.656,39.94
36.671,41.75
36.687,42.23
36.703,41.85
36.718,41.11
36.734,40.39
36.750,39.77
36.765,39.15
36.781,38.38
36.796,37.46
36.812,36.57
36.828,35.96
36.843,35.79
36.859,35.97
36.875,36.16
36.890,35.88
36.906,34.7
36.921,32.41
36.937,29.07
36.953,25.02
36.968,20.72
36.984,16.55
37.000,12.73
37.015,9.14
37.031,5.42
37.046,1.17
37.062,-3.93
37.078,-9.86
37.093,-16.22
37.109,-22.5
37.125,-28.15
37.140,-32.88
37.156,-36.74
37.171,-40.13
37.187,-43.61
37.203,-47.74
37.218,-52.8
37.234,-58.66
37.250,-64.65
37.265,-69.63
37.281,-72.26
37.296,-71.32
37.312,-66.22
37.328,-57.13
37.343,-44.97
37.359,-31.11
37.375,-16.92
37.390,-3.44
37.406,8.76
37.421,19.41
37.437,28.46
37.453,35.86
37.468,41.55
37.484,45.59
37.500,48.16
37.515,49.66
37.531,50.51
37.546,51.1
37.562,51.64
37.578,52.14
37.593,52.53
37.609,52.67
37.625,52.48
37.640,51.98
37.656,51.26
37.671,50.42
37.687,49.62
37.703,48.83
37.718,47.9
37.734,46.52
37.750,44.36
37.765,41.16
37.781,36.97
37.796,32.16
37.812,27.23
37.828,22.65
37.843,18.55
37.859,14.7
37.875,10.59
37.890,5.75
37.906,0.03
37.921,-6.35
37.937,-12.81
37.953,-18.76
37.968,-23.76
37.984,-27.78
38.000,-31.18
38.015,-34.54
38.031,-38.48
38.046,-43.34
38.062,-49.06
38.078,-55.1
38.093,-60.48
38.109,-63.97
38.125,-64.45
38.140,-61.2
38.156,-54.09
38.171,-43.68
38.187,-30.94
38.203,-17.06
38.218,-3.14
38.234,9.96
38.250,21.63
38.265,31.51
38.281,39.44
38.296,45.49
38.312,49.86
38.328,52.96
38.343,55.15
38.359,56.67
38.375,57.64
38.390,58.09
38.406,58.06
38.421,57.74
38.437,57.41
38.453,57.17
38.468,57.06
38.484,56.91
38.500,56.51
38.515,55.78
38.531,54.69
38.546,53.34
38.562,51.76
38.578,49.91
38.593,47.71
38.609,45.1
38.625,42.16
38.640,39.03
38.656,35.92
38.671,32.92
38.687,29.95
38.703,26.78
38.718,23.11
38.734,18.68
38.750,13.37
38.765,7.32
38.781,0.83
38.796,-5.63
38.812,-11.67
38.828,-17.08
38.843,-21.84
38.859,-26.24
38.875,-30.69
38.890,-35.6
38.906,-41.2
38.921,-47.58
38.937,-54.49
38.953,-61.47
38.968,-67.7
38.984,-72.05
39.000,-73.32
39.015,-70.52
39.031,-63.29
39.046,-52.08
39.062,-38.15
39.078,-23.2
39.093,-8.86
39.109,3.69
39.125,14.0
39.140,22.11
39.156,28.45
39.171,33.41
39.187,37.34
39.203,40.38
39.218,42.68
39.234,44.41
39.250,45.75
39.265,46.91
39.281,47.95
39.296,48.84
39.312,49.48
39.328,49.75
39.343,49.61
39.359,49.19
39.375,48.65
39.390,48.14
39.406,47.73
39.421,47.37
39.437,46.91
39.453,46.16
39.468,44.9
39.484,42.94
39.500,40.06
39.515,36.23
39.531,31.54
39.546,26.37
39.562,21.21
39.578,16.53
39.593,12.52
39.609,9.1
39.625,5.97
39.640,2.7
39.656,-0.9
39.671,-4.9
39.687,-9.17
39.703,-13.62
39.718,-18.21
39.734,-22.93
39.750,-27.79
39.765,-32.72
39.781,-37.65
39.796,-42.62
39.812,-47.77
39.828,-53.19
39.843,-58.77
39.859,-63.95
39.875,-67.69
39.890,-68.76
39.906,-66.13
39.921,-59.41
39.937,-49.16
39.953,-36.67
39.968,-23.58
39.984,-11.35
40.000,-0.99
40.015,7.12
40.031,13.04
40.046,17.04
40.062,19.45
40.078,20.58
40.093,20.69
40.109,20.02
40.125,18.87
40.140,17.42
40.156,15.82
40.171,14.14
40.187,12.41
40.203,10.61
40.218,8.79
40.234,7.06
40.250,5.53
40.265,4.27
40.281,3.26
40.296,2.35
40.312,1.24
40.328,-0.35
40.343,-2.57
40.359,-5.36
40.375,-8.45
40.390,-11.45
40.406,-14.09
40.421,-16.29
40.437,-18.25
40.453,-20.26
40.468,-22.6
40.484,-25.24
40.500,-28.02
40.515,-30.71
40.531,-33.15
40.546,-35.39
40.562,-37.63
40.578,-40.17
40.593,-43.23
40.609,-46.9
40.625,-50.96
40.640,-54.99
40.656,-58.28
40.671,-59.97
40.687,-59.14
40.703,-55.12
40.718,-47.7
40.734,-37.3
40.750,-24.81
40.765,-11.38
40.781,1.86
40.796,14.08
40.812,24.82
40.828,34.0
40.843,41.72
40.859,48.17
40.875,53.43
40.890,57.49
40.906,60.27
40.921,61.7
40.937,61.89
40.953,61.13
40.968,59.87
40.984,58.52
41.000,57.45
41.015,56.75
41.031,56.29
41.046,55.82
41.062,55.05
41.078,53.8
41.093,52.03
41.109,49.86
41.125,47.44
41.140,44.95
41.156,42.5
41.171,40.11
41.187,37.73
41.203,35.27
41.218,32.62
41.234,29.64
41.250,26.22
41.265,22.28
41.281,17.87
41.296,13.18
41.312,8.45
41.328,3.9
41.343,-0.42
41.359,-4.66
41.375,-9.09
41.390,-13.99
41.406,-19.41
41.421,-25.09
41.437,-30.37
41.453,-34.34
41.468,-36.05
41.484,-34.86
41.500,-30.6
41.515,-23.8
41.531,-15.47
41.546,-6.74
41.562,1.44
41.578,8.6
41.593,14.68
41.609,19.9
41.625,24.4
41.640,28.19
41.656,31.17
41.671,33.24
41.687,34.58
41.703,35.51
41.718,36.37
41.734,37.32
41.750,38.26
41.765,38.9
41.781,38.97
41.796,38.47
41.812,37.67
41.828,36.96
41.843,36.68
41.859,36.89
41.875,37.36
41.890,37.61
41.906,37.11
41.921,35.47
41.937,32.62
41.953,28.72
41.968,24.18
41.984,19.48
42.000,15.03
42.015,11.02
42.031,7.43
42.046,3.99
42.062,0.37
42.078,-3.68
42.093,-8.19
42.109,-12.91
42.125,-17.45
42.140,-21.37
42.156,-24.46
42.171,-26.83
42.187,-28.83
42.203,-30.95
42.218,-33.58
42.234,-36.88
42.250,-40.71
42.265,-44.66
42.281,-48.17
42.296,-50.63
42.312,-51.4
42.328,-50.02
42.343,-46.17
42.359,-39.86
42.375,-31.53
42.390,-21.97
42.406,-12.08
42.421,-2.66
42.437,5.85
42.453,13.38
42.468,20.01
42.484,25.8
42.500,30.65
42.515,34.26
42.531,36.45
42.546,37.3
42.562,37.16
42.578,36.56
42.593,35.9
42.609,35.3
42.625,34.6
42.640,33.58
42.656,32.04
42.671,30.06
42.687,27.8
42.703,25.52
42.718,23.33
42.734,21.26
42.750,19.22
42.765,17.11
42.781,14.88
42.796,12.49
42.812,10.01
42.828,7.53
42.843,5.16
42.859,2.97
42.875,0.92
42.890,-1.14
42.906,-3.45
42.921,-6.18
42.937,-9.41
42.953,-13.03
42.968,-16.85
42.984,-20.7
43.000,-24.42
43.015,-27.95
43.031,-31.3
43.046,-34.55
43.062,-37.87
43.078,-41.47
43.093,-45.54
43.109,-50.08
43.125,-54.79
43.140,-58.95
43.156,-61.68
43.171,-62.11
43.187,-59.71
43.203,-54.48
43.218,-46.87
43.234,-37.7
43.250,-27.91
43.265,-18.42
43.281,-9.87
43.296,-2.71
43.312,2.94
43.328,7.18
43.343,10.24
43.359,12.4
43.375,13.89
43.390,14.79
43.406,15.12
43.421,14.98
43.437,14.55
43.453,14.1
43.468,13.85
43.484,13.89
43.500,14.15
43.515,14.49
43.531,14.79
43.546,15.07
43.562,15.46
43.578,15.98
43.593,16.59
43.609,16.99
43.625,16.84
43.640,15.94
43.656,14.26
43.671,11.98
43.687,9.38
43.703,6.69
43.718,3.99
43.734,1.3
43.750,-1.41
43.765,-4.12
43.781,-6.74
43.796,-9.17
43.812,-11.36
43.828,-13.32
43.843,-15.14
43.859,-17.0
43.875,-19.05
43.890,-21.42
43.906,-24.1
43.921,-26.87
43.937,-29.22
43.953,-30.53
43.968,-30.09
43.984,-27.5
44.000,-22.66
44.015,-15.92
44.031,-7.9
44.046,0.6
44.062,8.86
44.078,16.33
44.093,22.73
44.109,27.98
44.125,32.04
44.140,34.91
44.156,36.56
44.171,37.06
44.187,36.61
44.203,35.52
44.218,34.25
44.234,33.18
44.250,32.55
44.265,32.29
44.281,32.13
44.296,31.71
44.312,30.77
44.328,29.25
44.343,27.28
44.359,25.13
44.375,23.0
44.390,21.0
44.406,19.06
44.421,17.03
44.437,14.79
44.453,12.3
44.468,9.67
44.484,7.03
44.500,4.52
44.515,2.13
44.531,-0.15
44.546,-2.43
44.562,-4.73
44.578,-6.97
44.593,-9.1
44.609,-11.02
44.625,-12.8
44.640,-14.6
44.656,-16.69
44.671,-19.24
44.687,-22.29
44.703,-25.61
44.718,-28.74
44.734,-31.08
44.750,-31.96
44.765,-30.91
44.781,-27.73
44.796,-22.58
44.812,-15.91
44.828,-8.29
44.843,-0.29
44.859,7.64
44.875,15.2
44.890,22.22
44.906,28.54
44.921,34.05
44.937,38.66
44.953,42.32
44.968,45.01
44.984,46.77
45.000,47.66
45.015,47.76
45.031,47.28
45.046,46.48
45.062,45.68
45.078,45.14
45.093,44.95
45.109,44.96
45.125,44.87
45.140,44.44
45.156,43.5
45.171,42.09
45.187,40.35
45.203,38.4
45.218,36.33
45.234,34.05
45.250,31.47
45.265,28.52
45.281,25.29
45.296,21.91
45.312,18.58
45.328,15.39
45.343,12.36
45.359,9.46
45.375,6.62
45.390,3.9
45.406,1.47
45.421,-0.39
45.437,-1.5
45.453,-1.81
45.468,-1.48
45.484,-0.8
45.500,0.04
45.515,0.89
45.531,1.8
45.546,2.91
45.562,4.32
45.578,6.04
45.593,8.0
45.609,10.11
45.625,12.28
45.640,14.55
45.656,16.94
45.671,19.42
45.687,21.83
45.703,23.97
45.718,25.62
45.734,26.7
45.750,27.33
45.765,27.74
45.781,28.16
45.796,28.66
45.812,29.09
45.828,29.18
45.843,28.71
45.859,27.62
45.875,26.03
45.890,24.13
45.906,21.96
45.921,19.41
45.937,16.19
45.953,12.11
45.968,7.27
45.984,2.04
46.000,-2.97
46.015,-7.21
46.031,-10.42
46.046,-12.64
46.062,-14.11
46.078,-15.12
46.093,-15.88
46.109,-16.51
46.125,-17.28
46.140,-18.58
46.156,-20.96
46.171,-25.01
46.187,-31.13
46.203,-39.44
46.218,-49.65
46.234,-61.23
46.250,-73.45
46.265,-85.57
46.281,-96.87
46.296,-106.67
46.312,-114.22
46.328,-118.77
46.343,-119.6
46.359,-116.31
46.375,-108.93
46.390,-98.13
46.406,-85.05
46.421,-71.05
46.437,-57.33
46.453,-44.61
46.468,-33.13
46.484,-22.75
46.500,-13.27
46.515,-4.56
46.531,3.29
46.546,10.13
46.562,15.85
46.578,20.54
46.593,24.45
46.609,27.91
46.625,31.21
46.640,34.45
46.656,37.53
46.671,40.25
46.687,42.35
46.703,43.67
46.718,44.15
46.734,43.87
46.750,42.96
46.765,41.6
46.781,39.99
46.796,38.41
46.812,37.15
46.828,36.35
46.843,35.8
46.859,34.97
46.875,33.15
46.890,29.91
46.906,25.35
46.921,20.08
46.937,15.04
46.953,10.87
46.968,7.6
46.984,4.66
47.000,1.16
47.015,-3.56
47.031,-9.58
47.046,-16.46
47.062,-23.5
47.078,-30.14
47.093,-36.16
47.109,-41.48
47.125,-45.96
47.140,-49.26
47.156,-50.86
47.171,-50.36
47.187,-47.67
47.203,-43.25
47.218,-37.95
47.234,-32.68
47.250,-28.15
47.265,-24.59
47.281,-21.85
47.296,-19.65
47.312,-17.83
47.328,-16.41
47.343,-15.62
47.359,-15.69
47.375,-16.63
47.390,-18.2
47.406,-19.94
47.421,-21.39
47.437,-22.21
47.453,-22.25
47.468,-21.5
47.484,-20.04
47.500,-17.93
47.515,-15.23
47.531,-12.02
47.546,-8.45
47.562,-4.71
47.578,-1.0
47.593,2.46
47.609,5.48
47.625,7.87
47.640,9.45
47.656,10.19
47.671,10.11
47.687,9.49
47.703,8.7
47.718,8.04
47.734,7.65
47.750,7.34
47.765,6.71
47.781,5.32
47.796,2.94
47.812,-0.32
47.828,-3.88
47.843,-6.85
47.859,-8.29
47.875,-7.39
47.890,-3.79
47.906,2.4
47.921,10.65
47.937,20.2
47.953,30.24
47.968,40.2
47.984,49.77
48.000,58.99
48.015,67.98
48.031,76.82
48.046,85.34
48.062,93.2
48.078,100.01
48.093,105.49
48.109,109.66
48.125,112.85
48.140,115.57
48.156,118.44
48.171,121.89
48.187,126.03
48.203,130.45
48.218,134.1
48.234,135.52
48.250,133.21
48.265,126.28
48.281,114.84
48.296,100.1
48.312,83.85
48.328,67.78
48.343,52.86
48.359,39.09
48.375,25.76
48.390,12.08
48.406,-2.45
48.421,-17.88
48.437,-33.96
48.453,-50.3
48.468,-66.45
48.484,-81.84
48.500,-95.68
48.515,-107.11
48.531,-115.56
48.546,-120.99
48.562,-123.94
48.578,-125.29
48.593,-125.76
48.609,-125.61
48.625,-124.58
48.640,-122.19
48.656,-118.02
48.671,-112.06
48.687,-104.71
48.703,-96.59
48.718,-88.24
48.734,-80.01
48.750,-72.1
48.765,-64.61
48.781,-57.67
48.796,-51.43
48.812,-46.0
48.828,-41.4
48.843,-37.51
48.859,-34.14
48.875,-31.18
48.890,-28.56
48.906,-26.3
48.921,-24.43
48.937,-22.93
48.953,-21.74
48.968,-20.83
48.984,-20.15
49.000,-19.72
49.015,-19.52
49.031,-19.44
49.046,-19.37
49.062,-19.22
49.078,-19.06
49.093,-19.14
49.109,-19.81
49.125,-21.34
49.140,-23.79
49.156,-26.97
49.171,-30.6
49.187,-34.48
49.203,-38.63
49.218,-43.18
49.234,-48.26
49.250,-53.81
49.265,-59.56
49.281,-65.18
49.296,-70.43
49.312,-75.28
49.328,-79.82
49.343,-84.05
49.359,-87.72
49.375,-90.3
49.390,-91.09
49.406,-89.37
49.421,-84.57
49.437,-76.39
49.453,-64.9
49.468,-50.63
49.484,-34.56
49.500,-17.96
49.515,-2.14
49.531,11.89
49.546,23.57
49.562,32.85
49.578,40.0
49.593,45.3
49.609,48.97
49.625,51.09
49.640,51.77
49.656,51.23
49.671,49.85
49.687,48.1
49.703,46.34
49.718,44.87
49.734,43.85
49.750,43.43
49.765,43.66
49.781,44.56
49.796,45.98
49.812,47.64
49.828,49.15
49.843,50.05
49.859,49.98
49.875,48.79
49.890,46.53
49.906,43.45
49.921,39.95
49.937,36.4
49.953,33.06
49.968,30.02
49.984,27.2
50.000,24.41
50.015,21.47
50.031,18.28
50.046,14.83
50.062,11.18
50.078,7.32
50.093,3.18
50.109,-1.43
50.125,-6.67
50.140,-12.61
50.156,-19.18
50.171,-26.17
50.187,-33.18
50.203,-39.64
50.218,-44.83
50.234,-47.91
50.250,-48.15
50.265,-45.16
50.281,-39.09
50.296,-30.71
50.312,-21.26
50.328,-12.02
50.343,-3.98
50.359,2.38
50.375,7.1
50.390,10.48
50.406,12.78
50.421,14.08
50.437,14.33
50.453,13.55
50.468,11.99
50.484,10.15
50.500,8.59
50.515,7.65
50.531,7.35
50.546,7.39
50.562,7.39
50.578,7.13
50.593,6.64
50.609,6.14
50.625,5.72
50.640,5.27
50.656,4.44
50.671,2.89
50.687,0.45
50.703,-2.8
50.718,-6.57
50.734,-10.55
50.750,-14.48
50.765,-18.23
50.781,-21.76
50.796,-25.11
50.812,-28.29
50.828,-31.39
50.843,-34.48
50.859,-37.66
50.875,-41.03
50.890,-44.62
50.906,-48.45
50.921,-52.47
50.937,-56.69
50.953,-61.06
50.968,-65.54
50.984,-70.0
51.000,-74.29
51.015,-78.19
51.031,-81.33
51.046,-83.15
51.062,-82.97
51.078,-80.11
51.093,-74.18
51.109,-65.21
51.125,-53.77
51.140,-40.78
51.156,-27.28
51.171,-14.13
51.187,-1.92
51.203,9.12
51.218,18.94
51.234,27.48
51.250,34.63
51.265,40.29
51.281,44.49
51.296,47.38
51.312,49.28
51.328,50.56
51.343,51.57
51.359,52.56
51.375,53.63
51.390,54.78
51.406,55.89
51.421,56.93
51.437,57.81
51.453,58.48
51.468,58.9
51.484,59.01
51.500,58.76
51.515,58.09
51.531,57.04
51.546,55.66
51.562,54.01
51.578,52.17
51.593,50.14
51.609,47.95
51.625,45.63
51.640,43.15
51.656,40.49
51.671,37.59
51.687,34.35
51.703,30.62
51.718,26.32
51.734,21.43
51.750,16.02
51.765,10.24
51.781,4.27
51.796,-1.78
51.812,-7.86
51.828,-13.99
51.843,-20.24
51.859,-26.63
51.875,-33.18
51.890,-39.83
51.906,-46.42
51.921,-52.56
51.937,-57.61
51.953,-60.79
51.968,-61.26
51.984,-58.43
52.000,-52.22
52.015,-43.12
52.031,-32.06
52.046,-20.2
52.062,-8.6
52.078,2.0
52.093,11.23
52.109,18.97
52.125,25.28
52.140,30.16
52.156,33.58
52.171,35.49
52.187,36.02
52.203,35.4
52.218,34.04
52.234,32.38
52.250,30.9
52.265,29.93
52.281,29.62
52.296,29.9
52.312,30.49
52.328,31.05
52.343,31.25
52.359,30.9
52.375,29.94
52.390,28.5
52.406,26.78
52.421,24.95
52.437,23.08
52.453,21.15
52.468,19.1
52.484,16.89
52.500,14.55
52.515,12.21
52.531,9.95
52.546,7.86
52.562,5.9
52.578,3.95
52.593,1.77
52.609,-0.9
52.625,-4.22
52.640,-8.17
52.656,-12.44
52.671,-16.7
52.687,-20.57
52.703,-23.92
52.718,-26.77
52.734,-29.37
52.750,-31.97
52.765,-34.81
52.781,-38.05
52.796,-41.7
52.812,-45.68
52.828,-49.68
52.843,-53.12
52.859,-55.13
52.875,-54.82
52.890,-51.53
52.906,-45.2
52.921,-36.44
52.937,-26.33
52.953,-16.09
52.968,-6.61
52.984,1.66
53.000,8.67
53.015,14.61
53.031,19.57
53.046,23.54
53.062,26.4
53.078,28.06
53.093,28.6
53.109,28.3
53.125,27.57
53.140,26.84
53.156,26.46
53.171,26.63
53.187,27.41
53.203,28.72
53.218,30.38
53.234,32.11
53.250,33.66
53.265,34.78
53.281,35.26
53.296,35.01
53.312,33.93
53.328,32.03
53.343,29.36
53.359,26.13
53.375,22.64
53.390,19.25
53.406,16.26
53.421,13.79
53.437,11.72
53.453,9.72
53.468,7.41
53.484,4.53
53.500,1.07
53.515,-2.74
53.531,-6.53
53.546,-10.03
53.562,-13.15
53.578,-16.01
53.593,-18.85
53.609,-21.93
53.625,-25.39
53.640,-29.27
53.656,-33.5
53.671,-37.88
53.687,-42.1
53.703,-45.61
53.718,-47.76
53.734,-47.9
53.750,-45.59
53.765,-40.79
53.781,-33.88
53.796,-25.65
53.812,-16.92
53.828,-8.42
53.843,-0.59
53.859,6.42
53.875,12.57
53.890,17.85
53.906,22.16
53.921,25.37
53.937,27.4
53.953,28.43
53.968,28.77
53.984,28.83
54.000,28.89
54.015,29.08
54.031,29.35
54.046,29.55
54.062,29.57
54.078,29.38
54.093,29.09
54.109,28.83
54.125,28.73
54.140,28.77
54.156,28.78
54.171,28.48
54.187,27.51
54.203,25.67
54.218,22.92
54.234,19.5
54.250,15.84
54.265,12.34
54.281,9.25
54.296,6.55
54.312,4.02
54.328,1.35
54.343,-1.71
54.359,-5.3
54.375,-9.47
54.390,-14.15
54.406,-19.19
54.421,-24.31
54.437,-29.18
54.453,-33.49
54.468,-37.07
54.484,-39.92
54.500,-42.28
54.515,-44.54
54.531,-47.08
54.546,-50.24
54.562,-54.09
54.578,-58.37
54.593,-62.42
54.609,-65.34
54.625,-66.12
54.640,-63.95
54.656,-58.54
54.671,-50.2
54.687,-39.81
54.703,-28.52
54.718,-17.47
54.734,-7.52
54.750,0.94
54.765,7.9
54.781,13.64
54.796,18.5
54.812,22.76
54.828,26.49
54.843,29.63
54.859,32.02
54.875,33.56
54.890,34.31
54.906,34.44
54.921,34.23
54.937,33.93
54.953,33.73
54.968,33.65
54.984,33.7
55.000,33.83
55.015,33.96
55.031,33.98
55.046,33.77
55.062,33.16
55.078,32.04
55.093,30.36
55.109,28.12
55.125,25.47
55.140,22.62
55.156,19.78
55.171,17.07
55.187,14.49
55.203,11.89
55.218,9.09
55.234,6.01
55.250,2.71
55.265,-0.6
55.281,-3.67
55.296,-6.35
55.312,-8.64
55.328,-10.69
55.343,-12.72
55.359,-14.87
55.375,-17.22
55.390,-19.81
55.406,-22.67
55.421,-25.89
55.437,-29.61
55.453,-33.83
55.468,-38.34
55.484,-42.62
55.500,-45.84
55.515,-47.14
55.531,-45.86
55.546,-41.83
55.562,-35.43
55.578,-27.52
55.593,-19.04
55.609,-10.88
55.625,-3.5
55.640,2.99
55.656,8.64
55.671,13.51
55.687,17.55
55.703,20.6
55.718,22.57
55.734,23.56
55.750,23.88
55.765,23.96
55.781,24.23
55.796,24.89
55.812,25.84
55.828,26.85
55.843,27.57
55.859,27.8
55.875,27.52
55.890,26.91
55.906,26.24
55.921,25.78
55.937,25.59
55.953,25.53
55.968,25.3
55.984,24.58
56.000,23.2
56.015,21.12
56.031,18.52
56.046,15.72
56.062,13.01
56.078,10.6
56.093,8.42
56.109,6.24
56.125,3.7
56.140,0.61
56.156,-3.02
56.171,-6.88
56.187,-10.53
56.203,-13.55
56.218,-15.78
56.234,-17.35
56.250,-18.62
56.265,-20.06
56.281,-22.05
56.296,-24.76
56.312,-28.11
56.328,-31.7
56.343,-34.88
56.359,-36.91
56.375,-37.13
56.390,-35.13
56.406,-30.95
56.421,-25.04
56.437,-18.07
56.453,-10.79
56.468,-3.83
56.484,2.31
56.500,7.36
56.515,11.22
56.531,14.03
56.546,15.99
56.562,17.34
56.578,18.26
56.593,18.79
56.609,18.89
56.625,18.56
56.640,17.89
56.656,17.08
56.671,16.33
56.687,15.66
56.703,14.93
56.718,13.98
56.734,12.68
56.750,11.11
56.765,9.51
56.781,8.15
56.796,7.16
56.812,6.48
56.828,5.92
56.843,5.32
56.859,4.68
56.875,4.17
56.890,4.12
56.906,4.76
56.921,6.12
56.937,7.91
56.953,9.59
56.968,10.5
56.984,10.14
57.000,8.34
57.015,5.28
57.031,1.42
57.046,-2.66
57.062,-6.54
57.078,-10.01
57.093,-13.11
57.109,-15.96
57.125,-18.75
57.140,-21.72
57.156,-25.13
57.171,-29.15
57.187,-33.87
57.203,-39.04
57.218,-44.09
57.234,-48.1
57.250,-50.11
57.265,-49.44
57.281,-45.95
57.296,-40.17
57.312,-33.08
57.328,-25.79
57.343,-19.18
57.359,-13.66
57.375,-9.12
57.390,-5.19
57.406,-1.49
57.421,2.18
57.437,5.66
57.453,8.65
57.468,10.87
57.484,12.26
57.500,13.04
57.515,13.66
57.531,14.46
57.546,15.61
57.562,16.99
57.578,18.33
57.593,19.44
57.609,20.29
57.625,21.07
57.640,21.98
57.656,23.0
57.671,23.88
57.687,24.24
57.703,23.8
57.718,22.49
57.734,20.53
57.750,18.3
57.765,16.04
57.781,13.89
57.796,11.78
57.812,9.65
57.828,7.48
57.843,5.38
57.859,3.39
57.875,1.48
57.890,-0.49
57.906,-2.66
57.921,-5.06
57.937,-7.62
57.953,-10.18
57.968,-12.61
57.984,-14.83
58.000,-16.99
58.015,-19.26
58.031,-21.93
58.046,-25.22
58.062,-29.23
58.078,-33.8
58.093,-38.38
58.109,-42.07
58.125,-43.73
58.140,-42.36
58.156,-37.47
58.171,-29.3
58.187,-18.9
58.203,-7.73
58.218,2.73
58.234,11.42
58.250,17.93
58.265,22.5
58.281,25.75
58.296,28.37
58.312,30.87
58.328,33.38
58.343,35.77
58.359,37.77
58.375,39.18
58.390,39.99
58.406,40.38
58.421,40.53
58.437,40.63
58.453,40.75
58.468,40.86
58.484,40.91
58.500,40.88
58.515,40.7
58.531,40.33
58.546,39.71
58.562,38.71
58.578,37.24
58.593,35.28
58.609,32.83
58.625,29.9
58.640,26.54
58.656,22.75
58.671,18.56
58.687,14.01
58.703,9.09
58.718,3.73
58.734,-2.19
58.750,-8.72
58.765,-15.71
58.781,-22.77
58.796,-29.38
58.812,-35.15
58.828,-39.96
58.843,-44.08
58.859,-47.94
58.875,-51.99
58.890,-56.46
58.906,-61.23
58.921,-65.92
58.937,-69.98
58.953,-72.76
58.968,-73.57
58.984,-71.81
59.000,-67.14
59.015,-59.65
59.031,-50.07
59.046,-39.52
59.062,-29.23
59.078,-20.21
59.093,-12.86
59.109,-7.05
59.125,-2.3
59.140,1.89
59.156,5.81
59.171,9.42
59.187,12.61
59.203,15.28
59.218,17.49
59.234,19.39
59.250,21.05
59.265,22.43
59.281,23.36
59.296,23.69
59.312,23.42
59.328,22.67
59.343,21.65
59.359,20.48
59.375,19.19
59.390,17.65
59.406,15.66
59.421,13.11
59.437,10.01
59.453,6.51
59.468,2.93
59.484,-0.33
59.500,-2.9
59.515,-4.54
59.531,-5.33
59.546,-5.68
59.562,-6.13
59.578,-7.19
59.593,-9.06
59.609,-11.54
59.625,-14.2
59.640,-16.58
59.656,-18.44
59.671,-19.9
59.687,-21.32
59.703,-23.2
59.718,-25.91
59.734,-29.57
59.750,-34.01
59.765,-38.63
59.781,-42.6
59.796,-44.94
59.812,-44.85
59.828,-41.96
59.843,-36.38
59.859,-28.71
59.875,-19.85
59.890,-10.62
59.906,-1.68
59.921,6.61
59.937,14.05
59.953,20.6
59.968,26.17
59.984,30.7
