timestamp,value
00.000,-40.22
00.015,-46.37
00.031,-53.0
00.046,-58.55
00.062,-61.28
00.078,-59.8
00.093,-53.61
00.109,-43.14
00.125,-29.61
00.140,-14.49
00.156,1.09
00.171,16.67
00.187,32.59
00.203,49.73
00.218,69.11
00.234,91.18
00.250,115.04
00.265,137.94
00.281,155.59
00.296,163.4
00.312,158.34
00.328,140.73
00.343,114.84
00.359,87.76
00.375,66.98
00.390,57.85
00.406,62.27
00.421,78.89
00.437,104.5
00.453,135.25
00.468,167.24
00.484,196.42
00.500,218.51
00.515,229.66
00.531,227.53
00.546,212.22
00.562,186.2
00.578,153.15
00.593,116.58
00.609,78.85
00.625,41.23
00.640,4.39
00.656,-30.83
00.671,-63.24
00.687,-91.72
00.703,-115.63
00.718,-134.94
00.734,-149.95
00.750,-160.87
00.765,-167.8
00.781,-171.0
00.796,-171.4
00.812,-170.86
00.828,-171.74
00.843,-175.86
00.859,-183.6
00.875,-193.27
00.890,-201.8
00.906,-205.83
00.921,-203.04
00.937,-192.8
00.953,-175.96
00.968,-154.02
00.984,-128.21
01.000,-99.19
01.015,-67.42
01.031,-33.66
01.046,0.71
01.062,34.04
01.078,64.79
01.093,91.73
01.109,113.68
01.125,129.03
01.140,135.57
01.156,131.04
01.171,114.26
01.187,85.91
01.203,48.54
01.218,5.72
01.234,-38.97
01.250,-82.63
01.265,-122.83
01.281,-157.03
01.296,-182.34
01.312,-195.88
01.328,-196.06
01.343,-183.5
01.359,-161.3
01.375,-134.08
01.390,-106.51
01.406,-81.89
01.421,-61.65
01.437,-45.66
01.453,-33.01
01.468,-22.89
01.484,-14.97
01.500,-9.57
01.515,-7.32
01.531,-8.96
01.546,-14.78
01.562,-24.05
01.578,-35.04
01.593,-45.15
01.609,-51.81
01.625,-53.31
01.640,-49.31
01.656,-40.77
01.671,-29.42
01.687,-16.99
01.703,-4.81
01.718,6.18
01.734,15.32
01.750,21.93
01.765,25.38
01.781,25.17
01.796,21.29
01.812,14.23
01.828,4.97
01.843,-5.25
01.859,-15.33
01.875,-24.37
01.890,-31.65
01.906,-36.41
01.921,-37.74
01.937,-34.57
01.953,-26.01
01.968,-11.83
01.984,7.22
02.000,29.38
02.015,52.35
02.031,73.89
02.046,92.42
02.062,107.25
02.078,118.52
02.093,126.83
02.109,132.85
02.125,137.01
02.140,139.41
02.156,139.85
02.171,137.96
02.187,133.45
02.203,126.21
02.218,116.47
02.234,104.65
02.250,91.32
02.265,77.05
02.281,62.28
02.296,47.37
02.312,32.57
02.328,18.15
02.343,4.37
02.359,-8.61
02.375,-20.74
02.390,-32.19
02.406,-43.23
02.421,-54.18
02.437,-65.26
02.453,-76.48
02.468,-87.73
02.484,-98.71
02.500,-108.99
02.515,-117.87
02.531,-124.48
02.546,-127.76
02.562,-126.71
02.578,-120.68
02.593,-109.64
02.609,-94.21
02.625,-75.66
02.640,-55.57
02.656,-35.46
02.671,-16.52
02.687,0.5
02.703,15.26
02.718,27.64
02.734,37.58
02.750,44.98
02.765,49.78
02.781,51.99
02.796,51.81
02.812,49.66
02.828,46.11
02.843,41.78
02.859,37.22
02.875,32.81
02.890,28.73
02.906,24.99
02.921,21.43
02.937,17.81
02.953,13.89
02.968,9.55
02.984,4.84
03.000,-0.07
03.015,-4.95
03.031,-9.63
03.046,-14.13
03.062,-18.72
03.078,-23.79
03.093,-29.83
03.109,-37.08
03.125,-45.35
03.140,-53.94
03.156,-61.58
03.171,-66.68
03.187,-67.68
03.203,-63.51
03.218,-53.93
03.234,-39.71
03.250,-22.33
03.265,-3.68
03.281,14.53
03.296,31.06
03.312,45.28
03.328,56.99
03.343,66.18
03.359,72.87
03.375,77.04
03.390,78.76
03.406,78.22
03.421,75.73
03.437,71.72
03.453,66.61
03.468,60.78
03.484,54.62
03.500,48.49
03.515,42.64
03.531,37.18
03.546,31.98
03.562,26.71
03.578,21.03
03.593,14.74
03.609,7.86
03.625,0.63
03.640,-6.64
03.656,-13.79
03.671,-20.82
03.687,-27.91
03.703,-35.47
03.718,-43.88
03.734,-53.51
03.750,-64.36
03.765,-75.87
03.781,-86.78
03.796,-95.31
03.812,-99.55
03.828,-98.12
03.843,-90.73
03.859,-78.29
03.875,-62.66
03.890,-46.02
03.906,-30.22
03.921,-16.33
03.937,-4.62
03.953,5.12
03.968,13.22
03.984,19.81
04.000,24.81
04.015,28.07
04.031,29.63
04.046,29.84
04.062,29.3
04.078,28.74
04.093,28.64
04.109,29.11
04.125,29.86
04.140,30.44
04.156,30.42
04.171,29.58
04.187,28.02
04.203,25.97
04.218,23.63
04.234,21.11
04.250,18.29
04.265,14.96
04.281,10.99
04.296,6.21
04.312,0.58
04.328,-5.94
04.343,-13.34
04.359,-21.5
04.375,-30.11
04.390,-38.43
04.406,-45.36
04.421,-49.53
04.437,-49.57
04.453,-44.64
04.468,-34.66
04.484,-20.46
04.500,-3.57
04.515,14.16
04.531,31.08
04.546,46.04
04.562,58.35
04.578,67.76
04.593,74.16
04.609,77.5
04.625,77.79
04.640,75.18
04.656,70.11
04.671,63.23
04.687,55.37
04.703,47.29
04.718,39.55
04.734,32.34
04.750,25.64
04.765,19.15
04.781,12.5
04.796,5.43
04.812,-2.12
04.828,-9.97
04.843,-17.81
04.859,-25.25
04.875,-32.12
04.890,-38.41
04.906,-44.3
04.921,-50.12
04.937,-56.13
04.953,-62.53
04.968,-69.45
04.984,-76.76
05.000,-84.1
05.015,-90.67
05.031,-95.27
05.046,-96.51
05.062,-93.16
05.078,-84.54
05.093,-70.92
05.109,-53.49
05.125,-34.07
05.140,-14.59
05.156,3.31
05.171,18.65
05.187,31.08
05.203,40.65
05.218,47.58
05.234,52.08
05.250,54.31
05.265,54.46
05.281,52.85
05.296,49.97
05.312,46.42
05.328,42.8
05.343,39.53
05.359,36.76
05.375,34.35
05.390,31.96
05.406,29.24
05.421,25.91
05.437,21.9
05.453,17.29
05.468,12.26
05.484,6.99
05.500,1.55
05.515,-4.04
05.531,-9.89
05.546,-16.04
05.562,-22.58
05.578,-29.59
05.593,-37.28
05.609,-45.87
05.625,-55.43
05.640,-65.62
05.656,-75.44
05.671,-83.32
05.687,-87.38
05.703,-86.1
05.718,-78.83
05.734,-66.06
05.750,-49.34
05.765,-30.74
05.781,-12.28
05.796,4.55
05.812,19.03
05.828,31.01
05.843,40.72
05.859,48.37
05.875,54.1
05.890,57.89
05.906,59.69
05.921,59.57
05.937,57.77
05.953,54.72
05.968,50.94
05.984,46.92
06.000,42.92
06.015,39.09
06.031,35.35
06.046,31.6
06.062,27.69
06.078,23.5
06.093,18.92
06.109,13.81
06.125,8.05
06.140,1.54
06.156,-5.62
06.171,-13.18
06.187,-20.78
06.203,-28.13
06.218,-35.17
06.234,-42.14
06.250,-49.54
06.265,-57.74
06.281,-66.81
06.296,-76.15
06.312,-84.51
06.328,-90.18
06.343,-91.47
06.359,-87.25
06.375,-77.27
06.390,-62.31
06.406,-43.88
06.421,-23.86
06.437,-3.93
06.453,14.65
06.468,31.13
06.484,45.15
06.500,56.5
06.515,65.05
06.531,70.83
06.546,74.04
06.562,75.11
06.578,74.67
06.593,73.33
06.609,71.46
06.625,69.21
06.640,66.51
06.656,63.27
06.671,59.51
06.687,55.42
06.703,51.24
06.718,47.11
06.734,42.98
06.750,38.63
06.765,33.79
06.781,28.31
06.796,22.17
06.812,15.57
06.828,8.81
06.843,2.11
06.859,-4.33
06.875,-10.53
06.890,-16.62
06.906,-22.97
06.921,-30.01
06.937,-38.14
06.953,-47.44
06.968,-57.44
06.984,-67.02
07.000,-74.57
07.015,-78.41
07.031,-77.24
07.046,-70.63
07.062,-59.14
07.078,-44.18
07.093,-27.59
07.109,-11.11
07.125,3.95
07.140,16.92
07.156,27.6
07.171,36.06
07.187,42.39
07.203,46.65
07.218,48.93
07.234,49.43
07.250,48.53
07.265,46.65
07.281,44.24
07.296,41.55
07.312,38.66
07.328,35.6
07.343,32.42
07.359,29.24
07.375,26.18
07.390,23.25
07.406,20.23
07.421,16.8
07.437,12.54
07.453,7.29
07.468,1.14
07.484,-5.54
07.500,-12.22
07.515,-18.51
07.531,-24.26
07.546,-29.76
07.562,-35.47
07.578,-41.96
07.593,-49.53
07.609,-58.14
07.625,-67.28
07.640,-75.99
07.656,-83.0
07.671,-86.99
07.687,-86.77
07.703,-81.66
07.718,-71.78
07.734,-58.04
07.750,-42.01
07.765,-25.56
07.781,-10.3
07.796,2.68
07.812,13.01
07.828,20.76
07.843,26.21
07.859,29.56
07.875,30.89
07.890,30.3
07.906,28.07
07.921,24.72
07.937,20.84
07.953,17.0
07.968,13.53
07.984,10.46
08.000,7.7
08.015,5.1
08.031,2.64
08.046,0.36
08.062,-1.68
08.078,-3.62
08.093,-5.7
08.109,-8.27
08.125,-11.6
08.140,-15.69
08.156,-20.23
08.171,-24.74
08.187,-28.7
08.203,-31.79
08.218,-34.03
08.234,-35.8
08.250,-37.75
08.265,-40.55
08.281,-44.67
08.296,-50.14
08.312,-56.29
08.328,-61.82
08.343,-64.94
08.359,-63.86
08.375,-57.28
08.390,-44.89
08.406,-27.47
08.421,-6.69
08.437,15.42
08.453,36.95
08.468,56.54
08.484,73.41
08.500,87.3
08.515,98.18
08.531,106.12
08.546,111.28
08.562,113.83
08.578,114.12
08.593,112.55
08.609,109.63
08.625,105.77
08.640,101.25
08.656,96.25
08.671,90.8
08.687,84.93
08.703,78.67
08.718,72.15
08.734,65.52
08.750,58.85
08.765,52.06
08.781,44.86
08.796,36.93
08.812,28.0
08.828,18.12
08.843,7.64
08.859,-2.92
08.875,-12.97
08.890,-22.29
08.906,-31.04
08.921,-39.76
08.937,-49.11
08.953,-59.5
08.968,-70.82
08.984,-82.23
09.000,-92.32
09.015,-99.35
09.031,-101.78
09.046,-98.73
09.062,-90.19
09.078,-77.15
09.093,-61.21
09.109,-44.18
09.125,-27.61
09.140,-12.63
09.156,0.13
09.171,10.39
09.187,17.99
09.203,22.92
09.218,25.24
09.234,25.26
09.250,23.5
09.265,20.69
09.281,17.5
09.296,14.46
09.312,11.79
09.328,9.52
09.343,7.58
09.359,5.86
09.375,4.29
09.390,2.76
09.406,1.08
09.421,-1.0
09.437,-3.66
09.453,-6.89
09.468,-10.41
09.484,-13.7
09.500,-16.17
09.515,-17.25
09.531,-16.46
09.546,-13.56
09.562,-8.49
09.578,-1.42
09.593,7.17
09.609,16.57
09.625,26.05
09.640,34.93
09.656,42.92
09.671,50.16
09.687,57.08
09.703,64.22
09.718,71.99
09.734,80.59
09.750,89.89
09.765,99.63
09.781,109.41
09.796,118.85
09.812,127.56
09.828,135.2
09.843,141.45
09.859,146.09
09.875,148.88
09.890,149.55
09.906,147.87
09.921,143.83
09.937,137.86
09.953,131.01
09.968,124.87
09.984,121.03
10.000,120.41
10.015,122.43
10.031,124.9
10.046,124.4
10.062,117.41
10.078,101.61
10.093,76.72
10.109,44.51
10.125,8.04
10.140,-29.51
10.156,-65.89
10.171,-100.15
10.187,-132.37
10.203,-163.32
10.218,-194.16
10.234,-226.35
10.250,-261.51
10.265,-300.58
10.281,-342.59
10.296,-383.65
10.312,-417.01
10.328,-434.6
10.343,-429.74
10.359,-399.7
10.375,-346.97
10.390,-278.54
10.406,-203.51
10.421,-130.23
10.437,-64.41
10.453,-8.68
10.468,36.66
10.484,72.38
10.500,99.51
10.515,119.18
10.531,133.01
10.546,143.06
10.562,151.35
10.578,158.68
10.593,164.05
10.609,164.82
10.625,157.89
10.640,141.52
10.656,116.55
10.671,86.22
10.687,54.79
10.703,25.52
10.718,-0.95
10.734,-26.94
10.750,-56.56
10.765,-93.54
10.781,-138.81
10.796,-189.37
10.812,-238.61
10.828,-278.52
10.843,-302.56
10.859,-308.14
10.875,-297.52
10.890,-276.74
10.906,-253.21
10.921,-232.78
10.937,-218.11
10.953,-208.61
10.968,-201.78
10.984,-194.78
11.000,-185.52
11.015,-172.83
11.031,-156.15
11.046,-135.23
11.062,-110.1
11.078,-81.43
11.093,-50.73
11.109,-20.17
11.125,7.84
11.140,31.29
11.156,49.16
11.171,61.62
11.187,69.83
11.203,75.53
11.218,80.36
11.234,85.37
11.250,90.8
11.265,96.14
11.281,100.57
11.296,103.43
11.312,104.56
11.328,104.37
11.343,103.64
11.359,103.18
11.375,103.46
11.390,104.46
11.406,105.73
11.421,106.65
11.437,106.74
11.453,105.89
11.468,104.35
11.484,102.56
11.500,100.91
11.515,99.58
11.531,98.48
11.546,97.38
11.562,96.05
11.578,94.38
11.593,92.36
11.609,90.08
11.625,87.57
11.640,84.82
11.656,81.78
11.671,78.34
11.687,74.46
11.703,70.16
11.718,65.62
11.734,61.1
11.750,56.91
11.765,53.22
11.781,50.06
11.796,47.23
11.812,44.45
11.828,41.45
11.843,38.11
11.859,34.54
11.875,30.92
11.890,27.4
11.906,23.95
11.921,20.46
11.937,16.84
11.953,13.17
11.968,9.76
11.984,7.04
12.000,5.38
12.015,4.84
12.031,5.14
12.046,5.68
12.062,5.75
12.078,4.81
12.093,2.62
12.109,-0.84
12.125,-5.43
12.140,-10.84
12.156,-16.4
12.171,-20.87
12.187,-22.38
12.203,-18.73
12.218,-8.05
12.234,10.32
12.250,35.29
12.265,64.18
12.281,93.49
12.296,120.09
12.312,141.82
12.328,157.61
12.343,166.79
12.359,168.5
12.375,161.45
12.390,144.66
12.406,118.51
12.421,85.58
12.437,50.55
12.453,18.98
12.468,-4.49
12.484,-17.71
12.500,-21.37
12.515,-18.26
12.531,-11.91
12.546,-5.4
12.562,-0.97
12.578,-0.34
12.593,-4.95
12.609,-15.93
12.625,-33.54
12.640,-56.39
12.656,-81.27
12.671,-103.92
12.687,-120.36
12.703,-128.43
12.718,-128.6
12.734,-123.49
12.750,-116.53
12.765,-110.42
12.781,-106.06
12.796,-102.54
12.812,-98.12
12.828,-91.65
12.843,-83.59
12.859,-76.13
12.875,-72.23
12.890,-74.01
12.906,-81.42
12.921,-91.91
12.937,-101.37
12.953,-105.84
12.968,-103.18
12.984,-93.69
13.000,-79.78
13.015,-64.6
13.031,-50.81
13.046,-39.92
13.062,-32.29
13.078,-27.72
13.093,-25.9
13.109,-26.59
13.125,-29.39
13.140,-33.42
13.156,-37.22
13.171,-39.08
13.187,-37.54
13.203,-32.1
13.218,-23.59
13.234,-14.15
13.250,-6.61
13.265,-3.49
13.281,-5.95
13.296,-13.16
13.312,-22.47
13.328,-30.36
13.343,-33.71
13.359,-30.94
13.375,-22.25
13.390,-9.21
13.406,6.13
13.421,22.16
13.437,38.02
13.453,53.47
13.468,68.5
13.484,82.95
13.500,96.43
13.515,108.51
13.531,118.81
13.546,127.09
13.562,133.22
13.578,137.1
13.593,138.64
13.609,137.86
13.625,135.02
13.640,130.54
13.656,125.1
13.671,119.45
13.687,114.34
13.703,110.39
13.718,107.87
13.734,106.6
13.750,105.76
13.765,103.9
13.781,99.23
13.796,90.06
13.812,75.28
13.828,54.77
13.843,29.55
13.859,1.55
13.875,-26.66
13.890,-52.32
13.906,-72.9
13.921,-86.4
13.937,-91.68
13.953,-88.74
13.968,-78.73
13.984,-63.9
14.000,-47.02
14.015,-30.9
14.031,-17.81
14.046,-9.19
14.062,-5.61
14.078,-6.87
14.093,-12.26
14.109,-20.71
14.125,-30.95
14.140,-41.64
14.156,-51.52
14.171,-59.58
14.187,-65.03
14.203,-67.41
14.218,-66.42
14.234,-62.11
14.250,-54.72
14.265,-44.86
14.281,-33.23
14.296,-20.57
14.312,-7.28
14.328,6.6
14.343,21.16
14.359,36.29
14.375,51.5
14.390,65.96
14.406,78.95
14.421,90.38
14.437,100.99
14.453,112.32
14.468,126.26
14.484,144.43
14.500,167.9
14.515,196.96
14.531,231.25
14.546,269.48
14.562,309.19
14.578,346.55
14.593,376.72
14.609,395.13
14.625,398.9
14.640,388.16
14.656,366.19
14.671,338.43
14.687,310.64
14.703,287.03
14.718,269.3
14.734,256.68
14.750,247.0
14.765,237.94
14.781,227.91
14.796,216.29
14.812,203.19
14.828,188.97
14.843,173.84
14.859,157.74
14.875,140.27
14.890,120.87
14.906,99.03
14.921,74.65
14.937,48.05
14.953,19.93
14.968,-9.03
14.984,-38.47
15.000,-68.61
15.015,-100.22
15.031,-134.27
15.046,-171.68
15.062,-213.32
15.078,-260.14
15.093,-312.95
15.109,-371.45
15.125,-433.06
15.140,-492.11
15.156,-540.64
15.171,-570.62
15.187,-577.08
15.203,-560.17
15.218,-525.17
15.234,-480.24
15.250,-433.14
15.265,-388.78
15.281,-348.75
15.296,-312.63
15.312,-280.02
15.328,-251.66
15.343,-229.14
15.359,-213.58
15.375,-204.41
15.390,-199.32
15.406,-195.4
15.421,-190.72
15.437,-185.41
15.453,-181.52
15.468,-181.84
15.484,-188.19
15.500,-200.23
15.515,-215.29
15.531,-229.19
15.546,-237.85
15.562,-238.43
15.578,-229.98
15.593,-213.14
15.609,-189.33
15.625,-160.07
15.640,-126.81
15.656,-91.02
15.671,-54.4
15.687,-18.92
15.703,13.53
15.718,41.52
15.734,64.35
15.750,82.09
15.765,95.36
15.781,105.0
15.796,111.85
15.812,116.66
15.828,119.97
15.843,122.22
15.859,123.58
15.875,124.01
15.890,123.3
15.906,121.27
15.921,117.96
15.937,113.72
15.953,109.09
15.968,104.5
15.984,100.1
16.000,95.52
16.015,89.96
16.031,82.66
16.046,73.23
16.062,62.09
16.078,50.49
16.093,40.19
16.109,32.91
16.125,29.82
16.140,31.21
16.156,36.56
16.171,44.9
16.187,55.25
16.203,66.96
16.218,79.65
16.234,93.1
16.250,106.89
16.265,120.3
16.281,132.31
16.296,141.95
16.312,148.51
16.328,151.76
16.343,151.92
16.359,149.54
16.375,145.22
16.390,139.44
16.406,132.45
16.421,124.26
16.437,114.82
16.453,104.26
16.468,92.98
16.484,81.78
16.500,71.53
16.515,62.92
16.531,56.05
16.546,50.37
16.562,44.86
16.578,38.4
16.593,30.29
16.609,20.47
16.625,9.52
16.640,-1.58
16.656,-11.76
16.671,-20.05
16.687,-25.64
16.703,-27.95
16.718,-26.49
16.734,-20.99
16.750,-11.29
16.765,2.6
16.781,20.57
16.796,42.34
16.812,67.2
16.828,93.85
16.843,120.27
16.859,144.02
16.875,162.89
16.890,175.74
16.906,183.1
16.921,187.09
16.937,190.6
16.953,196.11
16.968,204.58
16.984,214.97
17.000,224.63
17.015,230.33
17.031,229.31
17.046,220.04
17.062,202.77
17.078,179.62
17.093,154.4
17.109,131.74
17.125,115.73
17.140,108.25
17.156,107.85
17.171,109.95
17.187,108.41
17.203,98.02
17.218,76.5
17.234,45.04
17.250,7.16
17.265,-33.35
17.281,-74.29
17.296,-115.55
17.312,-158.32
17.328,-203.23
17.343,-248.93
17.359,-291.64
17.375,-326.23
17.390,-348.03
17.406,-354.73
17.421,-347.25
17.437,-329.45
17.453,-306.48
17.468,-282.89
17.484,-261.1
17.500,-241.38
17.515,-222.71
17.531,-204.26
17.546,-186.34
17.562,-170.25
17.578,-157.38
17.593,-148.1
17.609,-141.23
17.625,-134.62
17.640,-126.17
17.656,-114.87
17.671,-101.21
17.687,-86.98
17.703,-74.36
17.718,-65.01
17.734,-59.51
17.750,-57.3
17.765,-57.13
17.781,-57.64
17.796,-57.87
17.812,-57.57
17.828,-57.06
17.843,-57.02
17.859,-58.05
17.875,-60.43
17.890,-64.11
17.906,-68.7
17.921,-73.74
17.937,-78.53
17.953,-82.15
17.968,-83.34
17.984,-80.64
18.000,-72.73
18.015,-58.87
18.031,-39.22
18.046,-14.86
18.062,12.59
18.078,41.48
18.093,70.64
18.109,99.47
18.125,127.8
18.140,155.52
18.156,182.3
18.171,207.5
18.187,230.31
18.203,249.96
18.218,265.88
18.234,277.73
18.250,285.42
18.265,289.04
18.281,288.84
18.296,285.35
18.312,279.35
18.328,271.86
18.343,263.86
18.359,255.94
18.375,248.05
18.390,239.38
18.406,228.64
18.421,214.41
18.437,195.63
18.453,172.04
18.468,144.29
18.484,113.98
18.500,83.27
18.515,54.46
18.531,29.41
18.546,9.28
18.562,-5.71
18.578,-16.24
18.593,-23.63
18.609,-29.51
18.625,-35.31
18.640,-41.67
18.656,-47.98
18.671,-52.4
18.687,-52.29
18.703,-45.35
18.718,-30.69
18.734,-9.51
18.750,15.19
18.765,39.64
18.781,60.67
18.796,76.67
18.812,87.7
18.828,94.89
18.843,99.56
18.859,102.69
18.875,104.63
18.890,105.15
18.906,103.66
18.921,99.37
18.937,91.62
18.953,80.3
18.968,65.99
18.984,49.85
19.000,33.13
19.015,16.39
19.031,-0.87
19.046,-19.88
19.062,-41.85
19.078,-67.13
19.093,-94.85
19.109,-123.28
19.125,-150.61
19.140,-175.48
19.156,-197.07
19.171,-214.68
19.187,-227.27
19.203,-233.54
19.218,-232.49
19.234,-224.25
19.250,-210.58
19.265,-194.67
19.281,-180.34
19.296,-170.76
19.312,-167.64
19.328,-170.74
19.343,-178.38
19.359,-188.06
19.375,-197.35
19.390,-204.4
19.406,-208.38
19.421,-209.28
19.437,-207.69
19.453,-204.36
19.468,-199.77
19.484,-194.08
19.500,-187.12
19.515,-178.81
19.531,-169.41
19.546,-159.69
19.562,-150.66
19.578,-143.29
19.593,-138.04
19.609,-134.61
19.625,-132.09
19.640,-129.22
19.656,-124.79
19.671,-117.97
19.687,-108.38
19.703,-96.06
19.718,-81.39
19.734,-65.06
19.750,-48.0
19.765,-31.34
19.781,-16.19
19.796,-3.52
19.812,6.23
19.828,13.16
19.843,17.97
19.859,21.63
19.875,25.07
19.890,28.89
19.906,33.24
19.921,37.87
19.937,42.4
19.953,46.54
19.968,50.18
19.984,53.43
20.000,56.47
20.015,59.37
20.031,62.1
20.046,64.49
20.062,66.33
20.078,67.54
20.093,68.14
20.109,68.22
20.125,67.94
20.140,67.46
20.156,66.98
20.171,66.78
20.187,67.06
20.203,67.97
20.218,69.46
20.234,71.25
20.250,72.82
20.265,73.67
20.281,73.35
20.296,71.66
20.312,68.74
20.328,64.93
20.343,60.67
20.359,56.27
20.375,51.91
20.390,47.54
20.406,43.06
20.421,38.39
20.437,33.57
20.453,28.79
20.468,24.19
20.484,19.8
20.500,15.43
20.515,10.76
20.531,5.44
20.546,-0.68
20.562,-7.58
20.578,-15.03
20.593,-22.72
20.609,-30.39
20.625,-37.88
20.640,-45.17
20.656,-52.31
20.671,-59.56
20.687,-67.29
20.703,-76.0
20.718,-86.14
20.734,-97.75
20.750,-110.17
20.765,-121.81
20.781,-130.34
20.796,-133.27
20.812,-128.7
20.828,-116.01
20.843,-96.1
20.859,-71.26
20.875,-44.36
20.890,-18.12
20.906,5.43
20.921,25.16
20.937,40.63
20.953,51.79
20.968,58.88
20.984,62.32
21.000,62.82
21.015,61.27
21.031,58.65
21.046,55.81
21.062,53.2
21.078,50.96
21.093,48.9
21.109,46.72
21.125,44.21
21.140,41.24
21.156,37.79
21.171,33.86
21.187,29.45
21.203,24.46
21.218,18.92
21.234,12.85
21.250,6.42
21.265,-0.12
21.281,-6.54
21.296,-12.66
21.312,-18.51
21.328,-24.39
21.343,-30.72
21.359,-38.01
21.375,-46.54
21.390,-56.24
21.406,-66.41
21.421,-75.8
21.437,-82.7
21.453,-85.38
21.468,-82.54
21.484,-73.66
21.500,-59.29
21.515,-40.82
21.531,-20.16
21.546,0.78
21.562,20.4
21.578,37.65
21.593,51.97
21.609,63.07
21.625,70.88
21.640,75.42
21.656,76.85
21.671,75.55
21.687,72.18
21.703,67.48
21.718,62.31
21.734,57.38
21.750,53.08
21.765,49.52
21.781,46.45
21.796,43.51
21.812,40.36
21.828,36.81
21.843,32.81
21.859,28.41
21.875,23.7
21.890,18.71
21.906,13.49
21.921,8.0
21.937,2.27
21.953,-3.79
21.968,-10.33
21.984,-17.62
22.000,-26.05
22.015,-35.89
22.031,-47.17
22.046,-59.41
22.062,-71.56
22.078,-81.96
22.093,-88.66
22.109,-89.84
22.125,-84.32
22.140,-72.01
22.156,-53.94
22.171,-32.05
22.187,-8.59
22.203,14.45
22.218,35.7
22.234,54.47
22.250,70.55
22.265,83.87
22.281,94.33
22.296,101.77
22.312,106.1
22.328,107.49
22.343,106.42
22.359,103.57
22.375,99.63
22.390,95.11
22.406,90.2
22.421,84.91
22.437,79.16
22.453,72.94
22.468,66.35
22.484,59.59
22.500,52.77
22.515,45.88
22.531,38.76
22.546,31.18
22.562,22.99
22.578,14.12
22.593,4.66
22.609,-5.36
22.625,-15.94
22.640,-27.26
22.656,-39.58
22.671,-52.94
22.687,-67.04
22.703,-80.95
22.718,-93.17
22.734,-101.81
22.750,-105.08
22.765,-101.72
22.781,-91.47
22.796,-75.13
22.812,-54.43
22.828,-31.54
22.843,-8.65
22.859,12.51
22.875,30.87
22.890,46.01
22.906,57.93
22.921,66.84
22.937,72.93
22.953,76.35
22.968,77.23
22.984,75.8
23.000,72.52
23.015,68.02
23.031,63.03
23.046,58.16
23.062,53.81
23.078,50.07
23.093,46.82
23.109,43.75
23.125,40.46
23.140,36.54
23.156,31.65
23.171,25.59
23.187,18.37
23.203,10.27
23.218,1.66
23.234,-7.06
23.250,-15.68
23.265,-24.22
23.281,-32.95
23.296,-42.27
23.312,-52.53
23.328,-63.81
23.343,-75.68
23.359,-87.12
23.375,-96.47
23.390,-101.81
23.406,-101.35
23.421,-94.06
23.437,-80.03
23.453,-60.6
23.468,-37.87
23.484,-14.14
23.500,8.64
23.515,29.25
23.531,47.12
23.546,62.1
23.562,74.11
23.578,83.04
23.593,88.81
23.609,91.55
23.625,91.74
23.640,90.09
23.656,87.38
23.671,84.13
23.687,80.46
23.703,76.23
23.718,71.18
23.734,65.26
23.750,58.78
23.765,52.3
23.781,46.41
23.796,41.36
23.812,36.95
23.828,32.53
23.843,27.25
23.859,20.54
23.875,12.25
23.890,2.87
23.906,-6.85
23.921,-16.08
23.937,-24.39
23.953,-31.86
23.968,-39.09
23.984,-46.94
24.000,-56.24
24.015,-67.42
24.031,-80.31
24.046,-93.95
24.062,-106.64
24.078,-116.15
24.093,-120.22
24.109,-117.14
24.125,-106.34
24.140,-88.56
24.156,-65.76
24.171,-40.46
24.187,-15.05
24.203,8.77
24.218,30.11
24.234,48.73
24.250,64.63
24.265,77.78
24.281,88.12
24.296,95.6
24.312,100.47
24.328,103.23
24.343,104.64
24.359,105.45
24.375,106.19
24.390,107.13
24.406,108.27
24.421,109.56
24.437,110.9
24.453,112.45
24.468,114.46
24.484,117.34
24.500,121.54
24.515,127.5
24.531,135.49
24.546,145.59
24.562,157.55
24.578,170.65
24.593,183.72
24.609,195.21
24.625,203.57
24.640,207.77
24.656,207.7
24.671,203.92
24.687,197.36
24.703,188.5
24.718,176.91
24.734,161.46
24.750,140.67
24.765,113.31
24.781,78.59
24.796,36.16
24.812,-13.45
24.828,-68.07
24.843,-123.04
24.859,-171.11
24.875,-203.8
24.890,-213.89
24.906,-197.82
24.921,-156.88
24.937,-96.51
24.953,-24.24
24.968,52.26
24.984,126.1
25.000,190.98
25.015,241.07
25.031,271.44
25.046,279.7
25.062,267.35
25.078,239.85
25.093,205.13
25.109,170.76
25.125,141.5
25.140,118.56
25.156,100.44
25.171,84.43
25.187,68.34
25.203,51.01
25.218,31.99
25.234,11.14
25.250,-11.86
25.265,-37.53
25.281,-66.44
25.296,-98.85
25.312,-134.31
25.328,-171.28
25.343,-207.12
25.359,-238.6
25.375,-262.84
25.390,-278.13
25.406,-284.52
25.421,-283.35
25.437,-276.41
25.453,-264.98
25.468,-249.41
25.484,-229.49
25.500,-205.32
25.515,-177.98
25.531,-149.6
25.546,-122.65
25.562,-98.9
25.578,-78.78
25.593,-61.43
25.609,-45.38
25.625,-29.65
25.640,-14.38
25.656,-0.88
25.671,8.87
25.687,13.12
25.703,11.19
25.718,3.72
25.734,-7.61
25.750,-20.68
25.765,-33.65
25.781,-45.4
25.796,-55.53
25.812,-64.09
25.828,-71.27
25.843,-77.16
25.859,-81.74
25.875,-85.04
25.890,-87.26
25.906,-88.73
25.921,-89.79
25.937,-90.71
25.953,-91.64
25.968,-92.66
25.984,-93.91
26.000,-95.72
26.015,-98.65
26.031,-103.31
26.046,-110.15
26.062,-119.08
26.078,-129.24
26.093,-138.99
26.109,-146.12
26.125,-148.33
26.140,-143.98
26.156,-132.51
26.171,-114.67
26.187,-92.25
26.203,-67.52
26.218,-42.65
26.234,-19.26
26.250,1.6
26.265,19.32
26.281,33.5
26.296,43.86
26.312,50.33
26.328,53.22
26.343,53.29
26.359,51.64
26.375,49.54
26.390,48.04
26.406,47.78
26.421,48.91
26.437,51.2
26.453,54.12
26.468,57.1
26.484,59.64
26.500,61.47
26.515,62.51
26.531,62.8
26.546,62.49
26.562,61.73
26.578,60.71
26.593,59.64
26.609,58.75
26.625,58.21
26.640,58.0
26.656,57.91
26.671,57.6
26.687,56.68
26.703,54.91
26.718,52.23
26.734,48.82
26.750,44.96
26.765,41.03
26.781,37.35
26.796,34.26
26.812,32.02
26.828,30.74
26.843,30.32
26.859,30.38
26.875,30.43
26.890,29.99
26.906,28.76
26.921,26.71
26.937,24.11
26.953,21.28
26.968,18.5
26.984,15.86
27.000,13.26
27.015,10.5
27.031,7.35
27.046,3.72
27.062,-0.39
27.078,-4.8
27.093,-9.27
27.109,-13.64
27.125,-17.92
27.140,-22.34
27.156,-27.28
27.171,-33.22
27.187,-40.42
27.203,-48.86
27.218,-58.15
27.234,-67.62
27.250,-76.61
27.265,-84.62
27.281,-91.58
27.296,-97.7
27.312,-103.47
27.328,-109.54
27.343,-116.57
27.359,-125.19
27.375,-135.64
27.390,-147.48
27.406,-159.31
27.421,-168.69
27.437,-172.73
27.453,-168.88
27.468,-155.89
27.484,-134.37
27.500,-106.66
27.515,-76.04
27.531,-45.84
27.546,-18.55
27.562,4.43
27.578,22.61
27.593,36.04
27.609,44.97
27.625,49.72
27.640,50.83
27.656,49.1
27.671,45.64
27.687,41.6
27.703,37.96
27.718,35.16
27.734,33.12
27.750,31.35
27.765,29.22
27.781,26.37
27.796,22.78
27.812,18.73
27.828,14.56
27.843,10.47
27.859,6.34
27.875,1.79
27.890,-3.5
27.906,-9.66
27.921,-16.53
27.937,-23.82
27.953,-31.31
27.968,-39.06
27.984,-47.43
28.000,-56.93
28.015,-67.82
28.031,-79.85
28.046,-92.08
28.062,-102.84
28.078,-110.1
28.093,-111.88
28.109,-106.95
28.125,-95.19
28.140,-77.75
28.156,-56.71
28.171,-34.54
28.187,-13.38
28.203,5.32
28.218,20.88
28.234,33.06
28.250,41.71
28.265,46.67
28.281,47.81
28.296,45.39
28.312,40.17
28.328,33.4
28.343,26.39
28.359,20.19
28.375,15.25
28.390,11.41
28.406,8.13
28.421,4.76
28.437,0.85
28.453,-3.79
28.468,-9.08
28.484,-14.69
28.500,-20.32
28.515,-25.7
28.531,-30.74
28.546,-35.57
28.562,-40.58
28.578,-46.3
28.593,-53.26
28.609,-61.9
28.625,-72.28
28.640,-83.95
28.656,-95.76
28.671,-105.83
28.687,-111.85
28.703,-111.61
28.718,-103.71
28.734,-88.08
28.750,-66.19
28.765,-40.53
28.781,-13.95
28.796,11.22
28.812,33.55
28.828,52.52
28.843,68.12
28.859,80.47
28.875,89.45
28.890,94.85
28.906,96.58
28.921,94.91
28.937,90.59
28.953,84.68
28.968,78.23
28.984,71.97
29.000,66.25
29.015,60.94
29.031,55.68
29.046,50.16
29.062,44.22
29.078,37.88
29.093,31.24
29.109,24.37
29.125,17.23
29.140,9.66
29.156,1.44
29.171,-7.62
29.187,-17.67
29.203,-28.88
29.218,-41.35
29.234,-55.01
29.250,-69.35
29.265,-83.23
29.281,-94.83
29.296,-101.93
29.312,-102.52
29.328,-95.37
29.343,-80.59
29.359,-59.56
29.375,-34.55
29.390,-8.08
29.406,17.67
29.421,41.19
29.437,61.61
29.453,78.38
29.468,91.1
29.484,99.38
29.500,103.12
29.515,102.61
29.531,98.75
29.546,92.78
29.562,86.06
29.578,79.6
29.593,73.84
29.609,68.67
29.625,63.6
29.640,58.14
29.656,52.03
29.671,45.29
29.687,38.14
29.703,30.91
29.718,23.76
29.734,16.61
29.750,9.1
29.765,0.78
29.781,-8.83
29.796,-20.08
29.812,-33.12
29.828,-47.77
29.843,-63.48
29.859,-79.19
29.875,-93.23
29.890,-103.52
29.906,-107.81
29.921,-104.42
29.937,-92.67
29.953,-73.27
29.968,-48.11
29.984,-19.82
30.000,8.99
30.015,36.24
30.031,60.59
30.046,81.28
30.062,97.79
30.078,109.7
30.093,116.67
30.109,118.75
30.125,116.5
30.140,111.09
30.156,104.03
30.171,96.75
30.187,90.22
30.203,84.82
30.218,80.31
30.234,76.13
30.250,71.76
30.265,66.84
30.281,61.4
30.296,55.68
30.312,50.06
30.328,44.83
30.343,40.03
30.359,35.48
30.375,30.78
30.390,25.55
30.406,19.48
30.421,12.51
30.437,4.86
30.453,-2.79
30.468,-9.3
30.484,-12.97
30.500,-11.85
30.515,-4.11
30.531,11.5
30.546,35.21
30.562,66.11
30.578,102.3
30.593,141.24
30.609,180.14
30.625,216.13
30.640,246.42
30.656,268.56
30.671,280.75
30.687,282.31
30.703,274.0
30.718,257.89
30.734,236.79
30.750,213.42
30.765,189.51
30.781,165.36
30.796,139.98
30.812,111.69
30.828,79.01
30.843,41.39
30.859,-0.49
30.875,-45.02
30.890,-90.25
30.906,-134.63
30.921,-177.57
30.937,-219.48
30.953,-261.72
30.968,-306.15
30.984,-354.25
31.000,-406.15
31.015,-459.85
31.031,-511.05
31.046,-553.85
31.062,-582.35
31.078,-592.43
31.093,-583.0
31.109,-556.32
31.125,-516.94
31.140,-470.21
31.156,-420.84
31.171,-371.96
31.187,-325.19
31.203,-281.11
31.218,-239.81
31.234,-201.36
31.250,-166.03
31.265,-134.25
31.281,-106.68
31.296,-84.11
31.312,-67.23
31.328,-56.35
31.343,-51.17
31.359,-50.73
31.375,-53.52
31.390,-57.68
31.406,-61.33
31.421,-62.97
31.437,-61.71
31.453,-57.39
31.468,-50.56
31.484,-42.28
31.500,-33.86
31.515,-26.51
31.531,-21.11
31.546,-18.03
31.562,-17.15
31.578,-18.01
31.593,-20.08
31.609,-23.06
31.625,-26.93
31.640,-31.95
31.656,-38.26
31.671,-45.49
31.687,-52.49
31.703,-57.5
31.718,-58.54
31.734,-54.16
31.750,-43.96
31.765,-28.76
31.781,-10.25
31.796,9.58
31.812,29.18
31.828,47.75
31.843,65.25
31.859,82.28
31.875,99.64
31.890,117.99
31.906,137.6
31.921,158.0
31.937,177.97
31.953,195.79
31.968,209.75
31.984,218.77
32.000,222.89
32.015,223.22
32.031,221.51
32.046,219.43
32.062,217.93
32.078,217.1
32.093,216.46
32.109,215.36
32.125,213.33
32.140,210.15
32.156,205.64
32.171,199.49
32.187,191.28
32.203,180.61
32.218,167.29
32.234,151.45
32.250,133.54
32.265,114.28
32.281,94.67
32.296,75.98
32.312,59.83
32.328,48.01
32.343,42.13
32.359,43.19
32.375,51.15
32.390,64.87
32.406,82.32
32.421,101.18
32.437,119.24
32.453,134.85
32.468,147.01
32.484,155.18
32.500,159.21
32.515,159.18
32.531,155.45
32.546,148.7
32.562,139.92
32.578,130.18
32.593,120.5
32.609,111.6
32.625,103.74
32.640,96.8
32.656,90.37
32.671,83.91
32.687,76.98
32.703,69.3
32.718,60.86
32.734,51.87
32.750,42.71
32.765,33.72
32.781,25.1
32.796,16.74
32.812,8.26
32.828,-0.88
32.843,-11.18
32.859,-22.83
32.875,-35.51
32.890,-48.3
32.906,-59.7
32.921,-67.79
32.937,-70.66
32.953,-66.92
32.968,-56.11
32.984,-38.98
33.000,-17.39
33.015,6.15
33.031,29.16
33.046,49.69
33.062,66.63
33.078,79.56
33.093,88.42
33.109,93.29
33.125,94.28
33.140,91.7
33.156,86.2
33.171,78.82
33.187,70.86
33.203,63.43
33.218,57.19
33.234,52.13
33.250,47.75
33.265,43.37
33.281,38.45
33.296,32.74
33.312,26.36
33.328,19.54
33.343,12.53
33.359,5.46
33.375,-1.71
33.390,-9.07
33.406,-16.79
33.421,-24.97
33.437,-33.73
33.453,-43.16
33.468,-53.33
33.484,-64.22
33.500,-75.48
33.515,-86.27
33.531,-95.13
33.546,-100.11
33.562,-99.32
33.578,-91.49
33.593,-76.56
33.609,-55.86
33.625,-31.81
33.640,-7.15
33.656,15.81
33.671,35.62
33.687,51.78
33.703,64.33
33.718,73.39
33.734,78.99
33.750,81.02
33.765,79.5
33.781,74.85
33.796,67.84
33.812,59.53
33.828,50.98
33.843,43.0
33.859,36.04
33.875,30.18
33.890,25.18
33.906,20.62
33.921,16.07
33.937,11.14
33.953,5.62
33.968,-0.49
33.984,-7.03
34.000,-13.77
34.015,-20.49
34.031,-27.15
34.046,-33.94
34.062,-41.24
34.078,-49.56
34.093,-59.32
34.109,-70.48
34.125,-82.42
34.140,-93.75
34.156,-102.52
34.171,-106.62
34.187,-104.31
34.203,-94.72
34.218,-78.24
34.234,-56.41
34.250,-31.59
34.265,-6.41
34.281,16.92
34.296,36.88
34.312,52.78
34.328,64.61
34.343,72.66
34.359,77.29
34.375,78.77
34.390,77.39
34.406,73.51
34.421,67.75
34.437,60.89
34.453,53.71
34.468,46.86
34.484,40.61
34.500,34.92
34.515,29.5
34.531,24.07
34.546,18.45
34.562,12.62
34.578,6.6
34.593,0.42
34.609,-5.92
34.625,-12.51
34.640,-19.42
34.656,-26.7
34.671,-34.45
34.687,-42.67
34.703,-51.44
34.718,-60.81
34.734,-70.83
34.750,-81.32
34.765,-91.75
34.781,-100.95
34.796,-107.2
34.812,-108.47
34.828,-102.99
34.843,-89.9
34.859,-69.71
34.875,-44.34
34.890,-16.53
34.906,10.82
34.921,35.49
34.937,56.25
34.953,72.77
34.968,85.26
34.984,93.97
35.000,99.05
35.015,100.57
35.031,98.7
35.046,93.93
35.062,87.12
35.078,79.19
35.093,70.95
35.109,62.88
35.125,55.08
35.140,47.46
35.156,39.94
35.171,32.58
35.187,25.56
35.203,19.03
35.218,12.96
35.234,7.03
35.250,0.83
35.265,-5.95
35.281,-13.38
35.296,-21.35
35.312,-29.63
35.328,-38.17
35.343,-47.12
35.359,-56.77
35.375,-67.31
35.390,-78.48
35.406,-89.36
35.421,-98.4
35.437,-103.68
35.453,-103.45
35.468,-96.6
35.484,-83.16
35.500,-64.27
35.515,-41.93
35.531,-18.41
35.546,4.25
35.562,24.69
35.578,42.22
35.593,56.59
35.609,67.68
35.625,75.34
35.640,79.47
35.656,80.13
35.671,77.78
35.687,73.15
35.703,67.09
35.718,60.35
35.734,53.34
35.750,46.19
35.765,38.93
35.781,31.59
35.796,24.32
35.812,17.39
35.828,11.06
35.843,5.5
35.859,0.71
35.875,-3.45
35.890,-7.29
35.906,-11.13
35.921,-15.27
35.937,-19.93
35.953,-25.16
35.968,-30.98
35.984,-37.44
36.000,-44.73
36.015,-53.13
36.031,-62.79
36.046,-73.35
36.062,-83.67
36.078,-91.8
36.093,-95.33
36.109,-92.19
36.125,-81.32
36.140,-63.16
36.156,-39.6
36.171,-13.38
36.187,12.74
36.203,36.68
36.218,57.49
36.234,75.13
36.250,90.02
36.265,102.44
36.281,112.23
36.296,118.81
36.312,121.55
36.328,120.19
36.343,115.24
36.359,108.0
36.375,100.29
36.390,93.93
36.406,90.11
36.421,89.12
36.437,90.24
36.453,92.1
36.468,93.23
36.484,92.52
36.500,89.69
36.515,85.31
36.531,80.67
36.546,77.31
36.562,76.34
36.578,77.7
36.593,79.75
36.609,79.18
36.625,71.62
36.640,52.91
36.656,20.78
36.671,-23.54
36.687,-74.56
36.703,-123.32
36.718,-159.68
36.734,-175.18
36.750,-165.57
36.765,-131.7
36.781,-78.91
36.796,-14.98
36.812,52.02
36.828,115.15
36.843,168.95
36.859,209.19
36.875,232.64
36.890,237.39
36.906,223.56
36.921,193.87
36.937,153.41
36.953,108.05
36.968,62.75
36.984,20.29
37.000,-18.44
37.015,-53.38
37.031,-83.74
37.046,-107.28
37.062,-121.05
37.078,-122.88
37.093,-112.81
37.109,-93.14
37.125,-67.07
37.140,-37.06
37.156,-4.16
37.171,31.17
37.187,67.24
37.203,99.89
37.218,122.94
37.234,130.32
37.250,118.81
37.265,89.68
37.281,48.11
37.296,1.03
37.312,-45.63
37.328,-88.36
37.343,-126.5
37.359,-161.13
37.375,-193.73
37.390,-225.8
37.406,-259.03
37.421,-295.81
37.437,-338.9
37.453,-389.96
37.468,-447.48
37.484,-505.75
37.500,-555.35
37.515,-585.79
37.531,-589.34
37.546,-563.93
37.562,-514.32
37.578,-450.27
37.593,-383.11
37.609,-322.08
37.625,-272.04
37.640,-233.09
37.656,-201.76
37.671,-173.17
37.687,-142.95
37.703,-108.75
37.718,-70.68
37.734,-30.79
37.750,8.23
37.765,44.5
37.781,77.95
37.796,110.01
37.812,142.31
37.828,175.58
37.843,208.99
37.859,240.58
37.875,268.24
37.890,290.36
37.906,305.84
37.921,313.55
37.937,311.96
37.953,299.56
37.968,276.44
37.984,245.54
38.000,213.01
38.015,187.14
38.031,175.9
38.046,184.41
38.062,213.01
38.078,257.22
38.093,309.28
38.109,360.88
38.125,405.67
38.140,440.71
38.156,466.03
38.171,482.91
38.187,491.9
38.203,491.98
38.218,481.09
38.234,457.91
38.250,423.4
38.265,381.09
38.281,335.92
38.296,292.33
38.312,252.63
38.328,216.74
38.343,183.23
38.359,150.85
38.375,119.61
38.390,90.75
38.406,65.79
38.421,45.41
38.437,28.82
38.453,13.8
38.468,-2.27
38.484,-21.28
38.500,-43.69
38.515,-68.29
38.531,-92.87
38.546,-115.28
38.562,-134.43
38.578,-150.87
38.593,-166.59
38.609,-184.12
38.625,-205.43
38.640,-231.17
38.656,-260.35
38.671,-291.1
38.687,-321.46
38.703,-350.39
38.718,-378.2
38.734,-406.32
38.750,-436.74
38.765,-471.5
38.781,-512.44
38.796,-560.79
38.812,-616.38
38.828,-676.45
38.843,-735.08
38.859,-783.74
38.875,-813.6
38.890,-818.45
38.906,-797.14
38.921,-754.11
38.937,-697.44
38.953,-635.75
38.968,-575.3
38.984,-518.85
39.000,-466.49
39.015,-417.4
39.031,-371.32
39.046,-328.79
39.062,-290.42
39.078,-255.94
39.093,-223.96
39.109,-192.65
39.125,-160.75
39.140,-128.33
39.156,-96.72
39.171,-67.98
39.187,-43.76
39.203,-24.55
39.218,-9.43
39.234,3.51
39.250,16.3
39.265,30.35
39.281,45.95
39.296,62.4
39.312,78.54
39.328,93.45
39.343,106.94
39.359,119.61
39.375,132.58
39.390,146.98
39.406,163.6
39.421,182.5
39.437,202.96
39.453,223.52
39.468,242.3
39.484,257.33
39.500,267.02
39.515,270.51
39.531,267.85
39.546,259.84
39.562,247.66
39.578,232.58
39.593,215.67
39.609,197.92
39.625,180.31
39.640,163.94
39.656,149.86
39.671,138.85
39.687,131.13
39.703,126.11
39.718,122.52
39.734,118.71
39.750,113.18
39.765,105.02
39.781,94.35
39.796,82.35
39.812,70.96
39.828,62.37
39.843,58.29
39.859,59.47
39.875,65.48
39.890,74.91
39.906,85.95
39.921,96.93
39.937,106.8
39.953,115.01
39.968,121.46
39.984,126.03
40.000,128.47
40.015,128.44
40.031,125.86
40.046,121.14
40.062,115.19
40.078,109.08
40.093,103.48
40.109,98.39
40.125,93.19
40.140,87.11
40.156,79.91
40.171,72.09
40.187,64.72
40.203,58.73
40.218,54.28
40.234,50.58
40.250,46.24
40.265,39.96
40.281,31.19
40.296,20.34
40.312,8.59
40.328,-2.59
40.343,-11.89
40.359,-18.32
40.375,-21.35
40.390,-20.8
40.406,-16.91
40.421,-10.32
40.437,-1.93
40.453,7.23
40.468,16.36
40.484,24.98
40.500,32.87
40.515,39.89
40.531,45.7
40.546,49.82
40.562,51.59
40.578,50.54
40.593,46.58
40.609,40.07
40.625,31.76
40.640,22.58
40.656,13.48
40.671,5.25
40.687,-1.49
40.703,-6.27
40.718,-8.76
40.734,-8.8
40.750,-6.52
40.765,-2.38
40.781,2.84
40.796,8.24
40.812,13.0
40.828,16.67
40.843,19.2
40.859,20.83
40.875,21.96
40.890,22.89
40.906,24.0
40.921,25.71
40.937,28.56
40.953,32.98
40.968,39.05
40.984,46.21
41.000,53.5
41.015,59.82
41.031,64.43
41.046,67.22
41.062,68.48
41.078,68.57
41.093,67.46
41.109,64.72
41.125,59.91
41.140,53.08
41.156,45.01
41.171,37.01
41.187,30.38
41.203,25.81
41.218,23.15
41.234,21.59
41.250,20.15
41.265,18.17
41.281,15.5
41.296,12.44
41.312,9.4
41.328,6.65
41.343,4.05
41.359,1.24
41.375,-2.26
41.390,-6.94
41.406,-13.13
41.421,-20.98
41.437,-30.36
41.453,-40.79
41.468,-51.32
41.484,-60.83
41.500,-68.09
41.515,-72.2
41.531,-72.81
41.546,-70.16
41.562,-65.05
41.578,-58.43
41.593,-51.15
41.609,-43.72
41.625,-36.24
41.640,-28.52
41.656,-20.3
41.671,-11.46
41.687,-2.12
41.703,7.33
41.718,16.36
41.734,24.51
41.750,31.52
41.765,37.37
41.781,42.22
41.796,46.22
41.812,49.43
41.828,51.8
41.843,53.23
41.859,53.72
41.875,53.43
41.890,52.65
41.906,51.65
41.921,50.61
41.937,49.51
41.953,48.11
41.968,46.09
41.984,43.06
42.000,38.71
42.015,32.93
42.031,25.9
42.046,18.23
42.062,10.98
42.078,5.46
42.093,2.93
42.109,4.22
42.125,9.46
42.140,17.97
42.156,28.51
42.171,39.62
42.187,50.02
42.203,58.88
42.218,65.77
42.234,70.63
42.250,73.59
42.265,74.75
42.281,74.26
42.296,72.32
42.312,69.17
42.328,65.2
42.343,60.73
42.359,55.96
42.375,50.85
42.390,45.22
42.406,38.92
42.421,32.02
42.437,24.9
42.453,18.26
42.468,12.79
42.484,8.85
42.500,6.37
42.515,4.83
42.531,3.47
42.546,1.71
42.562,-0.76
42.578,-3.88
42.593,-7.38
42.609,-10.82
42.625,-13.76
42.640,-15.71
42.656,-16.11
42.671,-14.45
42.687,-10.4
42.703,-3.88
42.718,4.87
42.734,15.34
42.750,26.89
42.765,38.81
42.781,50.39
42.796,60.96
42.812,69.98
42.828,77.05
42.843,82.1
42.859,85.24
42.875,86.77
42.890,87.0
42.906,86.25
42.921,84.85
42.937,83.25
42.953,81.9
42.968,81.16
42.984,81.1
43.000,81.37
43.015,81.31
43.031,80.2
43.046,77.52
43.062,73.21
43.078,67.74
43.093,61.9
43.109,56.62
43.125,52.63
43.140,50.3
43.156,49.55
43.171,49.92
43.187,50.75
43.203,51.3
43.218,50.9
43.234,48.89
43.250,44.74
43.265,38.09
43.281,28.92
43.296,17.7
43.312,5.3
43.328,-7.25
43.343,-19.18
43.359,-30.32
43.375,-41.14
43.390,-52.53
43.406,-65.21
43.421,-79.36
43.437,-94.34
43.453,-108.77
43.468,-120.88
43.484,-128.91
43.500,-131.65
43.515,-128.63
43.531,-120.3
43.546,-107.89
43.562,-93.09
43.578,-77.6
43.593,-62.74
43.609,-49.25
43.625,-37.35
43.640,-26.99
43.656,-18.15
43.671,-10.96
43.687,-5.69
43.703,-2.6
43.718,-1.76
43.734,-2.97
43.750,-5.91
43.765,-10.15
43.781,-15.31
43.796,-20.98
43.812,-26.7
43.828,-32.01
43.843,-36.46
43.859,-39.79
43.875,-41.84
43.890,-42.62
43.906,-41.99
43.921,-39.68
43.937,-35.31
43.953,-28.67
43.968,-19.98
43.984,-10.1
44.000,-0.38
44.015,7.77
44.031,13.29
44.046,15.85
44.062,15.95
44.078,14.6
44.093,12.9
44.109,11.65
44.125,11.06
44.140,10.86
44.156,10.53
44.171,9.84
44.187,9.04
44.203,8.93
44.218,10.32
44.234,13.54
44.250,17.95
44.265,22.05
44.281,24.09
44.296,22.71
44.312,17.52
44.328,8.96
44.343,-2.09
44.359,-14.84
44.375,-28.61
44.390,-42.66
44.406,-55.71
44.421,-65.92
44.437,-71.38
44.453,-71.06
44.468,-65.48
44.484,-56.73
44.500,-47.72
44.515,-40.78
44.531,-36.76
44.546,-34.68
44.562,-32.22
44.578,-26.86
44.593,-16.91
44.609,-2.05
44.625,16.7
44.640,37.42
44.656,57.95
44.671,76.34
44.687,90.93
44.703,100.3
44.718,103.2
44.734,98.67
44.750,86.57
44.765,68.0
44.781,45.4
44.796,22.03
44.812,0.9
44.828,-16.32
44.843,-29.86
44.859,-41.56
44.875,-53.76
44.890,-68.13
44.906,-84.74
44.921,-102.15
44.937,-118.02
44.953,-130.14
44.968,-137.19
44.984,-139.06
45.000,-136.6
45.015,-131.16
45.031,-123.99
45.046,-115.95
45.062,-107.39
45.078,-98.35
45.093,-88.8
45.109,-78.91
45.125,-68.94
45.140,-59.08
45.156,-49.18
45.171,-38.65
45.187,-26.77
45.203,-13.13
45.218,2.07
45.234,17.91
45.250,33.13
45.265,46.65
45.281,57.93
45.296,66.92
45.312,73.87
45.328,78.82
45.343,81.53
45.359,81.66
45.375,79.14
45.390,74.43
45.406,68.53
45.421,62.57
45.437,57.28
45.453,52.74
45.468,48.37
45.484,43.38
45.500,37.1
45.515,29.45
45.531,20.82
45.546,12.06
45.562,4.18
45.578,-1.88
45.593,-5.35
45.609,-5.78
45.625,-3.19
45.640,1.77
45.656,7.81
45.671,13.18
45.687,16.07
45.703,15.1
45.718,9.79
45.734,0.74
45.750,-10.53
45.765,-21.89
45.781,-31.23
45.796,-36.92
45.812,-38.2
45.828,-35.18
45.843,-28.71
45.859,-19.99
45.875,-10.23
45.890,-0.39
45.906,8.9
45.921,17.34
45.937,24.85
45.953,31.51
45.968,37.47
45.984,42.89
46.000,47.87
46.015,52.36
46.031,56.17
46.046,59.07
46.062,60.83
46.078,61.44
46.093,61.0
46.109,59.7
46.125,57.61
46.140,54.72
46.156,50.99
46.171,46.56
46.187,41.8
46.203,37.15
46.218,32.82
46.234,28.42
46.250,23.04
46.265,15.71
46.281,6.26
46.296,-4.27
46.312,-13.67
46.328,-19.36
46.343,-19.58
46.359,-14.15
46.375,-4.71
46.390,6.02
46.406,15.14
46.421,20.5
46.437,20.99
46.453,16.47
46.468,7.42
46.484,-5.16
46.500,-19.77
46.515,-34.44
46.531,-47.04
46.546,-55.82
46.562,-59.97
46.578,-59.98
46.593,-57.38
46.609,-54.14
46.625,-51.91
46.640,-51.47
46.656,-52.6
46.671,-54.36
46.687,-55.58
46.703,-55.31
46.718,-53.07
46.734,-48.84
46.750,-42.96
46.765,-35.99
46.781,-28.48
46.796,-20.99
46.812,-14.03
46.828,-8.13
46.843,-3.82
46.859,-1.51
46.875,-1.42
46.890,-3.38
46.906,-6.84
46.921,-10.86
46.937,-14.31
46.953,-16.18
46.968,-15.82
46.984,-13.17
47.000,-8.7
47.015,-3.3
47.031,2.04
47.046,6.43
47.062,9.28
47.078,10.22
47.093,9.1
47.109,5.85
47.125,0.46
47.140,-6.9
47.156,-15.81
47.171,-25.59
47.187,-35.38
47.203,-44.38
47.218,-51.91
47.234,-57.45
47.250,-60.59
47.265,-61.02
47.281,-58.68
47.296,-54.04
47.312,-48.11
47.328,-42.27
47.343,-37.67
47.359,-34.69
47.375,-32.61
47.390,-29.91
47.406,-24.95
47.421,-16.7
47.437,-5.2
47.453,8.49
47.468,22.79
47.484,35.96
47.500,46.36
47.515,52.46
47.531,52.77
47.546,46.14
47.562,32.14
47.578,11.59
47.593,-13.18
47.609,-38.68
47.625,-61.03
47.640,-76.96
47.656,-84.69
47.671,-84.41
47.687,-77.83
47.703,-67.57
47.718,-56.21
47.734,-45.46
47.750,-36.04
47.765,-27.91
47.781,-20.75
47.796,-14.48
47.812,-9.32
47.828,-5.63
47.843,-3.55
47.859,-2.69
47.875,-2.29
47.890,-1.48
47.906,0.19
47.921,2.42
47.937,4.32
47.953,4.73
47.968,2.82
47.984,-1.55
48.000,-7.61
48.015,-14.09
48.031,-19.63
48.046,-23.27
48.062,-24.86
48.078,-24.93
48.093,-24.5
48.109,-24.61
48.125,-25.9
48.140,-28.39
48.156,-31.38
48.171,-33.76
48.187,-34.34
48.203,-32.33
48.218,-27.65
48.234,-20.96
48.250,-13.33
48.265,-5.84
48.281,0.97
48.296,7.34
48.312,14.09
48.328,22.28
48.343,32.6
48.359,44.96
48.375,58.43
48.390,71.4
48.406,81.98
48.421,88.38
48.437,89.27
48.453,83.88
48.468,72.11
48.484,54.66
48.500,32.98
48.515,9.27
48.531,-14.01
48.546,-34.55
48.562,-50.85
48.578,-62.45
48.593,-69.93
48.609,-74.51
48.625,-77.53
48.640,-79.95
48.656,-82.21
48.671,-84.27
48.687,-85.87
48.703,-86.76
48.718,-86.79
48.734,-85.97
48.750,-84.37
48.765,-82.02
48.781,-78.95
48.796,-75.07
48.812,-70.22
48.828,-64.1
48.843,-56.43
48.859,-47.07
48.875,-36.14
48.890,-24.09
48.906,-11.61
48.921,0.5
48.937,11.56
48.953,21.15
48.968,29.08
48.984,35.32
49.000,39.94
49.015,43.04
49.031,44.82
49.046,45.61
49.062,45.8
49.078,45.72
49.093,45.5
49.109,45.01
49.125,43.93
49.140,41.93
49.156,38.87
49.171,34.89
49.187,30.34
49.203,25.65
49.218,21.19
49.234,17.16
49.250,13.69
49.265,10.9
49.281,8.94
49.296,7.92
49.312,7.77
49.328,8.2
49.343,8.65
49.359,8.62
49.375,7.82
49.390,6.42
49.406,5.05
49.421,4.59
49.437,5.86
49.453,9.34
49.468,15.01
49.484,22.37
49.500,30.69
49.515,39.26
49.531,47.49
49.546,55.05
49.562,61.65
49.578,67.11
49.593,71.29
49.609,74.17
49.625,75.94
49.640,77.0
49.656,77.79
49.671,78.65
49.687,79.65
49.703,80.53
49.718,80.96
49.734,80.69
49.750,79.78
49.765,78.61
49.781,77.81
49.796,77.91
49.812,79.19
49.828,81.54
49.843,84.44
49.859,87.24
49.875,89.26
49.890,90.0
49.906,89.25
49.921,87.18
49.937,84.36
49.953,81.66
49.968,80.1
49.984,80.57
50.000,83.45
50.015,88.26
50.031,93.47
50.046,96.71
50.062,95.33
50.078,87.24
50.093,71.68
50.109,49.62
50.125,23.47
50.140,-3.62
50.156,-28.75
50.171,-50.0
50.187,-66.59
50.203,-78.77
50.218,-87.11
50.234,-92.13
50.250,-94.1
50.265,-93.17
50.281,-89.6
50.296,-83.97
50.312,-77.16
50.328,-70.12
50.343,-63.69
50.359,-58.42
50.375,-54.53
50.390,-52.01
50.406,-50.66
50.421,-50.15
50.437,-50.02
50.453,-49.63
50.468,-48.23
50.484,-45.11
50.500,-39.8
50.515,-32.29
50.531,-23.17
50.546,-13.56
50.562,-4.96
50.578,1.14
50.593,3.58
50.609,1.87
50.625,-3.64
50.640,-11.78
50.656,-20.72
50.671,-28.35
50.687,-32.7
50.703,-32.42
50.718,-27.18
50.734,-17.71
50.750,-5.69
50.765,6.78
50.781,17.72
50.796,25.74
50.812,30.26
50.828,31.55
50.843,30.34
50.859,27.6
50.875,24.23
50.890,20.89
50.906,17.98
50.921,15.68
50.937,14.0
50.953,12.85
50.968,12.07
50.984,11.53
51.000,11.13
51.015,10.85
51.031,10.7
51.046,10.7
51.062,10.85
51.078,11.02
51.093,10.97
51.109,10.38
51.125,8.95
51.140,6.63
51.156,3.74
51.171,0.91
51.187,-1.15
51.203,-1.94
51.218,-1.49
51.234,-0.34
51.250,0.65
51.265,0.77
51.281,-0.25
51.296,-1.95
51.312,-3.44
51.328,-3.71
51.343,-1.99
51.359,1.92
51.375,7.69
51.390,14.52
51.406,21.38
51.421,27.22
51.437,31.17
51.453,32.73
51.468,31.84
51.484,28.96
51.500,24.87
51.515,20.37
51.531,16.03
51.546,12.03
51.562,8.1
51.578,3.67
51.593,-1.8
51.609,-8.66
51.625,-16.93
51.640,-26.29
51.656,-36.11
51.671,-45.74
51.687,-54.6
51.703,-62.38
51.718,-69.18
51.734,-75.47
51.750,-81.97
51.765,-89.37
51.781,-98.13
51.796,-108.23
51.812,-119.15
51.828,-129.89
51.843,-139.24
51.859,-145.96
51.875,-149.01
51.890,-147.69
51.906,-141.78
51.921,-131.53
51.937,-117.7
51.953,-101.42
51.968,-84.07
51.984,-66.98
52.000,-51.15
52.015,-37.11
52.031,-24.92
52.046,-14.31
52.062,-4.91
52.078,3.57
52.093,11.31
52.109,18.36
52.125,24.72
52.140,30.37
52.156,35.29
52.171,39.38
52.187,42.5
52.203,44.54
52.218,45.45
52.234,45.3
52.250,44.2
52.265,42.21
52.281,39.18
52.296,34.85
52.312,28.92
52.328,21.39
52.343,12.59
52.359,3.18
52.375,-6.09
52.390,-14.55
52.406,-21.79
52.421,-27.56
52.437,-31.65
52.453,-33.84
52.468,-33.88
52.484,-31.68
52.500,-27.46
52.515,-21.78
52.531,-15.34
52.546,-8.77
52.562,-2.45
52.578,3.49
52.593,9.02
52.609,14.11
52.625,18.6
52.640,22.28
52.656,24.9
52.671,26.34
52.687,26.57
52.703,25.72
52.718,23.99
52.734,21.68
52.750,19.19
52.765,16.94
52.781,15.31
52.796,14.48
52.812,14.39
52.828,14.64
52.843,14.74
52.859,14.24
52.875,12.85
52.890,10.59
52.906,7.63
52.921,4.24
52.937,0.72
52.953,-2.62
52.968,-5.43
52.984,-7.21
53.000,-7.38
53.015,-5.5
53.031,-1.33
53.046,4.87
53.062,12.52
53.078,20.82
53.093,28.99
53.109,36.48
53.125,42.93
53.140,48.23
53.156,52.33
53.171,55.21
53.187,56.83
53.203,57.18
53.218,56.39
53.234,54.65
53.250,52.3
53.265,49.65
53.281,47.03
53.296,44.7
53.312,42.87
53.328,41.61
53.343,40.83
53.359,40.31
53.375,39.7
53.390,38.7
53.406,37.0
53.421,34.44
53.437,30.97
53.453,26.77
53.468,22.26
53.484,18.19
53.500,15.56
53.515,15.35
53.531,18.14
53.546,23.77
53.562,31.32
53.578,39.38
53.593,46.51
53.609,51.67
53.625,54.31
53.640,54.33
53.656,51.81
53.671,46.96
53.687,40.18
53.703,32.18
53.718,24.01
53.734,16.92
53.750,12.02
53.765,10.02
53.781,11.0
53.796,14.44
53.812,19.41
53.828,24.77
53.843,29.44
53.859,32.65
53.875,34.0
53.890,33.62
53.906,31.86
53.921,29.04
53.937,25.18
53.953,20.01
53.968,13.07
53.984,4.1
54.000,-6.76
54.015,-19.07
54.031,-32.26
54.046,-45.96
54.062,-60.02
54.078,-74.3
54.093,-88.31
54.109,-101.11
54.125,-111.37
54.140,-117.78
54.156,-119.52
54.171,-116.44
54.187,-109.02
54.203,-98.1
54.218,-84.66
54.234,-69.68
54.250,-54.09
54.265,-38.83
54.281,-24.74
54.296,-12.44
54.312,-2.24
54.328,5.79
54.343,11.7
54.359,15.61
54.375,17.6
54.390,17.86
54.406,16.8
54.421,14.96
54.437,12.92
54.453,10.94
54.468,8.92
54.484,6.42
54.500,3.0
54.515,-1.43
54.531,-6.48
54.546,-11.45
54.562,-15.63
54.578,-18.68
54.593,-20.79
54.609,-22.5
54.625,-24.46
54.640,-27.1
54.656,-30.52
54.671,-34.47
54.687,-38.54
54.703,-42.25
54.718,-45.11
54.734,-46.62
54.750,-46.34
54.765,-43.96
54.781,-39.41
54.796,-32.89
54.812,-24.92
54.828,-16.19
54.843,-7.38
54.859,0.88
54.875,8.11
54.890,13.97
54.906,18.24
54.921,20.8
54.937,21.66
54.953,20.95
54.968,18.96
54.984,16.05
55.000,12.71
55.015,9.39
55.031,6.52
55.046,4.34
55.062,2.94
55.078,2.17
55.093,1.72
55.109,1.19
55.125,0.22
55.140,-1.39
55.156,-3.6
55.171,-6.2
55.187,-8.85
55.203,-11.3
55.218,-13.45
55.234,-15.42
55.250,-17.38
55.265,-19.51
55.281,-21.81
55.296,-24.12
55.312,-26.16
55.328,-27.65
55.343,-28.37
55.359,-28.14
55.375,-26.73
55.390,-23.78
55.406,-18.89
55.421,-11.76
55.437,-2.44
55.453,8.61
55.468,20.51
55.484,32.23
55.500,42.86
55.515,51.84
55.531,59.07
55.546,64.73
55.562,69.1
55.578,72.35
55.593,74.6
55.609,75.82
55.625,76.03
55.640,75.3
55.656,73.69
55.671,71.36
55.687,68.44
55.703,65.12
55.718,61.71
55.734,58.61
55.750,56.12
55.765,54.27
55.781,52.68
55.796,50.56
55.812,46.98
55.828,41.17
55.843,32.75
55.859,21.84
55.875,8.8
55.890,-5.96
55.906,-22.16
55.921,-39.6
55.937,-57.96
55.953,-76.56
55.968,-94.34
55.984,-110.13
56.000,-123.01
56.015,-132.65
56.031,-139.36
56.046,-143.77
56.062,-146.4
56.078,-147.35
56.093,-146.19
56.109,-142.25
56.125,-135.13
56.140,-124.99
56.156,-112.67
56.171,-99.42
56.187,-86.46
56.203,-74.7
56.218,-64.55
56.234,-56.13
56.250,-49.39
56.265,-44.3
56.281,-40.77
56.296,-38.57
56.312,-37.23
56.328,-36.11
56.343,-34.64
56.359,-32.47
56.375,-29.65
56.390,-26.5
56.406,-23.43
56.421,-20.78
56.437,-18.65
56.453,-16.95
56.468,-15.45
56.484,-13.94
56.500,-12.3
56.515,-10.58
56.531,-8.93
56.546,-7.47
56.562,-6.25
56.578,-5.2
56.593,-4.16
56.609,-2.95
56.625,-1.54
56.640,-0.06
56.656,1.22
56.671,2.0
56.687,2.09
56.703,1.5
56.718,0.45
56.734,-0.69
56.750,-1.46
56.765,-1.4
56.781,-0.09
56.796,2.81
56.812,7.48
56.828,13.83
56.843,21.42
56.859,29.53
56.875,37.26
56.890,43.88
56.906,49.01
56.921,52.77
56.937,55.65
56.953,58.19
56.968,60.7
56.984,63.09
57.000,64.93
57.015,65.69
57.031,65.04
57.046,62.96
57.062,59.83
57.078,56.23
57.093,52.78
57.109,49.94
57.125,47.87
57.140,46.47
57.156,45.38
57.171,44.2
57.187,42.69
57.203,40.92
57.218,39.35
57.234,38.73
57.250,39.93
57.265,43.56
57.281,49.63
57.296,57.1
57.312,63.65
57.328,65.88
57.343,60.16
57.359,44.01
57.375,17.34
57.390,-16.98
57.406,-53.74
57.421,-87.0
57.437,-112.14
57.453,-127.04
57.468,-132.27
57.484,-130.08
57.500,-123.01
57.515,-113.0
57.531,-101.19
57.546,-88.34
57.562,-75.29
57.578,-62.99
57.593,-52.0
57.609,-42.09
57.625,-32.1
57.640,-20.55
57.656,-6.41
57.671,10.2
57.687,27.9
57.703,44.56
57.718,58.12
57.734,67.35
57.750,72.23
57.765,73.82
57.781,73.67
57.796,73.19
57.812,73.31
57.828,74.22
57.843,75.52
57.859,76.36
57.875,75.61
57.890,72.12
57.906,65.12
57.921,54.69
57.937,41.93
57.953,28.89
57.968,17.76
57.984,10.06
58.000,6.0
58.015,4.54
58.031,3.96
58.046,2.74
58.062,0.14
58.078,-3.89
58.093,-9.1
58.109,-15.43
58.125,-23.03
58.140,-31.9
58.156,-41.47
58.171,-50.44
58.187,-57.1
58.203,-59.91
58.218,-58.04
58.234,-51.57
58.250,-41.25
58.265,-28.28
58.281,-13.91
58.296,0.68
58.312,14.5
58.328,26.88
58.343,37.37
58.359,45.87
58.375,52.52
58.390,57.6
58.406,61.44
58.421,64.29
58.437,66.32
58.453,67.7
58.468,68.62
58.484,69.35
58.500,70.21
58.515,71.44
58.531,73.17
58.546,75.28
58.562,77.53
58.578,79.61
58.593,81.26
58.609,82.35
58.625,82.86
58.640,82.85
58.656,82.39
58.671,81.67
58.687,80.87
58.703,80.07
58.718,79.07
58.734,77.14
58.750,73.08
58.765,65.5
58.781,53.16
58.796,35.44
58.812,12.64
58.828,-13.84
58.843,-41.72
58.859,-68.28
58.875,-90.96
58.890,-107.98
58.906,-118.73
58.921,-123.7
58.937,-124.07
58.953,-121.1
58.968,-115.71
58.984,-108.33
59.000,-99.19
59.015,-88.63
59.031,-77.15
59.046,-65.34
59.062,-53.62
59.078,-42.06
59.093,-30.59
59.109,-19.26
59.125,-8.51
59.140,0.87
59.156,7.99
59.171,12.25
59.187,13.63
59.203,12.68
59.218,10.4
59.234,7.83
59.250,5.72
59.265,4.37
59.281,3.65
59.296,3.16
59.312,2.55
59.328,1.71
59.343,0.74
59.359,-0.17
59.375,-1.01
59.390,-2.07
59.406,-3.71
59.421,-6.18
59.437,-9.13
59.453,-11.76
59.468,-12.97
59.484,-12.01
59.500,-8.87
59.515,-4.26
59.531,0.68
59.546,5.01
59.562,8.35
59.578,11.05
59.593,13.88
59.609,17.71
59.625,23.01
59.640,29.8
59.656,37.58
59.671,45.58
59.687,52.86
59.703,58.54
59.718,61.93
59.734,62.72
59.750,61.03
59.765,57.43
59.781,52.62
59.796,47.26
59.812,41.86
59.828,36.71
59.843,32.02
59.859,28.0
59.875,24.81
59.890,22.48
59.906,20.74
59.921,19.07
59.937,16.86
59.953,13.61
59.968,9.21
59.984,3.91
