timestamp,value
00.000,69.4
00.015,79.99
00.031,91.83
00.046,104.43
00.062,117.18
00.078,129.37
00.093,140.25
00.109,149.21
00.125,155.79
00.140,159.86
00.156,161.45
00.171,160.64
00.187,157.47
00.203,151.88
00.218,143.91
00.234,134.07
00.250,123.55
00.265,114.35
00.281,108.71
00.296,108.42
00.312,113.77
00.328,123.0
00.343,132.48
00.359,137.67
00.375,134.6
00.390,121.36
00.406,98.92
00.421,70.99
00.437,42.79
00.453,19.21
00.468,3.24
00.484,-4.75
00.500,-6.64
00.515,-5.35
00.531,-3.54
00.546,-2.79
00.562,-3.77
00.578,-6.79
00.593,-12.15
00.609,-19.97
00.625,-29.61
00.640,-39.4
00.656,-47.17
00.671,-51.58
00.687,-53.22
00.703,-54.75
00.718,-59.52
00.734,-69.63
00.750,-84.36
00.765,-100.34
00.781,-113.23
00.796,-120.01
00.812,-120.8
00.828,-118.9
00.843,-119.36
00.859,-126.56
00.875,-142.33
00.890,-165.23
00.906,-191.17
00.921,-214.95
00.937,-231.88
00.953,-239.15
00.968,-236.45
00.984,-225.66
01.000,-210.08
01.015,-193.24
01.031,-178.0
01.046,-165.95
01.062,-157.34
01.078,-151.45
01.093,-147.2
01.109,-143.65
01.125,-140.38
01.140,-137.53
01.156,-135.43
01.171,-133.98
01.187,-132.2
01.203,-128.17
01.218,-119.58
01.234,-104.76
01.250,-83.41
01.265,-57.03
01.281,-28.43
01.296,-0.75
01.312,23.58
01.328,43.44
01.343,58.86
01.359,70.43
01.375,78.61
01.390,83.46
01.406,84.89
01.421,83.06
01.437,78.85
01.453,73.72
01.468,69.25
01.484,66.46
01.500,65.47
01.515,65.49
01.531,65.25
01.546,63.57
01.562,59.78
01.578,53.85
01.593,46.32
01.609,37.88
01.625,29.13
01.640,20.39
01.656,11.71
01.671,2.96
01.687,-6.09
01.703,-15.76
01.718,-26.46
01.734,-38.6
01.750,-52.41
01.765,-67.64
01.781,-83.28
01.796,-97.6
01.812,-108.43
01.828,-113.78
01.843,-112.49
01.859,-104.65
01.875,-91.56
01.890,-75.3
01.906,-58.12
01.921,-41.86
01.937,-27.69
01.953,-16.13
01.968,-7.39
01.984,-1.54
02.000,1.39
02.015,1.56
02.031,-0.56
02.046,-4.07
02.062,-7.85
02.078,-10.81
02.093,-12.27
02.109,-12.18
02.125,-11.08
02.140,-9.82
02.156,-9.18
02.171,-9.62
02.187,-11.07
02.203,-13.13
02.218,-15.32
02.234,-17.32
02.250,-19.11
02.265,-20.97
02.281,-23.29
02.296,-26.49
02.312,-30.89
02.328,-36.67
02.343,-43.91
02.359,-52.44
02.375,-61.66
02.390,-70.5
02.406,-77.42
02.421,-80.77
02.437,-79.34
02.453,-72.75
02.468,-61.73
02.484,-47.87
02.500,-33.16
02.515,-19.4
02.531,-7.81
02.546,1.09
02.562,7.26
02.578,10.87
02.593,12.13
02.609,11.21
02.625,8.48
02.640,4.55
02.656,0.32
02.671,-3.19
02.687,-5.23
02.703,-5.5
02.718,-4.3
02.734,-2.36
02.750,-0.52
02.765,0.49
02.781,0.36
02.796,-0.92
02.812,-3.14
02.828,-6.06
02.843,-9.55
02.859,-13.57
02.875,-18.13
02.890,-23.21
02.906,-28.86
02.921,-35.13
02.937,-42.24
02.953,-50.37
02.968,-59.49
02.984,-69.03
03.000,-77.75
03.015,-83.77
03.031,-85.15
03.046,-80.44
03.062,-69.28
03.078,-52.6
03.093,-32.46
03.109,-11.4
03.125,8.23
03.140,24.76
03.156,37.45
03.171,46.3
03.187,51.68
03.203,54.11
03.218,54.02
03.234,51.81
03.250,47.95
03.265,43.09
03.281,37.93
03.296,33.19
03.312,29.33
03.328,26.47
03.343,24.38
03.359,22.6
03.375,20.57
03.390,17.87
03.406,14.28
03.421,9.89
03.437,5.01
03.453,0.05
03.468,-4.66
03.484,-8.94
03.500,-12.84
03.515,-16.57
03.531,-20.39
03.546,-24.6
03.562,-29.57
03.578,-35.64
03.593,-43.02
03.609,-51.54
03.625,-60.33
03.640,-67.77
03.656,-71.71
03.671,-70.15
03.687,-61.93
03.703,-47.3
03.718,-27.91
03.734,-6.28
03.750,15.01
03.765,33.95
03.781,49.53
03.796,61.5
03.812,70.13
03.828,75.81
03.843,78.92
03.859,79.87
03.875,79.23
03.890,77.71
03.906,75.97
03.921,74.49
03.937,73.31
03.953,72.17
03.968,70.71
03.984,68.65
04.000,65.99
04.015,62.95
04.031,59.79
04.046,56.62
04.062,53.29
04.078,49.38
04.093,44.43
04.109,38.15
04.125,30.6
04.140,22.18
04.156,13.61
04.171,5.63
04.187,-1.24
04.203,-6.86
04.218,-11.58
04.234,-16.19
04.250,-21.64
04.265,-28.8
04.281,-37.97
04.296,-48.62
04.312,-59.22
04.328,-67.56
04.343,-71.19
04.359,-68.36
04.375,-58.5
04.390,-42.51
04.406,-22.49
04.421,-0.98
04.437,19.75
04.453,38.25
04.468,53.87
04.484,66.51
04.500,76.2
04.515,82.87
04.531,86.43
04.546,87.01
04.562,85.21
04.578,82.11
04.593,79.04
04.609,77.08
04.625,76.83
04.640,78.15
04.656,80.33
04.671,82.36
04.687,83.27
04.703,82.48
04.718,79.8
04.734,75.51
04.750,70.06
04.765,63.98
04.781,57.59
04.796,51.02
04.812,44.21
04.828,37.01
04.843,29.46
04.859,21.68
04.875,14.0
04.890,6.72
04.906,0.05
04.921,-6.05
04.937,-11.8
04.953,-17.6
04.968,-23.9
04.984,-31.14
05.000,-39.7
05.015,-49.68
05.031,-60.73
05.046,-71.85
05.062,-81.43
05.078,-87.48
05.093,-88.29
05.109,-82.91
05.125,-71.55
05.140,-55.6
05.156,-37.15
05.171,-18.41
05.187,-1.09
05.203,13.84
05.218,26.13
05.234,35.88
05.250,43.26
05.265,48.37
05.281,51.3
05.296,52.3
05.312,51.94
05.328,51.04
05.343,50.47
05.359,50.87
05.375,52.34
05.390,54.5
05.406,56.68
05.421,58.2
05.437,58.68
05.453,58.07
05.468,56.68
05.484,54.92
05.500,53.11
05.515,51.34
05.531,49.38
05.546,46.73
05.562,42.92
05.578,37.61
05.593,30.87
05.609,23.2
05.625,15.31
05.640,7.86
05.656,1.27
05.671,-4.37
05.687,-9.19
05.703,-13.49
05.718,-17.75
05.734,-22.66
05.750,-29.1
05.765,-37.77
05.781,-48.64
05.796,-60.61
05.812,-71.53
05.828,-78.94
05.843,-81.01
05.859,-77.39
05.875,-69.3
05.890,-58.93
05.906,-48.47
05.921,-39.21
05.937,-31.37
05.953,-24.34
05.968,-17.47
05.984,-10.52
06.000,-3.9
06.015,1.63
06.031,5.38
06.046,7.05
06.062,6.94
06.078,5.8
06.093,4.57
06.109,4.08
06.125,4.8
06.140,6.77
06.156,9.6
06.171,12.83
06.187,16.11
06.203,19.32
06.218,22.51
06.234,25.63
06.250,28.38
06.265,30.19
06.281,30.57
06.296,29.49
06.312,27.59
06.328,25.95
06.343,25.53
06.359,26.61
06.375,28.45
06.390,29.68
06.406,28.97
06.421,25.69
06.437,20.26
06.453,13.8
06.468,7.48
06.484,1.88
06.500,-3.22
06.515,-8.75
06.531,-15.68
06.546,-24.53
06.562,-35.0
06.578,-45.95
06.593,-55.62
06.609,-62.07
06.625,-63.67
06.640,-59.5
06.656,-49.73
06.671,-35.47
06.687,-18.57
06.703,-1.1
06.718,15.18
06.734,29.02
06.750,39.84
06.765,47.59
06.781,52.51
06.796,55.08
06.812,55.96
06.828,55.9
06.843,55.62
06.859,55.71
06.875,56.25
06.890,56.86
06.906,56.79
06.921,55.16
06.937,51.42
06.953,45.59
06.968,38.33
06.984,30.69
07.000,23.8
07.015,18.44
07.031,14.86
07.046,12.8
07.062,11.65
07.078,10.73
07.093,9.53
07.109,7.8
07.125,5.51
07.140,2.8
07.156,-0.25
07.171,-3.69
07.187,-7.72
07.203,-12.57
07.218,-18.31
07.234,-24.78
07.250,-31.57
07.265,-38.26
07.281,-44.56
07.296,-50.42
07.312,-55.85
07.328,-60.66
07.343,-64.28
07.359,-65.55
07.375,-63.15
07.390,-55.88
07.406,-43.21
07.421,-25.61
07.437,-4.44
07.453,18.26
07.468,40.35
07.484,60.12
07.500,76.65
07.515,90.01
07.531,101.05
07.546,111.12
07.562,121.59
07.578,133.37
07.593,146.62
07.609,160.54
07.625,173.5
07.640,183.29
07.656,187.8
07.671,185.59
07.687,176.37
07.703,161.03
07.718,141.2
07.734,118.45
07.750,93.9
07.765,67.95
07.781,40.86
07.796,13.27
07.812,-13.36
07.828,-36.98
07.843,-55.78
07.859,-68.97
07.875,-77.32
07.890,-82.77
07.906,-87.54
07.921,-93.11
07.937,-99.58
07.953,-105.83
07.968,-110.22
07.984,-111.51
08.000,-109.47
08.015,-105.05
08.031,-100.04
08.046,-96.55
08.062,-96.45
08.078,-100.83
08.093,-109.74
08.109,-121.93
08.125,-135.01
08.140,-145.86
08.156,-151.43
08.171,-149.45
08.187,-139.07
08.203,-120.92
08.218,-96.83
08.234,-69.23
08.250,-40.62
08.265,-13.16
08.281,11.53
08.296,32.41
08.312,49.14
08.328,62.01
08.343,71.85
08.359,79.88
08.375,87.39
08.390,95.52
08.406,104.95
08.421,115.78
08.437,127.45
08.453,138.9
08.468,148.81
08.484,156.12
08.500,160.37
08.515,161.85
08.531,161.31
08.546,159.54
08.562,156.89
08.578,153.15
08.593,147.74
08.609,140.17
08.625,130.39
08.640,118.84
08.656,106.15
08.671,92.84
08.687,79.02
08.703,64.46
08.718,48.78
08.734,31.65
08.750,12.9
08.765,-7.46
08.781,-29.26
08.796,-51.95
08.812,-74.29
08.828,-94.05
08.843,-108.17
08.859,-113.39
08.875,-107.39
08.890,-89.99
08.906,-63.76
08.921,-33.77
08.937,-6.24
08.953,13.18
08.968,21.14
08.984,17.39
09.000,4.57
09.015,-12.82
09.031,-30.02
09.046,-43.25
09.062,-50.41
09.078,-51.08
09.093,-45.96
09.109,-36.19
09.125,-22.88
09.140,-7.05
09.156,10.23
09.171,27.67
09.187,43.76
09.203,57.23
09.218,67.37
09.234,74.43
09.250,79.36
09.265,83.31
09.281,86.8
09.296,89.49
09.312,90.27
09.328,87.91
09.343,81.73
09.359,72.04
09.375,59.92
09.390,46.61
09.406,32.91
09.421,18.77
09.437,3.62
09.453,-13.09
09.468,-31.22
09.484,-49.64
09.500,-66.52
09.515,-80.03
09.531,-89.11
09.546,-93.88
09.562,-95.59
09.578,-96.08
09.593,-97.12
09.609,-99.98
09.625,-105.14
09.640,-112.44
09.656,-121.26
09.671,-130.89
09.687,-140.66
09.703,-150.15
09.718,-159.21
09.734,-167.92
09.750,-176.5
09.765,-185.03
09.781,-193.31
09.796,-200.66
09.812,-206.04
09.828,-208.27
09.843,-206.5
09.859,-200.52
09.875,-191.05
09.890,-179.55
09.906,-167.87
09.921,-157.63
09.937,-149.75
09.953,-144.29
09.968,-140.56
09.984,-137.49
10.000,-134.15
10.015,-129.98
10.031,-125.05
10.046,-119.85
10.062,-115.19
10.078,-111.81
10.093,-110.06
10.109,-109.66
10.125,-109.65
10.140,-108.53
10.156,-104.71
10.171,-96.97
10.187,-84.83
10.203,-68.72
10.218,-49.85
10.234,-29.84
10.250,-10.33
10.265,7.33
10.281,22.34
10.296,34.37
10.312,43.55
10.328,50.28
10.343,55.07
10.359,58.39
10.375,60.58
10.390,61.88
10.406,62.38
10.421,62.18
10.437,61.38
10.453,60.1
10.468,58.49
10.484,56.64
10.500,54.63
10.515,52.45
10.531,50.07
10.546,47.48
10.562,44.7
10.578,41.75
10.593,38.64
10.609,35.41
10.625,32.04
10.640,28.47
10.656,24.61
10.671,20.28
10.687,15.32
10.703,9.55
10.718,2.99
10.734,-4.1
10.750,-11.05
10.765,-16.79
10.781,-20.06
10.796,-19.68
10.812,-15.0
10.828,-6.15
10.843,5.87
10.859,19.46
10.875,32.85
10.890,44.59
10.906,53.77
10.921,60.04
10.937,63.49
10.953,64.39
10.968,63.08
10.984,59.95
11.000,55.48
11.015,50.26
11.031,44.95
11.046,40.14
11.062,36.21
11.078,33.34
11.093,31.46
11.109,30.25
11.125,29.34
11.140,28.29
11.156,26.75
11.171,24.54
11.187,21.66
11.203,18.24
11.218,14.44
11.234,10.34
11.250,5.88
11.265,0.87
11.281,-4.93
11.296,-11.73
11.312,-19.57
11.328,-28.24
11.343,-37.21
11.359,-45.61
11.375,-52.27
11.390,-55.96
11.406,-55.64
11.421,-50.81
11.437,-41.67
11.453,-29.13
11.468,-14.58
11.484,0.45
11.500,14.59
11.515,26.73
11.531,36.19
11.546,42.61
11.562,45.96
11.578,46.52
11.593,44.89
11.609,41.84
11.625,38.22
11.640,34.72
11.656,31.78
11.671,29.55
11.687,27.93
11.703,26.7
11.718,25.62
11.734,24.41
11.750,22.8
11.765,20.52
11.781,17.4
11.796,13.42
11.812,8.73
11.828,3.66
11.843,-1.48
11.859,-6.43
11.875,-11.13
11.890,-15.73
11.906,-20.49
11.921,-25.61
11.937,-31.02
11.953,-36.22
11.968,-40.29
11.984,-42.1
12.000,-40.61
12.015,-35.27
12.031,-26.26
12.046,-14.48
12.062,-1.32
12.078,11.71
12.093,23.35
12.109,32.83
12.125,39.81
12.140,44.33
12.156,46.6
12.171,46.99
12.187,45.98
12.203,44.13
12.218,42.03
12.234,40.17
12.250,38.83
12.265,37.97
12.281,37.31
12.296,36.42
12.312,34.88
12.328,32.45
12.343,29.06
12.359,24.85
12.375,20.09
12.390,15.05
12.406,9.98
12.421,4.99
12.437,0.1
12.453,-4.77
12.468,-9.69
12.484,-14.79
12.500,-20.14
12.515,-25.81
12.531,-31.72
12.546,-37.6
12.562,-42.82
12.578,-46.5
12.593,-47.65
12.609,-45.47
12.625,-39.75
12.640,-30.92
12.656,-20.02
12.671,-8.36
12.687,2.94
12.703,13.1
12.718,21.81
12.734,29.04
12.750,34.83
12.765,39.14
12.781,41.89
12.796,43.0
12.812,42.57
12.828,40.97
12.843,38.79
12.859,36.62
12.875,34.93
12.890,33.89
12.906,33.31
12.921,32.74
12.937,31.67
12.953,29.71
12.968,26.67
12.984,22.65
13.000,17.97
13.015,12.95
13.031,7.91
13.046,2.98
13.062,-1.84
13.078,-6.74
13.093,-11.97
13.109,-17.77
13.125,-24.15
13.140,-30.8
13.156,-36.93
13.171,-41.5
13.187,-43.33
13.203,-41.57
13.218,-35.95
13.234,-26.91
13.250,-15.55
13.265,-3.27
13.281,8.53
13.296,18.84
13.312,27.15
13.328,33.33
13.343,37.5
13.359,39.84
13.375,40.5
13.390,39.62
13.406,37.45
13.421,34.4
13.437,30.97
13.453,27.61
13.468,24.6
13.484,21.86
13.500,19.08
13.515,15.79
13.531,11.72
13.546,6.87
13.562,1.63
13.578,-3.42
13.593,-7.75
13.609,-11.1
13.625,-13.59
13.640,-15.72
13.656,-18.21
13.671,-21.76
13.687,-26.82
13.703,-33.38
13.718,-40.86
13.734,-48.15
13.750,-53.77
13.765,-56.26
13.781,-54.62
13.796,-48.6
13.812,-38.8
13.828,-26.49
13.843,-13.17
13.859,-0.16
13.875,11.64
13.890,21.81
13.906,30.2
13.921,36.77
13.937,41.44
13.953,44.17
13.968,45.06
13.984,44.48
14.000,43.01
14.015,41.28
14.031,39.76
14.046,38.6
14.062,37.61
14.078,36.5
14.093,34.99
14.109,32.99
14.125,30.62
14.140,28.06
14.156,25.46
14.171,22.87
14.187,20.25
14.203,17.49
14.218,14.47
14.234,11.03
14.250,6.9
14.265,1.76
14.281,-4.58
14.296,-11.98
14.312,-19.76
14.328,-26.68
14.343,-31.27
14.359,-32.19
14.375,-28.7
14.390,-20.96
14.406,-9.9
14.421,2.99
14.437,16.08
14.453,28.04
14.468,38.01
14.484,45.62
14.500,50.92
14.515,54.11
14.531,55.55
14.546,55.53
14.562,54.42
14.578,52.58
14.593,50.35
14.609,48.0
14.625,45.71
14.640,43.47
14.656,41.16
14.671,38.66
14.687,35.9
14.703,32.93
14.718,29.87
14.734,26.8
14.750,23.67
14.765,20.25
14.781,16.26
14.796,11.47
14.812,5.86
14.828,-0.31
14.843,-6.64
14.859,-12.68
14.875,-18.17
14.890,-23.15
14.906,-27.95
14.921,-33.12
14.937,-39.11
14.953,-46.1
14.968,-53.72
14.984,-61.04
15.000,-66.71
15.015,-69.37
15.031,-67.98
15.046,-62.23
15.062,-52.59
15.078,-40.17
15.093,-26.35
15.109,-12.46
15.125,0.5
15.140,11.86
15.156,21.27
15.171,28.5
15.187,33.49
15.203,36.3
15.218,37.27
15.234,36.96
15.250,36.06
15.265,35.21
15.281,34.74
15.296,34.63
15.312,34.55
15.328,34.14
15.343,33.18
15.359,31.78
15.375,30.31
15.390,29.23
15.406,28.76
15.421,28.78
15.437,28.79
15.453,28.07
15.468,26.03
15.484,22.42
15.500,17.51
15.515,12.06
15.531,7.12
15.546,3.67
15.562,2.41
15.578,3.4
15.593,6.0
15.609,8.93
15.625,10.44
15.640,8.71
15.656,2.34
15.671,-9.19
15.687,-25.15
15.703,-43.54
15.718,-61.54
15.734,-76.21
15.750,-85.33
15.765,-87.93
15.781,-84.32
15.796,-75.77
15.812,-63.92
15.828,-50.24
15.843,-35.91
15.859,-21.82
15.875,-8.72
15.890,2.69
15.906,11.87
15.921,18.57
15.937,22.97
15.953,25.58
15.968,27.07
15.984,28.05
16.000,28.88
16.015,29.68
16.031,30.35
16.046,30.69
16.062,30.53
16.078,29.82
16.093,28.66
16.109,27.29
16.125,26.0
16.140,25.02
16.156,24.32
16.171,23.68
16.187,22.69
16.203,20.97
16.218,18.31
16.234,14.74
16.250,10.54
16.265,6.04
16.281,1.53
16.296,-2.83
16.312,-6.99
16.328,-10.96
16.343,-14.69
16.359,-18.09
16.375,-21.15
16.390,-24.03
16.406,-27.02
16.421,-30.45
16.437,-34.32
16.453,-38.09
16.468,-40.62
16.484,-40.47
16.500,-36.38
16.515,-27.8
16.531,-15.13
16.546,0.36
16.562,17.0
16.578,33.21
16.593,47.96
16.609,60.93
16.625,72.26
16.640,82.37
16.656,91.67
16.671,100.38
16.687,108.63
16.703,116.44
16.718,123.84
16.734,130.87
16.750,137.7
16.765,144.62
16.781,152.14
16.796,161.01
16.812,172.17
16.828,186.49
16.843,204.54
16.859,226.17
16.875,250.23
16.890,274.55
16.906,296.11
16.921,311.58
16.937,318.06
16.953,313.78
16.968,298.48
16.984,273.58
17.000,241.76
17.015,206.36
17.031,170.57
17.046,136.78
17.062,106.25
17.078,79.19
17.093,54.96
17.109,32.52
17.125,10.74
17.140,-11.51
17.156,-35.31
17.171,-61.38
17.187,-89.54
17.203,-118.11
17.218,-143.89
17.234,-163.07
17.250,-172.85
17.265,-173.04
17.281,-166.65
17.296,-158.92
17.312,-155.29
17.328,-159.23
17.343,-171.11
17.359,-188.48
17.375,-207.5
17.390,-224.49
17.406,-236.78
17.421,-242.76
17.437,-241.45
17.453,-232.29
17.468,-215.29
17.484,-191.51
17.500,-163.14
17.515,-133.23
17.531,-104.84
17.546,-80.37
17.562,-61.02
17.578,-46.79
17.593,-36.74
17.609,-29.38
17.625,-23.13
17.640,-16.71
17.656,-9.49
17.671,-1.73
17.687,5.55
17.703,10.88
17.718,12.93
17.734,11.0
17.750,5.22
17.765,-3.57
17.781,-14.33
17.796,-26.22
17.812,-38.93
17.828,-52.41
17.843,-66.66
17.859,-81.38
17.875,-95.86
17.890,-109.41
17.906,-121.55
17.921,-132.24
17.937,-141.6
17.953,-149.58
17.968,-155.57
17.984,-158.39
18.000,-156.74
18.015,-149.79
18.031,-137.6
18.046,-121.24
18.062,-102.44
18.078,-83.01
18.093,-64.45
18.109,-47.69
18.125,-33.21
18.140,-21.24
18.156,-11.85
18.171,-5.0
18.187,-0.51
18.203,1.95
18.218,2.96
18.234,3.19
18.250,3.32
18.265,3.95
18.281,5.39
18.296,7.63
18.312,10.34
18.328,13.02
18.343,15.27
18.359,16.91
18.375,18.03
18.390,18.96
18.406,19.94
18.421,21.07
18.437,22.25
18.453,23.22
18.468,23.76
18.484,23.73
18.500,23.09
18.515,21.82
18.531,19.78
18.546,16.67
18.562,12.13
18.578,5.84
18.593,-2.41
18.609,-12.58
18.625,-24.43
18.640,-37.6
18.656,-51.56
18.671,-65.52
18.687,-78.37
18.703,-88.6
18.718,-94.52
18.734,-94.71
18.750,-88.52
18.765,-76.53
18.781,-60.5
18.796,-42.86
18.812,-25.95
18.828,-11.32
18.843,0.55
18.859,10.05
18.875,17.94
18.890,24.84
18.906,31.01
18.921,36.39
18.937,40.89
18.953,44.59
18.968,47.84
18.984,51.0
19.000,54.38
19.015,58.05
19.031,61.87
19.046,65.62
19.062,69.07
19.078,72.05
19.093,74.45
19.109,76.24
19.125,77.38
19.140,77.87
19.156,77.65
19.171,76.59
19.187,74.58
19.203,71.64
19.218,68.04
19.234,64.29
19.250,60.98
19.265,58.41
19.281,56.14
19.296,52.92
19.312,46.9
19.328,36.25
19.343,19.78
19.359,-2.61
19.375,-29.88
19.390,-60.15
19.406,-91.0
19.421,-119.8
19.437,-143.92
19.453,-161.02
19.468,-169.44
19.484,-168.63
19.500,-159.42
19.515,-143.88
19.531,-124.8
19.546,-104.96
19.562,-86.48
19.578,-70.59
19.593,-57.69
19.609,-47.84
19.625,-40.91
19.640,-36.74
19.656,-35.04
19.671,-35.27
19.687,-36.61
19.703,-38.07
19.718,-38.76
19.734,-38.04
19.750,-35.7
19.765,-32.01
19.781,-27.59
19.796,-23.24
19.812,-19.78
19.828,-17.86
19.843,-17.85
19.859,-19.74
19.875,-23.12
19.890,-27.26
19.906,-31.16
19.921,-33.78
19.937,-34.33
19.953,-32.46
19.968,-28.43
19.984,-23.17
20.000,-18.12
20.015,-14.96
20.031,-15.3
20.046,-20.33
20.062,-30.41
20.078,-44.81
20.093,-61.52
20.109,-77.6
20.125,-89.79
20.140,-95.49
20.156,-93.51
20.171,-84.49
20.187,-70.59
20.203,-54.79
20.218,-39.93
20.234,-28.11
20.250,-20.36
20.265,-16.83
20.281,-17.03
20.296,-20.05
20.312,-24.73
20.328,-29.7
20.343,-33.51
20.359,-34.88
20.375,-32.98
20.390,-27.59
20.406,-19.24
20.421,-9.06
20.437,1.49
20.453,10.99
20.468,18.35
20.484,23.1
20.500,25.37
20.515,25.84
20.531,25.48
20.546,25.28
20.562,26.0
20.578,27.98
20.593,31.06
20.609,34.66
20.625,37.94
20.640,40.0
20.656,40.18
20.671,38.12
20.687,33.77
20.703,27.43
20.718,19.7
20.734,11.61
20.750,4.65
20.765,0.66
20.781,1.41
20.796,8.05
20.812,20.62
20.828,37.85
20.843,57.41
20.859,76.63
20.875,93.12
20.890,105.38
20.906,112.87
20.921,115.8
20.937,114.68
20.953,110.11
20.968,102.67
20.984,93.07
21.000,82.2
21.015,71.07
21.031,60.59
21.046,51.45
21.062,44.0
21.078,38.33
21.093,34.49
21.109,32.48
21.125,32.27
21.140,33.63
21.156,36.08
21.171,38.86
21.187,41.2
21.203,42.53
21.218,42.64
21.234,41.65
21.250,39.89
21.265,37.72
21.281,35.33
21.296,32.77
21.312,29.97
21.328,26.91
21.343,23.72
21.359,20.92
21.375,19.49
21.390,20.77
21.406,26.13
21.421,36.45
21.437,51.67
21.453,70.65
21.468,91.45
21.484,112.06
21.500,131.11
21.515,148.36
21.531,164.62
21.546,181.08
21.562,198.34
21.578,215.8
21.593,231.59
21.609,243.24
21.625,248.75
21.640,247.4
21.656,239.87
21.671,227.76
21.687,212.59
21.703,195.02
21.718,174.8
21.734,151.15
21.750,123.63
21.765,92.72
21.781,60.02
21.796,27.96
21.812,-0.61
21.828,-23.01
21.843,-37.41
21.859,-43.49
21.875,-42.92
21.890,-39.35
21.906,-37.61
21.921,-42.1
21.937,-55.29
21.953,-76.6
21.968,-102.71
21.984,-128.85
22.000,-150.6
22.015,-165.32
22.031,-172.49
22.046,-173.05
22.062,-168.27
22.078,-158.89
22.093,-144.8
22.109,-125.45
22.125,-100.57
22.140,-71.1
22.156,-39.78
22.171,-11.02
22.187,9.92
22.203,18.41
22.218,12.16
22.234,-7.79
22.250,-37.09
22.265,-69.29
22.281,-97.91
22.296,-118.43
22.312,-129.3
22.328,-131.77
22.343,-128.51
22.359,-122.04
22.375,-113.64
22.390,-103.09
22.406,-89.48
22.421,-72.25
22.437,-52.03
22.453,-30.68
22.468,-10.66
22.484,6.08
22.500,18.81
22.515,28.07
22.531,35.16
22.546,41.31
22.562,47.42
22.578,54.21
22.593,62.59
22.609,73.6
22.625,87.84
22.640,104.51
22.656,120.83
22.671,132.5
22.687,135.01
22.703,125.35
22.718,103.14
22.734,70.49
22.750,30.96
22.765,-11.77
22.781,-54.61
22.796,-94.91
22.812,-129.92
22.828,-156.54
22.843,-171.88
22.859,-174.37
22.875,-164.67
22.890,-145.83
22.906,-122.37
22.921,-98.76
22.937,-78.06
22.953,-61.24
22.968,-47.52
22.984,-35.54
23.000,-24.5
23.015,-14.91
23.031,-8.55
23.046,-7.58
23.062,-13.46
23.078,-25.87
23.093,-42.46
23.109,-59.29
23.125,-72.05
23.140,-77.34
23.156,-73.7
23.171,-61.77
23.187,-43.75
23.203,-22.44
23.218,-0.33
23.234,20.68
23.250,39.36
23.265,54.76
23.281,66.08
23.296,72.68
23.312,74.42
23.328,71.93
23.343,66.6
23.359,60.33
23.375,55.04
23.390,52.19
23.406,52.48
23.421,55.84
23.437,61.62
23.453,68.82
23.468,76.36
23.484,83.23
23.500,88.68
23.515,92.29
23.531,94.02
23.546,94.22
23.562,93.39
23.578,92.12
23.593,90.92
23.609,90.2
23.625,90.18
23.640,90.77
23.656,91.45
23.671,91.34
23.687,89.55
23.703,85.61
23.718,79.88
23.734,73.46
23.750,67.6
23.765,62.93
23.781,59.0
23.796,54.37
23.812,47.37
23.828,36.96
23.843,23.28
23.859,7.66
23.875,-7.96
23.890,-21.96
23.906,-33.65
23.921,-43.73
23.937,-54.09
23.953,-67.17
23.968,-85.09
23.984,-108.7
24.000,-137.05
24.015,-167.49
24.031,-196.47
24.046,-220.72
24.062,-238.48
24.078,-249.95
24.093,-256.98
24.109,-262.17
24.125,-267.82
24.140,-275.01
24.156,-283.35
24.171,-290.99
24.187,-295.17
24.203,-292.94
24.218,-281.97
24.234,-261.32
24.250,-231.64
24.265,-195.1
24.281,-154.81
24.296,-114.11
24.312,-75.93
24.328,-42.42
24.343,-14.91
24.359,6.06
24.375,20.64
24.390,29.52
24.406,33.91
24.421,35.32
24.437,35.23
24.453,34.87
24.468,34.87
24.484,35.39
24.500,36.13
24.515,36.71
24.531,36.78
24.546,36.29
24.562,35.39
24.578,34.4
24.593,33.53
24.609,32.71
24.625,31.51
24.640,29.28
24.656,25.33
24.671,19.22
24.687,10.95
24.703,0.91
24.718,-10.28
24.734,-21.88
24.750,-33.15
24.765,-43.34
24.781,-51.48
24.796,-56.45
24.812,-57.13
24.828,-52.65
24.843,-42.81
24.859,-28.35
24.875,-10.78
24.890,7.82
24.906,25.42
24.921,40.47
24.937,52.16
24.953,60.36
24.968,65.35
24.984,67.5
25.000,67.12
25.015,64.44
25.031,59.72
25.046,53.38
25.062,45.98
25.078,38.18
25.093,30.51
25.109,23.33
25.125,16.76
25.140,10.77
25.156,5.27
25.171,0.12
25.187,-4.71
25.203,-9.2
25.218,-13.27
25.234,-16.77
25.250,-19.59
25.265,-21.62
25.281,-22.97
25.296,-23.9
25.312,-24.89
25.328,-26.58
25.343,-29.65
25.359,-34.6
25.375,-41.46
25.390,-49.54
25.406,-57.39
25.421,-63.03
25.437,-64.4
25.453,-60.02
25.468,-49.44
25.484,-33.35
25.500,-13.36
25.515,8.5
25.531,30.38
25.546,50.95
25.562,69.46
25.578,85.63
25.593,99.4
25.609,110.78
25.625,119.81
25.640,126.55
25.656,131.16
25.671,133.89
25.687,134.94
25.703,134.5
25.718,132.7
25.734,129.61
25.750,125.33
25.765,120.05
25.781,114.01
25.796,107.41
25.812,100.37
25.828,92.84
25.843,84.68
25.859,75.69
25.875,65.73
25.890,54.77
25.906,42.94
25.921,30.57
25.937,18.1
25.953,6.09
25.968,-5.03
25.984,-15.02
26.000,-23.99
26.015,-32.45
26.031,-41.15
26.046,-50.87
26.062,-61.94
26.078,-74.03
26.093,-85.95
26.109,-95.91
26.125,-101.98
26.140,-102.7
26.156,-97.55
26.171,-87.1
26.187,-72.9
26.203,-56.93
26.218,-41.15
26.234,-27.01
26.250,-15.36
26.265,-6.53
26.281,-0.48
26.296,2.92
26.312,3.91
26.328,2.77
26.343,0.04
26.359,-3.55
26.375,-7.14
26.390,-9.95
26.406,-11.51
26.421,-11.78
26.437,-11.11
26.453,-9.99
26.468,-8.79
26.484,-7.6
26.500,-6.26
26.515,-4.45
26.531,-2.01
26.546,0.87
26.562,3.72
26.578,5.8
26.593,6.51
26.609,5.5
26.625,2.85
26.640,-1.08
26.656,-5.74
26.671,-10.7
26.687,-15.69
26.703,-20.65
26.718,-25.63
26.734,-30.78
26.750,-36.33
26.765,-42.58
26.781,-49.87
26.796,-58.44
26.812,-68.08
26.828,-77.97
26.843,-86.58
26.859,-91.98
26.875,-92.41
26.890,-86.86
26.906,-75.43
26.921,-59.35
26.937,-40.53
26.953,-21.0
26.968,-2.37
26.984,14.38
27.000,28.81
27.015,40.75
27.031,50.09
27.046,56.71
27.062,60.6
27.078,62.04
27.093,61.61
27.109,60.16
27.125,58.46
27.140,57.02
27.156,55.91
27.171,54.89
27.187,53.67
27.203,52.15
27.218,50.52
27.234,49.17
27.250,48.41
27.265,48.23
27.281,48.14
27.296,47.37
27.312,45.15
27.328,41.0
27.343,34.97
27.359,27.56
27.375,19.54
27.390,11.62
27.406,4.25
27.421,-2.45
27.437,-8.63
27.453,-14.72
27.468,-21.17
27.484,-28.42
27.500,-36.8
27.515,-46.36
27.531,-56.74
27.546,-67.01
27.562,-75.87
27.578,-81.77
27.593,-83.45
27.609,-80.23
27.625,-72.28
27.640,-60.5
27.656,-46.26
27.671,-30.89
27.687,-15.51
27.703,-0.85
27.718,12.52
27.734,24.06
27.750,33.21
27.765,39.49
27.781,42.76
27.796,43.4
27.812,42.26
27.828,40.43
27.843,38.88
27.859,38.21
27.875,38.49
27.890,39.41
27.906,40.47
27.921,41.21
27.937,41.4
27.953,40.93
27.968,39.83
27.984,38.16
28.000,35.98
28.015,33.33
28.031,30.24
28.046,26.78
28.062,23.0
28.078,19.05
28.093,15.08
28.109,11.32
28.125,7.95
28.140,5.08
28.156,2.62
28.171,0.33
28.187,-2.2
28.203,-5.41
28.218,-9.78
28.234,-15.67
28.250,-23.37
28.265,-32.9
28.281,-43.91
28.296,-55.51
28.312,-66.25
28.328,-74.27
28.343,-77.84
28.359,-75.86
28.375,-68.28
28.390,-56.21
28.406,-41.53
28.421,-26.38
28.437,-12.48
28.453,-0.81
28.468,8.47
28.484,15.71
28.500,21.5
28.515,26.33
28.531,30.49
28.546,34.09
28.562,37.26
28.578,40.14
28.593,43.03
28.609,46.25
28.625,50.02
28.640,54.4
28.656,59.19
28.671,63.99
28.687,68.39
28.703,72.01
28.718,74.66
28.734,76.31
28.750,76.99
28.765,76.72
28.781,75.46
28.796,73.15
28.812,69.72
28.828,65.17
28.843,59.58
28.859,53.07
28.875,45.81
28.890,38.02
28.906,29.99
28.921,22.01
28.937,14.33
28.953,7.04
28.968,0.08
28.984,-6.83
29.000,-14.04
29.015,-21.94
29.031,-30.71
29.046,-40.23
29.062,-49.85
29.078,-58.45
29.093,-64.49
29.109,-66.47
29.125,-63.32
29.140,-54.9
29.156,-42.09
29.171,-26.65
29.187,-10.68
29.203,3.92
29.218,15.87
29.234,24.57
29.250,30.0
29.265,32.44
29.281,32.3
29.296,30.12
29.312,26.57
29.328,22.41
29.343,18.52
29.359,15.62
29.375,14.12
29.390,14.04
29.406,15.05
29.421,16.63
29.437,18.28
29.453,19.72
29.468,20.89
29.484,21.94
29.500,23.05
29.515,24.3
29.531,25.54
29.546,26.47
29.562,26.67
29.578,25.88
29.593,24.05
29.609,21.44
29.625,18.55
29.640,15.91
29.656,13.92
29.671,12.73
29.687,12.17
29.703,11.85
29.718,11.33
29.734,10.21
29.750,8.13
29.765,4.87
29.781,0.32
29.796,-5.38
29.812,-11.64
29.828,-17.38
29.843,-21.18
29.859,-21.67
29.875,-18.02
29.890,-10.34
29.906,0.36
29.921,12.49
29.937,24.45
29.953,35.03
29.968,43.59
29.984,49.91
30.000,53.95
30.015,55.73
30.031,55.27
30.046,52.79
30.062,48.8
30.078,44.07
30.093,39.51
30.109,35.91
30.125,33.73
30.140,33.05
30.156,33.51
30.171,34.55
30.187,35.57
30.203,36.23
30.218,36.45
30.234,36.42
30.250,36.33
30.265,36.14
30.281,35.5
30.296,33.83
30.312,30.63
30.328,25.75
30.343,19.48
30.359,12.45
30.375,5.31
30.390,-1.51
30.406,-7.9
30.421,-14.05
30.437,-20.22
30.453,-26.63
30.468,-33.4
30.484,-40.61
30.500,-48.23
30.515,-56.02
30.531,-63.44
30.546,-69.49
30.562,-72.88
30.578,-72.3
30.593,-66.9
30.609,-56.66
30.625,-42.42
30.640,-25.78
30.656,-8.53
30.671,7.75
30.687,22.01
30.703,33.74
30.718,42.74
30.734,49.0
30.750,52.48
30.765,53.31
30.781,51.8
30.796,48.55
30.812,44.32
30.828,39.83
30.843,35.61
30.859,31.89
30.875,28.71
30.890,26.03
30.906,23.9
30.921,22.4
30.937,21.55
30.953,21.26
30.968,21.24
30.984,21.11
31.000,20.52
31.015,19.32
31.031,17.53
31.046,15.33
31.062,13.02
31.078,10.92
31.093,9.34
31.109,8.55
31.125,8.74
31.140,9.98
31.156,12.12
31.171,14.78
31.187,17.43
31.203,19.5
31.218,20.55
31.234,20.43
31.250,19.22
31.265,17.18
31.281,14.62
31.296,11.85
31.312,9.09
31.328,6.57
31.343,4.5
31.359,3.08
31.375,2.41
31.390,2.47
31.406,3.1
31.421,4.03
31.437,4.93
31.453,5.42
31.468,5.24
31.484,4.26
31.500,2.57
31.515,0.4
31.531,-1.9
31.546,-4.04
31.562,-5.84
31.578,-7.28
31.593,-8.45
31.609,-9.43
31.625,-10.29
31.640,-11.04
31.656,-11.73
31.671,-12.5
31.687,-13.63
31.703,-15.4
31.718,-18.07
31.734,-21.76
31.750,-26.35
31.765,-31.64
31.781,-37.35
31.796,-43.2
31.812,-49.01
31.828,-54.58
31.843,-59.8
31.859,-64.66
31.875,-69.33
31.890,-74.26
31.906,-80.01
31.921,-86.94
31.937,-94.77
31.953,-102.36
31.968,-107.92
31.984,-109.48
32.000,-105.73
32.015,-96.46
32.031,-82.69
32.046,-66.28
32.062,-49.28
32.078,-33.42
32.093,-19.8
32.109,-8.93
32.125,-0.86
32.140,4.56
32.156,7.67
32.171,8.99
32.187,9.2
32.203,9.1
32.218,9.48
32.234,10.92
32.250,13.68
32.265,17.61
32.281,22.32
32.296,27.3
32.312,32.13
32.328,36.66
32.343,40.95
32.359,45.15
32.375,49.28
32.390,53.14
32.406,56.3
32.421,58.25
32.437,58.68
32.453,57.6
32.468,55.34
32.484,52.43
32.500,49.38
32.515,46.44
32.531,43.53
32.546,40.26
32.562,36.09
32.578,30.6
32.593,23.69
32.609,15.74
32.625,7.6
32.640,0.34
32.656,-4.97
32.671,-7.59
32.687,-7.25
32.703,-4.11
32.718,1.4
32.734,8.8
32.750,17.63
32.765,27.42
32.781,37.65
32.796,47.59
32.812,56.37
32.828,63.09
32.843,67.07
32.859,68.0
32.875,66.02
32.890,61.6
32.906,55.5
32.921,48.54
32.937,41.51
32.953,35.13
32.968,30.0
32.984,26.56
33.000,25.0
33.015,25.22
33.031,26.79
33.046,29.05
33.062,31.21
33.078,32.58
33.093,32.71
33.109,31.49
33.125,29.07
33.140,25.78
33.156,22.04
33.171,18.18
33.187,14.46
33.203,11.08
33.218,8.25
33.234,6.18
33.250,5.1
33.265,5.16
33.281,6.26
33.296,8.07
33.312,10.03
33.328,11.56
33.343,12.28
33.359,12.1
33.375,11.2
33.390,9.84
33.406,8.17
33.421,6.17
33.437,3.74
33.453,0.95
33.468,-1.96
33.484,-4.55
33.500,-6.42
33.515,-7.44
33.531,-7.82
33.546,-8.0
33.562,-8.4
33.578,-9.23
33.593,-10.48
33.609,-12.0
33.625,-13.75
33.640,-15.87
33.656,-18.61
33.671,-22.12
33.687,-26.25
33.703,-30.56
33.718,-34.41
33.734,-37.37
33.750,-39.46
33.765,-41.15
33.781,-43.22
33.796,-46.4
33.812,-51.19
33.828,-57.79
33.843,-66.08
33.859,-75.73
33.875,-86.06
33.890,-95.95
33.906,-103.87
33.921,-108.15
33.937,-107.46
33.953,-101.29
33.968,-90.27
33.984,-75.96
34.000,-60.41
34.015,-45.6
34.031,-32.99
34.046,-23.47
34.062,-17.34
34.078,-14.62
34.093,-15.03
34.109,-18.14
34.125,-23.32
34.140,-29.72
34.156,-36.43
34.171,-42.51
34.187,-47.15
34.203,-49.88
34.218,-50.59
34.234,-49.55
34.250,-47.41
34.265,-44.96
34.281,-42.93
34.296,-41.76
34.312,-41.54
34.328,-42.09
34.343,-43.09
34.359,-44.31
34.375,-45.67
34.390,-47.34
34.406,-49.55
34.421,-52.59
34.437,-56.69
34.453,-62.04
34.468,-68.6
34.484,-76.01
34.500,-83.36
34.515,-89.25
34.531,-92.06
34.546,-90.42
34.562,-83.68
34.578,-72.26
34.593,-57.47
34.609,-41.07
34.625,-24.81
34.640,-10.02
34.656,2.42
34.671,11.9
34.687,18.01
34.703,20.48
34.718,19.36
34.734,15.25
34.750,9.31
34.765,2.98
34.781,-2.42
34.796,-6.08
34.812,-7.93
34.828,-8.47
34.843,-8.54
34.859,-8.87
34.875,-9.88
34.890,-11.62
34.906,-13.91
34.921,-16.58
34.937,-19.53
34.953,-22.78
34.968,-26.44
34.984,-30.61
35.000,-35.5
35.015,-41.41
35.031,-48.65
35.046,-57.31
35.062,-66.95
35.078,-76.36
35.093,-83.74
35.109,-87.09
35.125,-84.94
35.140,-76.84
35.156,-63.56
35.171,-46.87
35.187,-28.9
35.203,-11.59
35.218,3.78
35.234,16.56
35.250,26.62
35.265,33.98
35.281,38.65
35.296,40.58
35.312,39.91
35.328,37.14
35.343,33.17
35.359,29.15
35.375,26.1
35.390,24.56
35.406,24.38
35.421,24.84
35.437,25.01
35.453,24.14
35.468,21.94
35.484,18.58
35.500,14.46
35.515,10.0
35.531,5.47
35.546,0.91
35.562,-3.82
35.578,-8.98
35.593,-14.88
35.609,-21.79
35.625,-29.9
35.640,-38.99
35.656,-48.4
35.671,-56.82
35.687,-62.47
35.703,-63.51
35.718,-58.54
35.734,-47.18
35.750,-30.28
35.765,-9.76
35.781,11.87
35.796,32.26
35.812,49.75
35.828,63.65
35.843,74.1
35.859,81.64
35.875,86.83
35.890,90.04
35.906,91.42
35.921,91.09
35.937,89.29
35.953,86.45
35.968,83.05
35.984,79.48
36.000,75.94
36.015,72.35
36.031,68.55
36.046,64.3
36.062,59.45
36.078,53.96
36.093,47.88
36.109,41.36
36.125,34.52
36.140,27.51
36.156,20.44
36.171,13.4
36.187,6.4
36.203,-0.56
36.218,-7.65
36.234,-15.11
36.250,-23.37
36.265,-32.81
36.281,-43.54
36.296,-55.04
36.312,-66.01
36.328,-74.43
36.343,-78.17
36.359,-75.69
36.375,-66.59
36.390,-51.84
36.406,-33.46
36.421,-13.78
36.437,5.17
36.453,22.11
36.468,36.53
36.484,48.43
36.500,57.98
36.515,65.33
36.531,70.6
36.546,73.94
36.562,75.65
36.578,76.2
36.593,76.06
36.609,75.65
36.625,75.17
36.640,74.56
36.656,73.64
36.671,72.27
36.687,70.46
36.703,68.4
36.718,66.41
36.734,64.62
36.750,62.86
36.765,60.66
36.781,57.37
36.796,52.52
36.812,46.02
36.828,38.27
36.843,29.98
36.859,21.9
36.875,14.47
36.890,7.7
36.906,1.16
36.921,-5.79
36.937,-13.73
36.953,-23.01
36.968,-33.42
36.984,-44.22
37.000,-54.06
37.015,-61.26
37.031,-64.13
37.046,-61.52
37.062,-53.14
37.078,-39.82
37.093,-23.27
37.109,-5.57
37.125,11.37
37.140,26.23
37.156,38.46
37.171,48.09
37.187,55.4
37.203,60.67
37.218,64.12
37.234,65.94
37.250,66.42
37.265,66.0
37.281,65.14
37.296,64.24
37.312,63.46
37.328,62.74
37.343,61.83
37.359,60.48
37.375,58.55
37.390,56.07
37.406,53.17
37.421,50.06
37.437,46.94
37.453,43.87
37.468,40.78
37.484,37.47
37.500,33.64
37.515,29.02
37.531,23.49
37.546,17.14
37.562,10.29
37.578,3.4
37.593,-3.12
37.609,-9.02
37.625,-14.32
37.640,-19.25
37.656,-24.2
37.671,-29.57
37.687,-35.67
37.703,-42.68
37.718,-50.51
37.734,-58.7
37.750,-66.34
37.765,-72.18
37.781,-74.82
37.796,-73.18
37.812,-66.85
37.828,-56.32
37.843,-42.85
37.859,-28.08
37.875,-13.55
37.890,-0.34
37.906,10.99
37.921,20.27
37.937,27.41
37.953,32.31
37.968,34.9
37.984,35.34
38.000,34.15
38.015,32.17
38.031,30.3
38.046,29.15
38.062,28.89
38.078,29.23
38.093,29.74
38.109,30.09
38.125,30.18
38.140,30.1
38.156,29.93
38.171,29.56
38.187,28.69
38.203,27.0
38.218,24.26
38.234,20.53
38.250,16.08
38.265,11.31
38.281,6.58
38.296,2.15
38.312,-1.91
38.328,-5.61
38.343,-9.07
38.359,-12.4
38.375,-15.73
38.390,-19.1
38.406,-22.46
38.421,-25.72
38.437,-28.76
38.453,-31.63
38.468,-34.55
38.484,-37.91
38.500,-42.07
38.515,-47.06
38.531,-52.34
38.546,-56.71
38.562,-58.54
38.578,-56.21
38.593,-48.6
38.609,-35.51
38.625,-17.78
38.640,2.98
38.656,24.86
38.671,46.09
38.687,65.47
38.703,82.37
38.718,96.75
38.734,108.92
38.750,119.36
38.765,128.55
38.781,136.97
38.796,144.91
38.812,152.56
38.828,159.94
38.843,167.0
38.859,173.71
38.875,180.16
38.890,186.56
38.906,193.04
38.921,199.45
38.937,205.19
38.953,209.19
38.968,210.19
38.984,207.1
39.000,199.37
39.015,187.28
39.031,172.02
39.046,155.57
39.062,140.45
39.078,129.22
39.093,123.77
39.109,124.49
39.125,129.86
39.140,136.48
39.156,139.92
39.171,136.01
39.187,122.12
39.203,97.9
39.218,65.25
39.234,27.46
39.250,-11.9
39.265,-49.86
39.281,-84.55
39.296,-115.18
39.312,-141.68
39.328,-164.22
39.343,-182.81
39.359,-197.09
39.375,-206.38
39.390,-209.91
39.406,-207.33
39.421,-199.15
39.437,-186.85
39.453,-172.68
39.468,-158.98
39.484,-147.61
39.500,-139.41
39.515,-134.28
39.531,-131.5
39.546,-130.19
39.562,-129.64
39.578,-129.28
39.593,-128.61
39.609,-127.11
39.625,-124.28
39.640,-119.97
39.656,-114.56
39.671,-109.0
39.687,-104.52
39.703,-102.14
39.718,-102.33
39.734,-104.81
39.750,-108.75
39.765,-113.12
39.781,-117.03
39.796,-119.91
39.812,-121.4
39.828,-121.22
39.843,-119.09
39.859,-114.71
39.875,-107.97
39.890,-99.09
39.906,-88.64
39.921,-77.53
39.937,-66.75
39.953,-57.14
39.968,-49.15
39.984,-42.92
40.000,-38.28
40.015,-35.02
40.031,-33.08
40.046,-32.55
40.062,-33.56
40.078,-35.95
40.093,-38.97
40.109,-41.18
40.125,-40.74
40.140,-35.91
40.156,-25.57
40.171,-9.66
40.187,10.93
40.203,34.6
40.218,59.61
40.234,84.3
40.250,107.36
40.265,127.65
40.281,144.21
40.296,156.08
40.312,162.54
40.328,163.24
40.343,158.31
40.359,148.51
40.375,134.98
40.390,119.07
40.406,102.11
40.421,85.2
40.437,69.2
40.453,54.69
40.468,41.96
40.484,31.02
40.500,21.69
40.515,13.68
40.531,6.6
40.546,0.17
40.562,-5.92
40.578,-11.92
40.593,-18.14
40.609,-24.85
40.625,-32.2
40.640,-40.09
40.656,-48.03
40.671,-55.29
40.687,-61.06
40.703,-64.74
40.718,-66.21
40.734,-65.9
40.750,-64.69
40.765,-63.69
40.781,-63.89
40.796,-65.97
40.812,-70.11
40.828,-75.94
40.843,-82.6
40.859,-88.88
40.875,-93.37
40.890,-94.72
40.906,-91.93
40.921,-84.56
40.937,-72.85
40.953,-57.74
40.968,-40.64
40.984,-23.21
41.000,-6.98
41.015,6.87
41.031,17.73
41.046,25.55
41.062,30.85
41.078,34.6
41.093,37.96
41.109,42.09
41.125,47.85
41.140,55.62
41.156,65.3
41.171,76.32
41.187,87.93
41.203,99.57
41.218,111.22
41.234,123.45
41.250,137.05
41.265,152.19
41.281,167.53
41.296,179.88
41.312,184.72
41.328,177.48
41.343,155.32
41.359,118.32
41.375,69.91
41.390,15.97
41.406,-36.83
41.421,-82.83
41.437,-118.6
41.453,-143.06
41.468,-156.93
41.484,-161.7
41.500,-158.98
41.515,-150.34
41.531,-137.57
41.546,-122.79
41.562,-108.26
41.578,-95.76
41.593,-86.27
41.609,-79.95
41.625,-76.64
41.640,-76.34
41.656,-79.11
41.671,-84.34
41.687,-90.04
41.703,-92.85
41.718,-89.09
41.734,-76.7
41.750,-56.55
41.765,-32.49
41.781,-9.79
41.796,7.04
41.812,16.11
41.828,18.41
41.843,16.79
41.859,14.29
41.875,12.83
41.890,12.95
41.906,14.2
41.921,15.88
41.937,17.53
41.953,19.03
41.968,20.38
41.984,21.44
42.000,21.86
42.015,21.25
42.031,19.33
42.046,16.17
42.062,12.2
42.078,8.13
42.093,4.68
42.109,2.38
42.125,1.34
42.140,1.21
42.156,1.39
42.171,1.33
42.187,0.81
42.203,0.15
42.218,0.11
42.234,1.58
42.250,5.06
42.265,10.35
42.281,16.5
42.296,22.16
42.312,26.05
42.328,27.46
42.343,26.51
42.359,23.99
42.375,20.99
42.390,18.44
42.406,16.85
42.421,16.26
42.437,16.42
42.453,16.99
42.468,17.76
42.484,18.74
42.500,20.0
42.515,21.72
42.531,23.99
42.546,26.79
42.562,30.04
42.578,33.6
42.593,37.33
42.609,41.04
42.625,44.6
42.640,47.87
42.656,50.7
42.671,52.93
42.687,54.28
42.703,54.35
42.718,52.69
42.734,48.98
42.750,43.26
42.765,36.12
42.781,28.66
42.796,22.26
42.812,18.04
42.828,16.38
42.843,16.71
42.859,17.63
42.875,17.55
42.890,15.44
42.906,11.55
42.921,7.43
42.937,5.56
42.953,8.5
42.968,17.87
42.984,33.82
43.000,55.06
43.015,79.24
43.031,103.36
43.046,124.18
43.062,138.44
43.078,143.44
43.093,137.93
43.109,123.05
43.125,102.41
43.140,81.13
43.156,63.79
43.171,52.4
43.187,45.72
43.203,40.17
43.218,32.04
43.234,19.56
43.250,3.65
43.265,-13.0
43.281,-27.89
43.296,-40.18
43.312,-51.11
43.328,-62.94
43.343,-77.67
43.359,-95.95
43.375,-117.06
43.390,-139.38
43.406,-161.03
43.421,-180.18
43.437,-195.14
43.453,-204.27
43.468,-206.16
43.484,-200.2
43.500,-187.11
43.515,-169.2
43.531,-149.92
43.546,-132.92
43.562,-120.91
43.578,-114.89
43.593,-114.07
43.609,-116.39
43.625,-119.52
43.640,-121.38
43.656,-120.51
43.671,-115.92
43.687,-106.89
43.703,-93.13
43.718,-75.05
43.734,-54.0
43.750,-32.24
43.765,-12.53
43.781,2.4
43.796,10.37
43.812,10.27
43.828,2.44
43.843,-11.21
43.859,-27.42
43.875,-42.37
43.890,-52.79
43.906,-57.03
43.921,-55.55
43.937,-50.53
43.953,-44.77
43.968,-40.54
43.984,-38.87
44.000,-39.63
44.015,-42.06
44.031,-45.53
44.046,-49.77
44.062,-54.86
44.078,-60.93
44.093,-67.91
44.109,-75.42
44.125,-82.78
44.140,-88.94
44.156,-92.71
44.171,-92.96
44.187,-88.95
44.203,-80.59
44.218,-68.53
44.234,-53.9
44.250,-37.95
44.265,-21.72
44.281,-5.88
44.296,9.05
44.312,22.56
44.328,33.96
44.343,42.54
44.359,47.79
44.375,49.71
44.390,48.85
44.406,46.21
44.421,42.87
44.437,39.73
44.453,37.27
44.468,35.52
44.484,34.26
44.500,33.17
44.515,32.03
44.531,30.73
44.546,29.3
44.562,27.74
44.578,25.98
44.593,23.86
44.609,21.11
44.625,17.45
44.640,12.59
44.656,6.31
44.671,-1.6
44.687,-11.16
44.703,-22.06
44.718,-33.47
44.734,-43.96
44.750,-51.69
44.765,-54.82
44.781,-52.01
44.796,-42.94
44.812,-28.47
44.828,-10.41
44.843,9.08
44.859,28.18
44.875,45.88
44.890,62.06
44.906,77.12
44.921,91.44
44.937,104.95
44.953,117.13
44.968,127.33
44.984,135.07
45.000,140.45
45.015,143.93
45.031,146.06
45.046,147.11
45.062,146.91
45.078,145.0
45.093,140.94
45.109,134.58
45.125,126.23
45.140,116.48
45.156,106.06
45.171,95.55
45.187,85.2
45.203,74.91
45.218,64.22
45.234,52.53
45.250,39.09
45.265,23.22
45.281,4.39
45.296,-17.6
45.312,-42.29
45.328,-68.3
45.343,-93.19
45.359,-113.78
45.375,-126.83
45.390,-130.02
45.406,-122.73
45.421,-106.32
45.437,-83.64
45.453,-58.04
45.468,-32.41
45.484,-8.48
45.500,13.07
45.515,32.22
45.531,48.94
45.546,62.98
45.562,73.89
45.578,81.5
45.593,86.1
45.609,88.58
45.625,90.13
45.640,91.8
45.656,94.39
45.671,98.39
45.687,104.05
45.703,111.24
45.718,119.02
45.734,125.38
45.750,127.26
45.765,121.44
45.781,105.72
45.796,80.04
45.812,46.86
45.828,10.44
45.843,-24.39
45.859,-53.58
45.875,-74.67
45.890,-87.0
45.906,-91.25
45.921,-89.03
45.937,-82.43
45.953,-73.68
45.968,-64.87
45.984,-57.58
46.000,-52.67
46.015,-50.01
46.031,-48.51
46.046,-46.36
46.062,-41.41
46.078,-31.76
46.093,-16.43
46.109,3.98
46.125,27.07
46.140,49.08
46.156,65.95
46.171,74.77
46.187,75.16
46.203,69.73
46.218,63.24
46.234,60.69
46.250,64.89
46.265,74.9
46.281,85.96
46.296,91.32
46.312,85.29
46.328,65.88
46.343,35.82
46.359,1.39
46.375,-30.43
46.390,-54.97
46.406,-71.36
46.421,-82.2
46.437,-91.48
46.453,-102.29
46.468,-115.42
46.484,-129.45
46.500,-141.93
46.515,-150.73
46.531,-154.83
46.546,-154.4
46.562,-150.46
46.578,-144.35
46.593,-137.58
46.609,-131.69
46.625,-127.98
46.640,-126.99
46.656,-128.1
46.671,-129.36
46.687,-127.95
46.703,-121.14
46.718,-107.34
46.734,-86.68
46.750,-60.92
46.765,-32.76
46.781,-5.03
46.796,19.98
46.812,40.8
46.828,56.69
46.843,67.49
46.859,73.46
46.875,75.32
46.890,74.19
46.906,71.49
46.921,68.68
46.937,66.82
46.953,66.35
46.968,66.91
46.984,67.65
47.000,67.55
47.015,65.9
47.031,62.62
47.046,58.13
47.062,53.2
47.078,48.44
47.093,44.09
47.109,39.8
47.125,34.92
47.140,28.84
47.156,21.37
47.171,12.88
47.187,4.17
47.203,-3.87
47.218,-10.71
47.234,-16.34
47.250,-21.31
47.265,-26.47
47.281,-32.74
47.296,-40.8
47.312,-50.94
47.328,-62.87
47.343,-75.6
47.359,-87.46
47.375,-96.35
47.390,-100.32
47.406,-98.17
47.421,-89.93
47.437,-76.97
47.453,-61.47
47.468,-45.74
47.484,-31.5
47.500,-19.53
47.515,-9.83
47.531,-2.06
47.546,4.05
47.562,8.49
47.578,11.04
47.593,11.61
47.609,10.49
47.625,8.35
47.640,6.08
47.656,4.41
47.671,3.62
47.687,3.49
47.703,3.51
47.718,3.14
47.734,2.15
47.750,0.68
47.765,-0.86
47.781,-2.06
47.796,-2.8
47.812,-3.36
47.828,-4.34
47.843,-6.4
47.859,-9.94
47.875,-14.88
47.890,-20.69
47.906,-26.54
47.921,-31.67
47.937,-35.69
47.953,-38.73
47.968,-41.44
47.984,-44.72
48.000,-49.55
48.015,-56.67
48.031,-66.4
48.046,-78.45
48.062,-91.72
48.078,-104.3
48.093,-113.71
48.109,-117.49
48.125,-113.91
48.140,-102.6
48.156,-84.74
48.171,-62.66
48.187,-39.16
48.203,-16.6
48.218,3.49
48.234,20.51
48.250,34.46
48.265,45.54
48.281,53.94
48.296,59.83
48.312,63.52
48.328,65.55
48.343,66.73
48.359,67.81
48.375,69.32
48.390,71.4
48.406,73.8
48.421,76.04
48.437,77.68
48.453,78.51
48.468,78.65
48.484,78.44
48.500,78.21
48.515,78.14
48.531,78.12
48.546,77.84
48.562,76.92
48.578,75.15
48.593,72.61
48.609,69.61
48.625,66.65
48.640,64.18
48.656,62.48
48.671,61.57
48.687,61.28
48.703,61.33
48.718,61.43
48.734,61.37
48.750,61.05
48.765,60.48
48.781,59.75
48.796,58.91
48.812,57.97
48.828,56.84
48.843,55.38
48.859,53.5
48.875,51.22
48.890,48.74
48.906,46.34
48.921,44.26
48.937,42.57
48.953,41.2
48.968,39.97
48.984,38.72
49.000,37.36
49.015,35.9
49.031,34.39
49.046,32.82
49.062,31.17
49.078,29.37
49.093,27.43
49.109,25.46
49.125,23.69
49.140,22.43
49.156,21.99
49.171,22.56
49.187,24.25
49.203,26.96
49.218,30.48
49.234,34.42
49.250,38.26
49.265,41.36
49.281,42.91
49.296,42.09
49.312,38.14
49.328,30.68
49.343,19.82
49.359,6.32
49.375,-8.62
49.390,-23.62
49.406,-37.63
49.421,-50.21
49.437,-61.69
49.453,-72.93
49.468,-85.04
49.484,-98.99
49.500,-115.25
49.515,-133.56
49.531,-152.69
49.546,-170.55
49.562,-184.38
49.578,-191.44
49.593,-189.8
49.609,-179.09
49.625,-160.7
49.640,-137.51
49.656,-113.01
49.671,-90.29
49.687,-71.4
49.703,-57.11
49.718,-47.19
49.734,-40.9
49.750,-37.31
49.765,-35.54
49.781,-34.72
49.796,-33.98
49.812,-32.53
49.828,-29.74
49.843,-25.39
49.859,-19.69
49.875,-13.26
49.890,-6.9
49.906,-1.37
49.921,2.94
49.937,6.03
49.953,8.24
49.968,10.03
49.984,11.76
50.000,13.46
50.015,14.84
50.031,15.44
50.046,14.94
50.062,13.33
50.078,11.01
50.093,8.68
50.109,6.96
50.125,6.23
50.140,6.33
50.156,6.56
50.171,5.98
50.187,3.71
50.203,-0.58
50.218,-6.42
50.234,-12.38
50.250,-16.4
50.265,-16.29
50.281,-10.44
50.296,1.65
50.312,19.14
50.328,39.93
50.343,61.33
50.359,80.6
50.375,95.63
50.390,105.2
50.406,109.02
50.421,107.51
50.437,101.57
50.453,92.37
50.468,81.12
50.484,69.07
50.500,57.32
50.515,46.7
50.531,37.69
50.546,30.22
50.562,23.8
50.578,17.68
50.593,11.3
50.609,4.62
50.625,-1.65
50.640,-6.33
50.656,-8.28
50.671,-6.93
50.687,-2.59
50.703,3.65
50.718,10.49
50.734,16.93
50.750,22.69
50.765,28.07
50.781,33.46
50.796,38.89
50.812,43.84
50.828,47.37
50.843,48.59
50.859,47.18
50.875,43.61
50.890,39.19
50.906,35.78
50.921,35.35
50.937,39.64
50.953,49.84
50.968,66.33
50.984,88.59
51.000,115.21
51.015,144.14
51.031,173.02
51.046,199.68
51.062,222.59
51.078,241.07
51.093,255.32
51.109,266.08
51.125,274.27
51.140,280.6
51.156,285.25
51.171,287.76
51.187,287.08
51.203,281.83
51.218,270.68
51.234,252.83
51.250,228.25
51.265,197.74
51.281,162.72
51.296,124.84
51.312,85.73
51.328,46.9
51.343,9.91
51.359,-23.54
51.375,-51.62
51.390,-72.78
51.406,-86.19
51.421,-92.14
51.437,-92.04
51.453,-88.01
51.468,-82.28
51.484,-76.68
51.500,-72.49
51.515,-70.5
51.531,-71.36
51.546,-75.58
51.562,-83.41
51.578,-94.41
51.593,-107.09
51.609,-119.0
51.625,-127.26
51.640,-129.53
51.656,-124.85
51.671,-114.13
51.687,-99.88
51.703,-85.33
51.718,-73.45
51.734,-66.17
51.750,-64.1
51.765,-66.89
51.781,-73.67
51.796,-83.51
51.812,-95.55
51.828,-108.9
51.843,-122.4
51.859,-134.61
51.875,-143.98
51.890,-149.18
51.906,-149.53
51.921,-145.06
51.937,-136.58
51.953,-125.36
51.968,-112.89
51.984,-100.64
52.000,-89.8
52.015,-81.22
52.031,-75.24
52.046,-71.64
52.062,-69.75
52.078,-68.72
52.093,-67.79
52.109,-66.61
52.125,-65.28
52.140,-64.26
52.156,-64.25
52.171,-65.85
52.187,-69.5
52.203,-75.2
52.218,-82.47
52.234,-90.12
52.250,-96.4
52.265,-99.22
52.281,-96.76
52.296,-87.96
52.312,-72.95
52.328,-53.14
52.343,-30.81
52.359,-8.53
52.375,11.48
52.390,27.79
52.406,39.78
52.421,47.34
52.437,50.59
52.453,49.6
52.468,44.43
52.484,35.4
52.500,23.28
52.515,9.28
52.531,-5.17
52.546,-18.88
52.562,-31.14
52.578,-41.86
52.593,-51.21
52.609,-59.38
52.625,-66.21
52.640,-71.32
52.656,-74.39
52.671,-75.53
52.687,-75.54
52.703,-75.78
52.718,-77.8
52.734,-82.88
52.750,-91.72
52.765,-104.35
52.781,-120.24
52.796,-138.46
52.812,-157.71
52.828,-176.14
52.843,-191.37
52.859,-200.62
52.875,-201.27
52.890,-191.64
52.906,-171.78
52.921,-143.64
52.937,-110.75
52.953,-77.28
52.968,-46.83
52.984,-21.69
53.000,-2.46
53.015,11.58
53.031,21.75
53.046,29.34
53.062,35.18
53.078,39.67
53.093,43.09
53.109,45.97
53.125,49.12
53.140,53.44
53.156,59.59
53.171,67.6
53.187,76.89
53.203,86.47
53.218,95.4
53.234,103.13
53.250,109.58
53.265,114.93
53.281,119.28
53.296,122.4
53.312,123.73
53.328,122.62
53.343,118.74
53.359,112.18
53.375,103.42
53.390,93.04
53.406,81.46
53.421,68.85
53.437,55.47
53.453,42.02
53.468,29.99
53.484,21.44
53.500,18.5
53.515,22.48
53.531,33.28
53.546,49.23
53.562,67.56
53.578,85.35
53.593,100.4
53.609,111.94
53.625,120.58
53.640,127.77
53.656,135.12
53.671,143.62
53.687,153.36
53.703,163.67
53.718,173.55
53.734,182.09
53.750,188.82
53.765,193.57
53.781,196.24
53.796,196.58
53.812,194.22
53.828,188.84
53.843,180.44
53.859,169.33
53.875,155.71
53.890,139.26
53.906,118.88
53.921,93.05
53.937,60.72
53.953,22.34
53.968,-19.7
53.984,-61.55
54.000,-99.26
54.015,-130.2
54.031,-153.94
54.046,-171.92
54.062,-186.22
54.078,-198.11
54.093,-207.36
54.109,-212.39
54.125,-211.43
54.140,-203.59
54.156,-189.54
54.171,-171.15
54.187,-150.61
54.203,-129.58
54.218,-108.67
54.234,-87.68
54.250,-66.18
54.265,-44.08
54.281,-21.85
54.296,-0.36
54.312,19.5
54.328,37.22
54.343,52.71
54.359,66.06
54.375,77.18
54.390,85.51
54.406,90.05
54.421,89.69
54.437,83.65
54.453,71.82
54.468,54.78
54.484,33.68
54.500,9.87
54.515,-15.35
54.531,-41.02
54.546,-66.51
54.562,-91.6
54.578,-116.32
54.593,-140.91
54.609,-165.51
54.625,-189.91
54.640,-213.23
54.656,-233.75
54.671,-249.11
54.687,-256.68
54.703,-254.27
54.718,-240.87
54.734,-217.07
54.750,-185.1
54.765,-148.37
54.781,-110.63
54.796,-75.18
54.812,-44.16
54.828,-18.43
54.843,2.25
54.859,18.72
54.875,31.87
54.890,42.45
54.906,50.94
54.921,57.66
54.937,62.81
54.953,66.55
54.968,68.84
54.984,69.5
55.000,68.21
55.015,64.72
55.031,59.0
55.046,51.32
55.062,42.27
55.078,32.58
55.093,22.97
55.109,13.95
55.125,5.83
55.140,-1.38
55.156,-7.82
55.171,-13.75
55.187,-19.43
55.203,-25.08
55.218,-30.86
55.234,-36.96
55.250,-43.53
55.265,-50.64
55.281,-58.01
55.296,-64.81
55.312,-69.61
55.328,-70.63
55.343,-66.28
55.359,-55.84
55.375,-39.77
55.390,-19.75
55.406,1.93
55.421,22.99
55.437,41.82
55.453,57.65
55.468,70.38
55.484,80.27
55.500,87.48
55.515,92.13
55.531,94.27
55.546,94.09
55.562,91.94
55.578,88.39
55.593,84.05
55.609,79.49
55.625,75.15
55.640,71.36
55.656,68.31
55.671,66.07
55.687,64.57
55.703,63.55
55.718,62.59
55.734,61.17
55.750,58.83
55.765,55.29
55.781,50.47
55.796,44.51
55.812,37.65
55.828,30.09
55.843,21.91
55.859,12.99
55.875,3.1
55.890,-7.95
55.906,-20.14
55.921,-32.98
55.937,-45.36
55.953,-55.58
55.968,-61.73
55.984,-62.11
56.000,-55.9
56.015,-43.41
56.031,-26.08
56.046,-6.07
56.062,14.37
56.078,33.4
56.093,49.85
56.109,63.19
56.125,73.27
56.140,80.11
56.156,83.83
56.171,84.7
56.187,83.12
56.203,79.68
56.218,75.0
56.234,69.66
56.250,64.05
56.265,58.45
56.281,53.07
56.296,48.12
56.312,43.81
56.328,40.25
56.343,37.34
56.359,34.81
56.375,32.23
56.390,29.2
56.406,25.48
56.421,21.1
56.437,16.26
56.453,11.24
56.468,6.35
56.484,1.69
56.500,-2.82
56.515,-7.47
56.531,-12.76
56.546,-19.3
56.562,-27.54
56.578,-37.53
56.593,-48.66
56.609,-59.55
56.625,-68.3
56.640,-72.96
56.656,-72.01
56.671,-64.95
56.687,-52.43
56.703,-36.06
56.718,-17.94
56.734,-0.11
56.750,15.91
56.765,29.25
56.781,39.68
56.796,47.35
56.812,52.59
56.828,55.83
56.843,57.51
56.859,58.12
56.875,58.16
56.890,58.06
56.906,58.08
56.921,58.22
56.937,58.24
56.953,57.75
56.968,56.43
56.984,54.14
57.000,51.03
57.015,47.41
57.031,43.63
57.046,39.82
57.062,35.86
57.078,31.37
57.093,25.95
57.109,19.42
57.125,11.95
57.140,4.04
57.156,-3.7
57.171,-10.69
57.187,-16.66
57.203,-21.72
57.218,-26.35
57.234,-31.18
57.250,-36.89
57.265,-43.92
57.281,-52.19
57.296,-60.89
57.312,-68.54
57.328,-73.26
57.343,-73.31
57.359,-67.69
57.375,-56.55
57.390,-41.2
57.406,-23.68
57.421,-6.15
57.437,9.74
57.453,23.06
57.468,33.61
57.484,41.56
57.500,47.17
57.515,50.63
57.531,52.06
57.546,51.72
57.562,49.99
57.578,47.45
57.593,44.71
57.609,42.23
57.625,40.22
57.640,38.67
57.656,37.41
57.671,36.3
57.687,35.33
57.703,34.6
57.718,34.23
57.734,34.16
57.750,34.17
57.765,33.8
57.781,32.5
57.796,29.78
57.812,25.42
57.828,19.46
57.843,12.28
57.859,4.48
57.875,-3.36
57.890,-10.76
57.906,-17.6
57.921,-24.04
57.937,-30.53
57.953,-37.57
57.968,-45.58
57.984,-54.63
58.000,-64.29
58.015,-73.57
58.031,-80.98
58.046,-84.89
58.062,-83.86
58.078,-77.21
58.093,-65.21
58.109,-49.04
58.125,-30.58
58.140,-11.75
58.156,5.77
58.171,20.89
58.187,33.06
58.203,42.15
58.218,48.23
58.234,51.47
58.250,52.11
58.265,50.5
58.281,47.18
58.296,42.85
58.312,38.26
58.328,34.08
58.343,30.72
58.359,28.28
58.375,26.52
58.390,25.09
58.406,23.67
58.421,22.14
58.437,20.67
58.453,19.49
58.468,18.74
58.484,18.26
58.500,17.62
58.515,16.3
58.531,13.83
58.546,10.12
58.562,5.47
58.578,0.39
58.593,-4.55
58.609,-9.05
58.625,-13.15
58.640,-17.16
58.656,-21.54
58.671,-26.72
58.687,-32.99
58.703,-40.48
58.718,-49.09
58.734,-58.43
58.750,-67.71
58.765,-75.64
58.781,-80.67
58.796,-81.34
58.812,-76.79
58.828,-67.11
58.843,-53.4
58.859,-37.42
58.875,-21.03
58.890,-5.72
58.906,7.66
58.921,18.8
58.937,27.74
58.953,34.54
58.968,39.25
58.984,41.87
59.000,42.6
59.015,41.88
59.031,40.33
59.046,38.58
59.062,37.03
59.078,35.73
59.093,34.39
59.109,32.57
59.125,29.97
59.140,26.65
59.156,22.95
59.171,19.45
59.187,16.54
59.203,14.33
59.218,12.52
59.234,10.59
59.250,8.06
59.265,4.62
59.281,0.29
59.296,-4.65
59.312,-9.8
59.328,-14.79
59.343,-19.36
59.359,-23.48
59.375,-27.3
59.390,-31.13
59.406,-35.44
59.421,-40.63
59.437,-46.9
59.453,-54.05
59.468,-61.3
59.484,-67.38
59.500,-70.81
59.515,-70.35
59.531,-65.37
59.546,-56.16
59.562,-43.74
59.578,-29.6
59.593,-15.21
59.609,-1.71
59.625,10.2
59.640,20.19
59.656,28.13
59.671,33.97
59.687,37.7
59.703,39.4
59.718,39.36
59.734,38.01
59.750,35.93
59.765,33.67
59.781,31.68
59.796,30.25
59.812,29.42
59.828,29.04
59.843,28.87
59.859,28.6
59.875,28.07
59.890,27.19
59.906,25.98
59.921,24.39
59.937,22.28
59.953,19.42
59.968,15.61
59.984,10.86
