timestamp,value
00.000,19.02
00.015,17.11
00.031,14.63
00.046,11.7
00.062,8.33
00.078,4.49
00.093,0.26
00.109,-4.21
00.125,-8.66
00.140,-12.9
00.156,-16.89
00.171,-20.87
00.187,-25.26
00.203,-30.48
00.218,-36.72
00.234,-43.69
00.250,-50.62
00.265,-56.39
00.281,-59.84
00.296,-60.1
00.312,-56.82
00.328,-50.23
00.343,-41.05
00.359,-30.31
00.375,-19.04
00.390,-8.18
00.406,1.59
00.421,9.84
00.437,16.26
00.453,20.71
00.468,23.25
00.484,24.1
00.500,23.73
00.515,22.69
00.531,21.52
00.546,20.57
00.562,19.93
00.578,19.38
00.593,18.62
00.609,17.37
00.625,15.6
00.640,13.49
00.656,11.4
00.671,9.62
00.687,8.23
00.703,7.0
00.718,5.46
00.734,3.12
00.750,-0.33
00.765,-4.86
00.781,-10.11
00.796,-15.54
00.812,-20.71
00.828,-25.42
00.843,-29.75
00.859,-34.02
00.875,-38.64
00.890,-43.96
00.906,-50.16
00.921,-57.13
00.937,-64.33
00.953,-70.83
00.968,-75.42
00.984,-76.91
01.000,-74.48
01.015,-68.04
01.031,-58.21
01.046,-46.16
01.062,-33.19
01.078,-20.38
01.093,-8.43
01.109,2.3
01.125,11.58
01.140,19.17
01.156,24.77
01.171,28.32
01.187,29.99
01.203,30.32
01.218,30.05
01.234,29.85
01.250,30.06
01.265,30.59
01.281,31.07
01.296,31.01
01.312,30.13
01.328,28.48
01.343,26.38
01.359,24.26
01.375,22.4
01.390,20.79
01.406,19.13
01.421,17.0
01.437,14.02
01.453,10.02
01.468,5.09
01.484,-0.5
01.500,-6.34
01.515,-12.16
01.531,-17.73
01.546,-23.0
01.562,-28.07
01.578,-33.12
01.593,-38.42
01.609,-44.27
01.625,-50.91
01.640,-58.37
01.656,-66.37
01.671,-74.18
01.687,-80.7
01.703,-84.63
01.718,-84.89
01.734,-80.91
01.750,-72.88
01.765,-61.7
01.781,-48.65
01.796,-35.03
01.812,-21.83
01.828,-9.64
01.843,1.27
01.859,10.75
01.875,18.66
01.890,24.83
01.906,29.18
01.921,31.84
01.937,33.1
01.953,33.47
01.968,33.41
01.984,33.27
02.000,33.19
02.015,33.11
02.031,32.89
02.046,32.41
02.062,31.66
02.078,30.7
02.093,29.65
02.109,28.58
02.125,27.39
02.140,25.87
02.156,23.73
02.171,20.71
02.187,16.69
02.203,11.79
02.218,6.35
02.234,0.8
02.250,-4.49
02.265,-9.32
02.281,-13.73
02.296,-17.96
02.312,-22.4
02.328,-27.46
02.343,-33.5
02.359,-40.68
02.375,-48.89
02.390,-57.66
02.406,-66.08
02.421,-72.89
02.437,-76.77
02.453,-76.64
02.468,-72.02
02.484,-63.18
02.500,-51.05
02.515,-37.02
02.531,-22.54
02.546,-8.78
02.562,3.47
02.578,13.8
02.593,22.09
02.609,28.4
02.625,32.86
02.640,35.64
02.656,37.04
02.671,37.45
02.687,37.34
02.703,37.19
02.718,37.3
02.734,37.79
02.750,38.51
02.765,39.19
02.781,39.56
02.796,39.44
02.812,38.84
02.828,37.83
02.843,36.46
02.859,34.65
02.875,32.17
02.890,28.77
02.906,24.3
02.921,18.87
02.937,12.86
02.953,6.81
02.968,1.22
02.984,-3.63
03.000,-7.81
03.015,-11.69
03.031,-15.86
03.046,-20.86
03.062,-27.12
03.078,-34.7
03.093,-43.2
03.109,-51.7
03.125,-58.86
03.140,-63.22
03.156,-63.55
03.171,-59.22
03.187,-50.47
03.203,-38.31
03.218,-24.24
03.234,-9.75
03.250,3.98
03.265,16.22
03.281,26.69
03.296,35.33
03.312,42.08
03.328,46.88
03.343,49.75
03.359,50.86
03.375,50.64
03.390,49.74
03.406,48.85
03.421,48.48
03.437,48.8
03.453,49.58
03.468,50.35
03.484,50.56
03.500,49.85
03.515,48.16
03.531,45.66
03.546,42.65
03.562,39.33
03.578,35.81
03.593,32.03
03.609,27.9
03.625,23.44
03.640,18.78
03.656,14.07
03.671,9.49
03.687,5.11
03.703,0.9
03.718,-3.24
03.734,-7.44
03.750,-11.84
03.765,-16.63
03.781,-22.06
03.796,-28.43
03.812,-35.96
03.828,-44.63
03.843,-53.95
03.859,-62.89
03.875,-69.95
03.890,-73.58
03.906,-72.57
03.921,-66.58
03.937,-56.18
03.953,-42.76
03.968,-27.98
03.984,-13.44
04.000,-0.16
04.015,11.39
04.031,21.18
04.046,29.35
04.062,36.02
04.078,41.18
04.093,44.8
04.109,46.97
04.125,47.91
04.140,48.06
04.156,47.89
04.171,47.78
04.187,47.88
04.203,48.13
04.218,48.33
04.234,48.26
04.250,47.8
04.265,46.97
04.281,45.84
04.296,44.46
04.312,42.77
04.328,40.6
04.343,37.75
04.359,34.08
04.375,29.61
04.390,24.5
04.406,18.98
04.421,13.32
04.437,7.72
04.453,2.29
04.468,-2.87
04.484,-7.72
04.500,-12.25
04.515,-16.55
04.531,-20.84
04.546,-25.55
04.562,-31.12
04.578,-37.9
04.593,-45.88
04.609,-54.52
04.625,-62.71
04.640,-68.99
04.656,-71.93
04.671,-70.46
04.687,-64.28
04.703,-53.93
04.718,-40.68
04.734,-26.13
04.750,-11.8
04.765,1.19
04.781,12.27
04.796,21.35
04.812,28.53
04.828,33.93
04.843,37.61
04.859,39.61
04.875,40.08
04.890,39.42
04.906,38.21
04.921,37.05
04.937,36.35
04.953,36.21
04.968,36.39
04.984,36.48
05.000,36.16
05.015,35.32
05.031,34.11
05.046,32.74
05.062,31.37
05.078,30.02
05.093,28.48
05.109,26.48
05.125,23.85
05.140,20.55
05.156,16.69
05.171,12.44
05.187,8.0
05.203,3.5
05.218,-0.95
05.234,-5.31
05.250,-9.52
05.265,-13.56
05.281,-17.48
05.296,-21.39
05.312,-25.52
05.328,-30.11
05.343,-35.42
05.359,-41.62
05.375,-48.58
05.390,-55.78
05.406,-62.26
05.421,-66.79
05.437,-68.16
05.453,-65.57
05.468,-58.96
05.484,-49.05
05.500,-37.2
05.515,-24.94
05.531,-13.51
05.546,-3.62
05.562,4.57
05.578,11.26
05.593,16.7
05.609,21.02
05.625,24.28
05.640,26.51
05.656,27.91
05.671,28.82
05.687,29.61
05.703,30.49
05.718,31.43
05.734,32.19
05.750,32.45
05.765,32.1
05.781,31.22
05.796,30.11
05.812,29.04
05.828,28.13
05.843,27.28
05.859,26.23
05.875,24.76
05.890,22.77
05.906,20.31
05.921,17.51
05.937,14.46
05.953,11.18
05.968,7.61
05.984,3.76
06.000,-0.27
06.015,-4.25
06.031,-7.96
06.046,-11.32
06.062,-14.46
06.078,-17.73
06.093,-21.57
06.109,-26.35
06.125,-32.1
06.140,-38.49
06.156,-44.81
06.171,-50.08
06.187,-53.29
06.203,-53.61
06.218,-50.66
06.234,-44.58
06.250,-36.01
06.265,-25.92
06.281,-15.34
06.296,-5.21
06.312,3.83
06.328,11.46
06.343,17.57
06.359,22.22
06.375,25.52
06.390,27.64
06.406,28.78
06.421,29.18
06.437,29.12
06.453,28.88
06.468,28.65
06.484,28.52
06.500,28.41
06.515,28.18
06.531,27.67
06.546,26.82
06.562,25.67
06.578,24.32
06.593,22.91
06.609,21.48
06.625,20.01
06.640,18.36
06.656,16.43
06.671,14.08
06.687,11.34
06.703,8.27
06.718,5.01
06.734,1.74
06.750,-1.4
06.765,-4.36
06.781,-7.17
06.796,-9.97
06.812,-12.92
06.828,-16.18
06.843,-19.86
06.859,-24.03
06.875,-28.75
06.890,-33.93
06.906,-39.31
06.921,-44.33
06.937,-48.16
06.953,-49.84
06.968,-48.59
06.984,-44.16
07.000,-36.89
07.015,-27.7
07.031,-17.7
07.046,-7.91
07.062,1.04
07.078,8.83
07.093,15.38
07.109,20.64
07.125,24.54
07.140,27.02
07.156,28.13
07.171,28.07
07.187,27.18
07.203,25.92
07.218,24.63
07.234,23.6
07.250,22.91
07.265,22.53
07.281,22.23
07.296,21.78
07.312,20.92
07.328,19.56
07.343,17.77
07.359,15.8
07.375,13.89
07.390,12.21
07.406,10.68
07.421,9.1
07.437,7.25
07.453,4.97
07.468,2.33
07.484,-0.47
07.500,-3.18
07.515,-5.65
07.531,-7.88
07.546,-10.01
07.562,-12.25
07.578,-14.84
07.593,-18.0
07.609,-21.96
07.625,-26.84
07.640,-32.52
07.656,-38.52
07.671,-43.95
07.687,-47.63
07.703,-48.43
07.718,-45.68
07.734,-39.4
07.750,-30.36
07.765,-19.83
07.781,-9.2
07.796,0.41
07.812,8.35
07.828,14.42
07.843,18.75
07.859,21.55
07.875,23.01
07.890,23.33
07.906,22.73
07.921,21.6
07.937,20.43
07.953,19.71
07.968,19.73
07.984,20.42
08.000,21.36
08.015,22.0
08.031,21.91
08.046,20.98
08.062,19.49
08.078,17.94
08.093,16.73
08.109,15.99
08.125,15.42
08.140,14.53
08.156,12.87
08.171,10.25
08.187,6.86
08.203,3.13
08.218,-0.48
08.234,-3.68
08.250,-6.46
08.265,-9.01
08.281,-11.65
08.296,-14.68
08.312,-18.36
08.328,-22.76
08.343,-27.75
08.359,-32.88
08.375,-37.37
08.390,-40.22
08.406,-40.48
08.421,-37.54
08.437,-31.43
08.453,-22.83
08.468,-12.85
08.484,-2.68
08.500,6.71
08.515,14.81
08.531,21.49
08.546,26.84
08.562,30.93
08.578,33.85
08.593,35.6
08.609,36.27
08.625,36.14
08.640,35.57
08.656,35.02
08.671,34.83
08.687,35.09
08.703,35.72
08.718,36.43
08.734,36.95
08.750,37.13
08.765,37.01
08.781,36.74
08.796,36.44
08.812,36.15
08.828,35.75
08.843,35.1
08.859,34.11
08.875,32.8
08.890,31.33
08.906,29.9
08.921,28.68
08.937,27.76
08.953,27.09
08.968,26.53
08.984,25.89
09.000,25.03
09.015,23.86
09.031,22.41
09.046,20.77
09.062,19.03
09.078,17.27
09.093,15.5
09.109,13.73
09.125,12.01
09.140,10.46
09.156,9.23
09.171,8.44
09.187,8.06
09.203,7.92
09.218,7.79
09.234,7.49
09.250,6.91
09.265,6.05
09.281,4.97
09.296,3.71
09.312,2.32
09.328,0.82
09.343,-0.7
09.359,-2.14
09.375,-3.4
09.390,-4.5
09.406,-5.54
09.421,-6.69
09.437,-8.11
09.453,-9.84
09.468,-11.78
09.484,-13.71
09.500,-15.46
09.515,-16.98
09.531,-18.39
09.546,-19.99
09.562,-22.11
09.578,-24.92
09.593,-28.39
09.609,-32.22
09.625,-35.97
09.640,-39.25
09.656,-41.89
09.671,-44.0
09.687,-45.95
09.703,-48.24
09.718,-51.34
09.734,-55.55
09.750,-60.8
09.765,-66.6
09.781,-71.98
09.796,-75.62
09.812,-76.23
09.828,-72.87
09.843,-65.37
09.859,-54.45
09.875,-41.46
09.890,-28.06
09.906,-15.66
09.921,-5.18
09.937,3.08
09.953,9.19
09.968,13.53
09.984,16.47
10.000,18.45
10.015,19.85
10.031,21.03
10.046,22.25
10.062,23.59
10.078,24.98
10.093,26.21
10.109,27.06
10.125,27.43
10.140,27.37
10.156,27.07
10.171,26.66
10.187,26.21
10.203,25.57
10.218,24.51
10.234,22.74
10.250,20.12
10.265,16.7
10.281,12.73
10.296,8.54
10.312,4.48
10.328,0.72
10.343,-2.72
10.359,-6.03
10.375,-9.51
10.390,-13.49
10.406,-18.22
10.421,-23.73
10.437,-29.75
10.453,-35.67
10.468,-40.59
10.484,-43.54
10.500,-43.73
10.515,-40.75
10.531,-34.72
10.546,-26.28
10.562,-16.41
10.578,-6.18
10.593,3.46
10.609,11.88
10.625,18.75
10.640,23.98
10.656,27.65
10.671,29.9
10.687,30.86
10.703,30.72
10.718,29.75
10.734,28.2
10.750,26.35
10.765,24.45
10.781,22.67
10.796,21.09
10.812,19.74
10.828,18.56
10.843,17.48
10.859,16.35
10.875,14.96
10.890,13.05
10.906,10.41
10.921,7.0
10.937,2.97
10.953,-1.37
10.968,-5.7
10.984,-9.78
11.000,-13.57
11.015,-17.2
11.031,-20.92
11.046,-25.02
11.062,-29.73
11.078,-35.2
11.093,-41.31
11.109,-47.61
11.125,-53.27
11.140,-57.12
11.156,-58.01
11.171,-55.2
11.187,-48.71
11.203,-39.32
11.218,-28.4
11.234,-17.4
11.250,-7.42
11.265,0.96
11.281,7.68
11.296,12.87
11.312,16.7
11.328,19.19
11.343,20.4
11.359,20.47
11.375,19.71
11.390,18.59
11.406,17.49
11.421,16.63
11.437,16.03
11.453,15.51
11.468,14.9
11.484,14.08
11.500,13.0
11.515,11.68
11.531,10.14
11.546,8.33
11.562,6.2
11.578,3.74
11.593,0.97
11.609,-2.04
11.625,-5.19
11.640,-8.44
11.656,-11.78
11.671,-15.3
11.687,-19.1
11.703,-23.33
11.718,-28.16
11.734,-33.61
11.750,-39.51
11.765,-45.23
11.781,-49.82
11.796,-52.16
11.812,-51.34
11.828,-47.03
11.843,-39.63
11.859,-30.12
11.875,-19.69
11.890,-9.38
11.906,0.18
11.921,8.69
11.937,16.04
11.953,22.09
11.968,26.7
11.984,29.79
12.000,31.5
12.015,32.18
12.031,32.29
12.046,32.24
12.062,32.23
12.078,32.26
12.093,32.16
12.109,31.77
12.125,30.99
12.140,29.87
12.156,28.51
12.171,26.95
12.187,25.14
12.203,22.93
12.218,20.09
12.234,16.47
12.250,12.05
12.265,7.04
12.281,1.77
12.296,-3.43
12.312,-8.35
12.328,-13.03
12.343,-17.65
12.359,-22.48
12.375,-27.77
12.390,-33.67
12.406,-40.18
12.421,-47.11
12.437,-53.99
12.453,-60.09
12.468,-64.53
12.484,-66.47
12.500,-65.4
12.515,-61.35
12.531,-54.9
12.546,-47.03
12.562,-38.81
12.578,-31.09
12.593,-24.45
12.609,-19.2
12.625,-15.53
12.640,-13.6
12.656,-13.5
12.671,-15.21
12.687,-18.48
12.703,-22.89
12.718,-27.93
12.734,-33.21
12.750,-38.58
12.765,-44.11
12.781,-50.05
12.796,-56.63
12.812,-63.93
12.828,-71.7
12.843,-79.42
12.859,-86.35
12.875,-91.66
12.890,-94.55
12.906,-94.37
12.921,-90.67
12.937,-83.19
12.953,-71.85
12.968,-56.79
12.984,-38.36
13.000,-17.19
13.015,5.74
13.031,29.15
13.046,51.55
13.062,71.39
13.078,87.3
13.093,98.32
13.109,104.08
13.125,104.94
13.140,101.97
13.156,96.76
13.171,91.11
13.187,86.63
13.203,84.37
13.218,84.7
13.234,87.28
13.250,91.39
13.265,96.12
13.281,100.69
13.296,104.52
13.312,107.19
13.328,108.55
13.343,108.52
13.359,107.25
13.375,104.94
13.390,101.87
13.406,98.29
13.421,94.4
13.437,90.33
13.453,86.18
13.468,81.96
13.484,77.7
13.500,73.4
13.515,69.05
13.531,64.69
13.546,60.39
13.562,56.24
13.578,52.29
13.593,48.49
13.609,44.71
13.625,40.77
13.640,36.53
13.656,31.97
13.671,27.23
13.687,22.57
13.703,18.27
13.718,14.56
13.734,11.5
13.750,9.02
13.765,6.96
13.781,5.08
13.796,3.18
13.812,1.11
13.828,-1.16
13.843,-3.59
13.859,-6.09
13.875,-8.48
13.890,-10.55
13.906,-12.02
13.921,-12.52
13.937,-11.66
13.953,-8.98
13.968,-4.18
13.984,2.89
14.000,12.12
14.015,23.14
14.031,35.39
14.046,48.13
14.062,60.64
14.078,72.25
14.093,82.51
14.109,91.2
14.125,98.46
14.140,104.58
14.156,109.96
14.171,114.87
14.187,119.36
14.203,123.24
14.218,126.22
14.234,127.98
14.250,128.25
14.265,126.88
14.281,123.69
14.296,118.46
14.312,111.04
14.328,101.49
14.343,90.26
14.359,78.27
14.375,66.76
14.390,57.02
14.406,49.97
14.421,45.84
14.437,44.07
14.453,43.52
14.468,42.77
14.484,40.51
14.500,35.73
14.515,27.86
14.531,16.6
14.546,2.0
14.562,-15.59
14.578,-35.36
14.593,-56.13
14.609,-76.68
14.625,-96.05
14.640,-113.89
14.656,-130.34
14.671,-145.75
14.687,-160.12
14.703,-172.81
14.718,-182.69
14.734,-188.52
14.750,-189.5
14.765,-185.61
14.781,-177.53
14.796,-166.32
14.812,-153.0
14.828,-138.3
14.843,-122.66
14.859,-106.36
14.875,-89.63
14.890,-72.9
14.906,-56.75
14.921,-41.87
14.937,-28.9
14.953,-18.32
14.968,-10.29
14.984,-4.73
15.000,-1.36
15.015,0.16
15.031,0.13
15.046,-1.13
15.062,-3.29
15.078,-5.87
15.093,-8.31
15.109,-10.07
15.125,-10.85
15.140,-10.76
15.156,-10.26
15.171,-10.06
15.187,-10.84
15.203,-13.03
15.218,-16.7
15.234,-21.55
15.250,-27.05
15.265,-32.65
15.281,-37.96
15.296,-42.77
15.312,-47.16
15.328,-51.25
15.343,-55.22
15.359,-59.16
15.375,-63.0
15.390,-66.57
15.406,-69.61
15.421,-71.82
15.437,-72.8
15.453,-72.16
15.468,-69.55
15.484,-64.8
15.500,-58.03
15.515,-49.67
15.531,-40.35
15.546,-30.73
15.562,-21.4
15.578,-12.77
15.593,-5.09
15.609,1.43
15.625,6.66
15.640,10.55
15.656,13.28
15.671,15.32
15.687,17.33
15.703,19.98
15.718,23.7
15.734,28.42
15.750,33.66
15.765,38.62
15.781,42.47
15.796,44.69
15.812,45.2
15.828,44.36
15.843,42.78
15.859,41.09
15.875,39.69
15.890,38.57
15.906,37.39
15.921,35.63
15.937,32.85
15.953,28.92
15.968,24.08
15.984,18.82
16.000,13.68
16.015,9.05
16.031,5.1
16.046,1.76
16.062,-1.15
16.078,-3.86
16.093,-6.54
16.109,-9.37
16.125,-12.43
16.140,-15.68
16.156,-18.94
16.171,-21.86
16.187,-24.01
16.203,-24.95
16.218,-24.39
16.234,-22.19
16.250,-18.4
16.265,-13.25
16.281,-7.12
16.296,-0.54
16.312,5.86
16.328,11.41
16.343,15.53
16.359,17.92
16.375,18.57
16.390,17.84
16.406,16.3
16.421,14.57
16.437,13.07
16.453,11.93
16.468,10.96
16.484,9.83
16.500,8.17
16.515,5.85
16.531,2.9
16.546,-0.47
16.562,-4.05
16.578,-7.75
16.593,-11.47
16.609,-15.15
16.625,-18.59
16.640,-21.56
16.656,-23.92
16.671,-25.69
16.687,-27.17
16.703,-28.85
16.718,-31.19
16.734,-34.54
16.750,-39.05
16.765,-44.63
16.781,-51.08
16.796,-57.95
16.812,-64.58
16.828,-70.06
16.843,-73.38
16.859,-73.73
16.875,-70.68
16.890,-64.51
16.906,-56.05
16.921,-46.41
16.937,-36.64
16.953,-27.48
16.968,-19.33
16.984,-12.34
17.000,-6.7
17.015,-2.59
17.031,-0.16
17.046,0.64
17.062,0.24
17.078,-0.67
17.093,-1.32
17.109,-1.19
17.125,-0.12
17.140,1.69
17.156,3.8
17.171,5.87
17.187,7.71
17.203,9.32
17.218,10.79
17.234,12.12
17.250,13.17
17.265,13.69
17.281,13.45
17.296,12.37
17.312,10.57
17.328,8.28
17.343,5.73
17.359,3.04
17.375,0.18
17.390,-3.05
17.406,-6.95
17.421,-11.91
17.437,-18.33
17.453,-26.52
17.468,-36.6
17.484,-48.19
17.500,-60.32
17.515,-71.53
17.531,-80.1
17.546,-84.54
17.562,-84.06
17.578,-78.77
17.593,-69.62
17.609,-58.05
17.625,-45.45
17.640,-32.88
17.656,-20.95
17.671,-9.97
17.687,-0.16
17.703,8.14
17.718,14.64
17.734,19.22
17.750,22.12
17.765,23.95
17.781,25.54
17.796,27.57
17.812,30.31
17.828,33.59
17.843,36.87
17.859,39.58
17.875,41.35
17.890,42.25
17.906,42.69
17.921,43.25
17.937,44.46
17.953,46.58
17.968,49.46
17.984,52.59
18.000,55.13
18.015,56.11
18.031,54.57
18.046,49.8
18.062,41.48
18.078,29.8
18.093,15.46
18.109,-0.49
18.125,-16.96
18.140,-32.98
18.156,-47.93
18.171,-61.44
18.187,-73.2
18.203,-82.83
18.218,-89.7
18.234,-93.14
18.250,-92.67
18.265,-88.25
18.281,-80.46
18.296,-70.32
18.312,-59.04
18.328,-47.68
18.343,-36.91
18.359,-26.98
18.375,-17.81
18.390,-9.36
18.406,-1.74
18.421,4.77
18.437,9.83
18.453,13.28
18.468,15.25
18.484,16.26
18.500,16.89
18.515,17.67
18.531,18.83
18.546,20.28
18.562,21.81
18.578,23.19
18.593,24.36
18.609,25.36
18.625,26.19
18.640,26.71
18.656,26.68
18.671,25.78
18.687,23.88
18.703,21.09
18.718,17.7
18.734,14.14
18.750,10.69
18.765,7.47
18.781,4.37
18.796,1.14
18.812,-2.51
18.828,-6.84
18.843,-12.02
18.859,-18.03
18.875,-24.51
18.890,-30.75
18.906,-35.72
18.921,-38.34
18.937,-37.76
18.953,-33.63
18.968,-26.31
18.984,-16.62
19.000,-5.67
19.015,5.54
19.031,16.31
19.046,26.28
19.062,35.33
19.078,43.43
19.093,50.56
19.109,56.66
19.125,61.69
19.140,65.66
19.156,68.64
19.171,70.75
19.187,72.12
19.203,72.87
19.218,73.07
19.234,72.81
19.250,72.13
19.265,71.14
19.281,69.91
19.296,68.52
19.312,66.99
19.328,65.37
19.343,63.77
19.359,62.35
19.375,61.3
19.390,60.63
19.406,60.07
19.421,58.91
19.437,56.17
19.453,50.84
19.468,42.24
19.484,30.26
19.500,15.5
19.515,-0.82
19.531,-17.06
19.546,-31.39
19.562,-42.11
19.578,-47.9
19.593,-48.08
19.609,-42.83
19.625,-33.1
19.640,-20.39
19.656,-6.32
19.671,7.8
19.687,21.24
19.703,33.78
19.718,45.46
19.734,56.27
19.750,65.96
19.765,74.11
19.781,80.36
19.796,84.65
19.812,87.37
19.828,89.26
19.843,91.22
19.859,94.02
19.875,98.09
19.890,103.52
19.906,110.07
19.921,117.34
19.937,124.96
19.953,132.64
19.968,140.27
19.984,147.85
20.000,155.45
20.015,163.1
20.031,170.69
20.046,177.79
20.062,183.67
20.078,187.34
20.093,187.86
20.109,184.56
20.125,177.36
20.140,166.79
20.156,153.86
20.171,139.75
20.187,125.42
20.203,111.3
20.218,97.24
20.234,82.7
20.250,67.09
20.265,50.26
20.281,32.84
20.296,16.24
20.312,2.4
20.328,-6.77
20.343,-9.93
20.359,-6.67
20.375,2.5
20.390,16.37
20.406,33.5
20.421,52.44
20.437,71.77
20.453,89.84
20.468,104.57
20.484,113.56
20.500,114.53
20.515,106.17
20.531,88.86
20.546,64.91
20.562,38.09
20.578,12.46
20.593,-9.01
20.609,-25.44
20.625,-38.26
20.640,-50.38
20.656,-64.92
20.671,-83.92
20.687,-107.72
20.703,-135.05
20.718,-163.74
20.734,-191.5
20.750,-216.43
20.765,-237.21
20.781,-252.89
20.796,-262.65
20.812,-265.59
20.828,-261.0
20.843,-248.72
20.859,-229.44
20.875,-204.85
20.890,-177.33
20.906,-149.41
20.921,-123.16
20.937,-99.86
20.953,-79.9
20.968,-63.16
20.984,-49.34
21.000,-38.28
21.015,-30.04
21.031,-24.64
21.046,-21.78
21.062,-20.67
21.078,-20.0
21.093,-18.13
21.109,-13.3
21.125,-3.95
21.140,10.98
21.156,31.72
21.171,57.53
21.187,86.72
21.203,117.01
21.218,145.92
21.234,171.26
21.250,191.46
21.265,205.7
21.281,213.81
21.296,216.08
21.312,213.13
21.328,205.74
21.343,194.82
21.359,181.34
21.375,166.24
21.390,150.37
21.406,134.39
21.421,118.93
21.437,104.67
21.453,92.51
21.468,83.29
21.484,77.36
21.500,74.13
21.515,71.81
21.531,67.63
21.546,58.74
21.562,43.22
21.578,20.95
21.593,-6.27
21.609,-35.23
21.625,-62.41
21.640,-84.85
21.656,-100.67
21.671,-109.13
21.687,-110.4
21.703,-105.41
21.718,-95.68
21.734,-83.32
21.750,-70.78
21.765,-60.42
21.781,-54.01
21.796,-52.52
21.812,-56.06
21.828,-64.21
21.843,-76.27
21.859,-91.46
21.875,-109.08
21.890,-128.35
21.906,-148.5
21.921,-168.75
21.937,-188.36
21.953,-206.63
21.968,-222.92
21.984,-236.68
22.000,-247.63
22.015,-255.85
22.031,-262.02
22.046,-267.25
22.062,-272.79
22.078,-279.47
22.093,-287.28
22.109,-295.14
22.125,-301.33
22.140,-304.28
22.156,-303.37
22.171,-299.51
22.187,-294.98
22.203,-292.55
22.218,-294.39
22.234,-301.08
22.250,-311.43
22.265,-322.94
22.281,-332.67
22.296,-338.03
22.312,-337.09
22.328,-328.5
22.343,-311.39
22.359,-285.36
22.375,-250.71
22.390,-208.78
22.406,-161.83
22.421,-112.59
22.437,-63.66
22.453,-16.95
22.468,26.3
22.484,65.41
22.500,99.75
22.515,128.66
22.531,151.54
22.546,168.22
22.562,179.2
22.578,185.64
22.593,189.14
22.609,191.22
22.625,193.01
22.640,195.01
22.656,197.3
22.671,199.55
22.687,201.34
22.703,202.14
22.718,201.35
22.734,198.26
22.750,192.14
22.765,182.47
22.781,169.34
22.796,153.8
22.812,137.9
22.828,124.07
22.843,114.26
22.859,108.99
22.875,107.16
22.890,106.57
22.906,105.13
22.921,101.99
22.937,97.88
22.953,94.49
22.968,93.18
22.984,93.93
23.000,95.05
23.015,93.95
23.031,88.28
23.046,77.04
23.062,60.79
23.078,41.3
23.093,20.86
23.109,1.59
23.125,-14.95
23.140,-27.85
23.156,-36.94
23.171,-42.75
23.187,-46.39
23.203,-49.17
23.218,-52.13
23.234,-55.55
23.250,-58.76
23.265,-60.23
23.281,-58.24
23.296,-51.56
23.312,-40.14
23.328,-25.28
23.343,-9.48
23.359,4.23
23.375,13.15
23.390,15.65
23.406,11.6
23.421,2.14
23.437,-10.81
23.453,-25.32
23.468,-39.85
23.484,-53.22
23.500,-64.46
23.515,-72.44
23.531,-76.05
23.546,-74.37
23.562,-67.3
23.578,-55.72
23.593,-41.41
23.609,-26.48
23.625,-12.9
23.640,-2.03
23.656,5.39
23.671,9.05
23.687,8.91
23.703,5.1
23.718,-2.0
23.734,-11.73
23.750,-23.19
23.765,-35.37
23.781,-47.36
23.796,-58.44
23.812,-68.18
23.828,-76.35
23.843,-83.03
23.859,-88.65
23.875,-93.98
23.890,-99.93
23.906,-107.34
23.921,-116.68
23.937,-128.1
23.953,-141.59
23.968,-157.29
23.984,-175.6
24.000,-197.04
24.015,-221.88
24.031,-249.67
24.046,-279.1
24.062,-308.24
24.078,-334.86
24.093,-356.77
24.109,-372.0
24.125,-378.9
24.140,-376.14
24.156,-363.09
24.171,-340.02
24.187,-308.32
24.203,-270.29
24.218,-228.61
24.234,-185.73
24.250,-143.49
24.265,-103.19
24.281,-65.79
24.296,-32.14
24.312,-2.92
24.328,21.68
24.343,42.2
24.359,59.79
24.375,75.77
24.390,91.01
24.406,105.57
24.421,118.89
24.437,130.32
24.453,139.73
24.468,147.75
24.484,155.47
24.500,163.94
24.515,173.53
24.531,183.76
24.546,193.38
24.562,200.9
24.578,205.1
24.593,205.5
24.609,202.46
24.625,197.15
24.640,191.21
24.656,186.3
24.671,183.68
24.687,183.77
24.703,186.09
24.718,189.38
24.734,192.1
24.750,192.86
24.765,190.75
24.781,185.32
24.796,176.44
24.812,164.3
24.828,149.45
24.843,132.96
24.859,116.46
24.875,101.7
24.890,89.93
24.906,81.2
24.921,74.17
24.937,66.68
24.953,56.95
24.968,44.52
24.984,30.68
25.000,17.83
25.015,8.23
25.031,2.91
25.046,1.18
25.062,1.19
25.078,1.05
25.093,-0.2
25.109,-2.16
25.125,-3.29
25.140,-1.69
25.156,4.22
25.171,15.17
25.187,30.88
25.203,50.03
25.218,70.28
25.234,88.55
25.250,101.39
25.265,105.87
25.281,100.44
25.296,85.66
25.312,64.36
25.328,41.16
25.343,21.24
25.359,8.99
25.375,6.83
25.390,14.65
25.406,30.11
25.421,49.43
25.437,68.52
25.453,84.07
25.468,94.29
25.484,99.27
25.500,100.81
25.515,101.76
25.531,105.06
25.546,112.57
25.562,124.22
25.578,137.85
25.593,149.94
25.609,156.67
25.625,155.35
25.640,144.91
25.656,125.93
25.671,99.96
25.687,69.02
25.703,35.43
25.718,1.92
25.734,-28.3
25.750,-52.16
25.765,-67.63
25.781,-74.54
25.796,-74.72
25.812,-71.15
25.828,-66.65
25.843,-62.71
25.859,-59.36
25.875,-55.75
25.890,-51.29
25.906,-46.27
25.921,-41.82
25.937,-39.08
25.953,-38.5
25.968,-39.51
25.984,-41.02
26.000,-42.2
26.015,-43.21
26.031,-45.21
26.046,-49.68
26.062,-57.59
26.078,-68.74
26.093,-81.8
26.109,-95.07
26.125,-107.22
26.140,-117.78
26.156,-127.0
26.171,-135.05
26.187,-141.39
26.203,-144.61
26.218,-142.97
26.234,-135.29
26.250,-121.68
26.265,-103.65
26.281,-83.46
26.296,-63.24
26.312,-44.17
26.328,-26.32
26.343,-9.08
26.359,8.12
26.375,25.34
26.390,42.1
26.406,57.77
26.421,72.01
26.437,85.01
26.453,97.24
26.468,108.94
26.484,119.74
26.500,128.52
26.515,133.75
26.531,133.98
26.546,128.34
26.562,116.82
26.578,100.37
26.593,80.85
26.609,60.79
26.625,42.81
26.640,29.0
26.656,20.24
26.671,15.99
26.687,14.56
26.703,13.82
26.718,11.98
26.734,8.06
26.750,1.94
26.765,-6.01
26.781,-15.19
26.796,-25.0
26.812,-34.72
26.828,-43.5
26.843,-50.47
26.859,-55.08
26.875,-57.38
26.890,-58.12
26.906,-58.59
26.921,-60.21
26.937,-64.06
26.953,-70.68
26.968,-79.83
26.984,-90.53
27.000,-101.24
27.015,-110.19
27.031,-115.91
27.046,-117.6
27.062,-115.2
27.078,-109.09
27.093,-99.77
27.109,-87.44
27.125,-72.13
27.140,-54.02
27.156,-33.78
27.171,-12.72
27.187,7.62
27.203,25.98
27.218,41.79
27.234,55.17
27.250,66.52
27.265,76.19
27.281,84.21
27.296,90.49
27.312,95.11
27.328,98.53
27.343,101.38
27.359,104.13
27.375,106.71
27.390,108.49
27.406,108.54
27.421,105.92
27.437,100.07
27.453,90.84
27.468,78.53
27.484,63.93
27.500,48.3
27.515,33.29
27.531,20.68
27.546,12.0
27.562,8.13
27.578,9.06
27.593,13.99
27.609,21.62
27.625,30.55
27.640,39.44
27.656,47.16
27.671,52.74
27.687,55.42
27.703,54.82
27.718,51.15
27.734,45.21
27.750,38.25
27.765,31.65
27.781,26.5
27.796,23.4
27.812,22.36
27.828,22.93
27.843,24.34
27.859,25.75
27.875,26.49
27.890,26.12
27.906,24.58
27.921,22.18
27.937,19.47
27.953,17.09
27.968,15.47
27.984,14.64
28.000,14.18
28.015,13.4
28.031,11.51
28.046,7.87
28.062,2.17
28.078,-5.54
28.093,-14.89
28.109,-25.22
28.125,-35.64
28.140,-45.12
28.156,-52.57
28.171,-56.98
28.187,-57.65
28.203,-54.38
28.218,-47.64
28.234,-38.51
28.250,-28.46
28.265,-19.0
28.281,-11.24
28.296,-5.71
28.312,-2.28
28.328,-0.41
28.343,0.54
28.359,0.99
28.375,1.08
28.390,0.79
28.406,0.13
28.421,-0.69
28.437,-1.3
28.453,-1.3
28.468,-0.49
28.484,1.11
28.500,3.32
28.515,5.94
28.531,8.91
28.546,12.37
28.562,16.61
28.578,21.93
28.593,28.43
28.609,35.76
28.625,42.94
28.640,48.4
28.656,50.14
28.671,46.33
28.687,35.87
28.703,18.82
28.718,-3.56
28.734,-29.09
28.750,-55.17
28.765,-79.2
28.781,-98.94
28.796,-112.68
28.812,-119.45
28.828,-119.31
28.843,-113.39
28.859,-103.71
28.875,-92.62
28.890,-82.07
28.906,-73.03
28.921,-65.44
28.937,-58.67
28.953,-52.13
28.968,-45.72
28.984,-39.76
29.000,-34.65
29.015,-30.41
29.031,-26.58
29.046,-22.4
29.062,-17.31
29.078,-11.18
29.093,-4.49
29.109,2.0
29.125,7.55
29.140,11.81
29.156,14.9
29.171,17.31
29.187,19.65
29.203,22.38
29.218,25.5
29.234,28.49
29.250,30.38
29.265,30.11
29.281,27.09
29.296,21.55
29.312,14.53
29.328,7.44
29.343,1.34
29.359,-3.56
29.375,-7.73
29.390,-11.8
29.406,-15.79
29.421,-18.76
29.437,-19.29
29.453,-16.46
29.468,-10.52
29.484,-2.98
29.500,4.24
29.515,9.78
29.531,13.51
29.546,16.19
29.562,18.72
29.578,21.22
29.593,23.0
29.609,23.01
29.625,20.74
29.640,16.73
29.656,12.35
29.671,9.14
29.687,8.02
29.703,8.92
29.718,10.99
29.734,13.11
29.750,14.47
29.765,14.77
29.781,14.11
29.796,12.78
29.812,10.96
29.828,8.6
29.843,5.42
29.859,1.12
29.875,-4.41
29.890,-10.94
29.906,-17.87
29.921,-24.53
29.937,-30.39
29.953,-35.39
29.968,-39.92
29.984,-44.63
30.000,-50.09
30.015,-56.51
30.031,-63.58
30.046,-70.53
30.062,-76.23
30.078,-79.41
30.093,-78.87
30.109,-73.83
30.125,-64.16
30.140,-50.62
30.156,-34.71
30.171,-18.29
30.187,-3.01
30.203,10.15
30.218,21.0
30.234,30.01
30.250,37.87
30.265,45.23
30.281,52.45
30.296,59.62
30.312,66.63
30.328,73.28
30.343,79.41
30.359,84.96
30.375,90.1
30.390,95.12
30.406,100.33
30.421,105.83
30.437,111.41
30.453,116.3
30.468,119.21
30.484,118.36
30.500,111.91
30.515,98.52
30.531,78.21
30.546,52.77
30.562,25.64
30.578,1.03
30.593,-17.48
30.609,-28.19
30.625,-31.8
30.640,-30.85
30.656,-28.35
30.671,-26.46
30.687,-25.7
30.703,-25.24
30.718,-23.84
30.734,-20.76
30.750,-16.37
30.765,-11.82
30.781,-8.36
30.796,-6.58
30.812,-6.05
30.828,-5.6
30.843,-4.04
30.859,-0.71
30.875,4.3
30.890,10.45
30.906,17.22
30.921,24.34
30.937,31.71
30.953,38.98
30.968,45.36
30.984,49.8
31.000,51.64
31.015,51.19
31.031,49.95
31.046,50.16
31.062,53.82
31.078,61.85
31.093,73.72
31.109,87.83
31.125,102.31
31.140,115.88
31.156,128.23
31.171,139.74
31.187,150.95
31.203,161.96
31.218,172.34
31.234,181.46
31.250,189.0
31.265,195.28
31.281,201.27
31.296,208.14
31.312,216.79
31.328,227.48
31.343,239.77
31.359,252.63
31.375,264.63
31.390,274.13
31.406,279.38
31.421,278.91
31.437,271.9
31.453,258.54
31.468,240.07
31.484,218.44
31.500,195.72
31.515,173.51
31.531,152.64
31.546,133.27
31.562,115.19
31.578,98.17
31.593,82.13
31.609,67.09
31.625,52.99
31.640,39.58
31.656,26.41
31.671,12.93
31.687,-1.34
31.703,-16.66
31.718,-32.94
31.734,-49.85
31.750,-66.95
31.765,-83.86
31.781,-100.47
31.796,-116.95
31.812,-133.67
31.828,-151.18
31.843,-170.09
31.859,-191.03
31.875,-214.54
31.890,-240.66
31.906,-268.49
31.921,-295.95
31.937,-320.02
31.953,-337.44
31.968,-345.9
31.984,-344.97
32.000,-336.28
32.015,-323.01
32.031,-308.62
32.046,-295.78
32.062,-285.71
32.078,-278.38
32.093,-273.11
32.109,-269.14
32.125,-265.91
32.140,-262.9
32.156,-259.33
32.171,-253.99
32.187,-245.53
32.203,-232.93
32.218,-215.98
32.234,-195.37
32.250,-172.71
32.265,-150.14
32.281,-130.03
32.296,-114.76
32.312,-106.23
32.328,-105.31
32.343,-111.42
32.359,-122.24
32.375,-134.05
32.390,-142.69
32.406,-144.71
32.421,-138.32
32.437,-123.94
32.453,-103.75
32.468,-80.94
32.484,-58.8
32.500,-39.97
32.515,-26.19
32.531,-18.23
32.546,-15.94
32.562,-18.36
32.578,-23.86
32.593,-30.48
32.609,-36.3
32.625,-39.78
32.640,-40.04
32.656,-36.77
32.671,-30.18
32.687,-20.8
32.703,-9.53
32.718,2.38
32.734,13.28
32.750,21.28
32.765,24.62
32.781,22.16
32.796,13.86
32.812,0.97
32.828,-14.02
32.843,-27.82
32.859,-37.06
32.875,-39.04
32.890,-32.36
32.906,-17.26
32.921,4.61
32.937,30.65
32.953,58.02
32.968,84.34
32.984,107.99
33.000,128.04
33.015,144.09
33.031,155.99
33.046,163.85
33.062,168.05
33.078,169.36
33.093,168.79
33.109,167.34
33.125,165.63
33.140,163.63
33.156,160.77
33.171,156.1
33.187,148.73
33.203,138.14
33.218,124.2
33.234,107.09
33.250,86.94
33.265,63.63
33.281,36.77
33.296,6.04
33.312,-28.37
33.328,-65.49
33.343,-103.53
33.359,-140.22
33.375,-173.3
33.390,-201.02
33.406,-222.35
33.421,-237.11
33.437,-245.7
33.453,-249.04
33.468,-248.32
33.484,-244.55
33.500,-238.23
33.515,-229.01
33.531,-215.7
33.546,-196.69
33.562,-170.79
33.578,-137.94
33.593,-99.72
33.609,-59.15
33.625,-19.83
33.640,15.01
33.656,43.35
33.671,64.67
33.687,79.67
33.703,89.74
33.718,96.42
33.734,101.12
33.750,105.05
33.765,109.36
33.781,115.11
33.796,123.1
33.812,133.54
33.828,145.78
33.843,158.39
33.859,169.6
33.875,178.07
33.890,183.52
33.906,186.85
33.921,189.76
33.937,193.84
33.953,199.7
33.968,206.62
33.984,212.79
34.000,216.26
34.015,215.76
34.031,211.26
34.046,203.78
34.062,194.7
34.078,185.0
34.093,174.89
34.109,163.95
34.125,151.73
34.140,138.14
34.156,123.67
34.171,109.0
34.187,94.61
34.203,80.47
34.218,66.11
34.234,51.07
34.250,35.26
34.265,19.19
34.281,3.73
34.296,-10.2
34.312,-21.98
34.328,-31.29
34.343,-37.94
34.359,-41.79
34.375,-42.91
34.390,-41.78
34.406,-39.55
34.421,-37.7
34.437,-37.48
34.453,-39.09
34.468,-41.46
34.484,-42.6
34.500,-40.6
34.515,-34.7
34.531,-25.7
34.546,-15.76
34.562,-7.51
34.578,-3.14
34.593,-3.86
34.609,-9.99
34.625,-21.23
34.640,-37.16
34.656,-57.33
34.671,-81.18
34.687,-107.98
34.703,-136.61
34.718,-165.68
34.734,-193.56
34.750,-218.45
34.765,-238.29
34.781,-250.84
34.796,-253.9
34.812,-245.85
34.828,-226.31
34.843,-196.76
34.859,-160.65
34.875,-122.85
34.890,-88.57
34.906,-61.89
34.921,-44.76
34.937,-36.79
34.953,-35.86
34.968,-39.29
34.984,-44.75
35.000,-50.74
35.015,-56.3
35.031,-60.51
35.046,-62.26
35.062,-60.46
35.078,-54.64
35.093,-45.39
35.109,-34.28
35.125,-23.25
35.140,-13.76
35.156,-6.24
35.171,-0.16
35.187,5.39
35.203,11.0
35.218,16.57
35.234,21.39
35.250,24.55
35.265,25.37
35.281,23.74
35.296,20.02
35.312,14.82
35.328,8.68
35.343,1.83
35.359,-5.87
35.375,-14.65
35.390,-24.43
35.406,-34.44
35.421,-43.16
35.437,-48.63
35.453,-49.14
35.468,-43.89
35.484,-33.4
35.500,-19.37
35.515,-4.16
35.531,9.82
35.546,20.8
35.562,27.83
35.578,30.91
35.593,30.73
35.609,28.44
35.625,25.42
35.640,22.93
35.656,21.96
35.671,23.05
35.687,26.27
35.703,31.25
35.718,37.3
35.734,43.56
35.750,49.29
35.765,54.04
35.781,58.01
35.796,61.98
35.812,67.04
35.828,74.03
35.843,82.97
35.859,92.82
35.875,101.63
35.890,107.24
35.906,107.98
35.921,103.2
35.937,93.32
35.953,79.62
35.968,63.85
35.984,47.91
36.000,33.55
36.015,22.13
36.031,14.23
36.046,9.48
36.062,6.64
36.078,4.14
36.093,0.82
36.109,-3.58
36.125,-8.49
36.140,-13.23
36.156,-17.89
36.171,-23.79
36.187,-33.06
36.203,-47.57
36.218,-67.82
36.234,-92.37
36.250,-118.18
36.265,-141.87
36.281,-160.85
36.296,-174.18
36.312,-182.49
36.328,-187.34
36.343,-190.18
36.359,-191.64
36.375,-191.3
36.390,-187.96
36.406,-180.21
36.421,-167.21
36.437,-149.02
36.453,-126.82
36.468,-102.57
36.484,-78.54
36.500,-56.88
36.515,-39.1
36.531,-26.07
36.546,-18.01
36.562,-14.65
36.578,-15.22
36.593,-18.38
36.609,-22.22
36.625,-24.34
36.640,-22.42
36.656,-14.82
36.671,-1.12
36.687,17.68
36.703,39.43
36.718,61.59
36.734,81.98
36.750,99.29
36.765,113.27
36.781,124.27
36.796,132.86
36.812,139.41
36.828,144.0
36.843,146.6
36.859,147.3
36.875,146.49
36.890,144.76
36.906,142.72
36.921,140.69
36.937,138.67
36.953,136.41
36.968,133.6
36.984,130.13
37.000,126.14
37.015,121.86
37.031,117.46
37.046,112.87
37.062,107.78
37.078,101.88
37.093,95.0
37.109,87.3
37.125,79.11
37.140,70.77
37.156,62.47
37.171,54.17
37.187,45.7
37.203,36.85
37.218,27.44
37.234,17.31
37.250,6.32
37.265,-5.5
37.281,-17.73
37.296,-29.37
37.312,-38.95
37.328,-44.83
37.343,-45.8
37.359,-41.53
37.375,-32.7
37.390,-20.7
37.406,-7.09
37.421,6.87
37.437,20.49
37.453,33.52
37.468,45.88
37.484,57.32
37.500,67.36
37.515,75.43
37.531,81.11
37.546,84.35
37.562,85.53
37.578,85.31
37.593,84.35
37.609,83.07
37.625,81.52
37.640,79.55
37.656,76.97
37.671,73.76
37.687,70.12
37.703,66.34
37.718,62.64
37.734,59.01
37.750,55.29
37.765,51.24
37.781,46.77
37.796,41.94
37.812,36.9
37.828,31.77
37.843,26.58
37.859,21.29
37.875,15.86
37.890,10.36
37.906,4.92
37.921,-0.37
37.937,-5.57
37.953,-10.92
37.968,-16.83
37.984,-23.78
38.000,-32.09
38.015,-41.79
38.031,-52.39
38.046,-62.89
38.062,-71.87
38.078,-77.74
38.093,-79.19
38.109,-75.54
38.125,-67.01
38.140,-54.59
38.156,-39.79
38.171,-24.13
38.187,-8.88
38.203,5.14
38.218,17.5
38.234,28.01
38.250,36.66
38.265,43.47
38.281,48.62
38.296,52.3
38.312,54.85
38.328,56.54
38.343,57.62
38.359,58.24
38.375,58.44
38.390,58.23
38.406,57.57
38.421,56.4
38.437,54.67
38.453,52.37
38.468,49.54
38.484,46.27
38.500,42.72
38.515,39.0
38.531,35.22
38.546,31.36
38.562,27.36
38.578,23.14
38.593,18.7
38.609,14.15
38.625,9.67
38.640,5.43
38.656,1.48
38.671,-2.3
38.687,-6.15
38.703,-10.37
38.718,-15.21
38.734,-20.89
38.750,-27.54
38.765,-35.19
38.781,-43.75
38.796,-52.82
38.812,-61.58
38.828,-68.83
38.843,-73.17
38.859,-73.4
38.875,-68.9
38.890,-59.94
38.906,-47.56
38.921,-33.32
38.937,-18.77
38.953,-5.11
38.968,6.97
38.984,17.18
39.000,25.42
39.015,31.58
39.031,35.53
39.046,37.25
39.062,37.0
39.078,35.33
39.093,33.05
39.109,30.94
39.125,29.57
39.140,29.18
39.156,29.64
39.171,30.6
39.187,31.64
39.203,32.35
39.218,32.46
39.234,31.85
39.250,30.55
39.265,28.7
39.281,26.46
39.296,23.9
39.312,20.97
39.328,17.55
39.343,13.49
39.359,8.79
39.375,3.62
39.390,-1.72
39.406,-6.86
39.421,-11.53
39.437,-15.65
39.453,-19.28
39.468,-22.66
39.484,-26.07
39.500,-29.81
39.515,-34.18
39.531,-39.45
39.546,-45.75
39.562,-52.96
39.578,-60.59
39.593,-67.68
39.609,-72.96
39.625,-75.17
39.640,-73.41
39.656,-67.45
39.671,-57.87
39.687,-45.81
39.703,-32.62
39.718,-19.48
39.734,-7.15
39.750,4.01
39.765,13.93
39.781,22.56
39.796,29.86
39.812,35.71
39.828,40.01
39.843,42.81
39.859,44.32
39.875,44.87
39.890,44.85
39.906,44.58
39.921,44.27
39.937,43.97
39.953,43.56
39.968,42.84
39.984,41.6
40.000,39.75
40.015,37.36
40.031,34.66
40.046,31.86
40.062,29.07
40.078,26.16
40.093,22.87
40.109,18.93
40.125,14.17
40.140,8.62
40.156,2.5
40.171,-3.89
40.187,-10.22
40.203,-16.16
40.218,-21.52
40.234,-26.19
40.250,-30.23
40.265,-33.87
40.281,-37.44
40.296,-41.3
40.312,-45.74
40.328,-50.84
40.343,-56.46
40.359,-62.19
40.375,-67.36
40.390,-71.17
40.406,-72.74
40.421,-71.44
40.437,-67.08
40.453,-59.93
40.468,-50.7
40.484,-40.24
40.500,-29.33
40.515,-18.49
40.531,-7.99
40.546,1.98
40.562,11.19
40.578,19.32
40.593,26.12
40.609,31.53
40.625,35.77
40.640,39.27
40.656,42.54
40.671,45.96
40.687,49.71
40.703,53.84
40.718,58.24
40.734,62.72
40.750,67.03
40.765,70.88
40.781,73.92
40.796,75.91
40.812,76.76
40.828,76.62
40.843,75.83
40.859,74.79
40.875,73.75
40.890,72.67
40.906,71.27
40.921,69.09
40.937,65.77
40.953,61.21
40.968,55.59
40.984,49.29
41.000,42.67
41.015,35.92
41.031,28.99
41.046,21.62
41.062,13.52
41.078,4.55
41.093,-5.23
41.109,-15.55
41.125,-25.92
41.140,-35.64
41.156,-43.76
41.171,-49.17
41.187,-50.91
41.203,-48.44
41.218,-42.06
41.234,-32.92
41.250,-22.74
41.265,-13.24
41.281,-5.61
41.296,-0.22
41.312,3.31
41.328,5.64
41.343,7.36
41.359,8.63
41.375,9.25
41.390,8.82
41.406,7.04
41.421,3.82
41.437,-0.74
41.453,-6.42
41.468,-13.0
41.484,-20.33
41.500,-28.33
41.515,-36.93
41.531,-45.98
41.546,-55.21
41.562,-64.24
41.578,-72.63
41.593,-80.03
41.609,-86.3
41.625,-91.51
41.640,-95.95
41.656,-99.86
41.671,-103.36
41.687,-106.4
41.703,-108.8
41.718,-110.44
41.734,-111.29
41.750,-111.49
41.765,-111.2
41.781,-110.52
41.796,-109.43
41.812,-107.94
41.828,-106.12
41.843,-104.29
41.859,-102.89
41.875,-102.31
41.890,-102.55
41.906,-103.06
41.921,-102.79
41.937,-100.46
41.953,-95.05
41.968,-86.21
41.984,-74.42
42.000,-60.74
42.015,-46.48
42.031,-32.71
42.046,-19.99
42.062,-8.55
42.078,1.61
42.093,10.37
42.109,17.51
42.125,22.83
42.140,26.39
42.156,28.57
42.171,30.08
42.187,31.57
42.203,33.42
42.218,35.59
42.234,37.66
42.250,39.09
42.265,39.49
42.281,38.77
42.296,37.17
42.312,35.1
42.328,33.02
42.343,31.2
42.359,29.7
42.375,28.3
42.390,26.68
42.406,24.49
42.421,21.55
42.437,17.91
42.453,13.83
42.468,9.66
42.484,5.72
42.500,2.16
42.515,-1.08
42.531,-4.29
42.546,-7.84
42.562,-12.13
42.578,-17.47
42.593,-23.95
42.609,-31.3
42.625,-38.81
42.640,-45.35
42.656,-49.59
42.671,-50.35
42.687,-47.03
42.703,-39.88
42.718,-29.97
42.734,-18.87
42.750,-8.12
42.765,1.25
42.781,8.93
42.796,15.19
42.812,20.53
42.828,25.28
42.843,29.45
42.859,32.76
42.875,34.87
42.890,35.66
42.906,35.37
42.921,34.49
42.937,33.64
42.953,33.24
42.968,33.4
42.984,33.94
43.000,34.51
43.015,34.79
43.031,34.62
43.046,33.99
43.062,32.96
43.078,31.58
43.093,29.79
43.109,27.49
43.125,24.64
43.140,21.29
43.156,17.6
43.171,13.72
43.187,9.8
43.203,5.91
43.218,2.1
43.234,-1.61
43.250,-5.22
43.265,-8.77
43.281,-12.36
43.296,-16.09
43.312,-20.04
43.328,-24.28
43.343,-28.9
43.359,-33.96
43.375,-39.36
43.390,-44.7
43.406,-49.21
43.421,-51.87
43.437,-51.71
43.453,-48.2
43.468,-41.44
43.484,-32.16
43.500,-21.44
43.515,-10.38
43.531,0.17
43.546,9.7
43.562,17.86
43.578,24.44
43.593,29.22
43.609,32.09
43.625,33.11
43.640,32.64
43.656,31.32
43.671,29.88
43.687,29.01
43.703,29.09
43.718,30.14
43.734,31.79
43.750,33.52
43.765,34.77
43.781,35.23
43.796,34.84
43.812,33.82
43.828,32.5
43.843,31.1
43.859,29.68
43.875,28.06
43.890,25.98
43.906,23.24
43.921,19.87
43.937,16.1
43.953,12.3
43.968,8.78
43.984,5.67
44.000,2.89
44.015,0.17
44.031,-2.74
44.046,-6.06
44.062,-9.92
44.078,-14.43
44.093,-19.63
44.109,-25.37
44.125,-31.17
44.140,-36.17
44.156,-39.25
44.171,-39.32
44.187,-35.78
44.203,-28.68
44.218,-18.82
44.234,-7.46
44.250,4.09
44.265,14.76
44.281,24.01
44.296,31.67
44.312,37.78
44.328,42.49
44.343,45.9
44.359,48.1
44.375,49.34
44.390,49.94
44.406,50.31
44.421,50.8
44.437,51.53
44.453,52.4
44.468,53.17
44.484,53.61
44.500,53.73
44.515,53.69
44.531,53.74
44.546,54.02
44.562,54.4
44.578,54.55
44.593,54.03
44.609,52.55
44.625,50.01
44.640,46.59
44.656,42.59
44.671,38.39
44.687,34.28
44.703,30.46
44.718,27.01
44.734,23.87
44.750,20.89
44.765,17.8
44.781,14.33
44.796,10.3
44.812,5.71
44.828,0.87
44.843,-3.64
44.859,-7.04
44.875,-8.65
44.890,-8.03
44.906,-5.25
44.921,-0.84
44.937,4.38
44.953,9.57
44.968,14.07
44.984,17.54
45.000,19.93
45.015,21.26
45.031,21.65
45.046,21.17
45.062,20.03
45.078,18.56
45.093,17.24
45.109,16.53
45.125,16.78
45.140,18.12
45.156,20.39
45.171,23.22
45.187,26.2
45.203,28.98
45.218,31.41
45.234,33.52
45.250,35.4
45.265,37.08
45.281,38.39
45.296,38.9
45.312,38.09
45.328,35.5
45.343,30.94
45.359,24.63
45.375,17.19
45.390,9.48
45.406,2.3
45.421,-3.78
45.437,-8.59
45.453,-12.23
45.468,-15.0
45.484,-17.15
45.500,-18.81
45.515,-20.05
45.531,-20.85
45.546,-21.32
45.562,-21.56
45.578,-21.61
45.593,-21.42
45.609,-20.8
45.625,-19.53
45.640,-17.51
45.656,-14.88
45.671,-11.96
45.687,-9.19
45.703,-7.0
45.718,-5.59
45.734,-4.95
45.750,-4.85
45.765,-5.0
45.781,-5.11
45.796,-5.04
45.812,-4.86
45.828,-4.77
45.843,-5.07
45.859,-6.0
45.875,-7.65
45.890,-9.85
45.906,-12.31
45.921,-14.73
45.937,-16.98
45.953,-19.23
45.968,-21.77
45.984,-24.9
46.000,-28.73
46.015,-33.07
46.031,-37.49
46.046,-41.58
46.062,-45.13
46.078,-48.24
46.093,-51.26
46.109,-54.58
46.125,-58.56
46.140,-63.37
46.156,-68.97
46.171,-75.09
46.187,-81.15
46.203,-86.24
46.218,-89.24
46.234,-89.08
46.250,-85.14
46.265,-77.48
46.281,-66.95
46.296,-54.89
46.312,-42.72
46.328,-31.59
46.343,-22.12
46.359,-14.45
46.375,-8.42
46.390,-3.76
46.406,-0.31
46.421,2.09
46.437,3.62
46.453,4.55
46.468,5.28
46.484,6.24
46.500,7.75
46.515,9.86
46.531,12.35
46.546,14.79
46.562,16.78
46.578,18.07
46.593,18.69
46.609,18.81
46.625,18.6
46.640,18.07
46.656,17.03
46.671,15.21
46.687,12.45
46.703,8.82
46.718,4.63
46.734,0.35
46.750,-3.66
46.765,-7.15
46.781,-10.22
46.796,-13.14
46.812,-16.31
46.828,-20.0
46.843,-24.18
46.859,-28.41
46.875,-31.89
46.890,-33.65
46.906,-32.88
46.921,-29.22
46.937,-22.91
46.953,-14.69
46.968,-5.57
46.984,3.47
47.000,11.76
47.015,18.96
47.031,25.0
47.046,29.88
47.062,33.57
47.078,36.0
47.093,37.08
47.109,36.91
47.125,35.72
47.140,33.92
47.156,31.93
47.171,30.05
47.187,28.42
47.203,26.99
47.218,25.56
47.234,23.89
47.250,21.75
47.265,18.97
47.281,15.49
47.296,11.38
47.312,6.83
47.328,2.13
47.343,-2.46
47.359,-6.74
47.375,-10.71
47.390,-14.49
47.406,-18.39
47.421,-22.7
47.437,-27.67
47.453,-33.35
47.468,-39.58
47.484,-45.98
47.500,-51.89
47.515,-56.54
47.531,-59.14
47.546,-59.1
47.562,-56.19
47.578,-50.64
47.593,-43.08
47.609,-34.4
47.625,-25.54
47.640,-17.21
47.656,-9.86
47.671,-3.68
47.687,1.3
47.703,5.21
47.718,8.18
47.734,10.44
47.750,12.25
47.765,13.84
47.781,15.42
47.796,17.09
47.812,18.89
47.828,20.83
47.843,22.87
47.859,25.0
47.875,27.13
47.890,29.15
47.906,30.86
47.921,32.07
47.937,32.54
47.953,32.13
47.968,30.73
47.984,28.35
48.000,25.14
48.015,21.43
48.031,17.62
48.046,14.12
48.062,11.11
48.078,8.52
48.093,5.94
48.109,2.96
48.125,-0.7
48.140,-4.8
48.156,-8.59
48.171,-10.93
48.187,-10.69
48.203,-7.08
48.218,0.03
48.234,10.0
48.250,21.72
48.265,33.85
48.281,45.16
48.296,54.8
48.312,62.33
48.328,67.7
48.343,71.07
48.359,72.77
48.375,73.2
48.390,72.75
48.406,71.77
48.421,70.52
48.437,69.1
48.453,67.54
48.468,65.78
48.484,63.8
48.500,61.65
48.515,59.34
48.531,56.88
48.546,54.12
48.562,50.83
48.578,46.77
48.593,41.79
48.609,35.94
48.625,29.43
48.640,22.54
48.656,15.47
48.671,8.29
48.687,0.9
48.703,-6.88
48.718,-15.23
48.734,-24.28
48.750,-34.05
48.765,-44.42
48.781,-55.04
48.796,-65.31
48.812,-74.36
48.828,-81.2
48.843,-84.98
48.859,-85.3
48.875,-82.4
48.890,-77.17
48.906,-70.82
48.921,-64.58
48.937,-59.32
48.953,-55.45
48.968,-52.93
48.984,-51.43
49.000,-50.54
49.015,-49.87
49.031,-49.13
49.046,-48.12
49.062,-46.73
49.078,-44.85
49.093,-42.49
49.109,-39.64
49.125,-36.34
49.140,-32.74
49.156,-29.0
49.171,-25.33
49.187,-21.96
49.203,-19.03
49.218,-16.68
49.234,-15.05
49.250,-14.27
49.265,-14.45
49.281,-15.58
49.296,-17.51
49.312,-19.91
49.328,-22.45
49.343,-24.93
49.359,-27.44
49.375,-30.36
49.390,-34.16
49.406,-39.15
49.421,-45.21
49.437,-51.64
49.453,-57.27
49.468,-60.77
49.484,-61.03
49.500,-57.51
49.515,-50.44
49.531,-40.67
49.546,-29.46
49.562,-18.07
49.578,-7.47
49.593,1.76
49.609,9.37
49.625,15.35
49.640,19.77
49.656,22.75
49.671,24.48
49.687,25.2
49.703,25.27
49.718,25.09
49.734,24.97
49.750,25.09
49.765,25.44
49.781,25.91
49.796,26.32
49.812,26.53
49.828,26.47
49.843,26.14
49.859,25.5
49.875,24.49
49.890,22.98
49.906,20.87
49.921,18.13
49.937,14.92
49.953,11.53
49.968,8.31
49.984,5.49
50.000,3.1
50.015,0.91
50.031,-1.46
50.046,-4.43
50.062,-8.24
50.078,-12.89
50.093,-17.98
50.109,-22.84
50.125,-26.56
50.140,-28.31
50.156,-27.51
50.171,-23.98
50.187,-18.05
50.203,-10.42
50.218,-1.99
50.234,6.42
50.250,14.21
50.265,21.0
50.281,26.63
50.296,31.04
50.312,34.24
50.328,36.35
50.343,37.62
50.359,38.46
50.375,39.33
50.390,40.56
50.406,42.27
50.421,44.2
50.437,45.91
50.453,46.95
50.468,47.06
50.484,46.34
50.500,45.18
50.515,44.05
50.531,43.29
50.546,42.91
50.562,42.65
50.578,42.1
50.593,40.93
50.609,39.03
50.625,36.5
50.640,33.56
50.656,30.37
50.671,27.01
50.687,23.45
50.703,19.65
50.718,15.55
50.734,11.1
50.750,6.11
50.765,0.4
50.781,-6.17
50.796,-13.49
50.812,-21.03
50.828,-27.91
50.843,-33.09
50.859,-35.74
50.875,-35.46
50.890,-32.43
50.906,-27.23
50.921,-20.61
50.937,-13.28
50.953,-5.73
50.968,1.68
50.984,8.69
51.000,14.97
51.015,20.24
51.031,24.34
51.046,27.32
51.062,29.46
51.078,31.17
51.093,32.78
51.109,34.43
51.125,35.99
51.140,37.14
51.156,37.6
51.171,37.15
51.187,35.84
51.203,33.81
51.218,31.31
51.234,28.53
51.250,25.55
51.265,22.33
51.281,18.69
51.296,14.44
51.312,9.47
51.328,3.78
51.343,-2.35
51.359,-8.51
51.375,-14.24
51.390,-19.2
51.406,-23.25
51.421,-26.59
51.437,-29.59
51.453,-32.74
51.468,-36.43
51.484,-40.83
51.500,-45.83
51.515,-51.05
51.531,-55.91
51.546,-59.69
51.562,-61.8
51.578,-61.8
51.593,-59.6
51.609,-55.33
51.625,-49.33
51.640,-42.03
51.656,-33.84
51.671,-25.28
51.687,-16.82
51.703,-9.01
51.718,-2.26
51.734,3.19
51.750,7.38
51.765,10.57
51.781,13.12
51.796,15.37
51.812,17.56
51.828,19.76
51.843,21.9
51.859,23.9
51.875,25.64
51.890,27.08
51.906,28.24
51.921,29.12
51.937,29.72
51.953,29.93
51.968,29.53
51.984,28.27
52.000,25.97
52.015,22.69
52.031,18.77
52.046,14.73
52.062,11.07
52.078,8.06
52.093,5.66
52.109,3.52
52.125,1.2
52.140,-1.7
52.156,-5.43
52.171,-10.07
52.187,-15.51
52.203,-21.47
52.218,-27.47
52.234,-32.84
52.250,-36.88
52.265,-39.01
52.281,-38.95
52.296,-36.83
52.312,-33.07
52.328,-28.2
52.343,-22.73
52.359,-17.02
52.375,-11.34
52.390,-5.9
52.406,-0.98
52.421,3.21
52.437,6.56
52.453,9.11
52.468,11.02
52.484,12.5
52.500,13.72
52.515,14.74
52.531,15.59
52.546,16.29
52.562,16.87
52.578,17.41
52.593,17.98
52.609,18.59
52.625,19.17
52.640,19.61
52.656,19.78
52.671,19.56
52.687,18.89
52.703,17.76
52.718,16.18
52.734,14.26
52.750,12.12
52.765,9.95
52.781,7.89
52.796,6.0
52.812,4.16
52.828,2.06
52.843,-0.63
52.859,-4.18
52.875,-8.55
52.890,-13.31
52.906,-17.8
52.921,-21.22
52.937,-23.01
52.953,-22.91
52.968,-21.11
52.984,-18.04
53.000,-14.24
53.015,-10.22
53.031,-6.26
53.046,-2.54
53.062,0.87
53.078,3.88
53.093,6.35
53.109,8.17
53.125,9.35
53.140,10.05
53.156,10.65
53.171,11.49
53.187,12.84
53.203,14.7
53.218,16.83
53.234,18.9
53.250,20.63
53.265,21.92
53.281,22.8
53.296,23.4
53.312,23.74
53.328,23.75
53.343,23.27
53.359,22.18
53.375,20.46
53.390,18.24
53.406,15.71
53.421,13.09
53.437,10.52
53.453,8.05
53.468,5.58
53.484,2.93
53.500,-0.11
53.515,-3.75
53.531,-8.04
53.546,-12.81
53.562,-17.56
53.578,-21.51
53.593,-23.74
53.609,-23.49
53.625,-20.46
53.640,-14.87
53.656,-7.44
53.671,0.93
53.687,9.47
53.703,17.8
53.718,25.9
53.734,33.99
53.750,42.3
53.765,50.82
53.781,59.22
53.796,67.01
53.812,73.68
53.828,78.9
53.843,82.71
53.859,85.52
53.875,87.99
53.890,90.78
53.906,94.34
53.921,98.76
53.937,103.8
53.953,109.13
53.968,114.53
53.984,120.05
54.000,126.12
54.015,133.3
54.031,142.14
54.046,152.78
54.062,164.78
54.078,177.05
54.093,187.99
54.109,195.83
54.125,198.99
54.140,196.5
54.156,188.14
54.171,174.42
54.187,156.44
54.203,135.52
54.218,112.86
54.234,89.2
54.250,64.5
54.265,37.85
54.281,7.95
54.296,-26.0
54.312,-63.16
54.328,-100.49
54.343,-133.21
54.359,-156.34
54.375,-166.53
54.390,-163.46
54.406,-149.97
54.421,-130.81
54.437,-110.93
54.453,-93.91
54.468,-81.4
54.484,-73.48
54.500,-69.44
54.515,-68.41
54.531,-69.45
54.546,-71.28
54.562,-72.1
54.578,-69.9
54.593,-63.33
54.609,-52.53
54.625,-39.43
54.640,-27.22
54.656,-19.22
54.671,-17.42
54.687,-21.6
54.703,-29.48
54.718,-37.66
54.734,-43.08
54.750,-44.1
54.765,-40.87
54.781,-34.82
54.796,-27.84
54.812,-21.51
54.828,-16.8
54.843,-14.23
54.859,-14.08
54.875,-16.52
54.890,-21.49
54.906,-28.49
54.921,-36.41
54.937,-43.69
54.953,-48.75
54.968,-50.45
54.984,-48.52
55.000,-43.58
55.015,-36.72
55.031,-28.82
55.046,-20.03
55.062,-9.73
55.078,3.11
55.093,19.32
55.109,38.86
55.125,60.73
55.140,83.35
55.156,105.14
55.171,125.09
55.187,142.89
55.203,158.59
55.218,171.98
55.234,182.18
55.250,187.56
55.265,186.46
55.281,177.98
55.296,162.76
55.312,142.97
55.328,121.61
55.343,101.47
55.359,84.21
55.375,70.18
55.390,59.1
55.406,51.02
55.421,46.94
55.437,48.48
55.453,56.77
55.468,71.09
55.484,88.39
55.500,103.88
55.515,112.73
55.531,111.87
55.546,100.98
55.562,82.33
55.578,59.56
55.593,36.33
55.609,15.17
55.625,-2.88
55.640,-18.17
55.656,-32.04
55.671,-46.23
55.687,-62.29
55.703,-80.96
55.718,-101.71
55.734,-122.62
55.750,-140.92
55.765,-153.94
55.781,-160.37
55.796,-160.8
55.812,-157.61
55.828,-154.1
55.843,-153.28
55.859,-156.97
55.875,-165.32
55.890,-177.07
55.906,-190.2
55.921,-202.55
55.937,-212.38
55.953,-218.74
55.968,-221.45
55.984,-221.05
56.000,-218.47
56.015,-214.8
56.031,-211.03
56.046,-207.95
56.062,-206.0
56.078,-205.19
56.093,-205.09
56.109,-204.92
56.125,-203.72
56.140,-200.73
56.156,-195.71
56.171,-189.11
56.187,-181.88
56.203,-174.98
56.218,-168.99
56.234,-163.83
56.250,-158.81
56.265,-153.08
56.281,-145.98
56.296,-137.31
56.312,-127.25
56.328,-116.09
56.343,-103.98
56.359,-90.9
56.375,-76.83
56.390,-62.1
56.406,-47.69
56.421,-35.14
56.437,-26.16
56.453,-22.03
56.468,-23.02
56.484,-28.21
56.500,-35.77
56.515,-43.61
56.531,-50.05
56.546,-54.2
56.562,-55.83
56.578,-55.18
56.593,-52.56
56.609,-48.31
56.625,-42.82
56.640,-36.71
56.656,-30.78
56.671,-25.94
56.687,-22.86
56.703,-21.81
56.718,-22.53
56.734,-24.4
56.750,-26.72
56.765,-28.97
56.781,-31.11
56.796,-33.5
56.812,-36.82
56.828,-41.69
56.843,-48.19
56.859,-55.67
56.875,-62.72
56.890,-67.54
56.906,-68.49
56.921,-64.7
56.937,-56.25
56.953,-44.21
56.968,-30.2
56.984,-15.88
57.000,-2.46
57.015,9.47
57.031,19.92
57.046,29.1
57.062,37.17
57.078,44.04
57.093,49.43
57.109,53.16
57.125,55.33
57.140,56.41
57.156,57.1
57.171,58.13
57.187,59.92
57.203,62.54
57.218,65.71
57.234,68.92
57.250,71.74
57.265,73.89
57.281,75.32
57.296,76.15
57.312,76.52
57.328,76.49
57.343,75.99
57.359,74.94
57.375,73.33
57.390,71.35
57.406,69.35
57.421,67.74
57.437,66.8
57.453,66.51
57.468,66.59
57.484,66.58
57.500,66.12
57.515,65.05
57.531,63.41
57.546,61.4
57.562,59.21
57.578,56.9
57.593,54.42
57.609,51.69
57.625,48.62
57.640,45.23
57.656,41.66
57.671,38.14
57.687,34.92
57.703,32.19
57.718,29.98
57.734,28.05
57.750,26.01
57.765,23.43
57.781,20.11
57.796,16.15
57.812,11.91
57.828,7.92
57.843,4.46
57.859,1.47
57.875,-1.48
57.890,-5.01
57.906,-9.55
57.921,-15.14
57.937,-21.39
57.953,-27.71
57.968,-33.55
57.984,-38.69
58.000,-43.24
58.015,-47.56
58.031,-52.09
58.046,-57.27
58.062,-63.52
58.078,-71.16
58.093,-80.33
58.109,-90.63
58.125,-100.92
58.140,-109.26
58.156,-113.4
58.171,-111.5
58.187,-102.88
58.203,-88.34
58.218,-69.93
58.234,-50.24
58.250,-31.61
58.265,-15.57
58.281,-2.7
58.296,7.05
58.312,13.99
58.328,18.43
58.343,20.68
58.359,21.09
58.375,20.26
58.390,19.0
58.406,18.13
58.421,18.25
58.437,19.51
58.453,21.57
58.468,23.74
58.484,25.29
58.500,25.71
58.515,24.97
58.531,23.39
58.546,21.5
58.562,19.64
58.578,17.89
58.593,15.98
58.609,13.46
58.625,9.94
58.640,5.21
58.656,-0.7
58.671,-7.71
58.687,-15.66
58.703,-24.29
58.718,-33.16
58.734,-41.34
58.750,-47.5
58.765,-50.14
58.781,-48.12
58.796,-41.16
58.812,-30.03
58.828,-16.36
58.843,-2.06
58.859,11.29
58.875,22.87
58.890,32.4
58.906,39.95
58.921,45.48
58.937,48.78
58.953,49.68
58.968,48.29
58.984,45.35
59.000,41.93
59.015,39.15
59.031,37.6
59.046,37.19
59.062,37.19
59.078,36.63
59.093,34.82
59.109,31.58
59.125,27.27
59.140,22.54
59.156,18.0
59.171,13.88
59.187,10.01
59.203,5.9
59.218,0.99
59.234,-5.2
59.250,-12.89
59.265,-21.99
59.281,-32.0
59.296,-42.0
59.312,-50.65
59.328,-56.4
59.343,-57.84
59.359,-54.16
59.375,-45.46
59.390,-32.82
59.406,-17.97
59.421,-2.71
59.437,11.53
59.453,24.03
59.468,34.57
59.484,43.14
59.500,49.69
59.515,54.04
59.531,56.16
59.546,56.33
59.562,55.34
59.578,54.12
59.593,53.44
59.609,53.51
59.625,53.93
59.640,53.92
59.656,52.76
59.671,50.16
59.687,46.31
59.703,41.82
59.718,37.29
59.734,33.08
59.750,29.2
59.765,25.31
59.781,21.0
59.796,15.91
59.812,9.85
59.828,2.77
59.843,-5.22
59.859,-13.88
59.875,-22.69
59.890,-30.74
59.906,-36.81
59.921,-39.55
59.937,-37.98
59.953,-31.86
59.968,-21.8
59.984,-9.14
