timestamp,value
00.000,-111.94
00.015,-106.01
00.031,-99.01
00.046,-91.55
00.062,-84.14
00.078,-77.26
00.093,-71.54
00.109,-67.81
00.125,-66.86
00.140,-69.15
00.156,-74.57
00.171,-82.43
00.187,-91.71
00.203,-101.43
00.218,-110.98
00.234,-120.1
00.250,-128.61
00.265,-135.98
00.281,-141.13
00.296,-142.72
00.312,-139.81
00.328,-132.46
00.343,-121.8
00.359,-109.51
00.375,-96.9
00.390,-84.06
00.406,-70.03
00.421,-53.41
00.437,-33.62
00.453,-11.57
00.468,10.46
00.484,29.87
00.500,44.78
00.515,54.77
00.531,60.7
00.546,63.9
00.562,65.59
00.578,66.66
00.593,68.09
00.609,71.09
00.625,76.93
00.640,85.95
00.656,96.68
00.671,105.66
00.687,108.32
00.703,100.92
00.718,82.3
00.734,54.71
00.750,23.08
00.765,-6.87
00.781,-30.79
00.796,-46.91
00.812,-56.07
00.828,-60.62
00.843,-62.93
00.859,-64.43
00.875,-65.51
00.890,-65.96
00.906,-65.57
00.921,-64.39
00.937,-62.6
00.953,-60.14
00.968,-56.63
00.984,-51.51
01.000,-44.49
01.015,-35.93
01.031,-26.83
01.046,-18.56
01.062,-12.39
01.078,-9.01
01.093,-8.44
01.109,-10.1
01.125,-13.14
01.140,-16.65
01.156,-19.92
01.171,-22.56
01.187,-24.42
01.203,-25.67
01.218,-26.66
01.234,-27.87
01.250,-29.79
01.265,-32.9
01.281,-37.52
01.296,-43.83
01.312,-51.64
01.328,-60.32
01.343,-68.73
01.359,-75.34
01.375,-78.56
01.390,-77.15
01.406,-70.56
01.421,-58.97
01.437,-43.32
01.453,-24.92
01.468,-5.2
01.484,14.56
01.500,33.39
01.515,50.65
01.531,65.96
01.546,79.14
01.562,90.11
01.578,98.86
01.593,105.43
01.609,110.05
01.625,113.13
01.640,115.21
01.656,116.8
01.671,118.23
01.687,119.49
01.703,120.36
01.718,120.59
01.734,120.08
01.750,118.91
01.765,117.28
01.781,115.3
01.796,112.86
01.812,109.67
01.828,105.43
01.843,100.0
01.859,93.57
01.875,86.63
01.890,79.79
01.906,73.55
01.921,68.17
01.937,63.55
01.953,59.38
01.968,55.28
01.984,51.0
02.000,46.55
02.015,42.15
02.031,38.08
02.046,34.57
02.062,31.62
02.078,29.04
02.093,26.51
02.109,23.63
02.125,19.98
02.140,15.2
02.156,9.01
02.171,1.41
02.187,-7.15
02.203,-15.63
02.218,-22.57
02.234,-26.44
02.250,-26.23
02.265,-21.93
02.281,-14.57
02.296,-5.95
02.312,2.04
02.328,8.08
02.343,11.75
02.359,13.53
02.375,14.45
02.390,15.56
02.406,17.61
02.421,20.85
02.437,25.2
02.453,30.34
02.468,35.93
02.484,41.61
02.500,47.09
02.515,52.28
02.531,57.62
02.546,64.35
02.562,74.59
02.578,90.88
02.593,115.18
02.609,147.69
02.625,185.94
02.640,224.95
02.656,258.39
02.671,280.32
02.687,286.78
02.703,276.6
02.718,251.25
02.734,214.14
02.750,169.86
02.765,123.49
02.781,79.94
02.796,43.03
02.812,14.5
02.828,-6.68
02.843,-24.21
02.859,-43.22
02.875,-68.36
02.890,-102.05
02.906,-143.62
02.921,-189.82
02.937,-236.15
02.953,-278.3
02.968,-313.14
02.984,-339.01
03.000,-355.67
03.015,-363.9
03.031,-365.26
03.046,-361.64
03.062,-354.81
03.078,-345.9
03.093,-335.06
03.109,-321.54
03.125,-304.1
03.140,-281.78
03.156,-254.32
03.171,-222.45
03.187,-187.58
03.203,-151.38
03.218,-115.3
03.234,-80.39
03.250,-47.35
03.265,-16.6
03.281,11.57
03.296,37.02
03.312,59.77
03.328,80.08
03.343,98.29
03.359,114.78
03.375,129.71
03.390,142.99
03.406,154.42
03.421,163.75
03.437,170.86
03.453,175.89
03.468,179.15
03.484,181.17
03.500,182.57
03.515,184.06
03.531,186.12
03.546,188.73
03.562,190.89
03.578,190.49
03.593,184.63
03.609,170.45
03.625,146.22
03.640,112.31
03.656,71.41
03.671,27.86
03.687,-13.63
03.703,-49.39
03.718,-77.59
03.734,-98.22
03.750,-112.38
03.765,-121.47
03.781,-126.49
03.796,-128.08
03.812,-126.83
03.828,-123.6
03.843,-119.63
03.859,-116.34
03.875,-114.86
03.890,-115.77
03.906,-119.11
03.921,-124.55
03.937,-131.61
03.953,-139.86
03.968,-148.65
03.984,-156.98
04.000,-163.29
04.015,-165.64
04.031,-162.13
04.046,-151.44
04.062,-133.37
04.078,-108.99
04.093,-80.47
04.109,-50.51
04.125,-21.68
04.140,4.28
04.156,26.72
04.171,45.94
04.187,62.78
04.203,78.1
04.218,92.3
04.234,105.23
04.250,116.34
04.265,124.94
04.281,130.47
04.296,132.64
04.312,131.37
04.328,126.85
04.343,119.46
04.359,109.77
04.375,98.62
04.390,87.04
04.406,76.07
04.421,66.52
04.437,58.74
04.453,52.55
04.468,47.34
04.484,42.33
04.500,36.88
04.515,30.71
04.531,23.95
04.546,17.0
04.562,10.25
04.578,3.85
04.593,-2.33
04.609,-8.66
04.625,-15.43
04.640,-22.72
04.656,-30.29
04.671,-37.66
04.687,-44.35
04.703,-50.05
04.718,-54.81
04.734,-58.95
04.750,-63.07
04.765,-67.86
04.781,-73.91
04.796,-81.48
04.812,-90.25
04.828,-99.14
04.843,-106.39
04.859,-109.95
04.875,-107.97
04.890,-99.49
04.906,-84.71
04.921,-64.94
04.937,-42.18
04.953,-18.49
04.968,4.46
04.984,25.69
05.000,44.73
05.015,61.44
05.031,75.8
05.046,87.77
05.062,97.35
05.078,104.67
05.093,110.01
05.109,113.73
05.125,116.18
05.140,117.55
05.156,117.87
05.171,117.09
05.187,115.17
05.203,112.28
05.218,108.75
05.234,104.98
05.250,101.26
05.265,97.62
05.281,93.74
05.296,89.12
05.312,83.26
05.328,75.95
05.343,67.36
05.359,57.97
05.375,48.42
05.390,39.26
05.406,30.75
05.421,22.81
05.437,15.09
05.453,7.17
05.468,-1.32
05.484,-10.48
05.500,-20.12
05.515,-29.87
05.531,-39.23
05.546,-47.82
05.562,-55.57
05.578,-62.77
05.593,-70.0
05.609,-78.0
05.625,-87.27
05.640,-97.81
05.656,-108.88
05.671,-119.09
05.687,-126.63
05.703,-129.79
05.718,-127.45
05.734,-119.41
05.750,-106.47
05.765,-90.14
05.781,-72.18
05.796,-54.09
05.812,-36.88
05.828,-20.94
05.843,-6.3
05.859,7.18
05.875,19.55
05.890,30.72
05.906,40.49
05.921,48.66
05.937,55.1
05.953,59.84
05.968,63.02
05.984,64.86
06.000,65.65
06.015,65.68
06.031,65.22
06.046,64.52
06.062,63.77
06.078,63.11
06.093,62.57
06.109,62.06
06.125,61.39
06.140,60.38
06.156,58.87
06.171,56.86
06.187,54.41
06.203,51.64
06.218,48.67
06.234,45.55
06.250,42.32
06.265,39.03
06.281,35.66
06.296,32.17
06.312,28.35
06.328,23.9
06.343,18.59
06.359,12.27
06.375,5.06
06.390,-2.68
06.406,-10.55
06.421,-18.16
06.437,-25.4
06.453,-32.37
06.468,-39.36
06.484,-46.74
06.500,-54.87
06.515,-64.01
06.531,-74.06
06.546,-84.45
06.562,-94.08
06.578,-101.41
06.593,-104.89
06.609,-103.42
06.625,-96.68
06.640,-85.3
06.656,-70.57
06.671,-54.1
06.687,-37.33
06.703,-21.3
06.718,-6.61
06.734,6.52
06.750,17.98
06.765,27.7
06.781,35.54
06.796,41.37
06.812,45.05
06.828,46.61
06.843,46.3
06.859,44.56
06.875,41.98
06.890,39.1
06.906,36.34
06.921,33.94
06.937,32.03
06.953,30.75
06.968,30.24
06.984,30.63
07.000,31.91
07.015,33.86
07.031,36.06
07.046,38.0
07.062,39.25
07.078,39.62
07.093,39.06
07.109,37.67
07.125,35.5
07.140,32.59
07.156,28.88
07.171,24.42
07.187,19.31
07.203,13.83
07.218,8.25
07.234,2.77
07.250,-2.6
07.265,-7.99
07.281,-13.58
07.296,-19.5
07.312,-25.77
07.328,-32.41
07.343,-39.54
07.359,-47.46
07.375,-56.36
07.390,-66.09
07.406,-75.81
07.421,-83.91
07.437,-88.39
07.453,-87.42
07.468,-79.99
07.484,-66.16
07.500,-46.96
07.515,-23.95
07.531,1.02
07.546,25.96
07.562,48.55
07.578,66.22
07.593,76.59
07.609,78.19
07.625,71.34
07.640,58.4
07.656,43.3
07.671,30.38
07.687,23.0
07.703,22.68
07.718,28.98
07.734,40.03
07.750,53.42
07.765,66.67
07.781,77.42
07.796,83.04
07.812,80.69
07.828,67.72
07.843,42.43
07.859,5.08
07.875,-41.76
07.890,-93.4
07.906,-144.37
07.921,-189.86
07.937,-226.97
07.953,-254.83
07.968,-274.03
07.984,-285.36
08.000,-288.84
08.015,-283.44
08.031,-267.75
08.046,-241.27
08.062,-205.5
08.078,-164.14
08.093,-122.15
08.109,-84.14
08.125,-52.87
08.140,-28.78
08.156,-10.54
08.171,3.77
08.187,15.61
08.203,25.59
08.218,33.86
08.234,40.81
08.250,47.43
08.265,55.23
08.281,65.6
08.296,78.99
08.312,94.54
08.328,110.41
08.343,124.42
08.359,134.87
08.375,141.02
08.390,143.16
08.406,142.33
08.421,139.73
08.437,136.14
08.453,131.78
08.468,126.35
08.484,119.5
08.500,111.26
08.515,102.11
08.531,92.8
08.546,83.94
08.562,75.62
08.578,67.39
08.593,58.58
08.609,48.71
08.625,37.88
08.640,26.8
08.656,16.46
08.671,7.65
08.687,0.55
08.703,-5.35
08.718,-10.91
08.734,-16.87
08.750,-23.34
08.765,-29.82
08.781,-35.5
08.796,-39.76
08.812,-42.56
08.828,-44.4
08.843,-46.06
08.859,-48.16
08.875,-50.98
08.890,-54.48
08.906,-58.48
08.921,-62.86
08.937,-67.36
08.953,-71.41
08.968,-73.9
08.984,-73.35
09.000,-68.42
09.015,-58.42
09.031,-43.7
09.046,-25.54
09.062,-5.77
09.078,13.78
09.093,31.81
09.109,47.64
09.125,61.19
09.140,72.67
09.156,82.42
09.171,90.66
09.187,97.42
09.203,102.56
09.218,105.85
09.234,107.17
09.250,106.6
09.265,104.54
09.281,101.66
09.296,98.64
09.312,95.95
09.328,93.81
09.343,92.18
09.359,90.94
09.375,89.99
09.390,89.27
09.406,88.64
09.421,87.78
09.437,86.15
09.453,83.09
09.468,78.1
09.484,71.02
09.500,62.22
09.515,52.48
09.531,42.67
09.546,33.57
09.562,25.64
09.578,19.05
09.593,13.85
09.609,10.07
09.625,7.65
09.640,6.33
09.656,5.41
09.671,3.82
09.687,0.47
09.703,-5.29
09.718,-13.31
09.734,-22.6
09.750,-31.69
09.765,-39.2
09.781,-44.27
09.796,-46.63
09.812,-46.38
09.828,-43.68
09.843,-38.67
09.859,-31.42
09.875,-22.25
09.890,-11.71
09.906,-0.59
09.921,10.35
09.937,20.6
09.953,29.93
09.968,38.28
09.984,45.58
10.000,51.62
10.015,56.13
10.031,58.89
10.046,59.84
10.062,59.11
10.078,56.97
10.093,53.76
10.109,49.97
10.125,46.19
10.140,43.22
10.156,41.94
10.171,43.04
10.187,46.81
10.203,53.06
10.218,61.2
10.234,70.44
10.250,80.06
10.265,89.47
10.281,98.28
10.296,106.18
10.312,112.89
10.328,118.22
10.343,122.06
10.359,124.43
10.375,125.42
10.390,125.26
10.406,124.3
10.421,123.04
10.437,122.23
10.453,122.61
10.468,124.77
10.484,128.98
10.500,134.93
10.515,141.79
10.531,148.37
10.546,153.17
10.562,154.75
10.578,152.0
10.593,144.45
10.609,132.57
10.625,117.8
10.640,102.19
10.656,87.74
10.671,75.82
10.687,66.73
10.703,59.83
10.718,54.07
10.734,48.46
10.750,42.61
10.765,36.66
10.781,31.08
10.796,26.17
10.812,21.73
10.828,16.97
10.843,10.82
10.859,2.37
10.875,-8.64
10.890,-21.61
10.906,-35.33
10.921,-48.42
10.937,-59.83
10.953,-69.1
10.968,-76.28
10.984,-81.58
11.000,-85.1
11.015,-86.84
11.031,-86.98
11.046,-86.18
11.062,-85.6
11.078,-86.57
11.093,-90.1
11.109,-96.47
11.125,-105.18
11.140,-115.21
11.156,-125.58
11.171,-135.61
11.187,-145.07
11.203,-153.91
11.218,-162.13
11.234,-169.7
11.250,-176.56
11.265,-182.86
11.281,-189.0
11.296,-195.54
11.312,-202.9
11.328,-211.08
11.343,-219.52
11.359,-227.27
11.375,-233.34
11.390,-237.15
11.406,-238.78
11.421,-238.8
11.437,-237.87
11.453,-236.38
11.468,-234.2
11.484,-230.77
11.500,-225.43
11.515,-217.65
11.531,-207.26
11.546,-194.4
11.562,-179.55
11.578,-163.62
11.593,-148.08
11.609,-134.74
11.625,-125.35
11.640,-120.77
11.656,-120.36
11.671,-121.94
11.687,-122.37
11.703,-118.67
11.718,-108.94
11.734,-92.84
11.750,-71.28
11.765,-45.75
11.781,-17.63
11.796,12.0
11.812,42.26
11.828,72.1
11.843,100.21
11.859,125.1
11.875,145.67
11.890,161.62
11.906,173.64
11.921,183.2
11.937,192.06
11.953,201.73
11.968,213.01
11.984,225.96
12.000,239.94
12.015,254.03
12.031,267.35
12.046,279.27
12.062,289.27
12.078,296.71
12.093,300.44
12.109,298.75
12.125,289.74
12.140,272.0
12.156,245.59
12.171,212.49
12.187,176.5
12.203,142.29
12.218,114.15
12.234,94.96
12.250,85.74
12.265,85.95
12.281,94.04
12.296,107.83
12.312,124.6
12.328,140.98
12.343,153.17
12.359,157.53
12.375,151.59
12.390,134.93
12.406,109.41
12.421,78.57
12.437,46.41
12.453,16.04
12.468,-11.22
12.484,-35.77
12.500,-59.15
12.515,-83.07
12.531,-108.54
12.546,-135.64
12.562,-163.61
12.578,-191.46
12.593,-218.41
12.609,-244.18
12.625,-268.86
12.640,-292.61
12.656,-315.33
12.671,-336.45
12.687,-355.06
12.703,-370.14
12.718,-380.86
12.734,-386.82
12.750,-388.04
12.765,-384.89
12.781,-377.88
12.796,-367.44
12.812,-353.97
12.828,-337.84
12.843,-319.49
12.859,-299.53
12.875,-278.51
12.890,-256.88
12.906,-234.9
12.921,-212.82
12.937,-191.13
12.953,-170.68
12.968,-152.61
12.984,-137.95
13.000,-127.29
13.015,-120.53
13.031,-116.99
13.046,-115.81
13.062,-116.12
13.078,-117.08
13.093,-117.78
13.109,-117.07
13.125,-113.75
13.140,-106.87
13.156,-96.18
13.171,-82.24
13.187,-66.19
13.203,-49.32
13.218,-32.56
13.234,-16.32
13.250,-0.67
13.265,14.37
13.281,28.5
13.296,41.11
13.312,51.49
13.328,59.14
13.343,64.04
13.359,66.69
13.375,67.98
13.390,68.93
13.406,70.48
13.421,73.27
13.437,77.57
13.453,83.27
13.468,89.91
13.484,96.7
13.500,102.76
13.515,107.25
13.531,109.61
13.546,109.65
13.562,107.64
13.578,104.18
13.593,100.01
13.609,95.8
13.625,92.0
13.640,88.8
13.656,86.17
13.671,83.88
13.687,81.55
13.703,78.72
13.718,74.97
13.734,70.04
13.750,63.97
13.765,57.02
13.781,49.68
13.796,42.4
13.812,35.42
13.828,28.73
13.843,22.09
13.859,15.19
13.875,7.77
13.890,-0.29
13.906,-8.88
13.921,-17.65
13.937,-25.98
13.953,-32.96
13.968,-37.56
13.984,-38.93
14.000,-36.69
14.015,-31.07
14.031,-22.82
14.046,-12.83
14.062,-1.83
14.078,9.77
14.093,21.76
14.109,33.91
14.125,45.71
14.140,56.32
14.156,64.84
14.171,70.66
14.187,73.71
14.203,74.52
14.218,73.93
14.234,72.79
14.250,71.7
14.265,70.84
14.281,70.03
14.296,69.0
14.312,67.5
14.328,65.56
14.343,63.38
14.359,61.26
14.375,59.39
14.390,57.65
14.406,55.68
14.421,53.01
14.437,49.27
14.453,44.38
14.468,38.49
14.484,31.88
14.500,24.81
14.515,17.47
14.531,10.05
14.546,2.76
14.562,-4.21
14.578,-10.82
14.593,-17.31
14.609,-24.11
14.625,-31.58
14.640,-39.64
14.656,-47.68
14.671,-54.71
14.687,-59.8
14.703,-62.51
14.718,-63.1
14.734,-62.46
14.750,-61.73
14.765,-61.88
14.781,-63.35
14.796,-65.89
14.812,-68.59
14.828,-70.14
14.843,-69.22
14.859,-64.85
14.875,-56.69
14.890,-45.13
14.906,-31.08
14.921,-15.7
14.937,-0.03
14.953,15.15
14.968,29.35
14.984,42.27
15.000,53.67
15.015,63.44
15.031,71.57
15.046,78.21
15.062,83.54
15.078,87.78
15.093,90.99
15.109,93.13
15.125,94.1
15.140,93.86
15.156,92.52
15.171,90.41
15.187,88.01
15.203,85.86
15.218,84.41
15.234,83.9
15.250,84.25
15.265,85.03
15.281,85.49
15.296,84.83
15.312,82.39
15.328,77.91
15.343,71.52
15.359,63.59
15.375,54.6
15.390,44.86
15.406,34.55
15.421,23.72
15.437,12.47
15.453,0.97
15.468,-10.45
15.484,-21.42
15.500,-31.59
15.515,-40.71
15.531,-48.64
15.546,-55.33
15.562,-60.88
15.578,-65.51
15.593,-69.65
15.609,-73.88
15.625,-78.68
15.640,-84.29
15.656,-90.39
15.671,-96.11
15.687,-100.1
15.703,-100.97
15.718,-97.75
15.734,-90.19
15.750,-78.9
15.765,-65.04
15.781,-49.98
15.796,-34.87
15.812,-20.51
15.828,-7.34
15.843,4.39
15.859,14.5
15.875,22.8
15.890,29.19
15.906,33.7
15.921,36.54
15.937,38.06
15.953,38.61
15.968,38.51
15.984,37.98
16.000,37.13
16.015,36.09
16.031,34.97
16.046,33.95
16.062,33.17
16.078,32.71
16.093,32.55
16.109,32.47
16.125,32.1
16.140,30.91
16.156,28.44
16.171,24.48
16.187,19.24
16.203,13.43
16.218,8.08
16.234,4.29
16.250,2.78
16.265,3.64
16.281,6.32
16.296,9.86
16.312,13.14
16.328,15.24
16.343,15.55
16.359,13.83
16.375,10.15
16.390,4.9
16.406,-1.19
16.421,-7.11
16.437,-11.69
16.453,-13.93
16.468,-13.21
16.484,-9.4
16.500,-2.74
16.515,6.37
16.531,17.67
16.546,30.98
16.562,46.07
16.578,62.49
16.593,79.43
16.609,95.87
16.625,110.81
16.640,123.5
16.656,133.54
16.671,140.73
16.687,144.93
16.703,145.92
16.718,143.41
16.734,137.29
16.750,127.74
16.765,115.41
16.781,101.25
16.796,86.33
16.812,71.59
16.828,57.58
16.843,44.54
16.859,32.48
16.875,21.38
16.890,11.36
16.906,2.6
16.921,-4.74
16.937,-10.66
16.953,-15.32
16.968,-19.01
16.984,-21.92
17.000,-24.1
17.015,-25.43
17.031,-25.73
17.046,-24.99
17.062,-23.44
17.078,-21.51
17.093,-19.66
17.109,-18.2
17.125,-17.22
17.140,-16.68
17.156,-16.62
17.171,-17.23
17.187,-18.8
17.203,-21.42
17.218,-24.77
17.234,-28.11
17.250,-30.55
17.265,-31.45
17.281,-30.75
17.296,-28.93
17.312,-26.67
17.328,-24.43
17.343,-22.17
17.359,-19.53
17.375,-16.17
17.390,-12.17
17.406,-8.03
17.421,-4.38
17.437,-1.63
17.453,0.44
17.468,2.54
17.484,5.64
17.500,10.44
17.515,17.14
17.531,25.35
17.546,34.27
17.562,43.07
17.578,51.2
17.593,58.48
17.609,65.06
17.625,71.26
17.640,77.31
17.656,83.27
17.671,88.91
17.687,93.9
17.703,98.02
17.718,101.24
17.734,103.89
17.750,106.5
17.765,109.71
17.781,114.02
17.796,119.7
17.812,126.71
17.828,134.68
17.843,142.78
17.859,149.83
17.875,154.36
17.890,154.94
17.906,150.59
17.921,141.05
17.937,127.03
17.953,109.97
17.968,91.56
17.984,73.04
18.000,54.66
18.015,35.6
18.031,14.38
18.046,-10.21
18.062,-38.28
18.078,-68.29
18.093,-97.25
18.109,-121.56
18.125,-138.21
18.140,-145.7
18.156,-144.32
18.171,-135.75
18.187,-122.22
18.203,-105.92
18.218,-88.72
18.234,-72.33
18.250,-58.44
18.265,-48.48
18.281,-43.11
18.296,-41.78
18.312,-42.57
18.328,-42.81
18.343,-39.99
18.359,-32.57
18.375,-20.37
18.390,-4.36
18.406,13.92
18.421,32.83
18.437,50.95
18.453,67.22
18.468,80.89
18.484,91.61
18.500,99.46
18.515,104.97
18.531,109.02
18.546,112.68
18.562,116.94
18.578,122.58
18.593,129.85
18.609,138.26
18.625,146.44
18.640,152.36
18.656,153.93
18.671,149.66
18.687,139.35
18.703,124.0
18.718,105.41
18.734,85.36
18.750,65.01
18.765,44.73
18.781,24.38
18.796,3.68
18.812,-17.37
18.828,-38.42
18.843,-58.98
18.859,-78.69
18.875,-97.46
18.890,-115.53
18.906,-133.28
18.921,-151.07
18.937,-168.94
18.953,-186.55
18.968,-203.2
18.984,-218.07
19.000,-230.55
19.015,-240.53
19.031,-248.52
19.046,-255.43
19.062,-262.32
19.078,-269.87
19.093,-278.18
19.109,-286.53
19.125,-293.59
19.140,-297.72
19.156,-297.4
19.171,-291.66
19.187,-280.18
19.203,-263.37
19.218,-242.17
19.234,-217.86
19.250,-191.84
19.265,-165.58
19.281,-140.55
19.296,-118.13
19.312,-99.4
19.328,-84.98
19.343,-74.82
19.359,-68.27
19.375,-64.21
19.390,-61.41
19.406,-58.88
19.421,-56.13
19.437,-53.26
19.453,-50.71
19.468,-49.03
19.484,-48.48
19.500,-48.8
19.515,-49.24
19.531,-48.66
19.546,-45.85
19.562,-39.84
19.578,-30.24
19.593,-17.37
19.609,-2.24
19.625,13.65
19.640,28.9
19.656,42.54
19.671,54.32
19.687,64.6
19.703,73.99
19.718,82.82
19.734,90.92
19.750,97.73
19.765,102.68
19.781,105.6
19.796,106.94
19.812,107.64
19.828,108.78
19.843,111.07
19.859,114.65
19.875,119.07
19.890,123.55
19.906,127.37
19.921,130.22
19.937,132.33
19.953,134.47
19.968,137.7
19.984,143.04
20.000,151.13
20.015,161.93
20.031,174.55
20.046,187.19
20.062,197.39
20.078,202.45
20.093,200.39
20.109,190.7
20.125,174.9
20.140,156.13
20.156,138.13
20.171,123.87
20.187,114.78
20.203,110.77
20.218,110.87
20.234,114.05
20.250,119.49
20.265,126.47
20.281,133.82
20.296,139.79
20.312,142.36
20.328,140.11
20.343,132.87
20.359,121.82
20.375,108.82
20.390,95.51
20.406,82.57
20.421,69.64
20.437,55.87
20.453,40.76
20.468,24.66
20.484,8.52
20.500,-6.86
20.515,-21.25
20.531,-35.21
20.546,-49.31
20.562,-63.43
20.578,-76.24
20.593,-85.63
20.609,-89.77
20.625,-88.25
20.640,-82.41
20.656,-74.81
20.671,-68.04
20.687,-63.82
20.703,-62.7
20.718,-64.44
20.734,-68.45
20.750,-74.18
20.765,-81.02
20.781,-88.21
20.796,-94.89
20.812,-100.45
20.828,-104.8
20.843,-108.39
20.859,-111.84
20.875,-115.48
20.890,-118.99
20.906,-121.47
20.921,-121.72
20.937,-118.86
20.953,-112.72
20.968,-103.97
20.984,-93.86
21.000,-83.79
21.015,-74.9
21.031,-67.87
21.046,-62.89
21.062,-59.81
21.078,-58.35
21.093,-58.22
21.109,-59.01
21.125,-60.23
21.140,-61.19
21.156,-61.3
21.171,-60.18
21.187,-57.9
21.203,-54.94
21.218,-52.09
21.234,-50.1
21.250,-49.36
21.265,-49.8
21.281,-50.86
21.296,-51.82
21.312,-52.14
21.328,-51.6
21.343,-50.47
21.359,-49.32
21.375,-48.74
21.390,-49.09
21.406,-50.33
21.421,-52.03
21.437,-53.64
21.453,-54.72
21.468,-55.07
21.484,-54.89
21.500,-54.59
21.515,-54.62
21.531,-55.31
21.546,-56.73
21.562,-58.68
21.578,-60.66
21.593,-61.95
21.609,-61.73
21.625,-59.31
21.640,-54.46
21.656,-47.48
21.671,-39.23
21.687,-30.65
21.703,-22.37
21.718,-14.4
21.734,-6.15
21.750,3.13
21.765,13.82
21.781,25.64
21.796,37.71
21.812,48.96
21.828,58.59
21.843,66.38
21.859,72.46
21.875,77.06
21.890,80.11
21.906,81.19
21.921,79.86
21.937,75.94
21.953,69.82
21.968,62.42
21.984,54.89
22.000,48.17
22.015,42.6
22.031,37.9
22.046,33.36
22.062,28.21
22.078,22.01
22.093,14.74
22.109,6.66
22.125,-1.9
22.140,-10.77
22.156,-19.94
22.171,-29.52
22.187,-39.48
22.203,-49.73
22.218,-60.08
22.234,-70.37
22.250,-80.45
22.265,-90.1
22.281,-98.78
22.296,-105.62
22.312,-109.48
22.328,-109.37
22.343,-104.76
22.359,-95.86
22.375,-83.58
22.390,-69.23
22.406,-54.14
22.421,-39.35
22.437,-25.5
22.453,-12.79
22.468,-1.22
22.484,9.37
22.500,19.13
22.515,28.15
22.531,36.37
22.546,43.6
22.562,49.53
22.578,53.87
22.593,56.55
22.609,57.81
22.625,58.16
22.640,58.17
22.656,58.25
22.671,58.47
22.687,58.64
22.703,58.48
22.718,57.85
22.734,56.79
22.750,55.44
22.765,53.92
22.781,52.15
22.796,49.88
22.812,46.76
22.828,42.59
22.843,37.34
22.859,31.2
22.875,24.5
22.890,17.6
22.906,10.82
22.921,4.42
22.937,-1.47
22.953,-6.92
22.968,-12.18
22.984,-17.76
23.000,-24.21
23.015,-31.96
23.031,-40.98
23.046,-50.69
23.062,-59.88
23.078,-66.99
23.093,-70.48
23.109,-69.25
23.125,-62.97
23.140,-52.09
23.156,-37.81
23.171,-21.79
23.187,-5.84
23.203,8.43
23.218,19.81
23.234,27.75
23.250,32.4
23.265,34.54
23.281,35.33
23.296,35.87
23.312,36.95
23.328,38.74
23.343,40.82
23.359,42.31
23.375,42.31
23.390,40.12
23.406,35.62
23.421,29.2
23.437,21.65
23.453,13.89
23.468,6.67
23.484,0.45
23.500,-4.7
23.515,-8.93
23.531,-12.56
23.546,-15.93
23.562,-19.33
23.578,-23.05
23.593,-27.33
23.609,-32.33
23.625,-38.09
23.640,-44.5
23.656,-51.24
23.671,-57.93
23.687,-64.16
23.703,-69.66
23.718,-74.41
23.734,-78.62
23.750,-82.71
23.765,-87.22
23.781,-92.6
23.796,-99.15
23.812,-106.85
23.828,-115.15
23.843,-123.0
23.859,-128.9
23.875,-131.23
23.890,-128.75
23.906,-120.95
23.921,-108.25
23.937,-91.85
23.953,-73.31
23.968,-54.11
23.984,-35.31
24.000,-17.55
24.015,-1.12
24.031,13.77
24.046,26.93
24.062,38.21
24.078,47.57
24.093,55.2
24.109,61.45
24.125,66.74
24.140,71.43
24.156,75.8
24.171,79.97
24.187,83.99
24.203,87.87
24.218,91.56
24.234,94.95
24.250,97.83
24.265,99.99
24.281,101.24
24.296,101.54
24.312,100.91
24.328,99.46
24.343,97.23
24.359,94.15
24.375,90.07
24.390,84.96
24.406,79.0
24.421,72.58
24.437,66.2
24.453,60.22
24.468,54.71
24.484,49.38
24.500,43.8
24.515,37.56
24.531,30.53
24.546,22.86
24.562,14.98
24.578,7.33
24.593,0.2
24.609,-6.38
24.625,-12.54
24.640,-18.61
24.656,-24.96
24.671,-32.0
24.687,-40.06
24.703,-49.27
24.718,-59.26
24.734,-69.13
24.750,-77.34
24.765,-82.08
24.781,-81.77
24.796,-75.55
24.812,-63.51
24.828,-46.7
24.843,-26.74
24.859,-5.35
24.875,15.9
24.890,35.78
24.906,53.38
24.921,67.91
24.937,78.77
24.953,85.59
24.968,88.35
24.984,87.57
25.000,84.25
25.015,79.68
25.031,75.17
25.046,71.7
25.062,69.67
25.078,68.94
25.093,68.91
25.109,68.89
25.125,68.36
25.140,67.09
25.156,65.16
25.171,62.73
25.187,59.94
25.203,56.73
25.218,52.92
25.234,48.23
25.250,42.38
25.265,35.15
25.281,26.56
25.296,16.73
25.312,5.98
25.328,-5.24
25.343,-16.43
25.359,-27.09
25.375,-36.8
25.390,-45.26
25.406,-52.32
25.421,-57.97
25.437,-62.41
25.453,-66.05
25.468,-69.44
25.484,-73.12
25.500,-77.5
25.515,-82.62
25.531,-88.27
25.546,-94.04
25.562,-99.63
25.578,-105.04
25.593,-110.65
25.609,-117.01
25.625,-124.5
25.640,-132.97
25.656,-141.48
25.671,-148.46
25.687,-152.08
25.703,-150.79
25.718,-143.8
25.734,-131.29
25.750,-114.34
25.765,-94.61
25.781,-73.86
25.796,-53.63
25.812,-34.99
25.828,-18.44
25.843,-4.08
25.859,8.3
25.875,18.97
25.890,28.04
25.906,35.5
25.921,41.17
25.937,44.89
25.953,46.71
25.968,46.91
25.984,46.02
26.000,44.59
26.015,43.08
26.031,41.74
26.046,40.68
26.062,39.97
26.078,39.69
26.093,39.91
26.109,40.57
26.125,41.39
26.140,41.83
26.156,41.26
26.171,39.19
26.187,35.46
26.203,30.26
26.218,24.07
26.234,17.39
26.250,10.62
26.265,3.92
26.281,-2.75
26.296,-9.52
26.312,-16.52
26.328,-23.78
26.343,-31.21
26.359,-38.64
26.375,-45.86
26.390,-52.77
26.406,-59.38
26.421,-65.77
26.437,-72.15
26.453,-78.75
26.468,-85.81
26.484,-93.54
26.500,-101.94
26.515,-110.69
26.531,-118.98
26.546,-125.51
26.562,-128.77
26.578,-127.46
26.593,-120.95
26.609,-109.46
26.625,-93.99
26.640,-76.01
26.656,-56.93
26.671,-37.89
26.687,-19.56
26.703,-2.32
26.718,13.61
26.734,28.08
26.750,41.01
26.765,52.37
26.781,62.2
26.796,70.55
26.812,77.49
26.828,83.03
26.843,87.25
26.859,90.2
26.875,92.06
26.890,93.01
26.906,93.28
26.921,93.06
26.937,92.48
26.953,91.63
26.968,90.53
26.984,89.12
27.000,87.3
27.015,85.0
27.031,82.13
27.046,78.69
27.062,74.64
27.078,69.98
27.093,64.65
27.109,58.65
27.125,52.09
27.140,45.15
27.156,38.13
27.171,31.24
27.187,24.57
27.203,18.02
27.218,11.39
27.234,4.51
27.250,-2.62
27.265,-9.86
27.281,-16.94
27.296,-23.68
27.312,-30.1
27.328,-36.42
27.343,-43.02
27.359,-50.29
27.375,-58.56
27.390,-68.0
27.406,-78.59
27.421,-89.96
27.437,-101.21
27.453,-110.93
27.468,-117.34
27.484,-118.74
27.500,-114.02
27.515,-103.07
27.531,-86.82
27.546,-66.95
27.562,-45.45
27.578,-24.09
27.593,-4.15
27.609,13.67
27.625,29.16
27.640,42.53
27.656,54.11
27.671,64.24
27.687,73.16
27.703,80.89
27.718,87.31
27.734,92.3
27.750,95.86
27.765,98.1
27.781,99.26
27.796,99.58
27.812,99.23
27.828,98.41
27.843,97.35
27.859,96.29
27.875,95.47
27.890,94.93
27.906,94.45
27.921,93.65
27.937,92.12
27.953,89.57
27.968,85.96
27.984,81.49
28.000,76.47
28.015,71.2
28.031,65.87
28.046,60.51
28.062,55.09
28.078,49.47
28.093,43.63
28.109,37.62
28.125,31.6
28.140,25.74
28.156,20.09
28.171,14.56
28.187,8.91
28.203,2.86
28.218,-3.81
28.234,-11.04
28.250,-18.58
28.265,-26.05
28.281,-33.12
28.296,-39.7
28.312,-46.02
28.328,-52.5
28.343,-59.71
28.359,-68.08
28.375,-77.58
28.390,-87.6
28.406,-96.93
28.421,-103.94
28.437,-107.02
28.453,-104.96
28.468,-97.38
28.484,-84.74
28.500,-68.19
28.515,-49.26
28.531,-29.45
28.546,-10.02
28.562,8.13
28.578,24.47
28.593,38.8
28.609,51.22
28.625,61.99
28.640,71.46
28.656,79.82
28.671,87.03
28.687,92.8
28.703,96.8
28.718,98.8
28.734,98.89
28.750,97.44
28.765,94.99
28.781,92.02
28.796,88.83
28.812,85.53
28.828,82.11
28.843,78.54
28.859,74.81
28.875,70.9
28.890,66.79
28.906,62.42
28.921,57.77
28.937,52.86
28.953,47.79
28.968,42.65
28.984,37.46
29.000,32.12
29.015,26.43
29.031,20.22
29.046,13.49
29.062,6.41
29.078,-0.73
29.093,-7.69
29.109,-14.32
29.125,-20.69
29.140,-26.97
29.156,-33.3
29.171,-39.7
29.187,-46.08
29.203,-52.22
29.218,-57.97
29.234,-63.36
29.250,-68.56
29.265,-73.98
29.281,-80.09
29.296,-87.33
29.312,-95.83
29.328,-105.27
29.343,-114.7
29.359,-122.63
29.375,-127.31
29.390,-127.2
29.406,-121.46
29.421,-110.19
29.437,-94.41
29.453,-75.71
29.468,-55.75
29.484,-35.9
29.500,-17.08
29.515,0.16
29.531,15.55
29.546,28.92
29.562,40.2
29.578,49.48
29.593,56.94
29.609,62.9
29.625,67.59
29.640,71.23
29.656,73.95
29.671,75.87
29.687,77.1
29.703,77.8
29.718,78.14
29.734,78.23
29.750,78.23
29.765,78.21
29.781,78.24
29.796,78.26
29.812,78.16
29.828,77.64
29.843,76.45
29.859,74.32
29.875,71.15
29.890,67.1
29.906,62.44
29.921,57.55
29.937,52.78
29.953,48.35
29.968,44.27
29.984,40.41
30.000,36.53
30.015,32.37
30.031,27.76
30.046,22.59
30.062,16.88
30.078,10.69
30.093,4.19
30.109,-2.37
30.125,-8.62
30.140,-14.27
30.156,-19.32
30.171,-24.24
30.187,-30.11
30.203,-38.33
30.218,-50.11
30.234,-66.0
30.250,-85.48
30.265,-107.01
30.281,-128.47
30.296,-147.71
30.312,-162.99
30.328,-173.28
30.343,-178.21
30.359,-177.99
30.375,-173.29
30.390,-165.19
30.406,-154.93
30.421,-143.71
30.437,-132.34
30.453,-120.96
30.468,-109.06
30.484,-95.65
30.500,-79.82
30.515,-61.2
30.531,-40.19
30.546,-17.81
30.562,4.58
30.578,25.72
30.593,44.71
30.609,61.15
30.625,75.06
30.640,86.66
30.656,96.15
30.671,103.61
30.687,108.97
30.703,112.07
30.718,112.8
30.734,111.12
30.750,107.13
30.765,100.98
30.781,92.92
30.796,83.34
30.812,72.81
30.828,62.05
30.843,51.72
30.859,42.34
30.875,34.11
30.890,26.91
30.906,20.41
30.921,14.27
30.937,8.25
30.953,2.26
30.968,-3.67
30.984,-9.44
31.000,-14.96
31.015,-20.09
31.031,-24.71
31.046,-28.62
31.062,-31.43
31.078,-32.53
31.093,-31.13
31.109,-26.39
31.125,-17.83
31.140,-5.53
31.156,9.67
31.171,26.38
31.187,43.14
31.203,58.77
31.218,72.65
31.234,84.65
31.250,94.88
31.265,103.48
31.281,110.42
31.296,115.55
31.312,118.72
31.328,119.88
31.343,119.08
31.359,116.54
31.375,112.56
31.390,107.53
31.406,101.84
31.421,95.89
31.437,90.01
31.453,84.41
31.468,79.2
31.484,74.34
31.500,69.79
31.515,65.38
31.531,60.97
31.546,56.32
31.562,51.22
31.578,45.53
31.593,39.28
31.609,32.73
31.625,26.28
31.640,20.29
31.656,14.88
31.671,9.91
31.687,4.94
31.703,-0.4
31.718,-6.33
31.734,-12.7
31.750,-19.11
31.765,-25.13
31.781,-30.55
31.796,-35.55
31.812,-40.65
31.828,-46.42
31.843,-53.26
31.859,-61.12
31.875,-69.48
31.890,-77.36
31.906,-83.63
31.921,-87.29
31.937,-87.76
31.953,-84.96
31.968,-79.3
31.984,-71.51
32.000,-62.39
32.015,-52.67
32.031,-42.88
32.046,-33.34
32.062,-24.31
32.078,-16.0
32.093,-8.66
32.109,-2.55
32.125,2.13
32.140,5.3
32.156,7.09
32.171,7.79
32.187,7.85
32.203,7.68
32.218,7.64
32.234,7.87
32.250,8.32
32.265,8.81
32.281,9.2
32.296,9.39
32.312,9.43
32.328,9.44
32.343,9.48
32.359,9.52
32.375,9.43
32.390,8.98
32.406,7.93
32.421,6.22
32.437,3.87
32.453,1.13
32.468,-1.72
32.484,-4.44
32.500,-6.9
32.515,-9.14
32.531,-11.27
32.546,-13.51
32.562,-15.96
32.578,-18.72
32.593,-21.8
32.609,-25.21
32.625,-29.02
32.640,-33.23
32.656,-37.73
32.671,-42.11
32.687,-45.58
32.703,-47.05
32.718,-45.43
32.734,-39.95
32.750,-30.42
32.765,-17.36
32.781,-1.81
32.796,14.9
32.812,31.54
32.828,47.12
32.843,61.07
32.859,73.18
32.875,83.62
32.890,92.79
32.906,101.15
32.921,109.15
32.937,116.97
32.953,124.67
32.968,131.98
32.984,138.49
33.000,143.74
33.015,147.38
33.031,149.44
33.046,150.33
33.062,150.88
33.078,151.83
33.093,153.64
33.109,156.19
33.125,158.85
33.140,160.83
33.156,161.57
33.171,160.9
33.187,159.04
33.203,156.38
33.218,153.26
33.234,149.74
33.250,145.55
33.265,140.11
33.281,132.56
33.296,121.97
33.312,107.68
33.328,89.56
33.343,68.28
33.359,45.09
33.375,21.36
33.390,-1.98
33.406,-24.79
33.421,-47.86
33.437,-72.63
33.453,-100.38
33.468,-131.4
33.484,-164.15
33.500,-195.23
33.515,-220.23
33.531,-235.22
33.546,-238.33
33.562,-230.49
33.578,-215.07
33.593,-196.42
33.609,-178.28
33.625,-162.91
33.640,-151.3
33.656,-143.91
33.671,-141.26
33.687,-143.81
33.703,-150.99
33.718,-160.58
33.734,-168.73
33.750,-171.24
33.765,-165.22
33.781,-150.41
33.796,-129.23
33.812,-105.75
33.828,-84.06
33.843,-66.87
33.859,-55.02
33.875,-47.91
33.890,-44.32
33.906,-43.21
33.921,-43.91
33.937,-46.04
33.953,-49.07
33.968,-52.37
33.984,-55.23
34.000,-57.22
34.015,-58.35
34.031,-58.98
34.046,-59.65
34.062,-60.8
34.078,-62.7
34.093,-65.56
34.109,-69.57
34.125,-74.73
34.140,-80.66
34.156,-86.39
34.171,-90.51
34.187,-91.54
34.203,-88.45
34.218,-81.13
34.234,-70.34
34.250,-57.45
34.265,-43.87
34.281,-30.59
34.296,-18.15
34.312,-6.66
34.328,3.89
34.343,13.59
34.359,22.52
34.375,30.88
34.390,38.92
34.406,46.78
34.421,54.36
34.437,61.14
34.453,66.43
34.468,69.52
34.484,70.05
34.500,68.08
34.515,64.1
34.531,58.86
34.546,53.1
34.562,47.41
34.578,42.13
34.593,37.31
34.609,32.76
34.625,28.23
34.640,23.52
34.656,18.74
34.671,14.43
34.687,11.35
34.703,10.29
34.718,11.69
34.734,15.35
34.750,20.33
34.765,25.2
34.781,28.28
34.796,28.1
34.812,23.67
34.828,14.66
34.843,1.52
34.859,-14.62
34.875,-32.01
34.890,-48.53
34.906,-62.01
34.921,-70.6
34.937,-73.2
34.953,-69.71
34.968,-61.07
34.984,-49.1
35.000,-36.0
35.015,-23.87
35.031,-14.18
35.046,-7.49
35.062,-3.51
35.078,-1.41
35.093,-0.18
35.109,0.93
35.125,2.28
35.140,3.84
35.156,5.38
35.171,6.58
35.187,7.16
35.203,6.88
35.218,5.56
35.234,3.13
35.250,-0.24
35.265,-4.06
35.281,-7.65
35.296,-10.19
35.312,-11.09
35.328,-10.1
35.343,-7.51
35.359,-3.97
35.375,-0.44
35.390,2.2
35.406,3.35
35.421,2.93
35.437,1.38
35.453,-0.55
35.468,-2.12
35.484,-2.91
35.500,-2.94
35.515,-2.53
35.531,-2.0
35.546,-1.49
35.562,-0.92
35.578,-0.28
35.593,0.07
35.609,-0.71
35.625,-3.75
35.640,-9.94
35.656,-19.46
35.671,-31.42
35.687,-44.01
35.703,-54.83
35.718,-61.61
35.734,-62.76
35.750,-57.66
35.765,-46.86
35.781,-31.71
35.796,-14.02
35.812,4.51
35.828,22.57
35.843,39.41
35.859,54.77
35.875,68.51
35.890,80.45
35.906,90.08
35.921,96.63
35.937,99.28
35.953,97.38
35.968,90.74
35.984,79.78
36.000,65.55
36.015,49.56
36.031,33.57
36.046,19.36
36.062,8.43
36.078,1.72
36.093,-0.62
36.109,0.66
36.125,4.11
36.140,7.9
36.156,10.42
36.171,10.66
36.187,8.43
36.203,4.23
36.218,-1.08
36.234,-6.7
36.250,-12.02
36.265,-16.76
36.281,-20.84
36.296,-24.3
36.312,-27.31
36.328,-30.19
36.343,-33.32
36.359,-37.07
36.375,-41.71
36.390,-47.27
36.406,-53.69
36.421,-60.86
36.437,-68.71
36.453,-77.12
36.468,-85.74
36.484,-93.77
36.500,-99.95
36.515,-102.8
36.531,-101.01
36.546,-93.93
36.562,-81.8
36.578,-65.64
36.593,-47.0
36.609,-27.54
36.625,-8.7
36.640,8.53
36.656,23.52
36.671,35.97
36.687,45.7
36.703,52.65
36.718,56.87
36.734,58.58
36.750,58.23
36.765,56.45
36.781,53.9
36.796,51.18
36.812,48.64
36.828,46.34
36.843,44.13
36.859,41.82
36.875,39.26
36.890,36.43
36.906,33.35
36.921,30.05
36.937,26.49
36.953,22.49
36.968,17.88
36.984,12.55
37.000,6.56
37.015,0.06
37.031,-6.74
37.046,-13.65
37.062,-20.55
37.078,-27.4
37.093,-34.19
37.109,-40.91
37.125,-47.57
37.140,-54.27
37.156,-61.21
37.171,-68.7
37.187,-77.0
37.203,-86.17
37.218,-95.86
37.234,-105.25
37.250,-113.1
37.265,-118.02
37.281,-118.8
37.296,-114.65
37.312,-105.42
37.328,-91.65
37.343,-74.35
37.359,-54.84
37.375,-34.51
37.390,-14.56
37.406,4.01
37.421,20.55
37.437,34.68
37.453,46.24
37.468,55.24
37.484,61.85
37.500,66.31
37.515,68.98
37.531,70.38
37.546,71.06
37.562,71.63
37.578,72.49
37.593,73.79
37.609,75.36
37.625,76.77
37.640,77.48
37.656,77.01
37.671,75.01
37.687,71.34
37.703,65.98
37.718,59.07
37.734,50.84
37.750,41.65
37.765,31.94
37.781,22.2
37.796,12.84
37.812,4.15
37.828,-3.87
37.843,-11.35
37.859,-18.54
37.875,-25.63
37.890,-32.78
37.906,-40.08
37.921,-47.7
37.937,-55.96
37.953,-65.24
37.968,-75.72
37.984,-87.08
38.000,-98.29
38.015,-107.71
38.031,-113.52
38.046,-114.28
38.062,-109.46
38.078,-99.5
38.093,-85.56
38.109,-69.08
38.125,-51.39
38.140,-33.5
38.156,-16.12
38.171,0.16
38.187,14.82
38.203,27.49
38.218,38.01
38.234,46.48
38.250,53.26
38.265,58.8
38.281,63.45
38.296,67.4
38.312,70.66
38.328,73.11
38.343,74.69
38.359,75.42
38.375,75.53
38.390,75.41
38.406,75.55
38.421,76.32
38.437,77.89
38.453,80.22
38.468,83.09
38.484,86.28
38.500,89.64
38.515,93.07
38.531,96.4
38.546,99.34
38.562,101.34
38.578,101.72
38.593,99.77
38.609,94.83
38.625,86.36
38.640,73.97
38.656,57.47
38.671,36.95
38.687,12.93
38.703,-13.48
38.718,-40.65
38.734,-66.74
38.750,-90.05
38.765,-109.42
38.781,-124.25
38.796,-134.42
38.812,-139.91
38.828,-140.55
38.843,-136.11
38.859,-126.49
38.875,-112.16
38.890,-94.29
38.906,-74.62
38.921,-55.03
38.937,-37.1
38.953,-21.65
38.968,-8.81
38.984,1.79
39.000,10.63
39.015,18.03
39.031,24.07
39.046,28.68
39.062,31.81
39.078,33.52
39.093,34.14
39.109,34.09
39.125,33.82
39.140,33.69
39.156,33.9
39.171,34.53
39.187,35.5
39.203,36.69
39.218,37.89
39.234,38.88
39.250,39.47
39.265,39.49
39.281,38.89
39.296,37.7
39.312,35.95
39.328,33.74
39.343,31.06
39.359,27.82
39.375,23.9
39.390,19.19
39.406,13.68
39.421,7.58
39.437,1.28
39.453,-4.79
39.468,-10.23
39.484,-14.92
39.500,-19.06
39.515,-23.18
39.531,-27.97
39.546,-33.96
39.562,-41.2
39.578,-48.95
39.593,-55.69
39.609,-59.41
39.625,-58.15
39.640,-50.64
39.656,-36.79
39.671,-17.64
39.687,4.96
39.703,29.01
39.718,53.0
39.734,76.22
39.750,98.73
39.765,120.91
39.781,142.9
39.796,164.06
39.812,182.73
39.828,196.41
39.843,202.42
39.859,198.91
39.875,185.65
39.890,164.37
39.906,138.32
39.921,111.22
39.937,86.15
39.953,64.87
39.968,47.91
39.984,35.24
40.000,26.99
40.015,23.73
40.031,26.16
40.046,34.43
40.062,47.83
40.078,64.86
40.093,83.87
40.109,103.61
40.125,123.34
40.140,142.36
40.156,159.28
40.171,171.67
40.187,176.37
40.203,170.43
40.218,152.16
40.234,121.81
40.250,81.44
40.265,34.36
40.281,-15.68
40.296,-64.95
40.312,-110.1
40.328,-148.52
40.343,-178.74
40.359,-201.0
40.375,-217.46
40.390,-231.7
40.406,-247.59
40.421,-267.64
40.437,-291.75
40.453,-316.83
40.468,-337.71
40.484,-349.05
40.500,-347.36
40.515,-332.25
40.531,-306.29
40.546,-273.75
40.562,-238.62
40.578,-203.21
40.593,-167.72
40.609,-130.9
40.625,-91.46
40.640,-49.21
40.656,-5.61
40.671,36.43
40.687,73.47
40.703,102.58
40.718,122.15
40.734,132.18
40.750,134.24
40.765,130.98
40.781,125.53
40.796,120.91
40.812,119.68
40.828,123.8
40.843,134.64
40.859,152.67
40.875,176.82
40.890,203.91
40.906,228.77
40.921,245.11
40.937,247.25
40.953,231.95
40.968,199.69
40.984,154.73
41.000,104.01
41.015,55.32
41.031,15.16
41.046,-12.88
41.062,-28.95
41.078,-36.39
41.093,-40.5
41.109,-46.48
41.125,-57.96
41.140,-75.97
41.156,-99.22
41.171,-125.06
41.187,-150.78
41.203,-174.56
41.218,-195.7
41.234,-214.33
41.250,-230.69
41.265,-244.48
41.281,-254.41
41.296,-258.23
41.312,-253.27
41.328,-237.37
41.343,-210.04
41.359,-173.06
41.375,-130.38
41.390,-87.07
41.406,-48.07
41.421,-16.81
41.437,5.34
41.453,18.95
41.468,26.03
41.484,29.31
41.500,31.51
41.515,34.9
41.531,40.68
41.546,48.69
41.562,57.32
41.578,64.02
41.593,66.02
41.609,61.33
41.625,49.35
41.640,31.03
41.656,8.57
41.671,-15.28
41.687,-37.82
41.703,-56.88
41.718,-71.06
41.734,-79.81
41.750,-83.22
41.765,-81.94
41.781,-76.99
41.796,-69.58
41.812,-60.95
41.828,-52.23
41.843,-44.28
41.859,-37.57
41.875,-32.28
41.890,-28.31
41.906,-25.52
41.921,-23.93
41.937,-23.66
41.953,-24.95
41.968,-27.9
41.984,-32.42
42.000,-38.2
42.015,-44.9
42.031,-52.36
42.046,-60.53
42.062,-69.37
42.078,-78.4
42.093,-86.51
42.109,-91.96
42.125,-92.89
42.140,-87.88
42.156,-76.56
42.171,-59.71
42.187,-39.04
42.203,-16.72
42.218,5.22
42.234,25.2
42.250,42.33
42.265,56.31
42.281,67.28
42.296,75.6
42.312,81.68
42.328,85.85
42.343,88.29
42.359,89.08
42.375,88.36
42.390,86.44
42.406,83.83
42.421,81.12
42.437,78.85
42.453,77.3
42.468,76.56
42.484,76.51
42.500,76.96
42.515,77.68
42.531,78.47
42.546,79.1
42.562,79.28
42.578,78.79
42.593,77.47
42.609,75.4
42.625,72.81
42.640,70.09
42.656,67.61
42.671,65.69
42.687,64.42
42.703,63.74
42.718,63.52
42.734,63.61
42.750,64.04
42.765,64.93
42.781,66.43
42.796,68.54
42.812,70.97
42.828,73.15
42.843,74.47
42.859,74.55
42.875,73.42
42.890,71.52
42.906,69.46
42.921,67.73
42.937,66.42
42.953,65.21
42.968,63.52
42.984,60.81
43.000,56.84
43.015,51.73
43.031,46.02
43.046,40.46
43.062,35.86
43.078,32.88
43.093,31.83
43.109,32.61
43.125,34.79
43.140,37.77
43.156,40.94
43.171,43.91
43.187,46.42
43.203,48.2
43.218,48.71
43.234,47.1
43.250,42.31
43.265,33.37
43.281,19.81
43.296,1.87
43.312,-19.51
43.328,-42.96
43.343,-67.1
43.359,-90.8
43.375,-113.39
43.390,-134.46
43.406,-153.72
43.421,-170.75
43.437,-184.99
43.453,-195.9
43.468,-203.21
43.484,-207.16
43.500,-208.55
43.515,-208.65
43.531,-208.96
43.546,-210.97
43.562,-215.96
43.578,-224.53
43.593,-236.18
43.609,-248.94
43.625,-259.4
43.640,-263.47
43.656,-257.68
43.671,-240.45
43.687,-212.79
43.703,-178.05
43.718,-140.65
43.734,-104.59
43.750,-72.41
43.765,-44.93
43.781,-21.85
43.796,-2.5
43.812,13.53
43.828,26.37
43.843,36.09
43.859,43.06
43.875,48.02
43.890,51.88
43.906,55.42
43.921,59.05
43.937,62.73
43.953,66.16
43.968,68.96
43.984,70.97
44.000,72.28
44.015,73.21
44.031,74.08
44.046,75.08
44.062,76.09
44.078,76.67
44.093,76.22
44.109,74.17
44.125,70.13
44.140,64.03
44.156,56.13
44.171,46.97
44.187,37.23
44.203,27.52
44.218,18.23
44.234,9.45
44.250,0.96
44.265,-7.67
44.281,-16.89
44.296,-27.17
44.312,-38.91
44.328,-52.22
44.343,-66.77
44.359,-81.47
44.375,-94.45
44.390,-103.26
44.406,-105.62
44.421,-100.09
44.437,-86.65
44.453,-66.78
44.468,-42.96
44.484,-17.97
44.500,5.88
44.515,27.12
44.531,45.17
44.546,59.97
44.562,71.74
44.578,80.67
44.593,86.91
44.609,90.67
44.625,92.26
44.640,92.15
44.656,90.9
44.671,89.1
44.687,87.21
44.703,85.45
44.718,83.75
44.734,81.91
44.750,79.66
44.765,76.87
44.781,73.64
44.796,70.17
44.812,66.6
44.828,62.84
44.843,58.47
44.859,52.94
44.875,45.79
44.890,36.89
44.906,26.56
44.921,15.46
44.937,4.38
44.953,-6.05
44.968,-15.53
44.984,-24.17
45.000,-32.39
45.015,-40.87
45.031,-50.37
45.046,-61.54
45.062,-74.65
45.078,-89.24
45.093,-103.96
45.109,-116.68
45.125,-124.84
45.140,-126.21
45.156,-119.56
45.171,-105.1
45.187,-84.4
45.203,-59.93
45.218,-34.26
45.234,-9.49
45.250,13.08
45.265,32.95
45.281,50.11
45.296,64.71
45.312,76.95
45.328,86.91
45.343,94.58
45.359,99.94
45.375,102.96
45.390,103.73
45.406,102.52
45.421,99.8
45.437,96.18
45.453,92.25
45.468,88.44
45.484,84.91
45.500,81.62
45.515,78.42
45.531,75.16
45.546,71.73
45.562,67.98
45.578,63.69
45.593,58.55
45.609,52.2
45.625,44.43
45.640,35.26
45.656,25.08
45.671,14.45
45.687,4.0
45.703,-5.81
45.718,-14.88
45.734,-23.4
45.750,-31.8
45.765,-40.55
45.781,-50.04
45.796,-60.55
45.812,-72.12
45.828,-84.49
45.843,-96.88
45.859,-107.86
45.875,-115.51
45.890,-117.82
45.906,-113.32
45.921,-101.66
45.937,-83.79
45.953,-61.67
45.968,-37.69
45.984,-13.99
46.000,7.93
46.015,27.35
46.031,44.03
46.046,58.12
46.062,69.78
46.078,79.27
46.093,86.77
46.109,92.41
46.125,96.29
46.140,98.48
46.156,99.16
46.171,98.61
46.187,97.22
46.203,95.33
46.218,93.14
46.234,90.68
46.250,87.86
46.265,84.66
46.281,81.17
46.296,77.55
46.312,73.92
46.328,70.26
46.343,66.31
46.359,61.63
46.375,55.84
46.390,48.71
46.406,40.33
46.421,31.04
46.437,21.38
46.453,11.85
46.468,2.82
46.484,-5.57
46.500,-13.52
46.515,-21.4
46.531,-29.81
46.546,-39.3
46.562,-50.32
46.578,-62.91
46.593,-76.53
46.609,-89.96
46.625,-101.39
46.640,-108.79
46.656,-110.43
46.671,-105.4
46.687,-93.86
46.703,-77.09
46.718,-57.02
46.734,-35.8
46.750,-15.21
46.765,3.6
46.781,20.19
46.796,34.64
46.812,47.25
46.828,58.32
46.843,67.92
46.859,75.9
46.875,82.02
46.890,86.14
46.906,88.42
46.921,89.3
46.937,89.43
46.953,89.41
46.968,89.62
46.984,90.13
47.000,90.74
47.015,91.12
47.031,90.96
47.046,90.09
47.062,88.45
47.078,86.13
47.093,83.27
47.109,80.0
47.125,76.44
47.140,72.62
47.156,68.54
47.171,64.16
47.187,59.47
47.203,54.56
47.218,49.54
47.234,44.53
47.250,39.65
47.265,34.87
47.281,30.12
47.296,25.24
47.312,20.04
47.328,14.23
47.343,7.56
47.359,-0.09
47.375,-8.48
47.390,-16.85
47.406,-23.84
47.421,-27.76
47.437,-27.0
47.453,-20.52
47.468,-8.31
47.484,8.68
47.500,28.67
47.515,49.64
47.531,69.73
47.546,87.65
47.562,102.76
47.578,114.99
47.593,124.53
47.609,131.61
47.625,136.39
47.640,138.9
47.656,139.14
47.671,137.14
47.687,133.08
47.703,127.36
47.718,120.64
47.734,113.9
47.750,108.48
47.765,105.97
47.781,107.81
47.796,114.81
47.812,126.65
47.828,141.61
47.843,156.9
47.859,169.39
47.875,176.62
47.890,177.53
47.906,172.68
47.921,163.83
47.937,153.03
47.953,141.66
47.968,129.81
47.984,116.3
48.000,99.25
48.015,76.91
48.031,48.51
48.046,14.68
48.062,-22.47
48.078,-59.89
48.093,-94.34
48.109,-123.44
48.125,-146.45
48.140,-164.46
48.156,-179.89
48.171,-195.32
48.187,-212.24
48.203,-230.17
48.218,-246.66
48.234,-258.12
48.250,-261.14
48.265,-253.85
48.281,-236.65
48.296,-212.15
48.312,-184.52
48.328,-158.37
48.343,-137.62
48.359,-124.74
48.375,-120.27
48.390,-122.88
48.406,-129.9
48.421,-137.96
48.437,-143.77
48.453,-144.72
48.468,-139.19
48.484,-126.6
48.500,-107.41
48.515,-82.87
48.531,-54.87
48.546,-25.64
48.562,2.56
48.578,27.78
48.593,48.69
48.609,64.94
48.625,77.43
48.640,88.28
48.656,100.23
48.671,115.57
48.687,135.19
48.703,158.19
48.718,182.34
48.734,205.15
48.750,224.87
48.765,240.74
48.781,252.44
48.796,259.05
48.812,258.69
48.828,248.85
48.843,227.82
48.859,195.83
48.875,155.48
48.890,110.86
48.906,65.99
48.921,23.35
48.937,-16.7
48.953,-55.47
48.968,-94.89
48.984,-136.39
49.000,-180.1
49.015,-224.42
49.031,-266.07
49.046,-300.66
49.062,-323.77
49.078,-332.28
49.093,-325.48
49.109,-305.43
49.125,-276.14
49.140,-241.97
49.156,-206.12
49.171,-170.02
49.187,-133.95
49.203,-98.59
49.218,-66.16
49.234,-40.51
49.250,-25.86
49.265,-24.78
49.281,-36.83
49.296,-58.44
49.312,-84.29
49.328,-109.19
49.343,-129.63
49.359,-144.22
49.375,-153.03
49.390,-156.61
49.406,-155.19
49.421,-148.62
49.437,-136.92
49.453,-120.87
49.468,-102.27
49.484,-83.64
49.500,-67.44
49.515,-55.34
49.531,-47.73
49.546,-43.81
49.562,-42.05
49.578,-40.9
49.593,-39.28
49.609,-36.93
49.625,-34.25
49.640,-31.91
49.656,-30.4
49.671,-29.74
49.687,-29.51
49.703,-29.06
49.718,-27.93
49.734,-26.03
49.750,-23.71
49.765,-21.52
49.781,-19.91
49.796,-18.99
49.812,-18.59
49.828,-18.3
49.843,-17.85
49.859,-17.27
49.875,-16.99
49.890,-17.6
49.906,-19.64
49.921,-23.21
49.937,-27.79
49.953,-32.26
49.968,-35.07
49.984,-34.75
50.000,-30.25
50.015,-21.31
50.031,-8.45
50.046,7.29
50.062,24.7
50.078,42.68
50.093,60.46
50.109,77.45
50.125,93.16
50.140,107.1
50.156,118.81
50.171,127.95
50.187,134.41
50.203,138.38
50.218,140.21
50.234,140.37
50.250,139.29
50.265,137.37
50.281,134.89
50.296,132.08
50.312,129.05
50.328,125.88
50.343,122.64
50.359,119.39
50.375,116.22
50.390,113.19
50.406,110.33
50.421,107.59
50.437,104.83
50.453,101.87
50.468,98.58
50.484,94.92
50.500,91.03
50.515,87.16
50.531,83.59
50.546,80.49
50.562,77.83
50.578,75.37
50.593,72.71
50.609,69.43
50.625,65.18
50.640,59.83
50.656,53.61
50.671,47.31
50.687,42.22
50.703,39.82
50.718,41.06
50.734,45.67
50.750,51.76
50.765,56.16
50.781,55.46
50.796,47.43
50.812,32.06
50.828,11.84
50.843,-8.87
50.859,-25.0
50.875,-31.99
50.890,-26.78
50.906,-8.34
50.921,22.02
50.937,60.57
50.953,101.66
50.968,138.67
50.984,165.49
51.000,178.07
51.015,175.27
51.031,158.86
51.046,132.43
51.062,99.94
51.078,64.42
51.093,27.42
51.109,-10.59
51.125,-49.34
51.140,-87.94
51.156,-124.5
51.171,-156.54
51.187,-181.73
51.203,-198.78
51.218,-207.79
51.234,-210.15
51.250,-207.88
51.265,-202.9
51.281,-196.52
51.296,-189.31
51.312,-181.41
51.328,-172.89
51.343,-163.97
51.359,-154.98
51.375,-146.2
51.390,-137.73
51.406,-129.42
51.421,-121.07
51.437,-112.6
51.453,-104.1
51.468,-95.91
51.484,-88.48
51.500,-82.27
51.515,-77.56
51.531,-74.39
51.546,-72.57
51.562,-71.69
51.578,-71.36
51.593,-71.27
51.609,-71.44
51.625,-72.09
51.640,-73.67
51.656,-76.5
51.671,-80.81
51.687,-86.57
51.703,-93.56
51.718,-101.53
51.734,-110.1
51.750,-118.68
51.765,-126.27
51.781,-131.59
51.796,-133.23
51.812,-130.07
51.828,-121.71
51.843,-108.65
51.859,-92.2
51.875,-74.01
51.890,-55.64
51.906,-38.2
51.921,-22.32
51.937,-8.18
51.953,4.23
51.968,14.9
51.984,23.75
52.000,30.55
52.015,35.16
52.031,37.52
52.046,37.84
52.062,36.51
52.078,34.11
52.093,31.2
52.109,28.28
52.125,25.76
52.140,23.98
52.156,23.33
52.171,24.22
52.187,26.97
52.203,31.73
52.218,38.3
52.234,46.13
52.250,54.45
52.265,62.44
52.281,69.43
52.296,75.07
52.312,79.36
52.328,82.65
52.343,85.52
52.359,88.55
52.375,92.18
52.390,96.47
52.406,101.18
52.421,105.87
52.437,110.14
52.453,113.81
52.468,117.01
52.484,120.11
52.500,123.46
52.515,127.26
52.531,131.38
52.546,135.39
52.562,138.67
52.578,140.64
52.593,140.83
52.609,138.97
52.625,135.07
52.640,129.43
52.656,122.84
52.671,116.45
52.687,111.48
52.703,108.56
52.718,107.12
52.734,105.11
52.750,99.48
52.765,87.16
52.781,66.34
52.796,37.37
52.812,2.89
52.828,-32.94
52.843,-65.68
52.859,-91.76
52.875,-109.12
52.890,-117.22
52.906,-116.62
52.921,-108.62
52.937,-95.03
52.953,-78.08
52.968,-60.26
52.984,-44.02
53.000,-31.13
53.015,-22.2
53.031,-16.35
53.046,-11.51
53.062,-5.07
53.078,5.07
53.093,19.87
53.109,38.86
53.125,60.57
53.140,83.16
53.156,105.11
53.171,125.65
53.187,144.77
53.203,162.98
53.218,180.99
53.234,199.68
53.250,219.97
53.265,242.56
53.281,267.41
53.296,292.98
53.312,315.99
53.328,331.9
53.343,336.34
53.359,326.73
53.375,303.38
53.390,269.48
53.406,229.81
53.421,189.08
53.437,150.42
53.453,114.91
53.468,82.08
53.484,50.89
53.500,20.6
53.515,-8.98
53.531,-37.83
53.546,-66.19
53.562,-94.84
53.578,-124.81
53.593,-156.71
53.609,-190.16
53.625,-223.47
53.640,-253.92
53.656,-278.46
53.671,-294.45
53.687,-300.15
53.703,-294.87
53.718,-278.87
53.734,-253.4
53.750,-220.87
53.765,-185.08
53.781,-150.91
53.796,-123.49
53.812,-106.76
53.828,-102.32
53.843,-108.84
53.859,-122.6
53.875,-138.7
53.890,-152.69
53.906,-161.6
53.921,-164.41
53.937,-161.97
53.953,-156.17
53.968,-149.22
53.984,-142.9
54.000,-138.09
54.015,-134.8
54.031,-132.64
54.046,-131.3
54.062,-130.95
54.078,-132.15
54.093,-135.37
54.109,-140.42
54.125,-146.18
54.140,-150.91
54.156,-152.92
54.171,-151.28
54.187,-146.12
54.203,-138.43
54.218,-129.54
54.234,-120.5
54.250,-111.89
54.265,-103.89
54.281,-96.51
54.296,-89.84
54.312,-83.99
54.328,-79.08
54.343,-75.12
54.359,-72.03
54.375,-69.63
54.390,-67.86
54.406,-66.69
54.421,-66.13
54.437,-66.18
54.453,-66.71
54.468,-67.6
54.484,-68.76
54.500,-70.22
54.515,-72.17
54.531,-74.94
54.546,-78.96
54.562,-84.61
54.578,-92.13
54.593,-101.27
54.609,-111.17
54.625,-120.28
54.640,-126.57
54.656,-128.05
54.671,-123.29
54.687,-111.95
54.703,-94.9
54.718,-73.93
54.734,-51.18
54.750,-28.55
54.765,-7.33
54.781,11.97
54.796,29.32
54.812,44.96
54.828,59.05
54.843,71.54
54.859,82.14
54.875,90.57
54.890,96.67
54.906,100.59
54.921,102.79
54.937,103.93
54.953,104.69
54.968,105.48
54.984,106.44
55.000,107.36
55.015,107.98
55.031,108.09
55.046,107.62
55.062,106.66
55.078,105.24
55.093,103.29
55.109,100.56
55.125,96.81
55.140,91.97
55.156,86.24
55.171,80.11
55.187,74.14
55.203,68.74
55.218,63.94
55.234,59.47
55.250,54.78
55.265,49.34
55.281,42.77
55.296,34.98
55.312,26.11
55.328,16.52
55.343,6.63
55.359,-3.15
55.375,-12.49
55.390,-21.24
55.406,-29.51
55.421,-37.64
55.437,-46.23
55.453,-55.91
55.468,-67.2
55.484,-80.13
55.500,-93.97
55.515,-107.29
55.531,-118.08
55.546,-124.34
55.562,-124.54
55.578,-118.13
55.593,-105.6
55.609,-88.29
55.625,-67.98
55.640,-46.36
55.656,-24.78
55.671,-4.09
55.687,15.27
55.703,33.14
55.718,49.47
55.734,64.23
55.750,77.31
55.765,88.52
55.781,97.74
55.796,104.88
55.812,110.07
55.828,113.58
55.843,115.76
55.859,116.95
55.875,117.48
55.890,117.53
55.906,117.27
55.921,116.78
55.937,116.09
55.953,115.16
55.968,113.88
55.984,112.07
56.000,109.52
56.015,105.97
56.031,101.2
56.046,95.1
56.062,87.74
56.078,79.41
56.093,70.58
56.109,61.78
56.125,53.38
56.140,45.52
56.156,37.94
56.171,30.16
56.187,21.66
56.203,12.09
56.218,1.44
56.234,-9.88
56.250,-21.16
56.265,-31.6
56.281,-40.62
56.296,-48.1
56.312,-54.38
56.328,-60.18
56.343,-66.25
56.359,-73.09
56.375,-80.71
56.390,-88.53
56.406,-95.4
56.421,-99.74
56.437,-99.77
56.453,-93.91
56.468,-81.22
56.484,-61.78
56.500,-36.82
56.515,-8.46
56.531,20.91
56.546,49.31
56.562,75.71
56.578,100.05
56.593,122.83
56.609,144.33
56.625,164.05
56.640,180.44
56.656,191.29
56.671,194.43
56.687,188.56
56.703,173.9
56.718,152.11
56.734,125.86
56.750,98.02
56.765,70.95
56.781,46.19
56.796,24.53
56.812,6.43
56.828,-7.73
56.843,-17.54
56.859,-22.83
56.875,-23.97
56.890,-21.95
56.906,-18.21
56.921,-14.28
56.937,-11.22
56.953,-9.43
56.968,-8.71
56.984,-8.57
57.000,-8.61
57.015,-8.71
57.031,-8.98
57.046,-9.54
57.062,-10.42
57.078,-11.4
57.093,-12.13
57.109,-12.36
57.125,-11.91
57.140,-10.93
57.156,-9.75
57.171,-8.78
57.187,-8.4
57.203,-8.85
57.218,-10.1
57.234,-11.93
57.250,-14.06
57.265,-16.22
57.281,-18.38
57.296,-20.66
57.312,-23.16
57.328,-25.71
57.343,-27.81
57.359,-28.66
57.375,-27.48
57.390,-23.85
57.406,-17.85
57.421,-10.0
57.437,-1.03
57.453,8.48
57.468,18.26
57.484,28.35
57.500,39.0
57.515,50.41
57.531,62.59
57.546,75.27
57.562,87.87
57.578,99.58
57.593,109.51
57.609,116.97
57.625,121.72
57.640,124.09
57.656,124.91
57.671,125.25
57.687,126.01
57.703,127.75
57.718,130.54
57.734,134.17
57.750,138.29
57.765,142.57
57.781,146.74
57.796,150.59
57.812,154.01
57.828,157.09
57.843,160.35
57.859,164.71
57.875,171.26
57.890,180.63
57.906,192.54
57.921,205.55
57.937,217.38
57.953,225.75
57.968,229.08
57.984,226.99
58.000,220.09
58.015,209.35
58.031,195.47
58.046,178.54
58.062,158.23
58.078,134.23
58.093,106.74
58.109,76.44
58.125,44.07
58.140,10.07
58.156,-25.32
58.171,-61.54
58.187,-96.9
58.203,-128.24
58.218,-151.41
58.234,-162.66
58.250,-160.09
58.265,-144.62
58.281,-119.74
58.296,-90.17
58.312,-60.14
58.328,-32.07
58.343,-6.12
58.359,19.27
58.375,46.19
58.390,75.89
58.406,107.79
58.421,139.23
58.437,166.05
58.453,183.8
58.468,189.24
58.484,181.47
58.500,162.19
58.515,134.92
58.531,103.71
58.546,71.71
58.562,40.47
58.578,9.98
58.593,-20.57
58.609,-51.61
58.625,-82.69
58.640,-112.47
58.656,-139.33
58.671,-162.09
58.687,-180.3
58.703,-194.03
58.718,-203.34
58.734,-207.96
58.750,-207.54
58.765,-202.63
58.781,-195.62
58.796,-190.81
58.812,-193.3
58.828,-206.89
58.843,-232.2
58.859,-266.01
58.875,-302.42
58.890,-335.1
58.906,-359.7
58.921,-374.89
58.937,-381.89
58.953,-382.71
58.968,-378.6
58.984,-369.2
59.000,-352.88
59.015,-328.02
59.031,-294.08
59.046,-252.25
59.062,-205.09
59.078,-155.79
59.093,-107.33
59.109,-62.19
59.125,-22.4
59.140,10.24
59.156,34.0
59.171,47.67
59.187,51.06
59.203,45.5
59.218,33.86
59.234,19.92
59.250,7.44
59.265,-0.83
59.281,-3.71
59.296,-1.83
59.312,2.83
59.328,7.59
59.343,9.93
59.359,8.25
59.375,2.29
59.390,-6.73
59.406,-16.5
59.421,-24.18
59.437,-27.08
59.453,-23.3
59.468,-12.05
59.484,5.94
59.500,28.41
59.515,51.66
59.531,71.08
59.546,82.03
59.562,81.17
59.578,67.41
59.593,42.46
59.609,10.38
59.625,-23.7
59.640,-55.05
59.656,-80.56
59.671,-99.0
59.687,-110.68
59.703,-116.62
59.718,-117.9
59.734,-115.47
59.750,-110.21
59.765,-103.28
59.781,-96.0
59.796,-89.66
59.812,-85.06
59.828,-82.39
59.843,-81.32
59.859,-81.37
59.875,-82.34
59.890,-84.44
59.906,-88.12
59.921,-93.62
59.937,-100.45
59.953,-107.22
59.968,-111.86
59.984,-112.15
