timestamp,value
00.000,32.0
00.015,32.93
00.031,32.95
00.046,32.19
00.062,30.76
00.078,28.83
00.093,26.62
00.109,24.46
00.125,22.7
00.140,21.6
00.156,21.17
00.171,21.18
00.187,21.15
00.203,20.57
00.218,19.06
00.234,16.46
00.250,12.86
00.265,8.44
00.281,3.53
00.296,-1.51
00.312,-6.21
00.328,-10.06
00.343,-12.64
00.359,-13.83
00.375,-13.92
00.390,-13.53
00.406,-13.42
00.421,-13.98
00.437,-15.14
00.453,-16.28
00.468,-16.37
00.484,-14.3
00.500,-9.26
00.515,-0.89
00.531,10.75
00.546,25.06
00.562,41.39
00.578,59.03
00.593,77.42
00.609,96.15
00.625,114.94
00.640,133.66
00.656,152.31
00.671,171.0
00.687,189.73
00.703,208.11
00.718,225.21
00.734,239.64
00.750,250.11
00.765,256.17
00.781,258.6
00.796,259.34
00.812,260.78
00.828,264.56
00.843,270.82
00.859,278.16
00.875,284.16
00.890,286.51
00.906,283.71
00.921,275.38
00.937,261.92
00.953,244.01
00.968,222.19
00.984,196.83
01.000,168.38
01.015,137.6
01.031,105.74
01.046,74.45
01.062,45.55
01.078,20.56
01.093,0.42
01.109,-14.77
01.125,-25.76
01.140,-33.91
01.156,-41.07
01.171,-49.3
01.187,-60.73
01.203,-77.27
01.218,-99.9
01.234,-128.03
01.250,-158.99
01.265,-188.34
01.281,-210.9
01.296,-222.64
01.312,-222.05
01.328,-210.69
01.343,-192.61
01.359,-172.67
01.375,-154.98
01.390,-141.8
01.406,-133.44
01.421,-128.85
01.437,-126.56
01.453,-125.31
01.468,-124.47
01.484,-124.02
01.500,-124.26
01.515,-125.56
01.531,-128.0
01.546,-131.31
01.562,-134.86
01.578,-137.74
01.593,-139.0
01.609,-137.77
01.625,-133.41
01.640,-125.61
01.656,-114.43
01.671,-100.43
01.687,-84.58
01.703,-68.2
01.718,-52.6
01.734,-38.72
01.750,-26.93
01.765,-17.0
01.781,-8.31
01.796,-0.06
01.812,8.39
01.828,17.52
01.843,27.55
01.859,38.64
01.875,50.88
01.890,64.22
01.906,78.43
01.921,92.92
01.937,106.69
01.953,118.3
01.968,126.25
01.984,129.18
02.000,126.33
02.015,117.7
02.031,104.16
02.046,87.34
02.062,69.13
02.078,51.36
02.093,35.34
02.109,21.81
02.125,11.04
02.140,3.05
02.156,-2.16
02.171,-4.59
02.187,-4.3
02.203,-1.64
02.218,2.71
02.234,7.87
02.250,12.88
02.265,16.98
02.281,19.68
02.296,20.94
02.312,21.45
02.328,23.0
02.343,28.39
02.359,40.64
02.375,61.43
02.390,89.41
02.406,119.63
02.421,144.66
02.437,157.18
02.453,152.97
02.468,132.78
02.484,101.95
02.500,68.0
02.515,37.34
02.531,12.89
02.546,-6.27
02.562,-23.5
02.578,-42.46
02.593,-65.39
02.609,-92.79
02.625,-123.97
02.640,-157.59
02.656,-191.68
02.671,-223.06
02.687,-246.95
02.703,-257.7
02.718,-250.86
02.734,-225.69
02.750,-186.64
02.765,-142.72
02.781,-104.44
02.796,-79.86
02.812,-71.74
02.828,-77.38
02.843,-90.94
02.859,-106.91
02.875,-122.68
02.890,-138.41
02.906,-155.0
02.921,-171.36
02.937,-183.41
02.953,-185.54
02.968,-174.01
02.984,-149.97
03.000,-120.2
03.015,-94.97
03.031,-83.6
03.046,-90.2
03.062,-111.74
03.078,-139.54
03.093,-163.3
03.109,-175.44
03.125,-173.96
03.140,-162.12
03.156,-145.9
03.171,-130.63
03.187,-118.85
03.203,-109.94
03.218,-101.83
03.234,-92.9
03.250,-83.3
03.265,-74.92
03.281,-70.16
03.296,-70.44
03.312,-75.32
03.328,-82.82
03.343,-90.4
03.359,-96.26
03.375,-100.08
03.390,-102.79
03.406,-105.87
03.421,-110.2
03.437,-115.52
03.453,-120.37
03.468,-122.83
03.484,-121.55
03.500,-116.41
03.515,-108.77
03.531,-100.87
03.546,-94.95
03.562,-92.36
03.578,-93.23
03.593,-96.58
03.609,-100.86
03.625,-104.64
03.640,-107.03
03.656,-107.77
03.671,-107.08
03.687,-105.37
03.703,-102.95
03.718,-100.01
03.734,-96.73
03.750,-93.44
03.765,-90.64
03.781,-88.95
03.796,-88.75
03.812,-89.93
03.828,-91.71
03.843,-92.76
03.859,-91.48
03.875,-86.6
03.890,-77.48
03.906,-64.32
03.921,-48.06
03.937,-30.04
03.953,-11.58
03.968,6.26
03.984,22.86
04.000,38.02
04.015,51.72
04.031,64.03
04.046,74.93
04.062,84.34
04.078,92.26
04.093,98.83
04.109,104.31
04.125,109.05
04.140,113.29
04.156,117.11
04.171,120.52
04.187,123.48
04.203,125.99
04.218,128.24
04.234,130.45
04.250,132.72
04.265,135.08
04.281,137.34
04.296,139.21
04.312,140.49
04.328,141.1
04.343,141.09
04.359,140.65
04.375,139.99
04.390,139.3
04.406,138.65
04.421,138.02
04.437,137.35
04.453,136.54
04.468,135.53
04.484,134.27
04.500,132.77
04.515,131.09
04.531,129.26
04.546,127.41
04.562,125.63
04.578,123.95
04.593,122.32
04.609,120.55
04.625,118.32
04.640,115.42
04.656,111.97
04.671,108.62
04.687,106.64
04.703,107.52
04.718,112.61
04.734,122.57
04.750,136.98
04.765,154.24
04.781,171.98
04.796,187.49
04.812,198.35
04.828,203.0
04.843,200.87
04.859,192.46
04.875,179.18
04.890,162.96
04.906,145.85
04.921,129.62
04.937,115.37
04.953,103.38
04.968,93.11
04.984,83.53
05.000,73.73
05.015,63.48
05.031,53.41
05.046,44.7
05.062,38.32
05.078,34.32
05.093,31.64
05.109,28.59
05.125,23.66
05.140,16.36
05.156,7.42
05.171,-1.62
05.187,-9.2
05.203,-14.64
05.218,-18.54
05.234,-22.64
05.250,-29.32
05.265,-40.97
05.281,-59.37
05.296,-85.24
05.312,-117.99
05.328,-155.42
05.343,-193.98
05.359,-229.2
05.375,-256.59
05.390,-272.63
05.406,-275.67
05.421,-266.27
05.437,-247.04
05.453,-221.67
05.468,-193.61
05.484,-165.12
05.500,-136.93
05.515,-108.79
05.531,-80.39
05.546,-52.25
05.562,-25.83
05.578,-3.26
05.593,13.63
05.609,23.96
05.625,28.04
05.640,26.99
05.656,22.31
05.671,15.42
05.687,7.56
05.703,0.02
05.718,-5.76
05.734,-8.24
05.750,-6.12
05.765,1.11
05.781,13.02
05.796,28.11
05.812,44.32
05.828,59.43
05.843,71.59
05.859,79.6
05.875,83.04
05.890,82.11
05.906,77.48
05.921,70.26
05.937,61.81
05.953,53.62
05.968,47.02
05.984,42.98
06.000,41.99
06.015,44.05
06.031,48.77
06.046,55.51
06.062,63.55
06.078,71.93
06.093,79.68
06.109,85.72
06.125,89.1
06.140,89.27
06.156,86.25
06.171,80.67
06.187,73.47
06.203,65.57
06.218,57.53
06.234,49.52
06.250,41.49
06.265,33.56
06.281,26.36
06.296,20.86
06.312,18.25
06.328,19.39
06.343,24.55
06.359,33.31
06.375,44.67
06.390,57.26
06.406,69.59
06.421,80.29
06.437,88.14
06.453,92.36
06.468,92.68
06.484,89.37
06.500,83.12
06.515,74.84
06.531,65.43
06.546,55.64
06.562,46.14
06.578,37.51
06.593,30.29
06.609,24.9
06.625,21.43
06.640,19.58
06.656,18.66
06.671,17.75
06.687,16.14
06.703,13.5
06.718,10.04
06.734,6.37
06.750,3.1
06.765,0.55
06.781,-1.25
06.796,-2.6
06.812,-3.76
06.828,-4.82
06.843,-5.61
06.859,-5.93
06.875,-5.61
06.890,-4.72
06.906,-3.42
06.921,-1.82
06.937,0.1
06.953,2.54
06.968,5.71
06.984,9.72
07.000,14.52
07.015,19.87
07.031,25.42
07.046,30.72
07.062,35.37
07.078,39.05
07.093,41.53
07.109,42.76
07.125,42.91
07.140,42.23
07.156,40.99
07.171,39.34
07.187,37.28
07.203,34.82
07.218,31.98
07.234,28.9
07.250,25.76
07.265,22.72
07.281,19.82
07.296,17.03
07.312,14.33
07.328,11.7
07.343,9.29
07.359,7.17
07.375,5.38
07.390,3.77
07.406,2.09
07.421,0.13
07.437,-2.17
07.453,-4.54
07.468,-6.6
07.484,-7.99
07.500,-8.61
07.515,-8.65
07.531,-8.66
07.546,-9.33
07.562,-11.21
07.578,-14.58
07.593,-19.32
07.609,-25.04
07.625,-31.19
07.640,-37.25
07.656,-42.87
07.671,-47.97
07.687,-52.77
07.703,-57.58
07.718,-62.78
07.734,-68.59
07.750,-75.14
07.765,-82.39
07.781,-90.16
07.796,-98.22
07.812,-106.3
07.828,-114.18
07.843,-121.73
07.859,-128.99
07.875,-136.09
07.890,-142.97
07.906,-149.12
07.921,-153.36
07.937,-154.13
07.953,-150.01
07.968,-140.38
07.984,-125.91
08.000,-108.48
08.015,-90.44
08.031,-73.89
08.046,-59.95
08.062,-48.68
08.078,-39.56
08.093,-32.01
08.109,-25.79
08.125,-21.02
08.140,-17.89
08.156,-16.32
08.171,-15.94
08.187,-16.23
08.203,-16.77
08.218,-17.37
08.234,-18.08
08.250,-19.02
08.265,-20.16
08.281,-21.36
08.296,-22.29
08.312,-22.72
08.328,-22.63
08.343,-22.19
08.359,-21.84
08.375,-22.07
08.390,-23.18
08.406,-25.23
08.421,-27.91
08.437,-30.68
08.453,-32.94
08.468,-34.31
08.484,-34.79
08.500,-34.73
08.515,-34.73
08.531,-35.35
08.546,-36.95
08.562,-39.56
08.578,-42.96
08.593,-46.82
08.609,-50.82
08.625,-54.88
08.640,-59.1
08.656,-63.65
08.671,-68.61
08.687,-73.93
08.703,-79.24
08.718,-84.0
08.734,-87.44
08.750,-88.68
08.765,-86.98
08.781,-81.88
08.796,-73.44
08.812,-62.19
08.828,-49.19
08.843,-35.58
08.859,-22.41
08.875,-10.42
08.890,0.12
08.906,9.23
08.921,17.11
08.937,23.93
08.953,29.85
08.968,35.0
08.984,39.52
09.000,43.56
09.015,47.25
09.031,50.71
09.046,53.98
09.062,56.97
09.078,59.54
09.093,61.54
09.109,63.07
09.125,64.39
09.140,65.97
09.156,68.23
09.171,71.29
09.187,74.84
09.203,78.12
09.218,80.25
09.234,80.5
09.250,78.7
09.265,75.25
09.281,70.93
09.296,66.62
09.312,62.91
09.328,60.1
09.343,58.13
09.359,56.84
09.375,56.01
09.390,55.52
09.406,55.26
09.421,55.18
09.437,55.23
09.453,55.36
09.468,55.45
09.484,55.12
09.500,53.8
09.515,50.73
09.531,45.34
09.546,37.66
09.562,28.35
09.578,18.66
09.593,9.93
09.609,3.3
09.625,-0.63
09.640,-1.64
09.656,0.16
09.671,4.5
09.687,10.94
09.703,18.86
09.718,27.52
09.734,36.11
09.750,43.97
09.765,50.59
09.781,55.7
09.796,59.21
09.812,61.06
09.828,61.34
09.843,60.17
09.859,57.75
09.875,54.23
09.890,49.75
09.906,44.5
09.921,38.77
09.937,33.05
09.953,27.86
09.968,23.57
09.984,20.19
10.000,17.39
10.015,14.64
10.031,11.54
10.046,8.04
10.062,4.31
10.078,0.66
10.093,-2.76
10.109,-5.97
10.125,-9.15
10.140,-12.48
10.156,-16.07
10.171,-19.89
10.187,-23.96
10.203,-28.36
10.218,-33.34
10.234,-39.12
10.250,-45.78
10.265,-53.15
10.281,-60.87
10.296,-68.62
10.312,-76.2
10.328,-83.65
10.343,-91.06
10.359,-98.29
10.375,-104.73
10.390,-109.34
10.406,-110.92
10.421,-108.49
10.437,-101.85
10.453,-91.62
10.468,-79.27
10.484,-66.78
10.500,-56.3
10.515,-49.83
10.531,-48.82
10.546,-53.69
10.562,-63.56
10.578,-76.29
10.593,-89.0
10.609,-98.98
10.625,-104.45
10.640,-104.94
10.656,-101.12
10.671,-94.06
10.687,-84.5
10.703,-72.3
10.718,-56.66
10.734,-36.71
10.750,-12.42
10.765,14.87
10.781,42.57
10.796,67.54
10.812,87.14
10.828,99.91
10.843,105.88
10.859,106.21
10.875,102.54
10.890,96.43
10.906,89.3
10.921,82.74
10.937,78.34
10.953,76.88
10.968,77.46
10.984,77.31
11.000,72.7
11.015,60.69
11.031,40.72
11.046,15.22
11.062,-11.34
11.078,-34.31
11.093,-50.63
11.109,-59.52
11.125,-62.17
11.140,-60.48
11.156,-56.3
11.171,-50.97
11.187,-45.55
11.203,-40.96
11.218,-38.0
11.234,-37.05
11.250,-37.76
11.265,-39.16
11.281,-40.04
11.296,-39.26
11.312,-36.14
11.328,-30.54
11.343,-23.01
11.359,-14.45
11.375,-5.84
11.390,2.1
11.406,9.02
11.421,14.78
11.437,19.37
11.453,22.75
11.468,24.87
11.484,25.68
11.500,25.45
11.515,24.71
11.531,24.31
11.546,25.01
11.562,27.21
11.578,30.52
11.593,33.66
11.609,34.67
11.625,31.43
11.640,22.36
11.656,7.01
11.671,-13.78
11.687,-38.05
11.703,-63.3
11.718,-87.09
11.734,-107.66
11.750,-124.25
11.765,-136.93
11.781,-146.17
11.796,-152.36
11.812,-155.44
11.828,-154.8
11.843,-149.81
11.859,-140.18
11.875,-126.4
11.890,-109.67
11.906,-91.5
11.921,-73.15
11.937,-55.29
11.953,-38.1
11.968,-21.65
11.984,-6.22
12.000,7.66
12.015,19.36
12.031,28.61
12.046,35.6
12.062,40.96
12.078,45.4
12.093,49.4
12.109,53.04
12.125,56.09
12.140,58.17
12.156,59.05
12.171,58.76
12.187,57.67
12.203,56.3
12.218,55.18
12.234,54.71
12.250,54.9
12.265,55.49
12.281,56.01
12.296,56.01
12.312,55.29
12.328,53.96
12.343,52.45
12.359,51.16
12.375,50.24
12.390,49.32
12.406,47.55
12.421,43.68
12.437,36.57
12.453,25.48
12.468,10.38
12.484,-7.9
12.500,-27.73
12.515,-46.86
12.531,-62.88
12.546,-73.64
12.562,-77.9
12.578,-75.59
12.593,-67.84
12.609,-56.65
12.625,-44.22
12.640,-32.43
12.656,-22.45
12.671,-14.81
12.687,-9.56
12.703,-6.58
12.718,-5.74
12.734,-6.8
12.750,-9.38
12.765,-12.91
12.781,-16.7
12.796,-20.08
12.812,-22.55
12.828,-23.89
12.843,-24.12
12.859,-23.49
12.875,-22.31
12.890,-20.87
12.906,-19.42
12.921,-18.17
12.937,-17.4
12.953,-17.49
12.968,-18.76
12.984,-21.43
13.000,-25.43
13.015,-30.3
13.031,-35.44
13.046,-40.23
13.062,-44.39
13.078,-47.99
13.093,-51.55
13.109,-55.72
13.125,-61.04
13.140,-67.62
13.156,-74.91
13.171,-81.68
13.187,-86.24
13.203,-86.85
13.218,-82.25
13.234,-72.1
13.250,-57.1
13.265,-38.89
13.281,-19.48
13.296,-0.82
13.312,15.75
13.328,29.56
13.343,40.45
13.359,48.58
13.375,54.18
13.390,57.39
13.406,58.37
13.421,57.35
13.437,54.73
13.453,51.12
13.468,47.26
13.484,43.83
13.500,41.31
13.515,39.93
13.531,39.53
13.546,39.69
13.562,39.88
13.578,39.6
13.593,38.52
13.609,36.61
13.625,34.12
13.640,31.45
13.656,29.02
13.671,27.08
13.687,25.65
13.703,24.5
13.718,23.3
13.734,21.68
13.750,19.39
13.765,16.37
13.781,12.87
13.796,9.43
13.812,6.94
13.828,6.51
13.843,9.2
13.859,15.63
13.875,25.75
13.890,38.78
13.906,53.44
13.921,68.5
13.937,83.04
13.953,96.71
13.968,109.43
13.984,121.09
14.000,131.03
14.015,138.01
14.031,140.47
14.046,137.05
14.062,127.26
14.078,111.9
14.093,93.04
14.109,73.61
14.125,56.66
14.140,44.51
14.156,38.2
14.171,37.14
14.187,39.41
14.203,42.35
14.218,43.39
14.234,40.8
14.250,34.05
14.265,23.83
14.281,11.68
14.296,-0.49
14.312,-10.94
14.328,-18.45
14.343,-22.43
14.359,-22.99
14.375,-20.73
14.390,-16.73
14.406,-12.36
14.421,-8.93
14.437,-7.49
14.453,-8.43
14.468,-11.33
14.484,-14.9
14.500,-17.32
14.515,-16.69
14.531,-11.67
14.546,-2.0
14.562,11.31
14.578,26.26
14.593,40.57
14.609,52.39
14.625,61.02
14.640,66.95
14.656,71.49
14.671,76.14
14.687,81.72
14.703,88.14
14.718,94.38
14.734,99.12
14.750,101.13
14.765,99.77
14.781,94.86
14.796,86.62
14.812,75.48
14.828,61.93
14.843,46.6
14.859,30.16
14.875,13.31
14.890,-3.51
14.906,-20.15
14.921,-36.66
14.937,-52.86
14.953,-67.99
14.968,-80.54
14.984,-88.51
15.000,-90.28
15.015,-85.63
15.031,-76.3
15.046,-66.2
15.062,-60.34
15.078,-63.48
15.093,-78.49
15.109,-105.3
15.125,-140.67
15.140,-178.98
15.156,-213.73
15.171,-239.07
15.187,-251.03
15.203,-248.08
15.218,-231.05
15.234,-202.48
15.250,-166.0
15.265,-125.42
15.281,-84.13
15.296,-44.73
15.312,-8.76
15.328,23.09
15.343,50.78
15.359,74.47
15.375,94.19
15.390,109.73
15.406,120.72
15.421,127.15
15.437,129.74
15.453,130.31
15.468,131.52
15.484,136.05
15.500,145.69
15.515,160.23
15.531,177.11
15.546,191.84
15.562,199.25
15.578,194.97
15.593,176.67
15.609,144.68
15.625,102.07
15.640,54.23
15.656,8.16
15.671,-28.76
15.687,-50.45
15.703,-54.06
15.718,-41.53
15.734,-19.78
15.750,0.87
15.765,9.68
15.781,-1.0
15.796,-33.3
15.812,-83.45
15.828,-143.38
15.843,-203.32
15.859,-254.22
15.875,-289.11
15.890,-303.52
15.906,-295.62
15.921,-266.51
15.937,-220.56
15.953,-165.29
15.968,-110.07
15.984,-63.83
16.000,-32.43
16.015,-16.93
16.031,-13.58
16.046,-15.72
16.062,-16.48
16.078,-11.37
16.093,0.54
16.109,17.06
16.125,34.38
16.140,48.96
16.156,58.77
16.171,63.82
16.187,65.76
16.203,66.77
16.218,68.43
16.234,70.91
16.250,72.92
16.265,72.43
16.281,67.76
16.296,58.57
16.312,46.12
16.328,32.78
16.343,21.23
16.359,13.59
16.375,11.03
16.390,13.88
16.406,21.68
16.421,33.24
16.437,46.51
16.453,58.56
16.468,65.97
16.484,65.79
16.500,56.64
16.515,39.32
16.531,16.68
16.546,-7.16
16.562,-28.05
16.578,-42.76
16.593,-49.59
16.609,-48.4
16.625,-40.42
16.640,-27.82
16.656,-13.19
16.671,1.04
16.687,13.08
16.703,22.12
16.718,28.33
16.734,32.54
16.750,35.78
16.765,38.87
16.781,42.29
16.796,46.13
16.812,50.32
16.828,54.68
16.843,59.01
16.859,63.03
16.875,66.24
16.890,68.03
16.906,67.8
16.921,65.1
16.937,59.98
16.953,53.1
16.968,45.64
16.984,38.94
17.000,34.03
17.015,31.22
17.031,29.96
17.046,29.12
17.062,27.52
17.078,24.51
17.093,20.37
17.109,16.5
17.125,15.11
17.140,18.62
17.156,28.7
17.171,45.29
17.187,66.09
17.203,86.75
17.218,102.03
17.234,107.37
17.250,100.49
17.265,82.32
17.281,56.96
17.296,30.69
17.312,10.26
17.328,1.11
17.343,5.67
17.359,22.5
17.375,46.35
17.390,69.4
17.406,83.38
17.421,82.16
17.437,63.93
17.453,31.91
17.468,-6.53
17.484,-42.28
17.500,-67.46
17.515,-77.91
17.531,-74.08
17.546,-60.29
17.562,-42.67
17.578,-26.75
17.593,-15.76
17.609,-10.23
17.625,-8.67
17.640,-8.75
17.656,-8.25
17.671,-5.68
17.687,-0.42
17.703,7.04
17.718,14.89
17.734,19.84
17.750,17.7
17.765,4.73
17.781,-20.6
17.796,-56.22
17.812,-96.54
17.828,-134.04
17.843,-161.87
17.859,-176.08
17.875,-176.46
17.890,-165.83
17.906,-148.33
17.921,-127.89
17.937,-107.48
17.953,-89.47
17.968,-76.25
17.984,-70.6
18.000,-75.1
18.015,-91.13
18.031,-117.71
18.046,-151.19
18.062,-185.73
18.078,-214.7
18.093,-232.38
18.109,-235.32
18.125,-223.21
18.140,-198.75
18.156,-166.62
18.171,-131.98
18.187,-99.05
18.203,-70.3
18.218,-46.44
18.234,-27.15
18.250,-11.78
18.265,0.09
18.281,8.67
18.296,14.36
18.312,17.94
18.328,20.53
18.343,23.17
18.359,26.38
18.375,30.0
18.390,33.31
18.406,35.54
18.421,36.26
18.437,35.61
18.453,34.23
18.468,32.92
18.484,32.24
18.500,32.27
18.515,32.51
18.531,32.23
18.546,30.7
18.562,27.52
18.578,22.83
18.593,17.16
18.609,11.23
18.625,5.67
18.640,0.75
18.656,-3.67
18.671,-7.96
18.687,-12.49
18.703,-17.46
18.718,-22.81
18.734,-28.39
18.750,-34.02
18.765,-39.73
18.781,-45.75
18.796,-52.41
18.812,-59.94
18.828,-68.39
18.843,-77.5
18.859,-86.65
18.875,-94.78
18.890,-100.47
18.906,-102.19
18.921,-98.67
18.937,-89.3
18.953,-74.53
18.968,-55.8
18.984,-35.2
19.000,-14.84
19.015,3.75
19.031,19.9
19.046,33.7
19.062,45.58
19.078,55.9
19.093,64.65
19.109,71.55
19.125,76.32
19.140,78.94
19.156,79.75
19.171,79.41
19.187,78.62
19.203,77.87
19.218,77.3
19.234,76.6
19.250,75.27
19.265,72.87
19.281,69.16
19.296,64.24
19.312,58.41
19.328,52.11
19.343,45.69
19.359,39.37
19.375,33.17
19.390,26.99
19.406,20.75
19.421,14.48
19.437,8.4
19.453,2.82
19.468,-1.93
19.484,-5.7
19.500,-8.58
19.515,-10.95
19.531,-13.33
19.546,-16.21
19.562,-19.93
19.578,-24.57
19.593,-29.96
19.609,-35.67
19.625,-41.02
19.640,-45.04
19.656,-46.71
19.671,-44.97
19.687,-39.17
19.703,-29.31
19.718,-16.06
19.734,-0.6
19.750,15.66
19.765,31.44
19.781,45.89
19.796,58.61
19.812,69.61
19.828,79.05
19.843,87.09
19.859,93.74
19.875,98.94
19.890,102.6
19.906,104.7
19.921,105.38
19.937,104.92
19.953,103.67
19.968,101.91
19.984,99.86
20.000,97.62
20.015,95.26
20.031,92.76
20.046,90.14
20.062,87.33
20.078,84.17
20.093,80.46
20.109,76.03
20.125,70.78
20.140,64.8
20.156,58.28
20.171,51.54
20.187,44.79
20.203,38.2
20.218,31.75
20.234,25.42
20.250,19.19
20.265,13.06
20.281,7.11
20.296,1.31
20.312,-4.45
20.328,-10.5
20.343,-17.19
20.359,-24.74
20.375,-33.05
20.390,-41.43
20.406,-48.72
20.421,-53.51
20.437,-54.54
20.453,-51.07
20.468,-43.15
20.484,-31.65
20.500,-17.93
20.515,-3.45
20.531,10.61
20.546,23.56
20.562,35.12
20.578,45.35
20.593,54.32
20.609,62.04
20.625,68.39
20.640,73.23
20.656,76.5
20.671,78.3
20.687,78.87
20.703,78.53
20.718,77.55
20.734,76.19
20.750,74.57
20.765,72.78
20.781,70.84
20.796,68.74
20.812,66.54
20.828,64.27
20.843,61.97
20.859,59.65
20.875,57.24
20.890,54.66
20.906,51.78
20.921,48.47
20.937,44.63
20.953,40.25
20.968,35.32
20.984,29.91
21.000,24.09
21.015,17.97
21.031,11.74
21.046,5.59
21.062,-0.3
21.078,-5.86
21.093,-11.18
21.109,-16.51
21.125,-22.13
21.140,-28.22
21.156,-34.76
21.171,-41.33
21.187,-47.26
21.203,-51.64
21.218,-53.64
21.234,-52.63
21.250,-48.45
21.265,-41.36
21.281,-32.01
21.296,-21.4
21.312,-10.5
21.328,-0.2
21.343,8.94
21.359,16.7
21.375,23.1
21.390,28.28
21.406,32.35
21.421,35.34
21.437,37.1
21.453,37.57
21.468,36.75
21.484,34.93
21.500,32.56
21.515,30.19
21.531,28.28
21.546,27.05
21.562,26.47
21.578,26.26
21.593,26.11
21.609,25.74
21.625,25.07
21.640,24.11
21.656,23.0
21.671,21.77
21.687,20.39
21.703,18.65
21.718,16.32
21.734,13.27
21.750,9.49
21.765,5.2
21.781,0.72
21.796,-3.64
21.812,-7.69
21.828,-11.36
21.843,-14.75
21.859,-18.0
21.875,-21.25
21.890,-24.7
21.906,-28.49
21.921,-32.66
21.937,-37.05
21.953,-41.11
21.968,-43.94
21.984,-44.45
22.000,-41.87
22.015,-35.94
22.031,-27.15
22.046,-16.62
22.062,-5.61
22.078,4.73
22.093,13.73
22.109,21.16
22.125,27.1
22.140,31.66
22.156,34.97
22.171,37.08
22.187,38.07
22.203,38.07
22.218,37.3
22.234,36.01
22.250,34.4
22.265,32.64
22.281,30.75
22.296,28.75
22.312,26.57
22.328,24.23
22.343,21.76
22.359,19.24
22.375,16.76
22.390,14.36
22.406,11.99
22.421,9.57
22.437,6.94
22.453,3.95
22.468,0.51
22.484,-3.34
22.500,-7.44
22.515,-11.62
22.531,-15.69
22.546,-19.55
22.562,-23.19
22.578,-26.59
22.593,-29.82
22.609,-32.87
22.625,-35.8
22.640,-38.67
22.656,-41.61
22.671,-44.72
22.687,-47.97
22.703,-51.09
22.718,-53.55
22.734,-54.66
22.750,-53.74
22.765,-50.38
22.781,-44.54
22.796,-36.52
22.812,-26.89
22.828,-16.32
22.843,-5.48
22.859,5.1
22.875,14.94
22.890,23.68
22.906,31.06
22.921,36.87
22.937,41.1
22.953,43.79
22.968,45.15
22.984,45.41
23.000,44.89
23.015,43.86
23.031,42.51
23.046,40.92
23.062,39.05
23.078,36.8
23.093,34.05
23.109,30.82
23.125,27.22
23.140,23.5
23.156,19.94
23.171,16.74
23.187,13.96
23.203,11.48
23.218,9.03
23.234,6.33
23.250,3.16
23.265,-0.52
23.281,-4.61
23.296,-8.89
23.312,-13.12
23.328,-17.12
23.343,-20.82
23.359,-24.25
23.375,-27.48
23.390,-30.65
23.406,-33.9
23.421,-37.39
23.437,-41.15
23.453,-45.09
23.468,-48.89
23.484,-52.03
23.500,-53.86
23.515,-53.78
23.531,-51.4
23.546,-46.67
23.562,-39.89
23.578,-31.62
23.593,-22.54
23.609,-13.29
23.625,-4.35
23.640,4.0
23.656,11.58
23.671,18.26
23.687,23.94
23.703,28.47
23.718,31.78
23.734,33.89
23.750,34.92
23.765,35.11
23.781,34.75
23.796,34.03
23.812,33.03
23.828,31.76
23.843,30.24
23.859,28.57
23.875,26.96
23.890,25.63
23.906,24.67
23.921,24.0
23.937,23.32
23.953,22.39
23.968,21.05
23.984,19.39
24.000,17.64
24.015,16.02
24.031,14.55
24.046,13.01
24.062,11.04
24.078,8.27
24.093,4.59
24.109,0.15
24.125,-4.72
24.140,-9.52
24.156,-13.91
24.171,-17.68
24.187,-20.94
24.203,-23.95
24.218,-27.03
24.234,-30.5
24.250,-34.47
24.265,-38.89
24.281,-43.43
24.296,-47.63
24.312,-50.78
24.328,-52.23
24.343,-51.39
24.359,-48.03
24.375,-42.38
24.390,-35.07
24.406,-27.01
24.421,-19.06
24.437,-11.79
24.453,-5.37
24.468,0.35
24.484,5.56
24.500,10.32
24.515,14.43
24.531,17.62
24.546,19.71
24.562,20.77
24.578,21.1
24.593,21.07
24.609,20.92
24.625,20.68
24.640,20.2
24.656,19.32
24.671,18.06
24.687,16.58
24.703,15.14
24.718,13.9
24.734,12.82
24.750,11.74
24.765,10.42
24.781,8.73
24.796,6.58
24.812,4.05
24.828,1.15
24.843,-2.01
24.859,-5.36
24.875,-8.79
24.890,-12.13
24.906,-15.25
24.921,-18.07
24.937,-20.64
24.953,-23.03
24.968,-25.41
24.984,-27.76
25.000,-30.05
25.015,-32.2
25.031,-34.13
25.046,-35.88
25.062,-37.66
25.078,-39.64
25.093,-41.9
25.109,-44.25
25.125,-46.17
25.140,-46.89
25.156,-45.65
25.171,-41.83
25.187,-35.37
25.203,-26.65
25.218,-16.49
25.234,-5.81
25.250,4.63
25.265,14.45
25.281,23.64
25.296,32.4
25.312,40.91
25.328,49.14
25.343,56.84
25.359,63.61
25.375,69.09
25.390,73.13
25.406,75.84
25.421,77.51
25.437,78.49
25.453,79.08
25.468,79.4
25.484,79.34
25.500,78.6
25.515,76.62
25.531,72.75
25.546,66.39
25.562,57.09
25.578,44.79
25.593,29.77
25.609,12.75
25.625,-5.36
25.640,-23.55
25.656,-40.91
25.671,-56.67
25.687,-70.31
25.703,-81.44
25.718,-89.96
25.734,-95.98
25.750,-99.8
25.765,-101.88
25.781,-102.73
25.796,-102.8
25.812,-102.42
25.828,-101.73
25.843,-100.63
25.859,-98.77
25.875,-95.73
25.890,-91.12
25.906,-84.66
25.921,-76.39
25.937,-66.66
25.953,-56.08
25.968,-45.34
25.984,-35.03
26.000,-25.47
26.015,-16.79
26.031,-8.91
26.046,-1.73
26.062,4.72
26.078,10.33
26.093,14.9
26.109,18.29
26.125,20.5
26.140,21.73
26.156,22.26
26.171,22.41
26.187,22.42
26.203,22.35
26.218,22.07
26.234,21.45
26.250,20.38
26.265,18.91
26.281,17.23
26.296,15.55
26.312,14.03
26.328,12.67
26.343,11.35
26.359,9.88
26.375,8.13
26.390,6.06
26.406,3.75
26.421,1.29
26.437,-1.22
26.453,-3.76
26.468,-6.35
26.484,-9.06
26.500,-11.91
26.515,-14.86
26.531,-17.89
26.546,-21.06
26.562,-24.46
26.578,-28.14
26.593,-32.0
26.609,-35.65
26.625,-38.44
26.640,-39.63
26.656,-38.63
26.671,-35.26
26.687,-29.81
26.703,-22.95
26.718,-15.48
26.734,-8.11
26.750,-1.31
26.765,4.72
26.781,9.9
26.796,14.21
26.812,17.64
26.828,20.21
26.843,22.0
26.859,23.19
26.875,23.96
26.890,24.46
26.906,24.78
26.921,24.86
26.937,24.64
26.953,24.04
26.968,23.05
26.984,21.74
27.000,20.25
27.015,18.72
27.031,17.2
27.046,15.72
27.062,14.23
27.078,12.67
27.093,11.05
27.109,9.41
27.125,7.79
27.140,6.12
27.156,4.22
27.171,1.89
27.187,-0.97
27.203,-4.34
27.218,-8.01
27.234,-11.72
27.250,-15.27
27.265,-18.57
27.281,-21.76
27.296,-24.98
27.312,-28.34
27.328,-31.9
27.343,-35.63
27.359,-39.42
27.375,-43.05
27.390,-46.18
27.406,-48.26
27.421,-48.72
27.437,-47.07
27.453,-43.11
27.468,-37.05
27.484,-29.49
27.500,-21.19
27.515,-12.89
27.531,-5.12
27.546,1.89
27.562,8.07
27.578,13.39
27.593,17.79
27.609,21.1
27.625,23.22
27.640,24.2
27.656,24.32
27.671,24.13
27.687,24.24
27.703,25.14
27.718,26.98
27.734,29.55
27.750,32.34
27.765,34.72
27.781,36.17
27.796,36.39
27.812,35.38
27.828,33.36
27.843,30.6
27.859,27.4
27.875,23.97
27.890,20.45
27.906,16.92
27.921,13.43
27.937,10.0
27.953,6.64
27.968,3.36
27.984,0.13
28.000,-3.04
28.015,-6.18
28.031,-9.28
28.046,-12.42
28.062,-15.58
28.078,-18.83
28.093,-22.22
28.109,-25.78
28.125,-29.5
28.140,-33.18
28.156,-36.37
28.171,-38.44
28.187,-38.72
28.203,-36.7
28.218,-32.33
28.234,-26.02
28.250,-18.46
28.265,-10.48
28.281,-2.73
28.296,4.42
28.312,10.77
28.328,16.28
28.343,20.87
28.359,24.46
28.375,27.02
28.390,28.62
28.406,29.45
28.421,29.72
28.437,29.67
28.453,29.44
28.468,29.14
28.484,28.8
28.500,28.46
28.515,28.11
28.531,27.78
28.546,27.43
28.562,26.96
28.578,26.27
28.593,25.24
28.609,23.79
28.625,21.93
28.640,19.73
28.656,17.33
28.671,14.85
28.687,12.36
28.703,9.9
28.718,7.42
28.734,4.88
28.750,2.25
28.765,-0.45
28.781,-3.18
28.796,-5.84
28.812,-8.4
28.828,-10.85
28.843,-13.23
28.859,-15.66
28.875,-18.34
28.890,-21.45
28.906,-25.06
28.921,-29.11
28.937,-33.27
28.953,-36.94
28.968,-39.42
28.984,-40.02
29.000,-38.27
29.015,-34.17
29.031,-28.1
29.046,-20.73
29.062,-12.85
29.078,-5.05
29.093,2.29
29.109,9.02
29.125,15.1
29.140,20.5
29.156,25.08
29.171,28.67
29.187,31.15
29.203,32.54
29.218,33.04
29.234,32.95
29.250,32.56
29.265,32.02
29.281,31.31
29.296,30.28
29.312,28.83
29.328,26.99
29.343,25.0
29.359,23.2
29.375,21.85
29.390,21.0
29.406,20.42
29.421,19.73
29.437,18.58
29.453,16.84
29.468,14.57
29.484,12.01
29.500,9.42
29.515,7.0
29.531,4.82
29.546,2.76
29.562,0.73
29.578,-1.41
29.593,-3.68
29.609,-6.02
29.625,-8.29
29.640,-10.36
29.656,-12.17
29.671,-13.75
29.687,-15.28
29.703,-16.98
29.718,-19.13
29.734,-21.84
29.750,-25.03
29.765,-28.38
29.781,-31.35
29.796,-33.3
29.812,-33.59
29.828,-31.77
29.843,-27.67
29.859,-21.52
29.875,-13.84
29.890,-5.34
29.906,3.18
29.921,11.09
29.937,17.95
29.953,23.6
29.968,28.08
29.984,31.66
30.000,34.58
30.015,37.04
30.031,39.11
30.046,40.66
30.062,41.58
30.078,41.77
30.093,41.23
30.109,40.08
30.125,38.55
30.140,36.85
30.156,35.13
30.171,33.48
30.187,31.86
30.203,30.3
30.218,28.79
30.234,27.35
30.250,26.02
30.265,24.8
30.281,23.69
30.296,22.76
30.312,22.09
30.328,21.81
30.343,22.02
30.359,22.77
30.375,24.03
30.390,25.7
30.406,27.61
30.421,29.56
30.437,31.51
30.453,33.5
30.468,35.62
30.484,38.06
30.500,40.93
30.515,44.22
30.531,47.83
30.546,51.56
30.562,55.16
30.578,58.52
30.593,61.66
30.609,64.77
30.625,68.32
30.640,72.88
30.656,79.0
30.671,87.06
30.687,97.11
30.703,108.74
30.718,121.13
30.734,133.08
30.750,143.17
30.765,150.05
30.781,152.58
30.796,150.02
30.812,142.3
30.828,129.9
30.843,113.83
30.859,95.41
30.875,75.94
30.890,56.5
30.906,37.85
30.921,20.42
30.937,4.33
30.953,-10.41
30.968,-23.98
30.984,-36.53
31.000,-48.18
31.015,-58.77
31.031,-67.94
31.046,-75.13
31.062,-79.77
31.078,-81.52
31.093,-80.38
31.109,-76.7
31.125,-70.98
31.140,-63.7
31.156,-55.29
31.171,-46.34
31.187,-37.69
31.203,-30.49
31.218,-25.96
31.234,-24.89
31.250,-27.43
31.265,-32.89
31.281,-40.03
31.296,-47.51
31.312,-54.35
31.328,-60.03
31.343,-64.46
31.359,-67.59
31.375,-69.21
31.390,-68.88
31.406,-66.08
31.421,-60.39
31.437,-51.75
31.453,-40.51
31.468,-27.29
31.484,-12.98
31.500,1.44
31.515,15.05
31.531,27.07
31.546,36.9
31.562,44.19
31.578,48.81
31.593,50.77
31.609,50.21
31.625,47.34
31.640,42.54
31.656,36.46
31.671,30.02
31.687,24.23
31.703,19.87
31.718,17.07
31.734,15.14
31.750,12.73
31.765,8.33
31.781,0.99
31.796,-9.32
31.812,-21.56
31.828,-34.09
31.843,-45.19
31.859,-53.62
31.875,-58.7
31.890,-60.4
31.906,-59.07
31.921,-55.36
31.937,-50.22
31.953,-44.72
31.968,-39.66
31.984,-34.94
32.000,-29.31
32.015,-20.78
32.031,-7.78
32.046,9.45
32.062,28.0
32.078,42.7
32.093,47.75
32.109,38.58
32.125,13.38
32.140,-26.24
32.156,-75.33
32.171,-126.12
32.187,-169.27
32.203,-195.75
32.218,-199.36
32.234,-179.0
32.250,-139.6
32.265,-90.81
32.281,-43.72
32.296,-6.98
32.312,15.75
32.328,26.02
32.343,28.51
32.359,28.22
32.375,28.53
32.390,30.62
32.406,34.02
32.421,37.43
32.437,39.01
32.453,36.51
32.468,27.61
32.484,10.65
32.500,-14.25
32.515,-44.62
32.531,-75.83
32.546,-102.25
32.562,-118.86
32.578,-122.57
32.593,-113.01
32.609,-92.38
32.625,-64.76
32.640,-35.07
32.656,-8.04
32.671,12.58
32.687,24.6
32.703,27.8
32.718,23.93
32.734,16.12
32.750,7.79
32.765,1.14
32.781,-3.98
32.796,-10.25
32.812,-21.75
32.828,-41.73
32.843,-70.54
32.859,-104.74
32.875,-137.96
32.890,-163.11
32.906,-175.07
32.921,-172.39
32.937,-157.66
32.953,-136.4
32.968,-115.42
32.984,-100.93
33.000,-97.07
33.015,-104.68
33.031,-120.84
33.046,-139.39
33.062,-152.7
33.078,-154.22
33.093,-140.84
33.109,-113.99
33.125,-78.78
33.140,-41.73
33.156,-8.22
33.171,19.08
33.187,40.17
33.203,56.49
33.218,69.49
33.234,79.93
33.250,87.89
33.265,93.35
33.281,96.6
33.296,98.25
33.312,99.01
33.328,99.45
33.343,99.81
33.359,99.77
33.375,98.21
33.390,93.3
33.406,82.86
33.421,65.11
33.437,39.46
33.453,7.0
33.468,-29.71
33.484,-67.42
33.500,-103.1
33.515,-134.61
33.531,-160.73
33.546,-180.78
33.562,-194.1
33.578,-199.94
33.593,-197.53
33.609,-186.79
33.625,-168.84
33.640,-146.17
33.656,-122.36
33.671,-101.16
33.687,-85.46
33.703,-76.45
33.718,-73.43
33.734,-74.18
33.750,-75.95
33.765,-76.34
33.781,-73.84
33.796,-67.76
33.812,-58.17
33.828,-45.79
33.843,-32.02
33.859,-18.98
33.875,-9.15
33.890,-4.81
33.906,-6.98
33.921,-14.93
33.937,-26.17
33.953,-37.3
33.968,-45.27
33.984,-48.48
34.000,-47.18
34.015,-43.04
34.031,-38.14
34.046,-34.05
34.062,-31.2
34.078,-29.11
34.093,-26.96
34.109,-24.25
34.125,-20.95
34.140,-17.54
34.156,-14.4
34.171,-11.72
34.187,-9.37
34.203,-7.26
34.218,-5.67
34.234,-5.43
34.250,-7.64
34.265,-13.24
34.281,-22.54
34.296,-34.99
34.312,-49.36
34.328,-64.27
34.343,-78.72
34.359,-92.38
34.375,-105.54
34.390,-118.74
34.406,-132.44
34.421,-146.64
34.437,-161.02
34.453,-175.1
34.468,-188.4
34.484,-200.57
34.500,-211.4
34.515,-220.69
34.531,-228.35
34.546,-234.22
34.562,-238.05
34.578,-239.4
34.593,-237.6
34.609,-231.83
34.625,-221.42
34.640,-206.24
34.656,-186.92
34.671,-164.79
34.687,-141.43
34.703,-118.15
34.718,-95.67
34.734,-74.0
34.750,-52.7
34.765,-31.16
34.781,-9.02
34.796,13.79
34.812,36.89
34.828,59.55
34.843,80.75
34.859,99.41
34.875,114.71
34.890,126.32
34.906,134.55
34.921,140.18
34.937,144.19
34.953,147.32
34.968,149.91
34.984,151.96
35.000,153.3
35.015,153.79
35.031,153.47
35.046,152.41
35.062,150.71
35.078,148.34
35.093,145.2
35.109,141.17
35.125,136.2
35.140,130.34
35.156,123.77
35.171,116.76
35.187,109.56
35.203,102.47
35.218,95.71
35.234,89.4
35.250,83.44
35.265,77.71
35.281,71.83
35.296,65.44
35.312,58.19
35.328,49.84
35.343,40.46
35.359,30.6
35.375,21.32
35.390,14.12
35.406,10.66
35.421,12.09
35.437,18.82
35.453,30.27
35.468,44.98
35.484,61.09
35.500,76.81
35.515,90.85
35.531,102.6
35.546,112.1
35.562,119.69
35.578,125.82
35.593,130.8
35.609,134.75
35.625,137.68
35.640,139.5
35.656,140.25
35.671,140.06
35.687,139.21
35.703,137.96
35.718,136.54
35.734,135.07
35.750,133.49
35.765,131.78
35.781,129.9
35.796,127.84
35.812,125.6
35.828,123.12
35.843,120.24
35.859,116.82
35.875,112.73
35.890,107.9
35.906,102.39
35.921,96.34
35.937,89.86
35.953,83.03
35.968,75.91
35.984,68.58
36.000,61.16
36.015,53.82
36.031,46.71
36.046,39.89
36.062,33.28
36.078,26.7
36.093,19.86
36.109,12.51
36.125,4.54
36.140,-3.9
36.156,-12.26
36.171,-19.57
36.187,-24.58
36.203,-26.1
36.218,-23.29
36.234,-16.14
36.250,-5.49
36.265,7.19
36.281,20.25
36.296,32.31
36.312,42.61
36.328,50.96
36.343,57.5
36.359,62.46
36.375,65.94
36.390,67.99
36.406,68.67
36.421,68.19
36.437,66.96
36.453,65.42
36.468,63.95
36.484,62.78
36.500,61.93
36.515,61.23
36.531,60.39
36.546,59.17
36.562,57.4
36.578,55.09
36.593,52.38
36.609,49.46
36.625,46.39
36.640,43.13
36.656,39.52
36.671,35.44
36.687,30.94
36.703,26.2
36.718,21.47
36.734,16.92
36.750,12.58
36.765,8.29
36.781,3.97
36.796,-0.38
36.812,-4.59
36.828,-8.46
36.843,-11.9
36.859,-15.01
36.875,-18.19
36.890,-21.89
36.906,-26.48
36.921,-31.98
36.937,-38.03
36.953,-43.75
36.968,-48.05
36.984,-49.83
37.000,-48.22
37.015,-42.99
37.031,-34.51
37.046,-23.7
37.062,-11.79
37.078,0.06
37.093,10.93
37.109,20.33
37.125,28.09
37.140,34.3
37.156,39.12
37.171,42.68
37.187,45.08
37.203,46.39
37.218,46.73
37.234,46.22
37.250,45.09
37.265,43.52
37.281,41.73
37.296,39.85
37.312,37.96
37.328,36.13
37.343,34.37
37.359,32.7
37.375,31.05
37.390,29.36
37.406,27.45
37.421,25.2
37.437,22.58
37.453,19.6
37.468,16.4
37.484,13.09
37.500,9.82
37.515,6.59
37.531,3.4
37.546,0.13
37.562,-3.23
37.578,-6.61
37.593,-9.85
37.609,-12.73
37.625,-15.15
37.640,-17.07
37.656,-18.73
37.671,-20.46
37.687,-22.69
37.703,-25.7
37.718,-29.58
37.734,-34.08
37.750,-38.6
37.765,-42.2
37.781,-43.84
37.796,-42.58
37.812,-37.96
37.828,-30.16
37.843,-20.0
37.859,-8.71
37.875,2.44
37.890,12.59
37.906,21.42
37.921,29.17
37.937,36.43
37.953,43.57
37.968,50.4
37.984,55.94
38.000,58.6
38.015,56.72
38.031,49.31
38.046,36.58
38.062,20.05
38.078,2.2
38.093,-14.39
38.109,-27.65
38.125,-36.56
38.140,-41.04
38.156,-41.66
38.171,-39.21
38.187,-34.52
38.203,-28.46
38.218,-22.0
38.234,-16.18
38.250,-11.9
38.265,-9.67
38.281,-9.39
38.296,-10.45
38.312,-11.97
38.328,-13.14
38.343,-13.54
38.359,-13.26
38.375,-12.78
38.390,-12.68
38.406,-13.39
38.421,-15.01
38.437,-17.3
38.453,-19.89
38.468,-22.47
38.484,-24.93
38.500,-27.43
38.515,-30.27
38.531,-33.67
38.546,-37.73
38.562,-42.22
38.578,-46.5
38.593,-49.69
38.609,-50.83
38.625,-49.14
38.640,-44.35
38.656,-36.76
38.671,-27.23
38.687,-16.87
38.703,-6.78
38.718,2.32
38.734,10.12
38.750,16.6
38.765,21.82
38.781,25.75
38.796,28.26
38.812,29.25
38.828,28.8
38.843,27.29
38.859,25.28
38.875,23.34
38.890,21.86
38.906,20.96
38.921,20.49
38.937,20.22
38.953,19.98
38.968,19.67
38.984,19.27
39.000,18.76
39.015,18.04
39.031,16.96
39.046,15.41
39.062,13.33
39.078,10.79
39.093,7.97
39.109,5.05
39.125,2.15
39.140,-0.76
39.156,-3.82
39.171,-7.14
39.187,-10.67
39.203,-14.21
39.218,-17.47
39.234,-20.24
39.250,-22.52
39.265,-24.63
39.281,-27.05
39.296,-30.15
39.312,-34.02
39.328,-38.35
39.343,-42.48
39.359,-45.62
39.375,-47.02
39.390,-46.18
39.406,-42.9
39.421,-37.31
39.437,-29.84
39.453,-21.11
39.468,-11.88
39.484,-2.83
39.500,5.53
39.515,12.86
39.531,19.02
39.546,24.01
39.562,27.85
39.578,30.6
39.593,32.32
39.609,33.16
39.625,33.29
39.640,32.93
39.656,32.24
39.671,31.31
39.687,30.12
39.703,28.62
39.718,26.75
39.734,24.58
39.750,22.2
39.765,19.79
39.781,17.44
39.796,15.21
39.812,13.03
39.828,10.82
39.843,8.52
39.859,6.13
39.875,3.66
39.890,1.17
39.906,-1.29
39.921,-3.74
39.937,-6.16
39.953,-8.54
39.968,-10.85
39.984,-13.16
40.000,-15.61
40.015,-18.43
40.031,-21.86
40.046,-25.95
40.062,-30.51
40.078,-35.09
40.093,-39.02
40.109,-41.6
40.125,-42.22
40.140,-40.54
40.156,-36.59
40.171,-30.74
40.187,-23.61
40.203,-15.93
40.218,-8.37
40.234,-1.35
40.250,4.89
40.265,10.4
40.281,15.21
40.296,19.29
40.312,22.48
40.328,24.62
40.343,25.6
40.359,25.5
40.375,24.61
40.390,23.24
40.406,21.69
40.421,20.14
40.437,18.66
40.453,17.24
40.468,15.9
40.484,14.64
40.500,13.42
40.515,12.15
40.531,10.68
40.546,8.85
40.562,6.6
40.578,3.96
40.593,1.08
40.609,-1.87
40.625,-4.75
40.640,-7.43
40.656,-9.8
40.671,-11.8
40.687,-13.41
40.703,-14.73
40.718,-15.94
40.734,-17.33
40.750,-19.16
40.765,-21.63
40.781,-24.67
40.796,-28.12
40.812,-31.81
40.828,-35.57
40.843,-39.3
40.859,-42.81
40.875,-45.82
40.890,-47.79
40.906,-48.16
40.921,-46.4
40.937,-42.31
40.953,-36.14
40.968,-28.46
40.984,-20.07
41.000,-11.71
41.015,-3.94
41.031,2.92
41.046,8.77
41.062,13.61
41.078,17.49
41.093,20.41
41.109,22.42
41.125,23.59
41.140,24.09
41.156,24.18
41.171,24.09
41.187,24.0
41.203,23.91
41.218,23.7
41.234,23.23
41.250,22.46
41.265,21.46
41.281,20.46
41.296,19.69
41.312,19.22
41.328,18.95
41.343,18.61
41.359,17.85
41.375,16.45
41.390,14.33
41.406,11.64
41.421,8.68
41.437,5.75
41.453,3.1
41.468,0.77
41.484,-1.34
41.500,-3.42
41.515,-5.58
41.531,-7.88
41.546,-10.23
41.562,-12.52
41.578,-14.68
41.593,-16.73
41.609,-18.79
41.625,-20.96
41.640,-23.31
41.656,-25.89
41.671,-28.72
41.687,-31.81
41.703,-35.09
41.718,-38.37
41.734,-41.29
41.750,-43.38
41.765,-44.11
41.781,-43.09
41.796,-40.18
41.812,-35.57
41.828,-29.67
41.843,-23.07
41.859,-16.31
41.875,-9.84
41.890,-3.97
41.906,1.17
41.921,5.6
41.937,9.33
41.953,12.45
41.968,14.96
41.984,16.79
42.000,17.93
42.015,18.45
42.031,18.53
42.046,18.4
42.062,18.31
42.078,18.34
42.093,18.52
42.109,18.71
42.125,18.82
42.140,18.86
42.156,18.91
42.171,19.13
42.187,19.53
42.203,19.99
42.218,20.25
42.234,20.06
42.250,19.3
42.265,18.02
42.281,16.47
42.296,14.87
42.312,13.4
42.328,12.06
42.343,10.79
42.359,9.47
42.375,8.07
42.390,6.64
42.406,5.26
42.421,4.06
42.437,3.09
42.453,2.36
42.468,1.85
42.484,1.49
42.500,1.13
42.515,0.68
42.531,0.01
42.546,-0.85
42.562,-1.67
42.578,-1.99
42.593,-1.18
42.609,1.4
42.625,6.23
42.640,13.43
42.656,22.76
42.671,33.75
42.687,45.75
42.703,58.17
42.718,70.58
42.734,82.64
42.750,94.22
42.765,105.21
42.781,115.59
42.796,125.33
42.812,134.43
42.828,142.84
42.843,150.52
42.859,157.32
42.875,163.07
42.890,167.53
42.906,170.36
42.921,171.23
42.937,169.81
42.953,165.9
42.968,159.53
42.984,151.02
43.000,140.82
43.015,129.46
43.031,117.44
43.046,105.07
43.062,92.46
43.078,79.58
43.093,66.22
43.109,52.15
43.125,37.25
43.140,21.6
43.156,5.68
43.171,-9.67
43.187,-23.37
43.203,-34.47
43.218,-42.45
43.234,-47.47
43.250,-50.32
43.265,-52.19
43.281,-54.25
43.296,-57.29
43.312,-61.39
43.328,-65.86
43.343,-69.41
43.359,-70.41
43.375,-67.38
43.390,-59.42
43.406,-46.6
43.421,-30.1
43.437,-12.18
43.453,4.31
43.468,16.65
43.484,22.93
43.500,22.56
43.515,16.31
43.531,5.92
43.546,-6.4
43.562,-18.7
43.578,-29.59
43.593,-38.31
43.609,-44.54
43.625,-48.15
43.640,-49.15
43.656,-47.72
43.671,-44.34
43.687,-39.92
43.703,-35.55
43.718,-32.17
43.734,-30.34
43.750,-29.93
43.765,-30.32
43.781,-30.74
43.796,-30.54
43.812,-29.47
43.828,-27.69
43.843,-25.56
43.859,-23.41
43.875,-21.44
43.890,-19.68
43.906,-18.19
43.921,-17.09
43.937,-16.57
43.953,-16.88
43.968,-18.22
43.984,-20.73
44.000,-24.47
44.015,-29.46
44.031,-35.59
44.046,-42.54
44.062,-49.54
44.078,-55.48
44.093,-59.11
44.109,-59.4
44.125,-56.03
44.140,-49.57
44.156,-41.48
44.171,-33.67
44.187,-27.97
44.203,-25.52
44.218,-26.5
44.234,-30.0
44.250,-34.4
44.265,-37.76
44.281,-38.58
44.296,-36.35
44.312,-31.81
44.328,-26.84
44.343,-23.91
44.359,-25.31
44.375,-32.33
44.390,-44.91
44.406,-61.67
44.421,-80.43
44.437,-98.96
44.453,-115.41
44.468,-128.62
44.484,-138.06
44.500,-143.61
44.515,-145.4
44.531,-143.78
44.546,-139.36
44.562,-132.94
44.578,-125.48
44.593,-117.65
44.609,-109.77
44.625,-101.62
44.640,-92.81
44.656,-83.03
44.671,-72.58
44.687,-62.42
44.703,-53.92
44.718,-48.36
44.734,-46.27
44.750,-47.08
44.765,-49.12
44.781,-50.06
44.796,-47.62
44.812,-40.27
44.828,-27.67
44.843,-10.77
44.859,8.49
44.875,27.87
44.890,45.7
44.906,61.46
44.921,76.02
44.937,91.16
44.953,108.52
44.968,128.58
44.984,149.95
45.000,169.56
45.015,183.48
45.031,188.4
45.046,182.82
45.062,167.85
45.078,147.36
45.093,127.28
45.109,114.06
45.125,112.85
45.140,125.42
45.156,148.97
45.171,176.46
45.187,198.49
45.203,206.47
45.218,195.66
45.234,166.98
45.250,126.68
45.265,84.07
45.281,48.15
45.296,24.74
45.312,14.85
45.328,14.96
45.343,18.67
45.359,19.21
45.375,11.63
45.390,-5.99
45.406,-32.58
45.421,-65.19
45.437,-100.46
45.453,-135.73
45.468,-169.63
45.484,-202.02
45.500,-233.73
45.515,-266.3
45.531,-301.05
45.546,-338.01
45.562,-374.67
45.578,-405.58
45.593,-423.4
45.609,-421.69
45.625,-397.77
45.640,-354.51
45.656,-299.68
45.671,-243.1
45.687,-192.96
45.703,-153.44
45.718,-124.4
45.734,-102.98
45.750,-85.93
45.765,-71.15
45.781,-57.66
45.796,-45.03
45.812,-32.53
45.828,-19.37
45.843,-5.48
45.859,7.92
45.875,18.45
45.890,23.59
45.906,21.98
45.921,14.41
45.937,3.61
45.953,-6.68
45.968,-13.27
45.984,-14.64
46.000,-11.23
46.015,-4.98
46.031,1.68
46.046,6.82
46.062,9.46
46.078,9.57
46.093,7.74
46.109,4.8
46.125,1.51
46.140,-1.42
46.156,-3.53
46.171,-4.55
46.187,-4.52
46.203,-3.81
46.218,-3.18
46.234,-3.46
46.250,-5.24
46.265,-8.41
46.281,-11.82
46.296,-13.5
46.312,-11.02
46.328,-2.31
46.343,13.51
46.359,35.71
46.375,61.92
46.390,88.68
46.406,112.22
46.421,129.53
46.437,139.01
46.453,140.8
46.468,136.52
46.484,128.65
46.500,119.68
46.515,111.42
46.531,104.52
46.546,98.47
46.562,91.93
46.578,83.25
46.593,71.31
46.609,56.18
46.625,39.43
46.640,23.89
46.656,12.63
46.671,7.74
46.687,9.23
46.703,14.94
46.718,21.4
46.734,25.4
46.750,25.6
46.765,22.85
46.781,19.61
46.796,18.45
46.812,20.66
46.828,25.76
46.843,31.98
46.859,37.38
46.875,40.81
46.890,42.25
46.906,42.35
46.921,41.99
46.937,41.72
46.953,41.61
46.968,41.38
46.984,40.54
47.000,38.41
47.015,33.95
47.031,25.85
47.046,12.95
47.062,-5.18
47.078,-27.67
47.093,-52.52
47.109,-76.96
47.125,-98.32
47.140,-114.49
47.156,-124.14
47.171,-126.42
47.187,-120.82
47.203,-107.25
47.218,-86.47
47.234,-60.6
47.250,-33.04
47.265,-7.98
47.281,10.88
47.296,21.55
47.312,24.46
47.328,22.22
47.343,18.62
47.359,17.37
47.375,20.86
47.390,29.81
47.406,43.3
47.421,59.43
47.437,76.07
47.453,91.45
47.468,104.46
47.484,114.71
47.500,122.58
47.515,128.85
47.531,134.19
47.546,138.7
47.562,141.26
47.578,139.67
47.593,131.07
47.609,112.87
47.625,83.48
47.640,42.71
47.656,-8.0
47.671,-65.49
47.687,-124.67
47.703,-178.69
47.718,-220.09
47.734,-242.86
47.750,-244.68
47.765,-228.27
47.781,-200.96
47.796,-171.96
47.812,-148.95
47.828,-135.29
47.843,-129.47
47.859,-126.59
47.875,-121.23
47.890,-109.74
47.906,-91.22
47.921,-67.06
47.937,-39.59
47.953,-11.02
47.968,16.99
47.984,43.27
48.000,66.83
48.015,86.84
48.031,102.43
48.046,113.06
48.062,118.58
48.078,119.43
48.093,116.59
48.109,111.36
48.125,104.99
48.140,98.32
48.156,91.51
48.171,84.21
48.187,75.91
48.203,66.51
48.218,56.69
48.234,47.56
48.250,40.1
48.265,34.32
48.281,29.1
48.296,22.6
48.312,13.33
48.328,1.0
48.343,-13.01
48.359,-26.01
48.375,-35.07
48.390,-38.15
48.406,-34.91
48.421,-27.07
48.437,-17.91
48.453,-11.41
48.468,-11.15
48.484,-19.3
48.500,-36.02
48.515,-59.42
48.531,-85.95
48.546,-111.27
48.562,-131.49
48.578,-144.11
48.593,-148.73
48.609,-146.85
48.625,-141.06
48.640,-133.77
48.656,-126.25
48.671,-118.11
48.687,-107.97
48.703,-94.51
48.718,-77.27
48.734,-56.96
48.750,-35.04
48.765,-12.99
48.781,8.06
48.796,27.13
48.812,42.84
48.828,53.06
48.843,55.34
48.859,48.06
48.875,31.69
48.890,9.15
48.906,-14.67
48.921,-34.68
48.937,-47.37
48.953,-51.96
48.968,-50.31
48.984,-45.83
49.000,-41.83
49.015,-40.25
49.031,-41.24
49.046,-43.5
49.062,-45.42
49.078,-45.92
49.093,-44.87
49.109,-42.9
49.125,-40.84
49.140,-39.3
49.156,-38.41
49.171,-38.02
49.187,-37.88
49.203,-38.04
49.218,-38.77
49.234,-40.43
49.250,-43.12
49.265,-46.63
49.281,-50.33
49.296,-53.54
49.312,-55.87
49.328,-57.51
49.343,-59.13
49.359,-61.57
49.375,-65.28
49.390,-69.8
49.406,-73.75
49.421,-75.03
49.437,-71.6
49.453,-62.17
49.468,-46.7
49.484,-26.45
49.500,-3.45
49.515,20.16
49.531,42.73
49.546,63.54
49.562,82.56
49.578,100.25
49.593,117.11
49.609,133.45
49.625,149.36
49.640,164.75
49.656,179.56
49.671,193.78
49.687,207.57
49.703,221.0
49.718,234.01
49.734,246.26
49.750,257.16
49.765,266.16
49.781,273.09
49.796,278.47
49.812,283.31
49.828,288.58
49.843,294.23
49.859,298.6
49.875,298.45
49.890,289.95
49.906,269.96
49.921,237.2
49.937,192.71
49.953,139.5
49.968,81.84
49.984,24.54
50.000,-27.6
50.015,-70.25
50.031,-100.19
50.046,-116.07
50.062,-119.0
50.078,-112.46
50.093,-101.39
50.109,-90.62
50.125,-83.22
50.140,-79.82
50.156,-78.74
50.171,-77.11
50.187,-72.22
50.203,-62.67
50.218,-48.76
50.234,-32.36
50.250,-16.28
50.265,-3.62
50.281,2.88
50.296,1.66
50.312,-7.17
50.328,-21.67
50.343,-38.36
50.359,-53.23
50.375,-63.03
50.390,-66.31
50.406,-63.83
50.421,-58.02
50.437,-51.73
50.453,-47.14
50.468,-45.04
50.484,-45.06
50.500,-46.28
50.515,-47.96
50.531,-49.58
50.546,-50.57
50.562,-49.85
50.578,-45.97
50.593,-37.66
50.609,-24.71
50.625,-8.41
50.640,8.67
50.656,23.62
50.671,34.48
50.687,40.99
50.703,44.55
50.718,47.45
50.734,51.71
50.750,58.4
50.765,67.4
50.781,77.77
50.796,88.14
50.812,96.95
50.828,102.35
50.843,102.22
50.859,94.5
50.875,77.77
50.890,51.94
50.906,18.49
50.921,-19.9
50.937,-60.16
50.953,-99.61
50.968,-136.29
50.984,-168.6
51.000,-194.75
51.015,-212.45
51.031,-219.16
51.046,-212.92
51.062,-193.3
51.078,-161.96
51.093,-122.63
51.109,-80.24
51.125,-39.71
51.140,-4.77
51.156,22.72
51.171,42.81
51.187,56.85
51.203,66.67
51.218,73.92
51.234,79.73
51.250,85.05
51.265,91.16
51.281,99.91
51.296,113.33
51.312,132.64
51.328,157.13
51.343,183.77
51.359,207.89
51.375,224.64
51.390,230.88
51.406,226.22
51.421,213.18
51.437,196.41
51.453,181.16
51.468,171.59
51.484,169.28
51.500,172.64
51.515,177.22
51.531,177.17
51.546,167.21
51.562,144.41
51.578,109.09
51.593,64.2
51.609,13.97
51.625,-37.56
51.640,-87.18
51.656,-132.52
51.671,-171.64
51.687,-203.05
51.703,-226.21
51.718,-241.97
51.734,-252.37
51.750,-259.59
51.765,-264.46
51.781,-265.57
51.796,-259.91
51.812,-244.25
51.828,-217.15
51.843,-179.93
51.859,-136.28
51.875,-90.93
51.890,-47.85
51.906,-9.23
51.921,24.62
51.937,54.39
51.953,80.83
51.968,103.88
51.984,122.61
52.000,135.86
52.015,142.94
52.031,144.27
52.046,141.35
52.062,136.33
52.078,131.25
52.093,127.26
52.109,124.3
52.125,121.22
52.140,116.26
52.156,107.65
52.171,93.81
52.187,73.65
52.203,46.71
52.218,13.54
52.234,-23.97
52.250,-62.46
52.265,-97.79
52.281,-126.14
52.296,-145.29
52.312,-155.42
52.328,-158.65
52.343,-158.04
52.359,-156.18
52.375,-154.37
52.390,-152.66
52.406,-150.63
52.421,-148.09
52.437,-145.39
52.453,-143.04
52.468,-141.17
52.484,-139.35
52.500,-136.97
52.515,-133.71
52.531,-130.02
52.546,-127.0
52.562,-125.83
52.578,-127.02
52.593,-129.97
52.609,-132.99
52.625,-133.9
52.640,-130.83
52.656,-122.92
52.671,-110.56
52.687,-95.28
52.703,-79.1
52.718,-63.83
52.734,-50.58
52.750,-39.62
52.765,-30.56
52.781,-22.83
52.796,-15.97
52.812,-9.74
52.828,-4.12
52.843,0.88
52.859,5.46
52.875,9.87
52.890,14.47
52.906,19.5
52.921,25.08
52.937,31.2
52.953,37.76
52.968,44.48
52.984,51.05
53.000,57.04
53.015,62.01
53.031,65.71
53.046,68.07
53.062,69.37
53.078,70.01
53.093,70.35
53.109,70.63
53.125,70.95
53.140,71.3
53.156,71.78
53.171,72.57
53.187,73.9
53.203,75.87
53.218,78.3
53.234,80.77
53.250,82.85
53.265,84.28
53.281,84.98
53.296,85.05
53.312,84.46
53.328,83.03
53.343,80.51
53.359,76.82
53.375,72.26
53.390,67.58
53.406,63.69
53.421,61.36
53.437,60.97
53.453,62.42
53.468,65.34
53.484,69.27
53.500,73.82
53.515,78.7
53.531,83.74
53.546,88.79
53.562,93.85
53.578,99.1
53.593,104.78
53.609,110.94
53.625,117.33
53.640,123.32
53.656,128.08
53.671,131.1
53.687,132.42
53.703,132.84
53.718,133.61
53.734,135.83
53.750,139.69
53.765,144.28
53.781,147.65
53.796,147.6
53.812,142.46
53.828,131.58
53.843,115.57
53.859,96.03
53.875,75.1
53.890,55.03
53.906,37.62
53.921,23.84
53.937,13.48
53.953,5.2
53.968,-2.95
53.984,-12.47
54.000,-23.42
54.015,-34.24
54.031,-42.31
54.046,-45.79
54.062,-45.01
54.078,-43.14
54.093,-45.27
54.109,-56.6
54.125,-80.5
54.140,-117.15
54.156,-163.21
54.171,-212.44
54.187,-257.06
54.203,-289.53
54.218,-304.53
54.234,-300.31
54.250,-279.23
54.265,-246.91
54.281,-210.35
54.296,-175.73
54.312,-146.87
54.328,-124.9
54.343,-109.12
54.359,-98.25
54.375,-91.17
54.390,-86.9
54.406,-84.25
54.421,-81.51
54.437,-76.86
54.453,-69.07
54.468,-58.21
54.484,-45.69
54.500,-33.64
54.515,-24.03
54.531,-17.8
54.546,-14.64
54.562,-13.17
54.578,-11.71
54.593,-9.04
54.609,-4.81
54.625,0.45
54.640,5.59
54.656,9.45
54.671,11.37
54.687,11.34
54.703,10.08
54.718,8.57
54.734,7.69
54.750,7.9
54.765,9.09
54.781,10.66
54.796,11.91
54.812,12.34
54.828,11.82
54.843,10.59
54.859,9.06
54.875,7.63
54.890,6.64
54.906,6.48
54.921,7.72
54.937,11.12
54.953,17.53
54.968,27.54
54.984,41.19
55.000,57.78
55.015,76.0
55.031,94.18
55.046,110.58
55.062,123.53
55.078,131.57
55.093,133.27
55.109,127.31
55.125,112.94
55.140,90.55
55.156,62.19
55.171,31.76
55.187,4.24
55.203,-15.45
55.218,-23.9
55.234,-20.06
55.250,-5.47
55.265,16.08
55.281,39.4
55.296,58.65
55.312,68.25
55.328,63.6
55.343,41.95
55.359,3.38
55.375,-48.61
55.390,-107.22
55.406,-163.64
55.421,-209.21
55.437,-237.81
55.453,-247.48
55.468,-240.71
55.484,-223.27
55.500,-201.98
55.515,-182.7
55.531,-168.93
55.546,-161.59
55.562,-159.84
55.578,-162.0
55.593,-166.32
55.609,-171.08
55.625,-174.44
55.640,-174.39
55.656,-169.07
55.671,-157.45
55.687,-139.77
55.703,-117.64
55.718,-93.62
55.734,-70.29
55.750,-49.34
55.765,-31.16
55.781,-15.01
55.796,0.3
55.812,15.7
55.828,31.37
55.843,46.63
55.859,60.39
55.875,71.65
55.890,79.95
55.906,85.37
55.921,88.42
55.937,89.67
55.953,89.6
55.968,88.51
55.984,86.61
56.000,84.05
56.015,80.97
56.031,77.46
56.046,73.64
56.062,69.64
56.078,65.63
56.093,61.74
56.109,58.09
56.125,54.67
56.140,51.41
56.156,48.22
56.171,45.07
56.187,41.81
56.203,38.14
56.218,33.47
56.234,26.9
56.250,17.55
56.265,4.93
56.281,-10.76
56.296,-28.5
56.312,-46.51
56.328,-62.68
56.343,-74.91
56.359,-81.58
56.375,-81.88
56.390,-75.84
56.406,-64.43
56.421,-49.2
56.437,-31.95
56.453,-14.25
56.468,2.81
56.484,18.74
56.500,33.43
56.515,46.91
56.531,59.18
56.546,70.05
56.562,79.42
56.578,87.33
56.593,94.08
56.609,100.03
56.625,105.49
56.640,110.6
56.656,115.28
56.671,119.42
56.687,122.75
56.703,124.93
56.718,125.49
56.734,123.73
56.750,118.94
56.765,110.65
56.781,98.89
56.796,84.31
56.812,68.11
56.828,51.68
56.843,36.29
56.859,22.91
56.875,12.18
56.890,4.4
56.906,-0.28
56.921,-2.02
56.937,-1.37
56.953,0.76
56.968,3.11
56.984,4.52
57.000,4.26
57.015,2.44
57.031,0.15
57.046,-0.87
57.062,1.2
57.078,7.61
57.093,18.69
57.109,33.71
57.125,51.29
57.140,69.91
57.156,88.37
57.171,106.05
57.187,122.85
57.203,138.81
57.218,153.8
57.234,167.42
57.250,178.95
57.265,187.6
57.281,192.88
57.296,194.88
57.312,194.5
57.328,193.34
57.343,193.33
57.359,196.16
57.375,202.79
57.390,212.97
57.406,225.32
57.421,237.65
57.437,247.7
57.453,253.77
57.468,255.46
57.484,253.78
57.500,250.8
57.515,248.75
57.531,248.66
57.546,249.63
57.562,248.76
57.578,242.2
57.593,226.74
57.609,201.37
57.625,167.73
57.640,129.45
57.656,90.7
57.671,54.55
57.687,22.19
57.703,-6.91
57.718,-34.44
57.734,-62.53
57.750,-93.23
57.765,-128.11
57.781,-167.4
57.796,-208.95
57.812,-247.72
57.828,-276.54
57.843,-288.29
57.859,-278.95
57.875,-249.94
57.890,-208.46
57.906,-165.41
57.921,-131.84
57.937,-115.41
57.953,-118.56
57.968,-138.59
57.984,-169.28
58.000,-203.04
58.015,-232.67
58.031,-252.69
58.046,-260.17
58.062,-255.23
58.078,-241.01
58.093,-222.74
58.109,-206.21
58.125,-195.88
58.140,-193.47
58.156,-197.77
58.171,-205.33
58.187,-212.09
58.203,-214.66
58.218,-211.11
58.234,-201.12
58.250,-185.67
58.265,-166.61
58.281,-146.23
58.296,-126.82
58.312,-110.16
58.328,-97.17
58.343,-87.69
58.359,-80.61
58.375,-74.3
58.390,-67.3
58.406,-58.81
58.421,-48.89
58.437,-38.44
58.453,-28.64
58.468,-20.56
58.484,-14.72
58.500,-11.0
58.515,-8.64
58.531,-6.61
58.546,-3.89
58.562,0.16
58.578,5.55
58.593,11.76
58.609,17.88
58.625,22.94
58.640,26.27
58.656,27.81
58.671,28.07
58.687,28.08
58.703,29.01
58.718,31.96
58.734,37.63
58.750,46.22
58.765,57.25
58.781,69.73
58.796,82.36
58.812,93.82
58.828,103.17
58.843,110.13
58.859,115.05
58.875,118.81
58.890,122.53
58.906,127.15
58.921,133.22
58.937,140.84
58.953,149.63
58.968,158.93
58.984,167.88
59.000,175.46
59.015,180.72
59.031,182.93
59.046,181.87
59.062,178.06
59.078,172.71
59.093,167.43
59.109,163.65
59.125,161.9
59.140,161.25
59.156,159.22
59.171,152.5
59.187,138.29
59.203,115.95
59.218,88.0
59.234,59.82
59.250,38.16
59.265,28.61
59.281,33.39
59.296,50.25
59.312,73.1
59.328,94.08
59.343,106.09
59.359,104.7
59.375,88.72
59.390,59.76
59.406,21.32
59.421,-21.99
59.437,-64.97
59.453,-102.34
59.468,-129.58
59.484,-143.99
59.500,-145.61
59.515,-137.26
59.531,-123.49
59.546,-108.81
59.562,-96.08
59.578,-86.03
59.593,-77.86
59.609,-70.6
59.625,-64.13
59.640,-59.27
59.656,-57.03
59.671,-57.56
59.687,-59.92
59.703,-62.72
59.718,-65.21
59.734,-67.86
59.750,-72.03
59.765,-78.74
59.781,-87.33
59.796,-95.2
59.812,-98.65
59.828,-94.65
59.843,-82.34
59.859,-63.57
59.875,-42.14
59.890,-22.42
59.906,-7.8
59.921,0.13
59.937,1.65
59.953,-1.55
59.968,-7.21
59.984,-13.29
