timestamp,value
00.000,7.7
00.015,16.64
00.031,25.08
00.046,32.75
00.062,39.55
00.078,45.48
00.093,50.64
00.109,55.4
00.125,60.33
00.140,66.16
00.156,73.44
00.171,82.31
00.187,92.39
00.203,102.92
00.218,113.14
00.234,122.6
00.250,131.39
00.265,140.04
00.281,149.48
00.296,160.86
00.312,175.32
00.328,193.72
00.343,216.16
00.359,241.71
00.375,268.26
00.390,292.93
00.406,312.66
00.421,325.01
00.437,328.93
00.453,324.86
00.468,314.42
00.484,299.75
00.500,282.69
00.515,264.27
00.531,244.73
00.546,223.8
00.562,201.23
00.578,177.18
00.593,152.39
00.609,127.9
00.625,104.59
00.640,82.83
00.656,62.49
00.671,43.35
00.687,25.67
00.703,10.37
00.718,-1.32
00.734,-8.47
00.750,-10.97
00.765,-9.86
00.781,-7.08
00.796,-4.72
00.812,-4.44
00.828,-7.09
00.843,-12.85
00.859,-21.52
00.875,-32.77
00.890,-46.02
00.906,-60.22
00.921,-73.68
00.937,-84.16
00.953,-89.4
00.968,-87.8
00.984,-78.91
01.000,-63.41
01.015,-42.77
01.031,-18.68
01.046,7.18
01.062,33.13
01.078,57.16
01.093,76.88
01.109,89.91
01.125,94.61
01.140,90.74
01.156,79.57
01.171,63.31
01.187,44.29
01.203,24.18
01.218,3.68
01.234,-17.35
01.250,-39.24
01.265,-62.08
01.281,-85.57
01.296,-109.15
01.312,-132.3
01.328,-154.77
01.343,-176.65
01.359,-198.35
01.375,-220.36
01.390,-242.93
01.406,-265.58
01.421,-286.8
01.437,-303.96
01.453,-313.85
01.468,-313.64
01.484,-302.14
01.500,-280.53
01.515,-252.21
01.531,-221.73
01.546,-193.25
01.562,-169.41
01.578,-150.93
01.593,-137.26
01.609,-127.38
01.625,-120.37
01.640,-115.26
01.656,-110.58
01.671,-104.11
01.687,-93.4
01.703,-76.83
01.718,-54.63
01.734,-29.0
01.750,-3.12
01.765,20.43
01.781,40.95
01.796,59.74
01.812,78.86
01.828,99.41
01.843,120.23
01.859,138.0
01.875,148.52
01.890,148.58
01.906,137.32
01.921,116.35
01.937,88.84
01.953,58.08
01.968,26.36
01.984,-5.45
02.000,-37.41
02.015,-69.77
02.031,-102.35
02.046,-134.33
02.062,-164.51
02.078,-191.84
02.093,-215.74
02.109,-236.32
02.125,-254.01
02.140,-269.16
02.156,-281.44
02.171,-289.6
02.187,-291.72
02.203,-286.05
02.218,-272.06
02.234,-251.12
02.250,-226.32
02.265,-201.5
02.281,-179.78
02.296,-162.55
02.312,-149.37
02.328,-138.7
02.343,-129.13
02.359,-120.18
02.375,-112.42
02.390,-106.86
02.406,-104.07
02.421,-103.64
02.437,-104.33
02.453,-104.63
02.468,-103.42
02.484,-100.42
02.500,-96.08
02.515,-91.24
02.531,-86.71
02.546,-82.96
02.562,-80.04
02.578,-77.79
02.593,-75.92
02.609,-74.22
02.625,-72.56
02.640,-70.82
02.656,-68.8
02.671,-66.22
02.687,-62.73
02.703,-58.06
02.718,-52.11
02.734,-44.93
02.750,-36.71
02.765,-27.81
02.781,-18.68
02.796,-9.92
02.812,-2.31
02.828,3.29
02.843,5.98
02.859,4.97
02.875,-0.4
02.890,-10.35
02.906,-24.47
02.921,-41.45
02.937,-59.09
02.953,-74.68
02.968,-85.74
02.984,-90.76
03.000,-89.64
03.015,-83.6
03.031,-74.58
03.046,-64.52
03.062,-54.72
03.078,-45.66
03.093,-37.31
03.109,-29.41
03.125,-21.82
03.140,-14.53
03.156,-7.55
03.171,-0.8
03.187,5.95
03.203,12.96
03.218,20.42
03.234,28.38
03.250,36.68
03.265,44.99
03.281,52.85
03.296,59.73
03.312,65.12
03.328,68.73
03.343,70.46
03.359,70.45
03.375,68.94
03.390,66.08
03.406,61.84
03.421,56.07
03.437,48.56
03.453,39.28
03.468,28.56
03.484,17.06
03.500,5.64
03.515,-4.81
03.531,-13.64
03.546,-20.56
03.562,-25.64
03.578,-29.32
03.593,-32.22
03.609,-34.97
03.625,-37.97
03.640,-41.14
03.656,-43.82
03.671,-44.84
03.687,-42.86
03.703,-36.77
03.718,-26.09
03.734,-11.08
03.750,7.45
03.765,28.46
03.781,51.02
03.796,74.43
03.812,98.15
03.828,121.61
03.843,144.05
03.859,164.56
03.875,182.25
03.890,196.47
03.906,206.99
03.921,214.14
03.937,218.74
03.953,222.16
03.968,225.99
03.984,231.55
04.000,239.33
04.015,248.36
04.031,256.22
04.046,259.61
04.062,255.6
04.078,242.86
04.093,222.47
04.109,197.62
04.125,172.34
04.140,149.93
04.156,131.71
04.171,117.07
04.187,104.3
04.203,91.91
04.218,79.31
04.234,66.55
04.250,53.49
04.265,39.11
04.281,21.68
04.296,-0.26
04.312,-26.76
04.328,-56.02
04.343,-85.21
04.359,-111.7
04.375,-134.02
04.390,-151.72
04.406,-164.59
04.421,-171.78
04.437,-172.0
04.453,-164.55
04.468,-150.51
04.484,-133.13
04.500,-116.57
04.515,-104.07
04.531,-96.36
04.546,-91.73
04.562,-87.34
04.578,-81.39
04.593,-74.4
04.609,-68.93
04.625,-68.04
04.640,-73.14
04.656,-83.08
04.671,-94.27
04.687,-102.29
04.703,-103.72
04.718,-97.48
04.734,-85.25
04.750,-70.72
04.765,-58.18
04.781,-51.06
04.796,-51.14
04.812,-58.09
04.828,-69.92
04.843,-83.37
04.859,-94.56
04.875,-99.64
04.890,-95.5
04.906,-80.72
04.921,-56.31
04.937,-26.16
04.953,3.61
04.968,26.2
04.984,36.13
05.000,30.89
05.015,11.6
05.031,-17.47
05.046,-50.25
05.062,-80.34
05.078,-102.2
05.093,-111.83
05.109,-107.16
05.125,-88.27
05.140,-57.36
05.156,-18.38
05.171,23.81
05.187,64.53
05.203,100.32
05.218,129.5
05.234,151.98
05.250,168.5
05.265,179.65
05.281,185.32
05.296,184.68
05.312,176.88
05.328,162.13
05.343,142.35
05.359,121.39
05.375,104.16
05.390,95.17
05.406,96.82
05.421,108.25
05.437,125.08
05.453,140.45
05.468,147.13
05.484,139.91
05.500,117.33
05.515,82.02
05.531,39.44
05.546,-4.45
05.562,-45.31
05.578,-81.42
05.593,-113.28
05.609,-142.12
05.625,-168.67
05.640,-192.76
05.656,-213.79
05.671,-231.79
05.687,-247.72
05.703,-263.07
05.718,-278.97
05.734,-295.49
05.750,-311.6
05.765,-325.52
05.781,-335.32
05.796,-339.08
05.812,-335.06
05.828,-321.78
05.843,-298.36
05.859,-264.83
05.875,-222.33
05.890,-172.89
05.906,-119.03
05.921,-63.49
05.937,-9.1
05.953,41.23
05.968,84.77
05.984,119.41
06.000,144.29
06.015,160.14
06.031,169.19
06.046,174.41
06.062,178.67
06.078,183.83
06.093,190.16
06.109,196.13
06.125,198.59
06.140,193.61
06.156,177.75
06.171,149.63
06.187,111.01
06.203,66.78
06.218,23.71
06.234,-11.62
06.250,-34.82
06.265,-44.65
06.281,-42.79
06.296,-32.59
06.312,-17.69
06.328,-1.01
06.343,15.48
06.359,30.7
06.375,44.24
06.390,56.39
06.406,68.17
06.421,80.91
06.437,95.27
06.453,110.24
06.468,122.49
06.484,126.81
06.500,117.76
06.515,91.93
06.531,49.67
06.546,-4.36
06.562,-62.23
06.578,-114.91
06.593,-154.53
06.609,-176.16
06.625,-178.5
06.640,-163.55
06.656,-135.65
06.671,-100.31
06.687,-63.01
06.703,-28.27
06.718,0.97
06.734,23.52
06.750,39.67
06.765,50.63
06.781,57.84
06.796,62.34
06.812,64.47
06.828,63.92
06.843,59.96
06.859,51.87
06.875,39.34
06.890,22.82
06.906,3.61
06.921,-16.26
06.937,-34.61
06.953,-49.63
06.968,-60.45
06.984,-67.29
07.000,-71.13
07.015,-73.18
07.031,-74.25
07.046,-74.55
07.062,-73.77
07.078,-71.62
07.093,-68.12
07.109,-63.71
07.125,-59.04
07.140,-54.65
07.156,-50.67
07.171,-46.91
07.187,-43.02
07.203,-38.85
07.218,-34.57
07.234,-30.65
07.250,-27.8
07.265,-26.67
07.281,-27.68
07.296,-30.71
07.312,-34.82
07.328,-38.27
07.343,-38.64
07.359,-33.42
07.375,-20.65
07.390,0.4
07.406,29.07
07.421,63.52
07.437,101.37
07.453,140.34
07.468,178.65
07.484,215.03
07.500,248.53
07.515,278.41
07.531,304.23
07.546,326.01
07.562,344.42
07.578,360.29
07.593,373.98
07.609,384.71
07.625,390.49
07.640,388.73
07.656,377.39
07.671,355.93
07.687,325.52
07.703,288.38
07.718,246.92
07.734,203.25
07.750,159.48
07.765,118.35
07.781,83.35
07.796,57.96
07.812,44.23
07.828,41.64
07.843,47.06
07.859,56.17
07.875,65.37
07.890,73.19
07.906,80.24
07.921,87.89
07.937,96.45
07.953,104.07
07.968,107.17
07.984,101.93
08.000,86.09
08.015,59.99
08.031,26.44
08.046,-10.48
08.062,-46.97
08.078,-80.81
08.093,-111.87
08.109,-141.7
08.125,-172.42
08.140,-205.32
08.156,-239.74
08.171,-272.64
08.187,-299.11
08.203,-313.76
08.218,-312.72
08.234,-295.26
08.250,-264.52
08.265,-226.75
08.281,-189.42
08.296,-158.67
08.312,-137.61
08.328,-125.88
08.343,-120.78
08.359,-119.14
08.375,-118.92
08.390,-119.71
08.406,-122.08
08.421,-126.38
08.437,-131.84
08.453,-136.65
08.468,-138.87
08.484,-137.39
08.500,-132.45
08.515,-125.31
08.531,-117.3
08.546,-109.0
08.562,-99.88
08.578,-88.84
08.593,-75.09
08.609,-58.98
08.625,-42.2
08.640,-27.33
08.656,-16.87
08.671,-12.38
08.687,-13.93
08.703,-20.21
08.718,-29.07
08.734,-38.21
08.750,-45.83
08.765,-50.85
08.781,-53.0
08.796,-52.66
08.812,-50.64
08.828,-47.96
08.843,-45.62
08.859,-44.35
08.875,-44.59
08.890,-46.48
08.906,-49.96
08.921,-54.85
08.937,-60.78
08.953,-66.91
08.968,-71.67
08.984,-72.87
09.000,-68.18
09.015,-55.88
09.031,-35.63
09.046,-8.7
09.062,22.38
09.078,54.83
09.093,86.59
09.109,116.92
09.125,146.28
09.140,175.62
09.156,205.59
09.171,235.86
09.187,265.17
09.203,291.7
09.218,313.92
09.234,331.06
09.250,343.58
09.265,352.94
09.281,361.23
09.296,370.43
09.312,381.42
09.328,393.41
09.343,403.71
09.359,408.35
09.375,403.25
09.390,385.71
09.406,355.6
09.421,315.67
09.437,270.96
09.453,227.08
09.468,188.44
09.484,156.74
09.500,130.6
09.515,106.36
09.531,79.56
09.546,46.6
09.562,6.04
09.578,-40.89
09.593,-90.5
09.609,-137.6
09.625,-177.03
09.640,-205.12
09.656,-220.89
09.671,-226.3
09.687,-225.63
09.703,-224.16
09.718,-226.54
09.734,-235.58
09.750,-251.65
09.765,-272.73
09.781,-295.01
09.796,-313.8
09.812,-324.5
09.828,-323.7
09.843,-310.1
09.859,-284.92
09.875,-251.56
09.890,-214.35
09.906,-177.17
09.921,-142.25
09.937,-110.1
09.953,-80.12
09.968,-51.74
09.984,-25.04
10.000,-0.66
10.015,20.79
10.031,39.43
10.046,56.02
10.062,71.4
10.078,85.58
10.093,97.36
10.109,104.83
10.125,106.34
10.140,101.85
10.156,93.22
10.171,83.65
10.187,76.34
10.203,73.18
10.218,74.08
10.234,77.39
10.250,80.85
10.265,82.76
10.281,82.53
10.296,80.41
10.312,76.87
10.328,72.02
10.343,65.5
10.359,56.9
10.375,46.42
10.390,35.09
10.406,24.44
10.421,15.66
10.437,8.8
10.453,2.62
10.468,-4.94
10.484,-15.77
10.500,-30.77
10.515,-49.58
10.531,-70.95
10.546,-93.34
10.562,-115.47
10.578,-136.28
10.593,-154.59
10.609,-168.73
10.625,-176.57
10.640,-176.06
10.656,-166.08
10.671,-147.11
10.687,-121.53
10.703,-93.19
10.718,-66.3
10.734,-44.31
10.750,-28.82
10.765,-19.3
10.781,-13.42
10.796,-8.14
10.812,-0.86
10.828,9.72
10.843,23.39
10.859,38.87
10.875,54.52
10.890,69.12
10.906,82.15
10.921,93.81
10.937,104.83
10.953,116.27
10.968,129.39
10.984,145.32
11.000,164.43
11.015,185.6
11.031,205.66
11.046,219.78
11.062,222.72
11.078,210.74
11.093,183.07
11.109,142.26
11.125,93.23
11.140,41.55
11.156,-8.0
11.171,-52.14
11.187,-88.97
11.203,-117.63
11.218,-138.25
11.234,-152.19
11.250,-162.07
11.265,-171.15
11.281,-182.12
11.296,-195.88
11.312,-211.18
11.328,-225.25
11.343,-235.31
11.359,-239.93
11.375,-239.52
11.390,-235.93
11.406,-231.3
11.421,-227.13
11.437,-223.72
11.453,-220.26
11.468,-215.18
11.484,-206.62
11.500,-192.94
11.515,-172.99
11.531,-146.57
11.546,-114.55
11.562,-78.86
11.578,-42.09
11.593,-6.75
11.609,25.36
11.625,53.52
11.640,77.99
11.656,99.54
11.671,118.8
11.687,135.89
11.703,150.47
11.718,161.98
11.734,169.99
11.750,174.4
11.765,175.32
11.781,172.94
11.796,167.58
11.812,159.81
11.828,150.74
11.843,141.95
11.859,135.12
11.875,131.43
11.890,131.09
11.906,133.15
11.921,136.0
11.937,138.01
11.953,138.14
11.968,136.21
11.984,132.68
12.000,128.23
12.015,123.31
12.031,117.91
12.046,111.59
12.062,103.72
12.078,93.72
12.093,81.26
12.109,66.33
12.125,49.15
12.140,30.19
12.156,10.0
12.171,-10.74
12.187,-31.32
12.203,-50.96
12.218,-68.85
12.234,-84.2
12.250,-96.14
12.265,-103.67
12.281,-105.69
12.296,-101.09
12.312,-89.15
12.328,-69.89
12.343,-44.37
12.359,-14.65
12.375,16.53
12.390,46.37
12.406,72.72
12.421,94.34
12.437,111.03
12.453,123.38
12.468,132.38
12.484,139.3
12.500,145.4
12.515,151.82
12.531,159.24
12.546,167.51
12.562,175.32
12.578,180.42
12.593,180.19
12.609,172.71
12.625,157.53
12.640,135.99
12.656,110.57
12.671,84.04
12.687,58.51
12.703,35.17
12.718,14.6
12.734,-2.88
12.750,-17.11
12.765,-28.4
12.781,-37.98
12.796,-48.07
12.812,-61.24
12.828,-79.35
12.843,-102.59
12.859,-129.08
12.875,-155.58
12.890,-178.87
12.906,-197.03
12.921,-210.21
12.937,-220.37
12.953,-230.41
12.968,-243.08
12.984,-260.09
13.000,-281.85
13.015,-307.26
13.031,-333.72
13.046,-357.25
13.062,-372.96
13.078,-376.13
13.093,-363.54
13.109,-334.82
13.125,-292.81
13.140,-242.75
13.156,-190.48
13.171,-140.65
13.187,-95.67
13.203,-55.95
13.218,-21.14
13.234,8.83
13.250,33.25
13.265,51.21
13.281,62.45
13.296,67.99
13.312,69.98
13.328,70.8
13.343,72.17
13.359,74.61
13.375,77.76
13.390,80.83
13.406,83.31
13.421,85.31
13.437,87.31
13.453,89.88
13.468,93.22
13.484,97.06
13.500,100.8
13.515,103.75
13.531,105.48
13.546,105.79
13.562,104.79
13.578,102.65
13.593,99.55
13.609,95.73
13.625,91.53
13.640,87.5
13.656,84.23
13.671,82.25
13.687,81.81
13.703,82.78
13.718,84.73
13.734,87.08
13.750,89.26
13.765,90.88
13.781,91.64
13.796,91.36
13.812,89.91
13.828,87.4
13.843,84.25
13.859,81.18
13.875,79.14
13.890,78.91
13.906,80.85
13.921,84.71
13.937,89.67
13.953,94.65
13.968,98.66
13.984,101.12
14.000,102.0
14.015,101.68
14.031,100.65
14.046,99.17
14.062,97.1
14.078,94.06
14.093,89.82
14.109,84.91
14.125,80.87
14.140,79.95
14.156,84.13
14.171,93.91
14.187,107.54
14.203,121.25
14.218,130.54
14.234,131.78
14.250,123.32
14.265,105.67
14.281,80.91
14.296,51.99
14.312,22.42
14.328,-3.73
14.343,-22.27
14.359,-30.08
14.375,-26.78
14.390,-15.79
14.406,-4.0
14.421,0.53
14.437,-8.42
14.453,-32.96
14.468,-70.89
14.484,-117.49
14.500,-168.08
14.515,-219.79
14.531,-271.55
14.546,-322.66
14.562,-371.09
14.578,-412.6
14.593,-441.58
14.609,-452.75
14.625,-443.12
14.640,-412.93
14.656,-365.26
14.671,-304.79
14.687,-236.56
14.703,-165.19
14.718,-94.91
14.734,-29.94
14.750,25.64
14.765,68.41
14.781,96.7
14.796,111.3
14.812,115.41
14.828,113.53
14.843,110.01
14.859,107.82
14.875,108.11
14.890,110.74
14.906,115.02
14.921,120.51
14.937,127.3
14.953,135.94
14.968,147.09
14.984,161.02
15.000,177.19
15.015,193.91
15.031,208.5
15.046,217.81
15.062,219.23
15.078,211.6
15.093,195.55
15.109,173.22
15.125,147.36
15.140,120.49
15.156,94.54
15.171,70.82
15.187,50.24
15.203,33.32
15.218,20.06
15.234,9.74
15.250,1.01
15.265,-7.65
15.281,-17.34
15.296,-28.45
15.312,-40.7
15.328,-53.59
15.343,-66.76
15.359,-79.99
15.375,-92.94
15.390,-104.82
15.406,-114.35
15.421,-120.14
15.437,-121.29
15.453,-117.83
15.468,-110.71
15.484,-101.48
15.500,-91.73
15.515,-82.61
15.531,-74.72
15.546,-68.18
15.562,-62.92
15.578,-58.78
15.593,-55.73
15.609,-53.77
15.625,-52.94
15.640,-53.4
15.656,-55.46
15.671,-59.51
15.687,-65.79
15.703,-74.01
15.718,-82.87
15.734,-90.03
15.750,-92.47
15.765,-87.47
15.781,-73.7
15.796,-52.01
15.812,-25.54
15.828,1.13
15.843,23.14
15.859,36.79
15.875,40.4
15.890,34.41
15.906,20.77
15.921,1.96
15.937,-19.97
15.953,-43.92
15.968,-69.45
15.984,-96.35
16.000,-124.13
16.015,-151.95
16.031,-178.97
16.046,-204.81
16.062,-229.71
16.078,-253.96
16.093,-277.04
16.109,-296.69
16.125,-308.94
16.140,-309.14
16.156,-293.78
16.171,-262.05
16.187,-216.33
16.203,-161.28
16.218,-102.19
16.234,-43.48
16.250,12.03
16.265,62.8
16.281,107.91
16.296,146.68
16.312,178.79
16.328,204.64
16.343,225.4
16.359,242.52
16.375,256.78
16.390,267.61
16.406,273.15
16.421,271.34
16.437,261.3
16.453,244.11
16.468,222.55
16.484,199.91
16.500,178.6
16.515,159.52
16.531,142.48
16.546,127.24
16.562,114.26
16.578,104.57
16.593,98.72
16.609,95.5
16.625,91.64
16.640,82.63
16.656,64.74
16.671,36.71
16.687,0.32
16.703,-40.52
16.718,-81.54
16.734,-119.62
16.750,-153.34
16.765,-182.56
16.781,-207.8
16.796,-229.82
16.812,-249.68
16.828,-268.79
16.843,-288.33
16.859,-308.33
16.875,-326.79
16.890,-339.65
16.906,-342.01
16.921,-330.07
16.937,-302.86
16.953,-262.91
16.968,-215.41
16.984,-166.51
17.000,-121.42
17.015,-83.31
17.031,-53.16
17.046,-30.26
17.062,-13.19
17.078,-0.46
17.093,9.08
17.109,16.26
17.125,21.82
17.140,26.56
17.156,31.38
17.171,36.97
17.187,43.56
17.203,50.56
17.218,56.77
17.234,60.82
17.250,61.85
17.265,59.91
17.281,55.97
17.296,51.49
17.312,47.71
17.328,45.04
17.343,42.92
17.359,40.12
17.375,35.39
17.390,28.02
17.406,18.17
17.421,6.68
17.437,-5.38
17.453,-17.19
17.468,-28.51
17.484,-39.68
17.500,-51.27
17.515,-63.76
17.531,-77.23
17.546,-91.35
17.562,-105.41
17.578,-118.45
17.593,-129.26
17.609,-136.43
17.625,-138.48
17.640,-134.2
17.656,-122.96
17.671,-105.1
17.687,-81.83
17.703,-54.98
17.718,-26.46
17.734,2.19
17.750,30.08
17.765,56.79
17.781,82.07
17.796,105.47
17.812,126.27
17.828,143.54
17.843,156.55
17.859,165.02
17.875,169.37
17.890,170.53
17.906,169.76
17.921,168.21
17.937,166.76
17.953,165.78
17.968,165.31
17.984,165.1
18.000,164.78
18.015,163.93
18.031,162.2
18.046,159.28
18.062,155.06
18.078,149.62
18.093,143.29
18.109,136.59
18.125,130.09
18.140,124.37
18.156,119.84
18.171,116.69
18.187,114.78
18.203,113.61
18.218,112.38
18.234,110.16
18.250,106.28
18.265,100.46
18.281,92.96
18.296,84.39
18.312,75.44
18.328,66.77
18.343,58.93
18.359,52.7
18.375,49.17
18.390,49.92
18.406,56.61
18.421,70.63
18.437,92.69
18.453,122.47
18.468,158.5
18.484,198.12
18.500,237.59
18.515,272.46
18.531,298.33
18.546,311.86
18.562,311.73
18.578,299.05
18.593,277.04
18.609,250.05
18.625,222.41
18.640,197.46
18.656,177.2
18.671,162.22
18.687,151.83
18.703,144.3
18.718,137.21
18.734,128.01
18.750,114.59
18.765,95.99
18.781,72.67
18.796,46.49
18.812,20.04
18.828,-4.1
18.843,-24.15
18.859,-39.38
18.875,-50.06
18.890,-57.11
18.906,-61.78
18.921,-65.43
18.937,-69.29
18.953,-74.52
18.968,-81.98
18.984,-92.14
19.000,-104.71
19.015,-118.69
19.031,-132.32
19.046,-143.73
19.062,-151.62
19.078,-155.91
19.093,-158.05
19.109,-160.67
19.125,-166.72
19.140,-178.09
19.156,-194.34
19.171,-211.76
19.187,-223.97
19.203,-223.78
19.218,-206.11
19.234,-170.28
19.250,-120.79
19.265,-65.89
19.281,-14.51
19.296,26.89
19.312,56.2
19.328,75.44
19.343,88.69
19.359,99.5
19.375,109.26
19.390,116.91
19.406,120.08
19.421,116.48
19.437,104.98
19.453,85.69
19.468,59.58
19.484,28.0
19.500,-7.44
19.515,-44.58
19.531,-80.47
19.546,-111.42
19.562,-133.65
19.578,-144.26
19.593,-142.29
19.609,-129.39
19.625,-109.6
19.640,-88.57
19.656,-72.06
19.671,-64.45
19.687,-67.67
19.703,-80.91
19.718,-101.41
19.734,-125.63
19.750,-150.56
19.765,-174.47
19.781,-196.97
19.796,-218.48
19.812,-239.6
19.828,-260.8
19.843,-282.34
19.859,-304.6
19.875,-327.94
19.890,-352.22
19.906,-376.28
19.921,-397.58
19.937,-412.69
19.953,-418.35
19.968,-412.65
19.984,-395.8
20.000,-369.91
20.015,-338.18
20.031,-303.69
20.046,-268.66
20.062,-234.18
20.078,-200.49
20.093,-167.61
20.109,-135.68
20.125,-104.94
20.140,-75.48
20.156,-46.86
20.171,-18.28
20.187,11.03
20.203,41.15
20.218,71.07
20.234,98.82
20.250,122.14
20.265,139.34
20.281,149.94
20.296,154.85
20.312,155.91
20.328,155.18
20.343,154.21
20.359,153.72
20.375,153.66
20.390,153.55
20.406,152.88
20.421,151.37
20.437,148.95
20.453,145.65
20.468,141.5
20.484,136.51
20.500,130.66
20.515,124.11
20.531,117.21
20.546,110.45
20.562,104.35
20.578,99.15
20.593,94.69
20.609,90.43
20.625,85.7
20.640,80.04
20.656,73.44
20.671,66.28
20.687,59.11
20.703,52.35
20.718,46.04
20.734,39.85
20.750,33.19
20.765,25.56
20.781,16.7
20.796,6.96
20.812,-2.78
20.828,-11.08
20.843,-16.22
20.859,-16.64
20.875,-11.39
20.890,-0.51
20.906,14.99
20.921,33.38
20.937,52.74
20.953,71.49
20.968,88.66
20.984,103.89
21.000,117.18
21.015,128.58
21.031,138.02
21.046,145.24
21.062,149.94
21.078,151.99
21.093,151.51
21.109,148.96
21.125,145.07
21.140,140.67
21.156,136.53
21.171,133.22
21.187,131.05
21.203,130.01
21.218,129.98
21.234,130.71
21.250,131.98
21.265,133.57
21.281,135.23
21.296,136.66
21.312,137.44
21.328,137.23
21.343,135.83
21.359,133.43
21.375,130.53
21.390,127.82
21.406,125.85
21.421,124.7
21.437,123.96
21.453,122.82
21.468,120.49
21.484,116.49
21.500,110.83
21.515,103.82
21.531,95.74
21.546,86.39
21.562,75.09
21.578,61.09
21.593,44.2
21.609,25.34
21.625,6.47
21.640,-9.92
21.656,-21.78
21.671,-28.27
21.687,-30.0
21.703,-28.71
21.718,-26.53
21.734,-25.42
21.750,-26.8
21.765,-31.54
21.781,-40.07
21.796,-52.45
21.812,-68.26
21.828,-86.56
21.843,-105.9
21.859,-124.66
21.875,-141.52
21.890,-156.07
21.906,-169.05
21.921,-182.02
21.937,-196.19
21.953,-211.06
21.968,-223.88
21.984,-230.34
22.000,-226.42
22.015,-210.57
22.031,-184.75
22.046,-153.87
22.062,-123.74
22.078,-98.62
22.093,-79.94
22.109,-66.69
22.125,-56.87
22.140,-49.09
22.156,-43.22
22.171,-39.77
22.187,-38.92
22.203,-39.76
22.218,-40.51
22.234,-39.45
22.250,-35.93
22.265,-30.77
22.281,-26.05
22.296,-24.27
22.312,-27.22
22.328,-35.04
22.343,-45.99
22.359,-56.84
22.375,-64.04
22.390,-64.88
22.406,-58.42
22.421,-45.67
22.437,-28.95
22.453,-10.79
22.468,7.12
22.484,24.44
22.500,42.02
22.515,61.08
22.531,82.2
22.546,104.7
22.562,126.49
22.578,144.69
22.593,156.59
22.609,160.72
22.625,157.42
22.640,148.92
22.656,138.89
22.671,131.53
22.687,130.48
22.703,137.66
22.718,152.2
22.734,169.99
22.750,184.19
22.765,187.13
22.781,173.03
22.796,140.65
22.812,94.22
22.828,42.23
22.843,-5.73
22.859,-42.38
22.875,-64.88
22.890,-74.71
22.906,-75.68
22.921,-71.69
22.937,-65.32
22.953,-57.88
22.968,-50.3
22.984,-43.9
23.000,-40.31
23.015,-40.66
23.031,-44.67
23.046,-50.58
23.062,-55.7
23.078,-57.5
23.093,-54.41
23.109,-46.13
23.125,-33.37
23.140,-17.59
23.156,-0.43
23.171,16.58
23.187,32.35
23.203,46.41
23.218,58.89
23.234,70.34
23.250,81.29
23.265,91.83
23.281,101.49
23.296,109.38
23.312,114.58
23.328,116.6
23.343,115.58
23.359,112.26
23.375,107.71
23.390,102.97
23.406,98.87
23.421,95.81
23.437,93.88
23.453,92.87
23.468,92.39
23.484,91.95
23.500,91.03
23.515,89.21
23.531,86.21
23.546,81.96
23.562,76.64
23.578,70.65
23.593,64.48
23.609,58.67
23.625,53.8
23.640,50.48
23.656,49.22
23.671,50.17
23.687,52.65
23.703,54.85
23.718,53.99
23.734,47.05
23.750,31.91
23.765,8.39
23.781,-21.5
23.796,-54.21
23.812,-86.04
23.828,-114.5
23.843,-139.0
23.859,-160.41
23.875,-179.92
23.890,-197.88
23.906,-213.28
23.921,-224.16
23.937,-228.53
23.953,-225.26
23.968,-214.67
23.984,-198.22
24.000,-178.06
24.015,-156.36
24.031,-134.8
24.046,-114.45
24.062,-95.8
24.078,-78.92
24.093,-63.62
24.109,-49.66
24.125,-36.78
24.140,-24.84
24.156,-13.75
24.171,-3.39
24.187,6.4
24.203,15.81
24.218,25.04
24.234,34.11
24.250,42.82
24.265,50.83
24.281,57.75
24.296,63.42
24.312,68.08
24.328,72.39
24.343,77.31
24.359,83.83
24.375,92.55
24.390,103.43
24.406,115.61
24.421,127.63
24.437,137.88
24.453,145.2
24.468,149.23
24.484,150.53
24.500,150.37
24.515,150.01
24.531,150.3
24.546,151.27
24.562,152.1
24.578,151.33
24.593,147.13
24.609,137.51
24.625,120.51
24.640,94.93
24.656,61.15
24.671,21.95
24.687,-17.75
24.703,-52.32
24.718,-77.49
24.734,-92.14
24.750,-98.58
24.765,-101.17
24.781,-103.87
24.796,-108.32
24.812,-113.3
24.828,-116.11
24.843,-114.72
24.859,-109.38
24.875,-102.74
24.890,-98.32
24.906,-98.63
24.921,-103.73
24.937,-111.41
24.953,-118.39
24.968,-122.03
24.984,-121.46
25.000,-117.62
25.015,-112.55
25.031,-108.02
25.046,-104.71
25.062,-102.06
25.078,-98.91
25.093,-94.47
25.109,-88.79
25.125,-82.85
25.140,-77.86
25.156,-74.56
25.171,-72.77
25.187,-71.5
25.203,-69.56
25.218,-66.13
25.234,-61.27
25.250,-55.72
25.265,-50.68
25.281,-47.21
25.296,-45.94
25.312,-46.81
25.328,-49.15
25.343,-51.79
25.359,-53.4
25.375,-52.74
25.390,-48.98
25.406,-41.87
25.421,-31.82
25.437,-19.7
25.453,-6.51
25.468,6.82
25.484,19.66
25.500,31.64
25.515,42.4
25.531,51.58
25.546,58.67
25.562,63.28
25.578,65.24
25.593,64.75
25.609,62.36
25.625,58.73
25.640,54.4
25.656,49.68
25.671,44.66
25.687,39.36
25.703,33.88
25.718,28.51
25.734,23.66
25.750,19.74
25.765,17.03
25.781,15.54
25.796,15.02
25.812,15.0
25.828,14.84
25.843,13.94
25.859,11.87
25.875,8.56
25.890,4.31
25.906,-0.24
25.921,-4.38
25.937,-7.54
25.953,-9.6
25.968,-10.88
25.984,-12.07
26.000,-13.93
26.015,-17.03
26.031,-21.53
26.046,-27.08
26.062,-32.79
26.078,-37.37
26.093,-39.4
26.109,-37.69
26.125,-31.66
26.140,-21.6
26.156,-8.62
26.171,5.58
26.187,19.3
26.203,31.15
26.218,40.37
26.234,46.83
26.250,50.83
26.265,52.91
26.281,53.58
26.296,53.29
26.312,52.32
26.328,50.77
26.343,48.57
26.359,45.52
26.375,41.49
26.390,36.46
26.406,30.77
26.421,24.99
26.437,19.86
26.453,16.02
26.468,13.86
26.484,13.34
26.500,13.94
26.515,14.86
26.531,15.19
26.546,14.21
26.562,11.57
26.578,7.41
26.593,2.23
26.609,-3.29
26.625,-8.46
26.640,-12.83
26.656,-16.31
26.671,-19.18
26.687,-22.02
26.703,-25.47
26.718,-30.02
26.734,-35.72
26.750,-42.1
26.765,-48.21
26.781,-52.83
26.796,-54.81
26.812,-53.32
26.828,-48.05
26.843,-39.28
26.859,-27.78
26.875,-14.72
26.890,-1.48
26.906,10.62
26.921,20.49
26.937,27.48
26.953,31.39
26.968,32.49
26.984,31.4
27.000,28.9
27.015,25.89
27.031,23.19
27.046,21.39
27.062,20.79
27.078,21.21
27.093,22.13
27.109,22.82
27.125,22.6
27.140,21.05
27.156,18.12
27.171,14.09
27.187,9.46
27.203,4.84
27.218,0.72
27.234,-2.53
27.250,-4.79
27.265,-6.19
27.281,-7.11
27.296,-8.06
27.312,-9.6
27.328,-12.21
27.343,-16.2
27.359,-21.65
27.375,-28.38
27.390,-35.94
27.406,-43.66
27.421,-50.62
27.437,-55.83
27.453,-58.37
27.468,-57.63
27.484,-53.4
27.500,-46.1
27.515,-36.59
27.531,-26.07
27.546,-15.76
27.562,-6.56
27.578,1.09
27.593,7.28
27.609,12.47
27.625,17.21
27.640,21.82
27.656,26.32
27.671,30.37
27.687,33.46
27.703,35.1
27.718,35.01
27.734,33.13
27.750,29.59
27.765,24.74
27.781,19.08
27.796,13.33
27.812,8.34
27.828,4.95
27.843,3.66
27.859,4.45
27.875,6.61
27.890,8.96
27.906,10.19
27.921,9.27
27.937,5.76
27.953,-0.11
27.968,-7.56
27.984,-15.48
28.000,-22.8
28.015,-28.69
28.031,-32.78
28.046,-35.2
28.062,-36.51
28.078,-37.55
28.093,-39.19
28.109,-42.06
28.125,-46.31
28.140,-51.51
28.156,-56.68
28.171,-60.5
28.187,-61.59
28.203,-58.91
28.218,-52.07
28.234,-41.39
28.250,-27.92
28.265,-13.08
28.281,1.62
28.296,14.88
28.312,25.74
28.328,33.62
28.343,38.31
28.359,39.91
28.375,38.95
28.390,36.27
28.406,32.97
28.421,30.12
28.437,28.54
28.453,28.55
28.468,29.91
28.484,31.96
28.500,33.85
28.515,34.78
28.531,34.17
28.546,31.76
28.562,27.63
28.578,22.15
28.593,15.89
28.609,9.51
28.625,3.57
28.640,-1.54
28.656,-5.72
28.671,-9.12
28.687,-12.0
28.703,-14.74
28.718,-17.76
28.734,-21.51
28.750,-26.43
28.765,-32.85
28.781,-40.8
28.796,-49.93
28.812,-59.46
28.828,-68.28
28.843,-75.14
28.859,-78.94
28.875,-78.98
28.890,-75.07
28.906,-67.64
28.921,-57.65
28.937,-46.36
28.953,-35.05
28.968,-24.73
28.984,-15.87
29.000,-8.38
29.015,-1.85
29.031,4.28
29.046,10.38
29.062,16.54
29.078,22.52
29.093,27.86
29.109,32.05
29.125,34.6
29.140,35.26
29.156,33.99
29.171,31.02
29.187,26.9
29.203,22.36
29.218,18.23
29.234,15.23
29.250,13.76
29.265,13.85
29.281,15.18
29.296,17.12
29.312,18.93
29.328,19.87
29.343,19.35
29.359,17.01
29.375,12.81
29.390,7.1
29.406,0.52
29.421,-6.03
29.437,-11.73
29.453,-15.98
29.468,-18.64
29.484,-20.02
29.500,-20.85
29.515,-22.02
29.531,-24.43
29.546,-28.72
29.562,-35.04
29.578,-43.01
29.593,-51.57
29.609,-59.2
29.625,-64.16
29.640,-64.93
29.656,-60.6
29.671,-51.19
29.687,-37.64
29.703,-21.63
29.718,-5.13
29.734,10.01
29.750,22.47
29.765,31.67
29.781,37.73
29.796,41.31
29.812,43.31
29.828,44.6
29.843,45.83
29.859,47.31
29.875,49.05
29.890,50.86
29.906,52.44
29.921,53.55
29.937,54.03
29.953,53.82
29.968,52.96
29.984,51.53
30.000,49.7
30.015,47.71
30.031,45.92
30.046,44.77
30.062,44.72
30.078,46.02
30.093,48.58
30.109,51.81
30.125,54.78
30.140,56.43
30.156,56.02
30.171,53.44
30.187,49.44
30.203,45.38
30.218,42.84
30.234,43.06
30.250,46.43
30.265,52.34
30.281,59.42
30.296,65.97
30.312,70.66
30.328,72.96
30.343,73.36
30.359,73.17
30.375,74.22
30.390,78.35
30.406,86.93
30.421,100.43
30.437,118.16
30.453,138.14
30.468,157.38
30.484,172.62
30.500,181.39
30.515,183.14
30.531,179.66
30.546,174.51
30.562,171.61
30.578,173.57
30.593,180.66
30.609,191.08
30.625,202.34
30.640,212.65
30.656,221.78
30.671,230.62
30.687,239.96
30.703,249.36
30.718,256.81
30.734,259.59
30.750,255.55
30.765,244.27
30.781,227.15
30.796,206.66
30.812,185.07
30.828,163.66
30.843,142.57
30.859,121.25
30.875,99.33
30.890,77.16
30.906,55.91
30.921,37.04
30.937,21.64
30.953,9.56
30.968,-0.63
30.984,-11.31
31.000,-24.87
31.015,-42.79
31.031,-65.1
31.046,-90.55
31.062,-117.22
31.078,-143.4
31.093,-168.31
31.109,-192.21
31.125,-216.16
31.140,-241.62
31.156,-270.04
31.171,-302.43
31.187,-338.75
31.203,-377.26
31.218,-414.12
31.234,-443.76
31.250,-460.32
31.265,-459.57
31.281,-440.7
31.296,-406.79
31.312,-363.82
31.328,-318.55
31.343,-276.42
31.359,-240.37
31.375,-210.91
31.390,-187.23
31.406,-168.25
31.421,-153.14
31.437,-141.16
31.453,-131.29
31.468,-122.08
31.484,-112.03
31.500,-100.2
31.515,-86.6
31.531,-72.19
31.546,-58.53
31.562,-47.04
31.578,-38.46
31.593,-32.62
31.609,-28.58
31.625,-25.09
31.640,-21.15
31.656,-16.4
31.671,-11.24
31.687,-6.61
31.703,-3.51
31.718,-2.59
31.734,-3.79
31.750,-6.43
31.765,-9.53
31.781,-12.21
31.796,-14.04
31.812,-15.17
31.828,-16.22
31.843,-17.96
31.859,-21.04
31.875,-25.73
31.890,-31.81
31.906,-38.57
31.921,-44.89
31.937,-49.47
31.953,-51.14
31.968,-49.16
31.984,-43.44
32.000,-34.61
32.015,-23.81
32.031,-12.35
32.046,-1.36
32.062,8.48
32.078,16.93
32.093,24.04
32.109,29.93
32.125,34.54
32.140,37.7
32.156,39.24
32.171,39.17
32.187,37.79
32.203,35.68
32.218,33.46
32.234,31.58
32.250,30.23
32.265,29.31
32.281,28.6
32.296,27.92
32.312,27.25
32.328,26.63
32.343,26.08
32.359,25.51
32.375,24.75
32.390,23.59
32.406,21.89
32.421,19.63
32.437,16.84
32.453,13.59
32.468,9.96
32.484,6.07
32.500,2.11
32.515,-1.68
32.531,-5.08
32.546,-8.02
32.562,-10.65
32.578,-13.31
32.593,-16.42
32.609,-20.31
32.625,-25.0
32.640,-30.2
32.656,-35.24
32.671,-39.19
32.687,-41.08
32.703,-40.11
32.718,-35.89
32.734,-28.61
32.750,-18.97
32.765,-7.99
32.781,3.23
32.796,13.83
32.812,23.26
32.828,31.35
32.843,38.07
32.859,43.47
32.875,47.56
32.890,50.28
32.906,51.63
32.921,51.62
32.937,50.42
32.953,48.28
32.968,45.55
32.984,42.62
33.000,39.84
33.015,37.5
33.031,35.74
33.046,34.56
33.062,33.78
33.078,33.14
33.093,32.34
33.109,31.13
33.125,29.37
33.140,26.98
33.156,24.02
33.171,20.53
33.187,16.61
33.203,12.31
33.218,7.73
33.234,2.96
33.250,-1.88
33.265,-6.69
33.281,-11.42
33.296,-16.03
33.312,-20.55
33.328,-25.03
33.343,-29.58
33.359,-34.34
33.375,-39.51
33.390,-45.29
33.406,-51.76
33.421,-58.75
33.437,-65.67
33.453,-71.61
33.468,-75.39
33.484,-75.94
33.500,-72.57
33.515,-65.21
33.531,-54.45
33.546,-41.41
33.562,-27.47
33.578,-13.85
33.593,-1.43
33.609,9.4
33.625,18.56
33.640,26.14
33.656,32.23
33.671,36.82
33.687,39.95
33.703,41.73
33.718,42.44
33.734,42.4
33.750,41.93
33.765,41.17
33.781,40.17
33.796,38.92
33.812,37.48
33.828,36.04
33.843,34.88
33.859,34.16
33.875,33.95
33.890,34.02
33.906,34.02
33.921,33.56
33.937,32.32
33.953,30.16
33.968,27.12
33.984,23.34
34.000,19.0
34.015,14.29
34.031,9.28
34.046,4.07
34.062,-1.22
34.078,-6.46
34.093,-11.49
34.109,-16.19
34.125,-20.56
34.140,-24.7
34.156,-28.84
34.171,-33.28
34.187,-38.28
34.203,-44.02
34.218,-50.55
34.234,-57.67
34.250,-64.8
34.265,-70.98
34.281,-75.02
34.296,-75.73
34.312,-72.36
34.328,-64.84
34.343,-53.84
34.359,-40.67
34.375,-26.78
34.390,-13.41
34.406,-1.34
34.421,9.16
34.437,18.15
34.453,25.77
34.468,32.12
34.484,37.22
34.500,41.09
34.515,43.81
34.531,45.59
34.546,46.66
34.562,47.18
34.578,47.25
34.593,46.85
34.609,45.95
34.625,44.66
34.640,43.21
34.656,41.92
34.671,41.14
34.687,40.99
34.703,41.33
34.718,41.8
34.734,41.89
34.750,41.21
34.765,39.61
34.781,37.19
34.796,34.23
34.812,31.04
34.828,27.76
34.843,24.4
34.859,20.81
34.875,16.88
34.890,12.64
34.906,8.3
34.921,4.19
34.937,0.62
34.953,-2.26
34.968,-4.56
34.984,-6.63
35.000,-8.96
35.015,-12.07
35.031,-16.27
35.046,-21.43
35.062,-27.02
35.078,-31.95
35.093,-34.86
35.109,-34.39
35.125,-29.47
35.140,-19.76
35.156,-5.75
35.171,11.2
35.187,29.22
35.203,46.3
35.218,60.8
35.234,71.73
35.250,78.88
35.265,82.62
35.281,83.63
35.296,82.64
35.312,80.14
35.328,76.45
35.343,71.78
35.359,66.36
35.375,60.54
35.390,54.77
35.406,49.49
35.421,45.01
35.437,41.45
35.453,38.75
35.468,36.79
35.484,35.5
35.500,34.87
35.515,34.92
35.531,35.64
35.546,36.83
35.562,38.16
35.578,39.25
35.593,39.83
35.609,39.88
35.625,39.57
35.640,39.23
35.656,39.13
35.671,39.42
35.687,40.12
35.703,41.11
35.718,42.31
35.734,43.53
35.750,44.61
35.765,45.38
35.781,45.73
35.796,45.68
35.812,45.33
35.828,44.72
35.843,43.48
35.859,40.77
35.875,35.38
35.890,26.26
35.906,13.11
35.921,-3.18
35.937,-20.69
35.953,-36.92
35.968,-49.5
35.984,-56.75
36.000,-57.82
36.015,-52.66
36.031,-41.88
36.046,-26.59
36.062,-8.41
36.078,10.78
36.093,29.21
36.109,45.65
36.125,59.59
36.140,71.07
36.156,80.12
36.171,86.12
36.187,87.76
36.203,83.4
36.218,72.09
36.234,54.39
36.250,32.72
36.265,10.95
36.281,-6.8
36.296,-17.28
36.312,-19.1
36.328,-12.95
36.343,-1.15
36.359,13.13
36.375,26.56
36.390,36.27
36.406,40.2
36.421,37.6
36.437,29.24
36.453,17.3
36.468,4.9
36.484,-5.08
36.500,-11.23
36.515,-14.33
36.531,-16.87
36.546,-21.75
36.562,-30.64
36.578,-42.93
36.593,-56.07
36.609,-66.67
36.625,-72.02
36.640,-70.83
36.656,-63.08
36.671,-49.25
36.687,-29.62
36.703,-4.2
36.718,26.55
36.734,60.89
36.750,95.39
36.765,125.46
36.781,146.58
36.796,155.84
36.812,152.9
36.828,140.04
36.843,121.36
36.859,101.42
36.875,83.98
36.890,71.24
36.906,63.96
36.921,62.22
36.937,66.31
36.953,76.84
36.968,94.17
36.984,117.19
37.000,142.63
37.015,165.27
37.031,179.42
37.046,180.96
37.062,168.86
37.078,145.48
37.093,115.46
37.109,83.75
37.125,53.96
37.140,27.55
37.156,4.23
37.171,-17.09
37.187,-37.38
37.203,-57.14
37.218,-76.56
37.234,-96.01
37.250,-116.36
37.265,-138.67
37.281,-163.52
37.296,-190.16
37.312,-216.13
37.328,-237.8
37.343,-251.65
37.359,-255.83
37.375,-250.87
37.390,-239.22
37.406,-223.59
37.421,-205.3
37.437,-183.63
37.453,-157.09
37.468,-125.61
37.484,-92.3
37.500,-63.5
37.515,-46.59
37.531,-46.71
37.546,-64.26
37.562,-94.45
37.578,-129.09
37.593,-159.52
37.609,-178.98
37.625,-183.74
37.640,-173.11
37.656,-148.93
37.671,-115.41
37.687,-78.93
37.703,-47.39
37.718,-28.64
37.734,-28.15
37.750,-47.09
37.765,-81.73
37.781,-124.61
37.796,-167.02
37.812,-201.6
37.828,-224.13
37.843,-233.84
37.859,-232.68
37.875,-224.12
37.890,-212.0
37.906,-199.93
37.921,-190.86
37.937,-186.83
37.953,-188.75
37.968,-196.3
37.984,-207.93
38.000,-221.01
38.015,-232.16
38.031,-237.8
38.046,-234.92
38.062,-221.9
38.078,-199.24
38.093,-169.58
38.109,-137.13
38.125,-106.23
38.140,-79.89
38.156,-58.87
38.171,-41.81
38.187,-26.39
38.203,-10.83
38.218,5.1
38.234,20.18
38.250,32.71
38.265,41.7
38.281,47.66
38.296,52.22
38.312,57.14
38.328,63.3
38.343,70.28
38.359,76.77
38.375,81.44
38.390,83.74
38.406,84.19
38.421,84.05
38.437,84.54
38.453,86.27
38.468,88.89
38.484,91.43
38.500,92.73
38.515,92.12
38.531,89.69
38.546,86.13
38.562,82.4
38.578,79.12
38.593,76.41
38.609,73.86
38.625,70.85
38.640,67.02
38.656,62.5
38.671,57.91
38.687,53.99
38.703,51.26
38.718,49.61
38.734,48.39
38.750,46.55
38.765,43.08
38.781,37.4
38.796,29.54
38.812,20.14
38.828,10.23
38.843,0.83
38.859,-7.41
38.875,-14.4
38.890,-20.71
38.906,-27.29
38.921,-35.08
38.937,-44.57
38.953,-55.4
38.968,-66.17
38.984,-74.59
39.000,-77.93
39.015,-73.67
39.031,-60.18
39.046,-37.29
39.062,-6.29
39.078,30.35
39.093,69.65
39.109,108.89
39.125,145.96
39.140,179.4
39.156,208.15
39.171,231.3
39.187,248.12
39.203,258.34
39.218,262.32
39.234,261.06
39.250,255.84
39.265,247.72
39.281,237.25
39.296,224.53
39.312,209.42
39.328,191.75
39.343,171.32
39.359,147.93
39.375,121.53
39.390,92.77
39.406,63.49
39.421,36.69
39.437,15.68
39.453,2.69
39.468,-2.45
39.484,-2.59
39.500,-2.28
39.515,-6.01
39.531,-16.53
39.546,-34.17
39.562,-57.21
39.578,-82.97
39.593,-108.28
39.609,-129.64
39.625,-143.04
39.640,-144.52
39.656,-131.84
39.671,-106.48
39.687,-74.75
39.703,-46.76
39.718,-33.09
39.734,-40.72
39.750,-70.19
39.765,-115.51
39.781,-166.66
39.796,-213.24
39.812,-247.38
39.828,-264.74
39.843,-264.15
39.859,-246.68
39.875,-215.18
39.890,-174.36
39.906,-130.67
39.921,-91.22
39.937,-62.0
39.953,-46.08
39.968,-42.93
39.984,-48.95
40.000,-59.16
40.015,-68.84
40.031,-74.71
40.046,-75.35
40.062,-71.14
40.078,-64.02
40.093,-57.11
40.109,-53.95
40.125,-57.53
40.140,-69.36
40.156,-88.88
40.171,-113.74
40.187,-140.54
40.203,-165.85
40.218,-187.07
40.234,-202.65
40.250,-211.94
40.265,-214.93
40.281,-212.06
40.296,-204.24
40.312,-192.86
40.328,-179.78
40.343,-166.93
40.359,-155.85
40.375,-147.09
40.390,-140.02
40.406,-132.89
40.421,-123.34
40.437,-109.13
40.453,-88.74
40.468,-61.68
40.484,-28.51
40.500,9.35
40.515,49.97
40.531,91.14
40.546,130.74
40.562,167.04
40.578,199.03
40.593,226.64
40.609,250.44
40.625,271.22
40.640,289.3
40.656,304.11
40.671,314.39
40.687,318.84
40.703,316.92
40.718,309.24
40.734,297.51
40.750,284.04
40.765,271.09
40.781,260.58
40.796,253.78
40.812,250.93
40.828,250.73
40.843,249.98
40.859,243.97
40.875,227.92
40.890,199.01
40.906,158.01
40.921,109.42
40.937,59.97
40.953,15.93
40.968,-19.28
40.984,-45.81
41.000,-66.29
41.015,-83.42
41.031,-97.84
41.046,-107.49
41.062,-108.48
41.078,-96.94
41.093,-70.44
41.109,-28.84
41.125,25.78
41.140,89.15
41.156,154.85
41.171,214.75
41.187,260.0
41.203,282.85
41.218,278.76
41.234,247.95
41.250,195.54
41.265,130.45
41.281,63.28
41.296,4.19
41.312,-38.93
41.328,-61.9
41.343,-64.97
41.359,-52.92
41.375,-33.98
41.390,-17.55
41.406,-11.41
41.421,-19.4
41.437,-40.54
41.453,-69.9
41.468,-100.6
41.484,-125.85
41.500,-140.38
41.515,-141.32
41.531,-128.5
41.546,-104.76
41.562,-75.88
41.578,-49.79
41.593,-34.93
41.609,-37.89
41.625,-61.37
41.640,-103.35
41.656,-157.91
41.671,-217.41
41.687,-274.9
41.703,-325.76
41.718,-367.93
41.734,-400.75
41.750,-423.46
41.765,-434.36
41.781,-431.02
41.796,-411.75
41.812,-376.92
41.828,-329.69
41.843,-275.29
41.859,-219.42
41.875,-166.56
41.890,-118.9
41.906,-76.47
41.921,-37.91
41.937,-1.35
41.953,35.1
41.968,73.24
41.984,114.45
42.000,158.78
42.015,203.94
42.031,244.87
42.046,274.6
42.062,286.51
42.078,276.96
42.093,247.04
42.109,202.48
42.125,151.91
42.140,104.11
42.156,65.69
42.171,39.96
42.187,26.86
42.203,23.84
42.218,26.87
42.234,31.44
42.250,33.51
42.265,30.38
42.281,21.37
42.296,7.76
42.312,-7.84
42.328,-22.85
42.343,-35.65
42.359,-46.13
42.375,-55.3
42.390,-64.54
42.406,-74.75
42.421,-86.08
42.437,-98.1
42.453,-110.16
42.468,-121.79
42.484,-132.74
42.500,-142.71
42.515,-151.06
42.531,-156.66
42.546,-158.03
42.562,-153.81
42.578,-143.15
42.593,-126.02
42.609,-103.14
42.625,-75.71
42.640,-45.03
42.656,-12.25
42.671,21.7
42.687,56.0
42.703,89.7
42.718,121.66
42.734,150.63
42.750,175.47
42.765,195.47
42.781,210.57
42.796,221.43
42.812,229.23
42.828,235.3
42.843,240.62
42.859,245.6
42.875,250.07
42.890,253.51
42.906,255.57
42.921,256.4
42.937,256.69
42.953,257.4
42.968,259.22
42.984,262.18
43.000,265.53
43.015,268.08
43.031,268.75
43.046,267.17
43.062,263.87
43.078,260.04
43.093,257.0
43.109,255.67
43.125,256.16
43.140,257.73
43.156,258.9
43.171,257.65
43.187,251.76
43.203,239.1
43.218,218.21
43.234,188.95
43.250,152.98
43.265,113.53
43.281,74.44
43.296,38.6
43.312,6.68
43.328,-23.22
43.343,-54.62
43.359,-90.7
43.375,-132.34
43.390,-177.27
43.406,-220.57
43.421,-256.52
43.437,-280.52
43.453,-290.27
43.468,-285.81
43.484,-268.44
43.500,-239.83
43.515,-201.65
43.531,-156.11
43.546,-106.73
43.562,-58.6
43.578,-17.69
43.593,10.7
43.609,23.41
43.625,20.22
43.640,3.42
43.656,-23.34
43.671,-56.22
43.687,-91.82
43.703,-127.14
43.718,-159.27
43.734,-185.38
43.750,-203.0
43.765,-210.74
43.781,-208.56
43.796,-197.81
43.812,-180.66
43.828,-159.5
43.843,-136.56
43.859,-113.69
43.875,-92.48
43.890,-74.13
43.906,-59.38
43.921,-48.26
43.937,-40.14
43.953,-33.83
43.968,-27.99
43.984,-21.56
44.000,-14.09
44.015,-5.82
44.031,2.43
44.046,9.61
44.062,14.84
44.078,17.72
44.093,18.52
44.109,18.18
44.125,17.92
44.140,18.81
44.156,21.27
44.171,24.69
44.187,27.37
44.203,26.81
44.218,20.42
44.234,6.42
44.250,-15.35
44.265,-43.08
44.281,-73.2
44.296,-101.34
44.312,-123.49
44.328,-137.0
44.343,-141.03
44.359,-136.18
44.375,-123.97
44.390,-106.14
44.406,-84.27
44.421,-59.81
44.437,-34.23
44.453,-9.11
44.468,13.97
44.484,33.73
44.500,49.43
44.515,60.95
44.531,68.69
44.546,73.34
44.562,75.67
44.578,76.36
44.593,75.95
44.609,74.86
44.625,73.44
44.640,72.05
44.656,71.0
44.671,70.66
44.687,71.27
44.703,72.87
44.718,75.15
44.734,77.44
44.750,78.91
44.765,78.77
44.781,76.5
44.796,72.05
44.812,65.81
44.828,58.41
44.843,50.57
44.859,42.89
44.875,35.7
44.890,29.11
44.906,23.03
44.921,17.28
44.937,11.72
44.953,6.28
44.968,1.02
44.984,-4.01
45.000,-8.82
45.015,-13.6
45.031,-18.7
45.046,-24.49
45.062,-31.34
45.078,-39.43
45.093,-48.73
45.109,-58.93
45.125,-69.4
45.140,-79.11
45.156,-86.74
45.171,-90.84
45.187,-90.16
45.203,-84.1
45.218,-72.92
45.234,-57.73
45.250,-40.15
45.265,-21.85
45.281,-4.11
45.296,12.34
45.312,27.26
45.328,40.6
45.343,52.29
45.359,62.12
45.375,69.83
45.390,75.25
45.406,78.46
45.421,79.84
45.437,79.98
45.453,79.54
45.468,79.1
45.484,78.99
45.500,79.36
45.515,80.06
45.531,80.9
45.546,81.61
45.562,82.02
45.578,82.01
45.593,81.52
45.609,80.45
45.625,78.65
45.640,75.94
45.656,72.23
45.671,67.58
45.687,62.27
45.703,56.79
45.718,51.61
45.734,46.99
45.750,42.87
45.765,38.84
45.781,34.32
45.796,28.82
45.812,22.12
45.828,14.42
45.843,6.19
45.859,-1.97
45.875,-9.61
45.890,-16.58
45.906,-23.06
45.921,-29.42
45.937,-36.07
45.953,-43.29
45.968,-51.2
45.984,-59.74
46.000,-68.53
46.015,-76.87
46.031,-83.65
46.046,-87.51
46.062,-87.21
46.078,-82.01
46.093,-72.03
46.109,-58.24
46.125,-42.23
46.140,-25.64
46.156,-9.73
46.171,4.83
46.187,17.9
46.203,29.59
46.218,39.97
46.234,48.93
46.250,56.27
46.265,61.78
46.281,65.41
46.296,67.3
46.312,67.77
46.328,67.23
46.343,66.11
46.359,64.79
46.375,63.56
46.390,62.59
46.406,61.9
46.421,61.36
46.437,60.72
46.453,59.66
46.468,57.93
46.484,55.4
46.500,52.06
46.515,48.0
46.531,43.32
46.546,38.11
46.562,32.5
46.578,26.7
46.593,20.95
46.609,15.54
46.625,10.65
46.640,6.28
46.656,2.16
46.671,-2.1
46.687,-6.86
46.703,-12.22
46.718,-18.01
46.734,-23.76
46.750,-28.96
46.765,-33.29
46.781,-36.71
46.796,-39.53
46.812,-42.24
46.828,-45.45
46.843,-49.67
46.859,-55.2
46.875,-62.08
46.890,-69.86
46.906,-77.62
46.921,-84.0
46.937,-87.41
46.953,-86.44
46.968,-80.35
46.984,-69.28
47.000,-54.33
47.015,-37.15
47.031,-19.54
47.046,-2.9
47.062,11.94
47.078,24.8
47.093,35.93
47.109,45.62
47.125,54.08
47.140,61.27
47.156,66.95
47.171,70.88
47.187,72.9
47.203,73.13
47.218,71.9
47.234,69.72
47.250,67.11
47.265,64.48
47.281,62.13
47.296,60.18
47.312,58.68
47.328,57.59
47.343,56.79
47.359,56.09
47.375,55.2
47.390,53.76
47.406,51.41
47.421,47.93
47.437,43.27
47.453,37.63
47.468,31.42
47.484,25.11
47.500,19.11
47.515,13.64
47.531,8.69
47.546,4.04
47.562,-0.61
47.578,-5.53
47.593,-10.8
47.609,-16.42
47.625,-22.26
47.640,-28.19
47.656,-34.14
47.671,-40.06
47.687,-45.92
47.703,-51.66
47.718,-57.25
47.734,-62.79
47.750,-68.54
47.765,-74.89
47.781,-82.1
47.796,-90.02
47.812,-97.86
47.828,-104.24
47.843,-107.53
47.859,-106.36
47.875,-100.07
47.890,-88.95
47.906,-74.09
47.921,-57.04
47.937,-39.34
47.953,-22.23
47.968,-6.49
47.984,7.51
48.000,19.68
48.015,30.06
48.031,38.71
48.046,45.68
48.062,50.95
48.078,54.56
48.093,56.66
48.109,57.52
48.125,57.56
48.140,57.23
48.156,56.87
48.171,56.65
48.187,56.53
48.203,56.42
48.218,56.2
48.234,55.79
48.250,55.14
48.265,54.18
48.281,52.8
48.296,50.89
48.312,48.4
48.328,45.36
48.343,41.93
48.359,38.34
48.375,34.72
48.390,31.18
48.406,27.75
48.421,24.44
48.437,21.27
48.453,18.23
48.468,15.26
48.484,12.22
48.500,8.93
48.515,5.23
48.531,1.14
48.546,-3.11
48.562,-7.13
48.578,-10.54
48.593,-13.14
48.609,-15.04
48.625,-16.65
48.640,-18.53
48.656,-21.21
48.671,-25.02
48.687,-29.93
48.703,-35.43
48.718,-40.58
48.734,-44.09
48.750,-44.5
48.765,-40.59
48.781,-31.66
48.796,-17.74
48.812,0.41
48.828,21.56
48.843,44.44
48.859,68.02
48.875,91.71
48.890,115.16
48.906,138.11
48.921,160.22
48.937,181.06
48.953,200.27
48.968,217.69
48.984,233.51
49.000,248.16
49.015,262.33
49.031,276.79
49.046,292.21
49.062,308.85
49.078,326.16
49.093,342.62
49.109,355.75
49.125,362.8
49.140,361.64
49.156,351.6
49.171,333.75
49.187,310.52
49.203,284.77
49.218,258.9
49.234,234.32
49.250,211.47
49.265,190.21
49.281,170.17
49.296,150.97
49.312,132.19
49.328,113.29
49.343,93.8
49.359,73.49
49.375,52.67
49.390,32.13
49.406,12.76
49.421,-4.89
49.437,-21.09
49.453,-36.84
49.468,-53.56
49.484,-72.43
49.500,-93.89
49.515,-117.42
49.531,-141.97
49.546,-166.28
49.562,-189.56
49.578,-211.64
49.593,-232.94
49.609,-254.19
49.625,-276.32
49.640,-300.34
49.656,-326.84
49.671,-355.25
49.687,-383.06
49.703,-405.8
49.718,-418.2
49.734,-416.3
49.750,-399.56
49.765,-371.68
49.781,-339.39
49.796,-309.79
49.812,-287.55
49.828,-273.44
49.843,-264.99
49.859,-258.54
49.875,-251.31
49.890,-242.42
49.906,-232.33
49.921,-221.7
49.937,-210.57
49.953,-198.47
49.968,-185.31
49.984,-172.19
50.000,-161.43
50.015,-155.63
50.031,-156.62
50.046,-164.36
50.062,-176.79
50.078,-190.58
50.093,-202.21
50.109,-209.17
50.125,-210.56
50.140,-207.1
50.156,-200.61
50.171,-193.22
50.187,-186.58
50.203,-181.47
50.218,-177.8
50.234,-174.93
50.250,-172.2
50.265,-169.26
50.281,-166.23
50.296,-163.52
50.312,-161.5
50.328,-160.25
50.343,-159.6
50.359,-159.21
50.375,-158.81
50.390,-158.16
50.406,-156.91
50.421,-154.38
50.437,-149.45
50.453,-140.81
50.468,-127.32
50.484,-108.56
50.500,-85.05
50.515,-58.1
50.531,-29.49
50.546,-0.91
50.562,26.37
50.578,51.56
50.593,74.19
50.609,93.96
50.625,110.52
50.640,123.58
50.656,132.94
50.671,138.75
50.687,141.55
50.703,142.16
50.718,141.55
50.734,140.58
50.750,139.82
50.765,139.53
50.781,139.74
50.796,140.33
50.812,141.18
50.828,142.12
50.843,142.88
50.859,143.04
50.875,142.06
50.890,139.36
50.906,134.59
50.921,127.66
50.937,118.78
50.953,108.36
50.968,96.81
50.984,84.35
51.000,71.08
51.015,57.03
51.031,42.35
51.046,27.4
51.062,12.75
51.078,-0.99
51.093,-13.33
51.109,-24.14
51.125,-33.58
51.140,-42.13
51.156,-50.42
51.171,-59.04
51.187,-68.4
51.203,-78.56
51.218,-89.11
51.234,-99.09
51.250,-107.13
51.265,-111.67
51.281,-111.36
51.296,-105.47
51.312,-94.07
51.328,-78.06
51.343,-58.88
51.359,-38.17
51.375,-17.35
51.390,2.56
51.406,21.01
51.421,37.74
51.437,52.58
51.453,65.35
51.468,75.85
51.484,83.89
51.500,89.54
51.515,93.16
51.531,95.35
51.546,96.76
51.562,97.9
51.578,99.05
51.593,100.18
51.609,101.17
51.625,101.94
51.640,102.51
51.656,103.0
51.671,103.43
51.687,103.62
51.703,103.2
51.718,101.7
51.734,98.75
51.750,94.28
51.765,88.48
51.781,81.8
51.796,74.67
51.812,67.41
51.828,60.03
51.843,52.35
51.859,44.12
51.875,35.14
51.890,25.47
51.906,15.46
51.921,5.59
51.937,-3.61
51.953,-11.84
51.968,-19.15
51.984,-25.93
52.000,-32.79
52.015,-40.29
52.031,-48.6
52.046,-57.32
52.062,-65.37
52.078,-71.23
52.093,-73.3
52.109,-70.39
52.125,-62.01
52.140,-48.54
52.156,-31.13
52.171,-11.35
52.187,9.14
52.203,28.98
52.218,47.25
52.234,63.56
52.250,77.89
52.265,90.47
52.281,101.54
52.296,111.24
52.312,119.56
52.328,126.45
52.343,131.96
52.359,136.28
52.375,139.76
52.390,142.84
52.406,145.9
52.421,149.23
52.437,153.06
52.453,157.54
52.468,162.84
52.484,168.96
52.500,175.73
52.515,182.72
52.531,189.35
52.546,195.08
52.562,199.66
52.578,203.29
52.593,206.57
52.609,210.25
52.625,214.96
52.640,220.85
52.656,227.49
52.671,233.9
52.687,238.74
52.703,240.75
52.718,239.21
52.734,234.32
52.750,227.38
52.765,220.53
52.781,216.14
52.796,215.85
52.812,219.76
52.828,226.05
52.843,231.41
52.859,232.14
52.875,225.48
52.890,210.54
52.906,188.49
52.921,161.95
52.937,133.99
52.953,107.32
52.968,83.66
52.984,63.68
53.000,47.12
53.015,32.97
53.031,19.69
53.046,5.47
53.062,-11.29
53.078,-31.33
53.093,-53.95
53.109,-77.02
53.125,-97.67
53.140,-113.46
53.156,-123.61
53.171,-129.34
53.187,-133.48
53.203,-139.33
53.218,-149.36
53.234,-164.58
53.250,-184.73
53.265,-209.02
53.281,-236.91
53.296,-268.14
53.312,-302.03
53.328,-336.7
53.343,-368.82
53.359,-394.42
53.375,-410.39
53.390,-415.74
53.406,-411.86
53.421,-401.7
53.437,-388.25
53.453,-373.45
53.468,-357.84
53.484,-341.22
53.500,-323.49
53.515,-305.32
53.531,-287.93
53.546,-272.54
53.562,-259.64
53.578,-248.84
53.593,-238.97
53.609,-228.72
53.625,-217.02
53.640,-203.26
53.656,-187.37
53.671,-169.79
53.687,-151.27
53.703,-132.87
53.718,-115.65
53.734,-100.4
53.750,-87.43
53.765,-76.47
53.781,-66.81
53.796,-57.61
53.812,-48.23
53.828,-38.33
53.843,-27.98
53.859,-17.48
53.875,-7.2
53.890,2.54
53.906,11.58
53.921,19.78
53.937,27.08
53.953,33.46
53.968,39.01
53.984,44.0
54.000,48.78
54.015,53.65
54.031,58.7
54.046,63.66
54.062,67.96
54.078,70.97
54.093,72.21
54.109,71.62
54.125,69.54
54.140,66.56
54.156,63.32
54.171,60.23
54.187,57.43
54.203,54.76
54.218,51.96
54.234,48.79
54.250,45.25
54.265,41.6
54.281,38.29
54.296,35.82
54.312,34.53
54.328,34.37
54.343,34.94
54.359,35.5
54.375,35.39
54.390,34.25
54.406,32.43
54.421,31.05
54.437,31.84
54.453,36.65
54.468,46.88
54.484,62.84
54.500,83.6
54.515,107.1
54.531,130.81
54.546,152.52
54.562,171.13
54.578,187.06
54.593,202.0
54.609,218.19
54.625,237.19
54.640,258.95
54.656,281.33
54.671,300.42
54.687,311.73
54.703,311.45
54.718,297.74
54.734,271.1
54.750,234.05
54.765,190.13
54.781,142.98
54.796,95.69
54.812,50.82
54.828,10.53
54.843,-23.34
54.859,-49.58
54.875,-68.01
54.890,-79.81
54.906,-87.13
54.921,-92.47
54.937,-97.61
54.953,-103.09
54.968,-108.16
54.984,-111.46
55.000,-111.92
55.015,-109.25
55.031,-104.05
55.046,-97.34
55.062,-90.11
55.078,-83.15
55.093,-77.19
55.109,-73.14
55.125,-72.15
55.140,-75.4
55.156,-83.72
55.171,-97.16
55.187,-114.83
55.203,-134.88
55.218,-154.79
55.234,-171.55
55.250,-182.23
55.265,-184.43
55.281,-176.97
55.296,-160.51
55.312,-137.68
55.328,-112.67
55.343,-90.07
55.359,-73.46
55.375,-64.33
55.390,-61.79
55.406,-63.27
55.421,-65.8
55.437,-67.34
55.453,-67.41
55.468,-66.74
55.484,-66.24
55.500,-65.95
55.515,-64.59
55.531,-59.99
55.546,-50.24
55.562,-34.64
55.578,-14.01
55.593,9.78
55.609,34.73
55.625,59.38
55.640,82.73
55.656,103.94
55.671,121.91
55.687,135.44
55.703,143.73
55.718,146.84
55.734,145.65
55.750,141.15
55.765,133.71
55.781,122.83
55.796,107.87
55.812,89.16
55.828,68.89
55.843,50.91
55.859,39.43
55.875,37.24
55.890,44.18
55.906,56.81
55.921,69.15
55.937,74.48
55.953,67.32
55.968,45.22
55.984,9.64
56.000,-34.25
56.015,-78.84
56.031,-116.01
56.046,-139.41
56.062,-146.07
56.078,-137.18
56.093,-117.45
56.109,-93.57
56.125,-72.07
56.140,-57.55
56.156,-51.83
56.171,-54.09
56.187,-61.76
56.203,-71.73
56.218,-81.32
56.234,-88.67
56.250,-92.64
56.265,-92.51
56.281,-87.87
56.296,-78.74
56.312,-65.93
56.328,-51.11
56.343,-36.6
56.359,-24.64
56.375,-16.72
56.390,-13.03
56.406,-12.55
56.421,-13.63
56.437,-14.79
56.453,-15.31
56.468,-15.44
56.484,-16.05
56.500,-18.1
56.515,-22.19
56.531,-28.44
56.546,-36.62
56.562,-46.4
56.578,-57.53
56.593,-69.81
56.609,-83.09
56.625,-97.15
56.640,-111.76
56.656,-126.6
56.671,-141.2
56.687,-154.98
56.703,-167.2
56.718,-177.24
56.734,-184.81
56.750,-189.94
56.765,-192.58
56.781,-192.45
56.796,-188.83
56.812,-180.72
56.828,-167.26
56.843,-147.98
56.859,-122.6
56.875,-90.82
56.890,-52.33
56.906,-7.33
56.921,42.42
56.937,93.01
56.953,138.75
56.968,173.69
56.984,193.61
57.000,197.58
57.015,188.18
57.031,170.33
57.046,149.52
57.062,130.04
57.078,114.31
57.093,103.04
57.109,95.92
57.125,92.35
57.140,91.74
57.156,93.51
57.171,96.96
57.187,101.15
57.203,104.96
57.218,107.38
57.234,107.66
57.250,105.5
57.265,101.19
57.281,95.31
57.296,88.34
57.312,80.43
57.328,71.31
57.343,60.55
57.359,47.96
57.375,33.95
57.390,19.46
57.406,5.66
57.421,-6.52
57.437,-16.8
57.453,-25.57
57.468,-33.53
57.484,-41.14
57.500,-48.09
57.515,-53.18
57.531,-54.52
57.546,-50.2
57.562,-39.13
57.578,-21.51
57.593,1.06
57.609,26.04
57.625,50.67
57.640,72.72
57.656,90.84
57.671,104.66
57.687,114.43
57.703,120.69
57.718,123.9
57.734,124.33
57.750,122.18
57.765,117.75
57.781,111.6
57.796,104.62
57.812,97.81
57.828,92.15
57.843,88.26
57.859,86.37
57.875,86.4
57.890,88.09
57.906,91.16
57.921,95.26
57.937,99.86
57.953,104.12
57.968,106.9
57.984,106.89
58.000,102.97
58.015,94.39
58.031,80.97
58.046,63.0
58.062,41.17
58.078,16.44
58.093,-10.03
58.109,-36.93
58.125,-62.96
58.140,-87.03
58.156,-108.54
58.171,-127.54
58.187,-144.83
58.203,-161.65
58.218,-179.23
58.234,-198.11
58.250,-217.7
58.265,-236.23
58.281,-251.14
58.296,-260.0
58.312,-261.35
58.328,-255.1
58.343,-242.44
58.359,-225.21
58.375,-205.2
58.390,-183.67
58.406,-161.38
58.421,-138.79
58.437,-116.38
58.453,-94.8
58.468,-74.65
58.484,-56.35
58.500,-39.98
58.515,-25.3
58.531,-12.04
58.546,-0.01
58.562,10.82
58.578,20.38
58.593,28.62
58.609,35.64
58.625,41.59
58.640,46.68
58.656,51.11
58.671,55.04
58.687,58.65
58.703,62.05
58.718,65.33
58.734,68.45
58.750,71.21
58.765,73.25
58.781,74.06
58.796,73.19
58.812,70.28
58.828,65.27
58.843,58.36
58.859,50.0
58.875,40.74
58.890,31.11
58.906,21.51
58.921,12.16
58.937,3.04
58.953,-6.09
58.968,-15.66
58.984,-26.13
59.000,-37.78
59.015,-50.43
59.031,-63.25
59.046,-74.74
59.062,-82.97
59.078,-86.03
59.093,-82.61
59.109,-72.42
59.125,-56.31
59.140,-36.13
59.156,-14.18
59.171,7.38
59.187,26.9
59.203,43.51
59.218,57.0
59.234,67.61
59.250,75.69
59.265,81.59
59.281,85.61
59.296,88.06
59.312,89.42
59.328,90.19
59.343,90.91
59.359,91.88
59.375,93.1
59.390,94.35
59.406,95.28
59.421,95.66
59.437,95.47
59.453,94.87
59.468,94.05
59.484,93.05
59.500,91.71
59.515,89.76
59.531,86.96
59.546,83.23
59.562,78.64
59.578,73.24
59.593,66.99
59.609,59.61
59.625,50.78
59.640,40.24
59.656,28.01
59.671,14.39
59.687,-0.18
59.703,-15.14
59.718,-30.05
59.734,-44.58
59.750,-58.52
59.765,-71.86
59.781,-84.69
59.796,-97.23
59.812,-109.53
59.828,-121.28
59.843,-131.51
59.859,-138.65
59.875,-140.81
59.890,-136.39
59.906,-124.68
59.921,-106.18
59.937,-82.59
59.953,-56.31
59.968,-29.86
59.984,-5.28
