timestamp,value
00.000,13.5
00.015,10.45
00.031,7.22
00.046,3.83
00.062,0.26
00.078,-3.5
00.093,-7.45
00.109,-11.5
00.125,-15.55
00.140,-19.52
00.156,-23.32
00.171,-26.94
00.187,-30.42
00.203,-33.82
00.218,-37.26
00.234,-40.74
00.250,-44.16
00.265,-47.1
00.281,-48.92
00.296,-48.99
00.312,-46.81
00.328,-42.26
00.343,-35.57
00.359,-27.37
00.375,-18.34
00.390,-9.12
00.406,-0.14
00.421,8.31
00.437,15.99
00.453,22.66
00.468,28.08
00.484,32.08
00.500,34.63
00.515,35.87
00.531,36.09
00.546,35.66
00.562,34.88
00.578,33.85
00.593,32.61
00.609,31.14
00.625,29.48
00.640,27.73
00.656,26.03
00.671,24.46
00.687,22.96
00.703,21.39
00.718,19.56
00.734,17.34
00.750,14.74
00.765,11.79
00.781,8.57
00.796,5.09
00.812,1.39
00.828,-2.52
00.843,-6.6
00.859,-10.73
00.875,-14.77
00.890,-18.61
00.906,-22.15
00.921,-25.37
00.937,-28.35
00.953,-31.19
00.968,-34.12
00.984,-37.32
01.000,-40.88
01.015,-44.85
01.031,-49.16
01.046,-53.61
01.062,-57.81
01.078,-61.23
01.093,-63.18
01.109,-63.02
01.125,-60.31
01.140,-54.97
01.156,-47.38
01.171,-38.23
01.187,-28.32
01.203,-18.27
01.218,-8.51
01.234,0.72
01.250,9.23
01.265,16.84
01.281,23.3
01.296,28.34
01.312,31.82
01.328,33.74
01.343,34.29
01.359,33.81
01.375,32.71
01.390,31.39
01.406,30.12
01.421,28.96
01.437,27.87
01.453,26.71
01.468,25.49
01.484,24.24
01.500,23.1
01.515,22.13
01.531,21.27
01.546,20.34
01.562,19.09
01.578,17.39
01.593,15.22
01.609,12.76
01.625,10.15
01.640,7.49
01.656,4.76
01.671,1.85
01.687,-1.32
01.703,-4.75
01.718,-8.28
01.734,-11.71
01.750,-14.81
01.765,-17.5
01.781,-19.77
01.796,-21.77
01.812,-23.7
01.828,-25.78
01.843,-28.21
01.859,-30.97
01.875,-33.86
01.890,-36.36
01.906,-37.81
01.921,-37.45
01.937,-34.78
01.953,-29.66
01.968,-22.35
01.984,-13.5
02.000,-3.88
02.015,5.73
02.031,14.73
02.046,22.66
02.062,29.29
02.078,34.51
02.093,38.34
02.109,40.87
02.125,42.22
02.140,42.56
02.156,42.07
02.171,40.96
02.187,39.49
02.203,37.92
02.218,36.47
02.234,35.3
02.250,34.41
02.265,33.69
02.281,32.99
02.296,32.16
02.312,31.07
02.328,29.64
02.343,27.85
02.359,25.63
02.375,22.95
02.390,19.87
02.406,16.49
02.421,13.01
02.437,9.69
02.453,6.71
02.468,4.08
02.484,1.71
02.500,-0.64
02.515,-3.15
02.531,-5.87
02.546,-8.68
02.562,-11.36
02.578,-13.72
02.593,-15.7
02.609,-17.45
02.625,-19.29
02.640,-21.58
02.656,-24.47
02.671,-27.85
02.687,-31.31
02.703,-34.2
02.718,-35.88
02.734,-35.78
02.750,-33.65
02.765,-29.48
02.781,-23.57
02.796,-16.33
02.812,-8.23
02.828,0.23
02.843,8.64
02.859,16.6
02.875,23.74
02.890,29.78
02.906,34.48
02.921,37.74
02.937,39.6
02.953,40.3
02.968,40.16
02.984,39.51
03.000,38.65
03.015,37.7
03.031,36.72
03.046,35.66
03.062,34.43
03.078,32.99
03.093,31.3
03.109,29.39
03.125,27.26
03.140,24.96
03.156,22.56
03.171,20.12
03.187,17.67
03.203,15.2
03.218,12.67
03.234,10.09
03.250,7.46
03.265,4.81
03.281,2.16
03.296,-0.55
03.312,-3.43
03.328,-6.52
03.343,-9.83
03.359,-13.18
03.375,-16.4
03.390,-19.38
03.406,-22.14
03.421,-24.8
03.437,-27.45
03.453,-30.09
03.468,-32.58
03.484,-34.83
03.500,-36.85
03.515,-38.86
03.531,-41.09
03.546,-43.69
03.562,-46.44
03.578,-48.81
03.593,-50.04
03.609,-49.39
03.625,-46.47
03.640,-41.31
03.656,-34.34
03.671,-26.21
03.687,-17.58
03.703,-9.02
03.718,-0.93
03.734,6.46
03.750,12.98
03.765,18.51
03.781,22.97
03.796,26.35
03.812,28.71
03.828,30.11
03.843,30.69
03.859,30.56
03.875,29.89
03.890,28.85
03.906,27.62
03.921,26.37
03.937,25.22
03.953,24.28
03.968,23.54
03.984,23.0
04.000,22.51
04.015,21.9
04.031,21.0
04.046,19.65
04.062,17.79
04.078,15.46
04.093,12.74
04.109,9.75
04.125,6.65
04.140,3.52
04.156,0.5
04.171,-2.35
04.187,-5.03
04.203,-7.6
04.218,-10.15
04.234,-12.77
04.250,-15.46
04.265,-18.17
04.281,-20.83
04.296,-23.37
04.312,-25.8
04.328,-28.18
04.343,-30.65
04.359,-33.36
04.375,-36.39
04.390,-39.85
04.406,-43.69
04.421,-47.72
04.437,-51.56
04.453,-54.64
04.468,-56.38
04.484,-56.22
04.500,-53.94
04.515,-49.55
04.531,-43.42
04.546,-36.05
04.562,-28.02
04.578,-19.87
04.593,-11.99
04.609,-4.73
04.625,1.73
04.640,7.2
04.656,11.61
04.671,14.86
04.687,17.01
04.703,18.16
04.718,18.51
04.734,18.33
04.750,17.87
04.765,17.35
04.781,16.81
04.796,16.24
04.812,15.56
04.828,14.76
04.843,13.9
04.859,13.07
04.875,12.41
04.890,11.95
04.906,11.65
04.921,11.33
04.937,10.85
04.953,10.05
04.968,8.9
04.984,7.47
05.000,5.82
05.015,4.08
05.031,2.29
05.046,0.49
05.062,-1.37
05.078,-3.31
05.093,-5.39
05.109,-7.6
05.125,-9.85
05.140,-12.06
05.156,-14.05
05.171,-15.74
05.187,-17.09
05.203,-18.15
05.218,-19.05
05.234,-20.01
05.250,-21.25
05.265,-22.93
05.281,-25.14
05.296,-27.74
05.312,-30.42
05.328,-32.7
05.343,-33.94
05.359,-33.61
05.375,-31.3
05.390,-26.97
05.406,-20.87
05.421,-13.55
05.437,-5.65
05.453,2.2
05.468,9.53
05.484,16.07
05.500,21.68
05.515,26.32
05.531,29.97
05.546,32.6
05.562,34.21
05.578,34.89
05.593,34.86
05.609,34.42
05.625,33.86
05.640,33.32
05.656,32.81
05.671,32.17
05.687,31.25
05.703,30.01
05.718,28.6
05.734,27.2
05.750,25.94
05.765,24.85
05.781,23.8
05.796,22.6
05.812,21.1
05.828,19.21
05.843,17.04
05.859,14.72
05.875,12.41
05.890,10.21
05.906,8.09
05.921,5.98
05.937,3.77
05.953,1.39
05.968,-1.14
05.984,-3.77
06.000,-6.4
06.015,-8.95
06.031,-11.35
06.046,-13.59
06.062,-15.71
06.078,-17.76
06.093,-19.89
06.109,-22.22
06.125,-24.81
06.140,-27.52
06.156,-30.05
06.171,-31.86
06.187,-32.42
06.203,-31.32
06.218,-28.41
06.234,-23.82
06.250,-17.97
06.265,-11.4
06.281,-4.65
06.296,1.82
06.312,7.75
06.328,13.0
06.343,17.58
06.359,21.53
06.375,24.9
06.390,27.65
06.406,29.67
06.421,30.84
06.437,31.15
06.453,30.66
06.468,29.58
06.484,28.15
06.500,26.51
06.515,24.84
06.531,23.2
06.546,21.68
06.562,20.29
06.578,19.03
06.593,17.85
06.609,16.72
06.625,15.58
06.640,14.35
06.656,12.97
06.671,11.34
06.687,9.37
06.703,7.03
06.718,4.44
06.734,1.79
06.750,-0.65
06.765,-2.76
06.781,-4.61
06.796,-6.49
06.812,-8.74
06.828,-11.57
06.843,-14.93
06.859,-18.59
06.875,-22.2
06.890,-25.43
06.906,-28.16
06.921,-30.45
06.937,-32.47
06.953,-34.47
06.968,-36.59
06.984,-38.87
07.000,-41.2
07.015,-43.36
07.031,-44.97
07.046,-45.58
07.062,-44.71
07.078,-41.99
07.093,-37.33
07.109,-30.9
07.125,-23.15
07.140,-14.77
07.156,-6.45
07.171,1.19
07.187,7.78
07.203,13.2
07.218,17.54
07.234,20.97
07.250,23.61
07.265,25.52
07.281,26.68
07.296,27.13
07.312,26.95
07.328,26.37
07.343,25.62
07.359,24.91
07.375,24.28
07.390,23.61
07.406,22.8
07.421,21.77
07.437,20.62
07.453,19.5
07.468,18.54
07.484,17.78
07.500,17.13
07.515,16.4
07.531,15.38
07.546,13.98
07.562,12.13
07.578,9.96
07.593,7.55
07.609,5.03
07.625,2.45
07.640,-0.15
07.656,-2.83
07.671,-5.7
07.687,-8.81
07.703,-12.27
07.718,-16.02
07.734,-19.83
07.750,-23.41
07.765,-26.51
07.781,-29.03
07.796,-31.07
07.812,-32.87
07.828,-34.64
07.843,-36.6
07.859,-38.82
07.875,-41.28
07.890,-43.93
07.906,-46.62
07.921,-49.1
07.937,-50.93
07.953,-51.55
07.968,-50.4
07.984,-47.21
08.000,-42.01
08.015,-35.22
08.031,-27.51
08.046,-19.58
08.062,-11.92
08.078,-4.85
08.093,1.51
08.109,7.07
08.125,11.7
08.140,15.27
08.156,17.66
08.171,18.83
08.187,18.99
08.203,18.47
08.218,17.64
08.234,16.82
08.250,16.21
08.265,15.85
08.281,15.65
08.296,15.53
08.312,15.4
08.328,15.26
08.343,15.19
08.359,15.2
08.375,15.28
08.390,15.36
08.406,15.32
08.421,15.07
08.437,14.59
08.453,13.86
08.468,12.93
08.484,11.81
08.500,10.48
08.515,8.89
08.531,6.98
08.546,4.76
08.562,2.31
08.578,-0.24
08.593,-2.66
08.609,-4.8
08.625,-6.59
08.640,-8.06
08.656,-9.42
08.671,-10.94
08.687,-12.9
08.703,-15.46
08.718,-18.58
08.734,-21.92
08.750,-24.89
08.765,-26.83
08.781,-27.07
08.796,-25.21
08.812,-21.19
08.828,-15.29
08.843,-8.05
08.859,-0.15
08.875,7.77
08.890,15.17
08.906,21.7
08.921,27.21
08.937,31.65
08.953,35.13
08.968,37.65
08.984,39.26
09.000,39.96
09.015,39.83
09.031,39.04
09.046,37.88
09.062,36.67
09.078,35.66
09.093,35.0
09.109,34.72
09.125,34.76
09.140,35.08
09.156,35.67
09.171,36.5
09.187,37.51
09.203,38.56
09.218,39.41
09.234,39.82
09.250,39.71
09.265,39.13
09.281,38.3
09.296,37.52
09.312,36.98
09.328,36.7
09.343,36.55
09.359,36.28
09.375,35.79
09.390,35.13
09.406,34.56
09.421,34.34
09.437,34.71
09.453,35.73
09.468,37.24
09.484,38.96
09.500,40.55
09.515,41.85
09.531,43.01
09.546,44.64
09.562,47.61
09.578,52.81
09.593,60.68
09.609,71.06
09.625,83.05
09.640,95.33
09.656,106.64
09.671,116.1
09.687,123.41
09.703,128.68
09.718,132.23
09.734,134.3
09.750,134.89
09.765,133.59
09.781,129.38
09.796,120.82
09.812,106.25
09.828,84.42
09.843,55.1
09.859,19.56
09.875,-19.5
09.890,-58.61
09.906,-94.23
09.921,-123.75
09.937,-145.86
09.953,-160.42
09.968,-168.17
09.984,-170.17
10.000,-167.56
10.015,-161.58
10.031,-153.58
10.046,-144.84
10.062,-136.53
10.078,-129.42
10.093,-123.72
10.109,-119.17
10.125,-115.19
10.140,-111.26
10.156,-107.18
10.171,-103.11
10.187,-99.38
10.203,-96.28
10.218,-93.96
10.234,-92.27
10.250,-90.94
10.265,-89.68
10.281,-88.37
10.296,-87.04
10.312,-85.87
10.328,-85.0
10.343,-84.39
10.359,-83.74
10.375,-82.41
10.390,-79.68
10.406,-74.93
10.421,-67.89
10.437,-58.74
10.453,-48.07
10.468,-36.71
10.484,-25.5
10.500,-15.08
10.515,-5.81
10.531,2.2
10.546,8.96
10.562,14.64
10.578,19.36
10.593,23.2
10.609,26.21
10.625,28.37
10.640,29.67
10.656,30.2
10.671,30.08
10.687,29.49
10.703,28.7
10.718,27.85
10.734,27.04
10.750,26.23
10.765,25.32
10.781,24.2
10.796,22.74
10.812,20.86
10.828,18.54
10.843,15.86
10.859,12.9
10.875,9.82
10.890,6.78
10.906,3.82
10.921,0.88
10.937,-2.17
10.953,-5.5
10.968,-9.18
10.984,-13.16
11.000,-17.27
11.015,-21.3
11.031,-25.05
11.046,-28.49
11.062,-31.68
11.078,-34.8
11.093,-38.04
11.109,-41.5
11.125,-45.11
11.140,-48.6
11.156,-51.41
11.171,-52.86
11.187,-52.31
11.203,-49.35
11.218,-43.98
11.234,-36.58
11.250,-27.84
11.265,-18.56
11.281,-9.52
11.296,-1.27
11.312,5.83
11.328,11.69
11.343,16.33
11.359,19.86
11.375,22.41
11.390,24.03
11.406,24.84
11.421,24.89
11.437,24.36
11.453,23.51
11.468,22.57
11.484,21.78
11.500,21.3
11.515,21.09
11.531,21.09
11.546,21.18
11.562,21.2
11.578,21.07
11.593,20.72
11.609,20.1
11.625,19.24
11.640,18.14
11.656,16.71
11.671,14.87
11.687,12.54
11.703,9.73
11.718,6.55
11.734,3.2
11.750,-0.09
11.765,-3.14
11.781,-5.87
11.796,-8.3
11.812,-10.54
11.828,-12.7
11.843,-14.93
11.859,-17.37
11.875,-20.09
11.890,-23.09
11.906,-26.16
11.921,-28.9
11.937,-30.76
11.953,-31.15
11.968,-29.63
11.984,-26.05
12.000,-20.62
12.015,-13.78
12.031,-6.16
12.046,1.59
12.062,8.94
12.078,15.43
12.093,20.78
12.109,24.88
12.125,27.71
12.140,29.37
12.156,30.03
12.171,29.94
12.187,29.32
12.203,28.43
12.218,27.5
12.234,26.69
12.250,26.17
12.265,26.03
12.281,26.22
12.296,26.67
12.312,27.19
12.328,27.63
12.343,27.87
12.359,27.85
12.375,27.56
12.390,27.06
12.406,26.4
12.421,25.62
12.437,24.67
12.453,23.49
12.468,22.08
12.484,20.46
12.500,18.75
12.515,17.11
12.531,15.62
12.546,14.3
12.562,13.02
12.578,11.6
12.593,9.7
12.609,7.09
12.625,3.69
12.640,-0.35
12.656,-4.56
12.671,-8.29
12.687,-10.76
12.703,-11.38
12.718,-9.76
12.734,-6.03
12.750,-0.65
12.765,5.65
12.781,12.06
12.796,17.97
12.812,23.04
12.828,27.21
12.843,30.59
12.859,33.36
12.875,35.56
12.890,37.08
12.906,37.87
12.921,38.01
12.937,37.84
12.953,37.79
12.968,38.32
12.984,39.57
13.000,41.42
13.015,43.48
13.031,45.37
13.046,46.81
13.062,47.77
13.078,48.35
13.093,48.62
13.109,48.57
13.125,48.05
13.140,46.79
13.156,44.56
13.171,41.13
13.187,36.4
13.203,30.28
13.218,22.82
13.234,14.15
13.250,4.57
13.265,-5.44
13.281,-15.42
13.296,-24.97
13.312,-33.87
13.328,-42.1
13.343,-49.75
13.359,-56.95
13.375,-63.78
13.390,-70.27
13.406,-76.32
13.421,-81.65
13.437,-85.79
13.453,-88.11
13.468,-87.99
13.484,-84.97
13.500,-79.0
13.515,-70.53
13.531,-60.4
13.546,-49.58
13.562,-38.9
13.578,-28.91
13.593,-19.84
13.609,-11.74
13.625,-4.64
13.640,1.42
13.656,6.32
13.671,10.02
13.687,12.61
13.703,14.3
13.718,15.44
13.734,16.42
13.750,17.51
13.765,18.83
13.781,20.35
13.796,21.96
13.812,23.54
13.828,25.08
13.843,26.61
13.859,28.2
13.875,29.88
13.890,31.52
13.906,32.97
13.921,33.99
13.937,34.46
13.953,34.42
13.968,33.99
13.984,33.36
14.000,32.71
14.015,32.15
14.031,31.69
14.046,31.24
14.062,30.69
14.078,29.98
14.093,29.15
14.109,28.28
14.125,27.48
14.140,26.77
14.156,26.12
14.171,25.46
14.187,24.65
14.203,23.62
14.218,22.34
14.234,20.84
14.250,19.17
14.265,17.4
14.281,15.61
14.296,13.84
14.312,12.16
14.328,10.59
14.343,9.15
14.359,7.84
14.375,6.69
14.390,5.8
14.406,5.24
14.421,5.08
14.437,5.28
14.453,5.68
14.468,6.1
14.484,6.32
14.500,6.24
14.515,5.79
14.531,5.07
14.546,4.14
14.562,3.05
14.578,1.79
14.593,0.3
14.609,-1.5
14.625,-3.66
14.640,-6.17
14.656,-9.0
14.671,-11.99
14.687,-14.99
14.703,-17.82
14.718,-20.45
14.734,-22.98
14.750,-25.57
14.765,-28.43
14.781,-31.62
14.796,-35.1
14.812,-38.63
14.828,-41.97
14.843,-44.93
14.859,-47.55
14.875,-50.09
14.890,-52.89
14.906,-56.3
14.921,-60.48
14.937,-65.24
14.953,-70.0
14.968,-73.9
14.984,-75.84
15.000,-74.9
15.015,-70.62
15.031,-63.07
15.046,-53.02
15.062,-41.63
15.078,-30.2
15.093,-19.7
15.109,-10.79
15.125,-3.68
15.140,1.69
15.156,5.43
15.171,7.72
15.187,8.71
15.203,8.65
15.218,7.88
15.234,6.85
15.250,5.89
15.265,5.31
15.281,5.11
15.296,5.1
15.312,5.03
15.328,4.64
15.343,3.87
15.359,2.81
15.375,1.69
15.390,0.75
15.406,0.12
15.421,-0.27
15.437,-0.7
15.453,-1.49
15.468,-2.91
15.484,-4.99
15.500,-7.6
15.515,-10.44
15.531,-13.21
15.546,-15.7
15.562,-17.97
15.578,-20.19
15.593,-22.54
15.609,-25.16
15.625,-28.03
15.640,-31.03
15.656,-33.96
15.671,-36.59
15.687,-38.54
15.703,-39.41
15.718,-38.75
15.734,-36.13
15.750,-31.47
15.765,-25.0
15.781,-17.28
15.796,-9.06
15.812,-1.11
15.828,5.99
15.843,11.9
15.859,16.46
15.875,19.71
15.890,21.77
15.906,22.79
15.921,22.91
15.937,22.3
15.953,21.11
15.968,19.52
15.984,17.74
16.000,15.97
16.015,14.42
16.031,13.19
16.046,12.3
16.062,11.67
16.078,11.19
16.093,10.79
16.109,10.5
16.125,10.34
16.140,10.32
16.156,10.26
16.171,9.84
16.187,8.78
16.203,6.91
16.218,4.32
16.234,1.27
16.250,-1.91
16.265,-5.0
16.281,-8.02
16.296,-11.13
16.312,-14.51
16.328,-18.28
16.343,-22.31
16.359,-26.28
16.375,-29.68
16.390,-31.88
16.406,-32.19
16.421,-30.11
16.437,-25.34
16.453,-18.04
16.468,-8.8
16.484,1.43
16.500,11.59
16.515,20.74
16.531,28.31
16.546,34.06
16.562,37.99
16.578,40.3
16.593,41.15
16.609,40.74
16.625,39.33
16.640,37.22
16.656,34.79
16.671,32.41
16.687,30.34
16.703,28.69
16.718,27.4
16.734,26.29
16.750,25.23
16.765,24.12
16.781,22.93
16.796,21.69
16.812,20.45
16.828,19.1
16.843,17.5
16.859,15.47
16.875,12.9
16.890,9.85
16.906,6.5
16.921,3.11
16.937,-0.05
16.953,-2.8
16.968,-5.23
16.984,-7.53
17.000,-10.03
17.015,-12.98
17.031,-16.5
17.046,-20.44
17.062,-24.37
17.078,-27.63
17.093,-29.45
17.109,-29.21
17.125,-26.54
17.140,-21.49
17.156,-14.55
17.171,-6.46
17.187,1.9
17.203,9.77
17.218,16.63
17.234,22.27
17.250,26.68
17.265,29.98
17.281,32.24
17.296,33.53
17.312,33.86
17.328,33.34
17.343,32.16
17.359,30.59
17.375,28.93
17.390,27.35
17.406,25.89
17.421,24.46
17.437,22.92
17.453,21.2
17.468,19.38
17.484,17.53
17.500,15.75
17.515,14.02
17.531,12.2
17.546,10.16
17.562,7.81
17.578,5.15
17.593,2.25
17.609,-0.83
17.625,-4.03
17.640,-7.37
17.656,-10.83
17.671,-14.41
17.687,-18.02
17.703,-21.63
17.718,-25.22
17.734,-28.81
17.750,-32.53
17.765,-36.39
17.781,-40.38
17.796,-44.2
17.812,-47.39
17.828,-49.26
17.843,-49.13
17.859,-46.57
17.875,-41.5
17.890,-34.34
17.906,-25.86
17.921,-16.92
17.937,-8.23
17.953,-0.25
17.968,6.83
17.984,12.95
18.000,17.95
18.015,21.65
18.031,23.91
18.046,24.73
18.062,24.37
18.078,23.25
18.093,21.87
18.109,20.6
18.125,19.55
18.140,18.67
18.156,17.82
18.171,16.86
18.187,15.76
18.203,14.6
18.218,13.45
18.234,12.39
18.250,11.41
18.265,10.4
18.281,9.26
18.296,7.91
18.312,6.27
18.328,4.38
18.343,2.3
18.359,0.05
18.375,-2.38
18.390,-5.04
18.406,-7.98
18.421,-11.17
18.437,-14.5
18.453,-17.83
18.468,-21.01
18.484,-23.91
18.500,-26.54
18.515,-28.97
18.531,-31.38
18.546,-33.9
18.562,-36.48
18.578,-38.98
18.593,-41.04
18.609,-42.15
18.625,-41.78
18.640,-39.49
18.656,-35.07
18.671,-28.63
18.687,-20.63
18.703,-11.76
18.718,-2.83
18.734,5.41
18.750,12.5
18.765,18.22
18.781,22.67
18.796,26.0
18.812,28.4
18.828,29.97
18.843,30.75
18.859,30.77
18.875,30.12
18.890,28.98
18.906,27.58
18.921,26.19
18.937,24.99
18.953,24.12
18.968,23.6
18.984,23.39
19.000,23.43
19.015,23.59
19.031,23.78
19.046,23.82
19.062,23.57
19.078,22.92
19.093,21.83
19.109,20.28
19.125,18.38
19.140,16.23
19.156,13.94
19.171,11.54
19.187,9.06
19.203,6.45
19.218,3.71
19.234,0.93
19.250,-1.78
19.265,-4.3
19.281,-6.51
19.296,-8.38
19.312,-10.02
19.328,-11.65
19.343,-13.5
19.359,-15.78
19.375,-18.53
19.390,-21.6
19.406,-24.54
19.421,-26.72
19.437,-27.37
19.453,-25.82
19.468,-21.69
19.484,-15.07
19.500,-6.42
19.515,3.45
19.531,13.66
19.546,23.48
19.562,32.43
19.578,40.29
19.593,47.09
19.609,52.91
19.625,57.88
19.640,62.14
19.656,65.82
19.671,69.1
19.687,72.13
19.703,74.98
19.718,77.69
19.734,80.24
19.750,82.66
19.765,85.08
19.781,87.7
19.796,90.77
19.812,94.43
19.828,98.6
19.843,102.96
19.859,107.07
19.875,110.61
19.890,113.47
19.906,115.89
19.921,118.22
19.937,120.74
19.953,123.4
19.968,125.64
19.984,126.52
20.000,124.93
20.015,119.71
20.031,109.83
20.046,94.43
20.062,72.91
20.078,45.07
20.093,11.48
20.109,-26.4
20.125,-66.33
20.140,-105.75
20.156,-142.31
20.171,-174.39
20.187,-200.98
20.203,-221.38
20.218,-234.88
20.234,-240.45
20.250,-237.1
20.265,-224.31
20.281,-202.54
20.296,-173.39
20.312,-139.25
20.328,-102.73
20.343,-66.05
20.359,-30.78
20.375,2.08
20.390,31.87
20.406,58.02
20.421,79.93
20.437,97.17
20.453,109.61
20.468,117.43
20.484,121.1
20.500,121.08
20.515,117.65
20.531,110.95
20.546,101.18
20.562,88.9
20.578,75.16
20.593,61.36
20.609,48.87
20.625,38.62
20.640,30.95
20.656,25.83
20.671,23.09
20.687,22.7
20.703,24.69
20.718,28.8
20.734,34.19
20.750,39.31
20.765,42.38
20.781,42.0
20.796,37.77
20.812,30.44
20.828,21.61
20.843,13.07
20.859,6.12
20.875,1.27
20.890,-1.76
20.906,-3.68
20.921,-5.27
20.937,-7.17
20.953,-9.77
20.968,-13.31
20.984,-17.84
21.000,-23.24
21.015,-29.07
21.031,-34.55
21.046,-38.74
21.062,-40.69
21.078,-39.96
21.093,-36.75
21.109,-32.11
21.125,-27.66
21.140,-25.1
21.156,-25.62
21.171,-29.42
21.187,-35.64
21.203,-42.57
21.218,-48.4
21.234,-51.76
21.250,-52.11
21.265,-49.68
21.281,-44.94
21.296,-37.99
21.312,-28.32
21.328,-15.13
21.343,2.16
21.359,23.08
21.375,45.87
21.390,67.87
21.406,86.32
21.421,99.47
21.437,107.08
21.453,110.52
21.468,111.93
21.484,113.49
21.500,116.49
21.515,121.21
21.531,127.15
21.546,133.25
21.562,138.39
21.578,141.39
21.593,141.23
21.609,137.06
21.625,128.6
21.640,116.49
21.656,102.32
21.671,88.0
21.687,74.71
21.703,62.23
21.718,48.96
21.734,32.86
21.750,12.62
21.765,-11.59
21.781,-38.25
21.796,-65.39
21.812,-91.43
21.828,-115.55
21.843,-137.25
21.859,-155.7
21.875,-169.41
21.890,-176.79
21.906,-177.1
21.921,-171.28
21.937,-161.95
21.953,-152.46
21.968,-145.7
21.984,-143.13
22.000,-144.75
22.015,-149.64
22.031,-156.57
22.046,-164.58
22.062,-172.9
22.078,-180.9
22.093,-187.83
22.109,-192.96
22.125,-195.67
22.140,-195.71
22.156,-193.18
22.171,-188.29
22.187,-181.32
22.203,-172.67
22.218,-163.11
22.234,-153.85
22.250,-146.35
22.265,-141.82
22.281,-140.59
22.296,-141.89
22.312,-143.9
22.328,-144.5
22.343,-141.92
22.359,-135.32
22.375,-124.85
22.390,-111.48
22.406,-96.58
22.421,-81.54
22.437,-67.43
22.453,-54.97
22.468,-44.51
22.484,-36.11
22.500,-29.64
22.515,-24.79
22.531,-21.09
22.546,-17.94
22.562,-14.82
22.578,-11.29
22.593,-7.23
22.609,-2.85
22.625,1.33
22.640,4.71
22.656,6.79
22.671,7.43
22.687,6.89
22.703,5.66
22.718,4.36
22.734,3.39
22.750,2.87
22.765,2.54
22.781,1.97
22.796,0.68
22.812,-1.59
22.828,-4.78
22.843,-8.53
22.859,-12.23
22.875,-15.19
22.890,-16.66
22.906,-16.06
22.921,-12.97
22.937,-7.32
22.953,0.61
22.968,10.22
22.984,20.71
23.000,31.28
23.015,41.26
23.031,50.23
23.046,58.02
23.062,64.63
23.078,70.2
23.093,74.87
23.109,78.76
23.125,81.96
23.140,84.54
23.156,86.47
23.171,87.65
23.187,87.99
23.203,87.41
23.218,85.91
23.234,83.53
23.250,80.34
23.265,76.37
23.281,71.63
23.296,66.11
23.312,59.86
23.328,52.99
23.343,45.68
23.359,38.17
23.375,30.71
23.390,23.63
23.406,17.29
23.421,12.14
23.437,8.57
23.453,6.76
23.468,6.58
23.484,7.54
23.500,8.93
23.515,10.05
23.531,10.36
23.546,9.6
23.562,7.63
23.578,4.24
23.593,-0.91
23.609,-8.2
23.625,-17.75
23.640,-29.13
23.656,-41.27
23.671,-52.62
23.687,-61.58
23.703,-66.83
23.718,-67.63
23.734,-63.77
23.750,-55.66
23.765,-44.02
23.781,-29.83
23.796,-14.23
23.812,1.64
23.828,16.7
23.843,30.08
23.859,41.17
23.875,49.72
23.890,55.84
23.906,60.11
23.921,63.71
23.937,68.25
23.953,75.6
23.968,87.34
23.984,104.29
24.000,126.06
24.015,151.06
24.031,176.65
24.046,199.76
24.062,217.46
24.078,227.52
24.093,228.71
24.109,221.02
24.125,205.52
24.140,184.11
24.156,159.14
24.171,132.86
24.187,107.0
24.203,82.49
24.218,59.44
24.234,37.51
24.250,16.18
24.265,-4.71
24.281,-24.79
24.296,-43.09
24.312,-58.44
24.328,-69.91
24.343,-77.21
24.359,-80.75
24.375,-81.49
24.390,-80.46
24.406,-78.38
24.421,-75.49
24.437,-71.73
24.453,-67.07
24.468,-61.85
24.484,-56.74
24.500,-52.55
24.515,-49.8
24.531,-48.44
24.546,-47.96
24.562,-47.65
24.578,-46.91
24.593,-45.52
24.609,-43.59
24.625,-41.37
24.640,-39.1
24.656,-36.81
24.671,-34.5
24.687,-32.33
24.703,-30.74
24.718,-30.32
24.734,-31.57
24.750,-34.51
24.765,-38.58
24.781,-42.81
24.796,-46.22
24.812,-48.09
24.828,-48.3
24.843,-47.26
24.859,-45.58
24.875,-43.81
24.890,-42.21
24.906,-40.64
24.921,-38.8
24.937,-36.37
24.953,-33.26
24.968,-29.74
24.984,-26.4
25.000,-23.95
25.015,-23.0
25.031,-23.85
25.046,-26.45
25.062,-30.47
25.078,-35.45
25.093,-40.92
25.109,-46.55
25.125,-51.98
25.140,-56.93
25.156,-61.11
25.171,-64.38
25.187,-66.75
25.203,-68.41
25.218,-69.47
25.234,-69.74
25.250,-68.58
25.265,-64.9
25.281,-57.61
25.296,-46.18
25.312,-30.95
25.328,-13.09
25.343,5.69
25.359,23.72
25.375,39.75
25.390,53.07
25.406,63.5
25.421,71.12
25.437,76.17
25.453,78.98
25.468,79.98
25.484,79.63
25.500,78.36
25.515,76.6
25.531,74.69
25.546,73.03
25.562,71.9
25.578,71.41
25.593,71.42
25.609,71.59
25.625,71.51
25.640,70.98
25.656,70.08
25.671,69.03
25.687,68.0
25.703,66.8
25.718,64.98
25.734,61.88
25.750,57.0
25.765,50.21
25.781,41.72
25.796,32.02
25.812,21.56
25.828,10.7
25.843,-0.33
25.859,-11.34
25.875,-22.14
25.890,-32.65
25.906,-42.82
25.921,-52.77
25.937,-62.57
25.953,-72.13
25.968,-81.03
25.984,-88.35
26.000,-93.0
26.015,-93.9
26.031,-90.52
26.046,-83.11
26.062,-72.72
26.078,-60.86
26.093,-49.05
26.109,-38.41
26.125,-29.35
26.140,-21.74
26.156,-15.19
26.171,-9.39
26.187,-4.24
26.203,0.12
26.218,3.53
26.234,6.05
26.250,7.85
26.265,9.29
26.281,10.64
26.296,12.01
26.312,13.27
26.328,14.19
26.343,14.5
26.359,14.18
26.375,13.39
26.390,12.37
26.406,11.31
26.421,10.17
26.437,8.62
26.453,6.28
26.468,2.86
26.484,-1.63
26.500,-6.81
26.515,-12.11
26.531,-17.1
26.546,-21.63
26.562,-25.95
26.578,-30.58
26.593,-35.98
26.609,-42.31
26.625,-49.26
26.640,-56.06
26.656,-61.66
26.671,-65.02
26.687,-65.33
26.703,-62.22
26.718,-55.84
26.734,-46.79
26.750,-35.95
26.765,-24.34
26.781,-12.86
26.796,-2.26
26.812,6.95
26.828,14.54
26.843,20.46
26.859,24.78
26.875,27.7
26.890,29.39
26.906,30.05
26.921,29.88
26.937,29.12
26.953,27.98
26.968,26.69
26.984,25.35
27.000,24.0
27.015,22.61
27.031,21.12
27.046,19.45
27.062,17.54
27.078,15.34
27.093,12.83
27.109,9.99
27.125,6.86
27.140,3.46
27.156,-0.08
27.171,-3.67
27.187,-7.29
27.203,-10.96
27.218,-14.77
27.234,-18.92
27.250,-23.68
27.265,-29.27
27.281,-35.76
27.296,-42.76
27.312,-49.45
27.328,-54.67
27.343,-57.13
27.359,-55.92
27.375,-50.82
27.390,-42.32
27.406,-31.41
27.421,-19.28
27.437,-6.89
27.453,5.11
27.468,16.37
27.484,26.69
27.500,35.89
27.515,43.76
27.531,50.06
27.546,54.74
27.562,57.86
27.578,59.68
27.593,60.52
27.609,60.76
27.625,60.74
27.640,60.68
27.656,60.7
27.671,60.77
27.687,60.84
27.703,60.84
27.718,60.69
27.734,60.27
27.750,59.47
27.765,58.1
27.781,55.96
27.796,53.0
27.812,49.29
27.828,45.02
27.843,40.35
27.859,35.36
27.875,29.9
27.890,23.75
27.906,16.67
27.921,8.55
27.937,-0.4
27.953,-9.67
27.968,-18.41
27.984,-25.62
28.000,-30.23
28.015,-31.47
28.031,-29.01
28.046,-23.05
28.062,-14.34
28.078,-3.8
28.093,7.59
28.109,19.1
28.125,30.19
28.140,40.54
28.156,49.82
28.171,57.65
28.187,63.77
28.203,68.07
28.218,70.76
28.234,72.32
28.250,73.29
28.265,74.05
28.281,74.6
28.296,74.56
28.312,73.38
28.328,70.49
28.343,65.49
28.359,58.23
28.375,48.8
28.390,37.46
28.406,24.61
28.421,10.53
28.437,-4.61
28.453,-20.79
28.468,-38.2
28.484,-57.15
28.500,-77.83
28.515,-100.17
28.531,-123.69
28.546,-147.34
28.562,-169.92
28.578,-190.19
28.593,-207.17
28.609,-220.25
28.625,-229.66
28.640,-236.4
28.656,-242.03
28.671,-248.2
28.687,-255.22
28.703,-261.53
28.718,-263.5
28.734,-256.18
28.750,-235.2
28.765,-198.65
28.781,-147.87
28.796,-86.92
28.812,-21.11
28.828,44.39
28.843,104.89
28.859,155.96
28.875,193.4
28.890,213.99
28.906,217.12
28.921,205.94
28.937,186.98
28.953,167.9
28.968,154.41
28.984,148.06
29.000,146.31
29.015,144.89
29.031,140.35
29.046,132.11
29.062,122.09
29.078,112.9
29.093,105.95
29.109,100.83
29.125,95.89
29.140,89.59
29.156,81.65
29.171,72.7
29.187,64.04
29.203,56.61
29.218,50.42
29.234,44.57
29.250,37.98
29.265,29.92
29.281,20.52
29.296,10.66
29.312,1.45
29.328,-6.21
29.343,-12.12
29.359,-16.89
29.375,-21.63
29.390,-27.44
29.406,-34.9
29.421,-43.72
29.437,-52.66
29.453,-59.95
29.468,-63.8
29.484,-62.96
29.500,-57.18
29.515,-47.12
29.531,-34.0
29.546,-19.19
29.562,-3.71
29.578,11.92
29.593,27.45
29.609,42.69
29.625,57.22
29.640,70.11
29.656,80.28
29.671,86.74
29.687,89.01
29.703,87.36
29.718,82.79
29.734,76.64
29.750,70.19
29.765,64.29
29.781,59.23
29.796,54.8
29.812,50.59
29.828,46.2
29.843,41.5
29.859,36.65
29.875,31.98
29.890,27.85
29.906,24.47
29.921,21.89
29.937,19.91
29.953,18.26
29.968,16.61
29.984,14.76
30.000,12.64
30.015,10.44
30.031,8.5
30.046,7.21
30.062,6.87
30.078,7.51
30.093,8.87
30.109,10.38
30.125,11.42
30.140,11.46
30.156,10.46
30.171,8.88
30.187,7.62
30.203,7.76
30.218,10.29
30.234,15.8
30.250,24.52
30.265,36.28
30.281,50.7
30.296,67.3
30.312,85.61
30.328,105.27
30.343,126.0
30.359,147.63
30.375,169.8
30.390,191.49
30.406,210.51
30.421,223.58
30.437,227.11
30.453,218.67
30.468,198.3
30.484,169.15
30.500,136.67
30.515,106.83
30.531,84.14
30.546,70.23
30.562,63.86
30.578,62.03
30.593,61.7
30.609,60.91
30.625,59.31
30.640,57.53
30.656,56.47
30.671,56.61
30.687,57.88
30.703,59.84
30.718,61.92
30.734,63.62
30.750,64.22
30.765,62.59
30.781,56.99
30.796,45.48
30.812,26.61
30.828,0.33
30.843,-31.49
30.859,-65.4
30.875,-97.23
30.890,-123.25
30.906,-140.94
30.921,-149.23
30.937,-148.04
30.953,-137.95
30.968,-120.08
30.984,-96.55
31.000,-71.08
31.015,-49.0
31.031,-36.1
31.046,-36.76
31.062,-52.21
31.078,-79.94
31.093,-114.6
31.109,-150.04
31.125,-181.06
31.140,-204.19
31.156,-217.26
31.171,-218.69
31.187,-207.54
31.203,-184.68
31.218,-154.21
31.234,-123.56
31.250,-101.74
31.265,-96.13
31.281,-109.49
31.296,-138.97
31.312,-177.57
31.328,-217.14
31.343,-251.23
31.359,-276.18
31.375,-290.66
31.390,-294.21
31.406,-286.46
31.421,-267.32
31.437,-238.08
31.453,-202.1
31.468,-164.62
31.484,-131.34
31.500,-106.56
31.515,-91.96
31.531,-86.32
31.546,-86.52
31.562,-88.83
31.578,-90.27
31.593,-89.23
31.609,-85.46
31.625,-79.65
31.640,-72.81
31.656,-65.88
31.671,-59.49
31.687,-53.86
31.703,-48.8
31.718,-43.78
31.734,-38.04
31.750,-30.85
31.765,-21.76
31.781,-10.79
31.796,1.54
31.812,14.47
31.828,27.25
31.843,39.34
31.859,50.49
31.875,60.67
31.890,69.9
31.906,78.18
31.921,85.43
31.937,91.51
31.953,96.21
31.968,99.38
31.984,100.97
32.000,101.17
32.015,100.29
32.031,98.78
32.046,97.07
32.062,95.58
32.078,94.65
32.093,94.61
32.109,95.76
32.125,98.27
32.140,102.01
32.156,106.42
32.171,110.67
32.187,113.88
32.203,115.37
32.218,114.92
32.234,112.77
32.250,109.62
32.265,106.5
32.281,104.68
32.296,105.35
32.312,109.35
32.328,116.71
32.343,126.38
32.359,136.43
32.375,144.67
32.390,149.36
32.406,149.99
32.421,147.48
32.437,143.99
32.453,142.34
32.468,145.37
32.484,155.08
32.500,171.91
32.515,194.07
32.531,217.32
32.546,235.69
32.562,243.03
32.578,234.87
32.593,210.04
32.609,171.08
32.625,123.17
32.640,72.27
32.656,23.19
32.671,-21.56
32.687,-61.65
32.703,-98.17
32.718,-132.49
32.734,-165.56
32.750,-197.6
32.765,-228.22
32.781,-256.47
32.796,-280.95
32.812,-299.74
32.828,-310.75
32.843,-312.23
32.859,-303.48
32.875,-285.34
32.890,-260.3
32.906,-232.0
32.921,-204.26
32.937,-180.13
32.953,-161.2
32.968,-147.4
32.984,-137.51
33.000,-129.94
33.015,-123.36
33.031,-117.18
33.046,-111.41
33.062,-106.38
33.078,-102.31
33.093,-99.3
33.109,-97.17
33.125,-95.72
33.140,-94.72
33.156,-93.89
33.171,-92.81
33.187,-90.7
33.203,-86.58
33.218,-79.43
33.234,-68.68
33.250,-54.4
33.265,-37.4
33.281,-18.97
33.296,-0.62
33.312,16.24
33.328,30.58
33.343,41.75
33.359,49.59
33.375,54.35
33.390,56.6
33.406,57.15
33.421,56.83
33.437,56.33
33.453,56.02
33.468,56.04
33.484,56.45
33.500,57.37
33.515,58.97
33.531,61.34
33.546,64.22
33.562,66.79
33.578,67.95
33.593,66.53
33.609,61.88
33.625,54.11
33.640,44.06
33.656,32.91
33.671,21.7
33.687,11.12
33.703,1.41
33.718,-7.4
33.734,-15.28
33.750,-22.19
33.765,-28.17
33.781,-33.55
33.796,-38.92
33.812,-44.96
33.828,-52.08
33.843,-60.19
33.859,-68.71
33.875,-76.83
33.890,-83.85
33.906,-89.43
33.921,-93.56
33.937,-96.21
33.953,-97.14
33.968,-95.85
33.984,-91.74
34.000,-84.44
34.015,-74.11
34.031,-61.5
34.046,-47.74
34.062,-34.07
34.078,-21.38
34.093,-10.13
34.109,-0.32
34.125,8.29
34.140,16.08
34.156,23.38
34.171,30.32
34.187,36.93
34.203,43.1
34.218,48.8
34.234,53.99
34.250,58.67
34.265,62.78
34.281,66.12
34.296,68.5
34.312,69.7
34.328,69.69
34.343,68.62
34.359,66.79
34.375,64.48
34.390,61.83
34.406,58.81
34.421,55.22
34.437,50.89
34.453,45.74
34.468,39.95
34.484,33.84
34.500,27.79
34.515,22.13
34.531,17.05
34.546,12.62
34.562,8.68
34.578,4.97
34.593,1.03
34.609,-3.66
34.625,-9.6
34.640,-17.07
34.656,-25.88
34.671,-35.22
34.687,-43.7
34.703,-49.61
34.718,-51.47
34.734,-48.35
34.750,-40.24
34.765,-28.01
34.781,-13.1
34.796,2.81
34.812,18.2
34.828,31.85
34.843,42.97
34.859,51.1
34.875,56.13
34.890,58.27
34.906,58.05
34.921,56.27
34.937,53.85
34.953,51.6
34.968,50.08
34.984,49.44
35.000,49.5
35.015,49.84
35.031,50.12
35.046,50.13
35.062,49.92
35.078,49.64
35.093,49.41
35.109,49.05
35.125,48.07
35.140,45.72
35.156,41.32
35.171,34.48
35.187,25.37
35.203,14.77
35.218,3.78
35.234,-6.55
35.250,-15.59
35.265,-23.3
35.281,-30.17
35.296,-36.86
35.312,-43.82
35.328,-51.03
35.343,-57.86
35.359,-63.29
35.375,-66.17
35.390,-65.67
35.406,-61.41
35.421,-53.69
35.437,-43.32
35.453,-31.34
35.468,-18.79
35.484,-6.43
35.500,5.18
35.515,15.79
35.531,25.18
35.546,33.23
35.562,39.84
35.578,45.03
35.593,48.89
35.609,51.6
35.625,53.28
35.640,53.95
35.656,53.59
35.671,52.18
35.687,49.81
35.703,46.73
35.718,43.23
35.734,39.6
35.750,35.94
35.765,32.16
35.781,28.05
35.796,23.35
35.812,17.94
35.828,11.97
35.843,5.83
35.859,0.02
35.875,-4.88
35.890,-8.5
35.906,-10.68
35.921,-11.63
35.937,-11.93
35.953,-12.51
35.968,-14.4
35.984,-18.42
36.000,-24.92
36.015,-33.38
36.031,-42.56
36.046,-50.6
36.062,-55.61
36.078,-56.11
36.093,-51.52
36.109,-42.2
36.125,-29.22
36.140,-14.08
36.156,1.8
36.171,17.25
36.187,31.42
36.203,43.73
36.218,53.66
36.234,60.77
36.250,64.67
36.265,65.28
36.281,62.94
36.296,58.44
36.312,52.86
36.328,47.3
36.343,42.62
36.359,39.19
36.375,37.0
36.390,35.79
36.406,35.25
36.421,35.15
36.437,35.35
36.453,35.64
36.468,35.64
36.484,34.87
36.500,32.76
36.515,29.01
36.531,23.68
36.546,17.2
36.562,10.25
36.578,3.53
36.593,-2.45
36.609,-7.58
36.625,-12.04
36.640,-16.21
36.656,-20.51
36.671,-25.25
36.687,-30.53
36.703,-36.1
36.718,-41.33
36.734,-45.38
36.750,-47.43
36.765,-46.96
36.781,-43.95
36.796,-38.83
36.812,-32.37
36.828,-25.37
36.843,-18.45
36.859,-11.98
36.875,-6.13
36.890,-0.95
36.906,3.59
36.921,7.61
36.937,11.26
36.953,14.69
36.968,17.94
36.984,20.95
37.000,23.53
37.015,25.48
37.031,26.75
37.046,27.42
37.062,27.68
37.078,27.77
37.093,27.87
37.109,28.08
37.125,28.41
37.140,28.79
37.156,29.08
37.171,29.17
37.187,28.9
37.203,28.23
37.218,27.12
37.234,25.6
37.250,23.64
37.265,21.33
37.281,18.79
37.296,16.2
37.312,13.84
37.328,11.88
37.343,10.38
37.359,9.2
37.375,8.05
37.390,6.55
37.406,4.39
37.421,1.45
37.437,-2.19
37.453,-6.16
37.468,-9.91
37.484,-12.74
37.500,-13.95
37.515,-13.01
37.531,-9.75
37.546,-4.37
37.562,2.5
37.578,9.98
37.593,17.17
37.609,23.35
37.625,28.09
37.640,31.32
37.656,33.21
37.671,33.99
37.687,33.88
37.703,32.97
37.718,31.3
37.734,29.03
37.750,26.47
37.765,24.09
37.781,22.42
37.796,21.86
37.812,22.48
37.828,24.07
37.843,26.16
37.859,28.23
37.875,29.86
37.890,30.75
37.906,30.83
37.921,30.18
37.937,29.08
37.953,27.88
37.968,26.95
37.984,26.55
38.000,26.73
38.015,27.37
38.031,28.19
38.046,28.97
38.062,29.72
38.078,30.66
38.093,32.21
38.109,34.72
38.125,38.17
38.140,41.99
38.156,45.12
38.171,46.11
38.187,43.57
38.203,36.64
38.218,25.32
38.234,10.55
38.250,-5.83
38.265,-21.53
38.281,-34.39
38.296,-42.73
38.312,-45.73
38.328,-43.46
38.343,-36.62
38.359,-26.24
38.375,-13.32
38.390,1.31
38.406,17.03
38.421,33.1
38.437,48.67
38.453,62.68
38.468,74.12
38.484,82.35
38.500,87.35
38.515,89.87
38.531,91.23
38.546,93.03
38.562,96.6
38.578,102.52
38.593,110.18
38.609,117.55
38.625,121.45
38.640,118.34
38.656,105.5
38.671,82.06
38.687,49.52
38.703,11.3
38.718,-28.18
38.734,-64.86
38.750,-95.87
38.765,-119.78
38.781,-136.27
38.796,-145.53
38.812,-147.89
38.828,-143.93
38.843,-134.79
38.859,-122.29
38.875,-108.77
38.890,-96.56
38.906,-87.25
38.921,-81.34
38.937,-78.22
38.953,-76.6
38.968,-75.15
38.984,-72.95
39.000,-69.7
39.015,-65.66
39.031,-61.45
39.046,-57.8
39.062,-55.36
39.078,-54.54
39.093,-55.33
39.109,-57.35
39.125,-59.85
39.140,-61.96
39.156,-62.82
39.171,-61.82
39.187,-58.53
39.203,-52.71
39.218,-44.28
39.234,-33.49
39.250,-20.97
39.265,-7.81
39.281,4.7
39.296,15.37
39.312,23.5
39.328,28.96
39.343,32.16
39.359,33.83
39.375,34.73
39.390,35.58
39.406,36.97
39.421,39.24
39.437,42.31
39.453,45.48
39.468,47.41
39.484,46.44
39.500,41.19
39.515,31.26
39.531,17.57
39.546,2.19
39.562,-12.24
39.578,-23.38
39.593,-29.85
39.609,-31.44
39.625,-29.0
39.640,-23.81
39.656,-17.25
39.671,-10.44
39.687,-4.08
39.703,1.42
39.718,5.88
39.734,9.34
39.750,11.9
39.765,13.66
39.781,14.59
39.796,14.3
39.812,12.18
39.828,7.55
39.843,0.02
39.859,-10.2
39.875,-22.1
39.890,-34.08
39.906,-44.32
39.921,-51.19
39.937,-53.72
39.953,-51.58
39.968,-45.12
39.984,-35.14
40.000,-22.66
40.015,-8.93
40.031,4.79
40.046,17.19
40.062,27.2
40.078,34.26
40.093,38.5
40.109,40.68
40.125,41.99
40.140,43.64
40.156,46.51
40.171,50.85
40.187,56.12
40.203,61.03
40.218,63.73
40.234,62.28
40.250,55.14
40.265,41.79
40.281,23.11
40.296,1.35
40.312,-20.36
40.328,-38.89
40.343,-51.94
40.359,-58.6
40.375,-59.34
40.390,-55.56
40.406,-48.97
40.421,-41.04
40.437,-32.85
40.453,-25.06
40.468,-18.15
40.484,-12.55
40.500,-8.62
40.515,-6.45
40.531,-5.79
40.546,-6.04
40.562,-6.39
40.578,-6.27
40.593,-5.51
40.609,-4.55
40.625,-4.17
40.640,-5.2
40.656,-8.12
40.671,-12.83
40.687,-18.65
40.703,-24.57
40.718,-29.62
40.734,-33.01
40.750,-34.39
40.765,-33.73
40.781,-31.39
40.796,-27.9
40.812,-23.85
40.828,-19.77
40.843,-16.03
40.859,-12.82
40.875,-10.13
40.890,-7.96
40.906,-6.27
40.921,-5.1
40.937,-4.51
40.953,-4.46
40.968,-4.81
40.984,-5.37
41.000,-5.93
41.015,-6.36
41.031,-6.67
41.046,-7.05
41.062,-7.73
41.078,-8.95
41.093,-10.72
41.109,-12.85
41.125,-14.9
41.140,-16.36
41.156,-16.83
41.171,-16.25
41.187,-14.81
41.203,-13.01
41.218,-11.44
41.234,-10.61
41.250,-10.91
41.265,-12.4
41.281,-14.83
41.296,-17.59
41.312,-19.81
41.328,-20.5
41.343,-18.84
41.359,-14.57
41.375,-8.07
41.390,-0.33
41.406,7.48
41.421,14.34
41.437,19.65
41.453,23.29
41.468,25.39
41.484,26.14
41.500,25.68
41.515,24.02
41.531,21.24
41.546,17.65
41.562,13.86
41.578,10.61
41.593,8.75
41.609,8.91
41.625,11.32
41.640,15.69
41.656,21.25
41.671,26.98
41.687,31.89
41.703,35.35
41.718,37.2
41.734,37.75
41.750,37.49
41.765,36.86
41.781,36.1
41.796,35.19
41.812,33.82
41.828,31.46
41.843,27.38
41.859,20.79
41.875,11.08
41.890,-2.01
41.906,-17.99
41.921,-35.65
41.937,-53.17
41.953,-68.58
41.968,-80.14
41.984,-86.69
42.000,-87.72
42.015,-83.32
42.031,-74.11
42.046,-61.03
42.062,-45.22
42.078,-27.91
42.093,-10.23
42.109,6.9
42.125,22.91
42.140,37.56
42.156,50.72
42.171,62.16
42.187,71.33
42.203,77.27
42.218,78.63
42.234,73.98
42.250,62.3
42.265,43.52
42.281,19.1
42.296,-8.02
42.312,-33.89
42.328,-54.59
42.343,-67.29
42.359,-71.13
42.375,-67.2
42.390,-58.02
42.406,-46.56
42.421,-35.33
42.437,-25.94
42.453,-19.03
42.468,-14.61
42.484,-12.29
42.500,-11.42
42.515,-11.25
42.531,-11.02
42.546,-10.3
42.562,-9.41
42.578,-9.59
42.593,-12.76
42.609,-20.97
42.625,-35.3
42.640,-55.15
42.656,-78.07
42.671,-100.17
42.687,-117.29
42.703,-126.15
42.718,-125.26
42.734,-114.99
42.750,-97.28
42.765,-74.75
42.781,-50.07
42.796,-25.46
42.812,-2.6
42.828,17.38
42.843,33.74
42.859,46.15
42.875,54.72
42.890,59.97
42.906,62.75
42.921,64.13
42.937,65.11
42.953,66.57
42.968,68.97
42.984,72.29
43.000,75.93
43.015,78.66
43.031,78.76
43.046,74.5
43.062,64.64
43.078,49.0
43.093,28.89
43.109,6.74
43.125,-14.48
43.140,-32.05
43.156,-44.24
43.171,-50.58
43.187,-51.72
43.203,-49.06
43.218,-44.25
43.234,-38.88
43.250,-34.33
43.265,-31.57
43.281,-31.04
43.296,-32.46
43.312,-34.79
43.328,-36.31
43.343,-35.14
43.359,-29.92
43.375,-20.43
43.390,-7.98
43.406,4.83
43.421,14.92
43.437,19.76
43.453,18.46
43.468,12.19
43.484,3.66
43.500,-3.96
43.515,-8.24
43.531,-8.37
43.546,-5.02
43.562,0.28
43.578,6.06
43.593,11.6
43.609,17.0
43.625,22.66
43.640,28.76
43.656,35.03
43.671,40.78
43.687,45.44
43.703,48.92
43.718,51.67
43.734,54.42
43.750,57.68
43.765,61.34
43.781,64.56
43.796,66.1
43.812,64.68
43.828,59.58
43.843,50.84
43.859,39.25
43.875,26.03
43.890,12.31
43.906,-1.16
43.921,-14.18
43.937,-27.01
43.953,-40.17
43.968,-53.92
43.984,-68.14
44.000,-82.09
44.015,-94.54
44.031,-103.96
44.046,-108.92
44.062,-108.41
44.078,-102.15
44.093,-90.69
44.109,-75.15
44.125,-56.95
44.140,-37.44
44.156,-17.66
44.171,1.61
44.187,19.78
44.203,36.23
44.218,50.35
44.234,61.58
44.250,69.68
44.265,74.79
44.281,77.3
44.296,77.82
44.312,76.82
44.328,74.74
44.343,71.78
44.359,68.22
44.375,64.34
44.390,60.41
44.406,56.64
44.421,53.03
44.437,49.44
44.453,45.55
44.468,41.1
44.484,35.9
44.500,30.0
44.515,23.59
44.531,16.9
44.546,10.12
44.562,3.33
44.578,-3.34
44.593,-9.77
44.609,-15.65
44.625,-20.66
44.640,-24.56
44.656,-27.32
44.671,-29.23
44.687,-30.83
44.703,-32.79
44.718,-35.63
44.734,-39.57
44.750,-44.33
44.765,-49.08
44.781,-52.71
44.796,-53.94
44.812,-51.79
44.828,-45.87
44.843,-36.56
44.859,-24.92
44.875,-12.38
44.890,-0.41
44.906,9.99
44.921,18.22
44.937,24.3
44.953,28.56
44.968,31.39
44.984,33.14
45.000,33.95
45.015,33.83
45.031,32.73
45.046,30.77
45.062,28.13
45.078,25.21
45.093,22.37
45.109,19.81
45.125,17.62
45.140,15.71
45.156,13.99
45.171,12.49
45.187,11.44
45.203,11.11
45.218,11.73
45.234,13.3
45.250,15.53
45.265,18.02
45.281,20.32
45.296,22.06
45.312,23.06
45.328,23.3
45.343,22.81
45.359,21.68
45.375,19.99
45.390,17.77
45.406,15.17
45.421,12.21
45.437,8.8
45.453,4.69
45.468,-0.56
45.484,-7.4
45.500,-16.09
45.515,-26.52
45.531,-38.05
45.546,-49.58
45.562,-59.7
45.578,-66.98
45.593,-70.35
45.609,-69.31
45.625,-64.03
45.640,-55.33
45.656,-44.4
45.671,-32.58
45.687,-21.03
45.703,-10.56
45.718,-1.47
45.734,6.37
45.750,13.33
45.765,19.83
45.781,26.14
45.796,32.29
45.812,38.18
45.828,43.67
45.843,48.72
45.859,53.43
45.875,57.96
45.890,62.4
45.906,66.74
45.921,70.79
45.937,74.17
45.953,76.46
45.968,77.11
45.984,75.62
46.000,71.6
46.015,64.93
46.031,55.83
46.046,44.86
46.062,32.82
46.078,20.53
46.093,8.72
46.109,-2.15
46.125,-11.81
46.140,-20.14
46.156,-27.14
46.171,-32.86
46.187,-37.39
46.203,-40.97
46.218,-43.87
46.234,-46.43
46.250,-49.01
46.265,-51.9
46.281,-55.17
46.296,-58.66
46.312,-61.84
46.328,-63.89
46.343,-63.91
46.359,-61.1
46.375,-55.0
46.390,-45.61
46.406,-33.41
46.421,-19.16
46.437,-3.79
46.453,11.81
46.468,26.9
46.484,40.83
46.500,53.04
46.515,63.14
46.531,70.95
46.546,76.61
46.562,80.66
46.578,83.84
46.593,86.93
46.609,90.4
46.625,94.3
46.640,98.21
46.656,101.48
46.671,103.59
46.687,104.4
46.703,104.27
46.718,103.79
46.734,103.54
46.750,103.67
46.765,103.83
46.781,103.2
46.796,100.86
46.812,96.1
46.828,88.73
46.843,79.07
46.859,67.83
46.875,56.0
46.890,44.71
46.906,35.08
46.921,27.94
46.937,23.46
46.953,20.76
46.968,17.87
46.984,12.34
47.000,2.08
47.015,-13.64
47.031,-33.55
47.046,-54.76
47.062,-73.83
47.078,-88.04
47.093,-96.24
47.109,-98.94
47.125,-97.45
47.140,-93.05
47.156,-86.27
47.171,-77.07
47.187,-65.38
47.203,-51.83
47.218,-37.93
47.234,-25.8
47.250,-17.45
47.265,-14.12
47.281,-15.99
47.296,-22.24
47.312,-31.48
47.328,-42.06
47.343,-52.3
47.359,-60.57
47.375,-65.36
47.390,-65.54
47.406,-60.59
47.421,-50.79
47.437,-37.21
47.453,-21.38
47.468,-4.93
47.484,10.77
47.500,24.84
47.515,36.93
47.531,47.1
47.546,55.68
47.562,63.18
47.578,70.02
47.593,76.5
47.609,82.83
47.625,89.13
47.640,95.49
47.656,101.91
47.671,108.07
47.687,113.36
47.703,116.8
47.718,117.24
47.734,113.61
47.750,105.09
47.765,91.3
47.781,72.37
47.796,49.1
47.812,22.96
47.828,-3.93
47.843,-29.05
47.859,-50.04
47.875,-65.28
47.890,-74.35
47.906,-78.11
47.921,-78.33
47.937,-77.24
47.953,-77.07
47.968,-79.62
47.984,-85.96
48.000,-96.01
48.015,-108.3
48.031,-120.08
48.046,-128.08
48.062,-129.48
48.078,-122.94
48.093,-109.06
48.109,-90.07
48.125,-68.97
48.140,-48.48
48.156,-30.27
48.171,-14.76
48.187,-1.47
48.203,10.58
48.218,22.32
48.234,34.18
48.250,45.93
48.265,56.5
48.281,64.13
48.296,66.74
48.312,62.58
48.328,50.78
48.343,31.89
48.359,7.69
48.375,-19.01
48.390,-45.04
48.406,-67.46
48.421,-84.06
48.437,-93.66
48.453,-96.13
48.468,-92.38
48.484,-83.87
48.500,-72.39
48.515,-59.6
48.531,-46.83
48.546,-35.1
48.562,-25.2
48.578,-17.67
48.593,-12.76
48.609,-10.29
48.625,-9.63
48.640,-9.89
48.656,-10.17
48.671,-9.9
48.687,-9.08
48.703,-8.16
48.718,-7.77
48.734,-8.24
48.750,-9.39
48.765,-10.45
48.781,-10.28
48.796,-7.93
48.812,-3.11
48.828,3.4
48.843,9.82
48.859,13.76
48.875,12.88
48.890,5.65
48.906,-8.23
48.921,-27.59
48.937,-50.09
48.953,-72.54
48.968,-91.65
48.984,-104.62
49.000,-109.83
49.015,-107.03
49.031,-97.38
49.046,-82.87
49.062,-65.67
49.078,-47.56
49.093,-29.7
49.109,-12.77
49.125,2.61
49.140,15.51
49.156,24.71
49.171,29.12
49.187,28.47
49.203,23.6
49.218,16.41
49.234,9.11
49.250,3.42
49.265,-0.04
49.281,-1.86
49.296,-3.23
49.312,-5.16
49.328,-7.87
49.343,-10.65
49.359,-12.34
49.375,-11.98
49.390,-9.3
49.406,-4.79
49.421,0.55
49.437,5.76
49.453,10.28
49.468,14.0
49.484,17.24
49.500,20.26
49.515,23.14
49.531,25.64
49.546,27.37
49.562,28.04
49.578,27.68
49.593,26.67
49.609,25.56
49.625,24.93
49.640,25.14
49.656,26.28
49.671,28.2
49.687,30.51
49.703,32.56
49.718,33.4
49.734,31.92
49.750,26.99
49.765,17.88
49.781,4.54
49.796,-12.29
49.812,-31.22
49.828,-50.61
49.843,-68.83
49.859,-84.55
49.875,-96.76
49.890,-104.75
49.906,-108.11
49.921,-106.82
49.937,-101.32
49.953,-92.43
49.968,-81.31
49.984,-69.15
50.000,-56.99
50.015,-45.53
50.031,-35.1
50.046,-25.73
50.062,-17.3
50.078,-9.67
50.093,-2.82
50.109,3.1
50.125,7.87
50.140,11.31
50.156,13.54
50.171,14.93
50.187,16.13
50.203,17.77
50.218,20.23
50.234,23.54
50.250,27.4
50.265,31.32
50.281,34.85
50.296,37.76
50.312,40.02
50.328,41.81
50.343,43.35
50.359,44.7
50.375,45.78
50.390,46.24
50.406,45.67
50.421,43.68
50.437,40.11
50.453,35.04
50.468,28.75
50.484,21.6
50.500,13.94
50.515,6.08
50.531,-1.67
50.546,-8.99
50.562,-15.59
50.578,-21.22
50.593,-25.76
50.609,-29.27
50.625,-31.95
50.640,-34.07
50.656,-35.93
50.671,-37.78
50.687,-39.84
50.703,-42.29
50.718,-45.13
50.734,-48.16
50.750,-50.89
50.765,-52.52
50.781,-52.15
50.796,-49.04
50.812,-42.95
50.828,-34.19
50.843,-23.62
50.859,-12.31
50.875,-1.2
50.890,9.1
50.906,18.41
50.921,26.85
50.937,34.57
50.953,41.59
50.968,47.72
50.984,52.52
51.000,55.53
51.015,56.36
51.031,54.89
51.046,51.3
51.062,46.02
51.078,39.65
51.093,32.79
51.109,25.94
51.125,19.41
51.140,13.43
51.156,8.16
51.171,3.78
51.187,0.54
51.203,-1.35
51.218,-1.85
51.234,-1.16
51.250,0.38
51.265,2.24
51.281,3.96
51.296,5.22
51.312,5.89
51.328,6.07
51.343,5.89
51.359,5.49
51.375,4.9
51.390,4.11
51.406,3.1
51.421,1.93
51.437,0.74
51.453,-0.25
51.468,-0.83
51.484,-0.98
51.500,-0.81
51.515,-0.61
51.531,-0.73
51.546,-1.46
51.562,-2.93
51.578,-5.03
51.593,-7.47
51.609,-9.89
51.625,-11.97
51.640,-13.39
51.656,-14.01
51.671,-13.72
51.687,-12.53
51.703,-10.46
51.718,-7.6
51.734,-4.02
51.750,0.12
51.765,4.7
51.781,9.52
51.796,14.4
51.812,19.12
51.828,23.59
51.843,27.83
51.859,32.03
51.875,36.49
51.890,41.47
51.906,47.09
51.921,53.28
51.937,59.77
51.953,66.32
51.968,72.74
51.984,79.05
52.000,85.44
52.015,92.13
52.031,99.28
52.046,106.86
52.062,114.6
52.078,121.98
52.093,128.35
52.109,132.97
52.125,135.2
52.140,134.65
52.156,131.34
52.171,125.75
52.187,118.8
52.203,111.65
52.218,105.3
52.234,100.22
52.250,95.99
52.265,91.31
52.281,84.28
52.296,72.87
52.312,55.51
52.328,31.32
52.343,0.43
52.359,-36.23
52.375,-76.84
52.390,-119.0
52.406,-159.88
52.421,-196.73
52.437,-227.43
52.453,-250.92
52.468,-267.33
52.484,-277.51
52.500,-282.35
52.515,-281.98
52.531,-275.59
52.546,-261.5
52.562,-237.99
52.578,-204.16
52.593,-160.76
52.609,-110.44
52.625,-57.45
52.640,-6.76
52.656,37.11
52.671,71.14
52.687,94.5
52.703,108.57
52.718,116.2
52.734,120.81
52.750,125.29
52.765,131.55
52.781,140.22
52.796,150.84
52.812,162.14
52.828,172.36
52.843,179.72
52.859,182.67
52.875,180.41
52.890,172.92
52.906,161.01
52.921,145.95
52.937,129.13
52.953,111.64
52.968,94.21
52.984,77.3
53.000,61.3
53.015,46.71
53.031,34.03
53.046,23.63
53.062,15.55
53.078,9.53
53.093,5.05
53.109,1.63
53.125,-1.07
53.140,-3.11
53.156,-4.27
53.171,-4.13
53.187,-2.2
53.203,1.91
53.218,8.29
53.234,16.54
53.250,25.76
53.265,34.89
53.281,43.37
53.296,51.8
53.312,62.06
53.328,76.86
53.343,98.73
53.359,128.99
53.375,166.95
53.390,210.0
53.406,254.05
53.421,294.53
53.437,327.39
53.453,349.86
53.468,360.88
53.484,361.09
53.500,352.46
53.515,337.38
53.531,317.87
53.546,294.76
53.562,267.76
53.578,235.99
53.593,198.98
53.609,157.6
53.625,114.17
53.640,71.98
53.656,34.26
53.671,3.16
53.687,-20.74
53.703,-38.13
53.718,-50.36
53.734,-58.73
53.750,-64.09
53.765,-66.98
53.781,-67.96
53.796,-67.81
53.812,-67.7
53.828,-68.94
53.843,-72.65
53.859,-79.79
53.875,-91.07
53.890,-106.94
53.906,-127.09
53.921,-149.96
53.937,-172.36
53.953,-189.98
53.968,-198.67
53.984,-196.29
54.000,-183.93
54.015,-165.93
54.031,-148.32
54.046,-136.8
54.062,-135.05
54.078,-143.96
54.093,-162.1
54.109,-186.51
54.125,-213.43
54.140,-238.86
54.156,-258.85
54.171,-270.05
54.187,-270.56
54.203,-260.53
54.218,-242.07
54.234,-218.57
54.250,-193.51
54.265,-169.43
54.281,-147.63
54.296,-128.5
54.312,-112.09
54.328,-98.79
54.343,-89.39
54.359,-84.72
54.375,-85.22
54.390,-90.46
54.406,-98.85
54.421,-108.1
54.437,-115.64
54.453,-119.52
54.468,-118.86
54.484,-114.02
54.500,-106.23
54.515,-97.25
54.531,-88.77
54.546,-82.14
54.562,-78.16
54.578,-76.96
54.593,-77.8
54.609,-79.17
54.625,-79.07
54.640,-75.8
54.656,-68.82
54.671,-59.11
54.687,-48.91
54.703,-40.82
54.718,-36.87
54.734,-37.89
54.750,-43.53
54.765,-52.71
54.781,-64.25
54.796,-77.23
54.812,-90.96
54.828,-104.91
54.843,-118.37
54.859,-130.42
54.875,-139.8
54.890,-145.05
54.906,-144.65
54.921,-137.62
54.937,-124.11
54.953,-105.8
54.968,-85.85
54.984,-67.96
55.000,-55.14
55.015,-48.71
55.031,-48.07
55.046,-51.23
55.062,-55.85
55.078,-59.97
55.093,-62.25
55.109,-61.88
55.125,-58.27
55.140,-50.93
55.156,-39.77
55.171,-25.38
55.187,-9.09
55.203,7.32
55.218,22.15
55.234,34.31
55.250,43.53
55.265,50.28
55.281,55.46
55.296,60.0
55.312,64.57
55.328,69.4
55.343,74.25
55.359,78.54
55.375,81.53
55.390,82.59
55.406,81.44
55.421,78.29
55.437,73.7
55.453,68.38
55.468,62.81
55.484,57.13
55.500,51.09
55.515,44.29
55.531,36.52
55.546,27.97
55.562,19.23
55.578,11.1
55.593,4.18
55.609,-1.32
55.625,-5.72
55.640,-9.59
55.656,-13.48
55.671,-17.62
55.687,-21.68
55.703,-24.9
55.718,-26.27
55.734,-24.89
55.750,-20.17
55.765,-12.07
55.781,-1.1
55.796,11.87
55.812,25.83
55.828,39.82
55.843,53.05
55.859,64.83
55.875,74.52
55.890,81.54
55.906,85.48
55.921,86.09
55.937,83.48
55.953,78.14
55.968,71.05
55.984,63.63
56.000,57.59
56.015,54.45
56.031,54.95
56.046,58.44
56.062,62.74
56.078,64.72
56.093,61.39
56.109,51.16
56.125,34.43
56.140,13.53
56.156,-8.38
56.171,-28.34
56.187,-44.51
56.203,-56.24
56.218,-63.66
56.234,-67.11
56.250,-66.86
56.265,-63.16
56.281,-56.53
56.296,-47.99
56.312,-38.91
56.328,-30.7
56.343,-24.38
56.359,-20.39
56.375,-18.6
56.390,-18.52
56.406,-19.75
56.421,-22.09
56.437,-25.67
56.453,-30.77
56.468,-37.56
56.484,-45.92
56.500,-55.41
56.515,-65.38
56.531,-75.03
56.546,-83.52
56.562,-90.0
56.578,-93.54
56.593,-93.33
56.609,-88.8
56.625,-79.92
56.640,-67.28
56.656,-52.0
56.671,-35.45
56.687,-18.86
56.703,-3.12
56.718,11.28
56.734,24.11
56.750,35.24
56.765,44.58
56.781,52.08
56.796,57.79
56.812,61.91
56.828,64.66
56.843,66.29
56.859,66.98
56.875,66.8
56.890,65.74
56.906,63.73
56.921,60.72
56.937,56.68
56.953,51.68
56.968,45.97
56.984,39.96
57.000,34.11
57.015,28.76
57.031,23.97
57.046,19.58
57.062,15.34
57.078,11.12
57.093,7.12
57.109,3.75
57.125,1.47
57.140,0.47
57.156,0.4
57.171,0.52
57.187,-0.05
57.203,-1.98
57.218,-5.45
57.234,-10.16
57.250,-15.53
57.265,-21.0
57.281,-26.23
57.296,-31.17
57.312,-36.01
57.328,-40.93
57.343,-46.13
57.359,-51.76
57.375,-57.94
57.390,-64.74
57.406,-72.02
57.421,-79.16
57.437,-85.04
57.453,-88.12
57.468,-86.92
57.484,-80.53
57.500,-68.92
57.515,-53.12
57.531,-34.76
57.546,-15.71
57.562,2.52
57.578,18.99
57.593,33.35
57.609,45.7
57.625,56.19
57.640,64.98
57.656,72.08
57.671,77.47
57.687,81.18
57.703,83.39
57.718,84.42
57.734,84.65
57.750,84.43
57.765,83.9
57.781,83.14
57.796,82.16
57.812,81.06
57.828,80.04
57.843,79.32
57.859,79.04
57.875,79.1
57.890,79.23
57.906,78.98
57.921,77.98
57.937,76.06
57.953,73.27
57.968,69.9
57.984,66.22
58.000,62.45
58.015,58.55
58.031,54.24
58.046,49.02
58.062,42.48
58.078,34.46
58.093,25.15
58.109,15.19
58.125,5.41
58.140,-3.51
58.156,-11.07
58.171,-17.22
58.187,-22.21
58.203,-26.54
58.218,-30.77
58.234,-35.38
58.250,-40.54
58.265,-45.93
58.281,-50.72
58.296,-53.53
58.312,-52.85
58.328,-47.38
58.343,-36.53
58.359,-20.61
58.375,-0.79
58.390,21.21
58.406,43.59
58.421,64.77
58.437,83.63
58.453,99.45
58.468,111.89
58.484,120.88
58.500,126.6
58.515,129.39
58.531,129.9
58.546,128.9
58.562,127.18
58.578,125.36
58.593,123.58
58.609,121.42
58.625,117.96
58.640,112.0
58.656,102.57
58.671,89.32
58.687,72.9
58.703,54.82
58.718,37.11
58.734,21.72
58.750,9.91
58.765,2.03
58.781,-2.53
58.796,-4.83
58.812,-6.03
58.828,-6.95
58.843,-8.07
58.859,-9.45
58.875,-10.75
58.890,-11.4
58.906,-10.57
58.921,-7.51
58.937,-1.88
58.953,5.75
58.968,13.74
58.984,19.7
59.000,21.33
59.015,17.19
59.031,7.3
59.046,-6.98
59.062,-23.59
59.078,-40.4
59.093,-55.65
59.109,-67.99
59.125,-76.27
59.140,-79.62
59.156,-77.54
59.171,-70.39
59.187,-59.29
59.203,-46.03
59.218,-32.42
59.234,-19.72
59.250,-8.44
59.265,1.54
59.281,10.68
59.296,19.61
59.312,28.99
59.328,39.39
59.343,50.79
59.359,62.19
59.375,71.6
59.390,76.63
59.406,75.54
59.421,68.15
59.437,56.07
59.453,41.92
59.468,28.25
59.484,16.37
59.500,6.1
59.515,-3.58
59.531,-13.74
59.546,-24.79
59.562,-36.61
59.578,-48.94
59.593,-62.06
59.609,-76.82
59.625,-94.25
59.640,-114.9
59.656,-138.39
59.671,-163.43
59.687,-188.07
59.703,-210.39
59.718,-228.77
59.734,-242.14
59.750,-249.84
59.765,-251.54
59.781,-247.22
59.796,-237.32
59.812,-223.12
59.828,-206.6
59.843,-190.22
59.859,-176.27
59.875,-166.17
59.890,-160.0
59.906,-156.44
59.921,-153.16
59.937,-147.51
59.953,-137.41
59.968,-121.82
59.984,-101.06
