timestamp,value
00.000,-21.37
00.015,-14.4
00.031,-8.84
00.046,-4.49
00.062,-0.91
00.078,2.43
00.093,6.03
00.109,10.27
00.125,15.32
00.140,21.16
00.156,27.48
00.171,33.86
00.187,39.79
00.203,44.84
00.218,48.76
00.234,51.52
00.250,53.23
00.265,54.05
00.281,54.13
00.296,53.41
00.312,51.63
00.328,48.33
00.343,42.96
00.359,35.08
00.375,24.59
00.390,11.88
00.406,-2.18
00.421,-16.32
00.437,-29.2
00.453,-39.72
00.468,-47.27
00.484,-51.84
00.500,-53.86
00.515,-53.89
00.531,-52.33
00.546,-49.21
00.562,-44.32
00.578,-37.46
00.593,-28.74
00.609,-18.77
00.625,-8.61
00.640,0.57
00.656,7.88
00.671,13.01
00.687,16.38
00.703,18.78
00.718,21.03
00.734,23.61
00.750,26.6
00.765,29.72
00.781,32.63
00.796,35.11
00.812,36.98
00.828,38.07
00.843,37.98
00.859,36.18
00.875,32.14
00.890,25.68
00.906,17.08
00.921,6.97
00.937,-3.9
00.953,-14.92
00.968,-25.61
00.984,-35.62
01.000,-44.41
01.015,-51.29
01.031,-55.44
01.046,-56.26
01.062,-53.58
01.078,-47.9
01.093,-40.22
01.109,-31.74
01.125,-23.53
01.140,-16.37
01.156,-10.58
01.171,-6.23
01.187,-3.17
01.203,-1.12
01.218,0.24
01.234,1.26
01.250,2.27
01.265,3.54
01.281,5.23
01.296,7.4
01.312,9.87
01.328,12.44
01.343,14.85
01.359,16.95
01.375,18.77
01.390,20.44
01.406,22.12
01.421,23.85
01.437,25.42
01.453,26.34
01.468,25.93
01.484,23.55
01.500,18.79
01.515,11.6
01.531,2.35
01.546,-8.27
01.562,-19.41
01.578,-30.15
01.593,-39.67
01.609,-47.24
01.625,-52.3
01.640,-54.5
01.656,-53.78
01.671,-50.41
01.687,-44.99
01.703,-38.26
01.718,-30.96
01.734,-23.71
01.750,-16.94
01.765,-10.8
01.781,-5.26
01.796,-0.1
01.812,4.96
01.828,10.15
01.843,15.57
01.859,21.1
01.875,26.46
01.890,31.26
01.906,35.16
01.921,37.92
01.937,39.37
01.953,39.28
01.968,37.29
01.984,33.11
02.000,26.69
02.015,18.57
02.031,9.83
02.046,1.73
02.062,-4.81
02.078,-9.54
02.093,-12.94
02.109,-15.75
02.125,-18.42
02.140,-20.8
02.156,-22.19
02.171,-21.9
02.187,-19.71
02.203,-16.17
02.218,-12.31
02.234,-9.08
02.250,-6.95
02.265,-5.73
02.281,-4.78
02.296,-3.46
02.312,-1.49
02.328,1.06
02.343,3.98
02.359,7.13
02.375,10.66
02.390,14.85
02.406,19.9
02.421,25.76
02.437,32.09
02.453,38.34
02.468,44.01
02.484,48.88
02.500,53.09
02.515,56.93
02.531,60.62
02.546,64.04
02.562,66.68
02.578,67.65
02.593,66.06
02.609,61.27
02.625,53.17
02.640,42.19
02.656,29.17
02.671,15.14
02.687,1.06
02.703,-12.23
02.718,-24.15
02.734,-34.31
02.750,-42.51
02.765,-48.8
02.781,-53.34
02.796,-56.37
02.812,-57.97
02.828,-58.12
02.843,-56.61
02.859,-53.22
02.875,-47.89
02.890,-40.86
02.906,-32.59
02.921,-23.73
02.937,-14.9
02.953,-6.54
02.968,1.06
02.984,7.8
03.000,13.76
03.015,19.07
03.031,23.88
03.046,28.29
03.062,32.33
03.078,35.94
03.093,38.9
03.109,40.92
03.125,41.69
03.140,41.03
03.156,38.87
03.171,35.38
03.187,30.73
03.203,25.06
03.218,18.32
03.234,10.36
03.250,0.99
03.265,-9.79
03.281,-21.59
03.296,-33.72
03.312,-45.21
03.328,-55.11
03.343,-62.68
03.359,-67.44
03.375,-69.17
03.390,-67.96
03.406,-64.14
03.421,-58.26
03.437,-51.13
03.453,-43.6
03.468,-36.48
03.484,-30.35
03.500,-25.35
03.515,-21.27
03.531,-17.69
03.546,-14.2
03.562,-10.57
03.578,-6.82
03.593,-3.12
03.609,0.28
03.625,3.2
03.640,5.63
03.656,7.75
03.671,9.88
03.687,12.34
03.703,15.27
03.718,18.57
03.734,21.82
03.750,24.37
03.765,25.53
03.781,24.85
03.796,22.22
03.812,17.96
03.828,12.67
03.843,6.95
03.859,1.25
03.875,-4.22
03.890,-9.46
03.906,-14.55
03.921,-19.46
03.937,-23.98
03.953,-27.71
03.968,-30.18
03.984,-30.98
04.000,-29.95
04.015,-27.1
04.031,-22.72
04.046,-17.3
04.062,-11.41
04.078,-5.68
04.093,-0.59
04.109,3.58
04.125,6.86
04.140,9.48
04.156,11.83
04.171,14.21
04.187,16.75
04.203,19.39
04.218,22.05
04.234,24.76
04.250,27.68
04.265,31.06
04.281,34.98
04.296,39.22
04.312,43.17
04.328,46.09
04.343,47.24
04.359,46.21
04.375,42.89
04.390,37.46
04.406,30.12
04.421,21.06
04.437,10.44
04.453,-1.37
04.468,-13.71
04.484,-25.5
04.500,-35.58
04.515,-42.88
04.531,-46.84
04.546,-47.45
04.562,-45.29
04.578,-41.2
04.593,-36.05
04.609,-30.55
04.625,-25.19
04.640,-20.28
04.656,-16.0
04.671,-12.4
04.687,-9.34
04.703,-6.58
04.718,-3.83
04.734,-0.85
04.750,2.4
04.765,5.88
04.781,9.51
04.796,13.28
04.812,17.37
04.828,22.01
04.843,27.41
04.859,33.49
04.875,39.82
04.890,45.7
04.906,50.29
04.921,52.71
04.937,52.28
04.953,48.63
04.968,41.66
04.984,31.69
05.000,19.38
05.015,5.67
05.031,-8.46
05.046,-21.99
05.062,-34.18
05.078,-44.47
05.093,-52.52
05.109,-58.19
05.125,-61.35
05.140,-61.94
05.156,-59.99
05.171,-55.71
05.187,-49.46
05.203,-41.89
05.218,-33.81
05.234,-26.06
05.250,-19.42
05.265,-14.36
05.281,-10.99
05.296,-9.07
05.312,-8.16
05.328,-7.74
05.343,-7.37
05.359,-6.67
05.375,-5.41
05.390,-3.4
05.406,-0.5
05.421,3.29
05.437,7.82
05.453,12.78
05.468,17.8
05.484,22.37
05.500,26.07
05.515,28.47
05.531,29.23
05.546,28.05
05.562,24.78
05.578,19.45
05.593,12.42
05.609,4.36
05.625,-3.85
05.640,-11.27
05.656,-17.06
05.671,-20.71
05.687,-22.06
05.703,-21.35
05.718,-19.07
05.734,-15.85
05.750,-12.34
05.765,-9.1
05.781,-6.49
05.796,-4.67
05.812,-3.55
05.828,-2.84
05.843,-2.21
05.859,-1.41
05.875,-0.38
05.890,0.81
05.906,2.1
05.921,3.58
05.937,5.6
05.953,8.6
05.968,12.91
05.984,18.52
06.000,25.05
06.015,31.84
06.031,38.18
06.046,43.51
06.062,47.47
06.078,49.76
06.093,50.07
06.109,48.01
06.125,43.24
06.140,35.63
06.156,25.46
06.171,13.45
06.187,0.63
06.203,-11.88
06.218,-23.05
06.234,-32.08
06.250,-38.46
06.265,-41.96
06.281,-42.62
06.296,-40.67
06.312,-36.58
06.328,-30.94
06.343,-24.38
06.359,-17.54
06.375,-10.96
06.390,-5.01
06.406,0.02
06.421,4.0
06.437,6.94
06.453,9.05
06.468,10.68
06.484,12.33
06.500,14.54
06.515,17.76
06.531,22.24
06.546,27.89
06.562,34.31
06.578,40.81
06.593,46.53
06.609,50.72
06.625,52.79
06.640,52.42
06.656,49.55
06.671,44.31
06.687,36.85
06.703,27.4
06.718,16.25
06.734,3.87
06.750,-9.0
06.765,-21.49
06.781,-32.77
06.796,-42.18
06.812,-49.38
06.828,-54.31
06.843,-57.05
06.859,-57.75
06.875,-56.52
06.890,-53.55
06.906,-49.18
06.921,-43.92
06.937,-38.4
06.953,-33.26
06.968,-28.91
06.984,-25.51
07.000,-22.87
07.015,-20.58
07.031,-18.12
07.046,-15.08
07.062,-11.16
07.078,-6.28
07.093,-0.56
07.109,5.82
07.125,12.58
07.140,19.43
07.156,26.1
07.171,32.39
07.187,38.15
07.203,43.22
07.218,47.31
07.234,49.93
07.250,50.43
07.265,48.23
07.281,42.96
07.296,34.67
07.312,23.88
07.328,11.41
07.343,-1.83
07.359,-15.03
07.375,-27.47
07.390,-38.47
07.406,-47.33
07.421,-53.46
07.437,-56.58
07.453,-56.86
07.468,-54.89
07.484,-51.61
07.500,-47.86
07.515,-44.24
07.531,-40.92
07.546,-37.8
07.562,-34.58
07.578,-30.94
07.593,-26.59
07.609,-21.29
07.625,-14.99
07.640,-7.76
07.656,0.06
07.671,7.98
07.687,15.46
07.703,22.07
07.718,27.61
07.734,32.04
07.750,35.41
07.765,37.76
07.781,39.13
07.796,39.52
07.812,38.98
07.828,37.54
07.843,35.21
07.859,31.93
07.875,27.61
07.890,22.17
07.906,15.66
07.921,8.3
07.937,0.39
07.953,-7.68
07.968,-15.54
07.984,-22.81
08.000,-29.1
08.015,-34.01
08.031,-37.21
08.046,-38.49
08.062,-37.97
08.078,-36.05
08.093,-33.36
08.109,-30.48
08.125,-27.82
08.140,-25.38
08.156,-22.81
08.171,-19.55
08.187,-15.15
08.203,-9.45
08.218,-2.7
08.234,4.61
08.250,11.97
08.265,19.06
08.281,25.83
08.296,32.38
08.312,38.76
08.328,44.91
08.343,50.64
08.359,55.67
08.375,59.85
08.390,63.14
08.406,65.55
08.421,67.04
08.437,67.39
08.453,66.17
08.468,62.76
08.484,56.61
08.500,47.35
08.515,35.01
08.531,20.08
08.546,3.5
08.562,-13.43
08.578,-29.34
08.593,-43.03
08.609,-53.8
08.625,-61.46
08.640,-66.3
08.656,-68.84
08.671,-69.54
08.687,-68.57
08.703,-65.75
08.718,-60.62
08.734,-52.86
08.750,-42.48
08.765,-30.05
08.781,-16.54
08.796,-3.1
08.812,9.27
08.828,19.89
08.843,28.54
08.859,35.29
08.875,40.37
08.890,44.03
08.906,46.49
08.921,47.92
08.937,48.49
08.953,48.36
08.968,47.66
08.984,46.46
09.000,44.68
09.015,42.12
09.031,38.48
09.046,33.42
09.062,26.75
09.078,18.5
09.093,8.98
09.109,-1.33
09.125,-11.9
09.140,-22.33
09.156,-32.4
09.171,-41.97
09.187,-50.88
09.203,-58.85
09.218,-65.48
09.234,-70.33
09.250,-73.04
09.265,-73.4
09.281,-71.29
09.296,-66.77
09.312,-60.05
09.328,-51.57
09.343,-42.07
09.359,-32.45
09.375,-23.6
09.390,-16.14
09.406,-10.25
09.421,-5.73
09.437,-2.11
09.453,1.02
09.468,3.94
09.484,6.69
09.500,9.37
09.515,12.08
09.531,15.02
09.546,18.34
09.562,22.02
09.578,25.86
09.593,29.53
09.609,32.82
09.625,35.68
09.640,38.25
09.656,40.6
09.671,42.55
09.687,43.54
09.703,42.76
09.718,39.44
09.734,33.16
09.750,24.09
09.765,12.89
09.781,0.68
09.796,-11.3
09.812,-21.84
09.828,-29.9
09.843,-34.86
09.859,-36.56
09.875,-35.35
09.890,-32.07
09.906,-27.81
09.921,-23.6
09.937,-20.03
09.953,-17.13
09.968,-14.42
09.984,-11.3
10.000,-7.37
10.015,-2.61
10.031,2.57
10.046,7.65
10.062,12.28
10.078,16.39
10.093,20.14
10.109,23.71
10.125,27.08
10.140,30.04
10.156,32.36
10.171,33.99
10.187,35.2
10.203,36.45
10.218,38.07
10.234,40.04
10.250,41.82
10.265,42.55
10.281,41.33
10.296,37.57
10.312,31.21
10.328,22.71
10.343,12.94
10.359,2.8
10.375,-6.88
10.390,-15.55
10.406,-22.86
10.421,-28.71
10.437,-33.06
10.453,-35.88
10.468,-37.22
10.484,-37.15
10.500,-35.92
10.515,-33.89
10.531,-31.46
10.546,-28.95
10.562,-26.59
10.578,-24.33
10.593,-21.98
10.609,-19.28
10.625,-16.02
10.640,-12.15
10.656,-7.81
10.671,-3.25
10.687,1.24
10.703,5.41
10.718,9.13
10.734,12.31
10.750,14.98
10.765,17.23
10.781,19.26
10.796,21.3
10.812,23.58
10.828,26.21
10.843,29.22
10.859,32.44
10.875,35.57
10.890,38.26
10.906,40.21
10.921,41.18
10.937,40.95
10.953,39.31
10.968,36.0
10.984,30.83
11.000,23.68
11.015,14.7
11.031,4.32
11.046,-6.76
11.062,-17.71
11.078,-27.77
11.093,-36.36
11.109,-43.18
11.125,-48.1
11.140,-51.15
11.156,-52.4
11.171,-51.99
11.187,-50.13
11.203,-47.11
11.218,-43.32
11.234,-39.15
11.250,-34.92
11.265,-30.79
11.281,-26.77
11.296,-22.8
11.312,-18.86
11.328,-14.95
11.343,-11.18
11.359,-7.62
11.375,-4.33
11.390,-1.27
11.406,1.65
11.421,4.57
11.437,7.52
11.453,10.53
11.468,13.54
11.484,16.51
11.500,19.31
11.515,21.79
11.531,23.75
11.546,25.06
11.562,25.66
11.578,25.61
11.593,25.05
11.609,24.09
11.625,22.74
11.640,20.79
11.656,17.97
11.671,14.08
11.687,9.16
11.703,3.57
11.718,-2.11
11.734,-7.23
11.750,-11.21
11.765,-13.68
11.781,-14.51
11.796,-13.76
11.812,-11.74
11.828,-8.82
11.843,-5.52
11.859,-2.31
11.875,0.46
11.890,2.58
11.906,4.07
11.921,5.14
11.937,6.08
11.953,7.16
11.968,8.6
11.984,10.58
12.000,13.3
12.015,16.99
12.031,21.81
12.046,27.92
12.062,35.27
12.078,43.62
12.093,52.5
12.109,61.28
12.125,69.33
12.140,75.91
12.156,80.28
12.171,81.67
12.187,79.35
12.203,72.78
12.218,61.86
12.234,46.98
12.250,29.03
12.265,9.36
12.281,-10.58
12.296,-29.33
12.312,-45.67
12.328,-58.71
12.343,-68.0
12.359,-73.52
12.375,-75.66
12.390,-75.05
12.406,-72.42
12.421,-68.37
12.437,-63.22
12.453,-57.11
12.468,-50.05
12.484,-42.19
12.500,-33.88
12.515,-25.72
12.531,-18.33
12.546,-12.21
12.562,-7.5
12.578,-3.85
12.593,-0.59
12.609,3.03
12.625,7.61
12.640,13.27
12.656,19.71
12.671,26.26
12.687,32.12
12.703,36.64
12.718,39.45
12.734,40.47
12.750,39.7
12.765,37.24
12.781,33.12
12.796,27.34
12.812,19.97
12.828,11.27
12.843,1.61
12.859,-8.45
12.875,-18.31
12.890,-27.42
12.906,-35.3
12.921,-41.57
12.937,-46.02
12.953,-48.53
12.968,-49.12
12.984,-48.02
13.000,-45.5
13.015,-42.07
13.031,-38.23
13.046,-34.43
13.062,-31.04
13.078,-28.24
13.093,-26.03
13.109,-24.33
13.125,-23.0
13.140,-21.79
13.156,-20.4
13.171,-18.46
13.187,-15.54
13.203,-11.4
13.218,-6.0
13.234,0.38
13.250,7.22
13.265,13.85
13.281,19.79
13.296,24.79
13.312,28.87
13.328,32.23
13.343,35.03
13.359,37.31
13.375,38.9
13.390,39.42
13.406,38.35
13.421,35.23
13.437,29.74
13.453,21.92
13.468,12.25
13.484,1.6
13.500,-8.9
13.515,-18.08
13.531,-24.98
13.546,-29.08
13.562,-30.31
13.578,-29.1
13.593,-26.13
13.609,-22.2
13.625,-18.01
13.640,-14.08
13.656,-10.67
13.671,-7.81
13.687,-5.39
13.703,-3.2
13.718,-0.95
13.734,1.67
13.750,4.99
13.765,9.24
13.781,14.4
13.796,20.19
13.812,26.14
13.828,31.69
13.843,36.48
13.859,40.38
13.875,43.53
13.890,46.15
13.906,48.33
13.921,49.86
13.937,50.26
13.953,48.94
13.968,45.4
13.984,39.49
14.000,31.43
14.015,21.82
14.031,11.47
14.046,1.17
14.062,-8.44
14.078,-16.91
14.093,-24.03
14.109,-29.75
14.125,-34.16
14.140,-37.42
14.156,-39.77
14.171,-41.39
14.187,-42.41
14.203,-42.83
14.218,-42.53
14.234,-41.42
14.250,-39.39
14.265,-36.47
14.281,-32.74
14.296,-28.25
14.312,-23.03
14.328,-17.06
14.343,-10.33
14.359,-2.95
14.375,4.8
14.390,12.47
14.406,19.66
14.421,26.02
14.437,31.46
14.453,36.09
14.468,40.16
14.484,43.92
14.500,47.48
14.515,50.77
14.531,53.53
14.546,55.39
14.562,55.9
14.578,54.59
14.593,51.09
14.609,45.16
14.625,36.84
14.640,26.47
14.656,14.7
14.671,2.37
14.687,-9.73
14.703,-21.06
14.718,-31.35
14.734,-40.56
14.750,-48.69
14.765,-55.64
14.781,-61.21
14.796,-65.07
14.812,-66.93
14.828,-66.56
14.843,-63.92
14.859,-59.16
14.875,-52.66
14.890,-45.01
14.906,-36.82
14.921,-28.73
14.937,-21.19
14.953,-14.45
14.968,-8.6
14.984,-3.63
15.000,0.43
15.015,3.54
15.031,5.71
15.046,7.13
15.062,8.12
15.078,9.08
15.093,10.32
15.109,11.87
15.125,13.46
15.140,14.61
15.156,14.86
15.171,13.91
15.187,11.77
15.203,8.68
15.218,4.92
15.234,0.8
15.250,-3.47
15.265,-7.63
15.281,-11.38
15.296,-14.3
15.312,-16.09
15.328,-16.61
15.343,-16.09
15.359,-15.05
15.375,-14.09
15.390,-13.58
15.406,-13.49
15.421,-13.44
15.437,-12.95
15.453,-11.66
15.468,-9.54
15.484,-6.83
15.500,-3.84
15.515,-0.79
15.531,2.34
15.546,5.67
15.562,9.26
15.578,12.96
15.593,16.45
15.609,19.38
15.625,21.51
15.640,22.89
15.656,23.82
15.671,24.72
15.687,25.98
15.703,27.77
15.718,30.08
15.734,32.67
15.750,35.22
15.765,37.4
15.781,38.77
15.796,38.86
15.812,37.12
15.828,33.06
15.843,26.38
15.859,17.21
15.875,6.12
15.890,-5.87
15.906,-17.59
15.921,-27.94
15.937,-36.17
15.953,-41.89
15.968,-45.01
15.984,-45.61
16.000,-43.79
16.015,-39.68
16.031,-33.54
16.046,-25.86
16.062,-17.37
16.078,-8.9
16.093,-1.14
16.109,5.48
16.125,10.89
16.140,15.33
16.156,19.06
16.171,22.27
16.187,24.99
16.203,27.12
16.218,28.67
16.234,29.79
16.250,30.86
16.265,32.31
16.281,34.49
16.296,37.41
16.312,40.67
16.328,43.63
16.343,45.53
16.359,45.81
16.375,44.16
16.390,40.51
16.406,34.92
16.421,27.44
16.437,18.1
16.453,6.93
16.468,-5.76
16.484,-19.35
16.500,-32.87
16.515,-45.2
16.531,-55.32
16.546,-62.49
16.562,-66.4
16.578,-67.05
16.593,-64.66
16.609,-59.59
16.625,-52.35
16.640,-43.64
16.656,-34.32
16.671,-25.31
16.687,-17.34
16.703,-10.9
16.718,-6.11
16.734,-2.76
16.750,-0.53
16.765,0.93
16.781,1.88
16.796,2.61
16.812,3.41
16.828,4.6
16.843,6.44
16.859,9.05
16.875,12.35
16.890,16.08
16.906,19.89
16.921,23.44
16.937,26.5
16.953,28.95
16.968,30.78
16.984,32.06
17.000,32.76
17.015,32.71
17.031,31.44
17.046,28.42
17.062,23.17
17.078,15.57
17.093,5.99
17.109,-4.8
17.125,-15.78
17.140,-25.95
17.156,-34.51
17.171,-40.93
17.187,-44.84
17.203,-46.06
17.218,-44.54
17.234,-40.58
17.250,-34.79
17.265,-27.99
17.281,-21.18
17.296,-15.09
17.312,-10.17
17.328,-6.4
17.343,-3.49
17.359,-0.96
17.375,1.54
17.390,4.2
17.406,6.99
17.421,9.71
17.437,12.13
17.453,14.1
17.468,15.64
17.484,16.93
17.500,18.22
17.515,19.77
17.531,21.72
17.546,24.08
17.562,26.66
17.578,29.13
17.593,31.05
17.609,31.87
17.625,31.12
17.640,28.43
17.656,23.72
17.671,17.17
17.687,9.31
17.703,0.86
17.718,-7.32
17.734,-14.42
17.750,-19.86
17.765,-23.34
17.781,-24.93
17.796,-24.96
17.812,-23.91
17.828,-22.18
17.843,-20.04
17.859,-17.58
17.875,-14.88
17.890,-12.11
17.906,-9.45
17.921,-7.09
17.937,-4.93
17.953,-2.62
17.968,0.37
17.984,4.48
18.000,9.78
18.015,15.88
18.031,22.02
18.046,27.46
18.062,31.67
18.078,34.58
18.093,36.53
18.109,38.0
18.125,39.47
18.140,41.22
18.156,43.29
18.171,45.48
18.187,47.34
18.203,48.22
18.218,47.35
18.234,44.07
18.250,37.99
18.265,29.14
18.281,18.06
18.296,5.59
18.312,-7.36
18.328,-19.99
18.343,-31.76
18.359,-42.29
18.375,-51.25
18.390,-58.38
18.406,-63.41
18.421,-66.18
18.437,-66.65
18.453,-64.86
18.468,-60.98
18.484,-55.2
18.500,-47.91
18.515,-39.64
18.531,-31.17
18.546,-23.34
18.562,-16.83
18.578,-11.95
18.593,-8.56
18.609,-6.21
18.625,-4.31
18.640,-2.42
18.656,-0.3
18.671,2.06
18.687,4.54
18.703,6.95
18.718,9.08
18.734,10.67
18.750,11.43
18.765,11.18
18.781,9.86
18.796,7.66
18.812,4.93
18.828,2.13
18.843,-0.45
18.859,-2.75
18.875,-4.95
18.890,-7.36
18.906,-10.13
18.921,-13.2
18.937,-16.18
18.953,-18.58
18.968,-19.99
18.984,-20.2
19.000,-19.35
19.015,-17.78
19.031,-15.87
19.046,-13.93
19.062,-12.14
19.078,-10.55
19.093,-9.17
19.109,-7.99
19.125,-6.97
19.140,-6.09
19.156,-5.25
19.171,-4.4
19.187,-3.44
19.203,-2.37
19.218,-1.14
19.234,0.23
19.250,1.65
19.265,3.05
19.281,4.33
19.296,5.48
19.312,6.62
19.328,8.08
19.343,10.21
19.359,13.31
19.375,17.48
19.390,22.42
19.406,27.59
19.421,32.14
19.437,35.18
19.453,35.95
19.468,33.96
19.484,29.07
19.500,21.52
19.515,11.87
19.531,0.99
19.546,-10.04
19.562,-20.03
19.578,-27.84
19.593,-32.59
19.609,-33.87
19.625,-31.92
19.640,-27.57
19.656,-21.92
19.671,-16.11
19.687,-10.89
19.703,-6.59
19.718,-3.13
19.734,-0.32
19.750,1.96
19.765,3.73
19.781,5.0
19.796,5.84
19.812,6.39
19.828,6.88
19.843,7.5
19.859,8.43
19.875,9.88
19.890,12.07
19.906,15.22
19.921,19.46
19.937,24.67
19.953,30.49
19.968,36.32
19.984,41.49
20.000,45.33
20.015,47.27
20.031,46.87
20.046,43.84
20.062,38.13
20.078,30.04
20.093,20.12
20.109,9.12
20.125,-2.14
20.140,-12.95
20.156,-22.67
20.171,-30.76
20.187,-36.73
20.203,-40.21
20.218,-41.04
20.234,-39.38
20.250,-35.73
20.265,-30.87
20.281,-25.68
20.296,-20.81
20.312,-16.71
20.328,-13.53
20.343,-11.22
20.359,-9.69
20.375,-8.74
20.390,-8.04
20.406,-7.16
20.421,-5.57
20.437,-2.7
20.453,1.78
20.468,7.82
20.484,15.04
20.500,22.75
20.515,30.24
20.531,36.91
20.546,42.4
20.562,46.41
20.578,48.71
20.593,48.98
20.609,46.9
20.625,42.24
20.640,35.05
20.656,25.67
20.671,14.71
20.687,2.91
20.703,-8.99
20.718,-20.3
20.734,-30.41
20.750,-38.78
20.765,-44.9
20.781,-48.45
20.796,-49.35
20.812,-47.8
20.828,-44.29
20.843,-39.39
20.859,-33.68
20.875,-27.65
20.890,-21.66
20.906,-16.01
20.921,-10.88
20.937,-6.33
20.953,-2.2
20.968,1.86
20.984,6.22
21.000,11.2
21.015,16.85
21.031,22.99
21.046,29.23
21.062,35.24
21.078,40.81
21.093,45.89
21.109,50.5
21.125,54.52
21.140,57.7
21.156,59.63
21.171,60.0
21.187,58.69
21.203,55.86
21.218,51.84
21.234,46.96
21.250,41.4
21.265,35.05
21.281,27.7
21.296,19.3
21.312,10.11
21.328,0.77
21.343,-7.84
21.359,-14.9
21.375,-19.88
21.390,-22.63
21.406,-23.52
21.421,-23.23
21.437,-22.55
21.453,-22.23
21.468,-22.81
21.484,-24.54
21.500,-27.46
21.515,-31.35
21.531,-35.73
21.546,-39.97
21.562,-43.34
21.578,-45.23
21.593,-45.48
21.609,-44.57
21.625,-43.56
21.640,-43.81
21.656,-46.22
21.671,-50.74
21.687,-56.22
21.703,-60.69
21.718,-62.18
21.734,-59.49
21.750,-52.65
21.765,-42.74
21.781,-31.4
21.796,-20.21
21.812,-10.31
21.828,-2.39
21.843,3.22
21.859,6.31
21.875,6.8
21.890,4.79
21.906,0.71
21.921,-4.7
21.937,-10.49
21.953,-15.77
21.968,-19.97
21.984,-22.88
22.000,-24.63
22.015,-25.49
22.031,-25.63
22.046,-24.95
22.062,-23.17
22.078,-19.92
22.093,-15.02
22.109,-8.61
22.125,-1.18
22.140,6.54
22.156,13.79
22.171,20.01
22.187,24.98
22.203,28.68
22.218,31.38
22.234,33.4
22.250,35.07
22.265,36.6
22.281,38.11
22.296,39.58
22.312,40.9
22.328,41.99
22.343,42.72
22.359,43.09
22.375,43.08
22.390,42.73
22.406,41.88
22.421,40.2
22.437,37.18
22.453,32.34
22.468,25.35
22.484,16.24
22.500,5.42
22.515,-6.36
22.531,-18.17
22.546,-29.04
22.562,-38.19
22.578,-45.04
22.593,-49.27
22.609,-50.85
22.625,-49.97
22.640,-47.04
22.656,-42.62
22.671,-37.3
22.687,-31.51
22.703,-25.57
22.718,-19.58
22.734,-13.56
22.750,-7.45
22.765,-1.27
22.781,4.98
22.796,11.24
22.812,17.42
22.828,23.42
22.843,29.09
22.859,34.34
22.875,39.0
22.890,42.98
22.906,46.16
22.921,48.42
22.937,49.52
22.953,49.17
22.968,47.06
22.984,42.85
23.000,36.37
23.015,27.48
23.031,16.28
23.046,3.14
23.062,-11.27
23.078,-25.95
23.093,-39.71
23.109,-51.42
23.125,-60.24
23.140,-65.73
23.156,-67.88
23.171,-67.0
23.187,-63.58
23.203,-58.26
23.218,-51.78
23.234,-44.89
23.250,-38.3
23.265,-32.54
23.281,-27.77
23.296,-23.92
23.312,-20.65
23.328,-17.58
23.343,-14.41
23.359,-10.85
23.375,-6.76
23.390,-2.01
23.406,3.36
23.421,9.22
23.437,15.28
23.453,21.2
23.468,26.74
23.484,31.77
23.500,36.35
23.515,40.52
23.531,44.28
23.546,47.52
23.562,50.1
23.578,51.87
23.593,52.76
23.609,52.83
23.625,52.12
23.640,50.69
23.656,48.55
23.671,45.76
23.687,42.4
23.703,38.7
23.718,34.93
23.734,31.31
23.750,28.04
23.765,25.14
23.781,22.63
23.796,20.53
23.812,18.92
23.828,17.97
23.843,17.89
23.859,18.92
23.875,21.18
23.890,24.62
23.906,28.86
23.921,33.26
23.937,36.92
23.953,38.93
23.968,38.66
23.984,35.94
24.000,31.2
24.015,25.32
24.031,19.4
24.046,14.33
24.062,10.57
24.078,7.97
24.093,5.84
24.109,3.32
24.125,-0.27
24.140,-5.15
24.156,-10.91
24.171,-16.76
24.187,-21.89
24.203,-25.83
24.218,-28.7
24.234,-31.15
24.250,-34.1
24.265,-38.34
24.281,-44.43
24.296,-52.44
24.312,-62.01
24.328,-72.39
24.343,-82.45
24.359,-90.85
24.375,-96.3
24.390,-97.95
24.406,-95.62
24.421,-90.03
24.437,-82.51
24.453,-74.52
24.468,-67.15
24.484,-60.76
24.500,-55.02
24.515,-49.28
24.531,-43.01
24.546,-36.01
24.562,-28.44
24.578,-20.52
24.593,-12.4
24.609,-3.98
24.625,4.82
24.640,13.91
24.656,22.89
24.671,31.06
24.687,37.77
24.703,42.6
24.718,45.49
24.734,46.72
24.750,46.74
24.765,45.93
24.781,44.47
24.796,42.34
24.812,39.39
24.828,35.54
24.843,30.91
24.859,25.9
24.875,21.09
24.890,16.98
24.906,13.89
24.921,11.74
24.937,10.23
24.953,9.0
24.968,7.8
24.984,6.58
25.000,5.5
25.015,4.73
25.031,4.36
25.046,4.39
25.062,4.84
25.078,5.73
25.093,7.12
25.109,9.1
25.125,11.64
25.140,14.63
25.156,17.87
25.171,21.18
25.187,24.56
25.203,28.28
25.218,32.85
25.234,38.75
25.250,46.19
25.265,54.85
25.281,63.83
25.296,71.85
25.312,77.55
25.328,79.89
25.343,78.2
25.359,72.31
25.375,62.34
25.390,48.68
25.406,31.95
25.421,13.02
25.437,-6.87
25.453,-26.27
25.468,-43.75
25.484,-58.12
25.500,-68.63
25.515,-75.06
25.531,-77.53
25.546,-76.43
25.562,-72.16
25.578,-65.16
25.593,-55.96
25.609,-45.22
25.625,-33.69
25.640,-22.26
25.656,-11.77
25.671,-2.94
25.687,3.69
25.703,7.86
25.718,9.55
25.734,9.05
25.750,6.89
25.765,3.83
25.781,0.72
25.796,-1.72
25.812,-2.94
25.828,-2.74
25.843,-1.17
25.859,1.47
25.875,4.68
25.890,7.82
25.906,10.12
25.921,10.9
25.937,9.66
25.953,6.26
25.968,0.95
25.984,-5.71
26.000,-13.06
26.015,-20.48
26.031,-27.45
26.046,-33.47
26.062,-38.01
26.078,-40.44
26.093,-40.17
26.109,-36.88
26.125,-30.64
26.140,-21.96
26.156,-11.74
26.171,-1.03
26.187,9.1
26.203,17.74
26.218,24.25
26.234,28.36
26.250,30.2
26.265,30.38
26.281,29.89
26.296,29.89
26.312,31.44
26.328,35.1
26.343,40.89
26.359,48.2
26.375,56.18
26.390,63.96
26.406,70.97
26.421,76.99
26.437,82.11
26.453,86.39
26.468,89.66
26.484,91.3
26.500,90.29
26.515,85.61
26.531,76.52
26.546,62.9
26.562,45.43
26.578,25.37
26.593,4.32
26.609,-16.22
26.625,-35.17
26.640,-51.95
26.656,-66.48
26.671,-78.96
26.687,-89.78
26.703,-99.18
26.718,-107.13
26.734,-113.19
26.750,-116.57
26.765,-116.5
26.781,-112.42
26.796,-104.39
26.812,-93.02
26.828,-79.43
26.843,-64.87
26.859,-50.51
26.875,-37.18
26.890,-25.46
26.906,-15.63
26.921,-7.73
26.937,-1.59
26.953,3.16
26.968,7.01
26.984,10.43
27.000,13.67
27.015,16.71
27.031,19.23
27.046,20.76
27.062,20.87
27.078,19.29
27.093,16.1
27.109,11.7
27.125,6.71
27.140,1.8
27.156,-2.58
27.171,-6.35
27.187,-9.75
27.203,-13.23
27.218,-17.16
27.234,-21.57
27.250,-26.11
27.265,-30.11
27.281,-32.87
27.296,-33.86
27.312,-32.88
27.328,-30.07
27.343,-25.79
27.359,-20.5
27.375,-14.67
27.390,-8.71
27.406,-2.98
27.421,2.36
27.437,7.24
27.453,11.72
27.468,15.95
27.484,20.01
27.500,23.85
27.515,27.37
27.531,30.45
27.546,32.98
27.562,35.05
27.578,36.81
27.593,38.47
27.609,40.11
27.625,41.69
27.640,42.94
27.656,43.49
27.671,42.94
27.687,40.88
27.703,37.03
27.718,31.2
27.734,23.34
27.750,13.59
27.765,2.27
27.781,-10.02
27.796,-22.55
27.812,-34.48
27.828,-45.1
27.843,-53.83
27.859,-60.36
27.875,-64.49
27.890,-66.12
27.906,-65.2
27.921,-61.71
27.937,-55.76
27.953,-47.75
27.968,-38.35
27.984,-28.37
28.000,-18.62
28.015,-9.7
28.031,-1.84
28.046,4.9
28.062,10.49
28.078,14.89
28.093,17.93
28.109,19.53
28.125,19.93
28.140,19.67
28.156,19.49
28.171,20.0
28.187,21.36
28.203,23.22
28.218,24.87
28.234,25.44
28.250,24.28
28.265,21.08
28.281,15.88
28.296,8.96
28.312,0.76
28.328,-8.15
28.343,-17.13
28.359,-25.54
28.375,-32.78
28.390,-38.44
28.406,-42.33
28.421,-44.46
28.437,-44.85
28.453,-43.44
28.468,-40.14
28.484,-34.86
28.500,-27.7
28.515,-19.07
28.531,-9.61
28.546,-0.1
28.562,8.71
28.578,16.33
28.593,22.56
28.609,27.44
28.625,31.21
28.640,34.17
28.656,36.54
28.671,38.42
28.687,39.82
28.703,40.73
28.718,41.19
28.734,41.38
28.750,41.54
28.765,41.92
28.781,42.61
28.796,43.54
28.812,44.48
28.828,45.21
28.843,45.63
28.859,45.67
28.875,45.25
28.890,44.07
28.906,41.6
28.921,37.22
28.937,30.43
28.953,21.14
28.968,9.78
28.984,-2.77
29.000,-15.38
29.015,-27.03
29.031,-36.92
29.046,-44.51
29.062,-49.53
29.078,-51.83
29.093,-51.39
29.109,-48.46
29.125,-43.52
29.140,-37.38
29.156,-30.94
29.171,-24.99
29.187,-19.96
29.203,-15.88
29.218,-12.5
29.234,-9.43
29.250,-6.48
29.265,-3.74
29.281,-1.48
29.296,0.02
29.312,0.69
29.328,0.73
29.343,0.57
29.359,0.63
29.375,1.17
29.390,2.15
29.406,3.26
29.421,4.06
29.437,4.21
29.453,3.49
29.468,1.96
29.484,-0.2
29.500,-2.71
29.515,-5.35
29.531,-7.94
29.546,-10.4
29.562,-12.76
29.578,-15.07
29.593,-17.42
29.609,-19.86
29.625,-22.36
29.640,-24.75
29.656,-26.79
29.671,-28.22
29.687,-28.73
29.703,-28.13
29.718,-26.27
29.734,-23.17
29.750,-18.92
29.765,-13.84
29.781,-8.37
29.796,-3.11
29.812,1.36
29.828,4.65
29.843,6.61
29.859,7.43
29.875,7.5
29.890,7.26
29.906,7.02
29.921,6.88
29.937,6.79
29.953,6.66
29.968,6.55
29.984,6.68
30.000,7.5
30.015,9.49
30.031,12.97
30.046,17.94
30.062,24.01
30.078,30.46
30.093,36.47
30.109,41.34
30.125,44.66
30.140,46.4
30.156,46.77
30.171,46.03
30.187,44.34
30.203,41.69
30.218,37.96
30.234,33.02
30.250,26.86
30.265,19.63
30.281,11.64
30.296,3.32
30.312,-4.75
30.328,-11.97
30.343,-17.73
30.359,-21.55
30.375,-23.21
30.390,-22.69
30.406,-20.26
30.421,-16.26
30.437,-11.14
30.453,-5.33
30.468,0.73
30.484,6.61
30.500,12.0
30.515,16.76
30.531,21.1
30.546,25.38
30.562,30.11
30.578,35.72
30.593,42.28
30.609,49.6
30.625,57.15
30.640,64.32
30.656,70.53
30.671,75.44
30.687,78.89
30.703,80.92
30.718,81.63
30.734,81.0
30.750,78.9
30.765,75.02
30.781,69.11
30.796,61.09
30.812,51.16
30.828,39.83
30.843,27.78
30.859,15.63
30.875,3.81
30.890,-7.41
30.906,-17.99
30.921,-28.0
30.937,-37.67
30.953,-47.43
30.968,-57.76
30.984,-69.02
31.000,-81.0
31.015,-92.69
31.031,-102.31
31.046,-107.87
31.062,-107.81
31.078,-101.69
31.093,-90.33
31.109,-75.44
31.125,-58.93
31.140,-42.35
31.156,-26.64
31.171,-12.19
31.187,0.74
31.203,11.85
31.218,20.8
31.234,27.33
31.250,31.53
31.265,33.91
31.281,35.24
31.296,36.29
31.312,37.67
31.328,39.6
31.343,41.91
31.359,44.07
31.375,45.28
31.390,44.71
31.406,41.6
31.421,35.38
31.437,25.84
31.453,13.06
31.468,-2.43
31.484,-19.79
31.500,-37.78
31.515,-54.97
31.531,-69.88
31.546,-81.28
31.562,-88.49
31.578,-91.45
31.593,-90.65
31.609,-86.76
31.625,-80.33
31.640,-71.61
31.656,-60.75
31.671,-48.07
31.687,-34.25
31.703,-20.35
31.718,-7.49
31.734,3.5
31.750,12.28
31.765,19.01
31.781,24.07
31.796,27.81
31.812,30.39
31.828,31.93
31.843,32.51
31.859,32.33
31.875,31.58
31.890,30.37
31.906,28.72
31.921,26.54
31.937,23.88
31.953,20.83
31.968,17.73
31.984,14.92
32.000,12.75
32.015,11.37
32.031,10.6
32.046,9.95
32.062,8.51
32.078,5.24
32.093,-0.83
32.109,-10.16
32.125,-22.51
32.140,-36.71
32.156,-50.79
32.171,-62.52
32.187,-69.86
32.203,-71.73
32.218,-68.17
32.234,-60.44
32.250,-50.48
32.265,-40.32
32.281,-31.45
32.296,-24.52
32.312,-19.42
32.328,-15.6
32.343,-12.5
32.359,-9.77
32.375,-7.31
32.390,-5.11
32.406,-3.08
32.421,-1.09
32.437,0.99
32.453,3.0
32.468,4.53
32.484,5.05
32.500,4.06
32.515,1.48
32.531,-2.32
32.546,-6.54
32.562,-10.29
32.578,-12.93
32.593,-14.29
32.609,-14.74
32.625,-14.95
32.640,-15.67
32.656,-17.29
32.671,-19.73
32.687,-22.46
32.703,-24.7
32.718,-25.76
32.734,-25.23
32.750,-23.13
32.765,-19.82
32.781,-15.8
32.796,-11.45
32.812,-6.9
32.828,-2.06
32.843,3.22
32.859,9.02
32.875,15.19
32.890,21.43
32.906,27.41
32.921,32.9
32.937,37.83
32.953,42.24
32.968,46.19
32.984,49.66
33.000,52.63
33.015,55.07
33.031,56.92
33.046,58.18
33.062,58.79
33.078,58.68
33.093,57.83
33.109,56.33
33.125,54.38
33.140,52.27
33.156,50.23
33.171,48.41
33.187,46.86
33.203,45.61
33.218,44.71
33.234,44.27
33.250,44.35
33.265,44.95
33.281,45.85
33.296,46.65
33.312,46.73
33.328,45.34
33.343,41.74
33.359,35.17
33.375,25.17
33.390,11.67
33.406,-4.95
33.421,-23.75
33.437,-43.35
33.453,-62.12
33.468,-78.36
33.484,-90.58
33.500,-97.76
33.515,-99.36
33.531,-95.44
33.546,-86.55
33.562,-73.59
33.578,-57.83
33.593,-40.69
33.609,-23.72
33.625,-8.36
33.640,4.24
33.656,13.5
33.671,19.45
33.687,22.64
33.703,23.97
33.718,24.34
33.734,24.52
33.750,25.07
33.765,26.36
33.781,28.51
33.796,31.5
33.812,35.16
33.828,39.21
33.843,43.53
33.859,48.08
33.875,53.01
33.890,58.54
33.906,64.74
33.921,71.42
33.937,78.09
33.953,83.91
33.968,87.88
33.984,89.1
34.000,86.82
34.015,80.64
34.031,70.63
34.046,57.21
34.062,41.14
34.078,23.4
34.093,4.98
34.109,-13.21
34.125,-30.48
34.140,-46.39
34.156,-60.71
34.171,-73.3
34.187,-84.03
34.203,-92.61
34.218,-98.72
34.234,-102.02
34.250,-102.27
34.265,-99.39
34.281,-93.6
34.296,-85.42
34.312,-75.6
34.328,-65.14
34.343,-55.01
34.359,-46.07
34.375,-38.82
34.390,-33.31
34.406,-29.15
34.421,-25.7
34.437,-22.44
34.453,-18.98
34.468,-15.32
34.484,-11.61
34.500,-8.05
34.515,-4.8
34.531,-1.9
34.546,0.58
34.562,2.59
34.578,4.09
34.593,5.14
34.609,5.92
34.625,6.63
34.640,7.41
34.656,8.2
34.671,8.84
34.687,9.07
34.703,8.71
34.718,7.76
34.734,6.3
34.750,4.49
34.765,2.38
34.781,-0.02
34.796,-2.77
34.812,-5.75
34.828,-8.68
34.843,-11.08
34.859,-12.41
34.875,-12.2
34.890,-10.25
34.906,-6.59
34.921,-1.47
34.937,4.73
34.953,11.65
34.968,18.81
34.984,25.83
35.000,32.22
35.015,37.52
35.031,41.33
35.046,43.36
35.062,43.53
35.078,41.94
35.093,38.88
35.109,34.75
35.125,30.15
35.140,25.69
35.156,21.96
35.171,19.39
35.187,18.03
35.203,17.63
35.218,17.64
35.234,17.49
35.250,16.65
35.265,14.95
35.281,12.43
35.296,9.25
35.312,5.58
35.328,1.41
35.343,-3.28
35.359,-8.52
35.375,-14.21
35.390,-20.22
35.406,-26.31
35.421,-32.3
35.437,-37.95
35.453,-42.81
35.468,-46.36
35.484,-47.96
35.500,-47.26
35.515,-44.37
35.531,-39.95
35.546,-34.92
35.562,-30.2
35.578,-26.32
35.593,-23.3
35.609,-20.84
35.625,-18.51
35.640,-16.0
35.656,-13.18
35.671,-10.1
35.687,-6.84
35.703,-3.55
35.718,-0.43
35.734,2.33
35.750,4.44
35.765,5.77
35.781,6.29
35.796,6.2
35.812,5.81
35.828,5.51
35.843,5.52
35.859,5.95
35.875,6.75
35.890,7.73
35.906,8.73
35.921,9.66
35.937,10.48
35.953,11.16
35.968,11.47
35.984,11.04
36.000,9.47
36.015,6.52
36.031,2.27
36.046,-2.79
36.062,-8.04
36.078,-12.86
36.093,-16.96
36.109,-20.42
36.125,-23.5
36.140,-26.48
36.156,-29.51
36.171,-32.57
36.187,-35.47
36.203,-37.9
36.218,-39.38
36.234,-39.32
36.250,-37.16
36.265,-32.62
36.281,-25.84
36.296,-17.44
36.312,-8.41
36.328,0.33
36.343,8.06
36.359,14.46
36.375,19.45
36.390,23.04
36.406,25.22
36.421,25.97
36.437,25.44
36.453,24.07
36.468,22.55
36.484,21.58
36.500,21.73
36.515,23.11
36.531,25.41
36.546,28.08
36.562,30.43
36.578,31.96
36.593,32.46
36.609,31.98
36.625,30.8
36.640,29.23
36.656,27.48
36.671,25.56
36.687,23.39
36.703,20.77
36.718,17.64
36.734,13.99
36.750,9.98
36.765,5.78
36.781,1.52
36.796,-2.78
36.812,-7.15
36.828,-11.58
36.843,-15.93
36.859,-19.89
36.875,-23.05
36.890,-24.97
36.906,-25.35
36.921,-24.06
36.937,-21.21
36.953,-17.04
36.968,-11.85
36.984,-5.98
37.000,0.35
37.015,6.86
37.031,13.3
37.046,19.39
37.062,24.91
37.078,29.68
37.093,33.64
37.109,36.74
37.125,38.86
37.140,39.77
37.156,39.08
37.171,36.36
37.187,31.4
37.203,24.44
37.218,16.3
37.234,8.21
37.250,1.42
37.265,-3.24
37.281,-5.57
37.296,-6.18
37.312,-6.1
37.328,-6.46
37.343,-8.09
37.359,-11.37
37.375,-16.24
37.390,-22.33
37.406,-29.07
37.421,-35.74
37.437,-41.64
37.453,-46.13
37.468,-48.76
37.484,-49.38
37.500,-48.16
37.515,-45.41
37.531,-41.54
37.546,-36.9
37.562,-31.75
37.578,-26.33
37.593,-20.92
37.609,-15.83
37.625,-11.33
37.640,-7.55
37.656,-4.44
37.671,-1.81
37.687,0.52
37.703,2.65
37.718,4.54
37.734,6.12
37.750,7.34
37.765,8.32
37.781,9.21
37.796,10.16
37.812,11.17
37.828,12.09
37.843,12.74
37.859,12.96
37.875,12.69
37.890,11.95
37.906,10.77
37.921,9.07
37.937,6.75
37.953,3.78
37.968,0.33
37.984,-3.16
38.000,-6.11
38.015,-8.03
38.031,-8.6
38.046,-7.86
38.062,-6.16
38.078,-3.99
38.093,-1.87
38.109,-0.15
38.125,1.03
38.140,1.78
38.156,2.27
38.171,2.8
38.187,3.68
38.203,5.12
38.218,7.28
38.234,10.23
38.250,13.88
38.265,18.11
38.281,22.75
38.296,27.62
38.312,32.53
38.328,37.25
38.343,41.4
38.359,44.61
38.375,46.53
38.390,47.06
38.406,46.41
38.421,45.11
38.437,43.79
38.453,42.96
38.468,42.81
38.484,43.15
38.500,43.67
38.515,44.05
38.531,44.09
38.546,43.77
38.562,43.12
38.578,42.09
38.593,40.54
38.609,38.35
38.625,35.38
38.640,31.74
38.656,27.62
38.671,23.24
38.687,18.79
38.703,14.41
38.718,10.11
38.734,5.77
38.750,1.14
38.765,-4.17
38.781,-10.45
38.796,-17.77
38.812,-25.87
38.828,-34.04
38.843,-41.34
38.859,-46.89
38.875,-50.21
38.890,-51.36
38.906,-50.92
38.921,-49.66
38.937,-48.27
38.953,-47.21
38.968,-46.65
38.984,-46.6
39.000,-47.05
39.015,-48.11
39.031,-49.99
39.046,-52.78
39.062,-56.29
39.078,-59.82
39.093,-62.26
39.109,-62.28
39.125,-58.93
39.140,-51.94
39.156,-41.87
39.171,-30.01
39.187,-17.95
39.203,-7.05
39.218,1.8
39.234,8.38
39.250,13.03
39.265,16.33
39.281,18.97
39.296,21.57
39.312,24.58
39.328,28.18
39.343,32.11
39.359,35.63
39.375,37.75
39.390,37.58
39.406,34.84
39.421,30.12
39.437,24.91
39.453,21.0
39.468,19.78
39.484,21.58
39.500,25.43
39.515,29.58
39.531,32.16
39.546,32.16
39.562,29.75
39.578,26.22
39.593,23.26
39.609,22.28
39.625,23.93
39.640,28.0
39.656,33.78
39.671,40.48
39.687,47.56
39.703,54.76
39.718,62.04
39.734,69.29
39.750,76.16
39.765,82.14
39.781,86.62
39.796,89.23
39.812,90.05
39.828,89.69
39.843,89.11
39.859,89.29
39.875,90.8
39.890,93.55
39.906,96.87
39.921,99.69
39.937,100.92
39.953,99.66
39.968,95.27
39.984,87.35
40.000,75.83
40.015,61.18
40.031,44.37
40.046,26.83
40.062,9.75
40.078,-6.51
40.093,-23.05
40.109,-42.23
40.125,-66.79
40.140,-98.44
40.156,-136.55
40.171,-177.79
40.187,-216.98
40.203,-248.82
40.218,-269.68
40.234,-278.68
40.250,-277.45
40.265,-268.96
40.281,-256.0
40.296,-240.2
40.312,-221.96
40.328,-201.17
40.343,-178.13
40.359,-153.92
40.375,-130.21
40.390,-108.53
40.406,-89.62
40.421,-73.14
40.437,-58.17
40.453,-43.79
40.468,-29.8
40.484,-16.77
40.500,-5.8
40.515,2.03
40.531,6.32
40.546,7.46
40.562,6.5
40.578,4.73
40.593,3.12
40.609,2.06
40.625,1.46
40.640,0.95
40.656,0.24
40.671,-0.6
40.687,-1.18
40.703,-0.88
40.718,0.8
40.734,4.06
40.750,8.63
40.765,13.91
40.781,19.14
40.796,23.63
40.812,26.92
40.828,28.82
40.843,29.38
40.859,28.84
40.875,27.61
40.890,26.17
40.906,24.94
40.921,24.17
40.937,23.86
40.953,23.86
40.968,23.86
40.984,23.61
41.000,22.99
41.015,21.99
41.031,20.72
41.046,19.23
41.062,17.49
41.078,15.46
41.093,13.14
41.109,10.59
41.125,8.0
41.140,5.57
41.156,3.48
41.171,1.9
41.187,0.99
41.203,0.92
41.218,1.82
41.234,3.89
41.250,7.2
41.265,11.72
41.281,17.33
41.296,23.75
41.312,30.63
41.328,37.52
41.343,43.9
41.359,49.24
41.375,53.14
41.390,55.34
41.406,55.92
41.421,55.12
41.437,53.26
41.453,50.49
41.468,46.75
41.484,41.84
41.500,35.61
41.515,28.2
41.531,20.06
41.546,11.86
41.562,4.19
41.578,-2.59
41.593,-8.45
41.609,-13.49
41.625,-17.8
41.640,-21.27
41.656,-23.68
41.671,-24.81
41.687,-24.63
41.703,-23.36
41.718,-21.35
41.734,-18.89
41.750,-16.13
41.765,-13.06
41.781,-9.63
41.796,-5.89
41.812,-2.1
41.828,1.35
41.843,4.09
41.859,5.85
41.875,6.59
41.890,6.53
41.906,5.97
41.921,5.25
41.937,4.66
41.953,4.35
41.968,4.37
41.984,4.74
42.000,5.37
42.015,6.09
42.031,6.53
42.046,6.23
42.062,4.67
42.078,1.67
42.093,-2.55
42.109,-7.28
42.125,-11.46
42.140,-14.12
42.156,-14.66
42.171,-13.15
42.187,-10.17
42.203,-6.71
42.218,-3.72
42.234,-1.84
42.250,-1.29
42.265,-1.81
42.281,-2.79
42.296,-3.5
42.312,-3.25
42.328,-1.61
42.343,1.44
42.359,5.63
42.375,10.39
42.390,15.03
42.406,18.99
42.421,21.85
42.437,23.45
42.453,23.91
42.468,23.53
42.484,22.71
42.500,21.8
42.515,21.09
42.531,20.62
42.546,20.38
42.562,20.22
42.578,20.06
42.593,19.89
42.609,19.7
42.625,19.43
42.640,18.92
42.656,17.94
42.671,16.32
42.687,14.11
42.703,11.53
42.718,8.96
42.734,6.67
42.750,4.65
42.765,2.68
42.781,0.41
42.796,-2.34
42.812,-5.46
42.828,-8.62
42.843,-11.44
42.859,-13.65
42.875,-15.18
42.890,-16.1
42.906,-16.53
42.921,-16.54
42.937,-16.18
42.953,-15.53
42.968,-14.74
42.984,-13.97
43.000,-13.31
43.015,-12.73
43.031,-12.04
43.046,-11.02
43.062,-9.58
43.078,-7.76
43.093,-5.73
43.109,-3.73
43.125,-1.93
43.140,-0.46
43.156,0.66
43.171,1.57
43.187,2.44
43.203,3.42
43.218,4.5
43.234,5.38
43.250,5.54
43.265,4.45
43.281,1.91
43.296,-1.69
43.312,-5.47
43.328,-8.23
43.343,-8.99
43.359,-7.28
43.375,-3.27
43.390,2.34
43.406,8.69
43.421,14.97
43.437,20.63
43.453,25.38
43.468,29.22
43.484,32.31
43.500,34.9
43.515,37.23
43.531,39.29
43.546,40.93
43.562,41.8
43.578,41.58
43.593,40.14
43.609,37.59
43.625,34.15
43.640,29.99
43.656,25.15
43.671,19.6
43.687,13.41
43.703,6.93
43.718,0.77
43.734,-4.45
43.750,-8.28
43.765,-10.64
43.781,-11.7
43.796,-11.58
43.812,-10.07
43.828,-6.66
43.843,-0.77
43.859,7.74
43.875,18.32
43.890,29.67
43.906,40.18
43.921,48.41
43.937,53.63
43.953,55.9
43.968,55.9
43.984,54.48
44.000,52.42
44.015,50.21
44.031,48.11
44.046,46.13
44.062,44.06
44.078,41.42
44.093,37.48
44.109,31.53
44.125,23.24
44.140,13.0
44.156,2.05
44.171,-7.76
44.187,-14.62
44.203,-17.32
44.218,-15.74
44.234,-10.82
44.250,-4.2
44.265,2.33
44.281,7.38
44.296,10.24
44.312,10.97
44.328,10.14
44.343,8.57
44.359,7.09
44.375,6.3
44.390,6.54
44.406,7.77
44.421,9.62
44.437,11.45
44.453,12.56
44.468,12.37
44.484,10.7
44.500,7.89
44.515,4.71
44.531,2.22
44.546,1.44
44.562,3.1
44.578,7.5
44.593,14.51
44.609,23.64
44.625,34.31
44.640,45.93
44.656,57.94
44.671,69.77
44.687,80.57
44.703,88.99
44.718,93.34
44.734,91.91
44.750,83.52
44.765,67.92
44.781,45.94
44.796,19.22
44.812,-10.31
44.828,-40.68
44.843,-69.96
44.859,-96.06
44.875,-116.66
44.890,-129.54
44.906,-133.18
44.921,-127.45
44.937,-113.83
44.953,-95.07
44.968,-74.28
44.984,-54.05
45.000,-35.81
45.015,-19.88
45.031,-5.79
45.046,7.07
45.062,19.04
45.078,30.02
45.093,39.61
45.109,47.41
45.125,53.17
45.140,56.91
45.156,58.71
45.171,58.59
45.187,56.46
45.203,52.16
45.218,45.81
45.234,37.96
45.250,29.61
45.265,21.77
45.281,14.98
45.296,9.03
45.312,2.96
45.328,-4.2
45.343,-12.95
45.359,-22.95
45.375,-33.2
45.390,-42.53
45.406,-50.11
45.421,-55.65
45.437,-59.26
45.453,-61.22
45.468,-61.69
45.484,-60.72
45.500,-58.31
45.515,-54.57
45.531,-49.72
45.546,-44.05
45.562,-37.72
45.578,-30.85
45.593,-23.47
45.609,-15.62
45.625,-7.35
45.640,1.25
45.656,10.0
45.671,18.54
45.687,26.41
45.703,33.11
45.718,38.27
45.734,41.78
45.750,43.81
45.765,44.72
45.781,44.83
45.796,44.34
45.812,43.2
45.828,41.2
45.843,38.19
45.859,34.17
45.875,29.4
45.890,24.38
45.906,19.66
45.921,15.62
45.937,12.35
45.953,9.62
45.968,6.84
45.984,3.27
46.000,-1.86
46.015,-9.11
46.031,-18.61
46.046,-29.9
46.062,-42.02
46.078,-53.6
46.093,-63.29
46.109,-70.13
46.125,-73.75
46.140,-74.32
46.156,-72.26
46.171,-67.93
46.187,-61.51
46.203,-53.0
46.218,-42.51
46.234,-30.5
46.250,-17.81
46.265,-5.44
46.281,5.67
46.296,14.97
46.312,22.38
46.328,28.05
46.343,32.32
46.359,35.49
46.375,37.73
46.390,39.18
46.406,39.94
46.421,40.05
46.437,39.44
46.453,37.72
46.468,34.22
46.484,28.13
46.500,18.8
46.515,6.1
46.531,-9.37
46.546,-26.33
46.562,-43.1
46.578,-58.07
46.593,-69.99
46.609,-78.09
46.625,-82.12
46.640,-82.12
46.656,-78.4
46.671,-71.45
46.687,-62.09
46.703,-51.33
46.718,-40.3
46.734,-29.99
46.750,-21.15
46.765,-14.11
46.781,-8.94
46.796,-5.46
46.812,-3.32
46.828,-2.17
46.843,-1.67
46.859,-1.63
46.875,-2.09
46.890,-3.33
46.906,-5.79
46.921,-9.92
46.937,-15.98
46.953,-23.78
46.968,-32.7
46.984,-41.84
47.000,-50.12
47.015,-56.45
47.031,-59.75
47.046,-59.18
47.062,-54.24
47.078,-45.05
47.093,-32.35
47.109,-17.55
47.125,-2.26
47.140,12.01
47.156,24.24
47.171,34.02
47.187,41.38
47.203,46.57
47.218,49.68
47.234,50.64
47.250,49.24
47.265,45.33
47.281,39.09
47.296,30.96
47.312,21.67
47.328,12.03
47.343,2.83
47.359,-5.28
47.375,-11.75
47.390,-16.18
47.406,-18.37
47.421,-18.28
47.437,-16.13
47.453,-12.3
47.468,-7.3
47.484,-1.55
47.500,4.61
47.515,10.96
47.531,17.34
47.546,23.58
47.562,29.54
47.578,35.14
47.593,40.47
47.609,45.64
47.625,50.75
47.640,55.75
47.656,60.4
47.671,64.34
47.687,67.27
47.703,69.07
47.718,69.74
47.734,69.37
47.750,67.89
47.765,65.09
47.781,60.6
47.796,54.06
47.812,45.31
47.828,34.44
47.843,21.76
47.859,7.69
47.875,-7.3
47.890,-22.64
47.906,-37.82
47.921,-52.39
47.937,-66.16
47.953,-79.31
47.968,-92.28
47.984,-105.39
48.000,-118.42
48.015,-130.33
48.031,-139.33
48.046,-143.48
48.062,-141.4
48.078,-133.0
48.093,-119.49
48.109,-103.0
48.125,-85.75
48.140,-69.49
48.156,-55.2
48.171,-43.35
48.187,-34.21
48.203,-27.98
48.218,-24.71
48.234,-23.92
48.250,-24.53
48.265,-25.07
48.281,-24.18
48.296,-21.16
48.312,-16.26
48.328,-10.4
48.343,-4.68
48.359,0.06
48.375,3.53
48.390,5.8
48.406,7.02
48.421,7.26
48.437,6.56
48.453,5.13
48.468,3.45
48.484,2.18
48.500,1.91
48.515,2.69
48.531,3.65
48.546,3.24
48.562,-0.24
48.578,-7.66
48.593,-18.42
48.609,-30.36
48.625,-40.56
48.640,-46.42
48.656,-46.77
48.671,-42.19
48.687,-34.56
48.703,-25.99
48.718,-17.98
48.734,-11.0
48.750,-4.89
48.765,0.54
48.781,5.16
48.796,8.46
48.812,10.02
48.828,9.93
48.843,8.78
48.859,7.48
48.875,6.65
48.890,6.43
48.906,6.37
48.921,5.8
48.937,4.18
48.953,1.4
48.968,-2.19
48.984,-6.07
49.000,-9.77
49.015,-13.11
49.031,-16.27
49.046,-19.65
49.062,-23.59
49.078,-28.1
49.093,-32.73
49.109,-36.57
49.125,-38.56
49.140,-37.91
49.156,-34.31
49.171,-28.15
49.187,-20.3
49.203,-11.86
49.218,-3.79
49.234,3.23
49.250,8.82
49.265,12.8
49.281,15.15
49.296,15.9
49.312,15.27
49.328,13.59
49.343,11.3
49.359,8.88
49.375,6.65
49.390,4.72
49.406,3.1
49.421,1.71
49.437,0.62
49.453,0.15
49.468,0.75
49.484,2.86
49.500,6.63
49.515,11.81
49.531,17.66
49.546,23.17
49.562,27.34
49.578,29.5
49.593,29.53
49.609,27.79
49.625,25.0
49.640,21.98
49.656,19.44
49.671,17.84
49.687,17.38
49.703,18.17
49.718,20.24
49.734,23.63
49.750,28.21
49.765,33.63
49.781,39.21
49.796,44.11
49.812,47.53
49.828,48.98
49.843,48.41
49.859,46.18
49.875,42.9
49.890,39.18
49.906,35.57
49.921,32.48
49.937,30.15
49.953,28.69
49.968,28.01
49.984,27.87
50.000,27.85
50.015,27.59
50.031,26.87
50.046,25.71
50.062,24.36
50.078,23.02
50.093,21.79
50.109,20.45
50.125,18.65
50.140,16.11
50.156,12.84
50.171,9.25
50.187,5.95
50.203,3.61
50.218,2.58
50.234,2.88
50.250,4.1
50.265,5.56
50.281,6.62
50.296,6.85
50.312,6.15
50.328,4.77
50.343,3.12
50.359,1.4
50.375,-0.44
50.390,-2.8
50.406,-6.12
50.421,-10.63
50.437,-16.2
50.453,-22.44
50.468,-28.97
50.484,-35.47
50.500,-41.63
50.515,-46.83
50.531,-49.88
50.546,-49.27
50.562,-43.71
50.578,-32.88
50.593,-17.88
50.609,-1.11
50.625,14.54
50.640,26.58
50.656,33.72
50.671,36.1
50.687,34.96
50.703,32.16
50.718,29.49
50.734,28.33
50.750,29.44
50.765,32.88
50.781,38.23
50.796,44.63
50.812,50.99
50.828,56.17
50.843,59.25
50.859,59.59
50.875,57.02
50.890,51.95
50.906,45.22
50.921,37.99
50.937,31.38
50.953,26.11
50.968,22.28
50.984,19.63
51.000,17.65
51.015,15.99
51.031,14.58
51.046,13.54
51.062,12.92
51.078,12.66
51.093,12.6
51.109,12.69
51.125,13.2
51.140,14.68
51.156,17.67
51.171,22.35
51.187,28.15
51.203,33.72
51.218,37.0
51.234,35.78
51.250,28.23
51.265,13.54
51.281,-7.68
51.296,-33.31
51.312,-60.09
51.328,-84.31
51.343,-102.72
51.359,-113.11
51.375,-114.76
51.390,-108.35
51.406,-95.67
51.421,-79.2
51.437,-61.56
51.453,-45.0
51.468,-31.14
51.484,-20.63
51.500,-13.26
51.515,-8.2
51.531,-4.46
51.546,-1.3
51.562,1.55
51.578,3.78
51.593,4.74
51.609,3.53
51.625,-0.63
51.640,-8.12
51.656,-18.72
51.671,-31.45
51.687,-44.79
51.703,-57.0
51.718,-66.63
51.734,-72.84
51.750,-75.43
51.765,-74.6
51.781,-70.72
51.796,-64.11
51.812,-55.04
51.828,-43.91
51.843,-31.38
51.859,-18.3
51.875,-5.59
51.890,6.04
51.906,16.19
51.921,24.77
51.937,31.87
51.953,37.72
51.968,42.51
51.984,46.44
52.000,49.75
52.015,52.71
52.031,55.66
52.046,58.93
52.062,62.65
52.078,66.69
52.093,70.51
52.109,73.16
52.125,73.44
52.140,70.03
52.156,61.82
52.171,48.22
52.187,29.51
52.203,6.89
52.218,-17.49
52.234,-40.96
52.250,-60.85
52.265,-75.18
52.281,-83.05
52.296,-84.75
52.312,-81.46
52.328,-74.63
52.343,-65.63
52.359,-55.38
52.375,-44.45
52.390,-33.22
52.406,-22.07
52.421,-11.49
52.437,-1.96
52.453,6.16
52.468,12.82
52.484,18.15
52.500,22.34
52.515,25.54
52.531,27.7
52.546,28.74
52.562,28.56
52.578,27.37
52.593,25.59
52.609,23.95
52.625,23.12
52.640,23.53
52.656,25.17
52.671,27.6
52.687,30.11
52.703,31.87
52.718,32.17
52.734,30.55
52.750,26.9
52.765,21.54
52.781,15.17
52.796,8.78
52.812,3.39
52.828,-0.17
52.843,-1.54
52.859,-0.9
52.875,1.21
52.890,4.08
52.906,7.19
52.921,10.27
52.937,13.42
52.953,16.86
52.968,20.87
52.984,25.55
53.000,30.76
53.015,36.14
53.031,41.07
53.046,44.97
53.062,47.41
53.078,48.42
53.093,48.55
53.109,48.7
53.125,49.83
53.140,52.56
53.156,57.0
53.171,62.72
53.187,69.1
53.203,75.62
53.218,82.18
53.234,88.96
53.250,96.26
53.265,104.11
53.281,112.15
53.296,119.64
53.312,125.54
53.328,128.86
53.343,128.63
53.359,124.08
53.375,114.65
53.390,100.19
53.406,81.11
53.421,58.39
53.437,33.34
53.453,7.46
53.468,-17.78
53.484,-40.9
53.500,-60.27
53.515,-74.18
53.531,-81.09
53.546,-80.26
53.562,-72.17
53.578,-58.71
53.593,-42.75
53.609,-27.31
53.625,-14.81
53.640,-6.63
53.656,-3.13
53.671,-3.97
53.687,-8.46
53.703,-15.8
53.718,-25.16
53.734,-35.74
53.750,-46.79
53.765,-57.63
53.781,-67.66
53.796,-76.28
53.812,-82.96
53.828,-87.43
53.843,-89.87
53.859,-91.03
53.875,-92.07
53.890,-94.07
53.906,-97.61
53.921,-102.3
53.937,-107.02
53.953,-110.36
53.968,-111.19
53.984,-109.11
54.000,-104.44
54.015,-98.02
54.031,-90.71
54.046,-83.25
54.062,-76.09
54.078,-69.49
54.093,-63.67
54.109,-58.74
54.125,-54.63
54.140,-51.02
54.156,-47.51
54.171,-43.7
54.187,-39.54
54.203,-35.24
54.218,-31.26
54.234,-27.93
54.250,-25.27
54.265,-22.9
54.281,-20.3
54.296,-17.13
54.312,-13.5
54.328,-10.09
54.343,-7.87
54.359,-7.78
54.375,-10.21
54.390,-14.7
54.406,-19.91
54.421,-23.99
54.437,-25.13
54.453,-22.12
54.468,-14.8
54.484,-4.06
54.500,8.53
54.515,21.2
54.531,32.5
54.546,41.51
54.562,47.88
54.578,51.58
54.593,52.86
54.609,51.99
54.625,49.34
54.640,45.35
54.656,40.53
54.671,35.35
54.687,30.12
54.703,25.13
54.718,20.51
54.734,16.42
54.750,12.95
54.765,10.23
54.781,8.27
54.796,7.05
54.812,6.4
54.828,6.13
54.843,6.03
54.859,5.93
54.875,5.74
54.890,5.5
54.906,5.36
54.921,5.45
54.937,5.78
54.953,6.09
54.968,5.96
54.984,4.89
55.000,2.65
55.015,-0.49
55.031,-3.75
55.046,-6.16
55.062,-6.93
55.078,-5.86
55.093,-3.4
55.109,-0.51
55.125,1.72
55.140,2.53
55.156,1.64
55.171,-0.71
55.187,-3.92
55.203,-7.31
55.218,-10.31
55.234,-12.49
55.250,-13.6
55.265,-13.61
55.281,-12.69
55.296,-11.14
55.312,-9.41
55.328,-7.9
55.343,-6.85
55.359,-6.27
55.375,-5.96
55.390,-5.57
55.406,-4.85
55.421,-3.77
55.437,-2.54
55.453,-1.54
55.468,-1.07
55.484,-1.24
55.500,-1.86
55.515,-2.49
55.531,-2.52
55.546,-1.4
55.562,1.18
55.578,5.05
55.593,9.67
55.609,14.36
55.625,18.55
55.640,22.19
55.656,25.7
55.671,29.81
55.687,35.16
55.703,41.96
55.718,49.86
55.734,58.08
55.750,65.8
55.765,72.3
55.781,77.08
55.796,79.81
55.812,80.23
55.828,78.2
55.843,73.88
55.859,67.81
55.875,60.9
55.890,54.28
55.906,48.92
55.921,45.42
55.937,43.9
55.953,44.01
55.968,45.14
55.984,46.66
56.000,48.07
56.015,49.07
56.031,49.6
56.046,49.91
56.062,50.43
56.078,51.69
56.093,54.14
56.109,57.96
56.125,62.88
56.140,68.37
56.156,73.87
56.171,79.08
56.187,84.11
56.203,89.45
56.218,95.55
56.234,102.54
56.250,109.99
56.265,117.04
56.281,122.65
56.296,125.98
56.312,126.5
56.328,123.99
56.343,118.35
56.359,109.57
56.375,97.64
56.390,82.78
56.406,65.45
56.421,46.41
56.437,26.59
56.453,6.84
56.468,-12.24
56.484,-30.31
56.500,-47.19
56.515,-62.73
56.531,-76.72
56.546,-88.88
56.562,-99.04
56.578,-107.12
56.593,-113.23
56.609,-117.6
56.625,-120.42
56.640,-121.78
56.656,-121.57
56.671,-119.56
56.687,-115.44
56.703,-109.1
56.718,-100.83
56.734,-91.35
56.750,-81.71
56.765,-72.88
56.781,-65.45
56.796,-59.33
56.812,-53.86
56.828,-48.08
56.843,-41.26
56.859,-33.15
56.875,-24.02
56.890,-14.51
56.906,-5.27
56.921,3.18
56.937,10.56
56.953,16.7
56.968,21.55
56.984,25.08
57.000,27.38
57.015,28.63
57.031,29.04
57.046,28.73
57.062,27.58
57.078,25.26
57.093,21.28
57.109,15.23
57.125,7.01
57.140,-2.92
57.156,-13.56
57.171,-23.6
57.187,-31.76
57.203,-37.2
57.218,-39.71
57.234,-39.7
57.250,-37.9
57.265,-35.04
57.281,-31.65
57.296,-27.96
57.312,-24.01
57.328,-19.8
57.343,-15.38
57.359,-10.86
57.375,-6.35
57.390,-1.95
57.406,2.34
57.421,6.55
57.437,10.8
57.453,15.25
57.468,20.09
57.484,25.41
57.500,31.14
57.515,36.9
57.531,42.14
57.546,46.27
57.562,48.79
57.578,49.47
57.593,48.28
57.609,45.24
57.625,40.43
57.640,33.91
57.656,25.8
57.671,16.25
57.687,5.43
57.703,-6.49
57.718,-19.25
57.734,-32.53
57.750,-45.74
57.765,-58.16
57.781,-68.95
57.796,-77.45
57.812,-83.21
57.828,-86.11
57.843,-86.14
57.859,-83.34
57.875,-77.72
57.890,-69.34
57.906,-58.59
57.921,-46.21
57.937,-33.29
57.953,-20.96
57.968,-10.24
57.984,-1.74
58.000,4.41
58.015,8.39
58.031,10.67
58.046,11.91
58.062,12.76
58.078,13.89
58.093,15.76
58.109,18.5
58.125,21.87
58.140,25.3
58.156,28.1
58.171,29.75
58.187,29.99
58.203,28.89
58.218,26.69
58.234,23.66
58.250,19.92
58.265,15.51
58.281,10.37
58.296,4.45
58.312,-2.16
58.328,-9.37
58.343,-17.02
58.359,-24.9
58.375,-32.73
58.390,-40.14
58.406,-46.66
58.421,-51.85
58.437,-55.43
58.453,-57.37
58.468,-57.91
58.484,-57.45
58.500,-56.39
58.515,-54.97
58.531,-53.22
58.546,-50.98
58.562,-48.08
58.578,-44.4
58.593,-39.97
58.609,-34.92
58.625,-29.5
58.640,-23.92
58.656,-18.41
58.671,-13.2
58.687,-8.51
58.703,-4.49
58.718,-1.29
58.734,1.06
58.750,2.58
58.765,3.32
58.781,3.38
58.796,2.82
58.812,1.71
58.828,0.16
58.843,-1.69
58.859,-3.73
58.875,-5.95
58.890,-8.42
58.906,-11.2
58.921,-14.3
58.937,-17.47
58.953,-20.26
58.968,-22.19
58.984,-22.88
59.000,-22.3
59.015,-20.7
59.031,-18.42
59.046,-15.69
59.062,-12.46
59.078,-8.45
59.093,-3.46
59.109,2.46
59.125,8.85
59.140,14.92
59.156,19.94
59.171,23.49
59.187,25.67
59.203,27.08
59.218,28.59
59.234,30.95
59.250,34.59
59.265,39.36
59.281,44.68
59.296,49.68
59.312,53.59
59.328,55.85
59.343,56.41
59.359,55.64
59.375,54.19
59.390,52.74
59.406,51.75
59.421,51.26
59.437,50.84
59.453,49.81
59.468,47.37
59.484,42.97
59.500,36.53
59.515,28.34
59.531,19.06
59.546,9.41
59.562,0.02
59.578,-8.71
59.593,-16.51
59.609,-23.2
59.625,-28.62
59.640,-32.61
59.656,-35.13
59.671,-36.25
59.687,-36.23
59.703,-35.39
59.718,-34.06
59.734,-32.37
59.750,-30.31
59.765,-27.66
59.781,-24.15
59.796,-19.6
59.812,-13.87
59.828,-6.91
59.843,1.16
59.859,10.03
59.875,19.23
59.890,27.96
59.906,35.37
59.921,40.72
59.937,43.57
59.953,44.08
59.968,42.85
59.984,40.7
