timestamp,value
00.000,-40.18
00.015,-45.0
00.031,-48.86
00.046,-50.58
00.062,-49.19
00.078,-44.21
00.093,-35.87
00.109,-25.05
00.125,-13.0
00.140,-1.03
00.156,9.86
00.171,19.02
00.187,26.17
00.203,31.15
00.218,33.92
00.234,34.54
00.250,33.28
00.265,30.66
00.281,27.37
00.296,24.08
00.312,21.3
00.328,19.23
00.343,17.76
00.359,16.64
00.375,15.58
00.390,14.41
00.406,13.14
00.421,11.89
00.437,10.75
00.453,9.7
00.468,8.55
00.484,6.99
00.500,4.73
00.515,1.55
00.531,-2.52
00.546,-7.25
00.562,-12.24
00.578,-17.08
00.593,-21.44
00.609,-25.26
00.625,-28.72
00.640,-32.21
00.656,-36.2
00.671,-41.06
00.687,-46.78
00.703,-52.91
00.718,-58.48
00.734,-62.22
00.750,-62.82
00.765,-59.39
00.781,-51.75
00.796,-40.51
00.812,-26.99
00.828,-12.82
00.843,0.47
00.859,11.84
00.875,20.8
00.890,27.35
00.906,31.73
00.921,34.2
00.937,34.93
00.953,34.12
00.968,32.06
00.984,29.31
01.000,26.56
01.015,24.44
01.031,23.32
01.046,23.17
01.062,23.58
01.078,23.96
01.093,23.84
01.109,23.01
01.125,21.57
01.140,19.76
01.156,17.84
01.171,15.91
01.187,13.85
01.203,11.4
01.218,8.33
01.234,4.5
01.250,0.03
01.265,-4.79
01.281,-9.62
01.296,-14.14
01.312,-18.21
01.328,-21.91
01.343,-25.49
01.359,-29.31
01.375,-33.74
01.390,-38.94
01.406,-44.83
01.421,-50.92
01.437,-56.37
01.453,-60.05
01.468,-60.79
01.484,-57.68
01.500,-50.34
01.515,-39.19
01.531,-25.37
01.546,-10.45
01.562,3.91
01.578,16.46
01.593,26.55
01.609,34.08
01.625,39.35
01.640,42.7
01.656,44.41
01.671,44.68
01.687,43.78
01.703,42.1
01.718,40.18
01.734,38.55
01.750,37.51
01.765,37.04
01.781,36.86
01.796,36.53
01.812,35.75
01.828,34.48
01.843,32.9
01.859,31.25
01.875,29.68
01.890,28.08
01.906,26.14
01.921,23.47
01.937,19.79
01.953,15.08
01.968,9.58
01.984,3.69
02.000,-2.11
02.015,-7.45
02.031,-12.17
02.046,-16.32
02.062,-20.1
02.078,-23.88
02.093,-28.02
02.109,-32.8
02.125,-38.36
02.140,-44.57
02.156,-50.92
02.171,-56.52
02.187,-60.18
02.203,-60.67
02.218,-57.08
02.234,-49.15
02.250,-37.41
02.265,-23.1
02.281,-7.83
02.296,6.84
02.312,19.73
02.328,30.2
02.343,38.02
02.359,43.25
02.375,46.08
02.390,46.79
02.406,45.75
02.421,43.46
02.437,40.46
02.453,37.32
02.468,34.58
02.484,32.56
02.500,31.41
02.515,30.98
02.531,30.97
02.546,30.91
02.562,30.48
02.578,29.51
02.593,28.04
02.609,26.25
02.625,24.27
02.640,22.09
02.656,19.46
02.671,16.11
02.687,11.84
02.703,6.78
02.718,1.27
02.734,-4.17
02.750,-9.13
02.765,-13.41
02.781,-17.04
02.796,-20.32
02.812,-23.58
02.828,-27.21
02.843,-31.46
02.859,-36.48
02.875,-42.11
02.890,-47.83
02.906,-52.71
02.921,-55.58
02.937,-55.27
02.953,-51.03
02.968,-42.71
02.984,-30.93
03.000,-16.91
03.015,-2.14
03.031,11.92
03.046,24.19
03.062,34.02
03.078,41.28
03.093,46.15
03.109,49.0
03.125,50.18
03.140,50.0
03.156,48.78
03.171,46.86
03.187,44.65
03.203,42.59
03.218,41.05
03.234,40.21
03.250,39.99
03.265,40.06
03.281,40.0
03.296,39.4
03.312,38.02
03.328,35.78
03.343,32.76
03.359,29.19
03.375,25.25
03.390,21.1
03.406,16.79
03.421,12.31
03.437,7.61
03.453,2.66
03.468,-2.45
03.484,-7.56
03.500,-12.45
03.515,-16.96
03.531,-21.02
03.546,-24.67
03.562,-28.05
03.578,-31.39
03.593,-35.0
03.609,-39.17
03.625,-44.09
03.640,-49.68
03.656,-55.42
03.671,-60.39
03.687,-63.34
03.703,-63.06
03.718,-58.71
03.734,-50.19
03.750,-38.19
03.765,-24.01
03.781,-9.27
03.796,4.6
03.812,16.61
03.828,26.34
03.843,33.8
03.859,39.28
03.875,43.06
03.890,45.39
03.906,46.46
03.921,46.5
03.937,45.76
03.953,44.54
03.968,43.1
03.984,41.61
04.000,40.17
04.015,38.79
04.031,37.52
04.046,36.4
04.062,35.45
04.078,34.63
04.093,33.75
04.109,32.56
04.125,30.77
04.140,28.18
04.156,24.72
04.171,20.53
04.187,15.89
04.203,11.17
04.218,6.69
04.234,2.61
04.250,-1.11
04.265,-4.7
04.281,-8.39
04.296,-12.37
04.312,-16.61
04.328,-20.94
04.343,-25.05
04.359,-28.72
04.375,-31.89
04.390,-34.73
04.406,-37.6
04.421,-40.93
04.437,-45.07
04.453,-50.15
04.468,-55.98
04.484,-61.93
04.500,-66.97
04.515,-69.84
04.531,-69.33
04.546,-64.7
04.562,-55.92
04.578,-43.73
04.593,-29.5
04.609,-14.79
04.625,-0.98
04.640,11.03
04.656,20.92
04.671,28.73
04.687,34.67
04.703,38.98
04.718,41.74
04.734,43.08
04.750,43.19
04.765,42.4
04.781,41.13
04.796,39.82
04.812,38.72
04.828,37.87
04.843,37.17
04.859,36.48
04.875,35.73
04.890,34.93
04.906,34.18
04.921,33.51
04.937,32.87
04.953,32.08
04.968,30.92
04.984,29.19
05.000,26.79
05.015,23.73
05.031,20.14
05.046,16.27
05.062,12.35
05.078,8.64
05.093,5.23
05.109,2.06
05.125,-1.09
05.140,-4.53
05.156,-8.49
05.171,-13.01
05.187,-17.83
05.203,-22.56
05.218,-26.78
05.234,-30.24
05.250,-33.02
05.265,-35.45
05.281,-38.05
05.296,-41.31
05.312,-45.56
05.328,-50.83
05.343,-56.8
05.359,-62.79
05.375,-67.78
05.390,-70.57
05.406,-70.02
05.421,-65.4
05.437,-56.63
05.453,-44.43
05.468,-30.14
05.484,-15.37
05.500,-1.54
05.515,10.38
05.531,20.07
05.546,27.56
05.562,33.1
05.578,36.88
05.593,39.09
05.609,39.88
05.625,39.6
05.640,38.73
05.656,37.76
05.671,37.09
05.687,36.83
05.703,36.88
05.718,37.0
05.734,37.0
05.750,36.81
05.765,36.46
05.781,36.01
05.796,35.48
05.812,34.79
05.828,33.87
05.843,32.62
05.859,31.01
05.875,29.07
05.890,26.81
05.906,24.28
05.921,21.53
05.937,18.6
05.953,15.6
05.968,12.58
05.984,9.58
06.000,6.6
06.015,3.55
06.031,0.32
06.046,-3.14
06.062,-6.83
06.078,-10.65
06.093,-14.47
06.109,-18.11
06.125,-21.5
06.140,-24.6
06.156,-27.49
06.171,-30.36
06.187,-33.52
06.203,-37.27
06.218,-41.83
06.234,-47.11
06.250,-52.6
06.265,-57.37
06.281,-60.23
06.296,-60.07
06.312,-56.26
06.328,-48.8
06.343,-38.39
06.359,-26.17
06.375,-13.41
06.390,-1.2
06.406,9.69
06.421,18.79
06.437,25.89
06.453,30.92
06.468,33.97
06.484,35.21
06.500,34.98
06.515,33.7
06.531,31.91
06.546,30.14
06.562,28.78
06.578,28.04
06.593,27.87
06.609,28.07
06.625,28.34
06.640,28.49
06.656,28.42
06.671,28.19
06.687,27.83
06.703,27.33
06.718,26.58
06.734,25.35
06.750,23.45
06.765,20.78
06.781,17.41
06.796,13.59
06.812,9.67
06.828,5.92
06.843,2.55
06.859,-0.44
06.875,-3.24
06.890,-6.11
06.906,-9.31
06.921,-12.95
06.937,-16.92
06.953,-20.97
06.968,-24.77
06.984,-28.07
07.000,-30.8
07.015,-33.15
07.031,-35.38
07.046,-37.94
07.062,-41.17
07.078,-45.25
07.093,-50.06
07.109,-55.03
07.125,-59.2
07.140,-61.37
07.156,-60.5
07.171,-55.93
07.187,-47.74
07.203,-36.72
07.218,-24.1
07.234,-11.34
07.250,0.39
07.265,10.3
07.281,18.04
07.296,23.62
07.312,27.22
07.328,29.09
07.343,29.55
07.359,28.95
07.375,27.7
07.390,26.25
07.406,25.04
07.421,24.38
07.437,24.38
07.453,24.92
07.468,25.75
07.484,26.58
07.500,27.17
07.515,27.4
07.531,27.24
07.546,26.68
07.562,25.62
07.578,23.96
07.593,21.56
07.609,18.45
07.625,14.82
07.640,10.99
07.656,7.34
07.671,4.11
07.687,1.31
07.703,-1.28
07.718,-3.99
07.734,-7.11
07.750,-10.77
07.765,-14.91
07.781,-19.33
07.796,-23.74
07.812,-27.89
07.828,-31.6
07.843,-34.84
07.859,-37.78
07.875,-40.76
07.890,-44.19
07.906,-48.36
07.921,-53.23
07.937,-58.22
07.953,-62.32
07.968,-64.27
07.984,-62.95
08.000,-57.77
08.015,-48.85
08.031,-37.02
08.046,-23.54
08.062,-9.87
08.078,2.73
08.093,13.37
08.109,21.57
08.125,27.29
08.140,30.74
08.156,32.34
08.171,32.56
08.187,31.91
08.203,30.83
08.218,29.69
08.234,28.77
08.250,28.2
08.265,27.98
08.281,27.99
08.296,28.07
08.312,28.11
08.328,28.08
08.343,28.05
08.359,28.13
08.375,28.27
08.390,28.24
08.406,27.7
08.421,26.25
08.437,23.64
08.453,19.92
08.468,15.41
08.484,10.58
08.500,5.96
08.515,1.8
08.531,-1.87
08.546,-5.26
08.562,-8.68
08.578,-12.39
08.593,-16.5
08.609,-20.93
08.625,-25.43
08.640,-29.66
08.656,-33.38
08.671,-36.52
08.687,-39.25
08.703,-41.93
08.718,-45.01
08.734,-48.88
08.750,-53.7
08.765,-59.32
08.781,-65.12
08.796,-70.05
08.812,-72.83
08.828,-72.2
08.843,-67.46
08.859,-58.6
08.875,-46.45
08.890,-32.43
08.906,-18.06
08.921,-4.57
08.937,7.3
08.953,17.24
08.968,25.21
08.984,31.17
09.000,35.15
09.015,37.23
09.031,37.7
09.046,37.04
09.062,35.84
09.078,34.62
09.093,33.7
09.109,33.2
09.125,33.07
09.140,33.2
09.156,33.45
09.171,33.62
09.187,33.64
09.203,33.45
09.218,33.09
09.234,32.61
09.250,32.01
09.265,31.12
09.281,29.62
09.296,27.19
09.312,23.67
09.328,19.26
09.343,14.47
09.359,9.9
09.375,6.0
09.390,2.8
09.406,-0.05
09.421,-3.1
09.437,-6.79
09.453,-11.22
09.468,-16.07
09.484,-20.83
09.500,-25.06
09.515,-28.62
09.531,-31.68
09.546,-34.66
09.562,-37.98
09.578,-41.87
09.593,-46.41
09.609,-51.48
09.625,-56.76
09.640,-61.73
09.656,-65.55
09.671,-67.2
09.687,-65.64
09.703,-60.19
09.718,-50.87
09.734,-38.4
09.750,-24.13
09.765,-9.59
09.781,3.83
09.796,15.24
09.812,24.21
09.828,30.76
09.843,35.08
09.859,37.48
09.875,38.3
09.890,37.93
09.906,36.8
09.921,35.37
09.937,34.1
09.953,33.32
09.968,33.18
09.984,33.6
10.000,34.35
10.015,35.15
10.031,35.76
10.046,36.11
10.062,36.23
10.078,36.2
10.093,36.0
10.109,35.45
10.125,34.29
10.140,32.3
10.156,29.38
10.171,25.68
10.187,21.49
10.203,17.16
10.218,12.91
10.234,8.82
10.250,4.79
10.265,0.68
10.281,-3.63
10.296,-8.12
10.312,-12.64
10.328,-17.02
10.343,-21.11
10.359,-24.88
10.375,-28.39
10.390,-31.82
10.406,-35.38
10.421,-39.33
10.437,-43.88
10.453,-49.07
10.468,-54.66
10.484,-60.01
10.500,-64.13
10.515,-65.83
10.531,-64.09
10.546,-58.39
10.562,-48.92
10.578,-36.59
10.593,-22.78
10.609,-8.97
10.625,3.6
10.640,14.16
10.656,22.37
10.671,28.24
10.687,32.0
10.703,33.93
10.718,34.33
10.734,33.52
10.750,31.84
10.765,29.64
10.781,27.28
10.796,25.06
10.812,23.17
10.828,21.7
10.843,20.64
10.859,19.98
10.875,19.65
10.890,19.57
10.906,19.61
10.921,19.54
10.937,19.06
10.953,17.9
10.968,15.94
10.984,13.22
11.000,10.01
11.015,6.6
11.031,3.22
11.046,-0.09
11.062,-3.46
11.078,-7.02
11.093,-10.89
11.109,-15.01
11.125,-19.21
11.140,-23.28
11.156,-27.05
11.171,-30.45
11.187,-33.53
11.203,-36.42
11.218,-39.31
11.234,-42.42
11.250,-45.94
11.265,-49.77
11.281,-53.39
11.296,-55.84
11.312,-55.88
11.328,-52.41
11.343,-44.88
11.359,-33.6
11.375,-19.7
11.390,-4.82
11.406,9.42
11.421,21.78
11.437,31.55
11.453,38.53
11.468,42.88
11.484,44.89
11.500,44.93
11.515,43.34
11.531,40.5
11.546,36.83
11.562,32.78
11.578,28.85
11.593,25.58
11.609,23.35
11.625,22.31
11.640,22.28
11.656,22.77
11.671,23.28
11.687,23.54
11.703,23.54
11.718,23.58
11.734,23.91
11.750,24.49
11.765,24.96
11.781,24.69
11.796,23.15
11.812,20.09
11.828,15.7
11.843,10.48
11.859,5.08
11.875,0.05
11.890,-4.37
11.906,-8.19
11.921,-11.72
11.937,-15.38
11.953,-19.63
11.968,-24.67
11.984,-30.37
12.000,-36.18
12.015,-41.22
12.031,-44.45
12.046,-44.85
12.062,-41.76
12.078,-35.02
12.093,-25.06
12.109,-12.86
12.125,0.28
12.140,12.98
12.156,24.02
12.171,32.61
12.187,38.4
12.203,41.38
12.218,41.85
12.234,40.23
12.250,37.12
12.265,33.2
12.281,29.13
12.296,25.5
12.312,22.68
12.328,20.78
12.343,19.65
12.359,18.97
12.375,18.43
12.390,17.84
12.406,17.15
12.421,16.42
12.437,15.65
12.453,14.67
12.468,13.17
12.484,10.73
12.500,7.03
12.515,2.02
12.531,-4.02
12.546,-10.47
12.562,-16.63
12.578,-21.93
12.593,-26.12
12.609,-29.39
12.625,-32.25
12.640,-35.32
12.656,-39.18
12.671,-44.11
12.687,-49.94
12.703,-55.95
12.718,-61.03
12.734,-63.86
12.750,-63.3
12.765,-58.72
12.781,-50.25
12.796,-38.77
12.812,-25.58
12.828,-12.11
12.843,0.5
12.859,11.52
12.875,20.68
12.890,27.92
12.906,33.28
12.921,36.83
12.937,38.64
12.953,38.92
12.968,38.0
12.984,36.27
13.000,34.2
13.015,32.15
13.031,30.33
13.046,28.84
13.062,27.64
13.078,26.65
13.093,25.8
13.109,25.06
13.125,24.34
13.140,23.53
13.156,22.41
13.171,20.63
13.187,17.82
13.203,13.74
13.218,8.36
13.234,2.02
13.250,-4.71
13.265,-11.16
13.281,-16.77
13.296,-21.32
13.312,-25.0
13.328,-28.28
13.343,-31.79
13.359,-35.97
13.375,-40.87
13.390,-46.05
13.406,-50.53
13.421,-53.05
13.437,-52.44
13.453,-47.9
13.468,-39.32
13.484,-27.34
13.500,-13.16
13.515,1.72
13.531,15.88
13.546,28.23
13.562,38.17
13.578,45.53
13.593,50.41
13.609,53.1
13.625,53.89
13.640,53.06
13.656,50.92
13.671,47.94
13.687,44.7
13.703,41.83
13.718,39.82
13.734,38.85
13.750,38.71
13.765,38.9
13.781,38.83
13.796,38.09
13.812,36.63
13.828,34.68
13.843,32.56
13.859,30.42
13.875,28.17
13.890,25.51
13.906,22.14
13.921,18.01
13.937,13.37
13.953,8.69
13.968,4.41
13.984,0.77
14.000,-2.26
14.015,-4.99
14.031,-7.75
14.046,-10.86
14.062,-14.45
14.078,-18.53
14.093,-23.02
14.109,-27.72
14.125,-32.45
14.140,-36.95
14.156,-41.07
14.171,-44.78
14.187,-48.23
14.203,-51.72
14.218,-55.61
14.234,-60.13
14.250,-65.2
14.265,-70.24
14.281,-74.2
14.296,-75.73
14.312,-73.57
14.328,-67.03
14.343,-56.22
14.359,-42.16
14.375,-26.48
14.390,-10.94
14.406,3.03
14.421,14.61
14.437,23.6
14.453,30.26
14.468,35.03
14.484,38.36
14.500,40.67
14.515,42.36
14.531,43.86
14.546,45.58
14.562,47.83
14.578,50.71
14.593,54.09
14.609,57.66
14.625,61.05
14.640,63.98
14.656,66.29
14.671,68.03
14.687,69.29
14.703,70.15
14.718,70.59
14.734,70.35
14.750,69.09
14.765,66.46
14.781,62.28
14.796,56.7
14.812,50.21
14.828,43.46
14.843,37.04
14.859,31.2
14.875,25.84
14.890,20.57
14.906,15.06
14.921,9.2
14.937,3.15
14.953,-2.73
14.968,-8.17
14.984,-13.07
15.000,-17.59
15.015,-22.0
15.031,-26.58
15.046,-31.62
15.062,-37.22
15.078,-43.38
15.093,-49.76
15.109,-55.69
15.125,-60.18
15.140,-62.1
15.156,-60.52
15.171,-55.02
15.187,-45.92
15.203,-34.15
15.218,-21.09
15.234,-8.23
15.250,3.23
15.265,12.5
15.281,19.28
15.296,23.67
15.312,25.96
15.328,26.52
15.343,25.71
15.359,23.9
15.375,21.53
15.390,19.04
15.406,16.93
15.421,15.5
15.437,14.79
15.453,14.61
15.468,14.61
15.484,14.46
15.500,13.99
15.515,13.26
15.531,12.36
15.546,11.32
15.562,10.0
15.578,8.14
15.593,5.51
15.609,2.04
15.625,-2.04
15.640,-6.29
15.656,-10.21
15.671,-13.44
15.687,-15.88
15.703,-17.73
15.718,-19.33
15.734,-21.01
15.750,-22.84
15.765,-24.61
15.781,-25.86
15.796,-26.06
15.812,-24.89
15.828,-22.42
15.843,-19.15
15.859,-15.83
15.875,-13.14
15.890,-11.38
15.906,-10.21
15.921,-8.76
15.937,-5.85
15.953,-0.46
15.968,7.86
15.984,18.85
16.000,31.58
16.015,44.95
16.031,58.03
16.046,70.22
16.062,81.19
16.078,90.71
16.093,98.53
16.109,104.52
16.125,108.84
16.140,111.97
16.156,114.31
16.171,115.58
16.187,114.47
16.203,109.0
16.218,97.53
16.234,80.05
16.250,58.76
16.265,37.55
16.281,20.57
16.296,10.55
16.312,7.78
16.328,10.3
16.343,15.1
16.359,19.55
16.375,22.52
16.390,24.38
16.406,26.43
16.421,30.04
16.437,36.08
16.453,44.7
16.468,55.49
16.484,67.75
16.500,80.46
16.515,92.41
16.531,102.12
16.546,108.1
16.562,109.06
16.578,104.4
16.593,94.43
16.609,80.58
16.625,64.98
16.640,49.62
16.656,35.64
16.671,22.51
16.687,8.15
16.703,-10.09
16.718,-33.62
16.734,-60.97
16.750,-87.47
16.765,-106.66
16.781,-113.18
16.796,-105.6
16.812,-87.79
16.828,-67.65
16.843,-53.78
16.859,-52.04
16.875,-63.47
16.890,-85.04
16.906,-112.0
16.921,-140.64
16.937,-169.28
16.953,-197.54
16.968,-224.42
16.984,-247.08
17.000,-261.26
17.015,-263.09
17.031,-251.35
17.046,-228.42
17.062,-199.67
17.078,-171.07
17.093,-146.91
17.109,-128.24
17.125,-113.02
17.140,-98.01
17.156,-80.55
17.171,-60.17
17.187,-38.73
17.203,-19.66
17.218,-6.37
17.234,-0.78
17.250,-2.63
17.265,-9.74
17.281,-19.1
17.296,-28.03
17.312,-34.96
17.328,-39.61
17.343,-42.57
17.359,-44.75
17.375,-46.99
17.390,-49.93
17.406,-53.74
17.421,-57.9
17.437,-60.75
17.453,-59.64
17.468,-51.75
17.484,-35.66
17.500,-12.75
17.515,12.31
17.531,32.82
17.546,42.42
17.562,37.6
17.578,19.07
17.593,-8.6
17.609,-38.89
17.625,-65.62
17.640,-84.61
17.656,-94.09
17.671,-94.24
17.687,-86.27
17.703,-71.72
17.718,-52.3
17.734,-29.88
17.750,-6.57
17.765,15.6
17.781,35.01
17.796,50.83
17.812,63.16
17.828,72.83
17.843,80.96
17.859,88.38
17.875,95.15
17.890,100.51
17.906,103.17
17.921,101.93
17.937,96.36
17.953,86.97
17.968,75.05
17.984,62.06
18.000,48.9
18.015,35.7
18.031,21.95
18.046,7.14
18.062,-8.66
18.078,-24.58
18.093,-39.21
18.109,-51.16
18.125,-59.57
18.140,-64.28
18.156,-65.66
18.171,-64.38
18.187,-61.11
18.203,-56.59
18.218,-51.61
18.234,-47.16
18.250,-44.25
18.265,-43.65
18.281,-45.63
18.296,-49.78
18.312,-55.11
18.328,-60.39
18.343,-64.63
18.359,-67.33
18.375,-68.68
18.390,-69.33
18.406,-69.99
18.421,-71.13
18.437,-72.67
18.453,-74.09
18.468,-74.61
18.484,-73.54
18.500,-70.37
18.515,-64.94
18.531,-57.31
18.546,-47.68
18.562,-36.41
18.578,-24.04
18.593,-11.37
18.609,0.65
18.625,10.98
18.640,18.77
18.656,23.57
18.671,25.36
18.687,24.54
18.703,21.69
18.718,17.41
18.734,12.28
18.750,6.91
18.765,1.96
18.781,-1.86
18.796,-3.94
18.812,-3.93
18.828,-1.91
18.843,1.66
18.859,6.06
18.875,10.63
18.890,14.82
18.906,18.34
18.921,20.93
18.937,22.32
18.953,22.26
18.968,20.5
18.984,17.04
19.000,12.17
19.015,6.48
19.031,0.66
19.046,-4.69
19.062,-9.26
19.078,-13.11
19.093,-16.61
19.109,-20.27
19.125,-24.47
19.140,-29.29
19.156,-34.45
19.171,-39.37
19.187,-43.41
19.203,-46.02
19.218,-46.97
19.234,-46.31
19.250,-44.28
19.265,-41.23
19.281,-37.45
19.296,-33.25
19.312,-28.98
19.328,-25.13
19.343,-22.27
19.359,-20.94
19.375,-21.36
19.390,-23.24
19.406,-25.68
19.421,-27.35
19.437,-26.91
19.453,-23.35
19.468,-16.36
19.484,-6.38
19.500,5.57
19.515,18.17
19.531,30.17
19.546,40.63
19.562,49.0
19.578,55.15
19.593,59.21
19.609,61.5
19.625,62.32
19.640,61.96
19.656,60.63
19.671,58.48
19.687,55.67
19.703,52.37
19.718,48.8
19.734,45.07
19.750,41.3
19.765,37.47
19.781,33.6
19.796,29.71
19.812,25.84
19.828,22.03
19.843,18.25
19.859,14.4
19.875,10.31
19.890,5.84
19.906,0.92
19.921,-4.37
19.937,-9.92
19.953,-15.57
19.968,-21.14
19.984,-26.4
20.000,-30.99
20.015,-34.38
20.031,-35.88
20.046,-34.77
20.062,-30.56
20.078,-23.15
20.093,-12.95
20.109,-0.75
20.125,12.4
20.140,25.45
20.156,37.53
20.171,48.03
20.187,56.6
20.203,63.06
20.218,67.44
20.234,69.87
20.250,70.64
20.265,70.11
20.281,68.68
20.296,66.66
20.312,64.26
20.328,61.6
20.343,58.74
20.359,55.8
20.375,52.94
20.390,50.35
20.406,48.13
20.421,46.32
20.437,44.84
20.453,43.59
20.468,42.49
20.484,41.49
20.500,40.57
20.515,39.67
20.531,38.66
20.546,37.38
20.562,35.78
20.578,33.89
20.593,31.93
20.609,30.21
20.625,29.18
20.640,29.43
20.656,31.64
20.671,36.57
20.687,44.9
20.703,56.9
20.718,72.19
20.734,89.7
20.750,107.78
20.765,124.68
20.781,138.73
20.796,148.6
20.812,153.31
20.828,152.17
20.843,144.97
20.859,132.24
20.875,115.48
20.890,97.05
20.906,79.49
20.921,64.66
20.937,52.95
20.953,43.18
20.968,33.15
20.984,20.6
21.000,4.12
21.015,-16.57
21.031,-40.79
21.046,-67.49
21.062,-95.48
21.078,-123.54
21.093,-150.11
21.109,-173.19
21.125,-190.63
21.140,-200.68
21.156,-202.77
21.171,-197.9
21.187,-188.41
21.203,-177.25
21.218,-166.96
21.234,-159.01
21.250,-153.38
21.265,-148.95
21.281,-144.11
21.296,-137.57
21.312,-128.79
21.328,-118.08
21.343,-106.27
21.359,-94.22
21.375,-82.47
21.390,-71.07
21.406,-59.78
21.421,-48.23
21.437,-36.17
21.453,-23.47
21.468,-10.2
21.484,3.32
21.500,16.46
21.515,28.14
21.531,36.98
21.546,41.78
21.562,41.98
21.578,38.09
21.593,31.61
21.609,24.5
21.625,18.42
21.640,14.14
21.656,11.4
21.671,9.36
21.687,7.23
21.703,4.74
21.718,2.34
21.734,0.77
21.750,0.72
21.765,2.54
21.781,6.15
21.796,11.3
21.812,17.65
21.828,24.9
21.843,32.56
21.859,40.09
21.875,46.86
21.890,52.57
21.906,57.49
21.921,62.47
21.937,68.58
21.953,76.53
21.968,86.37
21.984,97.55
22.000,109.62
22.015,122.91
22.031,138.99
22.046,160.11
22.062,187.84
22.078,221.7
22.093,258.54
22.109,293.43
22.125,321.51
22.140,340.05
22.156,349.39
22.171,352.25
22.187,351.9
22.203,350.16
22.218,346.59
22.234,339.17
22.250,325.89
22.265,306.25
22.281,281.82
22.296,255.44
22.312,229.83
22.328,206.56
22.343,185.79
22.359,166.88
22.375,149.24
22.390,132.86
22.406,118.18
22.421,105.67
22.437,95.03
22.453,84.9
22.468,73.12
22.484,57.65
22.500,37.51
22.515,13.46
22.531,-12.09
22.546,-35.82
22.562,-54.65
22.578,-66.7
22.593,-71.77
22.609,-71.01
22.625,-66.24
22.640,-59.25
22.656,-51.39
22.671,-43.42
22.687,-35.71
22.703,-28.42
22.718,-21.49
22.734,-14.69
22.750,-7.61
22.765,0.26
22.781,9.5
22.796,20.67
22.812,34.17
22.828,50.1
22.843,67.96
22.859,86.77
22.875,105.15
22.890,121.85
22.906,136.38
22.921,149.31
22.937,162.2
22.953,176.73
22.968,193.69
22.984,212.09
23.000,229.23
23.015,241.43
23.031,245.47
23.046,239.63
23.062,224.24
23.078,201.25
23.093,173.48
23.109,143.61
23.125,113.48
23.140,84.23
23.156,56.54
23.171,30.86
23.187,7.59
23.203,-13.08
23.218,-31.48
23.234,-48.42
23.250,-65.06
23.265,-82.27
23.281,-99.75
23.296,-115.73
23.312,-127.57
23.328,-133.05
23.343,-131.82
23.359,-125.85
23.375,-118.55
23.390,-112.95
23.406,-110.05
23.421,-108.35
23.437,-105.08
23.453,-98.26
23.468,-88.26
23.484,-78.0
23.500,-71.45
23.515,-71.69
23.531,-79.65
23.546,-94.15
23.562,-113.09
23.578,-134.87
23.593,-159.03
23.609,-185.84
23.625,-215.54
23.640,-247.83
23.656,-281.32
23.671,-314.1
23.687,-344.31
23.703,-370.57
23.718,-392.69
23.734,-411.85
23.750,-430.53
23.765,-451.61
23.781,-476.53
23.796,-503.54
23.812,-526.94
23.828,-538.21
23.843,-529.11
23.859,-495.01
23.875,-436.63
23.890,-359.67
23.906,-272.25
23.921,-182.45
23.937,-97.14
23.953,-22.59
23.968,34.47
23.984,67.18
24.000,70.7
24.015,45.09
24.031,-3.24
24.046,-62.98
24.062,-121.7
24.078,-170.11
24.093,-204.2
24.109,-224.49
24.125,-233.23
24.140,-231.97
24.156,-220.39
24.171,-197.41
24.187,-163.08
24.203,-119.81
24.218,-72.21
24.234,-25.59
24.250,15.69
24.265,49.18
24.281,74.49
24.296,92.38
24.312,103.85
24.328,109.63
24.343,110.0
24.359,105.07
24.375,95.39
24.390,82.13
24.406,66.98
24.421,51.64
24.437,37.28
24.453,24.18
24.468,11.82
24.484,-0.7
24.500,-14.17
24.515,-28.79
24.531,-44.1
24.546,-59.15
24.562,-72.8
24.578,-84.07
24.593,-92.25
24.609,-96.96
24.625,-97.97
24.640,-95.15
24.656,-88.39
24.671,-77.72
24.687,-63.48
24.703,-46.42
24.718,-27.64
24.734,-8.51
24.750,9.6
24.765,25.51
24.781,38.51
24.796,48.35
24.812,55.21
24.828,59.43
24.843,61.48
24.859,61.76
24.875,60.63
24.890,58.46
24.906,55.62
24.921,52.52
24.937,49.58
24.953,47.16
24.968,45.4
24.984,44.35
25.000,43.84
25.015,43.59
25.031,43.24
25.046,42.42
25.062,40.81
25.078,38.24
25.093,34.71
25.109,30.41
25.125,25.61
25.140,20.56
25.156,15.33
25.171,9.85
25.187,3.89
25.203,-2.82
25.218,-10.43
25.234,-18.81
25.250,-27.57
25.265,-35.86
25.281,-42.52
25.296,-46.2
25.312,-45.69
25.328,-40.28
25.343,-30.04
25.359,-15.97
25.375,0.35
25.390,17.06
25.406,32.6
25.421,45.97
25.437,56.79
25.453,65.05
25.468,70.82
25.484,74.21
25.500,75.31
25.515,74.42
25.531,72.07
25.546,69.0
25.562,65.87
25.578,63.16
25.593,61.01
25.609,59.18
25.625,57.42
25.640,55.5
25.656,53.37
25.671,51.14
25.687,48.93
25.703,46.76
25.718,44.41
25.734,41.53
25.750,37.7
25.765,32.61
25.781,26.22
25.796,18.89
25.812,11.19
25.828,3.81
25.843,-2.79
25.859,-8.6
25.875,-14.02
25.890,-19.78
25.906,-26.6
25.921,-34.76
25.937,-43.87
25.953,-52.76
25.968,-59.68
25.984,-62.75
26.000,-60.54
26.015,-52.42
26.031,-38.87
26.046,-21.27
26.062,-1.64
26.078,17.91
26.093,35.63
26.109,50.36
26.125,61.66
26.140,69.56
26.156,74.4
26.171,76.54
26.187,76.39
26.203,74.37
26.218,71.02
26.234,67.02
26.250,63.09
26.265,59.75
26.281,57.17
26.296,55.18
26.312,53.32
26.328,51.26
26.343,48.88
26.359,46.39
26.375,44.13
26.390,42.33
26.406,40.85
26.421,39.21
26.437,36.76
26.453,32.88
26.468,27.33
26.484,20.31
26.500,12.39
26.515,4.3
26.531,-3.26
26.546,-9.88
26.562,-15.55
26.578,-20.6
26.593,-25.67
26.609,-31.42
26.625,-38.31
26.640,-46.27
26.656,-54.57
26.671,-61.74
26.687,-65.92
26.703,-65.35
26.718,-58.93
26.734,-46.65
26.750,-29.7
26.765,-10.11
26.781,9.79
26.796,28.01
26.812,43.29
26.828,55.12
26.843,63.59
26.859,69.0
26.875,71.72
26.890,72.1
26.906,70.49
26.921,67.38
26.937,63.39
26.953,59.16
26.968,55.23
26.984,51.94
27.000,49.39
27.015,47.46
27.031,45.89
27.046,44.4
27.062,42.79
27.078,40.9
27.093,38.71
27.109,36.15
27.125,33.23
27.140,29.89
27.156,26.05
27.171,21.64
27.187,16.6
27.203,10.94
27.218,4.73
27.234,-1.84
27.250,-8.54
27.265,-15.07
27.281,-21.17
27.296,-26.66
27.312,-31.61
27.328,-36.29
27.343,-41.17
27.359,-46.71
27.375,-53.21
27.390,-60.58
27.406,-68.19
27.421,-74.91
27.437,-79.24
27.453,-79.62
27.468,-74.92
27.484,-64.78
27.500,-49.84
27.515,-31.65
27.531,-12.24
27.546,6.38
27.562,22.66
27.578,35.78
27.593,45.57
27.609,52.27
27.625,56.36
27.640,58.24
27.656,58.31
27.671,56.95
27.687,54.62
27.703,51.85
27.718,49.11
27.734,46.77
27.750,44.93
27.765,43.52
27.781,42.33
27.796,41.17
27.812,39.94
27.828,38.57
27.843,36.96
27.859,34.91
27.875,32.27
27.890,28.94
27.906,25.06
27.921,20.91
27.937,16.83
27.953,13.07
27.968,9.6
27.984,6.17
28.000,2.46
28.015,-1.75
28.031,-6.4
28.046,-11.15
28.062,-15.48
28.078,-18.87
28.093,-21.06
28.109,-22.18
28.125,-22.79
28.140,-23.7
28.156,-25.65
28.171,-28.78
28.187,-32.4
28.203,-34.92
28.218,-34.28
28.234,-28.65
28.250,-17.18
28.265,-0.39
28.281,20.05
28.296,41.93
28.312,63.49
28.328,83.97
28.343,103.61
28.359,123.08
28.375,142.81
28.390,162.32
28.406,180.41
28.421,195.57
28.437,206.81
28.453,214.07
28.468,218.38
28.484,221.67
28.500,226.46
28.515,235.47
28.531,251.13
28.546,274.85
28.562,306.2
28.578,342.2
28.593,377.43
28.609,405.04
28.625,418.67
28.640,414.36
28.656,391.62
28.671,353.25
28.687,304.03
28.703,248.99
28.718,192.08
28.734,135.96
28.750,82.3
28.765,32.36
28.781,-12.91
28.796,-53.27
28.812,-89.78
28.828,-124.82
28.843,-161.48
28.859,-202.44
28.875,-248.63
28.890,-298.8
28.906,-350.12
28.921,-399.29
28.937,-443.9
28.953,-483.32
28.968,-518.58
28.984,-551.85
29.000,-585.6
29.015,-621.82
29.031,-661.29
29.046,-702.65
29.062,-741.86
29.078,-772.33
29.093,-786.44
29.109,-777.89
29.125,-744.25
29.140,-688.15
29.156,-616.43
29.171,-537.69
29.187,-459.15
29.203,-384.82
29.218,-315.53
29.234,-250.43
29.250,-188.83
29.265,-131.24
29.281,-78.81
29.296,-32.26
29.312,9.2
29.328,47.89
29.343,86.91
29.359,128.89
29.375,174.87
29.390,223.78
29.406,272.38
29.421,316.11
29.437,350.15
29.453,370.81
29.468,376.62
29.484,368.72
29.500,350.41
29.515,326.05
29.531,299.77
29.546,274.54
29.562,251.91
29.578,232.27
29.593,215.46
29.609,201.07
29.625,188.68
29.640,177.69
29.656,167.34
29.671,156.86
29.687,145.78
29.703,134.09
29.718,122.27
29.734,111.03
29.750,101.01
29.765,92.45
29.781,85.14
29.796,78.44
29.812,71.57
29.828,63.65
29.843,54.02
29.859,42.35
29.875,28.78
29.890,14.07
29.906,-0.51
29.921,-13.46
29.937,-23.45
29.953,-29.78
29.968,-32.57
29.984,-32.58
30.000,-30.82
30.015,-28.15
30.031,-25.07
30.046,-21.76
30.062,-18.24
30.078,-14.56
30.093,-10.99
30.109,-7.91
30.125,-5.71
30.140,-4.56
30.156,-4.39
30.171,-4.78
30.187,-5.01
30.203,-4.21
30.218,-1.46
30.234,3.9
30.250,12.05
30.265,22.56
30.281,34.44
30.296,46.39
30.312,57.15
30.328,65.89
30.343,72.37
30.359,77.04
30.375,80.85
30.390,85.07
30.406,90.93
30.421,99.52
30.437,111.5
30.453,126.97
30.468,145.44
30.484,165.83
30.500,186.78
30.515,206.9
30.531,225.05
30.546,240.43
30.562,252.47
30.578,260.73
30.593,264.72
30.609,263.82
30.625,257.41
30.640,245.06
30.656,226.77
30.671,203.04
30.687,175.06
30.703,144.55
30.718,113.59
30.734,84.1
30.750,57.22
30.765,32.86
30.781,9.63
30.796,-14.6
30.812,-41.86
30.828,-73.04
30.843,-107.29
30.859,-142.04
30.875,-173.68
30.890,-198.75
30.906,-215.04
30.921,-222.33
30.937,-222.42
30.953,-218.81
30.968,-215.9
30.984,-217.99
31.000,-227.98
31.015,-246.42
31.031,-271.27
31.046,-298.23
31.062,-321.53
31.078,-335.23
31.093,-335.15
31.109,-320.31
31.125,-293.66
31.140,-261.17
31.156,-229.61
31.171,-203.9
31.187,-185.39
31.203,-171.88
31.218,-159.57
31.234,-145.48
31.250,-128.86
31.265,-111.21
31.281,-94.78
31.296,-81.01
31.312,-69.91
31.328,-60.66
31.343,-52.58
31.359,-45.7
31.375,-40.54
31.390,-37.15
31.406,-34.63
31.421,-31.72
31.437,-27.43
31.453,-21.63
31.468,-15.03
31.484,-8.65
31.500,-3.22
31.515,1.02
31.531,4.19
31.546,6.32
31.562,7.24
31.578,6.87
31.593,5.39
31.609,3.28
31.625,1.04
31.640,-1.1
31.656,-3.35
31.671,-6.27
31.687,-10.56
31.703,-16.66
31.718,-24.5
31.734,-33.45
31.750,-42.42
31.765,-50.05
31.781,-54.93
31.796,-55.83
31.812,-51.97
31.828,-43.16
31.843,-29.95
31.859,-13.35
31.875,5.34
31.890,24.9
31.906,44.28
31.921,62.55
31.937,78.77
31.953,91.96
31.968,101.26
31.984,106.17
32.000,106.87
32.015,104.3
32.031,99.88
32.046,94.97
32.062,90.51
32.078,86.67
32.093,83.02
32.109,78.8
32.125,73.53
32.140,67.29
32.156,60.89
32.171,55.44
32.187,51.83
32.203,50.16
32.218,49.6
32.234,48.63
32.250,45.72
32.265,40.06
32.281,31.9
32.296,22.31
32.312,12.59
32.328,3.5
32.343,-5.06
32.359,-13.92
32.375,-24.02
32.390,-35.68
32.406,-48.23
32.421,-60.09
32.437,-69.32
32.453,-74.17
32.468,-73.53
32.484,-67.13
32.500,-55.4
32.515,-39.32
32.531,-20.2
32.546,0.42
32.562,20.91
32.578,39.68
32.593,55.41
32.609,67.14
32.625,74.46
32.640,77.54
32.656,77.08
32.671,74.24
32.687,70.4
32.703,66.84
32.718,64.47
32.734,63.48
32.750,63.41
32.765,63.39
32.781,62.68
32.796,60.94
32.812,58.36
32.828,55.43
32.843,52.44
32.859,49.24
32.875,45.19
32.890,39.62
32.906,32.17
32.921,23.18
32.937,13.61
32.953,4.73
32.968,-2.4
32.984,-7.4
33.000,-10.74
33.015,-13.56
33.031,-17.27
33.046,-22.94
33.062,-30.88
33.078,-40.49
33.093,-50.35
33.109,-58.57
33.125,-63.28
33.140,-63.03
33.156,-57.09
33.171,-45.51
33.187,-29.0
33.203,-8.82
33.218,13.49
33.234,36.29
33.250,58.07
33.265,77.51
33.281,93.63
33.296,105.76
33.312,113.74
33.328,118.1
33.343,119.95
33.359,120.89
33.375,122.49
33.390,125.76
33.406,130.79
33.421,136.84
33.437,142.65
33.453,147.12
33.468,149.82
33.484,151.11
33.500,151.93
33.515,153.39
33.531,156.33
33.546,160.99
33.562,166.75
33.578,171.89
33.593,173.58
33.609,168.24
33.625,152.42
33.640,124.03
33.656,83.4
33.671,33.56
33.687,-20.47
33.703,-73.25
33.718,-120.66
33.734,-160.82
33.750,-193.9
33.765,-220.96
33.781,-242.62
33.796,-258.35
33.812,-266.78
33.828,-266.64
33.843,-257.76
33.859,-241.31
33.875,-219.23
33.890,-193.27
33.906,-164.42
33.921,-132.82
33.937,-98.46
33.953,-62.1
33.968,-25.59
33.984,8.39
34.000,37.19
34.015,59.25
34.031,74.69
34.046,85.18
34.062,93.26
34.078,101.38
34.093,111.1
34.109,122.76
34.125,135.65
34.140,148.51
34.156,160.2
34.171,170.26
34.187,179.16
34.203,188.17
34.218,198.78
34.234,211.76
34.250,226.38
34.265,240.02
34.281,248.67
34.296,248.19
34.312,235.83
34.328,211.31
34.343,176.94
34.359,136.88
34.375,95.73
34.390,57.48
34.406,24.73
34.421,-1.25
34.437,-20.1
34.453,-31.82
34.468,-36.56
34.484,-34.5
34.500,-26.31
34.515,-13.3
34.531,2.56
34.546,19.03
34.562,34.39
34.578,48.22
34.593,61.64
34.609,76.76
34.625,95.37
34.640,117.61
34.656,141.26
34.671,162.43
34.687,176.92
34.703,181.85
34.718,176.65
34.734,162.86
34.750,143.16
34.765,120.1
34.781,95.17
34.796,68.65
34.812,40.05
34.828,8.73
34.843,-25.53
34.859,-62.49
34.875,-101.57
34.890,-142.07
34.906,-183.39
34.921,-224.99
34.937,-266.16
34.953,-305.79
34.968,-342.36
34.984,-374.2
35.000,-399.91
35.015,-418.88
35.031,-431.5
35.046,-439.0
35.062,-443.08
35.078,-445.46
35.093,-447.58
35.109,-450.29
35.125,-453.49
35.140,-455.78
35.156,-454.25
35.171,-445.0
35.187,-424.34
35.203,-390.37
35.218,-344.13
35.234,-289.55
35.250,-232.23
35.265,-177.33
35.281,-127.84
35.296,-84.17
35.312,-44.93
35.328,-8.45
35.343,25.97
35.359,57.94
35.375,86.57
35.390,111.41
35.406,132.84
35.421,151.63
35.437,168.17
35.453,181.97
35.468,191.91
35.484,196.96
35.500,197.13
35.515,193.8
35.531,189.35
35.546,186.22
35.562,185.97
35.578,188.82
35.593,193.87
35.609,199.87
35.625,205.82
35.640,211.33
35.656,216.16
35.671,219.61
35.687,220.1
35.703,215.41
35.718,203.52
35.734,183.58
35.750,156.64
35.765,125.27
35.781,92.67
35.796,61.5
35.812,33.1
35.828,7.55
35.843,-15.81
35.859,-37.6
35.875,-58.04
35.890,-77.03
35.906,-94.58
35.921,-111.13
35.937,-127.26
35.953,-143.19
35.968,-158.16
35.984,-170.36
36.000,-177.57
36.015,-178.09
36.031,-171.64
36.046,-159.65
36.062,-144.85
36.078,-130.24
36.093,-118.22
36.109,-109.91
36.125,-105.28
36.140,-103.58
36.156,-103.91
36.171,-105.56
36.187,-107.94
36.203,-110.45
36.218,-112.24
36.234,-112.33
36.250,-109.67
36.265,-103.53
36.281,-93.64
36.296,-80.33
36.312,-64.35
36.328,-46.83
36.343,-29.0
36.359,-12.03
36.375,3.16
36.390,16.05
36.406,26.47
36.421,34.54
36.437,40.59
36.453,44.93
36.468,47.87
36.484,49.71
36.500,50.78
36.515,51.45
36.531,52.01
36.546,52.59
36.562,53.04
36.578,53.1
36.593,52.53
36.609,51.27
36.625,49.47
36.640,47.31
36.656,44.87
36.671,42.01
36.687,38.5
36.703,34.35
36.718,30.1
36.734,26.97
36.750,26.58
36.765,30.36
36.781,38.85
36.796,51.31
36.812,65.74
36.828,79.54
36.843,90.4
36.859,97.05
36.875,99.63
36.890,99.47
36.906,98.3
36.921,97.48
36.937,97.62
36.953,98.48
36.968,99.52
36.984,100.2
37.000,100.1
37.015,98.87
37.031,96.11
37.046,91.51
37.062,85.19
37.078,78.04
37.093,71.65
37.109,67.75
37.125,67.3
37.140,69.89
37.156,73.84
37.171,76.99
37.187,77.84
37.203,76.25
37.218,73.37
37.234,70.81
37.250,69.75
37.265,70.44
37.281,72.42
37.296,75.3
37.312,79.26
37.328,85.32
37.343,94.58
37.359,107.42
37.375,122.62
37.390,137.32
37.406,147.61
37.421,149.71
37.437,141.27
37.453,122.17
37.468,94.84
37.484,63.52
37.500,33.1
37.515,7.76
37.531,-10.2
37.546,-20.63
37.562,-25.22
37.578,-26.53
37.593,-26.87
37.609,-27.56
37.625,-28.87
37.640,-30.33
37.656,-31.46
37.671,-32.14
37.687,-32.77
37.703,-33.89
37.718,-35.81
37.734,-38.44
37.750,-41.32
37.765,-44.0
37.781,-46.4
37.796,-48.94
37.812,-52.38
37.828,-57.49
37.843,-64.69
37.859,-73.84
37.875,-84.32
37.890,-95.4
37.906,-106.45
37.921,-117.26
37.937,-127.99
37.953,-138.99
37.968,-150.55
37.984,-162.74
38.000,-175.35
38.015,-187.78
38.031,-199.07
38.046,-207.87
38.062,-212.65
38.078,-212.1
38.093,-205.58
38.109,-193.47
38.125,-177.28
38.140,-159.21
38.156,-141.58
38.171,-126.07
38.187,-113.28
38.203,-102.46
38.218,-92.01
38.234,-79.96
38.250,-64.75
38.265,-45.73
38.281,-23.32
38.296,1.26
38.312,26.57
38.328,51.47
38.343,75.39
38.359,98.19
38.375,119.73
38.390,139.59
38.406,156.95
38.421,170.88
38.437,180.73
38.453,186.42
38.468,188.48
38.484,187.77
38.500,185.13
38.515,181.15
38.531,176.19
38.546,170.46
38.562,164.12
38.578,157.38
38.593,150.41
38.609,143.18
38.625,135.49
38.640,126.87
38.656,116.82
38.671,104.97
38.687,91.26
38.703,76.02
38.718,59.86
38.734,43.49
38.750,27.52
38.765,12.39
38.781,-1.73
38.796,-14.82
38.812,-26.9
38.828,-37.99
38.843,-48.01
38.859,-56.9
38.875,-64.72
38.890,-71.82
38.906,-78.83
38.921,-86.64
38.937,-95.99
38.953,-107.02
38.968,-119.01
38.984,-130.17
39.000,-138.12
39.015,-140.56
39.031,-136.05
39.046,-124.62
39.062,-107.77
39.078,-87.98
39.093,-67.75
39.109,-48.9
39.125,-32.03
39.140,-16.78
39.156,-2.39
39.171,11.62
39.187,24.99
39.203,36.72
39.218,45.41
39.234,49.72
39.250,48.76
39.265,42.27
39.281,30.56
39.296,14.37
39.312,-5.32
39.328,-27.35
39.343,-50.5
39.359,-73.6
39.375,-95.72
39.390,-116.28
39.406,-135.04
39.421,-151.88
39.437,-166.45
39.453,-177.94
39.468,-185.19
39.484,-187.07
39.500,-183.04
39.515,-173.62
39.531,-160.39
39.546,-145.52
39.562,-131.07
39.578,-118.41
39.593,-107.92
39.609,-99.29
39.625,-92.07
39.640,-86.07
39.656,-81.55
39.671,-78.99
39.687,-78.77
39.703,-80.78
39.718,-84.29
39.734,-87.92
39.750,-89.99
39.765,-88.73
39.781,-82.76
39.796,-71.29
39.812,-54.3
39.828,-32.62
39.843,-7.74
39.859,18.41
39.875,43.81
39.890,66.67
39.906,85.8
39.921,100.72
39.937,111.65
39.953,119.36
39.968,124.75
39.984,128.53
40.000,131.01
40.015,132.13
40.031,131.65
40.046,129.49
40.062,125.88
40.078,121.33
40.093,116.46
40.109,111.7
40.125,107.2
40.140,102.88
40.156,98.56
40.171,94.25
40.187,90.2
40.203,86.7
40.218,83.94
40.234,81.7
40.250,79.35
40.265,76.01
40.281,70.97
40.296,63.97
40.312,55.35
40.328,45.89
40.343,36.46
40.359,27.7
40.375,19.77
40.390,12.51
40.406,5.69
40.421,-0.78
40.437,-6.78
40.453,-12.21
40.468,-17.17
40.484,-22.04
40.500,-27.15
40.515,-32.36
40.531,-36.74
40.546,-38.68
40.562,-36.37
40.578,-28.59
40.593,-15.28
40.609,2.33
40.625,22.13
40.640,41.82
40.656,59.59
40.671,74.45
40.687,86.23
40.703,95.24
40.718,101.87
40.734,106.39
40.750,108.79
40.765,108.86
40.781,106.36
40.796,101.22
40.812,93.74
40.828,84.55
40.843,74.52
40.859,64.48
40.875,55.02
40.890,46.46
40.906,39.04
40.921,33.06
40.937,28.99
40.953,27.39
40.968,28.47
40.984,31.75
41.000,35.88
41.015,38.95
41.031,38.98
41.046,34.6
41.062,25.59
41.078,12.78
41.093,-2.25
41.109,-17.87
41.125,-33.03
41.140,-47.36
41.156,-61.05
41.171,-74.43
41.187,-87.56
41.203,-100.09
41.218,-111.41
41.234,-120.74
41.250,-127.3
41.265,-130.31
41.281,-128.95
41.296,-122.64
41.312,-111.24
41.328,-95.38
41.343,-76.43
41.359,-56.24
41.375,-36.68
41.390,-19.25
41.406,-4.84
41.421,6.31
41.437,14.31
41.453,19.61
41.468,22.83
41.484,24.77
41.500,26.27
41.515,28.11
41.531,30.79
41.546,34.47
41.562,39.01
41.578,43.97
41.593,48.79
41.609,52.98
41.625,56.15
41.640,58.24
41.656,59.45
41.671,60.19
41.687,60.88
41.703,61.71
41.718,62.51
41.734,62.79
41.750,61.97
41.765,59.52
41.781,55.24
41.796,49.36
41.812,42.44
41.828,35.36
41.843,28.99
41.859,23.87
41.875,19.92
41.890,16.4
41.906,11.98
41.921,5.28
41.937,-4.74
41.953,-18.37
41.968,-35.09
41.984,-53.6
42.000,-72.09
42.015,-88.38
42.031,-100.31
42.046,-106.02
42.062,-104.38
42.078,-95.41
42.093,-80.37
42.109,-61.64
42.125,-42.04
42.140,-24.09
42.156,-9.47
42.171,1.25
42.187,8.39
42.203,12.7
42.218,14.97
42.234,15.76
42.250,15.52
42.265,14.7
42.281,13.91
42.296,13.87
42.312,15.14
42.328,17.88
42.343,21.72
42.359,25.9
42.375,29.56
42.390,32.09
42.406,33.36
42.421,33.6
42.437,33.17
42.453,32.38
42.468,31.24
42.484,29.57
42.500,27.07
42.515,23.56
42.531,18.98
42.546,13.54
42.562,7.49
42.578,1.24
42.593,-4.88
42.609,-10.58
42.625,-15.72
42.640,-20.4
42.656,-24.84
42.671,-29.37
42.687,-34.34
42.703,-40.02
42.718,-46.43
42.734,-53.3
42.750,-59.91
42.765,-65.05
42.781,-67.28
42.796,-65.18
42.812,-57.97
42.828,-45.74
42.843,-29.64
42.859,-11.52
42.875,6.53
42.890,22.74
42.906,36.06
42.921,46.2
42.937,53.43
42.953,58.24
42.968,61.11
42.984,62.36
43.000,62.2
43.015,60.87
43.031,58.7
43.046,56.19
43.062,53.84
43.078,52.05
43.093,50.92
43.109,50.24
43.125,49.6
43.140,48.6
43.156,47.03
43.171,44.91
43.187,42.42
43.203,39.74
43.218,36.91
43.234,33.79
43.250,30.16
43.265,25.79
43.281,20.6
43.296,14.69
43.312,8.34
43.328,1.92
43.343,-4.13
43.359,-9.51
43.375,-14.04
43.390,-17.8
43.406,-21.11
43.421,-24.47
43.437,-28.35
43.453,-33.13
43.468,-38.86
43.484,-45.16
43.500,-51.16
43.515,-55.54
43.531,-56.8
43.546,-53.68
43.562,-45.52
43.578,-32.56
43.593,-16.0
43.609,2.36
43.625,20.58
43.640,37.04
43.656,50.85
43.671,61.81
43.687,70.19
43.703,76.42
43.718,80.78
43.734,83.33
43.750,84.08
43.765,83.09
43.781,80.71
43.796,77.49
43.812,74.19
43.828,71.44
43.843,69.66
43.859,69.05
43.875,69.61
43.890,71.28
43.906,74.04
43.921,77.84
43.937,82.57
43.953,87.98
43.968,93.72
43.984,99.37
44.000,104.6
44.015,109.28
44.031,113.56
44.046,117.87
44.062,122.72
44.078,128.62
44.093,135.77
44.109,143.93
44.125,152.48
44.140,160.6
44.156,167.68
44.171,173.81
44.187,179.88
44.203,187.27
44.218,197.06
44.234,209.19
44.250,221.89
44.265,231.93
44.281,235.52
44.296,229.48
44.312,212.32
44.328,184.63
44.343,149.01
44.359,109.66
44.375,71.76
44.390,40.57
44.406,20.33
44.421,13.12
44.437,18.05
44.453,31.34
44.468,47.48
44.484,60.92
44.500,67.7
44.515,66.25
44.531,57.04
44.546,41.55
44.562,21.26
44.578,-2.86
44.593,-30.24
44.609,-60.21
44.625,-91.92
44.640,-124.36
44.656,-156.73
44.671,-188.52
44.687,-219.39
44.703,-248.93
44.718,-276.75
44.734,-302.62
44.750,-326.85
44.765,-350.42
44.781,-374.45
44.796,-399.43
44.812,-424.25
44.828,-445.96
44.843,-460.38
44.859,-463.69
44.875,-454.17
44.890,-433.08
44.906,-404.35
44.921,-372.9
44.937,-342.47
44.953,-314.26
44.968,-286.88
44.984,-257.7
45.000,-224.77
45.015,-188.2
45.031,-150.35
45.046,-114.81
45.062,-84.63
45.078,-61.23
45.093,-44.21
45.109,-32.15
45.125,-23.67
45.140,-18.24
45.156,-15.99
45.171,-17.05
45.187,-20.85
45.203,-25.73
45.218,-29.41
45.234,-29.77
45.250,-25.7
45.265,-17.61
45.281,-7.17
45.296,3.3
45.312,11.73
45.328,16.99
45.343,19.21
45.359,19.4
45.375,18.81
45.390,18.34
45.406,18.06
45.421,17.4
45.437,15.61
45.453,12.32
45.468,7.85
45.484,3.17
45.500,-0.59
45.515,-2.68
45.531,-3.14
45.546,-2.68
45.562,-2.43
45.578,-3.47
45.593,-6.43
45.609,-11.38
45.625,-17.72
45.640,-24.3
45.656,-29.51
45.671,-31.59
45.687,-29.03
45.703,-21.07
45.718,-7.96
45.734,9.05
45.750,28.03
45.765,46.93
45.781,64.1
45.796,78.53
45.812,89.88
45.828,98.2
45.843,103.7
45.859,106.76
45.875,107.84
45.890,107.58
45.906,106.69
45.921,105.81
45.937,105.35
45.953,105.36
45.968,105.62
45.984,105.81
46.000,105.81
46.015,105.73
46.031,105.87
46.046,106.4
46.062,107.07
46.078,107.07
46.093,105.21
46.109,100.35
46.125,91.94
46.140,80.37
46.156,66.99
46.171,53.7
46.187,42.4
46.203,34.35
46.218,29.9
46.234,28.56
46.250,29.2
46.265,30.49
46.281,31.29
46.296,30.88
46.312,29.24
46.328,27.14
46.343,26.05
46.359,27.86
46.375,34.29
46.390,46.2
46.406,63.27
46.421,83.97
46.437,106.04
46.453,127.14
46.468,145.51
46.484,160.12
46.500,170.54
46.515,176.65
46.531,178.17
46.546,174.71
46.562,165.81
46.578,151.43
46.593,132.15
46.609,109.26
46.625,84.49
46.640,59.61
46.656,36.05
46.671,14.56
46.687,-4.86
46.703,-22.73
46.718,-39.81
46.734,-56.66
46.750,-73.57
46.765,-90.58
46.781,-107.76
46.796,-125.43
46.812,-144.23
46.828,-164.82
46.843,-187.59
46.859,-212.22
46.875,-237.59
46.890,-261.99
46.906,-283.54
46.921,-300.71
46.937,-312.58
46.953,-318.81
46.968,-319.31
46.984,-313.89
47.000,-301.95
47.015,-282.6
47.031,-254.92
47.046,-218.47
47.062,-173.82
47.078,-122.74
47.093,-68.09
47.109,-13.25
47.125,38.74
47.140,85.93
47.156,127.77
47.171,164.96
47.187,198.68
47.203,229.75
47.218,257.88
47.234,281.46
47.250,297.94
47.265,304.72
47.281,300.15
47.296,284.42
47.312,259.65
47.328,229.6
47.343,198.89
47.359,172.08
47.375,153.06
47.390,144.3
47.406,146.42
47.421,157.82
47.437,174.64
47.453,191.51
47.468,202.86
47.484,204.38
47.500,194.25
47.515,173.54
47.531,145.39
47.546,113.72
47.562,81.65
47.578,50.65
47.593,20.24
47.609,-11.36
47.625,-46.18
47.640,-85.33
47.656,-127.92
47.671,-170.68
47.687,-208.18
47.703,-233.88
47.718,-241.98
47.734,-229.27
47.750,-196.65
47.765,-149.27
47.781,-95.56
47.796,-45.01
47.812,-5.53
47.828,19.1
47.843,30.32
47.859,33.9
47.875,37.12
47.890,45.21
47.906,58.76
47.921,73.45
47.937,82.15
47.953,78.27
47.968,58.39
47.984,23.15
48.000,-23.47
48.015,-75.53
48.031,-126.24
48.046,-168.97
48.062,-198.43
48.078,-212.22
48.093,-212.16
48.109,-204.36
48.125,-197.31
48.140,-198.84
48.156,-213.15
48.171,-239.64
48.187,-273.89
48.203,-309.61
48.218,-340.35
48.234,-360.23
48.250,-364.29
48.265,-349.26
48.281,-315.1
48.296,-266.52
48.312,-213.05
48.328,-167.0
48.343,-139.7
48.359,-137.78
48.375,-161.09
48.390,-202.75
48.406,-251.41
48.421,-294.51
48.437,-321.38
48.453,-325.56
48.468,-305.71
48.484,-265.28
48.500,-211.23
48.515,-152.32
48.531,-97.26
48.546,-53.16
48.562,-24.28
48.578,-11.21
48.593,-10.96
48.609,-17.87
48.625,-25.41
48.640,-28.15
48.656,-23.28
48.671,-11.0
48.687,6.37
48.703,25.9
48.718,45.29
48.734,63.07
48.750,78.19
48.765,89.28
48.781,94.41
48.796,91.67
48.812,79.95
48.828,59.63
48.843,32.75
48.859,2.49
48.875,-27.8
48.890,-55.31
48.906,-78.36
48.921,-96.47
48.937,-110.1
48.953,-120.08
48.968,-127.28
48.984,-132.2
49.000,-134.97
49.015,-135.55
49.031,-133.86
49.046,-130.12
49.062,-124.83
49.078,-118.85
49.093,-113.15
49.109,-108.51
49.125,-105.16
49.140,-102.61
49.156,-99.66
49.171,-94.75
49.187,-86.54
49.203,-74.39
49.218,-58.48
49.234,-39.69
49.250,-19.13
49.265,2.41
49.281,24.67
49.296,47.84
49.312,72.17
49.328,97.52
49.343,123.12
49.359,147.67
49.375,169.75
49.390,188.19
49.406,202.43
49.421,212.56
49.437,219.15
49.453,222.97
49.468,224.76
49.484,224.97
49.500,223.84
49.515,221.51
49.531,218.21
49.546,214.43
49.562,210.87
49.578,208.22
49.593,206.76
49.609,206.15
49.625,205.45
49.640,203.45
49.656,199.19
49.671,192.4
49.687,183.67
49.703,174.23
49.718,165.37
49.734,157.94
49.750,151.94
49.765,146.69
49.781,141.18
49.796,134.51
49.812,126.27
49.828,116.66
49.843,106.4
49.859,96.62
49.875,88.57
49.890,83.38
49.906,81.73
49.921,83.62
49.937,88.22
49.953,93.98
49.968,99.02
49.984,101.47
50.000,99.93
50.015,93.66
50.031,82.66
50.046,67.44
50.062,49.02
50.078,28.67
50.093,7.85
50.109,-11.95
50.125,-29.31
50.140,-42.99
50.156,-52.09
50.171,-56.15
50.187,-55.33
50.203,-50.26
50.218,-42.05
50.234,-32.03
50.250,-21.46
50.265,-11.39
50.281,-2.5
50.296,4.8
50.312,10.26
50.328,13.73
50.343,15.18
50.359,14.76
50.375,12.89
50.390,10.22
50.406,7.43
50.421,5.08
50.437,3.33
50.453,1.93
50.468,0.3
50.484,-2.3
50.500,-6.46
50.515,-12.43
50.531,-19.89
50.546,-27.85
50.562,-34.64
50.578,-38.31
50.593,-37.07
50.609,-29.9
50.625,-16.96
50.640,0.45
50.656,20.18
50.671,39.98
50.687,58.01
50.703,73.24
50.718,85.35
50.734,94.47
50.750,100.82
50.765,104.6
50.781,105.91
50.796,105.0
50.812,102.38
50.828,98.76
50.843,94.97
50.859,91.64
50.875,89.12
50.890,87.34
50.906,86.04
50.921,84.86
50.937,83.57
50.953,82.13
50.968,80.54
50.984,78.8
51.000,76.8
51.015,74.33
51.031,71.22
51.046,67.42
51.062,63.04
51.078,58.28
51.093,53.42
51.109,48.68
51.125,44.25
51.140,40.27
51.156,36.83
51.171,33.96
51.187,31.56
51.203,29.45
51.218,27.39
51.234,25.21
51.250,22.84
51.265,20.33
51.281,17.88
51.296,15.65
51.312,13.82
51.328,12.39
51.343,11.23
51.359,10.12
51.375,8.86
51.390,7.29
51.406,5.44
51.421,3.44
51.437,1.51
51.453,-0.16
51.468,-1.51
51.484,-2.59
51.500,-3.6
51.515,-4.75
51.531,-6.16
51.546,-7.84
51.562,-9.62
51.578,-11.31
51.593,-12.77
51.609,-13.99
51.625,-15.13
51.640,-16.46
51.656,-18.25
51.671,-20.6
51.687,-23.43
51.703,-26.44
51.718,-29.26
51.734,-31.61
51.750,-33.4
51.765,-34.86
51.781,-36.39
51.796,-38.43
51.812,-41.27
51.828,-44.93
51.843,-49.18
51.859,-53.57
51.875,-57.71
51.890,-61.35
51.906,-64.48
51.921,-67.28
51.937,-70.18
51.953,-73.64
51.968,-78.15
51.984,-83.88
52.000,-90.44
52.015,-96.65
52.031,-100.61
52.046,-100.12
52.062,-93.44
52.078,-79.99
52.093,-60.71
52.109,-37.91
52.125,-14.55
52.140,6.63
52.156,23.76
52.171,36.14
52.187,43.99
52.203,47.99
52.218,48.91
52.234,47.45
52.250,44.21
52.265,39.92
52.281,35.38
52.296,31.4
52.312,28.6
52.328,27.25
52.343,27.16
52.359,27.77
52.375,28.43
52.390,28.55
52.406,27.92
52.421,26.62
52.437,24.96
52.453,23.16
52.468,21.19
52.484,18.8
52.500,15.58
52.515,11.33
52.531,6.13
52.546,0.43
52.562,-5.14
52.578,-10.01
52.593,-13.94
52.609,-17.08
52.625,-19.88
52.640,-22.94
52.656,-26.73
52.671,-31.49
52.687,-37.1
52.703,-43.04
52.718,-48.4
52.734,-51.98
52.750,-52.55
52.765,-49.16
52.781,-41.45
52.796,-29.95
52.812,-15.92
52.828,-1.03
52.843,13.01
52.859,24.99
52.875,34.28
52.890,40.89
52.906,45.13
52.921,47.36
52.937,47.81
52.953,46.65
52.968,44.09
52.984,40.53
53.000,36.55
53.015,32.77
53.031,29.63
53.046,27.3
53.062,25.55
53.078,23.97
53.093,22.21
53.109,20.1
53.125,17.78
53.140,15.52
53.156,13.54
53.171,11.8
53.187,10.02
53.203,7.74
53.218,4.53
53.234,0.23
53.250,-4.98
53.265,-10.59
53.281,-15.97
53.296,-20.61
53.312,-24.3
53.328,-27.26
53.343,-30.0
53.359,-33.16
53.375,-37.2
53.390,-42.29
53.406,-48.15
53.421,-54.07
53.437,-59.06
53.453,-61.97
53.468,-61.74
53.484,-57.68
53.500,-49.65
53.515,-38.16
53.531,-24.36
53.546,-9.72
53.562,4.29
53.578,16.51
53.593,26.32
53.609,33.56
53.625,38.44
53.640,41.29
53.656,42.54
53.671,42.53
53.687,41.6
53.703,40.04
53.718,38.12
53.734,36.03
53.750,33.96
53.765,32.02
53.781,30.28
53.796,28.74
53.812,27.35
53.828,25.97
53.843,24.5
53.859,22.86
53.875,21.03
53.890,19.0
53.906,16.71
53.921,14.06
53.937,10.94
53.953,7.29
53.968,3.14
53.984,-1.35
54.000,-5.99
54.015,-10.57
54.031,-15.01
54.046,-19.29
54.062,-23.37
54.078,-27.19
54.093,-30.62
54.109,-33.56
54.125,-36.08
54.140,-38.44
54.156,-41.12
54.171,-44.61
54.187,-49.12
54.203,-54.39
54.218,-59.59
54.234,-63.46
54.250,-64.6
54.265,-61.9
54.281,-54.95
54.296,-44.15
54.312,-30.7
54.328,-16.23
54.343,-2.33
54.359,9.74
54.375,19.33
54.390,26.39
54.406,31.26
54.421,34.4
54.437,36.28
54.453,37.18
54.468,37.3
54.484,36.83
54.500,35.97
54.515,34.92
54.531,33.85
54.546,32.84
54.562,31.87
54.578,30.89
54.593,29.81
54.609,28.59
54.625,27.25
54.640,25.82
54.656,24.28
54.671,22.57
54.687,20.55
54.703,18.09
54.718,15.11
54.734,11.64
54.750,7.79
54.765,3.73
54.781,-0.4
54.796,-4.55
54.812,-8.76
54.828,-13.06
54.843,-17.45
54.859,-21.77
54.875,-25.8
54.890,-29.35
54.906,-32.36
54.921,-34.99
54.937,-37.54
54.953,-40.4
54.968,-43.92
54.984,-48.27
55.000,-53.35
55.015,-58.68
55.031,-63.39
55.046,-66.3
55.062,-66.22
55.078,-62.33
55.093,-54.47
55.109,-43.38
55.125,-30.36
55.140,-16.98
55.156,-4.58
55.171,6.03
55.187,14.64
55.203,21.36
55.218,26.44
55.234,30.05
55.250,32.28
55.265,33.3
55.281,33.37
55.296,32.87
55.312,32.16
55.328,31.47
55.343,30.82
55.359,30.09
55.375,29.16
55.390,27.97
55.406,26.59
55.421,25.12
55.437,23.61
55.453,21.99
55.468,20.13
55.484,17.91
55.500,15.33
55.515,12.47
55.531,9.49
55.546,6.52
55.562,3.64
55.578,0.89
55.593,-1.77
55.609,-4.41
55.625,-7.16
55.640,-10.24
55.656,-13.77
55.671,-17.73
55.687,-21.9
55.703,-25.89
55.718,-29.37
55.734,-32.21
55.750,-34.6
55.765,-37.0
55.781,-39.93
55.796,-43.71
55.812,-48.2
55.828,-52.81
55.843,-56.46
55.859,-57.93
55.875,-56.23
55.890,-50.89
55.906,-42.14
55.921,-30.89
55.937,-18.4
55.953,-6.0
55.968,5.28
55.984,14.85
56.000,22.5
56.015,28.27
56.031,32.33
56.046,34.86
56.062,36.06
56.078,36.17
56.093,35.48
56.109,34.33
56.125,33.05
56.140,31.88
56.156,30.96
56.171,30.32
56.187,29.88
56.203,29.53
56.218,29.1
56.234,28.48
56.250,27.52
56.265,26.15
56.281,24.29
56.296,21.88
56.312,19.0
56.328,15.73
56.343,12.24
56.359,8.71
56.375,5.29
56.390,2.09
56.406,-0.88
56.421,-3.68
56.437,-6.47
56.453,-9.37
56.468,-12.49
56.484,-15.85
56.500,-19.33
56.515,-22.76
56.531,-25.99
56.546,-28.99
56.562,-31.9
56.578,-34.95
56.593,-38.4
56.609,-42.29
56.625,-46.35
56.640,-49.81
56.656,-51.67
56.671,-50.87
56.687,-46.68
56.703,-38.99
56.718,-28.4
56.734,-16.06
56.750,-3.42
56.765,8.27
56.781,18.2
56.796,26.05
56.812,31.94
56.828,36.15
56.843,38.96
56.859,40.55
56.875,41.08
56.890,40.79
56.906,40.03
56.921,39.18
56.937,38.51
56.953,38.06
56.968,37.73
56.984,37.26
57.000,36.51
57.015,35.45
57.031,34.23
57.046,32.96
57.062,31.75
57.078,30.46
57.093,28.89
57.109,26.81
57.125,24.05
57.140,20.65
57.156,16.76
57.171,12.68
57.187,8.73
57.203,5.12
57.218,1.9
57.234,-1.11
57.250,-4.21
57.265,-7.67
57.281,-11.61
57.296,-15.9
57.312,-20.25
57.328,-24.31
57.343,-27.84
57.359,-30.86
57.375,-33.66
57.390,-36.65
57.406,-40.25
57.421,-44.63
57.437,-49.57
57.453,-54.39
57.468,-58.08
57.484,-59.48
57.500,-57.66
57.515,-52.2
57.531,-43.34
57.546,-32.02
57.562,-19.55
57.578,-7.24
57.593,3.84
57.609,13.16
57.625,20.56
57.640,26.23
57.656,30.39
57.671,33.26
57.687,34.99
57.703,35.74
57.718,35.7
57.734,35.02
57.750,33.96
57.765,32.69
57.781,31.38
57.796,30.12
57.812,28.95
57.828,27.83
57.843,26.73
57.859,25.59
57.875,24.32
57.890,22.82
57.906,20.96
57.921,18.61
57.937,15.63
57.953,12.0
57.968,7.87
57.984,3.49
58.000,-0.79
58.015,-4.68
58.031,-8.08
58.046,-11.1
58.062,-13.97
58.078,-16.97
58.093,-20.27
58.109,-23.81
58.125,-27.42
58.140,-30.84
58.156,-33.94
58.171,-36.72
58.187,-39.36
58.203,-42.08
58.218,-45.13
58.234,-48.64
58.250,-52.6
58.265,-56.8
58.281,-60.77
58.296,-63.78
58.312,-64.89
58.328,-63.22
58.343,-58.21
58.359,-49.88
58.375,-38.93
58.390,-26.55
58.406,-14.09
58.421,-2.64
58.437,7.1
58.453,14.91
58.468,20.88
58.484,25.2
58.500,28.05
58.515,29.63
58.531,30.18
58.546,30.04
58.562,29.59
58.578,29.12
58.593,28.78
58.609,28.51
58.625,28.19
58.640,27.69
58.656,27.03
58.671,26.29
58.687,25.56
58.703,24.87
58.718,24.09
58.734,23.02
58.750,21.47
58.765,19.33
58.781,16.68
58.796,13.71
58.812,10.63
58.828,7.62
58.843,4.74
58.859,1.95
58.875,-0.89
58.890,-3.91
58.906,-7.18
58.921,-10.68
58.937,-14.23
58.953,-17.64
58.968,-20.76
58.984,-23.51
59.000,-25.99
59.015,-28.44
59.031,-31.12
59.046,-34.26
59.062,-37.91
59.078,-41.83
59.093,-45.46
59.109,-48.01
59.125,-48.54
59.140,-46.32
59.156,-41.01
59.171,-32.79
59.187,-22.37
59.203,-10.83
59.218,0.69
59.234,11.21
59.250,20.06
59.265,26.96
59.281,31.94
59.296,35.18
59.312,36.98
59.328,37.69
59.343,37.62
59.359,37.13
59.375,36.5
59.390,35.95
59.406,35.55
59.421,35.26
59.437,34.91
59.453,34.33
59.468,33.49
59.484,32.46
59.500,31.42
59.515,30.5
59.531,29.67
59.546,28.67
59.562,27.19
59.578,24.92
59.593,21.79
59.609,17.94
59.625,13.69
59.640,9.43
59.656,5.45
59.671,1.87
59.687,-1.35
59.703,-4.39
59.718,-7.47
59.734,-10.71
59.750,-14.18
59.765,-17.77
59.781,-21.33
59.796,-24.65
59.812,-27.68
59.828,-30.4
59.843,-32.96
59.859,-35.59
59.875,-38.54
59.890,-42.0
59.906,-46.04
59.921,-50.4
59.937,-54.44
59.953,-57.19
59.968,-57.5
59.984,-54.51
