timestamp,value
00.000,-24.64
00.015,-26.86
00.031,-28.73
00.046,-30.52
00.062,-32.51
00.078,-34.95
00.093,-37.82
00.109,-40.8
00.125,-43.18
00.140,-44.08
00.156,-42.77
00.171,-38.87
00.187,-32.51
00.203,-24.22
00.218,-14.78
00.234,-5.0
00.250,4.44
00.265,13.02
00.281,20.41
00.296,26.41
00.312,30.98
00.328,34.25
00.343,36.46
00.359,37.91
00.375,38.85
00.390,39.41
00.406,39.66
00.421,39.63
00.437,39.41
00.453,39.13
00.468,38.9
00.484,38.71
00.500,38.44
00.515,37.87
00.531,36.9
00.546,35.58
00.562,34.21
00.578,33.11
00.593,32.54
00.609,32.52
00.625,32.77
00.640,32.91
00.656,32.49
00.671,31.26
00.687,29.15
00.703,26.3
00.718,22.97
00.734,19.36
00.750,15.64
00.765,11.79
00.781,7.73
00.796,3.33
00.812,-1.49
00.828,-6.75
00.843,-12.34
00.859,-17.98
00.875,-23.31
00.890,-27.8
00.906,-30.85
00.921,-31.91
00.937,-30.68
00.953,-27.26
00.968,-22.23
00.984,-16.5
01.000,-11.0
01.015,-6.38
01.031,-2.76
01.046,0.16
01.062,2.85
01.078,5.66
01.093,8.57
01.109,11.22
01.125,13.11
01.140,13.89
01.156,13.53
01.171,12.34
01.187,10.87
01.203,9.65
01.218,8.97
01.234,8.85
01.250,9.05
01.265,9.23
01.281,9.13
01.296,8.68
01.312,8.02
01.328,7.33
01.343,6.72
01.359,6.14
01.375,5.43
01.390,4.36
01.406,2.83
01.421,0.91
01.437,-1.2
01.453,-3.25
01.468,-5.04
01.484,-6.51
01.500,-7.74
01.515,-8.92
01.531,-10.29
01.546,-12.01
01.562,-14.16
01.578,-16.65
01.593,-19.21
01.609,-21.49
01.625,-22.99
01.640,-23.31
01.656,-22.07
01.671,-19.01
01.687,-14.06
01.703,-7.31
01.718,1.0
01.734,10.48
01.750,20.63
01.765,30.87
01.781,40.62
01.796,49.36
01.812,56.72
01.828,62.65
01.843,67.36
01.859,71.3
01.875,74.98
01.890,78.77
01.906,82.81
01.921,87.01
01.937,91.13
01.953,94.96
01.968,98.35
01.984,101.31
02.000,104.01
02.015,106.8
02.031,110.17
02.046,114.49
02.062,119.54
02.078,124.07
02.093,125.74
02.109,121.43
02.125,108.3
02.140,84.85
02.156,51.7
02.171,11.67
02.187,-30.98
02.203,-71.7
02.218,-106.88
02.234,-134.45
02.250,-154.05
02.265,-166.58
02.281,-173.68
02.296,-177.2
02.312,-178.85
02.328,-179.9
02.343,-180.91
02.359,-181.8
02.375,-181.86
02.390,-180.15
02.406,-175.82
02.421,-168.41
02.437,-157.92
02.453,-144.77
02.468,-129.62
02.484,-113.23
02.500,-96.35
02.515,-79.7
02.531,-63.85
02.546,-49.19
02.562,-35.84
02.578,-23.68
02.593,-12.54
02.609,-2.34
02.625,6.8
02.640,14.58
02.656,20.73
02.671,25.14
02.687,27.99
02.703,29.71
02.718,30.8
02.734,31.69
02.750,32.68
02.765,33.9
02.781,35.35
02.796,37.0
02.812,38.8
02.828,40.68
02.843,42.55
02.859,44.25
02.875,45.57
02.890,46.3
02.906,46.33
02.921,45.7
02.937,44.67
02.953,43.55
02.968,42.61
02.984,41.87
03.000,41.11
03.015,39.95
03.031,38.13
03.046,35.65
03.062,32.88
03.078,30.38
03.093,28.64
03.109,27.81
03.125,27.56
03.140,27.23
03.156,26.07
03.171,23.64
03.187,19.99
03.203,15.7
03.218,11.74
03.234,9.16
03.250,8.97
03.265,11.87
03.281,18.12
03.296,27.24
03.312,37.79
03.328,47.31
03.343,52.78
03.359,51.34
03.375,41.34
03.390,23.11
03.406,-0.81
03.421,-26.4
03.437,-49.39
03.453,-66.52
03.468,-76.43
03.484,-79.54
03.500,-77.47
03.515,-72.09
03.531,-64.81
03.546,-56.44
03.562,-47.41
03.578,-38.11
03.593,-29.15
03.609,-21.22
03.625,-14.81
03.640,-9.88
03.656,-5.92
03.671,-2.15
03.687,2.0
03.703,6.57
03.718,11.0
03.734,14.3
03.750,15.4
03.765,13.53
03.781,8.48
03.796,0.69
03.812,-8.78
03.828,-18.55
03.843,-27.18
03.859,-33.62
03.875,-37.52
03.890,-39.26
03.906,-39.69
03.921,-39.78
03.937,-40.19
03.953,-41.12
03.968,-42.46
03.984,-44.06
04.000,-45.92
04.015,-48.19
04.031,-50.82
04.046,-53.37
04.062,-55.0
04.078,-54.65
04.093,-51.54
04.109,-45.48
04.125,-36.98
04.140,-27.01
04.156,-16.69
04.171,-6.97
04.187,1.55
04.203,8.64
04.218,14.34
04.234,18.87
04.250,22.6
04.265,25.91
04.281,29.12
04.296,32.42
04.312,35.81
04.328,39.11
04.343,42.15
04.359,44.87
04.375,47.41
04.390,50.1
04.406,53.34
04.421,57.41
04.437,62.32
04.453,67.71
04.468,73.0
04.484,77.46
04.500,80.5
04.515,81.77
04.531,81.34
04.546,79.71
04.562,77.75
04.578,76.37
04.593,76.11
04.609,76.61
04.625,76.37
04.640,73.07
04.656,64.24
04.671,48.44
04.687,26.09
04.703,-0.35
04.718,-27.0
04.734,-49.9
04.750,-66.31
04.765,-75.49
04.781,-78.65
04.796,-78.21
04.812,-76.73
04.828,-76.1
04.843,-77.14
04.859,-79.64
04.875,-82.72
04.890,-85.25
04.906,-86.12
04.921,-84.43
04.937,-79.59
04.953,-71.5
04.968,-60.69
04.984,-48.41
05.000,-36.45
05.015,-26.75
05.031,-20.83
05.046,-19.31
05.062,-21.69
05.078,-26.54
05.093,-31.91
05.109,-35.89
05.125,-37.16
05.140,-35.16
05.156,-30.17
05.171,-23.09
05.187,-15.08
05.203,-7.28
05.218,-0.4
05.234,5.28
05.250,9.94
05.265,13.93
05.281,17.52
05.296,20.75
05.312,23.47
05.328,25.48
05.343,26.63
05.359,26.92
05.375,26.47
05.390,25.44
05.406,23.94
05.421,22.08
05.437,19.96
05.453,17.63
05.468,15.1
05.484,12.34
05.500,9.33
05.515,6.1
05.531,2.81
05.546,-0.26
05.562,-2.78
05.578,-4.46
05.593,-5.26
05.609,-5.41
05.625,-5.4
05.640,-5.83
05.656,-7.2
05.671,-9.79
05.687,-13.48
05.703,-17.76
05.718,-21.78
05.734,-24.51
05.750,-24.99
05.765,-22.48
05.781,-16.7
05.796,-7.9
05.812,3.18
05.828,15.42
05.843,27.56
05.859,38.5
05.875,47.58
05.890,54.72
05.906,60.45
05.921,65.6
05.937,70.95
05.953,76.68
05.968,82.12
05.984,85.85
06.000,86.12
06.015,81.53
06.031,71.48
06.046,56.52
06.062,38.26
06.078,18.97
06.093,1.03
06.109,-13.58
06.125,-23.69
06.140,-29.05
06.156,-30.25
06.171,-28.37
06.187,-24.66
06.203,-20.17
06.218,-15.64
06.234,-11.48
06.250,-7.95
06.265,-5.22
06.281,-3.41
06.296,-2.52
06.312,-2.33
06.328,-2.45
06.343,-2.43
06.359,-2.02
06.375,-1.33
06.390,-0.89
06.406,-1.45
06.421,-3.78
06.437,-8.38
06.453,-15.32
06.468,-24.25
06.484,-34.51
06.500,-45.22
06.515,-55.41
06.531,-64.11
06.546,-70.43
06.562,-73.67
06.578,-73.46
06.593,-69.87
06.609,-63.32
06.625,-54.53
06.640,-44.23
06.656,-33.13
06.671,-21.81
06.687,-10.8
06.703,-0.59
06.718,8.3
06.734,15.48
06.750,20.77
06.765,24.29
06.781,26.48
06.796,27.97
06.812,29.39
06.828,31.16
06.843,33.38
06.859,35.85
06.875,38.21
06.890,40.13
06.906,41.59
06.921,42.83
06.937,44.29
06.953,46.41
06.968,49.38
06.984,53.02
07.000,56.81
07.015,60.12
07.031,62.42
07.046,63.52
07.062,63.64
07.078,63.26
07.093,63.01
07.109,63.33
07.125,64.35
07.140,65.86
07.156,67.43
07.171,68.58
07.187,68.92
07.203,68.31
07.218,66.8
07.234,64.82
07.250,62.99
07.265,61.97
07.281,62.05
07.296,62.64
07.312,62.02
07.328,57.47
07.343,46.14
07.359,26.1
07.375,-2.63
07.390,-37.74
07.406,-75.07
07.421,-109.73
07.437,-137.46
07.453,-155.53
07.468,-163.18
07.484,-161.35
07.500,-152.12
07.515,-137.99
07.531,-121.4
07.546,-104.36
07.562,-88.39
07.578,-74.46
07.593,-63.03
07.609,-53.97
07.625,-46.68
07.640,-40.26
07.656,-33.77
07.671,-26.65
07.687,-18.98
07.703,-11.55
07.718,-5.59
07.734,-2.29
07.750,-2.26
07.765,-5.18
07.781,-9.82
07.796,-14.43
07.812,-17.41
07.828,-17.83
07.843,-15.77
07.859,-12.19
07.875,-8.5
07.890,-5.96
07.906,-5.15
07.921,-5.95
07.937,-7.62
07.953,-9.34
07.968,-10.54
07.984,-11.11
08.000,-11.34
08.015,-11.65
08.031,-12.46
08.046,-13.96
08.062,-16.19
08.078,-18.97
08.093,-22.03
08.109,-24.95
08.125,-27.15
08.140,-27.99
08.156,-26.87
08.171,-23.39
08.187,-17.49
08.203,-9.54
08.218,-0.25
08.234,9.5
08.250,18.87
08.265,27.27
08.281,34.34
08.296,40.01
08.312,44.28
08.328,47.23
08.343,49.0
08.359,49.82
08.375,50.01
08.390,49.97
08.406,50.08
08.421,50.6
08.437,51.62
08.453,53.05
08.468,54.65
08.484,56.06
08.500,56.95
08.515,57.11
08.531,56.6
08.546,55.68
08.562,54.72
08.578,53.83
08.593,52.69
08.609,50.5
08.625,46.24
08.640,39.12
08.656,28.89
08.671,16.0
08.687,1.44
08.703,-13.59
08.718,-27.93
08.734,-40.73
08.750,-51.48
08.765,-59.96
08.781,-66.25
08.796,-70.64
08.812,-73.52
08.828,-75.34
08.843,-76.4
08.859,-76.81
08.875,-76.39
08.890,-74.64
08.906,-70.96
08.921,-64.83
08.937,-56.07
08.953,-45.04
08.968,-32.6
08.984,-19.91
09.000,-8.05
09.015,2.17
09.031,10.42
09.046,16.68
09.062,21.14
09.078,24.04
09.093,25.66
09.109,26.35
09.125,26.44
09.140,26.08
09.156,25.16
09.171,23.16
09.187,19.4
09.203,13.39
09.218,5.2
09.234,-4.29
09.250,-13.62
09.265,-21.17
09.281,-25.75
09.296,-26.99
09.312,-25.43
09.328,-22.19
09.343,-18.51
09.359,-15.34
09.375,-13.08
09.390,-11.67
09.406,-10.75
09.421,-10.01
09.437,-9.28
09.453,-8.58
09.468,-8.01
09.484,-7.7
09.500,-7.68
09.515,-7.99
09.531,-8.75
09.546,-10.12
09.562,-12.26
09.578,-15.07
09.593,-18.08
09.609,-20.31
09.625,-20.48
09.640,-17.44
09.656,-10.58
09.671,-0.19
09.687,12.63
09.703,26.24
09.718,39.09
09.734,50.1
09.750,58.9
09.765,65.62
09.781,70.61
09.796,74.17
09.812,76.56
09.828,78.06
09.843,79.06
09.859,79.82
09.875,80.22
09.890,79.43
09.906,76.04
09.921,68.58
09.937,56.3
09.953,39.73
09.968,20.75
09.984,1.96
10.000,-14.22
10.015,-26.28
10.031,-33.89
10.046,-37.6
10.062,-38.31
10.078,-36.8
10.093,-33.68
10.109,-29.6
10.125,-25.36
10.140,-21.94
10.156,-20.13
10.171,-20.15
10.187,-21.38
10.203,-22.58
10.218,-22.39
10.234,-19.95
10.250,-15.32
10.265,-9.41
10.281,-3.52
10.296,1.22
10.312,4.32
10.328,6.02
10.343,7.02
10.359,8.01
10.375,9.32
10.390,10.86
10.406,12.27
10.421,13.21
10.437,13.57
10.453,13.51
10.468,13.3
10.484,13.06
10.500,12.79
10.515,12.34
10.531,11.62
10.546,10.7
10.562,9.77
10.578,9.07
10.593,8.66
10.609,8.4
10.625,7.98
10.640,7.15
10.656,5.85
10.671,4.27
10.687,2.73
10.703,1.54
10.718,0.78
10.734,0.35
10.750,-0.01
10.765,-0.46
10.781,-1.04
10.796,-1.6
10.812,-1.97
10.828,-2.05
10.843,-1.97
10.859,-2.09
10.875,-2.82
10.890,-4.45
10.906,-6.93
10.921,-9.84
10.937,-12.56
10.953,-14.47
10.968,-15.24
10.984,-14.98
11.000,-14.26
11.015,-13.91
11.031,-14.7
11.046,-17.05
11.062,-20.76
11.078,-25.04
11.093,-28.73
11.109,-30.59
11.125,-29.77
11.140,-25.94
11.156,-19.33
11.171,-10.57
11.187,-0.42
11.203,10.38
11.218,21.3
11.234,32.0
11.250,42.29
11.265,51.92
11.281,60.43
11.296,66.94
11.312,70.02
11.328,67.98
11.343,59.36
11.359,43.57
11.375,21.5
11.390,-4.39
11.406,-30.57
11.421,-53.28
11.437,-69.59
11.453,-78.06
11.468,-78.98
11.484,-73.89
11.500,-64.87
11.515,-53.87
11.531,-42.25
11.546,-30.88
11.562,-20.35
11.578,-11.37
11.593,-4.88
11.609,-1.95
11.625,-3.39
11.640,-9.35
11.656,-19.08
11.671,-30.9
11.687,-42.65
11.703,-52.15
11.718,-57.94
11.734,-59.57
11.750,-57.73
11.765,-53.8
11.781,-49.3
11.796,-45.3
11.812,-42.11
11.828,-39.45
11.843,-36.79
11.859,-33.69
11.875,-29.87
11.890,-25.08
11.906,-18.89
11.921,-10.76
11.937,-0.35
11.953,12.06
11.968,25.46
11.984,38.31
12.000,49.19
12.015,57.5
12.031,63.8
12.046,69.5
12.062,76.16
12.078,84.57
12.093,94.17
12.109,103.06
12.125,108.63
12.140,108.65
12.156,102.19
12.171,90.02
12.187,74.35
12.203,57.99
12.218,43.39
12.234,31.85
12.250,23.38
12.265,17.03
12.281,11.51
12.296,5.67
12.312,-1.25
12.328,-9.68
12.343,-19.76
12.359,-31.31
12.375,-43.67
12.390,-55.43
12.406,-64.71
12.421,-69.7
12.437,-69.59
12.453,-65.46
12.468,-60.48
12.484,-59.23
12.500,-66.19
12.515,-84.06
12.531,-112.52
12.546,-148.04
12.562,-184.83
12.578,-216.42
12.593,-237.34
12.609,-244.31
12.625,-236.76
12.640,-216.5
12.656,-187.06
12.671,-152.76
12.687,-117.87
12.703,-85.83
12.718,-58.79
12.734,-37.41
12.750,-21.09
12.765,-8.47
12.781,1.8
12.796,10.56
12.812,17.93
12.828,23.41
12.843,26.39
12.859,26.64
12.875,24.62
12.890,21.48
12.906,18.71
12.921,17.6
12.937,18.86
12.953,22.58
12.968,28.32
12.984,35.49
13.000,43.61
13.015,52.42
13.031,61.8
13.046,71.52
13.062,81.3
13.078,90.54
13.093,98.58
13.109,104.74
13.125,108.44
13.140,109.17
13.156,106.59
13.171,100.73
13.187,92.29
13.203,82.93
13.218,75.06
13.234,71.41
13.250,74.02
13.265,83.2
13.281,97.08
13.296,111.94
13.312,123.44
13.328,128.27
13.343,125.52
13.359,116.9
13.375,105.92
13.390,96.22
13.406,90.04
13.421,87.48
13.437,86.89
13.453,85.97
13.468,82.97
13.484,77.27
13.500,69.23
13.515,59.39
13.531,47.9
13.546,34.12
13.562,17.36
13.578,-2.61
13.593,-24.9
13.609,-47.49
13.625,-67.86
13.640,-83.85
13.656,-94.42
13.671,-99.88
13.687,-101.61
13.703,-101.31
13.718,-100.41
13.734,-99.54
13.750,-98.44
13.765,-96.32
13.781,-92.29
13.796,-85.9
13.812,-77.51
13.828,-68.24
13.843,-59.64
13.859,-53.2
13.875,-49.84
13.890,-49.7
13.906,-52.16
13.921,-56.04
13.937,-59.94
13.953,-62.36
13.968,-61.88
13.984,-57.36
14.000,-48.14
14.015,-34.32
14.031,-16.85
14.046,2.73
14.062,22.74
14.078,41.8
14.093,59.16
14.109,74.51
14.125,87.71
14.140,98.55
14.156,106.69
14.171,111.92
14.187,114.46
14.203,114.96
14.218,114.3
14.234,113.25
14.250,112.15
14.265,110.9
14.281,109.11
14.296,106.39
14.312,102.55
14.328,97.62
14.343,91.71
14.359,84.85
14.375,76.95
14.390,67.85
14.406,57.49
14.421,46.1
14.437,34.21
14.453,22.57
14.468,12.08
14.484,3.45
14.500,-2.92
14.515,-7.04
14.531,-9.41
14.546,-10.82
14.562,-12.12
14.578,-13.98
14.593,-16.72
14.609,-20.23
14.625,-24.07
14.640,-27.66
14.656,-30.47
14.671,-32.11
14.687,-32.37
14.703,-31.17
14.718,-28.59
14.734,-24.83
14.750,-20.23
14.765,-15.31
14.781,-10.54
14.796,-6.27
14.812,-2.64
14.828,0.43
14.843,3.06
14.859,5.22
14.875,6.7
14.890,7.18
14.906,6.45
14.921,4.57
14.937,1.95
14.953,-0.86
14.968,-3.38
14.984,-5.36
15.000,-6.83
15.015,-7.92
15.031,-8.69
15.046,-9.13
15.062,-9.15
15.078,-8.75
15.093,-8.16
15.109,-7.85
15.125,-8.3
15.140,-9.88
15.156,-12.56
15.171,-16.02
15.187,-19.77
15.203,-23.39
15.218,-26.78
15.234,-30.12
15.250,-33.78
15.265,-38.07
15.281,-43.07
15.296,-48.55
15.312,-54.08
15.328,-59.16
15.343,-63.27
15.359,-66.04
15.375,-67.2
15.390,-66.58
15.406,-64.23
15.421,-60.33
15.437,-55.22
15.453,-49.34
15.468,-43.1
15.484,-36.87
15.500,-30.9
15.515,-25.44
15.531,-20.68
15.546,-16.8
15.562,-13.85
15.578,-11.63
15.593,-9.68
15.609,-7.33
15.625,-3.86
15.640,1.39
15.656,8.91
15.671,18.95
15.687,31.51
15.703,46.22
15.718,62.27
15.734,78.43
15.750,93.23
15.765,105.23
15.781,113.39
15.796,117.35
15.812,117.37
15.828,114.18
15.843,108.66
15.859,101.66
15.875,93.93
15.890,86.16
15.906,78.95
15.921,72.67
15.937,67.3
15.953,62.27
15.968,56.58
15.984,49.08
16.000,38.86
16.015,25.54
16.031,9.46
16.046,-8.43
16.062,-26.66
16.078,-43.62
16.093,-57.77
16.109,-67.99
16.125,-73.76
16.140,-75.29
16.156,-73.45
16.171,-69.42
16.187,-64.36
16.203,-58.88
16.218,-52.97
16.234,-46.06
16.250,-37.47
16.265,-26.85
16.281,-14.54
16.296,-1.49
16.312,10.91
16.328,21.33
16.343,28.82
16.359,33.01
16.375,34.16
16.390,32.99
16.406,30.45
16.421,27.45
16.437,24.62
16.453,22.19
16.468,19.9
16.484,17.29
16.500,13.95
16.515,9.9
16.531,5.55
16.546,1.57
16.562,-1.53
16.578,-3.72
16.593,-5.44
16.609,-7.44
16.625,-10.41
16.640,-14.73
16.656,-20.34
16.671,-26.96
16.687,-34.26
16.703,-42.09
16.718,-50.39
16.734,-59.09
16.750,-67.94
16.765,-76.28
16.781,-83.16
16.796,-87.52
16.812,-88.55
16.828,-85.94
16.843,-80.09
16.859,-71.91
16.875,-62.56
16.890,-53.03
16.906,-43.95
16.921,-35.43
16.937,-27.35
16.953,-19.58
16.968,-12.18
16.984,-5.4
17.000,0.43
17.015,5.13
17.031,8.67
17.046,11.19
17.062,12.89
17.078,13.94
17.093,14.45
17.109,14.56
17.125,14.45
17.140,14.35
17.156,14.44
17.171,14.82
17.187,15.49
17.203,16.37
17.218,17.38
17.234,18.4
17.250,19.3
17.265,19.85
17.281,19.8
17.296,18.95
17.312,17.29
17.328,15.04
17.343,12.53
17.359,10.05
17.375,7.62
17.390,5.04
17.406,1.96
17.421,-1.89
17.437,-6.52
17.453,-11.69
17.468,-16.84
17.484,-21.27
17.500,-24.23
17.515,-25.01
17.531,-23.11
17.546,-18.46
17.562,-11.59
17.578,-3.55
17.593,4.26
17.609,10.59
17.625,14.72
17.640,16.72
17.656,17.33
17.671,17.52
17.687,18.04
17.703,19.08
17.718,20.36
17.734,21.4
17.750,21.91
17.765,21.98
17.781,21.97
17.796,22.3
17.812,23.14
17.828,24.38
17.843,25.65
17.859,26.58
17.875,26.88
17.890,26.43
17.906,25.16
17.921,22.98
17.937,19.8
17.953,15.7
17.968,11.01
17.984,6.4
18.000,2.53
18.015,-0.24
18.031,-2.13
18.046,-3.85
18.062,-6.25
18.078,-9.89
18.093,-14.63
18.109,-19.72
18.125,-24.08
18.140,-26.87
18.156,-27.9
18.171,-27.75
18.187,-27.68
18.203,-29.2
18.218,-33.66
18.234,-41.75
18.250,-53.15
18.265,-66.4
18.281,-79.19
18.296,-88.99
18.312,-93.85
18.328,-93.05
18.343,-87.1
18.359,-77.31
18.375,-65.07
18.390,-51.37
18.406,-36.72
18.421,-21.53
18.437,-6.46
18.453,7.45
18.468,19.1
18.484,27.78
18.500,33.5
18.515,36.93
18.531,38.99
18.546,40.56
18.562,42.26
18.578,44.79
18.593,49.0
18.609,55.74
18.625,65.29
18.640,76.72
18.656,87.69
18.671,95.12
18.687,96.41
18.703,90.6
18.718,78.8
18.734,63.45
18.750,47.06
18.765,31.11
18.781,15.77
18.796,0.79
18.812,-13.56
18.828,-25.91
18.843,-34.49
18.859,-38.4
18.875,-38.51
18.890,-37.47
18.906,-38.42
18.921,-43.25
18.937,-51.54
18.953,-60.79
18.968,-67.89
18.984,-70.99
19.000,-70.77
19.015,-70.15
19.031,-72.96
19.046,-81.73
19.062,-96.2
19.078,-113.03
19.093,-127.07
19.109,-133.39
19.125,-129.37
19.140,-115.56
19.156,-95.15
19.171,-72.48
19.187,-51.16
19.203,-33.17
19.218,-18.9
19.234,-7.99
19.250,-0.1
19.265,4.8
19.281,6.79
19.296,6.58
19.312,5.6
19.328,5.61
19.343,7.82
19.359,12.23
19.375,17.61
19.390,22.13
19.406,24.24
19.421,23.27
19.437,19.53
19.453,13.86
19.468,7.05
19.484,-0.45
19.500,-8.43
19.515,-16.55
19.531,-24.12
19.546,-29.98
19.562,-32.91
19.578,-32.05
19.593,-27.28
19.609,-19.36
19.625,-9.73
19.640,-0.07
19.656,8.14
19.671,14.05
19.687,17.64
19.703,19.6
19.718,21.01
19.734,22.9
19.750,25.8
19.765,29.59
19.781,33.64
19.796,37.19
19.812,39.65
19.828,40.9
19.843,41.11
19.859,40.54
19.875,39.35
19.890,37.48
19.906,34.87
19.921,31.6
19.937,27.91
19.953,24.07
19.968,20.1
19.984,15.69
20.000,10.32
20.015,3.76
20.031,-3.62
20.046,-10.69
20.062,-16.0
20.078,-18.38
20.093,-17.57
20.109,-14.41
20.125,-10.44
20.140,-7.2
20.156,-5.6
20.171,-5.7
20.187,-6.97
20.203,-8.8
20.218,-10.94
20.234,-13.56
20.250,-16.96
20.265,-21.28
20.281,-26.25
20.296,-31.34
20.312,-36.01
20.328,-39.96
20.343,-43.28
20.359,-46.35
20.375,-49.58
20.390,-53.23
20.406,-57.25
20.421,-61.27
20.437,-64.63
20.453,-66.51
20.468,-66.1
20.484,-62.88
20.500,-56.76
20.515,-48.13
20.531,-37.81
20.546,-26.75
20.562,-15.77
20.578,-5.45
20.593,3.95
20.609,12.31
20.625,19.51
20.640,25.4
20.656,29.85
20.671,32.82
20.687,34.5
20.703,35.29
20.718,35.68
20.734,36.16
20.750,36.9
20.765,37.8
20.781,38.55
20.796,38.76
20.812,38.25
20.828,37.12
20.843,35.76
20.859,34.61
20.875,33.89
20.890,33.47
20.906,32.89
20.921,31.61
20.937,29.35
20.953,26.28
20.968,22.9
20.984,19.82
21.000,17.35
21.015,15.39
21.031,13.41
21.046,10.81
21.062,7.24
21.078,2.69
21.093,-2.51
21.109,-7.87
21.125,-12.92
21.140,-17.16
21.156,-19.95
21.171,-20.54
21.187,-18.3
21.203,-13.26
21.218,-6.5
21.234,0.02
21.250,4.09
21.265,4.13
21.281,-0.11
21.296,-7.44
21.312,-15.87
21.328,-23.5
21.343,-29.15
21.359,-32.57
21.375,-34.01
21.390,-33.79
21.406,-32.0
21.421,-28.61
21.437,-23.81
21.453,-18.16
21.468,-12.53
21.484,-7.7
21.500,-4.0
21.515,-1.13
21.531,1.58
21.546,4.8
21.562,8.85
21.578,13.49
21.593,18.05
21.609,21.78
21.625,24.2
21.640,25.24
21.656,25.25
21.671,24.73
21.687,24.09
21.703,23.5
21.718,22.8
21.734,21.62
21.750,19.52
21.765,16.17
21.781,11.48
21.796,5.64
21.812,-0.82
21.828,-7.11
21.843,-12.31
21.859,-15.56
21.875,-16.27
21.890,-14.26
21.906,-9.8
21.921,-3.44
21.937,4.09
21.953,12.1
21.968,19.97
21.984,27.22
22.000,33.42
22.015,38.28
22.031,41.67
22.046,43.62
22.062,44.37
22.078,44.26
22.093,43.61
22.109,42.63
22.125,41.38
22.140,39.83
22.156,37.95
22.171,35.79
22.187,33.48
22.203,31.25
22.218,29.27
22.234,27.64
22.250,26.34
22.265,25.2
22.281,24.0
22.296,22.52
22.312,20.64
22.328,18.35
22.343,15.72
22.359,12.83
22.375,9.77
22.390,6.52
22.406,3.07
22.421,-0.58
22.437,-4.42
22.453,-8.41
22.468,-12.6
22.484,-17.11
22.500,-22.04
22.515,-27.32
22.531,-32.58
22.546,-37.13
22.562,-40.08
22.578,-40.63
22.593,-38.3
22.609,-33.15
22.625,-25.74
22.640,-16.97
22.656,-7.82
22.671,0.85
22.687,8.51
22.703,14.9
22.718,19.96
22.734,23.72
22.750,26.23
22.765,27.59
22.781,28.03
22.796,27.84
22.812,27.45
22.828,27.21
22.843,27.3
22.859,27.66
22.875,28.03
22.890,28.07
22.906,27.59
22.921,26.6
22.937,25.35
22.953,24.15
22.968,23.25
22.984,22.67
23.000,22.19
23.015,21.47
23.031,20.27
23.046,18.54
23.062,16.46
23.078,14.31
23.093,12.3
23.109,10.5
23.125,8.75
23.140,6.78
23.156,4.38
23.171,1.43
23.187,-1.96
23.203,-5.52
23.218,-8.79
23.234,-11.24
23.250,-12.36
23.265,-11.72
23.281,-9.05
23.296,-4.33
23.312,2.31
23.328,10.5
23.343,19.73
23.359,29.43
23.375,38.98
23.390,47.91
23.406,55.81
23.421,62.45
23.437,67.67
23.453,71.33
23.468,73.44
23.484,74.06
23.500,73.38
23.515,71.63
23.531,69.04
23.546,65.78
23.562,61.99
23.578,57.87
23.593,53.75
23.609,49.97
23.625,46.91
23.640,44.77
23.656,43.55
23.671,43.12
23.687,43.33
23.703,44.11
23.718,45.49
23.734,47.5
23.750,50.11
23.765,53.23
23.781,56.62
23.796,59.99
23.812,63.05
23.828,65.51
23.843,67.22
23.859,68.22
23.875,68.82
23.890,69.64
23.906,71.41
23.921,74.88
23.937,80.39
23.953,87.73
23.968,96.0
23.984,103.79
24.000,109.56
24.015,112.14
24.031,111.06
24.046,106.56
24.062,99.32
24.078,89.94
24.093,78.68
24.109,65.33
24.125,49.54
24.140,31.25
24.156,11.04
24.171,-9.84
24.187,-29.65
24.203,-46.57
24.218,-59.11
24.234,-66.31
24.250,-67.8
24.265,-63.88
24.281,-55.52
24.296,-44.42
24.312,-32.7
24.328,-22.47
24.343,-15.25
24.359,-11.66
24.375,-11.41
24.390,-13.65
24.406,-17.45
24.421,-22.15
24.437,-27.49
24.453,-33.42
24.468,-39.73
24.484,-45.82
24.500,-50.53
24.515,-52.61
24.531,-51.47
24.546,-47.98
24.562,-44.81
24.578,-45.89
24.593,-54.99
24.609,-74.0
24.625,-101.83
24.640,-134.39
24.656,-165.95
24.671,-191.24
24.687,-207.0
24.703,-212.65
24.718,-209.68
24.734,-200.39
24.750,-186.95
24.765,-170.97
24.781,-153.74
24.796,-136.46
24.812,-120.29
24.828,-106.04
24.843,-93.76
24.859,-82.61
24.875,-71.08
24.890,-57.54
24.906,-40.81
24.921,-20.66
24.937,2.19
24.953,26.18
24.968,49.48
24.984,70.45
25.000,87.96
25.015,101.63
25.031,111.62
25.046,118.39
25.062,122.45
25.078,124.16
25.093,123.76
25.109,121.52
25.125,117.9
25.140,113.6
25.156,109.41
25.171,105.89
25.187,102.97
25.203,99.49
25.218,93.1
25.234,80.52
25.250,58.47
25.265,25.01
25.281,-19.32
25.296,-70.84
25.312,-123.38
25.328,-169.8
25.343,-204.1
25.359,-223.07
25.375,-226.82
25.390,-218.16
25.406,-201.03
25.421,-179.12
25.437,-154.92
25.453,-129.91
25.468,-105.06
25.484,-81.37
25.500,-60.02
25.515,-42.02
25.531,-27.55
25.546,-15.84
25.562,-5.36
25.578,5.45
25.593,17.43
25.609,30.3
25.625,42.89
25.640,53.83
25.656,62.36
25.671,68.75
25.687,74.16
25.703,79.98
25.718,86.97
25.734,94.86
25.750,102.34
25.765,107.73
25.781,109.72
25.796,107.94
25.812,103.07
25.828,96.45
25.843,89.58
25.859,83.61
25.875,79.0
25.890,75.45
25.906,71.92
25.921,66.76
25.937,58.11
25.953,44.41
25.968,25.02
25.984,0.63
26.000,-26.74
26.015,-54.29
26.031,-79.2
26.046,-99.34
26.062,-113.64
26.078,-121.91
26.093,-124.4
26.109,-121.42
26.125,-113.25
26.140,-100.29
26.156,-83.33
26.171,-63.61
26.187,-42.7
26.203,-22.01
26.218,-2.43
26.234,15.97
26.250,33.96
26.265,52.77
26.281,73.55
26.296,96.45
26.312,120.12
26.328,141.53
26.343,156.67
26.359,162.04
26.375,156.13
26.390,140.35
26.406,118.54
26.421,95.52
26.437,75.22
26.453,59.67
26.468,49.34
26.484,44.21
26.500,44.56
26.515,50.75
26.531,62.0
26.546,75.29
26.562,85.48
26.578,86.92
26.593,75.96
26.609,52.7
26.625,21.09
26.640,-12.66
26.656,-42.61
26.671,-65.06
26.687,-79.41
26.703,-87.57
26.718,-92.68
26.734,-97.74
26.750,-104.78
26.765,-114.5
26.781,-126.43
26.796,-139.47
26.812,-152.48
26.828,-164.82
26.843,-176.56
26.859,-188.43
26.875,-201.44
26.890,-216.46
26.906,-233.85
26.921,-253.3
26.937,-273.61
26.953,-292.76
26.968,-308.26
26.984,-317.57
27.000,-318.84
27.015,-311.39
27.031,-295.83
27.046,-273.66
27.062,-246.72
27.078,-216.68
27.093,-184.85
27.109,-152.32
27.125,-120.13
27.140,-89.36
27.156,-61.04
27.171,-35.91
27.187,-14.17
27.203,4.44
27.218,20.46
27.234,34.43
27.250,46.57
27.265,56.88
27.281,65.2
27.296,71.52
27.312,76.18
27.328,79.81
27.343,83.16
27.359,86.75
27.375,90.73
27.390,94.77
27.406,98.26
27.421,100.51
27.437,101.08
27.453,99.96
27.468,97.55
27.484,94.5
27.500,91.45
27.515,88.85
27.531,86.81
27.546,85.16
27.562,83.51
27.578,81.49
27.593,78.87
27.609,75.63
27.625,71.99
27.640,68.34
27.656,65.09
27.671,62.42
27.687,60.29
27.703,58.29
27.718,55.87
27.734,52.52
27.750,47.98
27.765,42.35
27.781,35.98
27.796,29.41
27.812,23.29
27.828,18.3
27.843,15.03
27.859,13.81
27.875,14.38
27.890,15.76
27.906,16.36
27.921,14.54
27.937,9.33
27.953,0.96
27.968,-9.12
27.984,-18.78
28.000,-26.11
28.015,-30.07
28.031,-30.74
28.046,-28.87
28.062,-25.35
28.078,-20.64
28.093,-14.8
28.109,-7.76
28.125,0.28
28.140,8.69
28.156,16.56
28.171,23.16
28.187,28.25
28.203,32.1
28.218,35.32
28.234,38.47
28.250,41.83
28.265,45.31
28.281,48.62
28.296,51.48
28.312,53.74
28.328,55.45
28.343,56.71
28.359,57.64
28.375,58.31
28.390,58.71
28.406,58.8
28.421,58.47
28.437,57.64
28.453,56.21
28.468,54.15
28.484,51.52
28.500,48.47
28.515,45.18
28.531,41.91
28.546,38.92
28.562,36.55
28.578,35.14
28.593,34.8
28.609,35.22
28.625,35.36
28.640,33.66
28.656,28.39
28.671,18.39
28.687,3.53
28.703,-15.08
28.718,-35.41
28.734,-55.09
28.750,-71.96
28.765,-84.43
28.781,-91.54
28.796,-92.8
28.812,-88.22
28.828,-78.29
28.843,-64.09
28.859,-47.26
28.875,-29.61
28.890,-12.79
28.906,2.1
28.921,14.71
28.937,25.22
28.953,34.11
28.968,41.84
28.984,48.64
29.000,54.51
29.015,59.28
29.031,62.83
29.046,65.16
29.062,66.44
29.078,66.93
29.093,66.83
29.109,66.21
29.125,65.01
29.140,63.09
29.156,60.42
29.171,57.16
29.187,53.65
29.203,50.28
29.218,47.28
29.234,44.57
29.250,41.79
29.265,38.42
29.281,34.04
29.296,28.52
29.312,22.04
29.328,15.04
29.343,8.01
29.359,1.41
29.375,-4.42
29.390,-9.24
29.406,-12.91
29.421,-15.4
29.437,-16.81
29.453,-17.35
29.468,-17.33
29.484,-17.05
29.500,-16.66
29.515,-16.11
29.531,-15.16
29.546,-13.57
29.562,-11.42
29.578,-9.36
29.593,-8.53
29.609,-10.3
29.625,-15.69
29.640,-24.78
29.656,-36.53
29.671,-48.89
29.687,-59.44
29.703,-66.06
29.718,-67.51
29.734,-63.59
29.750,-55.04
29.765,-43.18
29.781,-29.43
29.796,-14.96
29.812,-0.44
29.828,13.86
29.843,27.75
29.859,40.83
29.875,52.18
29.890,60.48
29.906,64.48
29.921,63.59
29.937,58.23
29.953,49.85
29.968,40.36
29.984,31.59
30.000,24.85
30.015,20.93
30.031,20.38
30.046,23.5
30.062,30.22
30.078,39.6
30.093,49.6
30.109,57.34
30.125,59.97
30.140,55.89
30.156,45.47
30.171,31.09
30.187,16.23
30.203,4.15
30.218,-3.3
30.234,-6.09
30.250,-5.78
30.265,-4.59
30.281,-4.39
30.296,-6.16
30.312,-9.84
30.328,-14.66
30.343,-19.78
30.359,-24.68
30.375,-29.41
30.390,-34.44
30.406,-40.28
30.421,-47.17
30.437,-54.9
30.453,-62.86
30.468,-70.26
30.484,-76.39
30.500,-80.76
30.515,-83.11
30.531,-83.31
30.546,-81.32
30.562,-77.17
30.578,-71.04
30.593,-63.33
30.609,-54.62
30.625,-45.47
30.640,-36.29
30.656,-27.13
30.671,-17.75
30.687,-7.86
30.703,2.65
30.718,13.48
30.734,23.93
30.750,33.16
30.765,40.5
30.781,45.68
30.796,48.89
30.812,50.6
30.828,51.31
30.843,51.39
30.859,51.06
30.875,50.4
30.890,49.43
30.906,48.16
30.921,46.52
30.937,44.34
30.953,41.34
30.968,37.28
30.984,32.02
31.000,25.7
31.015,18.67
31.031,11.35
31.046,4.19
31.062,-2.54
31.078,-8.69
31.093,-14.26
31.109,-19.35
31.125,-24.1
31.140,-28.69
31.156,-33.22
31.171,-37.69
31.187,-41.91
31.203,-45.63
31.218,-48.54
31.234,-50.51
31.250,-51.61
31.265,-52.14
31.281,-52.49
31.296,-52.99
31.312,-53.86
31.328,-55.13
31.343,-56.7
31.359,-58.31
31.375,-59.5
31.390,-59.61
31.406,-57.79
31.421,-53.31
31.437,-45.77
31.453,-35.38
31.468,-22.89
31.484,-9.48
31.500,3.63
31.515,15.46
31.531,25.37
31.546,33.12
31.562,38.63
31.578,41.97
31.593,43.27
31.609,42.72
31.625,40.66
31.640,37.53
31.656,33.84
31.671,30.08
31.687,26.64
31.703,23.78
31.718,21.59
31.734,20.1
31.750,19.22
31.765,18.87
31.781,18.97
31.796,19.47
31.812,20.27
31.828,21.26
31.843,22.23
31.859,22.84
31.875,22.82
31.890,21.92
31.906,20.17
31.921,17.88
31.937,15.7
31.953,14.41
31.968,14.67
31.984,16.69
32.000,20.04
32.015,23.69
32.031,26.33
32.046,26.79
32.062,24.47
32.078,19.53
32.093,12.71
32.109,5.04
32.125,-2.59
32.140,-9.68
32.156,-16.09
32.171,-21.96
32.187,-27.57
32.203,-33.1
32.218,-38.66
32.234,-44.13
32.250,-49.22
32.265,-53.35
32.281,-55.77
32.296,-55.74
32.312,-52.69
32.328,-46.55
32.343,-37.73
32.359,-27.18
32.375,-16.07
32.390,-5.52
32.406,3.6
32.421,10.9
32.437,16.4
32.453,20.51
32.468,23.92
32.484,27.4
32.500,31.56
32.515,36.67
32.531,42.44
32.546,48.04
32.562,52.32
32.578,54.15
32.593,52.85
32.609,48.41
32.625,41.49
32.640,33.11
32.656,24.37
32.671,16.1
32.687,8.78
32.703,2.61
32.718,-2.4
32.734,-6.34
32.750,-9.39
32.765,-11.82
32.781,-14.01
32.796,-16.27
32.812,-18.76
32.828,-21.51
32.843,-24.42
32.859,-27.37
32.875,-30.39
32.890,-33.52
32.906,-36.83
32.921,-40.24
32.937,-43.53
32.953,-46.39
32.968,-48.61
32.984,-50.14
33.000,-51.11
33.015,-51.78
33.031,-52.44
33.046,-53.32
33.062,-54.58
33.078,-56.3
33.093,-58.34
33.109,-60.31
33.125,-61.54
33.140,-61.15
33.156,-58.28
33.171,-52.42
33.187,-43.68
33.203,-32.78
33.218,-20.84
33.234,-9.13
33.250,1.37
33.265,10.13
33.281,17.05
33.296,22.34
33.312,26.33
33.328,29.27
33.343,31.32
33.359,32.59
33.375,33.25
33.390,33.54
33.406,33.78
33.421,34.2
33.437,34.94
33.453,36.03
33.468,37.38
33.484,38.94
33.500,40.64
33.515,42.38
33.531,44.01
33.546,45.31
33.562,46.06
33.578,46.1
33.593,45.41
33.609,44.16
33.625,42.61
33.640,41.02
33.656,39.59
33.671,38.37
33.687,37.36
33.703,36.57
33.718,36.03
33.734,35.81
33.750,35.92
33.765,36.36
33.781,36.99
33.796,37.64
33.812,38.03
33.828,37.91
33.843,37.04
33.859,35.27
33.875,32.55
33.890,29.0
33.906,25.01
33.921,21.15
33.937,18.13
33.953,16.57
33.968,16.89
33.984,19.17
34.000,23.25
34.015,28.87
34.031,35.88
34.046,44.26
34.062,53.96
34.078,64.49
34.093,74.57
34.109,82.22
34.125,85.22
34.140,81.96
34.156,72.25
34.171,57.65
34.187,41.02
34.203,25.56
34.218,13.76
34.234,6.68
34.250,3.97
34.265,4.53
34.281,7.26
34.296,11.72
34.312,18.08
34.328,26.79
34.343,38.05
34.359,51.35
34.375,65.33
34.390,77.7
34.406,85.46
34.421,85.28
34.437,74.18
34.453,50.38
34.468,14.25
34.484,-31.17
34.500,-80.4
34.515,-126.65
34.531,-163.7
34.546,-187.54
34.562,-197.36
34.578,-195.33
34.593,-185.39
34.609,-171.76
34.625,-157.71
34.640,-145.15
34.656,-134.81
34.671,-126.61
34.687,-120.09
34.703,-114.47
34.718,-108.65
34.734,-101.34
34.750,-91.44
34.765,-78.51
34.781,-63.05
34.796,-46.44
34.812,-30.45
34.828,-16.63
34.843,-5.72
34.859,2.61
34.875,9.63
34.890,16.93
34.906,25.68
34.921,35.82
34.937,45.8
34.953,52.99
34.968,54.61
34.984,49.0
35.000,36.4
35.015,18.99
35.031,0.14
35.046,-16.77
35.062,-29.38
35.078,-36.82
35.093,-39.51
35.109,-38.58
35.125,-35.27
35.140,-30.56
35.156,-25.16
35.171,-19.59
35.187,-14.31
35.203,-9.81
35.218,-6.56
35.234,-4.81
35.250,-4.58
35.265,-5.52
35.281,-7.15
35.296,-8.97
35.312,-10.7
35.328,-12.42
35.343,-14.46
35.359,-17.25
35.375,-21.01
35.390,-25.68
35.406,-30.89
35.421,-36.18
35.437,-41.2
35.453,-45.76
35.468,-49.8
35.484,-53.15
35.500,-55.37
35.515,-55.65
35.531,-53.1
35.546,-47.06
35.562,-37.52
35.578,-25.29
35.593,-11.78
35.609,1.37
35.625,12.82
35.640,21.88
35.656,28.49
35.671,32.96
35.687,35.77
35.703,37.32
35.718,37.92
35.734,37.85
35.750,37.37
35.765,36.71
35.781,36.08
35.796,35.58
35.812,35.22
35.828,35.02
35.843,34.95
35.859,34.99
35.875,35.06
35.890,35.07
35.906,34.9
35.921,34.49
35.937,33.84
35.953,32.9
35.968,31.63
35.984,29.91
36.000,27.64
36.015,24.82
36.031,21.56
36.046,18.04
36.062,14.44
36.078,10.84
36.093,7.24
36.109,3.61
36.125,-0.03
36.140,-3.62
36.156,-7.08
36.171,-10.43
36.187,-13.81
36.203,-17.48
36.218,-21.65
36.234,-26.37
36.250,-31.36
36.265,-36.04
36.281,-39.62
36.296,-41.2
36.312,-40.09
36.328,-35.98
36.343,-29.1
36.359,-20.15
36.375,-10.21
36.390,-0.38
36.406,8.46
36.421,15.8
36.437,21.56
36.453,25.88
36.468,28.97
36.484,30.95
36.500,31.87
36.515,31.82
36.531,31.08
36.546,30.08
36.562,29.37
36.578,29.33
36.593,30.07
36.609,31.35
36.625,32.73
36.640,33.76
36.656,34.17
36.671,33.93
36.687,33.15
36.703,31.94
36.718,30.4
36.734,28.49
36.750,26.19
36.765,23.55
36.781,20.71
36.796,17.87
36.812,15.21
36.828,12.77
36.843,10.47
36.859,8.18
36.875,5.74
36.890,3.13
36.906,0.4
36.921,-2.34
36.937,-5.0
36.953,-7.58
36.968,-10.25
36.984,-13.23
37.000,-16.67
37.015,-20.52
37.031,-24.43
37.046,-27.71
37.062,-29.52
37.078,-29.05
37.093,-25.81
37.109,-19.79
37.125,-11.47
37.140,-1.6
37.156,8.92
37.171,19.3
37.187,28.83
37.203,37.0
37.218,43.46
37.234,48.11
37.250,51.23
37.265,53.4
37.281,55.36
37.296,57.74
37.312,60.78
37.328,64.24
37.343,67.57
37.359,70.15
37.375,71.67
37.390,72.21
37.406,72.23
37.421,72.5
37.437,73.8
37.453,76.69
37.468,81.01
37.484,85.47
37.500,87.58
37.515,84.13
37.531,72.19
37.546,50.28
37.562,19.18
37.578,-17.99
37.593,-56.65
37.609,-92.04
37.625,-120.49
37.640,-140.08
37.656,-150.71
37.671,-153.58
37.687,-150.45
37.703,-143.08
37.718,-132.91
37.734,-120.93
37.750,-107.81
37.765,-94.01
37.781,-79.93
37.796,-65.95
37.812,-52.36
37.828,-39.29
37.843,-26.66
37.859,-14.45
37.875,-2.71
37.890,8.21
37.906,17.83
37.921,25.8
37.937,32.1
37.953,37.13
37.968,41.59
37.984,46.11
38.000,50.96
38.015,55.96
38.031,60.61
38.046,64.29
38.062,66.6
38.078,67.44
38.093,67.03
38.109,65.84
38.125,64.45
38.140,63.39
38.156,63.03
38.171,63.53
38.187,64.66
38.203,66.02
38.218,67.05
38.234,67.26
38.250,66.43
38.265,64.62
38.281,62.17
38.296,59.48
38.312,56.83
38.328,54.19
38.343,51.33
38.359,47.85
38.375,43.38
38.390,37.77
38.406,31.05
38.421,23.44
38.437,15.25
38.453,6.79
38.468,-1.67
38.484,-9.94
38.500,-17.97
38.515,-25.78
38.531,-33.4
38.546,-40.75
38.562,-47.39
38.578,-52.5
38.593,-54.99
38.609,-53.84
38.625,-48.54
38.640,-39.4
38.656,-27.58
38.671,-14.66
38.687,-2.18
38.703,8.89
38.718,18.28
38.734,26.3
38.750,33.46
38.765,40.13
38.781,46.39
38.796,52.09
38.812,57.14
38.828,61.6
38.843,65.79
38.859,70.16
38.875,75.25
38.890,81.69
38.906,90.1
38.921,100.86
38.937,113.57
38.953,126.58
38.968,136.91
38.984,140.66
39.000,134.26
39.015,115.67
39.031,85.43
39.046,46.57
39.062,3.75
39.078,-38.27
39.093,-75.91
39.109,-107.34
39.125,-132.31
39.140,-151.36
39.156,-165.14
39.171,-174.05
39.187,-178.16
39.203,-177.36
39.218,-171.37
39.234,-159.82
39.250,-142.39
39.265,-119.31
39.281,-92.03
39.296,-63.66
39.312,-38.72
39.328,-21.81
39.343,-16.04
39.359,-21.67
39.375,-35.97
39.390,-54.22
39.406,-71.51
39.421,-84.25
39.437,-90.91
39.453,-91.62
39.468,-87.29
39.484,-78.89
39.500,-67.11
39.515,-52.35
39.531,-34.9
39.546,-14.89
39.562,7.51
39.578,31.65
39.593,55.83
39.609,76.95
39.625,90.9
39.640,93.86
39.656,83.84
39.671,61.64
39.687,30.79
39.703,-3.7
39.718,-36.99
39.734,-65.71
39.750,-88.21
39.765,-104.21
39.781,-113.94
39.796,-117.81
39.812,-116.42
39.828,-110.85
39.843,-102.88
39.859,-94.78
39.875,-88.74
39.890,-86.24
39.906,-87.62
39.921,-91.93
39.937,-97.28
39.953,-101.34
39.968,-101.95
39.984,-97.8
40.000,-88.67
40.015,-75.49
40.031,-59.87
40.046,-43.63
40.062,-28.13
40.078,-14.13
40.093,-1.78
40.109,9.15
40.125,18.96
40.140,27.96
40.156,36.53
40.171,45.12
40.187,54.07
40.203,63.19
40.218,71.35
40.234,76.54
40.250,76.35
40.265,68.93
40.281,53.9
40.296,32.74
40.312,8.51
40.328,-15.14
40.343,-35.02
40.359,-49.19
40.375,-57.18
40.390,-59.73
40.406,-58.16
40.421,-53.94
40.437,-48.4
40.453,-42.63
40.468,-37.48
40.484,-33.57
40.500,-31.25
40.515,-30.58
40.531,-31.33
40.546,-33.09
40.562,-35.4
40.578,-38.0
40.593,-40.88
40.609,-44.2
40.625,-48.01
40.640,-51.99
40.656,-55.37
40.671,-57.02
40.687,-55.91
40.703,-51.49
40.718,-44.07
40.734,-34.73
40.750,-25.01
40.765,-16.39
40.781,-9.87
40.796,-5.78
40.812,-3.79
40.828,-3.28
40.843,-3.55
40.859,-4.07
40.875,-4.5
40.890,-4.64
40.906,-4.29
40.921,-3.22
40.937,-1.15
40.953,2.12
40.968,6.56
40.984,11.92
41.000,17.68
41.015,23.25
41.031,28.15
41.046,32.08
41.062,35.0
41.078,37.03
41.093,38.32
41.109,38.91
41.125,38.78
41.140,37.87
41.156,36.09
41.171,33.41
41.187,29.87
41.203,25.59
41.218,20.77
41.234,15.68
41.250,10.68
41.265,6.16
41.281,2.46
41.296,-0.27
41.312,-2.11
41.328,-3.42
41.343,-4.78
41.359,-6.79
41.375,-9.86
41.390,-14.03
41.406,-18.8
41.421,-23.2
41.437,-26.01
41.453,-26.11
41.468,-22.82
41.484,-16.14
41.500,-6.68
41.515,4.59
41.531,16.67
41.546,28.78
41.562,40.51
41.578,51.69
41.593,62.24
41.609,71.96
41.625,80.49
41.640,87.46
41.656,92.59
41.671,95.9
41.687,97.69
41.703,98.43
41.718,98.53
41.734,98.22
41.750,97.42
41.765,95.91
41.781,93.57
41.796,90.5
41.812,87.12
41.828,84.0
41.843,81.64
41.859,80.25
41.875,79.71
41.890,79.67
41.906,79.76
41.921,79.72
41.937,79.42
41.953,78.82
41.968,77.85
41.984,76.31
42.000,73.87
42.015,70.19
42.031,65.05
42.046,58.46
42.062,50.7
42.078,42.21
42.093,33.45
42.109,24.79
42.125,16.4
42.140,8.26
42.156,0.22
42.171,-7.93
42.187,-16.42
42.203,-25.45
42.218,-35.15
42.234,-45.47
42.250,-55.98
42.265,-65.79
42.281,-73.6
42.296,-77.99
42.312,-77.93
42.328,-73.1
42.343,-64.14
42.359,-52.41
42.375,-39.57
42.390,-27.0
42.406,-15.51
42.421,-5.27
42.437,3.92
42.453,12.25
42.468,19.67
42.484,25.85
42.500,30.32
42.515,32.74
42.531,33.08
42.546,31.67
42.562,29.07
42.578,25.94
42.593,22.84
42.609,20.12
42.625,17.87
42.640,15.96
42.656,14.1
42.671,12.0
42.687,9.43
42.703,6.33
42.718,2.77
42.734,-1.1
42.750,-5.07
42.765,-8.96
42.781,-12.59
42.796,-15.76
42.812,-18.22
42.828,-19.79
42.843,-20.48
42.859,-20.53
42.875,-20.44
42.890,-20.73
42.906,-21.8
42.921,-23.74
42.937,-26.33
42.953,-29.07
42.968,-31.47
42.984,-33.12
43.000,-33.81
43.015,-33.55
43.031,-32.48
43.046,-30.88
43.062,-29.08
43.078,-27.39
43.093,-25.92
43.109,-24.45
43.125,-22.27
43.140,-18.4
43.156,-11.86
43.171,-2.06
43.187,10.97
43.203,26.45
43.218,43.16
43.234,59.75
43.250,75.15
43.265,88.78
43.281,100.57
43.296,110.65
43.312,119.14
43.328,125.97
43.343,130.88
43.359,133.73
43.375,134.78
43.390,134.81
43.406,134.86
43.421,135.63
43.437,136.64
43.453,135.9
43.468,130.19
43.484,115.99
43.500,90.66
43.515,53.25
43.531,4.8
43.546,-51.81
43.562,-112.29
43.578,-171.44
43.593,-223.88
43.609,-264.81
43.625,-291.1
43.640,-301.94
43.656,-299.0
43.671,-285.76
43.687,-266.19
43.703,-243.6
43.718,-220.03
43.734,-196.42
43.750,-173.24
43.765,-151.08
43.781,-130.68
43.796,-112.62
43.812,-96.92
43.828,-83.02
43.843,-70.16
43.859,-57.92
43.875,-46.51
43.890,-36.64
43.906,-29.19
43.921,-24.6
43.937,-22.62
43.953,-22.24
43.968,-22.02
43.984,-20.51
44.000,-16.71
44.015,-10.27
44.031,-1.54
44.046,8.57
44.062,18.95
44.078,28.66
44.093,37.14
44.109,44.34
44.125,50.59
44.140,56.29
44.156,61.65
44.171,66.56
44.187,70.64
44.203,73.54
44.218,75.18
44.234,75.78
44.250,75.77
44.265,75.57
44.281,75.39
44.296,75.2
44.312,74.82
44.328,74.1
44.343,72.93
44.359,71.27
44.375,69.0
44.390,65.92
44.406,61.77
44.421,56.51
44.437,50.38
44.453,43.95
44.468,37.86
44.484,32.59
44.500,28.31
44.515,24.87
44.531,21.96
44.546,19.33
44.562,16.85
44.578,14.51
44.593,12.27
44.609,10.01
44.625,7.57
44.640,4.85
44.656,1.83
44.671,-1.32
44.687,-4.39
44.703,-7.28
44.718,-10.04
44.734,-12.9
44.750,-16.13
44.765,-19.88
44.781,-24.01
44.796,-28.04
44.812,-31.22
44.828,-32.66
44.843,-31.68
44.859,-28.03
44.875,-22.05
44.890,-14.58
44.906,-6.71
44.921,0.58
44.937,6.7
44.953,11.48
44.968,15.12
44.984,17.84
45.000,19.78
45.015,20.95
45.031,21.24
45.046,20.69
45.062,19.57
45.078,18.32
45.093,17.42
45.109,17.2
45.125,17.64
45.140,18.53
45.156,19.5
45.171,20.28
45.187,20.77
45.203,21.0
45.218,21.02
45.234,20.8
45.250,20.21
45.265,19.08
45.281,17.44
45.296,15.47
45.312,13.47
45.328,11.7
45.343,10.2
45.359,8.79
45.375,7.16
45.390,5.07
45.406,2.43
45.421,-0.55
45.437,-3.58
45.453,-6.35
45.468,-8.7
45.484,-10.72
45.500,-12.65
45.515,-14.86
45.531,-17.62
45.546,-20.99
45.562,-24.68
45.578,-28.14
45.593,-30.63
45.609,-31.5
45.625,-30.35
45.640,-27.16
45.656,-22.23
45.671,-16.1
45.687,-9.35
45.703,-2.53
45.718,3.85
45.734,9.34
45.750,13.55
45.765,16.19
45.781,17.2
45.796,16.78
45.812,15.38
45.828,13.5
45.843,11.61
45.859,10.02
45.875,8.91
45.890,8.3
45.906,8.18
45.921,8.49
45.937,9.17
45.953,10.04
45.968,10.87
45.984,11.35
46.000,11.23
46.015,10.4
46.031,8.96
46.046,7.16
46.062,5.31
46.078,3.64
46.093,2.2
46.109,0.89
46.125,-0.48
46.140,-2.07
46.156,-3.89
46.171,-5.82
46.187,-7.67
46.203,-9.33
46.218,-10.74
46.234,-12.03
46.250,-13.34
46.265,-14.89
46.281,-16.87
46.296,-19.41
46.312,-22.61
46.328,-26.38
46.343,-30.45
46.359,-34.31
46.375,-37.28
46.390,-38.62
46.406,-37.78
46.421,-34.48
46.437,-28.89
46.453,-21.57
46.468,-13.32
46.484,-4.94
46.500,2.93
46.515,9.99
46.531,16.27
46.546,21.95
46.562,27.18
46.578,31.97
46.593,36.11
46.609,39.31
46.625,41.33
46.640,42.16
46.656,42.06
46.671,41.43
46.687,40.68
46.703,40.09
46.718,39.76
46.734,39.56
46.750,39.31
46.765,38.77
46.781,37.75
46.796,36.09
46.812,33.66
46.828,30.37
46.843,26.17
46.859,21.16
46.875,15.54
46.890,9.73
46.906,4.13
46.921,-0.89
46.937,-5.15
46.953,-8.7
46.968,-11.77
46.984,-14.6
47.000,-17.39
47.015,-20.15
47.031,-22.73
47.046,-24.88
47.062,-26.41
47.078,-27.29
47.093,-27.68
47.109,-27.95
47.125,-28.48
47.140,-29.6
47.156,-31.37
47.171,-33.56
47.187,-35.62
47.203,-36.83
47.218,-36.44
47.234,-33.91
47.250,-28.98
47.265,-21.79
47.281,-12.74
47.296,-2.46
47.312,8.31
47.328,18.8
47.343,28.28
47.359,36.11
47.375,41.88
47.390,45.53
47.406,47.27
47.421,47.6
47.437,47.09
47.453,46.23
47.468,45.27
47.484,44.24
47.500,43.11
47.515,41.87
47.531,40.65
47.546,39.66
47.562,39.13
47.578,39.15
47.593,39.64
47.609,40.4
47.625,41.23
47.640,41.97
47.656,42.59
47.671,43.16
47.687,43.74
47.703,44.36
47.718,44.93
47.734,45.34
47.750,45.48
47.765,45.38
47.781,45.15
47.796,45.04
47.812,45.3
47.828,46.12
47.843,47.56
47.859,49.54
47.875,51.84
47.890,54.25
47.906,56.61
47.921,58.83
47.937,60.86
47.953,62.71
47.968,64.45
47.984,66.18
48.000,68.12
48.015,70.38
48.031,72.86
48.046,75.05
48.062,76.11
48.078,75.15
48.093,71.58
48.109,65.43
48.125,57.24
48.140,47.78
48.156,37.49
48.171,26.31
48.187,13.72
48.203,-0.79
48.218,-17.25
48.234,-34.98
48.250,-52.75
48.265,-69.14
48.281,-83.05
48.296,-93.88
48.312,-101.53
48.328,-106.14
48.343,-107.95
48.359,-107.13
48.375,-103.93
48.390,-98.81
48.406,-92.41
48.421,-85.54
48.437,-78.94
48.453,-73.14
48.468,-68.36
48.484,-64.62
48.500,-61.83
48.515,-59.88
48.531,-58.67
48.546,-58.05
48.562,-57.78
48.578,-57.56
48.593,-57.21
48.609,-56.71
48.625,-56.37
48.640,-56.54
48.656,-57.5
48.671,-59.24
48.687,-61.44
48.703,-63.67
48.718,-65.57
48.734,-67.05
48.750,-68.26
48.765,-69.53
48.781,-71.16
48.796,-73.36
48.812,-76.19
48.828,-79.59
48.843,-83.37
48.859,-87.18
48.875,-90.5
48.890,-92.73
48.906,-93.28
48.921,-91.79
48.937,-88.16
48.953,-82.47
48.968,-74.91
48.984,-65.64
49.000,-54.94
49.015,-43.22
49.031,-31.14
49.046,-19.54
49.062,-9.22
49.078,-0.69
49.093,5.93
49.109,10.91
49.125,14.7
49.140,17.69
49.156,20.15
49.171,22.2
49.187,23.87
49.203,25.21
49.218,26.35
49.234,27.45
49.250,28.59
49.265,29.78
49.281,30.87
49.296,31.6
49.312,31.74
49.328,31.11
49.343,29.72
49.359,27.64
49.375,24.96
49.390,21.73
49.406,17.95
49.421,13.65
49.437,8.98
49.453,4.27
49.468,-0.15
49.484,-4.05
49.500,-7.42
49.515,-10.5
49.531,-13.59
49.546,-16.99
49.562,-20.89
49.578,-25.38
49.593,-30.42
49.609,-35.79
49.625,-40.95
49.640,-45.02
49.656,-46.97
49.671,-45.83
49.687,-41.14
49.703,-33.18
49.718,-22.89
49.734,-11.6
49.750,-0.59
49.765,9.26
49.781,17.72
49.796,24.95
49.812,31.32
49.828,37.02
49.843,41.95
49.859,45.81
49.875,48.29
49.890,49.44
49.906,49.68
49.921,49.79
49.937,50.53
49.953,52.36
49.968,55.22
49.984,58.47
50.000,61.13
50.015,62.15
50.031,60.64
50.046,56.06
50.062,48.3
50.078,37.73
50.093,25.19
50.109,11.88
50.125,-0.84
50.140,-11.72
50.156,-19.85
50.171,-24.83
50.187,-26.8
50.203,-26.33
50.218,-24.27
50.234,-21.56
50.250,-19.04
50.265,-17.29
50.281,-16.51
50.296,-16.52
50.312,-16.9
50.328,-17.12
50.343,-16.82
50.359,-15.89
50.375,-14.55
50.390,-13.21
50.406,-12.29
50.421,-12.11
50.437,-12.68
50.453,-13.77
50.468,-14.81
50.484,-15.08
50.500,-13.75
50.515,-10.15
50.531,-3.83
50.546,5.35
50.562,17.09
50.578,30.64
50.593,44.78
50.609,57.89
50.625,68.12
50.640,73.74
50.656,73.49
50.671,66.99
50.687,54.92
50.703,38.95
50.718,21.43
50.734,4.92
50.750,-8.31
50.765,-16.78
50.781,-19.93
50.796,-18.2
50.812,-12.71
50.828,-4.96
50.843,3.7
50.859,12.28
50.875,20.35
50.890,27.92
50.906,35.15
50.921,42.16
50.937,48.92
50.953,55.19
50.968,60.75
50.984,65.45
51.000,69.28
51.015,72.39
51.031,75.06
51.046,77.63
51.062,80.46
51.078,83.57
51.093,86.29
51.109,86.98
51.125,82.99
51.140,71.39
51.156,49.97
51.171,18.29
51.187,-21.76
51.203,-66.21
51.218,-110.02
51.234,-148.37
51.250,-177.73
51.265,-196.31
51.281,-203.97
51.296,-201.72
51.312,-191.18
51.328,-174.28
51.343,-153.01
51.359,-129.43
51.375,-105.49
51.390,-82.86
51.406,-62.72
51.421,-45.6
51.437,-31.36
51.453,-19.43
51.468,-9.12
51.484,0.05
51.500,8.12
51.515,14.81
51.531,19.77
51.546,22.94
51.562,24.76
51.578,26.13
51.593,28.19
51.609,31.88
51.625,37.65
51.640,45.18
51.656,53.45
51.671,60.97
51.687,66.06
51.703,67.39
51.718,64.29
51.734,56.97
51.750,46.38
51.765,33.96
51.781,21.21
51.796,9.41
51.812,-0.51
51.828,-7.92
51.843,-12.5
51.859,-14.21
51.875,-13.42
51.890,-10.91
51.906,-7.71
51.921,-4.95
51.937,-3.52
51.953,-3.96
51.968,-6.33
51.984,-10.39
52.000,-15.67
52.015,-21.53
52.031,-27.16
52.046,-31.58
52.062,-33.82
52.078,-33.13
52.093,-29.28
52.109,-22.61
52.125,-13.97
52.140,-4.46
52.156,4.97
52.171,13.67
52.187,21.35
52.203,27.99
52.218,33.63
52.234,38.31
52.250,42.0
52.265,44.76
52.281,46.74
52.296,48.25
52.312,49.61
52.328,51.1
52.343,52.84
52.359,54.77
52.375,56.68
52.390,58.19
52.406,58.92
52.421,58.54
52.437,56.93
52.453,54.08
52.468,50.15
52.484,45.4
52.500,40.12
52.515,34.61
52.531,29.21
52.546,24.3
52.562,20.17
52.578,17.01
52.593,14.66
52.609,12.7
52.625,10.48
52.640,7.27
52.656,2.54
52.671,-3.9
52.687,-11.83
52.703,-20.7
52.718,-29.73
52.734,-38.15
52.750,-45.38
52.765,-51.15
52.781,-55.53
52.796,-58.8
52.812,-61.39
52.828,-63.59
52.843,-65.53
52.859,-67.12
52.875,-68.15
52.890,-68.38
52.906,-67.61
52.921,-65.82
52.937,-63.02
52.953,-59.33
52.968,-54.89
52.984,-49.88
53.000,-44.53
53.015,-39.11
53.031,-33.93
53.046,-29.23
53.062,-25.11
53.078,-21.46
53.093,-18.09
53.109,-14.75
53.125,-11.35
53.140,-7.96
53.156,-4.82
53.171,-2.2
53.187,-0.26
53.203,1.0
53.218,1.76
53.234,2.17
53.250,2.39
53.265,2.43
53.281,2.24
53.296,1.64
53.312,0.45
53.328,-1.46
53.343,-4.2
53.359,-7.7
53.375,-11.71
53.390,-15.84
53.406,-19.63
53.421,-22.76
53.437,-25.19
53.453,-27.19
53.468,-29.28
53.484,-32.01
53.500,-35.79
53.515,-40.68
53.531,-46.31
53.546,-51.9
53.562,-56.33
53.578,-58.43
53.593,-57.27
53.609,-52.36
53.625,-43.95
53.640,-32.9
53.656,-20.52
53.671,-8.23
53.687,2.78
53.703,11.81
53.718,18.59
53.734,23.18
53.750,25.77
53.765,26.5
53.781,25.57
53.796,23.27
53.812,20.12
53.828,16.81
53.843,14.01
53.859,12.21
53.875,11.46
53.890,11.41
53.906,11.52
53.921,11.3
53.937,10.53
53.953,9.37
53.968,8.2
53.984,7.38
54.000,7.06
54.015,7.08
54.031,7.06
54.046,6.62
54.062,5.54
54.078,3.9
54.093,2.0
54.109,0.18
54.125,-1.39
54.140,-2.77
54.156,-4.31
54.171,-6.47
54.187,-9.65
54.203,-14.07
54.218,-19.67
54.234,-26.13
54.250,-32.86
54.265,-39.06
54.281,-43.78
54.296,-46.11
54.312,-45.33
54.328,-41.15
54.343,-33.87
54.359,-24.28
54.375,-13.55
54.390,-2.9
54.406,6.63
54.421,14.48
54.437,20.47
54.453,24.74
54.468,27.58
54.484,29.26
54.500,29.98
54.515,29.92
54.531,29.33
54.546,28.57
54.562,28.06
54.578,28.14
54.593,28.98
54.609,30.48
54.625,32.29
54.640,33.97
54.656,35.1
54.671,35.44
54.687,34.9
54.703,33.58
54.718,31.63
54.734,29.15
54.750,26.15
54.765,22.51
54.781,18.11
54.796,12.94
54.812,7.27
54.828,1.59
54.843,-3.46
54.859,-7.49
54.875,-10.44
54.890,-12.78
54.906,-15.27
54.921,-18.69
54.937,-23.46
54.953,-29.44
54.968,-36.04
54.984,-42.3
55.000,-47.24
55.015,-49.96
55.031,-49.77
55.046,-46.3
55.062,-39.51
55.078,-29.84
55.093,-18.23
55.109,-5.95
55.125,5.7
55.140,15.68
55.156,23.46
55.171,29.01
55.187,32.6
55.203,34.71
55.218,35.76
55.234,36.15
55.250,36.31
55.265,36.64
55.281,37.55
55.296,39.33
55.312,42.03
55.328,45.42
55.343,49.13
55.359,52.67
55.375,55.58
55.390,57.49
55.406,58.18
55.421,57.58
55.437,55.71
55.453,52.67
55.468,48.52
55.484,43.27
55.500,36.92
55.515,29.56
55.531,21.49
55.546,13.22
55.562,5.41
55.578,-1.4
55.593,-6.96
55.609,-11.48
55.625,-15.55
55.640,-19.92
55.656,-25.09
55.671,-31.03
55.687,-37.03
55.703,-41.89
55.718,-44.3
55.734,-43.32
55.750,-38.71
55.765,-30.97
55.781,-21.18
55.796,-10.54
55.812,0.01
55.828,9.98
55.843,19.32
55.859,28.16
55.875,36.56
55.890,44.38
55.906,51.25
55.921,56.69
55.937,60.26
55.953,61.68
55.968,60.92
55.984,58.12
56.000,53.64
56.015,47.99
56.031,41.82
56.046,35.84
56.062,30.74
56.078,26.97
56.093,24.74
56.109,23.87
56.125,23.96
56.140,24.45
56.156,24.88
56.171,24.91
56.187,24.37
56.203,23.26
56.218,21.65
56.234,19.66
56.250,17.4
56.265,15.02
56.281,12.63
56.296,10.32
56.312,8.08
56.328,5.79
56.343,3.29
56.359,0.41
56.375,-2.99
56.390,-7.05
56.406,-11.91
56.421,-17.75
56.437,-24.69
56.453,-32.62
56.468,-40.99
56.484,-48.77
56.500,-54.62
56.515,-57.28
56.531,-56.0
56.546,-50.82
56.562,-42.53
56.578,-32.36
56.593,-21.5
56.609,-10.84
56.625,-0.78
56.640,8.54
56.656,17.18
56.671,25.19
56.687,32.7
56.703,39.86
56.718,46.73
56.734,53.13
56.750,58.38
56.765,61.38
56.781,60.87
56.796,55.97
56.812,46.69
56.828,34.11
56.843,20.19
56.859,7.25
56.875,-2.72
56.890,-8.6
56.906,-10.32
56.921,-8.82
56.937,-5.63
56.953,-2.39
56.968,-0.53
56.984,-0.93
57.000,-3.9
57.015,-9.19
57.031,-16.02
57.046,-23.33
57.062,-29.98
57.078,-34.99
57.093,-37.81
57.109,-38.41
57.125,-37.2
57.140,-34.95
57.156,-32.43
57.171,-30.2
57.187,-28.49
57.203,-27.32
57.218,-26.57
57.234,-26.2
57.250,-26.33
57.265,-27.3
57.281,-29.42
57.296,-32.88
57.312,-37.42
57.328,-42.36
57.343,-46.6
57.359,-48.97
57.375,-48.54
57.390,-44.93
57.406,-38.42
57.421,-29.72
57.437,-19.76
57.453,-9.34
57.468,0.92
57.484,10.65
57.500,19.57
57.515,27.46
57.531,34.11
57.546,39.41
57.562,43.4
57.578,46.32
57.593,48.52
57.609,50.28
57.625,51.73
57.640,52.74
57.656,53.01
57.671,52.31
57.687,50.65
57.703,48.38
57.718,46.14
57.734,44.62
57.750,44.26
57.765,45.05
57.781,46.51
57.796,47.91
57.812,48.66
57.828,48.57
57.843,48.0
57.859,47.75
57.875,48.72
57.890,51.49
57.906,56.12
57.921,61.98
57.937,68.01
57.953,73.17
57.968,76.89
57.984,79.38
58.000,81.64
58.015,85.0
58.031,90.46
58.046,98.14
58.062,106.92
58.078,114.81
58.093,119.51
58.109,119.07
58.125,112.41
58.140,99.41
58.156,80.94
58.171,58.79
58.187,35.64
58.203,14.53
58.218,-2.08
58.234,-13.42
58.250,-21.23
58.265,-29.44
58.281,-42.71
58.296,-64.33
58.312,-94.48
58.328,-129.89
58.343,-165.09
58.359,-194.58
58.375,-214.84
58.390,-225.15
58.406,-226.95
58.421,-222.54
58.437,-213.77
58.453,-201.56
58.468,-186.26
58.484,-168.33
58.500,-148.78
58.515,-129.12
58.531,-110.8
58.546,-94.56
58.562,-80.23
58.578,-66.87
58.593,-53.46
58.609,-39.54
58.625,-25.52
58.640,-12.5
58.656,-1.7
58.671,6.09
58.687,10.96
58.703,13.7
58.718,15.52
58.734,17.42
58.750,19.87
58.765,22.7
58.781,25.38
58.796,27.29
58.812,28.11
58.828,27.89
58.843,27.02
58.859,26.0
58.875,25.25
58.890,24.93
58.906,25.0
58.921,25.21
58.937,25.23
58.953,24.83
58.968,23.91
58.984,22.48
59.000,20.63
59.015,18.39
59.031,15.79
59.046,12.86
59.062,9.8
59.078,7.01
59.093,5.1
59.109,4.74
59.125,6.39
59.140,10.11
59.156,15.58
59.171,22.14
59.187,29.05
59.203,35.66
59.218,41.54
59.234,46.48
59.250,50.39
59.265,53.23
59.281,54.89
59.296,55.31
59.312,54.42
59.328,52.24
59.343,48.92
59.359,44.65
59.375,39.61
59.390,34.01
59.406,28.08
59.421,22.1
59.437,16.45
59.453,11.47
59.468,7.44
59.484,4.4
59.500,2.24
59.515,0.75
59.531,-0.26
59.546,-0.82
59.562,-0.88
59.578,-0.4
59.593,0.54
59.609,1.74
59.625,2.85
59.640,3.52
59.656,3.43
59.671,2.39
59.687,0.4
59.703,-2.23
59.718,-4.83
59.734,-6.58
59.750,-6.82
59.765,-5.58
59.781,-3.8
59.796,-3.24
59.812,-5.99
59.828,-13.62
59.843,-26.57
59.859,-43.9
59.875,-63.56
59.890,-83.02
59.906,-99.88
59.921,-112.27
59.937,-119.1
59.953,-119.97
59.968,-115.15
59.984,-105.51
