timestamp,value
00.000,-87.63
00.015,-87.1
00.031,-85.68
00.046,-84.84
00.062,-85.46
00.078,-87.54
00.093,-90.35
00.109,-92.54
00.125,-92.55
00.140,-89.03
00.156,-81.28
00.171,-69.43
00.187,-54.4
00.203,-37.52
00.218,-20.01
00.234,-2.76
00.250,13.77
00.265,29.26
00.281,43.17
00.296,54.75
00.312,63.19
00.328,68.06
00.343,69.51
00.359,68.32
00.375,65.59
00.390,62.43
00.406,59.79
00.421,58.21
00.437,57.85
00.453,58.54
00.468,59.81
00.484,61.03
00.500,61.67
00.515,61.46
00.531,60.43
00.546,58.86
00.562,56.95
00.578,54.7
00.593,51.95
00.609,48.47
00.625,44.2
00.640,39.26
00.656,33.74
00.671,27.56
00.687,20.41
00.703,11.85
00.718,1.76
00.734,-9.55
00.750,-21.34
00.765,-32.76
00.781,-43.3
00.796,-52.91
00.812,-61.76
00.828,-69.73
00.843,-76.09
00.859,-79.48
00.875,-78.39
00.890,-71.9
00.906,-60.16
00.921,-44.45
00.937,-26.77
00.953,-9.08
00.968,7.07
00.984,20.75
01.000,31.59
01.015,39.5
01.031,44.63
01.046,47.42
01.062,48.55
01.078,48.88
01.093,49.19
01.109,49.92
01.125,51.05
01.140,52.22
01.156,52.99
01.171,52.92
01.187,51.86
01.203,49.96
01.218,47.61
01.234,45.37
01.250,43.71
01.265,42.81
01.281,42.36
01.296,41.7
01.312,39.96
01.328,36.47
01.343,31.0
01.359,23.71
01.375,15.1
01.390,5.7
01.406,-4.06
01.421,-13.84
01.437,-23.42
01.453,-32.65
01.468,-41.47
01.484,-49.98
01.500,-58.5
01.515,-67.38
01.531,-76.76
01.546,-86.34
01.562,-95.23
01.578,-101.94
01.593,-104.81
01.609,-102.37
01.625,-93.89
01.640,-79.7
01.656,-61.24
01.671,-40.67
01.687,-20.32
01.703,-2.17
01.718,12.59
01.734,23.77
01.750,31.89
01.765,37.91
01.781,42.86
01.796,47.48
01.812,52.15
01.828,56.87
01.843,61.31
01.859,64.85
01.875,66.84
01.890,66.67
01.906,64.02
01.921,59.13
01.937,52.74
01.953,45.95
01.968,39.9
01.984,35.49
02.000,33.15
02.015,32.84
02.031,34.24
02.046,36.76
02.062,39.64
02.078,42.06
02.093,43.14
02.109,42.28
02.125,39.29
02.140,34.34
02.156,27.89
02.171,20.25
02.187,11.56
02.203,1.83
02.218,-8.79
02.234,-19.9
02.250,-30.78
02.265,-40.89
02.281,-50.04
02.296,-58.51
02.312,-66.72
02.328,-74.69
02.343,-81.62
02.359,-85.98
02.375,-86.12
02.390,-80.9
02.406,-70.33
02.421,-55.41
02.437,-37.77
02.453,-19.02
02.468,-0.35
02.484,17.51
02.500,34.07
02.515,48.77
02.531,60.98
02.546,70.14
02.562,75.94
02.578,78.45
02.593,78.01
02.609,75.19
02.625,70.67
02.640,65.18
02.656,59.4
02.671,53.78
02.687,48.49
02.703,43.18
02.718,37.27
02.734,30.34
02.750,22.47
02.765,14.28
02.781,6.81
02.796,0.93
02.812,-3.01
02.828,-5.24
02.843,-6.47
02.859,-7.52
02.875,-9.12
02.890,-11.81
02.906,-16.02
02.921,-22.0
02.937,-29.63
02.953,-38.32
02.968,-46.94
02.984,-54.11
03.000,-58.67
03.015,-60.15
03.031,-58.99
03.046,-56.52
03.062,-54.37
03.078,-54.05
03.093,-56.33
03.109,-61.01
03.125,-66.98
03.140,-72.39
03.156,-75.16
03.171,-73.45
03.187,-66.23
03.203,-53.59
03.218,-36.89
03.234,-18.5
03.250,-1.11
03.265,12.96
03.281,22.41
03.296,27.24
03.312,28.45
03.328,27.45
03.343,25.56
03.359,23.59
03.375,21.83
03.390,20.32
03.406,19.09
03.421,18.25
03.437,17.89
03.453,17.92
03.468,18.03
03.484,17.86
03.500,17.36
03.515,16.79
03.531,16.77
03.546,17.85
03.562,20.22
03.578,23.48
03.593,26.76
03.609,29.01
03.625,29.41
03.640,27.62
03.656,23.75
03.671,18.34
03.687,12.05
03.703,5.51
03.718,-0.85
03.734,-6.73
03.750,-11.95
03.765,-16.48
03.781,-20.28
03.796,-23.42
03.812,-25.97
03.828,-28.11
03.843,-30.07
03.859,-32.05
03.875,-34.06
03.890,-35.7
03.906,-36.25
03.921,-34.69
03.937,-30.13
03.953,-22.16
03.968,-11.18
03.984,1.68
04.000,14.84
04.015,26.69
04.031,36.02
04.046,42.21
04.062,45.26
04.078,45.7
04.093,44.43
04.109,42.6
04.125,41.3
04.140,41.36
04.156,43.03
04.171,45.88
04.187,49.06
04.203,51.56
04.218,52.78
04.234,52.7
04.250,51.77
04.265,50.64
04.281,49.86
04.296,49.57
04.312,49.78
04.328,50.49
04.343,51.68
04.359,53.35
04.375,55.18
04.390,56.46
04.406,56.26
04.421,53.84
04.437,48.91
04.453,41.86
04.468,33.58
04.484,24.92
04.500,16.59
04.515,8.89
04.531,1.88
04.546,-4.44
04.562,-10.03
04.578,-14.85
04.593,-18.82
04.609,-21.95
04.625,-24.41
04.640,-26.42
04.656,-28.3
04.671,-30.32
04.687,-32.54
04.703,-34.79
04.718,-36.68
04.734,-37.74
04.750,-37.74
04.765,-36.83
04.781,-35.29
04.796,-33.46
04.812,-31.38
04.828,-28.73
04.843,-25.16
04.859,-20.59
04.875,-15.34
04.890,-10.02
04.906,-5.26
04.921,-1.28
04.937,2.07
04.953,4.98
04.968,7.59
04.984,9.7
05.000,10.98
05.015,11.19
05.031,10.23
05.046,8.13
05.062,4.99
05.078,0.8
05.093,-4.57
05.109,-11.16
05.125,-18.99
05.140,-27.93
05.156,-37.7
05.171,-47.81
05.187,-57.56
05.203,-65.98
05.218,-72.15
05.234,-75.52
05.250,-76.05
05.265,-74.46
05.281,-71.79
05.296,-69.16
05.312,-67.46
05.328,-67.13
05.343,-68.18
05.359,-70.11
05.375,-71.94
05.390,-72.25
05.406,-69.66
05.421,-63.14
05.437,-52.6
05.453,-39.0
05.468,-24.02
05.484,-9.5
05.500,3.09
05.515,12.94
05.531,19.82
05.546,23.71
05.562,24.76
05.578,23.33
05.593,20.1
05.609,16.11
05.625,12.52
05.640,10.02
05.656,8.68
05.671,8.0
05.687,7.19
05.703,5.7
05.718,3.41
05.734,0.58
05.750,-2.38
05.765,-5.09
05.781,-7.43
05.796,-9.34
05.812,-10.81
05.828,-11.86
05.843,-12.54
05.859,-12.95
05.875,-13.29
05.890,-13.6
05.906,-13.84
05.921,-14.05
05.937,-14.31
05.953,-14.91
05.968,-16.16
05.984,-18.31
06.000,-21.34
06.015,-25.11
06.031,-29.47
06.046,-34.28
06.062,-39.37
06.078,-44.2
06.093,-47.78
06.109,-48.79
06.125,-46.11
06.140,-39.22
06.156,-28.63
06.171,-15.65
06.187,-1.95
06.203,10.95
06.218,21.97
06.234,30.47
06.250,36.02
06.265,38.38
06.281,37.46
06.296,33.42
06.312,26.85
06.328,18.7
06.343,10.06
06.359,2.08
06.375,-4.36
06.390,-8.66
06.406,-10.56
06.421,-10.22
06.437,-8.2
06.453,-5.28
06.468,-2.21
06.484,0.4
06.500,2.39
06.515,3.88
06.531,5.15
06.546,6.48
06.562,7.98
06.578,9.57
06.593,11.06
06.609,12.27
06.625,12.97
06.640,13.01
06.656,12.11
06.671,9.98
06.687,6.36
06.703,1.24
06.718,-5.07
06.734,-11.81
06.750,-17.71
06.765,-21.27
06.781,-20.91
06.796,-15.51
06.812,-4.86
06.828,10.09
06.843,27.28
06.859,43.97
06.875,57.53
06.890,66.25
06.906,69.68
06.921,68.62
06.937,64.57
06.953,58.96
06.968,52.86
06.984,46.7
07.000,40.69
07.015,34.89
07.031,29.33
07.046,23.92
07.062,18.4
07.078,12.52
07.093,6.37
07.109,0.6
07.125,-3.72
07.140,-5.57
07.156,-4.59
07.171,-1.31
07.187,2.89
07.203,6.4
07.218,7.94
07.234,6.93
07.250,3.56
07.265,-1.42
07.281,-7.05
07.296,-12.43
07.312,-17.01
07.328,-20.8
07.343,-24.32
07.359,-28.35
07.375,-33.49
07.390,-39.71
07.406,-46.15
07.421,-51.4
07.437,-54.0
07.453,-52.94
07.468,-48.12
07.484,-40.07
07.500,-29.73
07.515,-18.11
07.531,-6.05
07.546,5.75
07.562,16.66
07.578,25.99
07.593,33.01
07.609,36.95
07.625,37.21
07.640,33.67
07.656,26.75
07.671,17.66
07.687,8.04
07.703,-0.38
07.718,-6.3
07.734,-9.12
07.750,-8.99
07.765,-6.49
07.781,-2.39
07.796,2.59
07.812,7.76
07.828,12.29
07.843,15.31
07.859,16.03
07.875,14.09
07.890,9.78
07.906,3.92
07.921,-2.54
07.937,-8.79
07.953,-14.38
07.968,-19.18
07.984,-23.18
08.000,-26.41
08.015,-29.07
08.031,-31.68
08.046,-34.92
08.062,-39.24
08.078,-44.39
08.093,-49.09
08.109,-51.26
08.125,-48.85
08.140,-40.53
08.156,-26.36
08.171,-7.78
08.187,13.01
08.203,33.69
08.218,52.43
08.234,68.07
08.250,80.03
08.265,88.14
08.281,92.6
08.296,93.87
08.312,92.68
08.328,89.93
08.343,86.52
08.359,83.25
08.375,80.71
08.390,79.12
08.406,78.42
08.421,78.24
08.437,78.06
08.453,77.33
08.468,75.79
08.484,73.45
08.500,70.6
08.515,67.68
08.531,64.96
08.546,62.44
08.562,59.86
08.578,56.83
08.593,53.03
08.609,48.47
08.625,43.29
08.640,37.76
08.656,32.09
08.671,26.38
08.687,20.65
08.703,14.92
08.718,9.28
08.734,3.96
08.750,-0.8
08.765,-4.79
08.781,-7.91
08.796,-10.21
08.812,-11.8
08.828,-12.83
08.843,-13.38
08.859,-13.45
08.875,-12.92
08.890,-11.66
08.906,-9.53
08.921,-6.51
08.937,-2.75
08.953,1.39
08.968,5.32
08.984,8.38
09.000,9.91
09.015,9.41
09.031,6.6
09.046,1.5
09.062,-5.51
09.078,-13.84
09.093,-22.74
09.109,-31.54
09.125,-39.75
09.140,-47.12
09.156,-53.55
09.171,-58.92
09.187,-62.93
09.203,-65.21
09.218,-65.45
09.234,-63.77
09.250,-60.88
09.265,-57.89
09.281,-56.01
09.296,-56.04
09.312,-58.07
09.328,-61.49
09.343,-65.45
09.359,-69.27
09.375,-72.74
09.390,-76.09
09.406,-79.66
09.421,-83.72
09.437,-88.29
09.453,-93.26
09.468,-98.45
09.484,-103.51
09.500,-107.8
09.515,-110.07
09.531,-108.7
09.546,-102.02
09.562,-89.03
09.578,-69.78
09.593,-45.63
09.609,-18.95
09.625,7.37
09.640,30.53
09.656,48.36
09.671,59.55
09.687,63.98
09.703,62.55
09.718,57.06
09.734,49.67
09.750,42.27
09.765,36.15
09.781,31.72
09.796,28.78
09.812,26.62
09.828,24.45
09.843,21.46
09.859,17.24
09.875,11.88
09.890,6.03
09.906,0.81
09.921,-2.61
09.937,-3.4
09.953,-1.58
09.968,2.11
09.984,6.36
10.000,9.81
10.015,11.5
10.031,10.99
10.046,8.41
10.062,4.18
10.078,-0.94
10.093,-6.26
10.109,-11.18
10.125,-15.34
10.140,-18.77
10.156,-21.55
10.171,-23.68
10.187,-24.76
10.203,-24.18
10.218,-21.29
10.234,-15.92
10.250,-8.51
10.281,8.53
10.296,16.25
10.312,22.88
10.328,28.49
10.343,33.2
10.359,36.98
10.375,39.51
10.390,40.35
10.406,39.17
10.421,35.89
10.437,30.74
10.453,24.33
10.468,17.45
10.484,11.13
10.500,6.36
10.515,3.9
10.531,4.09
10.546,6.67
10.562,10.96
10.578,15.98
10.593,20.7
10.609,24.15
10.625,25.48
10.640,24.24
10.656,20.36
10.671,14.47
10.687,7.77
10.703,1.7
10.718,-2.53
10.734,-4.41
10.750,-4.31
10.765,-3.3
10.781,-2.72
10.796,-3.88
10.812,-7.7
10.828,-14.56
10.843,-24.17
10.859,-35.41
10.875,-46.34
10.890,-54.55
10.906,-57.86
10.921,-54.92
10.937,-45.86
10.953,-32.05
10.968,-15.67
10.984,1.08
11.000,16.41
11.015,29.1
11.031,38.37
11.046,43.68
11.062,44.9
11.078,42.45
11.093,37.6
11.109,32.19
11.125,28.06
11.140,26.41
11.156,27.4
11.171,30.25
11.187,33.64
11.203,36.3
11.218,37.33
11.234,36.53
11.250,34.23
11.265,31.13
11.281,27.99
11.296,25.37
11.312,23.43
11.328,21.86
11.343,20.14
11.359,17.63
11.375,14.07
11.390,9.59
11.406,4.62
11.421,-0.4
11.437,-5.4
11.453,-10.66
11.468,-16.74
11.484,-24.1
11.500,-32.87
11.515,-42.66
11.531,-52.67
11.546,-61.73
11.562,-68.42
11.578,-71.44
11.593,-69.79
11.609,-63.2
11.625,-52.27
11.640,-38.44
11.656,-23.66
11.671,-9.72
11.687,2.15
11.703,11.67
11.718,19.16
11.734,25.14
11.750,29.92
11.765,33.59
11.781,36.07
11.796,37.45
11.812,38.07
11.828,38.3
11.843,38.4
11.859,38.24
11.875,37.53
11.890,35.92
11.906,33.37
11.921,30.18
11.937,26.87
11.953,23.89
11.968,21.5
11.984,19.7
12.000,18.21
12.015,16.69
12.031,14.68
12.046,11.67
12.062,7.31
12.078,1.51
12.093,-5.45
12.109,-12.99
12.125,-20.4
12.140,-27.13
12.156,-32.82
12.171,-37.38
12.187,-40.86
12.203,-43.49
12.218,-45.63
12.234,-47.96
12.250,-51.21
12.265,-55.94
12.281,-62.0
12.296,-68.27
12.312,-72.86
12.328,-73.64
12.343,-69.03
12.359,-58.5
12.375,-42.71
12.390,-23.16
12.406,-1.73
12.421,19.76
12.437,39.73
12.453,56.83
12.468,69.96
12.484,78.45
12.500,82.37
12.515,82.44
12.531,80.06
12.546,76.75
12.562,73.71
12.578,71.47
12.593,69.89
12.609,68.41
12.625,66.25
12.640,62.87
12.656,57.95
12.671,51.65
12.687,44.48
12.703,37.26
12.718,30.84
12.734,25.85
12.750,22.61
12.765,20.97
12.781,20.5
12.796,20.68
12.812,20.98
12.828,20.83
12.843,19.54
12.859,16.44
12.875,11.15
12.890,3.78
12.906,-4.99
12.921,-14.18
12.937,-22.95
12.953,-30.94
12.968,-38.36
12.984,-45.74
13.000,-53.52
13.015,-61.81
13.031,-70.52
13.046,-79.53
13.062,-88.77
13.078,-97.96
13.093,-106.34
13.109,-112.51
13.125,-114.7
13.140,-111.54
13.156,-102.61
13.171,-88.81
13.187,-71.93
13.203,-53.9
13.218,-36.12
13.234,-19.15
13.250,-3.01
13.265,12.33
13.281,26.57
13.296,38.99
13.312,48.75
13.328,55.22
13.343,58.22
13.359,58.05
13.375,55.51
13.390,51.73
13.406,47.96
13.421,45.23
13.437,44.05
13.453,44.22
13.468,45.11
13.484,45.92
13.500,46.12
13.515,45.59
13.531,44.5
13.546,43.0
13.562,41.06
13.578,38.42
13.593,34.94
13.609,30.64
13.625,25.83
13.640,20.82
13.656,15.72
13.671,10.22
13.687,3.93
13.703,-3.4
13.718,-11.7
13.734,-20.4
13.750,-28.78
13.765,-36.02
13.781,-41.58
13.796,-45.23
13.812,-47.26
13.828,-48.36
13.843,-49.61
13.859,-52.19
13.875,-56.93
13.890,-63.95
13.906,-72.33
13.921,-80.35
13.937,-85.87
13.953,-87.04
13.968,-82.72
13.984,-72.9
14.000,-58.46
14.015,-40.98
14.031,-22.29
14.046,-4.21
14.062,11.83
14.078,24.93
14.093,34.8
14.109,41.73
14.125,46.37
14.140,49.5
14.156,51.82
14.171,53.78
14.187,55.6
14.203,57.29
14.218,58.72
14.234,59.6
14.250,59.49
14.265,57.95
14.281,54.75
14.296,50.09
14.312,44.56
14.328,39.01
14.343,34.12
14.359,30.29
14.375,27.45
14.390,25.25
14.406,23.28
14.421,21.25
14.437,18.94
14.453,16.13
14.468,12.63
14.484,8.22
14.500,2.89
14.515,-3.07
14.531,-9.17
14.546,-14.87
14.562,-19.7
14.578,-23.52
14.593,-26.46
14.609,-28.79
14.625,-30.94
14.640,-33.39
14.656,-36.58
14.671,-40.91
14.687,-46.51
14.703,-53.08
14.718,-59.82
14.734,-65.49
14.750,-68.58
14.765,-67.71
14.781,-61.96
14.796,-51.19
14.812,-36.1
14.828,-18.22
14.843,0.45
14.859,17.88
14.875,32.51
14.890,43.57
14.906,51.08
14.921,55.62
14.937,57.98
14.953,58.88
14.968,58.84
14.984,58.19
15.000,57.12
15.015,55.75
15.031,54.03
15.046,51.77
15.062,48.74
15.078,44.88
15.093,40.41
15.109,35.86
15.125,31.81
15.140,28.58
15.156,26.16
15.171,24.19
15.187,22.24
15.203,20.07
15.218,17.66
15.234,15.24
15.250,12.94
15.265,10.74
15.281,8.32
15.296,5.3
15.312,1.32
15.328,-3.7
15.343,-9.47
15.359,-15.37
15.375,-20.6
15.390,-24.47
15.406,-26.69
15.421,-27.61
15.437,-28.13
15.453,-29.47
15.468,-32.69
15.484,-38.25
15.500,-45.82
15.515,-54.25
15.531,-61.97
15.546,-67.22
15.562,-68.47
15.578,-64.72
15.593,-55.87
15.609,-43.05
15.625,-28.41
15.640,-14.7
15.656,-4.13
15.671,2.47
15.687,6.03
15.703,8.7
15.718,12.58
15.734,18.57
15.750,25.94
15.765,32.78
15.781,37.21
15.796,38.44
15.812,37.06
15.828,34.52
15.843,32.33
15.859,31.2
15.875,31.0
15.890,31.05
15.906,30.76
15.921,29.91
15.937,28.79
15.953,27.99
15.968,28.09
15.984,29.39
16.000,31.64
16.015,34.07
16.031,35.58
16.046,35.25
16.062,32.68
16.078,28.37
16.093,23.5
16.109,19.34
16.125,16.76
16.140,15.75
16.156,15.46
16.171,14.75
16.187,12.78
16.203,9.4
16.218,5.13
16.234,0.71
16.250,-3.42
16.265,-7.41
16.281,-11.94
16.296,-17.88
16.312,-25.8
16.328,-35.71
16.343,-46.98
16.359,-58.5
16.375,-69.08
16.390,-77.65
16.406,-83.38
16.421,-85.79
16.437,-84.67
16.453,-80.16
16.468,-72.74
16.484,-63.06
16.500,-51.84
16.515,-39.73
16.531,-27.38
16.546,-15.41
16.562,-4.48
16.578,4.81
16.593,12.04
16.609,17.04
16.625,19.92
16.640,20.98
16.656,20.48
16.671,18.64
16.687,15.69
16.703,11.99
16.718,8.08
16.734,4.66
16.750,2.22
16.765,0.94
16.781,0.67
16.796,1.11
16.812,2.08
16.828,3.57
16.843,5.54
16.859,7.78
16.875,9.73
16.890,10.73
16.906,10.22
16.921,8.1
16.937,4.84
16.953,1.29
16.968,-1.73
16.984,-3.64
17.000,-4.33
17.015,-4.01
17.031,-3.18
17.046,-2.55
17.062,-2.96
17.078,-5.24
17.093,-9.81
17.109,-16.43
17.125,-24.1
17.140,-31.39
17.156,-36.95
17.171,-40.13
17.187,-41.2
17.203,-41.18
17.218,-41.33
17.234,-42.52
17.250,-44.91
17.265,-47.93
17.281,-50.55
17.296,-51.6
17.312,-50.15
17.328,-45.72
17.343,-38.28
17.359,-28.35
17.375,-16.76
17.390,-4.5
17.406,7.46
17.421,18.22
17.437,27.05
17.453,33.39
17.468,36.84
17.484,37.4
17.500,35.55
17.515,32.17
17.531,28.4
17.546,25.2
17.562,23.09
17.578,22.13
17.593,22.12
17.609,22.72
17.625,23.82
17.640,25.38
17.656,27.34
17.671,29.43
17.687,31.13
17.703,31.84
17.718,31.18
17.734,29.07
17.750,25.77
17.765,21.77
17.781,17.5
17.796,13.26
17.812,9.12
17.828,4.95
17.843,0.54
17.859,-4.36
17.875,-9.94
17.890,-16.21
17.906,-22.97
17.921,-29.85
17.937,-36.33
17.953,-41.97
17.968,-46.46
17.984,-49.89
18.000,-52.54
18.015,-54.94
18.031,-57.58
18.046,-60.66
18.062,-64.01
18.078,-66.91
18.093,-68.2
18.109,-66.56
18.125,-60.98
18.140,-51.11
18.156,-37.52
18.171,-21.56
18.187,-4.88
18.203,10.94
18.218,24.86
18.234,36.42
18.250,45.48
18.265,51.98
18.281,55.85
18.296,57.09
18.312,55.94
18.328,53.07
18.343,49.36
18.359,45.77
18.375,42.94
18.390,41.08
18.406,40.03
18.421,39.46
18.437,38.97
18.453,38.22
18.468,36.97
18.484,34.93
18.500,31.92
18.515,27.91
18.531,23.14
18.546,18.08
18.562,13.27
18.578,9.09
18.593,5.66
18.609,2.87
18.625,0.33
18.640,-2.36
18.656,-5.56
18.671,-9.53
18.687,-14.27
18.703,-19.61
18.718,-25.28
18.734,-30.95
18.750,-36.35
18.765,-41.42
18.781,-46.24
18.796,-50.93
18.812,-55.67
18.828,-60.37
18.843,-64.76
18.859,-68.13
18.875,-69.53
18.890,-67.85
18.906,-62.13
18.921,-51.92
18.937,-37.49
18.953,-19.94
18.968,-0.9
18.984,17.85
19.000,34.82
19.015,49.07
19.031,60.14
19.046,67.87
19.062,72.34
19.078,73.77
19.093,72.54
19.109,69.3
19.125,64.84
19.140,59.92
19.156,55.23
19.171,51.07
19.187,47.56
19.203,44.63
19.218,42.18
19.234,39.99
19.250,37.81
19.265,35.42
19.281,32.58
19.296,29.26
19.312,25.46
19.328,21.29
19.343,16.85
19.359,12.26
19.375,7.69
19.390,3.39
19.406,-0.33
19.421,-3.39
19.437,-5.96
19.453,-8.62
19.468,-12.04
19.484,-16.72
19.500,-22.74
19.515,-29.64
19.531,-36.69
19.546,-43.16
19.562,-48.7
19.578,-53.3
19.593,-57.3
19.609,-61.16
19.625,-65.28
19.640,-69.88
19.656,-74.85
19.671,-79.57
19.687,-82.88
19.703,-83.26
19.718,-79.22
19.734,-69.87
19.750,-55.38
19.765,-36.91
19.781,-16.41
19.796,4.01
19.812,22.6
19.828,38.23
19.843,50.31
19.859,58.7
19.875,63.53
19.890,65.15
19.906,64.2
19.921,61.57
19.937,58.2
19.953,54.93
19.968,52.34
19.984,50.58
20.000,49.57
20.015,49.01
20.031,48.43
20.046,47.41
20.062,45.6
20.078,42.84
20.093,39.31
20.109,35.4
20.125,31.49
20.140,27.85
20.156,24.45
20.171,21.03
20.187,17.4
20.203,13.52
20.218,9.65
20.234,5.98
20.250,2.51
20.265,-1.14
20.281,-5.56
20.296,-11.12
20.312,-17.79
20.328,-25.04
20.343,-32.07
20.359,-38.17
20.375,-42.9
20.390,-46.32
20.406,-48.83
20.421,-51.03
20.437,-53.58
20.453,-57.05
20.468,-61.72
20.484,-67.36
20.500,-73.07
20.515,-77.26
20.531,-78.11
20.546,-74.04
20.562,-64.28
20.578,-49.11
20.593,-29.8
20.609,-8.27
20.625,13.43
20.640,33.43
20.656,50.34
20.671,63.31
20.687,72.05
20.703,76.84
20.718,78.4
20.734,77.68
20.750,75.65
20.765,73.19
20.781,70.77
20.796,68.62
20.812,66.72
20.828,64.94
20.843,63.09
20.859,61.05
20.875,58.84
20.890,56.72
20.906,55.06
20.921,54.22
20.937,54.34
20.953,55.34
20.968,56.85
20.984,58.43
21.000,59.74
21.015,60.72
21.031,61.64
21.046,62.92
21.062,64.93
21.078,67.76
21.093,70.95
21.109,73.57
21.125,74.54
21.140,73.02
21.156,68.95
21.171,63.07
21.187,56.54
21.203,50.26
21.218,44.38
21.234,38.09
21.250,30.05
21.265,19.34
21.281,6.02
21.296,-8.67
21.312,-22.6
21.328,-33.56
21.343,-39.72
21.359,-39.95
21.375,-33.75
21.390,-21.33
21.406,-3.49
21.421,18.25
21.437,41.77
21.453,64.77
21.468,85.41
21.484,102.82
21.500,117.09
21.515,128.55
21.531,137.05
21.546,141.45
21.562,139.96
21.578,131.21
21.593,115.33
21.609,94.44
21.625,72.23
21.640,52.69
21.656,38.68
21.671,31.35
21.687,30.29
21.703,34.18
21.718,41.59
21.734,51.14
21.750,61.42
21.765,70.69
21.781,77.05
21.796,78.8
21.812,75.14
21.828,66.3
21.843,53.27
21.859,37.42
21.875,19.83
21.890,1.16
21.906,-18.29
21.921,-38.38
21.937,-58.96
21.953,-79.75
21.968,-100.23
21.984,-119.53
22.000,-136.59
22.015,-150.85
22.031,-162.76
22.046,-174.09
22.062,-187.1
22.078,-203.26
22.093,-221.82
22.109,-239.59
22.125,-252.03
22.140,-255.31
22.156,-248.3
22.171,-233.03
22.187,-213.6
22.203,-193.98
22.218,-176.27
22.234,-160.34
22.250,-144.88
22.265,-128.95
22.281,-113.0
22.296,-98.75
22.312,-88.07
22.328,-81.77
22.343,-79.15
22.359,-78.18
22.375,-76.58
22.390,-72.77
22.406,-66.47
22.421,-58.51
22.437,-50.29
22.453,-42.98
22.468,-37.07
22.484,-32.34
22.500,-28.06
22.515,-23.62
22.531,-18.85
22.546,-14.26
22.562,-10.74
22.578,-9.2
22.593,-10.12
22.609,-13.31
22.625,-18.05
22.640,-23.32
22.656,-28.21
22.671,-32.24
22.687,-35.37
22.703,-37.86
22.718,-40.13
22.734,-42.5
22.750,-45.18
22.765,-48.16
22.781,-51.3
22.796,-54.13
22.812,-55.84
22.828,-55.23
22.843,-51.0
22.859,-42.03
22.875,-27.94
22.890,-9.26
22.906,12.6
22.921,35.79
22.937,58.55
22.953,79.73
22.968,98.93
22.984,116.25
23.000,131.96
23.015,146.09
23.031,158.28
23.046,168.0
23.062,174.85
23.078,178.94
23.093,180.88
23.109,181.7
23.125,182.36
23.140,183.39
23.156,184.82
23.171,186.16
23.187,186.85
23.203,186.49
23.218,185.13
23.234,183.09
23.250,180.79
23.265,178.49
23.281,176.18
23.296,173.7
23.312,170.73
23.328,166.94
23.343,161.97
23.359,155.35
23.375,146.42
23.390,134.37
23.406,118.39
23.421,97.76
23.437,72.21
23.453,41.94
23.468,7.53
23.484,-30.27
23.500,-70.82
23.515,-113.32
23.531,-156.34
23.546,-197.28
23.562,-232.46
23.578,-257.76
23.593,-270.15
23.609,-268.97
23.625,-256.41
23.640,-236.88
23.656,-215.28
23.671,-195.31
23.687,-178.55
23.703,-164.71
23.718,-152.59
23.734,-141.31
23.750,-130.74
23.765,-121.25
23.781,-113.11
23.796,-105.97
23.812,-98.89
23.828,-90.85
23.843,-81.15
23.859,-69.89
23.875,-57.9
23.890,-46.33
23.906,-36.07
23.921,-27.5
23.937,-20.31
23.953,-13.72
23.968,-7.0
23.984,0.3
24.000,7.95
24.015,15.17
24.031,20.98
24.046,24.67
24.062,26.14
24.078,25.96
24.093,25.11
24.109,24.52
24.125,24.71
24.140,25.61
24.156,26.68
24.171,27.38
24.187,27.37
24.203,26.69
24.218,25.68
24.234,24.71
24.250,24.02
24.265,23.61
24.281,23.35
24.296,23.14
24.312,22.94
24.328,22.76
24.343,22.61
24.359,22.46
24.375,22.24
24.390,21.94
24.406,21.57
24.421,21.22
24.437,20.94
24.453,20.67
24.468,20.17
24.484,19.17
24.500,17.36
24.515,14.64
24.531,11.2
24.546,7.39
24.562,3.64
24.578,0.2
24.593,-3.0
24.609,-6.28
24.625,-10.09
24.640,-14.82
24.656,-20.5
24.671,-26.77
24.687,-33.03
24.703,-38.61
24.718,-43.12
24.734,-46.62
24.750,-49.51
24.765,-52.44
24.781,-56.0
24.796,-60.48
24.812,-65.82
24.828,-71.64
24.843,-77.38
24.859,-82.62
24.875,-87.18
24.890,-91.16
24.906,-94.87
24.921,-98.78
24.937,-103.41
24.953,-109.2
24.968,-116.24
24.984,-123.83
25.000,-130.23
25.015,-132.85
25.031,-128.87
25.046,-116.21
25.062,-94.48
25.078,-65.31
25.093,-32.07
25.109,1.23
25.125,31.03
25.140,55.1
25.156,72.68
25.171,84.2
25.187,90.54
25.203,92.67
25.218,91.28
25.234,86.93
25.250,80.11
25.265,71.41
25.281,61.44
25.296,50.75
25.312,39.68
25.328,28.34
25.343,16.84
25.359,5.47
25.375,-5.07
25.390,-13.73
25.406,-19.42
25.421,-21.52
25.437,-20.16
25.453,-16.28
25.468,-11.37
25.484,-6.89
25.500,-3.85
25.515,-2.6
25.531,-2.95
25.546,-4.6
25.562,-7.44
25.578,-11.68
25.593,-17.77
25.609,-26.08
25.625,-36.69
25.640,-49.19
25.656,-62.72
25.671,-75.89
25.687,-87.16
25.703,-94.82
25.718,-97.3
25.734,-93.51
25.750,-83.2
25.765,-67.13
25.781,-47.13
25.796,-25.72
25.812,-5.54
25.828,11.16
25.843,22.96
25.859,29.37
25.875,30.54
25.890,27.04
25.906,19.59
25.921,8.94
25.937,-4.17
25.953,-18.95
25.968,-34.53
25.984,-50.08
26.000,-64.79
26.015,-78.07
26.031,-89.44
26.046,-98.67
26.062,-105.72
26.078,-110.69
26.093,-113.86
26.109,-115.62
26.125,-116.52
26.140,-117.15
26.156,-118.12
26.171,-119.77
26.187,-122.18
26.203,-125.13
26.218,-128.08
26.234,-130.49
26.250,-132.0
26.265,-132.57
26.281,-132.58
26.296,-132.67
26.312,-133.59
26.328,-135.94
26.343,-139.81
26.359,-144.56
26.375,-148.62
26.390,-149.76
26.406,-145.6
26.421,-134.35
26.437,-115.41
26.453,-89.79
26.468,-59.73
26.484,-28.08
26.500,2.52
26.515,30.29
26.531,54.39
26.546,74.71
26.562,91.46
26.578,104.82
26.593,114.9
26.609,121.94
26.625,126.36
26.640,128.87
26.656,130.33
26.671,131.5
26.687,132.82
26.703,134.44
26.718,136.2
26.734,137.86
26.750,139.31
26.765,140.56
26.781,141.7
26.796,142.73
26.812,143.37
26.828,143.18
26.843,141.66
26.859,138.55
26.875,134.01
26.890,128.69
26.906,123.52
26.921,119.39
26.937,116.93
26.953,116.23
26.968,116.89
26.984,118.15
27.000,119.05
27.015,118.75
27.031,116.77
27.046,113.31
27.062,109.27
27.078,106.2
27.093,105.73
27.109,109.08
27.125,116.53
27.140,127.43
27.156,140.47
27.171,154.2
27.187,167.38
27.203,179.15
27.218,188.89
27.234,195.93
27.250,199.59
27.265,199.28
27.281,194.74
27.296,186.26
27.312,174.61
27.328,160.73
27.343,145.43
27.359,129.13
27.375,111.74
27.390,92.96
27.406,72.51
27.421,50.49
27.437,27.57
27.453,4.95
27.468,-16.03
27.484,-34.2
27.500,-48.89
27.515,-60.15
27.531,-68.56
27.546,-74.96
27.562,-80.09
27.578,-84.32
27.593,-87.57
27.609,-89.51
27.625,-89.78
27.640,-88.17
27.656,-84.82
27.671,-80.19
27.687,-75.06
27.703,-70.33
27.718,-66.62
27.734,-63.88
27.750,-61.14
27.765,-56.48
27.781,-47.49
27.796,-32.23
27.812,-10.02
27.828,18.02
27.843,49.04
27.859,79.41
27.875,105.78
27.890,126.07
27.906,139.8
27.921,147.8
27.937,151.4
27.953,151.77
27.968,149.49
27.984,144.31
28.000,135.54
28.015,122.27
28.031,103.78
28.046,79.93
28.062,51.48
28.078,20.38
28.093,-10.52
28.109,-38.09
28.125,-60.0
28.140,-75.56
28.156,-86.04
28.171,-94.15
28.187,-102.97
28.203,-114.84
28.218,-130.55
28.234,-149.48
28.250,-170.02
28.265,-190.46
28.281,-209.32
28.296,-225.59
28.312,-238.54
28.328,-247.57
28.343,-252.15
28.359,-252.02
28.375,-247.42
28.390,-239.14
28.406,-228.53
28.421,-217.29
28.437,-207.13
28.453,-199.38
28.468,-194.63
28.484,-192.41
28.500,-191.16
28.515,-188.62
28.531,-182.42
28.546,-170.79
28.562,-153.2
28.578,-130.42
28.593,-104.24
28.609,-76.73
28.625,-49.68
28.640,-24.23
28.656,-0.9
28.671,20.15
28.687,38.74
28.703,54.54
28.718,67.15
28.734,76.35
28.750,82.25
28.765,85.39
28.781,86.59
28.796,86.75
28.812,86.64
28.828,86.71
28.843,87.12
28.859,87.7
28.875,88.18
28.890,88.19
28.906,87.46
28.921,85.88
28.937,83.49
28.953,80.41
28.968,76.81
28.984,72.79
29.000,68.29
29.015,63.19
29.031,57.28
29.046,50.44
29.062,42.78
29.078,34.59
29.093,26.31
29.109,18.41
29.125,11.28
29.140,5.01
29.156,-0.56
29.171,-5.78
29.187,-11.14
29.203,-17.09
29.218,-24.08
29.234,-32.38
29.250,-41.94
29.265,-52.03
29.281,-61.12
29.296,-66.98
29.312,-67.32
29.328,-60.59
29.343,-46.66
29.359,-27.07
29.375,-4.5
29.390,18.12
29.406,38.74
29.421,56.61
29.437,72.27
29.453,86.66
29.468,100.51
29.484,113.87
29.500,126.19
29.515,136.71
29.531,144.82
29.546,150.12
29.562,152.3
29.578,151.03
29.593,145.92
29.609,136.94
29.625,124.75
29.640,110.72
29.656,96.6
29.671,83.82
29.687,72.96
29.703,63.6
29.718,54.86
29.734,45.98
29.750,36.88
29.765,28.14
29.781,20.57
29.796,14.61
29.812,9.91
29.828,5.5
29.843,0.11
29.859,-7.11
29.875,-16.36
29.890,-27.18
29.906,-38.7
29.921,-50.09
29.937,-60.76
29.953,-70.49
29.968,-79.32
29.984,-87.47
30.000,-95.23
30.015,-103.0
30.031,-111.05
30.046,-119.37
30.062,-127.43
30.078,-133.91
30.093,-136.91
30.109,-134.46
30.125,-125.2
30.140,-108.87
30.156,-86.63
30.171,-60.65
30.187,-33.47
30.203,-7.45
30.218,15.82
30.234,35.6
30.250,51.8
30.265,64.69
30.281,74.76
30.296,82.49
30.312,88.31
30.328,92.61
30.343,95.65
30.359,97.51
30.375,98.2
30.390,97.64
30.406,95.82
30.421,92.91
30.437,89.27
30.453,85.41
30.468,81.81
30.484,78.84
30.500,76.61
30.515,74.95
30.531,73.4
30.546,71.4
30.562,68.46
30.578,64.26
30.593,58.75
30.609,52.17
30.625,44.98
30.640,37.59
30.656,30.22
30.671,22.84
30.687,15.16
30.703,6.91
30.718,-1.97
30.734,-11.2
30.750,-20.14
30.765,-28.08
30.781,-34.47
30.796,-39.27
30.812,-42.93
30.828,-46.32
30.843,-50.38
30.859,-55.78
30.875,-62.53
30.890,-69.86
30.906,-76.23
30.921,-79.7
30.937,-78.47
30.953,-71.39
30.968,-58.42
30.984,-40.71
31.000,-20.34
31.015,0.35
31.031,19.31
31.046,35.16
31.062,47.43
31.078,56.31
31.093,62.35
31.109,66.21
31.125,68.46
31.140,69.49
31.156,69.61
31.171,69.04
31.187,68.0
31.203,66.57
31.218,64.77
31.234,62.49
31.250,59.68
31.265,56.39
31.281,52.86
31.296,49.54
31.312,46.88
31.328,45.17
31.343,44.34
31.359,44.0
31.375,43.49
31.390,42.16
31.406,39.57
31.421,35.55
31.437,30.26
31.453,24.11
31.468,17.61
31.484,11.31
31.500,5.5
31.515,0.32
31.531,-4.38
31.546,-8.86
31.562,-13.36
31.578,-17.92
31.593,-22.41
31.609,-26.57
31.625,-30.18
31.640,-33.26
31.656,-36.11
31.671,-39.18
31.687,-42.95
31.703,-47.7
31.718,-53.36
31.734,-59.41
31.750,-64.88
31.765,-68.48
31.781,-68.87
31.796,-65.03
31.812,-56.62
31.828,-44.22
31.843,-29.18
31.859,-13.29
31.875,1.76
31.890,14.77
31.906,25.21
31.921,33.03
31.937,38.54
31.953,42.04
31.968,43.82
31.984,44.17
32.000,43.38
32.015,41.8
32.031,39.74
32.046,37.44
32.062,35.02
32.078,32.58
32.093,30.28
32.109,28.32
32.125,26.92
32.140,26.21
32.156,26.13
32.171,26.46
32.187,26.83
32.203,26.82
32.218,26.07
32.234,24.36
32.250,21.62
32.265,18.09
32.281,14.07
32.296,9.98
32.312,6.14
32.328,2.66
32.343,-0.49
32.359,-3.56
32.375,-6.75
32.390,-10.23
32.406,-13.98
32.421,-17.94
32.437,-21.97
32.453,-26.0
32.468,-30.05
32.484,-34.28
32.500,-38.97
32.515,-44.27
32.531,-50.04
32.546,-55.63
32.562,-59.9
32.578,-61.44
32.593,-58.89
32.609,-51.53
32.625,-39.52
32.640,-23.98
32.656,-6.62
32.671,10.74
32.687,26.65
32.703,40.3
32.718,51.42
32.734,60.09
32.750,66.46
32.765,70.55
32.781,72.38
32.796,72.05
32.812,69.87
32.828,66.35
32.843,62.12
32.859,57.72
32.875,53.49
32.890,49.58
32.906,46.08
32.921,43.04
32.937,40.51
32.953,38.48
32.968,36.8
32.984,35.24
33.000,33.4
33.015,30.93
33.031,27.62
33.046,23.44
33.062,18.56
33.078,13.19
33.093,7.57
33.109,1.89
33.125,-3.74
33.140,-9.25
33.156,-14.58
33.171,-19.64
33.187,-24.34
33.203,-28.64
33.218,-32.59
33.234,-36.37
33.250,-40.25
33.265,-44.56
33.281,-49.53
33.296,-55.2
33.312,-61.25
33.328,-67.01
33.343,-71.4
33.359,-73.14
33.375,-71.04
33.390,-64.32
33.406,-52.9
33.421,-37.53
33.437,-19.64
33.453,-0.98
33.468,16.77
33.484,32.49
33.500,45.62
33.515,56.21
33.531,64.58
33.546,71.13
33.562,76.16
33.578,79.94
33.593,82.67
33.609,84.49
33.625,85.48
33.640,85.45
33.656,84.01
33.671,80.74
33.687,75.44
33.703,68.41
33.718,60.45
33.734,52.54
33.750,45.49
33.765,39.53
33.781,34.25
33.796,28.91
33.812,22.73
33.828,15.29
33.843,6.72
33.859,-2.56
33.875,-11.98
33.890,-21.04
33.906,-29.49
33.921,-37.24
33.937,-44.32
33.953,-50.84
33.968,-56.96
33.984,-62.79
34.000,-68.5
34.015,-74.14
34.031,-79.64
34.046,-84.87
34.062,-89.74
34.078,-94.29
34.093,-98.82
34.109,-103.73
34.125,-109.33
34.140,-115.44
34.156,-121.2
34.171,-125.08
34.187,-125.36
34.203,-120.62
34.218,-110.3
34.234,-95.0
34.250,-76.23
34.265,-55.98
34.281,-36.12
34.296,-18.01
34.312,-2.38
34.328,10.61
34.343,21.17
34.359,29.58
34.375,36.06
34.390,40.88
34.406,44.21
34.421,46.22
34.437,47.07
34.453,46.85
34.468,45.63
34.484,43.53
34.500,40.73
34.515,37.52
34.531,34.35
34.546,31.66
34.562,29.77
34.578,28.78
34.593,28.45
34.609,28.34
34.625,27.84
34.640,26.4
34.656,23.69
34.671,19.68
34.687,14.59
34.703,8.8
34.718,2.78
34.734,-3.09
34.750,-8.6
34.765,-13.69
34.781,-18.45
34.796,-22.97
34.812,-27.32
34.828,-31.44
34.843,-35.2
34.859,-38.52
34.875,-41.5
34.890,-44.46
34.906,-47.85
34.921,-52.07
34.937,-57.14
34.953,-62.59
34.968,-67.33
34.984,-69.96
35.000,-69.15
35.015,-64.05
35.031,-54.6
35.046,-41.53
35.062,-26.23
35.078,-10.34
35.093,4.57
35.109,17.32
35.125,27.28
35.140,34.32
35.156,38.73
35.171,41.05
35.187,41.88
35.203,41.75
35.218,41.04
35.234,39.99
35.250,38.72
35.265,37.32
35.281,35.81
35.296,34.25
35.312,32.64
35.328,31.02
35.343,29.45
35.359,28.02
35.375,26.79
35.390,25.79
35.406,24.95
35.421,24.06
35.437,22.93
35.453,21.35
35.468,19.25
35.484,16.67
35.500,13.66
35.515,10.28
35.531,6.45
35.546,2.13
35.562,-2.74
35.578,-8.01
35.593,-13.38
35.609,-18.44
35.625,-22.87
35.640,-26.56
35.656,-29.71
35.671,-32.77
35.687,-36.22
35.703,-40.39
35.718,-45.38
35.734,-50.81
35.750,-55.97
35.765,-59.8
35.781,-61.13
35.796,-58.89
35.812,-52.5
35.828,-42.03
35.843,-28.27
35.859,-12.64
35.875,3.23
35.890,17.84
35.906,30.15
35.921,39.67
35.937,46.47
35.953,50.87
35.968,53.26
35.984,53.99
36.000,53.32
36.015,51.53
36.031,48.92
36.046,45.88
36.062,42.75
36.078,39.81
36.093,37.15
36.109,34.73
36.125,32.49
36.140,30.33
36.156,28.23
36.171,26.21
36.187,24.26
36.203,22.33
36.218,20.29
36.234,18.02
36.250,15.41
36.265,12.37
36.281,8.81
36.296,4.65
36.312,-0.2
36.328,-5.68
36.343,-11.63
36.359,-17.77
36.375,-23.72
36.390,-29.11
36.406,-33.75
36.421,-37.62
36.437,-40.95
36.453,-44.1
36.468,-47.52
36.484,-51.6
36.500,-56.52
36.515,-62.1
36.531,-67.67
36.546,-72.11
36.562,-73.94
36.578,-71.8
36.593,-64.82
36.609,-53.08
36.625,-37.58
36.640,-19.96
36.656,-2.14
36.671,14.36
36.687,28.61
36.703,40.41
36.718,49.99
36.734,57.74
36.750,63.92
36.765,68.66
36.781,72.06
36.796,74.21
36.812,75.35
36.828,75.83
36.843,76.08
36.859,76.45
36.875,77.07
36.890,77.95
36.906,78.99
36.921,80.1
36.937,81.3
36.953,82.78
36.968,84.77
36.984,87.38
37.000,90.5
37.015,93.64
37.031,96.13
37.046,97.27
37.062,96.53
37.078,93.78
37.093,89.3
37.109,83.63
37.125,77.54
37.140,71.97
37.156,67.86
37.171,65.94
37.187,66.35
37.203,68.19
37.218,69.42
37.234,67.21
37.250,58.64
37.265,41.61
37.281,15.67
37.296,-17.69
37.312,-55.1
37.328,-92.01
37.343,-123.42
37.359,-144.75
37.375,-152.84
37.390,-146.52
37.406,-126.96
37.421,-97.34
37.437,-62.0
37.453,-25.33
37.468,9.19
37.484,39.23
37.500,63.59
37.515,81.77
37.531,93.63
37.546,99.45
37.562,100.06
37.578,96.57
37.593,90.06
37.609,81.05
37.625,69.29
37.640,54.23
37.656,35.88
37.671,15.52
37.687,-4.23
37.703,-20.14
37.718,-29.68
37.734,-31.96
37.750,-27.91
37.765,-19.84
37.781,-10.49
37.796,-2.39
37.812,2.51
37.828,2.86
37.843,-2.06
37.859,-12.25
37.875,-26.77
37.890,-43.88
37.906,-61.48
37.921,-77.6
37.937,-90.99
37.953,-101.29
37.968,-108.72
37.984,-113.76
38.000,-116.94
38.015,-118.62
38.031,-119.13
38.046,-118.91
38.062,-118.45
38.078,-118.25
38.093,-118.62
38.109,-119.48
38.125,-120.13
38.140,-119.52
38.156,-116.42
38.171,-109.92
38.187,-99.87
38.203,-86.99
38.218,-72.87
38.234,-59.48
38.250,-48.65
38.265,-41.64
38.281,-38.95
38.296,-40.47
38.312,-45.61
38.328,-53.53
38.343,-63.23
38.359,-73.53
38.375,-83.1
38.390,-90.61
38.406,-94.97
38.421,-95.52
38.437,-92.24
38.453,-85.74
38.468,-77.17
38.484,-67.87
38.500,-59.15
38.515,-51.92
38.531,-46.59
38.546,-43.07
38.562,-40.85
38.578,-39.4
38.593,-38.34
38.609,-37.58
38.625,-37.22
38.640,-37.42
38.656,-38.33
38.671,-39.9
38.687,-42.07
38.703,-44.67
38.718,-47.59
38.734,-50.73
38.750,-53.91
38.765,-57.0
38.781,-59.77
38.796,-62.22
38.812,-64.47
38.828,-66.87
38.843,-69.85
38.859,-73.65
38.875,-77.96
38.890,-81.79
38.906,-83.56
38.921,-81.49
38.937,-74.31
38.953,-61.71
38.968,-44.63
38.984,-24.88
39.000,-4.69
39.015,14.0
39.031,29.96
39.046,42.7
39.062,52.28
39.078,59.03
39.093,63.23
39.109,65.15
39.125,65.11
39.140,63.63
39.156,61.39
39.171,59.23
39.187,57.79
39.203,57.42
39.218,58.05
39.234,59.21
39.250,60.27
39.265,60.61
39.281,59.89
39.296,57.98
39.312,55.06
39.328,51.33
39.343,47.02
39.359,42.36
39.375,37.46
39.390,32.46
39.406,27.36
39.421,22.24
39.437,17.15
39.453,12.23
39.468,7.57
39.484,3.23
39.500,-0.81
39.515,-4.73
39.531,-8.76
39.546,-13.16
39.562,-18.12
39.578,-23.83
39.593,-30.39
39.609,-37.79
39.625,-45.67
39.640,-53.17
39.656,-58.96
39.671,-61.41
39.687,-59.13
39.703,-51.5
39.718,-38.97
39.734,-22.98
39.750,-5.48
39.765,11.68
39.781,27.25
39.796,40.62
39.812,51.8
39.828,60.93
39.843,68.12
39.859,73.37
39.875,76.58
39.890,77.85
39.906,77.44
39.921,75.81
39.937,73.46
39.953,70.87
39.968,68.32
39.984,65.88
40.000,63.59
40.015,61.42
40.031,59.41
40.046,57.53
40.062,55.74
40.078,53.81
40.093,51.49
40.109,48.43
40.125,44.44
40.140,39.5
40.156,33.83
40.171,27.75
40.187,21.55
40.203,15.35
40.218,9.17
40.234,2.87
40.250,-3.66
40.265,-10.48
40.281,-17.47
40.296,-24.48
40.312,-31.31
40.328,-37.83
40.343,-44.02
40.359,-49.98
40.375,-56.0
40.390,-62.35
40.406,-69.16
40.421,-76.12
40.437,-82.37
40.453,-86.56
40.468,-87.09
40.484,-82.71
40.500,-72.96
40.515,-58.42
40.531,-40.55
40.546,-21.28
40.562,-2.43
40.578,14.63
40.593,29.16
40.609,41.01
40.625,50.27
40.640,57.16
40.656,61.92
40.671,64.75
40.687,65.93
40.703,65.78
40.718,64.67
40.734,62.93
40.750,60.92
40.765,58.89
40.781,57.03
40.796,55.4
40.812,53.98
40.828,52.69
40.843,51.32
40.859,49.73
40.875,47.71
40.890,45.09
40.906,41.78
40.921,37.76
40.937,33.13
40.953,28.19
40.968,23.3
40.984,18.83
41.000,14.95
41.015,11.44
41.031,7.9
41.046,3.73
41.062,-1.5
41.078,-7.89
41.093,-15.21
41.109,-22.94
41.125,-30.6
41.140,-37.88
41.156,-44.77
41.171,-51.46
41.187,-58.32
41.203,-65.61
41.218,-73.41
41.234,-81.37
41.250,-88.54
41.265,-93.47
41.281,-94.45
41.296,-90.04
41.312,-79.69
41.328,-63.99
41.343,-44.61
41.359,-23.85
41.375,-3.97
41.390,13.42
41.406,27.46
41.421,37.98
41.437,45.21
41.453,49.44
41.468,51.05
41.484,50.49
41.500,48.31
41.515,45.22
41.531,41.95
41.546,39.13
41.562,37.18
41.578,36.3
41.593,36.39
41.609,37.2
41.625,38.36
41.640,39.44
41.656,40.03
41.671,39.87
41.687,38.82
41.703,36.86
41.718,34.13
41.734,30.78
41.750,27.01
41.765,23.13
41.781,19.35
41.796,15.87
41.812,12.7
41.828,9.59
41.843,6.13
41.859,1.84
41.875,-3.56
41.890,-10.03
41.906,-17.2
41.921,-24.53
41.937,-31.53
41.953,-37.99
41.968,-44.07
41.984,-50.18
42.000,-56.71
42.015,-63.73
42.031,-70.71
42.046,-76.44
42.062,-79.32
42.078,-77.79
42.093,-70.87
42.109,-58.6
42.125,-42.11
42.140,-23.27
42.156,-4.18
42.171,13.4
42.187,28.42
42.203,40.46
42.218,49.51
42.234,55.69
42.250,59.08
42.265,59.78
42.281,58.08
42.296,54.58
42.312,50.18
42.328,45.89
42.343,42.53
42.359,40.47
42.375,39.64
42.390,39.56
42.406,39.7
42.421,39.6
42.437,39.01
42.453,37.9
42.468,36.32
42.484,34.29
42.500,31.79
42.515,28.8
42.531,25.22
42.546,21.02
42.562,16.22
42.578,10.88
42.593,5.29
42.609,-0.16
42.625,-5.01
42.640,-8.94
42.656,-11.93
42.671,-14.35
42.687,-16.9
42.703,-20.3
42.718,-25.16
42.734,-31.69
42.750,-39.69
42.765,-48.44
42.781,-56.78
42.796,-63.23
42.812,-66.17
42.828,-64.23
42.843,-56.71
42.859,-43.96
42.875,-27.28
42.890,-8.61
42.906,9.98
42.921,26.88
42.937,41.18
42.953,52.59
42.968,61.2
42.984,67.18
43.000,70.6
43.015,71.61
43.031,70.54
43.046,67.96
43.062,64.62
43.078,61.25
43.093,58.31
43.109,55.91
43.125,53.94
43.140,52.19
43.156,50.57
43.171,49.16
43.187,48.12
43.203,47.56
43.218,47.39
43.234,47.36
43.250,47.13
43.265,46.37
43.281,44.93
43.296,42.79
43.312,40.02
43.328,36.83
43.343,33.48
43.359,30.29
43.375,27.58
43.390,25.58
43.406,24.37
43.421,23.86
43.437,23.85
43.453,24.07
43.468,24.22
43.484,24.08
43.500,23.42
43.515,22.05
43.531,19.92
43.546,17.11
43.562,13.81
43.578,10.36
43.593,7.1
43.609,4.26
43.625,1.97
43.640,0.17
43.656,-1.29
43.671,-2.59
43.687,-3.87
43.703,-5.2
43.718,-6.6
43.734,-8.12
43.750,-9.84
43.765,-11.77
43.781,-13.92
43.796,-16.19
43.812,-18.38
43.828,-20.24
43.843,-21.63
43.859,-22.59
43.875,-23.36
43.890,-24.34
43.906,-25.84
43.921,-28.05
43.937,-30.94
43.953,-34.29
43.968,-37.81
43.984,-41.24
44.000,-44.49
44.015,-47.61
44.031,-50.82
44.046,-54.32
44.062,-58.26
44.078,-62.63
44.093,-67.23
44.109,-71.78
44.125,-76.01
44.140,-79.76
44.156,-83.1
44.171,-86.31
44.187,-89.8
44.203,-94.09
44.218,-99.59
44.234,-106.32
44.250,-113.79
44.265,-120.7
44.281,-125.18
44.296,-125.2
44.312,-119.24
44.328,-106.79
44.343,-88.7
44.359,-66.87
44.375,-43.7
44.390,-21.42
44.406,-1.62
44.421,14.95
44.437,28.09
44.453,37.91
44.468,44.59
44.484,48.31
44.500,49.35
44.515,48.21
44.531,45.57
44.546,42.27
44.562,39.13
44.578,36.71
44.593,35.23
44.609,34.56
44.625,34.33
44.640,34.16
44.656,33.85
44.671,33.33
44.687,32.68
44.703,31.97
44.718,31.08
44.734,29.68
44.750,27.38
44.765,23.79
44.781,18.76
44.796,12.53
44.812,5.56
44.828,-1.47
44.843,-7.98
44.859,-13.66
44.875,-18.55
44.890,-22.98
44.906,-27.45
44.921,-32.48
44.937,-38.39
44.953,-45.25
44.968,-52.77
44.984,-60.23
45.000,-66.44
45.015,-69.97
45.031,-69.45
45.046,-63.97
45.062,-53.57
45.078,-39.24
45.093,-22.69
45.109,-5.84
45.125,9.62
45.140,22.65
45.156,32.8
45.171,40.09
45.187,44.73
45.203,46.99
45.218,47.24
45.234,45.95
45.250,43.74
45.265,41.22
45.281,38.77
45.296,36.57
45.312,34.47
45.328,32.25
45.343,29.74
45.359,26.97
45.375,24.1
45.390,21.34
45.406,18.8
45.421,16.38
45.437,13.93
45.453,11.16
45.468,7.92
45.484,4.07
45.500,-0.36
45.515,-5.28
45.531,-10.48
45.546,-15.7
45.562,-20.7
45.578,-25.41
45.593,-29.96
45.609,-34.7
45.625,-40.1
45.640,-46.45
45.656,-53.62
45.671,-60.88
45.687,-66.84
45.703,-69.85
45.718,-68.48
45.734,-61.95
45.750,-50.45
45.765,-35.06
45.781,-17.46
45.796,0.59
45.812,17.56
45.828,32.41
45.843,44.6
45.859,53.88
45.875,60.19
45.890,63.67
45.906,64.62
45.921,63.54
45.937,61.08
45.953,57.9
45.968,54.53
45.984,51.26
46.000,48.19
46.015,45.21
46.031,42.27
46.046,39.34
46.062,36.49
46.078,33.78
46.093,31.2
46.109,28.6
46.125,25.66
46.140,21.97
46.156,17.18
46.171,11.19
46.187,4.21
46.203,-3.24
46.218,-10.49
46.234,-17.0
46.250,-22.57
46.265,-27.43
46.281,-32.2
46.296,-37.66
46.312,-44.38
46.328,-52.44
46.343,-61.26
46.359,-69.45
46.375,-75.21
46.390,-76.72
46.406,-72.71
46.421,-62.88
46.437,-48.13
46.453,-30.2
46.468,-11.26
46.484,6.72
46.500,22.42
46.515,35.23
46.531,45.06
46.546,52.1
46.562,56.62
46.578,58.86
46.593,59.21
46.609,58.18
46.625,56.44
46.640,54.66
46.656,53.25
46.671,52.21
46.687,51.19
46.703,49.62
46.718,46.98
46.734,43.21
46.750,38.56
46.765,33.63
46.781,29.03
46.796,25.06
46.812,21.64
46.828,18.35
46.843,14.69
46.859,10.24
46.875,4.94
46.890,-1.08
46.906,-7.48
46.921,-13.87
46.937,-19.99
46.953,-25.77
46.968,-31.27
46.984,-36.76
47.000,-42.6
47.015,-49.11
47.031,-56.46
47.046,-64.39
47.062,-72.12
47.078,-78.4
47.093,-81.67
47.109,-80.45
47.125,-73.86
47.140,-61.9
47.156,-45.58
47.171,-26.68
47.187,-7.2
47.203,11.12
47.218,27.17
47.234,40.47
47.250,51.03
47.265,58.95
47.281,64.33
47.296,67.24
47.312,67.78
47.328,66.27
47.343,63.27
47.359,59.49
47.375,55.61
47.390,52.15
47.406,49.32
47.421,47.06
47.437,45.15
47.453,43.3
47.468,41.24
47.484,38.82
47.500,36.01
47.515,32.81
47.531,29.28
47.546,25.36
47.562,21.0
47.578,16.06
47.593,10.52
47.609,4.46
47.625,-1.85
47.640,-8.07
47.656,-13.88
47.671,-19.16
47.687,-24.09
47.703,-29.07
47.718,-34.6
47.734,-41.03
47.750,-48.46
47.765,-56.66
47.781,-65.19
47.796,-73.39
47.812,-80.34
47.828,-84.96
47.843,-85.98
47.859,-82.37
47.875,-73.64
47.890,-60.18
47.906,-43.33
47.921,-25.02
47.937,-7.19
47.953,8.76
47.968,22.19
47.984,33.1
48.000,41.77
48.015,48.48
48.031,53.33
48.046,56.29
48.062,57.41
48.078,56.86
48.093,54.96
48.109,52.17
48.125,48.86
48.140,45.37
48.156,41.98
48.171,38.88
48.187,36.16
48.203,33.89
48.218,32.0
48.234,30.33
48.250,28.73
48.265,26.94
48.281,24.7
48.296,21.76
48.312,17.98
48.328,13.32
48.343,7.91
48.359,1.95
48.375,-4.34
48.390,-10.82
48.406,-17.34
48.421,-23.77
48.437,-29.94
48.453,-35.62
48.468,-40.67
48.484,-45.04
48.500,-49.03
48.515,-53.14
48.531,-57.92
48.546,-63.84
48.562,-70.87
48.578,-78.33
48.593,-84.92
48.609,-88.88
48.625,-88.51
48.640,-82.75
48.656,-71.62
48.671,-56.15
48.687,-38.27
48.703,-20.13
48.718,-3.53
48.734,10.36
48.750,21.18
48.765,29.09
48.781,34.43
48.796,37.63
48.812,39.02
48.828,38.97
48.843,37.86
48.859,36.19
48.875,34.38
48.890,32.77
48.906,31.49
48.921,30.5
48.937,29.63
48.953,28.72
48.968,27.6
48.984,26.22
49.000,24.63
49.015,22.87
49.031,21.04
49.046,19.16
49.062,17.22
49.078,15.1
49.093,12.6
49.109,9.51
49.125,5.68
49.140,1.17
49.156,-3.86
49.171,-9.03
49.187,-13.97
49.203,-18.38
49.218,-22.15
49.234,-25.38
49.250,-28.34
49.265,-31.34
49.281,-34.67
49.296,-38.58
49.312,-43.11
49.328,-47.9
49.343,-52.18
49.359,-54.69
49.375,-54.03
49.390,-49.11
49.406,-39.52
49.421,-25.91
49.437,-9.83
49.453,6.72
49.468,21.88
49.484,34.4
49.500,43.85
49.515,50.35
49.531,54.28
49.546,56.01
49.562,55.87
49.578,54.16
49.593,51.34
49.609,48.01
49.625,44.8
49.640,42.19
49.656,40.29
49.671,38.82
49.687,37.34
49.703,35.43
49.718,32.92
49.734,29.9
49.750,26.71
49.765,23.72
49.781,21.17
49.796,19.06
49.812,17.08
49.828,14.84
49.843,11.95
49.859,8.31
49.875,4.06
49.890,-0.47
49.906,-4.92
49.921,-9.11
49.937,-13.14
49.953,-17.18
49.968,-21.45
49.984,-26.11
50.000,-31.17
50.015,-36.55
50.031,-42.14
50.046,-47.55
50.062,-52.16
50.078,-54.93
50.093,-54.66
50.109,-50.28
50.125,-41.31
50.140,-28.06
50.156,-11.57
50.171,6.62
50.187,24.97
50.203,42.23
50.218,57.62
50.234,70.84
50.250,81.82
50.265,90.73
50.281,97.77
50.296,103.2
50.312,107.25
50.328,110.17
50.343,112.2
50.359,113.51
50.375,114.33
50.390,114.9
50.406,115.57
50.421,116.74
50.437,118.71
50.453,121.52
50.468,124.82
50.484,127.91
50.500,129.93
50.515,130.22
50.531,128.45
50.546,124.86
50.562,120.04
50.578,114.8
50.593,110.06
50.609,106.76
50.625,105.6
50.640,106.63
50.656,108.77
50.671,109.64
50.687,106.09
50.703,95.26
50.718,75.77
50.734,48.42
50.750,15.76
50.765,-19.07
50.781,-53.85
50.796,-87.88
50.812,-121.5
50.828,-154.81
50.843,-186.29
50.859,-212.69
50.875,-229.92
50.890,-234.99
50.906,-227.19
50.921,-208.67
50.937,-183.29
50.953,-155.14
50.968,-127.11
50.984,-100.48
51.000,-75.37
51.015,-51.71
51.031,-29.96
51.046,-11.01
51.062,4.48
51.078,16.7
51.093,26.98
51.109,37.19
51.125,48.77
51.140,61.86
51.156,75.21
51.171,86.72
51.187,94.51
51.203,97.89
51.218,97.56
51.234,95.21
51.250,92.67
51.265,91.21
51.281,91.13
51.296,91.95
51.312,92.74
51.328,92.41
51.343,89.93
51.359,84.42
51.375,75.28
51.390,62.32
51.406,46.04
51.421,27.44
51.437,7.69
51.453,-12.3
51.468,-32.3
51.484,-52.77
51.500,-74.49
51.515,-97.89
51.531,-122.53
51.546,-146.82
51.562,-168.34
51.578,-184.59
51.593,-193.85
51.609,-195.77
51.625,-191.53
51.640,-183.38
51.656,-173.89
51.671,-165.15
51.687,-158.27
51.703,-153.39
51.718,-149.82
51.734,-146.67
51.750,-143.17
51.765,-138.91
51.781,-133.8
51.796,-128.0
51.812,-121.73
51.828,-115.13
51.843,-108.34
51.859,-101.45
51.875,-94.62
51.890,-88.13
51.906,-82.32
51.921,-77.45
51.937,-73.48
51.953,-70.02
51.968,-66.36
51.984,-61.74
52.000,-55.73
52.015,-48.33
52.031,-40.1
52.046,-31.83
52.062,-24.29
52.078,-17.94
52.093,-12.94
52.109,-9.12
52.125,-6.3
52.140,-4.26
52.156,-2.86
52.171,-2.02
52.187,-1.66
52.203,-1.82
52.218,-2.69
52.234,-4.64
52.250,-8.1
52.265,-13.34
52.281,-20.23
52.296,-28.02
52.312,-35.49
52.328,-41.19
52.343,-43.9
52.359,-42.96
52.375,-38.56
52.390,-31.46
52.406,-22.78
52.421,-13.69
52.437,-5.08
52.453,2.4
52.468,8.3
52.484,12.31
52.500,14.24
52.515,13.98
52.531,11.77
52.546,8.13
52.562,3.93
52.578,0.12
52.593,-2.48
52.609,-3.41
52.625,-2.72
52.640,-0.79
52.656,1.77
52.671,4.37
52.687,6.67
52.703,8.53
52.718,9.98
52.734,11.09
52.750,11.81
52.765,12.01
52.781,11.54
52.796,10.22
52.812,7.98
52.828,4.97
52.843,1.41
52.859,-2.33
52.875,-5.96
52.890,-9.33
52.906,-12.57
52.921,-15.91
52.937,-19.75
52.953,-24.49
52.968,-30.32
52.984,-37.22
53.000,-44.63
53.015,-51.57
53.031,-56.66
53.046,-58.44
53.062,-55.68
53.078,-47.88
53.093,-35.43
53.109,-19.54
53.125,-1.99
53.140,15.43
53.156,31.28
53.171,44.8
53.187,55.79
53.203,64.42
53.218,70.95
53.234,75.49
53.250,78.09
53.265,78.78
53.281,77.81
53.296,75.63
53.312,72.76
53.328,69.7
53.343,66.7
53.359,63.77
53.375,60.78
53.390,57.72
53.406,54.67
53.421,51.92
53.437,49.72
53.453,48.1
53.468,46.83
53.484,45.38
53.500,43.15
53.515,39.62
53.531,34.61
53.546,28.23
53.562,20.95
53.578,13.35
53.593,5.98
53.609,-0.81
53.625,-6.95
53.640,-12.6
53.656,-18.12
53.671,-23.96
53.687,-30.51
53.703,-38.01
53.718,-46.43
53.734,-55.22
53.750,-63.29
53.765,-69.06
53.781,-70.85
53.796,-67.36
53.812,-58.13
53.828,-43.81
53.843,-25.97
53.859,-6.68
53.875,12.05
53.890,28.71
53.906,42.41
53.921,52.82
53.937,59.96
53.953,63.99
53.968,65.25
53.984,64.25
54.000,61.76
54.015,58.69
54.031,55.9
54.046,53.94
54.062,52.97
54.078,52.77
54.093,52.79
54.109,52.52
54.125,51.59
54.140,49.94
54.156,47.73
54.171,45.14
54.187,42.38
54.203,39.41
54.218,36.03
54.234,31.92
54.250,26.83
54.265,20.73
54.281,13.82
54.296,6.56
54.312,-0.53
54.328,-7.0
54.343,-12.76
54.359,-18.02
54.375,-23.22
54.390,-28.92
54.406,-35.57
54.421,-43.34
54.437,-51.9
54.453,-60.38
54.468,-67.5
54.484,-71.77
54.500,-71.87
54.515,-67.01
54.531,-57.23
54.546,-43.48
54.562,-27.36
54.578,-10.6
54.593,5.27
54.609,19.28
54.625,31.01
54.640,40.48
54.656,47.85
54.671,53.24
54.687,56.7
54.703,58.29
54.718,58.18
54.734,56.73
54.750,54.42
54.765,51.72
54.781,48.92
54.796,46.09
54.812,43.14
54.828,40.02
54.843,36.77
54.859,33.61
54.875,30.79
54.890,28.51
54.906,26.73
54.921,25.15
54.937,23.23
54.953,20.44
54.968,16.47
54.984,11.33
55.000,5.39
55.015,-0.75
55.031,-6.52
55.046,-11.55
55.062,-15.85
55.078,-19.78
55.093,-23.91
55.109,-28.82
55.125,-34.83
55.140,-41.92
55.156,-49.57
55.171,-56.8
55.187,-62.29
55.203,-64.62
55.218,-62.62
55.234,-55.71
55.250,-44.16
55.265,-29.1
55.281,-12.15
55.296,4.91
55.312,20.66
55.328,34.14
55.343,44.9
55.359,52.83
55.375,58.01
55.390,60.61
55.406,60.94
55.421,59.52
55.437,57.03
55.453,54.17
55.468,51.51
55.484,49.34
55.500,47.66
55.515,46.28
55.531,44.94
55.546,43.39
55.562,41.5
55.578,39.23
55.593,36.57
55.609,33.54
55.625,30.09
55.640,26.11
55.656,21.49
55.671,16.24
55.687,10.46
55.703,4.45
55.718,-1.42
55.734,-6.82
55.750,-11.63
55.765,-15.93
55.781,-20.03
55.796,-24.33
55.812,-29.17
55.828,-34.78
55.843,-41.13
55.859,-47.87
55.875,-54.25
55.890,-59.11
55.906,-61.12
55.921,-59.06
55.937,-52.34
55.953,-41.18
55.968,-26.75
55.984,-10.76
56.000,5.07
56.015,19.41
56.031,31.64
56.046,41.64
56.062,49.59
56.078,55.59
56.093,59.59
56.109,61.45
56.125,61.17
56.140,59.07
56.156,55.66
56.171,51.68
56.187,47.7
56.203,44.12
56.218,41.01
56.234,38.27
56.250,35.69
56.265,33.11
56.281,30.5
56.296,27.86
56.312,25.32
56.328,22.85
56.343,20.38
56.359,17.69
56.375,14.48
56.390,10.53
56.406,5.78
56.421,0.38
56.437,-5.34
56.453,-10.99
56.468,-16.21
56.484,-20.89
56.500,-25.09
56.515,-29.04
56.531,-33.07
56.546,-37.43
56.562,-42.4
56.578,-48.13
56.593,-54.65
56.609,-61.65
56.625,-68.41
56.640,-73.76
56.656,-76.28
56.671,-74.7
56.687,-68.35
56.703,-57.47
56.718,-43.16
56.734,-27.08
56.750,-10.88
56.765,4.14
56.781,17.32
56.796,28.45
56.812,37.61
56.828,44.89
56.843,50.29
56.859,53.76
56.875,55.33
56.890,55.23
56.906,53.88
56.921,51.77
56.937,49.32
56.953,46.75
56.968,44.11
56.984,41.39
57.000,38.62
57.015,35.89
57.031,33.43
57.046,31.39
57.062,29.72
57.078,28.21
57.093,26.51
57.109,24.33
57.125,21.44
57.140,17.84
57.156,13.56
57.171,8.67
57.187,3.26
57.203,-2.62
57.218,-8.79
57.234,-15.02
57.250,-20.98
57.265,-26.43
57.281,-31.19
57.296,-35.35
57.312,-39.23
57.328,-43.25
57.343,-47.85
57.359,-53.3
57.375,-59.59
57.390,-66.37
57.406,-72.84
57.421,-77.78
57.437,-79.83
57.453,-77.86
57.468,-71.28
57.484,-60.37
57.500,-46.14
57.515,-30.17
57.531,-14.15
57.546,0.55
57.562,13.06
57.578,23.08
57.593,30.76
57.609,36.4
57.625,40.36
57.640,42.89
57.656,44.19
57.671,44.41
57.687,43.77
57.703,42.52
57.718,40.9
57.734,39.11
57.750,37.18
57.765,35.02
57.781,32.58
57.796,29.91
57.812,27.18
57.828,24.59
57.843,22.27
57.859,20.14
57.875,18.0
57.890,15.67
57.906,13.03
57.921,10.04
57.937,6.7
57.953,2.93
57.968,-1.34
57.984,-6.18
58.000,-11.47
58.015,-16.93
58.031,-22.18
58.046,-26.98
58.062,-31.2
58.078,-34.91
58.093,-38.28
58.109,-41.5
58.125,-44.8
58.140,-48.47
58.156,-52.82
58.171,-58.06
58.187,-64.0
58.203,-69.9
58.218,-74.45
58.234,-76.16
58.250,-73.75
58.265,-66.79
58.281,-55.77
58.296,-42.02
58.312,-27.22
58.328,-12.86
58.343,0.04
58.359,11.04
58.375,20.06
58.390,27.2
58.406,32.5
58.421,36.02
58.437,37.87
58.453,38.27
58.468,37.57
58.484,36.1
58.500,34.18
58.515,32.0
58.531,29.7
58.546,27.39
58.562,25.2
58.578,23.26
58.593,21.69
58.609,20.57
58.625,19.85
58.640,19.43
58.656,19.14
58.671,18.78
58.687,18.16
58.703,17.11
58.718,15.5
58.734,13.24
58.750,10.33
58.765,6.85
58.781,3.02
58.796,-0.89
58.812,-4.68
58.828,-8.21
58.843,-11.44
58.859,-14.47
58.875,-17.41
58.890,-20.34
58.906,-23.37
58.921,-26.64
58.937,-30.32
58.953,-34.45
58.968,-38.85
58.984,-42.83
59.000,-45.27
59.015,-44.99
59.031,-41.04
59.046,-33.16
59.062,-21.9
59.078,-8.39
59.093,5.99
59.109,20.03
59.125,32.87
59.140,43.97
59.156,52.9
59.171,59.23
59.187,62.65
59.203,63.02
59.218,60.62
59.234,56.1
59.250,50.43
59.265,44.52
59.281,39.08
59.296,34.48
59.312,30.69
59.328,27.52
59.343,24.72
59.359,22.11
59.375,19.65
59.390,17.41
59.406,15.51
59.421,14.11
59.437,13.33
59.453,13.2
59.468,13.51
59.484,13.8
59.500,13.41
59.515,11.69
59.531,8.08
59.546,2.41
59.562,-5.14
59.578,-13.98
59.593,-23.38
59.609,-32.58
59.625,-41.05
59.640,-48.52
59.656,-55.03
59.671,-60.89
59.687,-66.52
59.703,-72.2
59.718,-77.88
59.734,-83.07
59.750,-86.72
59.765,-87.53
59.781,-84.29
59.796,-76.41
59.812,-64.15
59.828,-48.67
59.843,-31.62
59.859,-14.73
59.875,0.76
59.890,14.3
59.906,25.95
59.921,36.03
59.937,44.81
59.953,52.25
59.968,58.05
59.984,61.85
