timestamp,value
00.000,-155.89
00.015,-136.46
00.031,-114.41
00.046,-91.21
00.062,-68.13
00.078,-46.04
00.093,-25.32
00.109,-6.05
00.125,11.78
00.140,28.12
00.156,42.74
00.171,55.36
00.187,65.7
00.203,73.69
00.218,79.55
00.234,83.8
00.250,87.14
00.265,90.19
00.281,93.34
00.296,96.65
00.312,99.91
00.328,102.74
00.343,104.69
00.359,105.38
00.375,104.53
00.390,102.04
00.406,97.94
00.421,92.5
00.437,86.03
00.453,78.73
00.468,70.5
00.484,60.76
00.500,48.57
00.515,32.93
00.531,13.09
00.546,-11.14
00.562,-39.36
00.578,-70.68
00.593,-103.96
00.609,-137.97
00.625,-171.45
00.640,-203.09
00.656,-231.51
00.671,-255.42
00.687,-273.69
00.703,-285.54
00.718,-290.71
00.734,-289.5
00.750,-282.73
00.765,-271.66
00.781,-257.87
00.796,-242.98
00.812,-228.47
00.828,-215.3
00.843,-203.57
00.859,-192.48
00.875,-180.42
00.890,-165.42
00.906,-145.8
00.921,-120.88
00.937,-91.31
00.953,-59.08
00.968,-26.98
00.984,2.15
01.000,26.15
01.015,43.97
01.031,55.55
01.046,61.6
01.062,63.21
01.078,61.51
01.093,57.52
01.109,51.93
01.125,44.96
01.140,36.37
01.156,25.75
01.171,13.07
01.187,-0.69
01.203,-13.32
01.218,-22.01
01.234,-24.66
01.250,-21.18
01.265,-13.93
01.281,-6.96
01.296,-4.06
01.312,-6.86
01.328,-14.01
01.343,-21.82
01.359,-26.12
01.375,-24.21
01.390,-15.85
01.406,-2.8
01.421,12.41
01.437,27.82
01.453,42.6
01.468,56.72
01.484,70.19
01.500,82.5
01.515,92.81
01.531,100.32
01.546,104.77
01.562,106.51
01.578,106.35
01.593,105.13
01.609,103.53
01.625,101.94
01.640,100.59
01.656,99.58
01.671,98.9
01.687,98.44
01.703,98.04
01.718,97.57
01.734,97.09
01.750,96.73
01.765,96.59
01.781,96.62
01.796,96.45
01.812,95.55
01.828,93.44
01.843,89.83
01.859,84.73
01.875,78.36
01.890,70.96
01.906,62.68
01.921,53.46
01.937,43.17
01.953,31.82
01.968,19.92
01.984,8.61
02.000,-0.51
02.015,-5.8
02.031,-6.29
02.046,-1.9
02.062,6.34
02.078,16.84
02.093,27.92
02.109,38.38
02.125,47.61
02.140,55.5
02.156,62.11
02.171,67.39
02.187,71.18
02.203,73.29
02.218,73.64
02.234,72.42
02.250,70.02
02.265,66.97
02.281,63.86
02.296,61.18
02.312,59.19
02.328,57.97
02.343,57.32
02.359,56.92
02.375,56.5
02.390,55.94
02.406,55.2
02.421,54.34
02.437,53.4
02.453,52.34
02.468,51.08
02.484,49.49
02.500,47.45
02.515,44.84
02.531,41.46
02.546,37.11
02.562,31.71
02.578,25.48
02.593,19.15
02.609,13.87
02.625,10.99
02.640,11.72
02.656,16.8
02.671,26.1
02.687,38.73
02.703,53.25
02.718,68.0
02.734,81.61
02.750,93.19
02.765,102.34
02.781,108.9
02.796,112.8
02.812,113.8
02.828,111.68
02.843,106.43
02.859,98.49
02.875,88.66
02.890,77.98
02.906,67.38
02.921,57.46
02.937,48.48
02.953,40.41
02.968,33.22
02.984,26.85
03.000,21.26
03.015,16.35
03.031,11.97
03.046,8.07
03.062,4.75
03.078,2.21
03.093,0.58
03.109,-0.21
03.125,-0.65
03.140,-1.45
03.156,-3.33
03.171,-6.74
03.187,-11.8
03.203,-18.39
03.218,-26.38
03.234,-35.76
03.250,-46.33
03.265,-57.52
03.281,-68.1
03.296,-76.4
03.312,-80.73
03.328,-80.11
03.343,-74.68
03.359,-65.62
03.375,-54.74
03.390,-43.73
03.406,-33.59
03.421,-24.49
03.437,-16.08
03.453,-8.02
03.468,-0.46
03.484,6.01
03.500,10.66
03.515,13.12
03.531,13.6
03.546,12.95
03.562,12.3
03.578,12.49
03.593,13.82
03.609,15.95
03.625,18.14
03.640,19.66
03.656,20.07
03.671,19.26
03.687,17.41
03.703,14.85
03.718,11.69
03.734,7.9
03.750,3.26
03.765,-2.41
03.781,-9.12
03.796,-16.49
03.812,-23.91
03.828,-30.65
03.843,-36.12
03.859,-40.18
03.875,-43.19
03.890,-45.8
03.906,-48.7
03.921,-52.31
03.937,-56.68
03.953,-61.46
03.968,-66.13
03.984,-69.92
04.000,-72.1
04.015,-71.92
04.031,-68.76
04.046,-62.41
04.062,-53.16
04.078,-41.85
04.093,-29.67
04.109,-17.7
04.125,-6.65
04.140,3.26
04.156,12.17
04.171,20.32
04.187,27.78
04.203,34.43
04.218,40.01
04.234,44.39
04.250,47.65
04.265,50.1
04.281,52.13
04.296,54.03
04.312,55.9
04.328,57.6
04.343,58.88
04.359,59.43
04.375,59.0
04.390,57.4
04.406,54.61
04.421,50.68
04.437,45.8
04.453,40.29
04.468,34.42
04.484,28.5
04.500,22.75
04.515,17.3
04.531,12.31
04.546,7.93
04.562,4.27
04.578,1.39
04.593,-0.8
04.609,-2.58
04.625,-4.21
04.640,-5.86
04.656,-7.56
04.671,-9.13
04.687,-10.37
04.703,-11.2
04.718,-11.69
04.734,-12.01
04.750,-12.3
04.765,-12.52
04.781,-12.3
04.796,-11.11
04.812,-8.33
04.828,-3.53
04.843,3.45
04.859,12.36
04.875,22.55
04.890,33.2
04.906,43.44
04.921,52.69
04.937,60.7
04.953,67.55
04.968,73.42
04.984,78.42
05.000,82.46
05.015,85.23
05.031,86.45
05.046,86.05
05.062,84.35
05.078,81.9
05.093,79.3
05.109,76.94
05.125,74.91
05.140,73.06
05.156,71.09
05.171,68.73
05.187,65.85
05.203,62.39
05.218,58.43
05.234,54.13
05.250,49.89
05.265,46.28
05.281,43.94
05.296,43.34
05.312,44.56
05.328,47.18
05.343,50.28
05.359,52.8
05.375,53.82
05.390,52.9
05.406,50.16
05.421,46.18
05.437,41.67
05.453,37.22
05.468,33.13
05.484,29.27
05.500,25.3
05.515,20.84
05.531,15.58
05.546,9.55
05.562,3.23
05.578,-2.53
05.593,-6.59
05.609,-7.85
05.625,-5.61
05.640,0.18
05.656,8.85
05.671,19.14
05.687,29.66
05.703,39.23
05.718,47.23
05.734,53.81
05.750,59.76
05.765,66.19
05.781,74.23
05.796,84.54
05.812,96.94
05.828,110.41
05.843,123.37
05.859,134.34
05.875,142.63
05.890,148.49
05.906,152.99
05.921,157.26
05.937,161.68
05.953,165.46
05.968,166.71
05.984,162.96
06.000,151.93
06.015,132.29
06.031,104.14
06.046,69.22
06.062,30.53
06.078,-8.26
06.093,-43.53
06.109,-72.32
06.125,-92.88
06.140,-104.77
06.156,-108.87
06.171,-107.04
06.187,-101.82
06.203,-95.88
06.218,-91.29
06.234,-89.09
06.250,-88.89
06.265,-89.27
06.281,-88.44
06.296,-85.23
06.312,-79.61
06.328,-72.78
06.343,-66.62
06.359,-62.8
06.375,-62.2
06.390,-64.75
06.406,-69.56
06.421,-75.44
06.437,-81.32
06.453,-86.65
06.468,-91.43
06.484,-96.23
06.500,-101.74
06.515,-108.46
06.531,-116.41
06.546,-124.96
06.562,-133.15
06.578,-139.92
06.593,-144.52
06.609,-146.57
06.625,-146.11
06.640,-143.31
06.656,-138.37
06.671,-131.39
06.687,-122.46
06.703,-111.77
06.718,-99.73
06.734,-86.96
06.750,-74.16
06.765,-62.14
06.781,-51.6
06.796,-43.19
06.812,-37.39
06.828,-34.38
06.843,-34.05
06.859,-35.88
06.875,-39.11
06.890,-42.77
06.906,-46.03
06.921,-48.4
06.937,-49.89
06.953,-50.98
06.968,-52.36
06.984,-54.61
07.000,-58.0
07.015,-62.33
07.031,-67.06
07.046,-71.55
07.062,-75.27
07.078,-77.96
07.093,-79.53
07.109,-79.99
07.125,-79.32
07.140,-77.36
07.156,-73.88
07.171,-68.67
07.187,-61.66
07.203,-53.0
07.218,-43.1
07.234,-32.53
07.250,-21.93
07.265,-11.85
07.281,-2.61
07.296,5.67
07.312,13.03
07.328,19.44
07.343,24.84
07.359,29.08
07.375,32.07
07.390,33.83
07.406,34.59
07.421,34.71
07.437,34.64
07.453,34.73
07.468,35.1
07.484,35.71
07.500,36.32
07.515,36.73
07.531,36.79
07.546,36.51
07.562,36.01
07.578,35.43
07.593,34.82
07.609,34.08
07.625,32.96
07.640,31.23
07.656,28.69
07.671,25.27
07.687,20.92
07.703,15.68
07.718,9.59
07.734,2.82
07.750,-4.34
07.765,-11.45
07.781,-17.96
07.796,-23.34
07.812,-27.24
07.828,-29.67
07.843,-30.87
07.859,-31.34
07.875,-31.56
07.890,-31.84
07.906,-32.2
07.921,-32.36
07.937,-31.86
07.953,-30.24
07.968,-27.19
07.984,-22.63
08.000,-16.72
08.015,-9.67
08.031,-1.71
08.046,7.0
08.062,16.37
08.078,26.22
08.093,36.11
08.109,45.33
08.125,52.9
08.140,57.84
08.156,59.66
08.171,58.52
08.187,55.27
08.203,51.24
08.218,47.69
08.234,45.39
08.250,44.47
08.265,44.58
08.281,45.18
08.296,45.96
08.312,47.0
08.328,48.5
08.343,50.64
08.359,53.37
08.375,56.42
08.390,59.46
08.406,62.23
08.421,64.7
08.437,66.92
08.453,68.93
08.468,70.68
08.484,72.04
08.500,72.82
08.515,72.91
08.531,72.19
08.546,70.52
08.562,67.74
08.578,63.66
08.593,57.98
08.609,50.43
08.625,40.63
08.640,28.2
08.656,12.81
08.671,-5.68
08.687,-27.01
08.703,-50.49
08.718,-75.01
08.734,-99.06
08.750,-120.99
08.765,-139.08
08.781,-151.81
08.796,-158.18
08.812,-157.91
08.828,-151.73
08.843,-141.27
08.859,-128.72
08.875,-116.21
08.890,-105.33
08.906,-96.83
08.921,-90.62
08.937,-86.1
08.953,-82.47
08.968,-79.09
08.984,-75.6
09.000,-71.8
09.015,-67.62
09.031,-62.93
09.046,-57.55
09.062,-51.35
09.078,-44.33
09.093,-36.68
09.109,-28.78
09.125,-21.07
09.140,-13.9
09.156,-7.34
09.171,-1.24
09.187,4.7
09.203,10.71
09.218,16.84
09.234,22.93
09.250,28.76
09.265,34.12
09.281,39.01
09.296,43.47
09.312,47.55
09.328,51.16
09.343,54.01
09.359,55.72
09.375,55.96
09.390,54.52
09.406,51.42
09.421,46.89
09.437,41.27
09.453,34.97
09.468,28.47
09.484,22.15
09.500,16.34
09.515,11.14
09.531,6.47
09.546,2.11
09.562,-2.12
09.578,-6.18
09.593,-9.76
09.609,-12.27
09.625,-13.08
09.640,-11.67
09.656,-7.96
09.671,-2.29
09.687,4.58
09.703,11.78
09.718,18.49
09.734,24.22
09.750,28.77
09.765,32.23
09.781,34.76
09.796,36.47
09.812,37.31
09.828,37.16
09.843,35.9
09.859,33.57
09.875,30.37
09.890,26.68
09.906,22.88
09.921,19.29
09.937,16.09
09.953,13.31
09.968,10.86
09.984,8.69
10.000,6.78
10.015,5.2
10.031,4.03
10.046,3.29
10.062,2.98
10.078,3.16
10.093,3.91
10.109,5.45
10.125,7.98
10.140,11.64
10.156,16.39
10.171,21.92
10.187,27.78
10.203,33.59
10.218,39.06
10.234,44.06
10.250,48.58
10.265,52.57
10.281,55.98
10.296,58.74
10.312,60.9
10.328,62.61
10.343,64.12
10.359,65.7
10.375,67.55
10.390,69.81
10.406,72.58
10.421,75.95
10.437,79.99
10.453,84.67
10.468,89.82
10.484,95.11
10.500,100.11
10.515,104.36
10.531,107.49
10.546,109.06
10.562,108.57
10.578,105.49
10.593,99.34
10.609,89.9
10.625,77.35
10.640,62.33
10.656,45.95
10.671,29.57
10.687,14.62
10.703,2.27
10.718,-6.66
10.734,-11.96
10.750,-14.04
10.765,-13.74
10.781,-12.06
10.796,-9.85
10.812,-7.64
10.828,-5.67
10.843,-4.27
10.859,-3.95
10.875,-5.55
10.890,-9.95
10.906,-17.56
10.921,-28.12
10.937,-40.45
10.953,-52.89
10.968,-63.61
10.984,-71.28
11.000,-75.32
11.015,-76.01
11.031,-74.18
11.046,-70.74
11.062,-66.44
11.078,-61.69
11.093,-56.79
11.109,-52.2
11.125,-48.73
11.140,-47.26
11.156,-48.41
11.171,-52.06
11.187,-57.18
11.203,-62.32
11.218,-66.09
11.234,-67.73
11.250,-67.26
11.265,-65.27
11.281,-62.41
11.296,-59.07
11.312,-55.39
11.328,-51.4
11.343,-47.3
11.359,-43.47
11.375,-40.34
11.390,-38.18
11.406,-37.1
11.421,-36.97
11.437,-37.66
11.453,-39.02
11.468,-40.88
11.484,-43.03
11.500,-45.04
11.515,-46.5
11.531,-47.1
11.546,-46.84
11.562,-46.07
11.578,-45.23
11.593,-44.71
11.609,-44.5
11.625,-44.3
11.640,-43.66
11.656,-42.36
11.671,-40.51
11.687,-38.59
11.703,-37.18
11.718,-36.7
11.734,-37.33
11.750,-38.87
11.765,-40.9
11.781,-43.02
11.796,-44.99
11.812,-46.77
11.828,-48.53
11.843,-50.53
11.859,-52.91
11.875,-55.67
11.890,-58.55
11.906,-61.16
11.921,-63.1
11.937,-63.89
11.953,-63.05
11.968,-59.98
11.984,-54.15
12.000,-45.1
12.015,-32.86
12.031,-17.97
12.046,-1.52
12.062,15.07
12.078,30.57
12.093,44.14
12.109,55.51
12.125,64.83
12.140,72.43
12.156,78.59
12.171,83.59
12.187,87.67
12.203,91.17
12.218,94.54
12.234,98.19
12.250,102.32
12.265,106.92
12.281,111.77
12.296,116.54
12.312,121.06
12.328,125.29
12.343,129.38
12.359,133.57
12.375,138.01
12.390,142.74
12.406,147.66
12.421,152.5
12.437,156.86
12.453,160.14
12.468,161.94
12.484,162.08
12.500,160.95
12.515,159.39
12.531,158.51
12.546,159.31
12.562,162.43
12.578,168.01
12.593,175.69
12.609,184.8
12.625,194.5
12.640,203.81
12.656,211.75
12.671,217.55
12.687,220.89
12.703,222.01
12.718,221.62
12.734,220.46
12.750,218.89
12.765,216.77
12.781,213.68
12.796,209.27
12.812,203.55
12.828,196.7
12.843,188.78
12.859,179.38
12.875,167.8
12.890,153.47
12.906,136.58
12.921,118.25
12.937,100.06
12.953,83.28
12.968,68.18
12.984,53.98
13.000,39.25
13.015,22.73
13.031,3.89
13.046,-17.06
13.062,-39.47
13.078,-62.84
13.093,-86.92
13.109,-111.75
13.125,-137.19
13.140,-162.73
13.156,-187.47
13.171,-210.27
13.187,-230.11
13.203,-246.25
13.218,-258.29
13.234,-266.12
13.250,-269.93
13.265,-270.04
13.281,-267.03
13.296,-261.58
13.312,-254.41
13.328,-246.26
13.343,-237.74
13.359,-229.27
13.375,-221.12
13.390,-213.45
13.406,-206.37
13.421,-199.89
13.437,-193.93
13.453,-188.34
13.468,-182.93
13.484,-177.47
13.500,-171.79
13.515,-165.71
13.531,-159.1
13.546,-151.96
13.562,-144.33
13.578,-136.44
13.593,-128.6
13.609,-121.27
13.625,-114.79
13.640,-109.5
13.656,-105.54
13.671,-102.91
13.687,-101.5
13.703,-101.05
13.718,-101.26
13.734,-101.69
13.750,-102.01
13.765,-101.9
13.781,-101.26
13.796,-100.11
13.812,-98.54
13.828,-96.64
13.843,-94.5
13.859,-92.16
13.875,-89.65
13.890,-87.14
13.906,-84.84
13.921,-82.96
13.937,-81.63
13.953,-80.8
13.968,-80.27
13.984,-79.75
14.000,-79.0
14.015,-77.84
14.031,-76.25
14.046,-74.38
14.062,-72.54
14.078,-71.17
14.093,-70.77
14.109,-71.64
14.125,-73.73
14.140,-76.45
14.156,-78.66
14.171,-78.93
14.187,-75.94
14.203,-68.89
14.218,-57.88
14.234,-43.85
14.250,-28.29
14.265,-12.79
14.281,1.37
14.296,13.43
14.312,23.13
14.328,30.56
14.343,35.96
14.359,39.59
14.375,41.74
14.390,42.8
14.406,43.2
14.421,43.38
14.437,43.61
14.453,43.92
14.468,44.11
14.484,43.8
14.500,42.64
14.515,40.49
14.531,37.53
14.546,34.14
14.562,30.83
14.578,28.02
14.593,25.77
14.609,23.79
14.625,21.6
14.640,18.65
14.656,14.65
14.671,9.65
14.687,4.03
14.703,-1.65
14.718,-6.9
14.734,-11.5
14.750,-15.49
14.765,-19.19
14.781,-23.03
14.796,-27.41
14.812,-32.58
14.828,-38.46
14.843,-44.53
14.859,-49.81
14.875,-53.05
14.890,-53.03
14.906,-49.03
14.921,-41.08
14.937,-30.0
14.953,-17.13
14.968,-3.97
14.984,8.28
15.000,18.88
15.015,27.53
15.031,34.28
15.046,39.26
15.062,42.63
15.078,44.56
15.093,45.26
15.109,44.93
15.125,43.86
15.140,42.22
15.156,40.11
15.171,37.47
15.187,34.24
15.203,30.44
15.218,26.24
15.234,21.97
15.250,18.0
15.265,14.54
15.281,11.5
15.296,8.55
15.312,5.31
15.328,1.52
15.343,-2.81
15.359,-7.57
15.375,-12.51
15.390,-17.52
15.406,-22.56
15.421,-27.72
15.437,-33.08
15.453,-38.75
15.468,-44.87
15.484,-51.59
15.500,-58.95
15.515,-66.68
15.531,-74.04
15.546,-79.79
15.562,-82.54
15.578,-81.1
15.593,-74.96
15.609,-64.43
15.625,-50.58
15.640,-34.88
15.656,-18.78
15.671,-3.39
15.687,10.66
15.703,23.13
15.718,33.99
15.734,43.25
15.750,50.93
15.765,56.99
15.781,61.48
15.796,64.54
15.812,66.38
15.828,67.23
15.843,67.27
15.859,66.57
15.875,65.13
15.890,62.99
15.906,60.28
15.921,57.24
15.937,54.16
15.953,51.17
15.968,48.18
15.984,44.86
16.000,40.74
16.015,35.39
16.031,28.62
16.046,20.59
16.062,11.68
16.078,2.45
16.093,-6.51
16.109,-14.83
16.125,-22.33
16.140,-29.17
16.156,-35.76
16.171,-42.61
16.187,-50.17
16.203,-58.62
16.218,-67.67
16.234,-76.48
16.250,-83.7
16.265,-87.75
16.281,-87.21
16.296,-81.3
16.312,-70.12
16.328,-54.66
16.343,-36.55
16.359,-17.5
16.375,0.99
16.390,18.02
16.406,33.13
16.421,46.11
16.437,56.77
16.453,64.86
16.468,70.2
16.484,72.82
16.500,73.1
16.515,71.73
16.531,69.58
16.546,67.36
16.562,65.46
16.578,63.88
16.593,62.33
16.609,60.46
16.625,58.01
16.640,54.99
16.656,51.59
16.671,48.06
16.687,44.54
16.703,40.88
16.718,36.75
16.734,31.75
16.750,25.65
16.765,18.59
16.781,11.01
16.796,3.49
16.812,-3.52
16.828,-9.85
16.843,-15.71
16.859,-21.56
16.875,-27.88
16.890,-35.09
16.906,-43.33
16.921,-52.39
16.937,-61.52
16.953,-69.51
16.968,-74.83
16.984,-76.03
17.000,-72.16
17.015,-63.06
17.031,-49.53
17.046,-32.97
17.062,-15.03
17.078,2.81
17.093,19.48
17.109,34.3
17.125,46.87
17.140,56.94
17.156,64.36
17.171,69.07
17.187,71.27
17.203,71.41
17.218,70.14
17.234,68.17
17.250,66.07
17.265,64.23
17.281,62.73
17.296,61.54
17.312,60.51
17.328,59.6
17.343,58.83
17.359,58.21
17.375,57.73
17.390,57.2
17.406,56.36
17.421,54.83
17.437,52.35
17.453,48.71
17.468,43.95
17.484,38.28
17.500,32.07
17.515,25.74
17.531,19.56
17.546,13.59
17.562,7.65
17.578,1.43
17.593,-5.42
17.609,-13.03
17.625,-21.26
17.640,-29.56
17.656,-36.99
17.671,-42.39
17.687,-44.55
17.703,-42.6
17.718,-36.29
17.734,-26.2
17.750,-13.56
17.765,0.11
17.781,13.43
17.796,25.52
17.812,35.98
17.828,44.73
17.843,51.83
17.859,57.27
17.875,60.97
17.890,62.87
17.906,63.16
17.921,62.16
17.937,60.36
17.953,58.18
17.968,55.95
17.984,53.77
18.000,51.62
18.015,49.36
18.031,46.85
18.046,44.04
18.062,40.98
18.078,37.9
18.093,34.91
18.109,32.07
18.125,29.2
18.140,25.99
18.156,22.11
18.171,17.45
18.187,12.11
18.203,6.32
18.218,0.46
18.234,-5.35
18.250,-11.04
18.265,-16.78
18.281,-22.71
18.296,-28.96
18.312,-35.58
18.328,-42.59
18.343,-50.02
18.359,-57.66
18.375,-65.07
18.390,-71.39
18.406,-75.45
18.421,-76.1
18.437,-72.48
18.453,-64.43
18.468,-52.53
18.484,-38.0
18.500,-22.26
18.515,-6.63
18.531,7.96
18.546,20.96
18.562,32.1
18.578,41.23
18.593,48.22
18.609,52.95
18.625,55.43
18.640,55.89
18.656,54.72
18.671,52.55
18.687,49.95
18.703,47.4
18.718,45.19
18.734,43.36
18.750,41.81
18.765,40.29
18.781,38.57
18.796,36.47
18.812,33.96
18.828,31.05
18.843,27.8
18.859,24.22
18.875,20.27
18.890,15.81
18.906,10.8
18.921,5.25
18.937,-0.69
18.953,-6.77
18.968,-12.75
18.984,-18.41
19.000,-23.7
19.015,-28.7
19.031,-33.61
19.046,-38.69
19.062,-44.18
19.078,-50.17
19.093,-56.63
19.109,-63.38
19.125,-69.96
19.140,-75.79
19.156,-80.08
19.171,-81.96
19.187,-80.64
19.203,-75.63
19.218,-66.9
19.234,-54.99
19.250,-40.94
19.265,-25.98
19.281,-11.26
19.296,2.34
19.312,14.42
19.328,24.82
19.343,33.59
19.359,40.79
19.375,46.45
19.390,50.56
19.406,53.27
19.421,54.84
19.437,55.66
19.453,56.15
19.468,56.54
19.484,56.82
19.500,56.84
19.515,56.46
19.531,55.58
19.546,54.37
19.562,53.07
19.578,51.85
19.593,50.75
19.609,49.51
19.625,47.79
19.640,45.3
19.656,42.0
19.671,38.11
19.687,34.06
19.703,30.29
19.718,27.06
19.734,24.38
19.750,22.01
19.765,19.62
19.781,16.92
19.796,13.74
19.812,10.12
19.828,6.24
19.843,2.25
19.859,-1.8
19.875,-5.96
19.890,-10.47
19.906,-15.58
19.921,-21.5
19.937,-28.31
19.953,-35.84
19.968,-43.53
19.984,-50.51
20.000,-55.68
20.015,-57.91
20.031,-56.52
20.046,-51.38
20.062,-43.04
20.078,-32.65
20.093,-21.57
20.109,-10.95
20.125,-1.56
20.140,6.36
20.156,12.95
20.171,18.36
20.187,22.73
20.203,26.03
20.218,28.25
20.234,29.42
20.250,29.71
20.265,29.33
20.281,28.54
20.296,27.45
20.312,26.05
20.328,24.37
20.343,22.44
20.359,20.5
20.375,18.77
20.390,17.49
20.406,16.63
20.421,16.04
20.437,15.35
20.453,14.24
20.468,12.54
20.484,10.28
20.500,7.59
20.515,4.71
20.531,1.79
20.546,-1.18
20.562,-4.29
20.578,-7.73
20.593,-11.61
20.609,-15.94
20.625,-20.64
20.640,-25.54
20.656,-30.41
20.671,-35.08
20.687,-39.49
20.703,-43.62
20.718,-47.56
20.734,-51.42
20.750,-55.29
20.765,-59.2
20.781,-62.94
20.796,-66.04
20.812,-67.74
20.828,-67.14
20.843,-63.53
20.859,-56.61
20.875,-46.75
20.890,-34.78
20.906,-21.88
20.921,-9.1
20.937,2.7
20.953,13.11
20.968,21.99
20.984,29.32
21.000,35.09
21.015,39.27
21.031,41.84
21.046,42.88
21.062,42.65
21.078,41.55
21.093,40.08
21.109,38.7
21.125,37.68
21.140,37.04
21.156,36.62
21.171,36.16
21.187,35.48
21.203,34.52
21.218,33.3
21.234,31.88
21.250,30.29
21.265,28.5
21.281,26.44
21.296,24.08
21.312,21.43
21.328,18.54
21.343,15.48
21.359,12.29
21.375,8.98
21.390,5.49
21.406,1.69
21.421,-2.5
21.437,-7.13
21.453,-12.13
21.468,-17.27
21.484,-22.24
21.500,-26.79
21.515,-30.77
21.531,-34.28
21.546,-37.49
21.562,-40.52
21.578,-43.24
21.593,-45.18
21.609,-45.65
21.625,-43.94
21.640,-39.58
21.656,-32.53
21.671,-23.3
21.687,-12.74
21.703,-1.84
21.718,8.49
21.734,17.64
21.750,25.36
21.765,31.65
21.781,36.68
21.796,40.68
21.812,43.86
21.828,46.43
21.843,48.61
21.859,50.62
21.875,52.71
21.890,55.11
21.906,57.98
21.921,61.31
21.937,64.99
21.953,68.82
21.968,72.59
21.984,76.0
22.000,78.56
22.015,79.47
22.031,77.65
22.046,71.94
22.062,61.61
22.078,46.77
22.093,28.59
22.109,9.02
22.125,-9.81
22.140,-26.24
22.156,-39.56
22.171,-49.91
22.187,-57.93
22.203,-64.19
22.218,-68.98
22.234,-72.24
22.250,-73.93
22.265,-74.2
22.281,-73.55
22.296,-72.65
22.312,-71.98
22.328,-71.69
22.343,-71.39
22.359,-70.33
22.375,-67.67
22.390,-62.73
22.406,-55.23
22.421,-45.38
22.437,-33.7
22.453,-20.88
22.468,-7.64
22.484,5.54
22.500,18.32
22.515,30.52
22.531,42.01
22.546,52.6
22.562,61.98
22.578,69.84
22.593,75.96
22.609,80.33
22.625,83.36
22.640,85.74
22.656,88.26
22.671,91.59
22.687,95.97
22.703,101.2
22.718,106.77
22.734,112.21
22.750,117.17
22.765,121.81
22.781,126.44
22.796,131.43
22.812,136.87
22.828,142.44
22.843,147.58
22.859,151.72
22.875,154.59
22.890,156.33
22.906,157.38
22.921,158.07
22.937,158.31
22.953,157.46
22.968,154.43
22.984,148.04
23.000,137.22
23.015,121.32
23.031,99.95
23.046,73.29
23.062,42.03
23.078,7.77
23.093,-27.01
23.109,-59.37
23.125,-86.5
23.140,-106.63
23.156,-119.41
23.171,-125.96
23.187,-128.16
23.203,-127.95
23.218,-126.54
23.234,-124.22
23.250,-120.66
23.265,-115.39
23.281,-108.45
23.296,-100.51
23.312,-92.89
23.328,-87.07
23.343,-84.23
23.359,-84.9
23.375,-88.99
23.390,-96.07
23.406,-105.66
23.421,-117.48
23.437,-131.02
23.453,-145.19
23.468,-157.93
23.484,-166.58
23.500,-168.52
23.515,-162.38
23.531,-148.7
23.546,-129.67
23.562,-108.4
23.578,-87.59
23.593,-68.7
23.609,-51.81
23.625,-36.23
23.640,-21.33
23.656,-7.13
23.671,5.64
23.687,16.09
23.703,23.56
23.718,28.05
23.734,30.06
23.750,30.27
23.765,29.15
23.781,26.67
23.796,22.43
23.812,15.88
23.828,6.89
23.843,-3.99
23.859,-15.37
23.875,-25.25
23.890,-31.56
23.906,-32.87
23.921,-28.83
23.937,-20.29
23.953,-9.08
23.968,2.58
23.984,12.54
24.000,19.22
24.015,21.76
24.031,20.03
24.046,14.66
24.062,6.88
24.078,-1.68
24.093,-9.22
24.109,-14.13
24.125,-15.4
24.140,-12.85
24.156,-7.09
24.171,0.49
24.187,8.28
24.203,14.77
24.218,18.94
24.234,20.44
24.250,19.51
24.265,16.75
24.281,12.67
24.296,7.45
24.312,0.66
24.328,-8.49
24.343,-20.86
24.359,-36.82
24.375,-55.95
24.390,-76.94
24.406,-98.01
24.421,-117.38
24.437,-133.85
24.453,-147.14
24.468,-157.66
24.484,-166.12
24.500,-173.09
24.515,-178.67
24.531,-182.65
24.546,-184.62
24.562,-184.2
24.578,-181.13
24.593,-175.15
24.609,-166.03
24.625,-153.49
24.640,-137.48
24.656,-118.2
24.671,-96.36
24.687,-73.04
24.703,-49.64
24.718,-27.62
24.734,-8.26
24.750,7.44
24.765,19.0
24.781,26.5
24.796,30.53
24.812,32.0
24.828,31.92
24.843,31.18
24.859,30.47
24.875,30.23
24.890,30.72
24.906,32.0
24.921,33.93
24.937,36.18
24.953,38.21
24.968,39.38
24.984,39.11
25.000,37.02
25.015,33.08
25.031,27.59
25.046,21.16
25.062,14.55
25.078,8.49
25.093,3.5
25.109,-0.29
25.125,-3.12
25.140,-5.61
25.156,-8.58
25.171,-12.73
25.187,-18.47
25.203,-25.57
25.218,-33.06
25.234,-39.31
25.250,-42.47
25.265,-40.85
25.281,-33.52
25.296,-20.66
25.312,-3.5
25.328,15.86
25.343,35.05
25.359,52.0
25.375,65.41
25.390,74.81
25.406,80.55
25.421,83.51
25.437,84.8
25.453,85.49
25.468,86.49
25.484,88.33
25.500,91.21
25.515,94.93
25.531,98.96
25.546,102.66
25.562,105.45
25.578,107.01
25.593,107.3
25.609,106.49
25.625,104.71
25.640,101.87
25.656,97.62
25.671,91.48
25.687,83.08
25.703,72.4
25.718,59.81
25.734,45.96
25.750,31.53
25.765,16.91
25.781,2.07
25.796,-13.43
25.812,-30.32
25.828,-49.28
25.843,-70.61
25.859,-93.9
25.875,-117.83
25.890,-140.3
25.906,-158.79
25.921,-171.06
25.937,-175.68
25.953,-172.46
25.968,-162.41
25.984,-147.29
26.000,-129.17
26.015,-109.8
26.031,-90.49
26.046,-72.02
26.062,-54.88
26.078,-39.28
26.093,-25.31
26.109,-12.8
26.125,-1.31
26.140,9.7
26.156,20.6
26.171,31.32
26.187,41.2
26.203,49.1
26.218,53.93
26.234,55.16
26.250,53.29
26.265,49.82
26.281,46.82
26.296,46.23
26.312,49.2
26.328,55.86
26.343,65.4
26.359,76.55
26.375,87.84
26.390,97.72
26.406,104.61
26.421,106.94
26.437,103.68
26.453,94.82
26.468,81.68
26.484,66.71
26.500,52.79
26.515,42.35
26.531,36.9
26.546,37.01
26.562,42.56
26.578,53.22
26.593,68.45
26.609,87.29
26.625,108.23
26.640,129.45
26.656,149.27
26.671,166.75
26.687,181.94
26.703,195.52
26.718,208.23
26.734,220.34
26.750,231.58
26.765,241.36
26.781,249.34
26.796,255.62
26.812,260.72
26.828,265.33
26.843,269.87
26.859,274.39
26.875,278.55
26.890,281.81
26.906,283.61
26.921,283.36
26.937,280.37
26.953,273.9
26.968,263.34
26.984,248.43
27.000,229.62
27.015,208.01
27.031,185.11
27.046,162.47
27.062,141.16
27.078,121.65
27.093,103.81
27.109,87.11
27.125,70.95
27.140,54.89
27.156,38.57
27.171,21.75
27.187,4.33
27.203,-13.9
27.218,-33.1
27.234,-53.41
27.250,-74.65
27.265,-96.14
27.281,-116.47
27.296,-133.82
27.312,-146.5
27.328,-153.44
27.343,-154.73
27.359,-151.47
27.375,-145.3
27.390,-137.79
27.406,-129.99
27.421,-122.39
27.437,-115.33
27.453,-109.29
27.468,-104.92
27.484,-102.77
27.500,-102.67
27.515,-103.52
27.531,-103.52
27.546,-100.87
27.562,-94.6
27.578,-85.12
27.593,-74.13
27.609,-64.02
27.625,-56.92
27.640,-53.93
27.656,-54.78
27.671,-58.33
27.687,-63.27
27.703,-69.0
27.718,-75.94
27.734,-85.36
27.750,-98.48
27.765,-115.62
27.781,-135.63
27.796,-156.1
27.812,-174.19
27.828,-187.62
27.843,-195.39
27.859,-197.54
27.875,-194.52
27.890,-186.3
27.906,-172.24
27.921,-151.6
27.937,-124.5
27.953,-92.8
27.968,-60.07
27.984,-30.67
28.000,-8.47
28.015,4.28
28.031,7.36
28.046,2.12
28.062,-9.32
28.078,-24.79
28.093,-42.59
28.109,-61.17
28.125,-79.0
28.140,-94.53
28.156,-106.72
28.171,-115.72
28.187,-123.28
28.203,-132.34
28.218,-145.76
28.234,-164.72
28.250,-187.6
28.265,-210.07
28.281,-226.46
28.296,-231.74
28.312,-223.26
28.328,-201.39
28.343,-169.04
28.359,-130.39
28.375,-89.83
28.390,-51.27
28.406,-18.03
28.421,7.16
28.437,22.55
28.453,27.8
28.468,24.67
28.484,17.04
28.500,10.0
28.515,8.13
28.531,13.31
28.546,23.41
28.562,32.36
28.578,32.19
28.593,16.17
28.609,-18.02
28.625,-66.87
28.640,-121.91
28.656,-172.72
28.671,-210.56
28.687,-230.98
28.703,-234.29
28.718,-224.19
28.734,-205.57
28.750,-182.5
28.765,-157.78
28.781,-133.26
28.796,-110.72
28.812,-92.21
28.828,-79.69
28.843,-74.21
28.859,-75.08
28.875,-79.81
28.890,-84.72
28.906,-86.32
28.921,-82.44
28.937,-72.86
28.953,-59.28
28.968,-44.38
28.984,-30.74
29.000,-19.96
29.015,-12.17
29.031,-6.44
29.046,-1.5
29.062,3.44
29.078,8.32
29.093,12.28
29.109,14.27
29.125,13.67
29.140,10.64
29.156,6.22
29.171,1.79
29.187,-1.51
29.203,-3.19
29.218,-3.54
29.234,-3.38
29.250,-3.63
29.265,-5.02
29.281,-7.94
29.296,-12.47
29.312,-18.43
29.328,-25.43
29.343,-32.77
29.359,-39.35
29.375,-43.77
29.390,-44.7
29.406,-41.19
29.421,-33.15
29.437,-21.25
29.453,-6.74
29.468,8.95
29.484,24.62
29.500,39.43
29.515,52.88
29.531,64.6
29.546,74.29
29.562,81.65
29.578,86.57
29.593,89.16
29.609,89.86
29.625,89.26
29.640,87.97
29.656,86.46
29.671,84.98
29.687,83.63
29.703,82.44
29.718,81.43
29.734,80.68
29.750,80.27
29.765,80.19
29.781,80.26
29.796,80.17
29.812,79.51
29.828,77.97
29.843,75.31
29.859,71.46
29.875,66.6
29.890,60.96
29.906,54.86
29.921,48.52
29.937,42.08
29.953,35.57
29.968,28.93
29.984,22.09
30.000,14.97
30.015,7.57
30.031,-0.05
30.046,-7.82
30.062,-15.71
30.078,-23.76
30.093,-32.15
30.109,-41.06
30.125,-50.54
30.140,-60.31
30.156,-69.59
30.171,-77.18
30.187,-81.67
30.203,-81.72
30.218,-76.59
30.234,-66.39
30.250,-52.1
30.265,-35.36
30.281,-18.0
30.296,-1.51
30.312,13.21
30.328,25.95
30.343,36.95
30.359,46.51
30.375,54.76
30.390,61.57
30.406,66.72
30.421,70.1
30.437,71.9
30.453,72.55
30.468,72.62
30.484,72.55
30.500,72.55
30.515,72.65
30.531,72.83
30.546,73.07
30.562,73.34
30.578,73.58
30.593,73.59
30.609,73.04
30.625,71.59
30.640,68.99
30.656,65.22
30.671,60.57
30.687,55.5
30.703,50.54
30.718,46.06
30.734,42.12
30.750,38.47
30.765,34.67
30.781,30.37
30.796,25.48
30.812,20.21
30.828,15.01
30.843,10.3
30.859,6.15
30.875,2.3
30.890,-1.78
30.906,-6.66
30.921,-12.6
30.937,-19.43
30.953,-26.48
30.968,-32.71
30.984,-36.85
31.000,-37.66
31.015,-34.21
31.031,-26.18
31.046,-13.93
31.062,1.5
31.078,18.58
31.093,35.76
31.109,51.74
31.125,65.73
31.140,77.45
31.156,87.02
31.171,94.64
31.187,100.53
31.203,104.94
31.218,108.0
31.234,109.94
31.250,110.99
31.265,111.45
31.281,111.59
31.296,111.68
31.312,112.03
31.328,112.94
31.343,114.7
31.359,117.45
31.375,121.14
31.390,125.51
31.406,130.09
31.421,134.34
31.437,137.81
31.453,140.15
31.468,141.25
31.484,141.2
31.500,140.35
31.515,139.21
31.531,138.25
31.546,137.64
31.562,136.89
31.578,134.7
31.593,129.03
31.609,117.71
31.625,99.13
31.640,72.96
31.656,40.37
31.671,3.78
31.687,-33.93
31.703,-70.1
31.718,-102.75
31.734,-130.67
31.750,-153.03
31.765,-169.04
31.781,-177.89
31.796,-179.15
31.812,-173.2
31.828,-161.54
31.843,-146.6
31.859,-131.11
31.875,-117.41
31.890,-106.88
31.906,-99.8
31.921,-95.75
31.937,-94.08
31.953,-94.37
31.968,-96.55
31.984,-100.52
32.000,-105.95
32.015,-112.0
32.031,-117.55
32.046,-121.23
32.062,-121.94
32.078,-118.8
32.093,-111.31
32.109,-99.41
32.125,-83.44
32.140,-64.43
32.156,-43.96
32.171,-24.14
32.187,-7.0
32.203,5.85
32.218,13.74
32.234,16.9
32.250,16.2
32.265,12.75
32.281,7.52
32.296,1.14
32.312,-5.94
32.328,-13.38
32.343,-20.69
32.359,-27.25
32.375,-32.47
32.390,-36.04
32.406,-37.98
32.421,-38.76
32.437,-39.06
32.453,-39.53
32.468,-40.58
32.484,-42.38
32.500,-44.9
32.515,-48.11
32.531,-51.94
32.546,-56.17
32.562,-60.25
32.578,-63.2
32.593,-63.73
32.609,-60.72
32.625,-53.64
32.640,-42.83
32.656,-29.39
32.671,-14.89
32.687,-0.72
32.703,12.1
32.718,23.16
32.734,32.46
32.750,40.11
32.765,46.21
32.781,50.76
32.796,53.76
32.812,55.34
32.828,55.85
32.843,55.73
32.859,55.51
32.875,55.58
32.890,56.11
32.906,57.06
32.921,58.28
32.937,59.51
32.953,60.51
32.968,61.09
32.984,61.04
33.000,60.26
33.015,58.67
33.031,56.28
33.046,53.23
33.062,49.69
33.078,45.86
33.093,41.86
33.109,37.69
33.125,33.31
33.140,28.73
33.156,24.0
33.171,19.19
33.187,14.46
33.203,9.89
33.218,5.53
33.234,1.34
33.250,-2.74
33.265,-6.89
33.281,-11.34
33.296,-16.3
33.312,-21.88
33.328,-27.76
33.343,-33.15
33.359,-36.85
33.375,-37.64
33.390,-34.67
33.406,-27.89
33.421,-18.05
33.437,-6.57
33.453,4.99
33.468,15.41
33.484,24.04
33.500,30.8
33.515,35.89
33.531,39.54
33.546,41.86
33.562,42.8
33.578,42.37
33.593,40.74
33.609,38.31
33.625,35.63
33.640,33.17
33.656,31.2
33.671,29.69
33.687,28.39
33.703,27.05
33.718,25.52
33.734,23.89
33.750,22.37
33.765,21.14
33.781,20.21
33.796,19.37
33.812,18.28
33.828,16.62
33.843,14.24
33.859,11.21
33.875,7.77
33.890,4.21
33.906,0.73
33.921,-2.56
33.937,-5.67
33.953,-8.65
33.968,-11.64
33.984,-14.82
34.000,-18.4
34.015,-22.52
34.031,-27.16
34.046,-32.03
34.062,-36.51
34.078,-39.69
34.093,-40.61
34.109,-38.52
34.125,-33.15
34.140,-24.79
34.156,-14.3
34.171,-2.75
34.187,8.72
34.203,19.27
34.218,28.35
34.234,35.72
34.250,41.26
34.265,44.91
34.281,46.7
34.296,46.75
34.312,45.44
34.328,43.27
34.343,40.91
34.359,38.9
34.375,37.59
34.390,37.04
34.406,36.99
34.421,37.01
34.437,36.66
34.453,35.71
34.468,34.1
34.484,32.04
34.500,29.74
34.515,27.41
34.531,25.06
34.546,22.56
34.562,19.65
34.578,16.19
34.593,12.21
34.609,7.92
34.625,3.6
34.640,-0.49
34.656,-4.26
34.671,-7.83
34.687,-11.39
34.703,-15.13
34.718,-19.14
34.734,-23.46
34.750,-28.03
34.765,-32.86
34.781,-37.83
34.796,-42.64
34.812,-46.73
34.828,-49.27
34.843,-49.43
34.859,-46.66
34.875,-40.98
34.890,-32.96
34.906,-23.56
34.921,-13.77
34.937,-4.35
34.953,4.32
34.968,12.11
34.984,19.0
35.000,24.84
35.015,29.44
35.031,32.59
35.046,34.27
35.062,34.64
35.078,34.1
35.093,33.14
35.109,32.2
35.125,31.57
35.140,31.33
35.156,31.45
35.171,31.8
35.187,32.25
35.203,32.68
35.218,32.96
35.234,32.93
35.250,32.41
35.265,31.21
35.281,29.3
35.296,26.85
35.312,24.1
35.328,21.35
35.343,18.7
35.359,16.05
35.375,13.1
35.390,9.52
35.406,5.13
35.421,0.02
35.437,-5.54
35.453,-11.2
35.468,-16.62
35.484,-21.64
35.500,-26.3
35.515,-30.79
35.531,-35.4
35.546,-40.31
35.562,-45.5
35.578,-50.6
35.593,-54.94
35.609,-57.69
35.625,-58.07
35.640,-55.67
35.656,-50.46
35.671,-42.92
35.687,-33.82
35.703,-24.03
35.718,-14.38
35.734,-5.42
35.750,2.54
35.765,9.41
35.781,15.18
35.796,19.87
35.812,23.44
35.828,25.83
35.843,27.05
35.859,27.27
35.875,26.86
35.890,26.3
35.906,25.99
35.921,26.13
35.937,26.73
35.953,27.61
35.968,28.52
35.984,29.31
36.000,29.85
36.015,30.08
36.031,29.95
36.046,29.43
36.062,28.51
36.078,27.31
36.093,25.97
36.109,24.63
36.125,23.39
36.140,22.17
36.156,20.86
36.171,19.28
36.187,17.3
36.203,14.91
36.218,12.16
36.234,9.14
36.250,5.95
36.265,2.65
36.281,-0.69
36.296,-4.02
36.312,-7.26
36.328,-10.37
36.343,-13.3
36.359,-16.05
36.375,-18.45
36.390,-20.24
36.406,-20.99
36.421,-20.13
36.437,-17.08
36.453,-11.42
36.468,-2.97
36.484,8.09
36.500,21.19
36.515,35.55
36.531,50.25
36.546,64.44
36.562,77.5
36.578,89.15
36.593,99.54
36.609,109.14
36.625,118.68
36.640,128.75
36.656,139.72
36.671,151.5
36.687,163.64
36.703,175.46
36.718,186.34
36.734,195.96
36.750,204.45
36.765,212.37
36.781,220.56
36.796,229.89
36.812,240.85
36.828,253.02
36.843,264.85
36.859,273.59
36.875,275.93
36.890,269.08
36.906,251.75
36.921,224.71
36.937,190.53
36.953,152.58
36.968,113.82
36.984,76.05
37.000,39.78
37.015,4.78
37.031,-29.13
37.046,-61.63
37.062,-92.02
37.078,-119.78
37.093,-145.02
37.109,-168.68
37.125,-192.05
37.140,-216.12
37.156,-240.92
37.171,-265.3
37.187,-287.29
37.203,-304.85
37.218,-316.72
37.234,-322.83
37.250,-324.23
37.265,-322.47
37.281,-318.75
37.296,-313.33
37.312,-305.48
37.328,-293.76
37.343,-276.75
37.359,-253.64
37.375,-224.62
37.390,-190.88
37.406,-154.29
37.421,-116.9
37.437,-80.46
37.453,-46.11
37.468,-14.27
37.484,15.1
37.500,42.31
37.515,67.55
37.531,90.69
37.546,111.15
37.562,127.92
37.578,139.88
37.593,146.15
37.609,146.62
37.625,142.24
37.640,134.99
37.656,127.45
37.671,121.93
37.687,119.77
37.703,121.01
37.718,124.49
37.734,128.43
37.750,131.12
37.765,131.36
37.781,128.6
37.796,122.93
37.812,114.8
37.828,104.94
37.843,94.2
37.859,83.1
37.875,71.73
37.890,59.61
37.906,45.93
37.921,30.02
37.937,11.94
37.953,-7.49
37.968,-26.88
37.984,-44.88
38.000,-60.77
38.015,-74.42
38.031,-86.07
38.046,-95.94
38.062,-103.82
38.078,-109.17
38.093,-111.53
38.109,-110.9
38.125,-107.98
38.140,-104.08
38.156,-100.66
38.171,-98.97
38.187,-99.75
38.203,-103.18
38.218,-108.96
38.234,-116.5
38.250,-124.92
38.265,-133.12
38.281,-139.92
38.296,-144.06
38.312,-144.62
38.328,-141.26
38.343,-134.51
38.359,-125.82
38.375,-117.28
38.390,-111.09
38.406,-108.97
38.421,-111.7
38.437,-119.09
38.453,-130.09
38.468,-143.03
38.484,-155.95
38.500,-166.84
38.515,-174.1
38.531,-176.72
38.546,-174.61
38.562,-168.57
38.578,-160.05
38.593,-150.68
38.609,-141.84
38.625,-134.41
38.640,-128.76
38.656,-124.9
38.671,-122.66
38.687,-121.64
38.703,-121.16
38.718,-120.12
38.734,-117.21
38.750,-111.23
38.765,-101.58
38.781,-88.51
38.796,-73.02
38.812,-56.61
38.828,-40.77
38.843,-26.62
38.859,-14.67
38.875,-4.82
38.890,3.26
38.906,9.94
38.921,15.36
38.937,19.46
38.953,22.11
38.968,23.32
38.984,23.38
39.000,22.8
39.015,22.21
39.031,22.02
39.046,22.37
39.062,23.08
39.078,23.81
39.093,24.29
39.109,24.43
39.125,24.42
39.140,24.6
39.156,25.35
39.171,26.81
39.187,28.84
39.203,30.98
39.218,32.58
39.234,33.24
39.250,32.81
39.265,31.5
39.281,29.71
39.296,27.83
39.312,25.94
39.328,23.87
39.343,21.25
39.359,17.66
39.375,12.81
39.390,6.55
39.406,-1.05
39.421,-9.63
39.437,-18.37
39.453,-26.08
39.468,-31.35
39.484,-32.92
39.500,-30.15
39.515,-23.17
39.531,-12.93
39.546,-0.8
39.562,11.84
39.578,23.9
39.593,34.81
39.609,44.4
39.625,52.78
39.640,59.99
39.656,66.05
39.671,70.84
39.687,74.22
39.703,76.23
39.718,77.08
39.734,77.22
39.750,77.22
39.765,77.5
39.781,78.23
39.796,79.38
39.812,80.7
39.828,81.95
39.843,82.9
39.859,83.34
39.875,82.98
39.890,81.43
39.906,78.22
39.921,72.96
39.937,65.57
39.953,56.3
39.968,45.66
39.984,34.31
40.000,22.81
40.015,11.61
40.031,0.94
40.046,-9.08
40.062,-18.34
40.078,-26.76
40.093,-34.26
40.109,-40.85
40.125,-46.6
40.140,-51.69
40.156,-56.28
40.171,-60.47
40.187,-64.11
40.203,-66.74
40.218,-67.56
40.234,-65.63
40.250,-60.17
40.265,-50.88
40.281,-38.12
40.296,-22.89
40.312,-6.58
40.328,9.51
40.343,24.36
40.359,37.48
40.375,48.74
40.390,58.24
40.406,66.14
40.421,72.44
40.437,77.17
40.453,80.3
40.468,82.01
40.484,82.62
40.500,82.58
40.515,82.31
40.531,82.07
40.546,81.9
40.562,81.56
40.578,80.83
40.593,79.45
40.609,77.38
40.625,74.66
40.640,71.42
40.656,67.67
40.671,63.38
40.687,58.5
40.703,53.06
40.718,47.23
40.734,41.25
40.750,35.34
40.765,29.59
40.781,24.04
40.796,18.67
40.812,13.48
40.828,8.51
40.843,3.78
40.859,-0.87
40.875,-5.62
40.890,-10.8
40.906,-16.65
40.921,-23.3
40.937,-30.62
40.953,-38.23
40.968,-45.46
40.984,-51.39
41.000,-55.01
41.015,-55.38
41.031,-51.98
41.046,-44.86
41.062,-34.7
41.078,-22.56
41.093,-9.68
41.109,2.93
41.125,14.58
41.140,24.9
41.156,33.75
41.171,41.07
41.187,46.86
41.203,51.11
41.218,53.85
41.234,55.14
41.250,55.12
41.265,54.05
41.281,52.23
41.296,50.08
41.312,47.94
41.328,46.1
41.343,44.69
41.359,43.61
41.375,42.68
41.390,41.7
41.406,40.5
41.421,38.97
41.437,37.04
41.453,34.67
41.468,31.84
41.484,28.53
41.500,24.77
41.515,20.62
41.531,16.18
41.546,11.58
41.562,6.96
41.578,2.49
41.593,-1.76
41.609,-5.76
41.625,-9.59
41.640,-13.36
41.656,-17.17
41.671,-21.09
41.687,-25.13
41.703,-29.33
41.718,-33.67
41.734,-38.07
41.750,-42.26
41.765,-45.63
41.781,-47.29
41.796,-46.27
41.812,-41.82
41.828,-33.75
41.843,-22.49
41.859,-9.0
41.875,5.52
41.890,19.92
41.906,33.26
41.921,44.88
41.937,54.39
41.953,61.63
41.968,66.67
41.984,69.88
42.000,71.9
42.015,73.49
42.031,75.23
42.046,77.28
42.062,79.0
42.078,79.03
42.093,75.59
42.109,67.25
42.125,53.48
42.140,35.19
42.156,14.5
42.171,-5.81
42.187,-23.25
42.203,-36.23
42.218,-44.39
42.234,-48.34
42.250,-49.05
42.265,-47.51
42.281,-44.5
42.296,-40.67
42.312,-36.63
42.328,-33.09
42.343,-30.69
42.359,-29.83
42.375,-30.47
42.390,-32.15
42.406,-34.12
42.421,-35.68
42.437,-36.43
42.453,-36.38
42.468,-35.96
42.484,-35.75
42.500,-36.29
42.515,-37.85
42.531,-40.36
42.546,-43.32
42.562,-45.93
42.578,-47.17
42.593,-46.12
42.609,-42.1
42.625,-35.02
42.640,-25.31
42.656,-13.94
42.671,-2.11
42.687,9.15
42.703,19.17
42.718,27.68
42.734,34.66
42.750,40.13
42.765,43.99
42.781,45.93
42.796,45.61
42.812,42.71
42.828,37.18
42.843,29.28
42.859,19.7
42.875,9.63
42.890,0.59
42.906,-5.87
42.921,-8.56
42.937,-7.08
42.953,-1.97
42.968,5.44
42.984,13.45
43.000,20.58
43.015,25.95
43.031,29.43
43.046,31.5
43.062,32.86
43.078,34.15
43.093,35.68
43.109,37.36
43.125,38.72
43.140,39.05
43.156,37.61
43.171,33.83
43.187,27.53
43.203,18.96
43.218,8.79
43.234,-2.14
43.250,-13.04
43.265,-23.42
43.281,-33.11
43.296,-42.24
43.312,-51.06
43.328,-59.67
43.343,-67.84
43.359,-74.95
43.375,-80.03
43.390,-82.04
43.406,-80.15
43.421,-73.97
43.437,-63.73
43.453,-50.29
43.468,-34.93
43.484,-19.05
43.500,-3.94
43.515,9.34
43.531,20.19
43.546,28.35
43.562,33.9
43.578,37.17
43.593,38.6
43.609,38.66
43.625,37.8
43.640,36.39
43.656,34.63
43.671,32.57
43.687,30.2
43.703,27.45
43.718,24.34
43.734,21.01
43.750,17.7
43.765,14.66
43.781,12.13
43.796,10.23
43.812,8.94
43.828,8.17
43.843,7.63
43.859,7.02
43.875,6.0
43.890,4.3
43.906,1.8
43.921,-1.37
43.937,-4.94
43.953,-8.55
43.968,-11.91
43.984,-14.96
44.000,-17.78
44.015,-20.59
44.031,-23.7
44.046,-27.36
44.062,-31.76
44.078,-36.98
44.093,-42.92
44.109,-49.21
44.125,-55.17
44.140,-59.79
44.156,-61.91
44.171,-60.6
44.187,-55.34
44.203,-46.45
44.218,-34.93
44.234,-22.24
44.250,-9.84
44.265,1.05
44.281,9.78
44.296,16.2
44.312,20.42
44.328,22.67
44.343,23.04
44.359,21.58
44.375,18.42
44.390,13.88
44.406,8.48
44.421,2.83
44.437,-2.48
44.453,-7.1
44.468,-10.85
44.484,-13.75
44.500,-15.89
44.515,-17.38
44.531,-18.25
44.546,-18.47
44.562,-18.08
44.578,-17.13
44.593,-15.74
44.609,-13.99
44.625,-11.91
44.640,-9.35
44.656,-6.14
44.671,-2.11
44.687,2.77
44.703,8.41
44.718,14.64
44.734,21.32
44.750,28.43
44.765,36.01
44.781,44.07
44.796,52.52
44.812,61.09
44.828,69.43
44.843,77.16
44.859,83.91
44.875,89.35
44.890,93.17
44.906,95.12
44.921,95.14
44.937,93.37
44.953,90.19
44.968,86.09
44.984,81.54
45.000,76.92
45.015,72.49
45.031,68.34
45.046,64.38
45.062,60.26
45.078,55.44
45.093,49.34
45.109,41.66
45.125,32.61
45.140,22.96
45.156,13.79
45.171,6.07
45.187,0.29
45.203,-3.78
45.218,-6.77
45.234,-9.39
45.250,-12.01
45.265,-14.66
45.281,-17.13
45.296,-19.31
45.312,-21.37
45.328,-23.71
45.343,-26.81
45.359,-30.96
45.375,-36.02
45.390,-41.5
45.406,-46.78
45.421,-51.35
45.437,-55.05
45.453,-58.08
45.468,-60.87
45.484,-63.94
45.500,-67.71
45.515,-72.38
45.531,-77.98
45.546,-84.36
45.562,-91.12
45.578,-97.54
45.593,-102.61
45.609,-105.12
45.625,-103.97
45.640,-98.59
45.656,-89.12
45.671,-76.51
45.687,-62.19
45.703,-47.72
45.718,-34.31
45.734,-22.69
45.750,-13.08
45.765,-5.37
45.781,0.66
45.796,5.21
45.812,8.45
45.828,10.54
45.843,11.66
45.859,12.12
45.875,12.12
45.890,11.9
45.906,11.47
45.921,10.74
45.937,9.55
45.953,7.86
45.968,5.84
45.984,3.82
46.000,2.22
46.015,1.29
46.031,1.06
46.046,1.13
46.062,0.94
46.078,-0.11
46.093,-2.38
46.109,-5.85
46.125,-10.18
46.140,-14.81
46.156,-19.28
46.171,-23.34
46.187,-27.05
46.203,-30.69
46.218,-34.64
46.234,-39.18
46.250,-44.35
46.265,-49.8
46.281,-54.84
46.296,-58.49
46.312,-59.76
46.328,-57.88
46.343,-52.61
46.359,-44.26
46.375,-33.71
46.390,-22.02
46.406,-10.25
46.421,0.89
46.437,10.99
46.453,19.89
46.468,27.6
46.484,34.06
46.500,39.31
46.515,43.38
46.531,46.48
46.546,48.85
46.562,50.75
46.578,52.35
46.593,53.67
46.609,54.69
46.625,55.32
46.640,55.62
46.656,55.78
46.671,56.08
46.687,56.72
46.703,57.82
46.718,59.27
46.734,60.84
46.750,62.28
46.765,63.36
46.781,63.98
46.796,64.09
46.812,63.69
46.828,62.71
46.843,61.11
46.859,58.85
46.875,55.98
46.890,52.65
46.906,48.99
46.921,45.19
46.937,41.35
46.953,37.57
46.968,33.96
46.984,30.61
47.000,27.6
47.015,24.94
47.031,22.55
47.046,20.18
47.062,17.57
47.078,14.51
47.093,10.94
47.109,7.04
47.125,3.12
47.140,-0.5
47.156,-3.67
47.171,-6.47
47.187,-9.17
47.203,-12.12
47.218,-15.48
47.234,-19.2
47.250,-23.03
47.265,-26.69
47.281,-29.99
47.296,-32.94
47.312,-35.63
47.328,-38.18
47.343,-40.66
47.359,-43.06
47.375,-45.37
47.390,-47.6
47.406,-49.83
47.421,-52.2
47.437,-54.85
47.453,-57.88
47.468,-61.27
47.484,-64.97
47.500,-68.79
47.515,-72.58
47.531,-76.12
47.546,-79.27
47.562,-82.05
47.578,-84.55
47.593,-87.04
47.609,-89.84
47.625,-93.33
47.640,-97.74
47.656,-103.1
47.671,-108.95
47.687,-114.29
47.703,-117.73
47.718,-117.81
47.734,-113.46
47.750,-104.35
47.765,-91.06
47.781,-74.88
47.796,-57.45
47.812,-40.26
47.828,-24.39
47.843,-10.42
47.859,1.41
47.875,10.99
47.890,18.26
47.906,23.2
47.921,25.98
47.937,27.03
47.953,27.0
47.968,26.6
47.984,26.42
48.000,26.75
48.015,27.54
48.031,28.55
48.046,29.52
48.062,30.23
48.078,30.6
48.093,30.59
48.109,30.13
48.125,29.09
48.140,27.31
48.156,24.7
48.171,21.31
48.187,17.39
48.203,13.24
48.218,9.24
48.234,5.58
48.250,2.28
48.265,-0.85
48.281,-4.15
48.296,-7.95
48.312,-12.5
48.328,-17.74
48.343,-23.32
48.359,-28.5
48.375,-32.34
48.390,-33.81
48.406,-32.18
48.421,-27.16
48.437,-19.13
48.453,-8.99
48.468,2.07
48.484,12.87
48.500,22.55
48.515,30.61
48.531,36.83
48.546,41.18
48.562,43.62
48.578,44.16
48.593,42.87
48.609,40.06
48.625,36.15
48.640,31.71
48.656,27.29
48.671,23.32
48.687,20.09
48.703,17.72
48.718,16.16
48.734,15.18
48.750,14.44
48.765,13.5
48.781,12.02
48.796,9.81
48.812,6.92
48.828,3.54
48.843,-0.03
48.859,-3.54
48.875,-6.89
48.890,-10.12
48.906,-13.38
48.921,-16.9
48.937,-20.9
48.953,-25.54
48.968,-30.79
48.984,-36.35
49.000,-41.45
49.015,-45.05
49.031,-46.05
49.046,-43.65
49.062,-37.61
49.078,-28.34
49.093,-16.81
49.109,-4.2
49.125,8.4
49.140,20.3
49.156,31.06
49.171,40.53
49.187,48.51
49.203,54.76
49.218,59.05
49.234,61.24
49.250,61.56
49.265,60.43
49.281,58.43
49.296,56.07
49.312,53.6
49.328,51.03
49.343,48.24
49.359,45.21
49.375,42.01
49.390,38.89
49.406,36.05
49.421,33.55
49.437,31.18
49.453,28.61
49.468,25.47
49.484,21.47
49.500,16.55
49.515,10.79
49.531,4.42
49.546,-2.27
49.562,-9.02
49.578,-15.65
49.593,-22.1
49.609,-28.46
49.625,-34.97
49.640,-41.83
49.656,-49.18
49.671,-56.72
49.687,-63.75
49.703,-69.18
49.718,-71.71
49.734,-70.27
49.750,-64.33
49.765,-54.26
49.781,-41.21
49.796,-26.83
49.812,-12.71
49.828,0.05
49.843,11.09
49.859,20.64
49.875,29.08
49.890,36.56
49.906,42.85
49.921,47.44
49.937,49.92
49.953,50.25
49.968,48.92
49.984,46.7
50.000,44.31
50.015,42.21
50.031,40.49
50.046,38.98
50.062,37.54
50.078,36.05
50.093,34.49
50.109,32.87
50.125,31.05
50.140,28.87
50.156,26.15
50.171,22.86
50.187,19.1
50.203,15.07
50.218,10.89
50.234,6.53
50.250,1.91
50.265,-3.08
50.281,-8.33
50.296,-13.63
50.312,-18.61
50.328,-23.02
50.343,-26.72
50.359,-29.73
50.375,-32.26
50.390,-34.57
50.406,-36.97
50.421,-39.76
50.437,-43.13
50.453,-46.99
50.468,-50.88
50.484,-53.84
50.500,-54.73
50.515,-52.54
50.531,-46.83
50.546,-37.89
50.562,-26.66
50.578,-14.34
50.593,-2.02
50.609,9.55
50.625,20.03
50.640,29.27
50.656,37.1
50.671,43.27
50.687,47.53
50.703,49.79
50.718,50.24
50.734,49.32
50.750,47.53
50.765,45.35
50.781,43.02
50.796,40.6
50.812,38.03
50.828,35.24
50.843,32.31
50.859,29.34
50.875,26.54
50.890,24.09
50.906,22.02
50.921,20.22
50.937,18.4
50.953,16.3
50.968,13.71
50.984,10.63
51.000,7.23
51.015,3.76
51.031,0.39
51.046,-2.89
51.062,-6.27
51.078,-9.99
51.093,-14.16
51.109,-18.75
51.125,-23.52
51.140,-28.25
51.156,-32.87
51.171,-37.45
51.187,-42.2
51.203,-47.24
51.218,-52.55
51.234,-57.73
51.250,-62.14
51.265,-65.02
51.281,-65.59
51.296,-63.39
51.312,-58.33
51.328,-50.82
51.343,-41.57
51.359,-31.42
51.375,-21.05
51.390,-10.88
51.406,-1.13
51.421,8.1
51.437,16.68
51.453,24.42
51.468,31.16
51.484,36.87
51.500,41.76
51.515,46.18
51.531,50.5
51.546,54.95
51.562,59.58
51.578,64.22
51.593,68.71
51.609,72.83
51.625,76.43
51.640,79.38
51.656,81.5
51.671,82.59
51.687,82.38
51.703,80.71
51.718,77.49
51.734,72.87
51.750,67.12
51.765,60.7
51.781,54.01
51.796,47.38
51.812,40.97
51.828,34.71
51.843,28.42
51.859,21.94
51.875,15.12
51.890,7.99
51.906,0.69
51.921,-6.55
51.937,-13.47
51.953,-19.75
51.968,-25.19
51.984,-29.72
52.000,-33.5
52.015,-36.96
52.031,-40.69
52.046,-45.14
52.062,-50.38
52.078,-55.83
52.093,-60.37
52.109,-62.64
52.125,-61.53
52.140,-56.58
52.156,-48.12
52.171,-37.1
52.187,-24.72
52.203,-12.09
52.218,0.01
52.234,11.11
52.250,20.96
52.265,29.4
52.281,36.32
52.296,41.59
52.312,45.21
52.328,47.37
52.343,48.44
52.359,48.88
52.375,49.13
52.390,49.53
52.406,50.16
52.421,50.96
52.437,51.7
52.453,52.13
52.468,52.2
52.484,51.95
52.500,51.6
52.515,51.33
52.531,51.23
52.546,51.24
52.562,51.23
52.578,51.08
52.593,50.78
52.609,50.53
52.625,50.59
52.640,51.23
52.656,52.59
52.671,54.52
52.687,56.73
52.703,58.92
52.718,60.84
52.734,62.45
52.750,63.92
52.765,65.58
52.781,67.78
52.796,70.91
52.812,75.05
52.828,80.08
52.843,85.57
52.859,90.93
52.875,95.61
52.890,99.44
52.906,102.75
52.921,106.43
52.937,111.81
52.953,120.14
52.968,132.34
52.984,148.45
53.000,167.49
53.015,187.22
53.031,204.59
53.046,216.2
53.062,219.25
53.078,212.42
53.093,196.22
53.109,172.88
53.125,145.46
53.140,116.93
53.156,89.41
53.171,64.1
53.187,41.56
53.203,22.29
53.218,7.06
53.234,-3.47
53.250,-9.26
53.265,-11.4
53.281,-11.99
53.296,-13.45
53.312,-17.69
53.328,-25.57
53.343,-37.11
53.359,-51.97
53.375,-70.08
53.390,-91.55
53.406,-116.0
53.421,-141.89
53.437,-166.45
53.453,-186.33
53.468,-199.08
53.484,-204.24
53.500,-203.58
53.515,-200.36
53.531,-197.84
53.546,-198.01
53.562,-201.28
53.578,-206.82
53.593,-213.39
53.609,-220.02
53.625,-225.99
53.640,-230.72
53.656,-233.49
53.671,-233.57
53.687,-230.61
53.703,-225.09
53.718,-218.31
53.734,-212.0
53.750,-207.67
53.765,-205.95
53.781,-206.38
53.796,-207.64
53.812,-208.15
53.828,-206.67
53.843,-202.7
53.859,-196.42
53.875,-188.48
53.890,-179.59
53.906,-170.29
53.921,-160.69
53.937,-150.56
53.953,-139.31
53.968,-126.33
53.984,-111.2
54.000,-94.02
54.015,-75.6
54.031,-57.34
54.046,-40.89
54.062,-27.5
54.078,-17.71
54.093,-11.12
54.109,-6.75
54.125,-3.47
54.140,-0.41
54.156,2.79
54.171,6.13
54.187,9.42
54.203,12.55
54.218,15.52
54.234,18.32
54.250,20.86
54.265,22.85
54.281,23.97
54.296,23.95
54.312,22.78
54.328,20.7
54.343,18.11
54.359,15.46
54.375,12.97
54.390,10.73
54.406,8.52
54.421,6.13
54.437,3.36
54.453,0.16
54.468,-3.42
54.484,-7.19
54.500,-10.97
54.515,-14.73
54.531,-18.42
54.546,-22.21
54.562,-26.26
54.578,-30.64
54.593,-35.22
54.609,-39.65
54.625,-43.34
54.640,-45.56
54.656,-45.66
54.671,-43.2
54.687,-38.09
54.703,-30.62
54.718,-21.32
54.734,-10.86
54.750,0.11
54.765,11.05
54.781,21.63
54.796,31.65
54.812,41.0
54.828,49.52
54.843,57.03
54.859,63.25
54.875,67.91
54.890,70.77
54.906,71.85
54.921,71.37
54.937,69.8
54.953,67.74
54.968,65.73
54.984,64.2
55.000,63.36
55.015,63.25
55.031,63.76
55.046,64.7
55.062,65.71
55.078,66.38
55.093,66.32
55.109,65.2
55.125,62.97
55.140,59.77
55.156,55.92
55.171,51.86
55.187,47.95
55.203,44.37
55.218,41.07
55.234,37.78
55.250,34.19
55.265,29.97
55.281,25.01
55.296,19.45
55.312,13.59
55.328,7.8
55.343,2.39
55.359,-2.5
55.375,-6.92
55.390,-11.1
55.406,-15.4
55.421,-20.25
55.437,-26.07
55.453,-33.08
55.468,-41.19
55.484,-49.73
55.500,-57.61
55.515,-63.45
55.531,-65.99
55.546,-64.53
55.562,-59.08
55.578,-50.29
55.593,-39.29
55.609,-27.27
55.625,-15.16
55.640,-3.64
55.656,6.91
55.671,16.35
55.687,24.51
55.703,31.3
55.718,36.66
55.734,40.64
55.750,43.44
55.765,45.39
55.781,46.9
55.796,48.3
55.812,49.84
55.828,51.48
55.843,52.97
55.859,54.02
55.875,54.37
55.890,53.92
55.906,52.77
55.921,51.22
55.937,49.51
55.953,47.86
55.968,46.24
55.984,44.45
56.000,42.2
56.015,39.25
56.031,35.49
56.046,30.96
56.062,25.79
56.078,20.1
56.093,13.97
56.109,7.46
56.125,0.69
56.140,-6.18
56.156,-12.87
56.171,-19.03
56.187,-24.4
56.203,-28.86
56.218,-32.49
56.234,-35.49
56.250,-38.2
56.265,-40.97
56.281,-44.15
56.296,-48.03
56.312,-52.79
56.328,-58.52
56.343,-65.09
56.359,-72.06
56.375,-78.59
56.390,-83.57
56.406,-85.77
56.421,-84.31
56.437,-78.89
56.453,-70.0
56.468,-58.7
56.484,-46.28
56.500,-33.77
56.515,-21.74
56.531,-10.34
56.546,0.45
56.562,10.6
56.578,19.88
56.593,28.0
56.609,34.8
56.625,40.33
56.640,44.83
56.656,48.55
56.671,51.68
56.687,54.27
56.703,56.36
56.718,58.04
56.734,59.52
56.750,61.07
56.765,62.89
56.781,64.99
56.796,67.16
56.812,68.96
56.828,69.84
56.843,69.32
56.859,67.01
56.875,62.89
56.890,57.33
56.906,51.08
56.921,45.07
56.937,40.19
56.953,36.95
56.968,35.29
56.984,34.66
57.000,34.19
57.015,33.0
57.031,30.53
57.046,26.54
57.062,21.19
57.078,14.91
57.093,8.2
57.109,1.49
57.125,-4.92
57.140,-11.0
57.156,-17.07
57.171,-23.76
57.187,-31.87
57.203,-41.98
57.218,-54.05
57.234,-67.14
57.250,-79.45
57.265,-88.77
57.281,-93.17
57.296,-91.56
57.312,-84.06
57.328,-71.91
57.343,-56.91
57.359,-40.95
57.375,-25.48
57.390,-11.43
57.406,0.7
57.421,10.62
57.437,18.18
57.453,23.36
57.468,26.3
57.484,27.45
57.500,27.45
57.515,26.95
57.531,26.42
57.546,26.02
57.562,25.62
57.578,24.99
57.593,24.01
57.609,22.72
57.625,21.32
57.640,20.16
57.656,19.46
57.671,19.3
57.687,19.58
57.703,20.04
57.718,20.37
57.734,20.31
57.750,19.68
57.765,18.43
57.781,16.55
57.796,14.1
57.812,11.09
57.828,7.53
57.843,3.47
57.859,-0.89
57.875,-5.27
57.890,-9.3
57.906,-12.7
57.921,-15.39
57.937,-17.51
57.953,-19.43
57.968,-21.62
57.984,-24.56
58.000,-28.51
58.015,-33.48
58.031,-38.96
58.046,-44.05
58.062,-47.49
58.078,-48.07
58.093,-44.93
58.109,-37.88
58.125,-27.56
58.140,-15.16
58.156,-2.22
58.171,9.96
58.187,20.46
58.203,28.83
58.218,35.13
58.234,39.6
58.250,42.62
58.265,44.54
58.281,45.67
58.296,46.27
58.312,46.58
58.328,46.76
58.343,46.79
58.359,46.68
58.375,46.35
58.390,45.76
58.406,44.87
58.421,43.73
58.437,42.39
58.453,40.9
58.468,39.27
58.484,37.49
58.500,35.55
58.515,33.45
58.531,31.2
58.546,28.68
58.562,25.81
58.578,22.48
58.593,18.69
58.609,14.53
58.625,10.28
58.640,6.27
58.656,2.74
58.671,-0.21
58.687,-2.71
58.703,-5.03
58.718,-7.49
58.734,-10.31
58.750,-13.7
58.765,-17.74
58.781,-22.36
58.796,-27.38
58.812,-32.28
58.828,-36.22
58.843,-38.17
58.859,-37.1
58.875,-32.41
58.890,-24.14
58.906,-13.0
58.921,-0.19
58.937,12.97
58.953,25.38
58.968,36.29
58.984,45.24
59.000,52.03
59.015,56.53
59.031,58.69
59.046,58.65
59.062,56.75
59.078,53.54
59.093,49.68
59.109,45.71
59.125,41.96
59.140,38.53
59.156,35.48
59.171,32.84
59.187,30.79
59.203,29.53
59.218,29.18
59.234,29.72
59.250,30.81
59.265,31.85
59.281,32.2
59.296,31.34
59.312,29.01
59.328,25.25
59.343,20.32
59.359,14.57
59.375,8.36
59.390,2.07
59.406,-4.05
59.421,-9.73
59.437,-14.77
59.453,-19.06
59.468,-22.66
59.484,-25.78
59.500,-28.82
59.515,-32.27
59.531,-36.51
59.546,-41.74
59.562,-47.75
59.578,-53.91
59.593,-59.23
59.609,-62.58
59.625,-62.89
59.640,-59.6
59.656,-52.74
59.671,-42.97
59.687,-31.41
59.703,-19.37
59.718,-8.09
59.734,1.61
59.750,9.36
59.765,15.29
59.781,19.75
59.796,23.17
59.812,25.89
59.828,28.04
59.843,29.7
59.859,30.84
59.875,31.44
59.890,31.52
59.906,31.1
59.921,30.18
59.937,28.82
59.953,27.13
59.968,25.25
59.984,23.37
