timestamp,value
00.000,20.18
00.015,16.62
00.031,13.0
00.046,9.7
00.062,6.9
00.078,4.55
00.093,2.37
00.109,0.03
00.125,-2.69
00.140,-5.75
00.156,-8.92
00.171,-11.88
00.187,-14.45
00.203,-16.74
00.218,-19.06
00.234,-21.86
00.250,-25.5
00.265,-30.15
00.281,-35.65
00.296,-41.54
00.312,-47.15
00.328,-51.63
00.343,-54.2
00.359,-54.26
00.375,-51.49
00.390,-45.99
00.406,-38.19
00.421,-28.91
00.437,-19.13
00.453,-9.85
00.468,-1.76
00.484,4.78
00.500,9.85
00.515,13.74
00.531,16.77
00.546,19.19
00.562,21.04
00.578,22.25
00.593,22.7
00.609,22.38
00.625,21.44
00.640,20.19
00.656,18.97
00.671,18.1
00.687,17.8
00.703,18.14
00.718,19.01
00.734,20.18
00.750,21.34
00.765,22.18
00.781,22.46
00.796,22.01
00.812,20.8
00.828,18.86
00.843,16.3
00.859,13.25
00.875,9.86
00.890,6.25
00.906,2.51
00.921,-1.29
00.937,-5.1
00.953,-8.89
00.968,-12.59
00.984,-16.09
01.000,-19.31
01.015,-22.26
01.031,-25.06
01.046,-27.98
01.062,-31.31
01.078,-35.19
01.093,-39.4
01.109,-43.31
01.125,-45.99
01.140,-46.41
01.156,-43.93
01.171,-38.46
01.187,-30.58
01.203,-21.29
01.218,-11.73
01.234,-2.84
01.250,4.84
01.265,11.19
01.281,16.35
01.296,20.46
01.312,23.61
01.328,25.77
01.343,26.9
01.359,27.09
01.375,26.56
01.390,25.63
01.406,24.67
01.421,23.93
01.437,23.55
01.453,23.52
01.468,23.78
01.484,24.21
01.500,24.68
01.515,24.96
01.531,24.81
01.546,24.05
01.562,22.64
01.578,20.63
01.593,18.17
01.609,15.38
01.625,12.23
01.640,8.64
01.656,4.64
01.671,0.38
01.687,-3.78
01.703,-7.46
01.718,-10.4
01.734,-12.68
01.750,-14.53
01.765,-16.26
01.781,-18.05
01.796,-19.88
01.812,-21.65
01.828,-23.31
01.843,-24.98
01.859,-26.84
01.875,-29.02
01.890,-31.35
01.906,-33.32
01.921,-34.12
01.937,-33.0
01.953,-29.56
01.968,-23.96
01.984,-16.92
02.000,-9.47
02.015,-2.68
02.031,2.74
02.046,6.57
02.062,9.08
02.078,10.77
02.093,12.13
02.109,13.54
02.125,15.19
02.140,17.16
02.156,19.47
02.171,22.04
02.187,24.73
02.203,27.23
02.218,29.23
02.234,30.39
02.250,30.59
02.265,29.89
02.281,28.42
02.296,26.21
02.312,23.09
02.328,18.71
02.343,12.8
02.359,5.44
02.375,-2.87
02.390,-11.24
02.406,-18.74
02.421,-24.74
02.437,-29.16
02.453,-32.43
02.468,-35.22
02.484,-38.04
02.500,-40.99
02.515,-43.73
02.531,-45.73
02.546,-46.63
02.562,-46.45
02.578,-45.69
02.593,-45.09
02.609,-45.38
02.625,-46.94
02.640,-49.77
02.656,-53.55
02.671,-57.84
02.687,-62.2
02.703,-66.2
02.718,-69.19
02.734,-70.41
02.750,-69.0
02.765,-64.32
02.781,-56.24
02.796,-45.31
02.812,-32.64
02.828,-19.6
02.843,-7.33
02.859,3.54
02.875,12.91
02.890,21.0
02.906,28.13
02.921,34.53
02.937,40.19
02.953,45.04
02.968,48.92
02.984,51.73
03.000,53.49
03.015,54.29
03.031,54.39
03.046,54.14
03.062,53.94
03.078,54.07
03.093,54.59
03.109,55.27
03.125,55.67
03.140,55.28
03.156,53.64
03.171,50.61
03.187,46.3
03.203,41.11
03.218,35.58
03.234,30.21
03.250,25.28
03.265,20.83
03.281,16.71
03.296,12.69
03.312,8.59
03.328,4.3
03.343,-0.14
03.359,-4.63
03.375,-8.98
03.390,-13.01
03.406,-16.62
03.421,-19.83
03.437,-22.89
03.453,-26.21
03.468,-30.23
03.484,-35.13
03.500,-40.67
03.515,-46.05
03.531,-50.12
03.546,-51.74
03.562,-50.16
03.578,-45.31
03.593,-37.75
03.609,-28.49
03.625,-18.49
03.640,-8.58
03.656,0.72
03.671,9.09
03.687,16.34
03.703,22.37
03.718,27.14
03.734,30.85
03.750,33.75
03.765,36.11
03.781,38.08
03.796,39.65
03.812,40.74
03.828,41.38
03.843,41.79
03.859,42.29
03.875,43.29
03.890,44.92
03.906,47.09
03.921,49.45
03.937,51.54
03.953,52.97
03.968,53.52
03.984,53.18
04.000,52.08
04.015,50.42
04.031,48.29
04.046,45.75
04.062,42.77
04.078,39.36
04.093,35.68
04.109,32.09
04.125,29.11
04.140,27.27
04.156,26.98
04.171,28.36
04.187,31.34
04.203,35.82
04.218,41.74
04.234,49.21
04.250,58.28
04.265,68.73
04.281,79.93
04.296,90.99
04.312,101.06
04.328,109.83
04.343,117.7
04.359,125.48
04.375,134.03
04.390,143.53
04.406,153.26
04.421,161.65
04.437,166.81
04.453,167.04
04.468,161.37
04.484,149.52
04.500,131.87
04.515,109.22
04.531,82.76
04.546,54.17
04.562,25.54
04.578,-0.78
04.593,-22.64
04.609,-38.61
04.625,-48.25
04.640,-52.1
04.656,-51.28
04.671,-47.15
04.687,-41.01
04.703,-34.11
04.718,-27.85
04.734,-23.7
04.750,-23.08
04.765,-26.82
04.781,-34.86
04.796,-46.14
04.812,-58.96
04.828,-71.46
04.843,-82.17
04.859,-90.31
04.875,-95.82
04.890,-99.37
04.906,-101.95
04.921,-104.72
04.937,-108.53
04.953,-113.65
04.968,-119.6
04.984,-125.29
05.000,-129.57
05.015,-131.6
05.031,-131.37
05.046,-129.51
05.062,-127.03
05.078,-124.73
05.093,-122.87
05.109,-121.07
05.125,-118.65
05.140,-115.01
05.156,-109.84
05.171,-103.35
05.187,-96.06
05.203,-88.69
05.218,-81.95
05.234,-76.29
05.250,-71.83
05.265,-68.31
05.281,-65.31
05.296,-62.38
05.312,-59.26
05.328,-56.02
05.343,-52.89
05.359,-50.08
05.375,-47.51
05.390,-44.76
05.406,-41.24
05.421,-36.49
05.437,-30.42
05.453,-23.32
05.468,-15.59
05.484,-7.6
05.500,0.53
05.515,8.83
05.531,17.21
05.546,25.3
05.562,32.43
05.578,37.88
05.593,41.09
05.609,41.79
05.625,40.14
05.640,36.49
05.656,31.38
05.671,25.41
05.687,19.17
05.703,13.19
05.718,7.82
05.734,3.1
05.750,-1.18
05.765,-5.31
05.781,-9.48
05.796,-13.58
05.812,-17.27
05.828,-20.03
05.843,-21.42
05.859,-21.19
05.875,-19.29
05.890,-15.74
05.906,-10.68
05.921,-4.43
05.937,2.4
05.953,9.09
05.968,14.99
05.984,19.81
06.000,23.84
06.015,27.67
06.031,31.79
06.046,36.14
06.062,40.03
06.078,42.42
06.093,42.58
06.109,40.58
06.125,37.29
06.140,33.92
06.156,31.49
06.171,30.34
06.187,30.17
06.203,30.39
06.218,30.55
06.234,30.48
06.250,30.28
06.265,30.06
06.281,29.78
06.296,29.3
06.312,28.36
06.328,26.83
06.343,24.73
06.359,22.18
06.375,19.29
06.390,16.15
06.406,12.79
06.421,9.31
06.437,5.86
06.453,2.56
06.468,-0.52
06.484,-3.45
06.500,-6.43
06.515,-9.69
06.531,-13.33
06.546,-17.37
06.562,-21.73
06.578,-26.32
06.593,-31.0
06.609,-35.45
06.625,-39.17
06.640,-41.55
06.656,-42.0
06.671,-40.26
06.687,-36.45
06.703,-31.09
06.718,-24.85
06.734,-18.29
06.750,-11.71
06.765,-5.16
06.781,1.33
06.796,7.64
06.812,13.45
06.828,18.38
06.843,22.2
06.859,24.89
06.875,26.71
06.890,28.12
06.906,29.65
06.921,31.77
06.937,34.78
06.953,38.8
06.968,43.66
06.984,49.05
07.000,54.6
07.015,60.06
07.031,65.34
07.046,70.46
07.062,75.49
07.078,80.23
07.093,84.26
07.109,87.01
07.125,88.03
07.140,87.22
07.156,84.83
07.171,81.35
07.187,77.14
07.203,72.31
07.218,66.7
07.234,60.13
07.250,52.52
07.265,44.1
07.281,35.29
07.296,26.52
07.312,18.15
07.328,10.41
07.343,3.44
07.359,-2.71
07.375,-8.05
07.390,-12.65
07.406,-16.74
07.421,-20.57
07.437,-24.38
07.453,-28.38
07.468,-32.65
07.484,-37.18
07.500,-41.89
07.515,-46.5
07.531,-50.45
07.546,-53.1
07.562,-53.71
07.578,-51.77
07.593,-47.15
07.609,-40.24
07.625,-31.79
07.640,-22.68
07.656,-13.68
07.671,-5.25
07.687,2.38
07.703,9.23
07.718,15.27
07.734,20.47
07.750,24.69
07.765,27.78
07.781,29.67
07.796,30.4
07.812,30.18
07.828,29.33
07.843,28.23
07.859,27.14
07.875,26.22
07.890,25.52
07.906,25.0
07.921,24.61
07.937,24.33
07.953,24.13
07.968,23.86
07.984,23.34
08.000,22.3
08.015,20.58
08.031,18.19
08.046,15.31
08.062,12.13
08.078,8.83
08.093,5.43
08.109,1.86
08.125,-2.0
08.140,-6.17
08.156,-10.53
08.171,-14.88
08.187,-19.05
08.203,-22.95
08.218,-26.56
08.234,-29.95
08.250,-33.11
08.265,-36.08
08.281,-38.88
08.296,-41.58
08.312,-44.36
08.328,-47.43
08.343,-50.99
08.359,-55.19
08.375,-60.1
08.390,-65.64
08.406,-71.51
08.421,-77.16
08.437,-81.79
08.453,-84.5
08.468,-84.45
08.484,-81.23
08.500,-74.95
08.515,-66.27
08.531,-56.11
08.546,-45.38
08.562,-34.84
08.578,-24.94
08.593,-16.04
08.609,-8.41
08.625,-2.3
08.640,2.12
08.656,4.85
08.671,6.12
08.687,6.36
08.703,6.04
08.718,5.55
08.734,5.14
08.750,4.85
08.765,4.6
08.781,4.26
08.796,3.78
08.812,3.2
08.828,2.74
08.843,2.61
08.859,2.98
08.875,3.86
08.890,5.14
08.906,6.62
08.921,8.1
08.937,9.38
08.953,10.23
08.968,10.53
08.984,10.25
09.000,9.54
09.015,8.7
09.031,7.99
09.046,7.53
09.062,7.2
09.078,6.68
09.093,5.6
09.109,3.72
09.125,1.09
09.140,-2.07
09.156,-5.47
09.171,-8.94
09.187,-12.41
09.203,-15.87
09.218,-19.37
09.234,-22.95
09.250,-26.74
09.265,-30.93
09.281,-35.66
09.296,-40.82
09.312,-46.0
09.328,-50.35
09.343,-52.87
09.359,-52.71
09.375,-49.5
09.390,-43.49
09.406,-35.51
09.421,-26.58
09.437,-17.63
09.453,-9.35
09.468,-2.02
09.484,4.33
09.500,9.79
09.515,14.46
09.531,18.37
09.546,21.49
09.562,23.79
09.578,25.25
09.593,25.96
09.609,26.05
09.625,25.73
09.640,25.26
09.656,24.87
09.671,24.69
09.687,24.73
09.703,24.93
09.718,25.21
09.734,25.55
09.750,25.92
09.765,26.36
09.781,26.78
09.796,27.02
09.812,26.77
09.828,25.74
09.843,23.83
09.859,21.14
09.875,17.96
09.890,14.71
09.906,11.71
09.921,9.09
09.937,6.83
09.953,4.74
09.968,2.5
09.984,-0.15
10.000,-3.43
10.015,-7.38
10.031,-11.81
10.046,-16.43
10.062,-20.88
10.078,-24.93
10.093,-28.55
10.109,-31.89
10.125,-35.23
10.140,-38.82
10.156,-42.78
10.171,-47.07
10.187,-51.36
10.203,-55.13
10.218,-57.66
10.234,-58.24
10.250,-56.34
10.265,-51.81
10.281,-44.97
10.296,-36.54
10.312,-27.42
10.328,-18.4
10.343,-10.0
10.359,-2.4
10.375,4.41
10.390,10.44
10.406,15.69
10.421,20.1
10.437,23.62
10.453,26.33
10.468,28.41
10.484,30.13
10.500,31.64
10.515,32.97
10.531,33.98
10.546,34.53
10.562,34.53
10.578,33.99
10.593,33.08
10.609,31.96
10.625,30.71
10.640,29.36
10.656,27.92
10.671,26.42
10.687,24.93
10.703,23.51
10.718,22.14
10.734,20.77
10.750,19.18
10.765,17.21
10.781,14.85
10.796,12.23
10.812,9.56
10.828,7.02
10.843,4.62
10.859,2.21
10.875,-0.45
10.890,-3.59
10.906,-7.29
10.921,-11.39
10.937,-15.68
10.953,-19.93
10.968,-24.03
10.984,-28.04
11.000,-32.11
11.015,-36.4
11.031,-40.99
11.046,-45.75
11.062,-50.29
11.078,-54.03
11.093,-56.28
11.109,-56.4
11.125,-54.04
11.140,-49.14
11.156,-42.06
11.171,-33.5
11.187,-24.21
11.203,-14.91
11.218,-6.2
11.234,1.62
11.250,8.35
11.265,13.91
11.281,18.21
11.296,21.23
11.312,23.01
11.328,23.75
11.343,23.77
11.359,23.47
11.375,23.28
11.390,23.48
11.406,24.15
11.421,25.15
11.437,26.18
11.453,26.87
11.468,27.0
11.484,26.52
11.500,25.6
11.515,24.51
11.531,23.52
11.546,22.73
11.562,22.07
11.578,21.36
11.593,20.47
11.609,19.37
11.625,18.11
11.640,16.78
11.656,15.37
11.671,13.73
11.687,11.65
11.703,8.9
11.718,5.44
11.734,1.38
11.750,-3.01
11.765,-7.46
11.781,-11.69
11.796,-15.5
11.812,-18.8
11.828,-21.7
11.843,-24.45
11.859,-27.38
11.875,-30.82
11.890,-34.93
11.906,-39.56
11.921,-44.2
11.937,-48.07
11.953,-50.32
11.968,-50.26
11.984,-47.64
12.000,-42.68
12.015,-36.0
12.031,-28.36
12.046,-20.46
12.062,-12.76
12.078,-5.5
12.093,1.21
12.109,7.25
12.125,12.45
12.140,16.63
12.156,19.71
12.171,21.81
12.187,23.22
12.203,24.26
12.218,25.19
12.234,26.08
12.250,26.91
12.265,27.6
12.281,28.12
12.296,28.48
12.312,28.81
12.328,29.2
12.343,29.65
12.359,30.07
12.375,30.27
12.390,30.09
12.406,29.39
12.421,28.19
12.437,26.62
12.453,24.91
12.468,23.26
12.484,21.67
12.500,19.95
12.515,17.87
12.531,15.21
12.546,11.89
12.562,8.07
12.578,4.0
12.593,-0.03
12.609,-3.74
12.625,-7.05
12.640,-9.94
12.656,-12.62
12.671,-15.46
12.687,-18.94
12.703,-23.39
12.718,-28.81
12.734,-34.68
12.750,-40.08
12.765,-43.9
12.781,-45.27
12.796,-43.82
12.812,-39.8
12.828,-33.83
12.843,-26.62
12.859,-18.74
12.875,-10.4
12.890,-1.61
12.906,7.72
12.921,17.68
12.937,28.17
12.953,39.01
12.968,49.85
12.984,60.33
13.000,70.1
13.015,79.0
13.031,87.09
13.046,94.6
13.062,101.84
13.078,108.97
13.093,115.91
13.109,122.33
13.125,127.85
13.140,132.16
13.156,135.23
13.171,137.24
13.187,138.47
13.203,139.03
13.218,138.64
13.234,136.57
13.250,131.73
13.265,123.03
13.281,109.63
13.296,91.49
13.312,69.29
13.328,44.39
13.343,18.36
13.359,-7.54
13.375,-32.67
13.390,-57.06
13.406,-81.05
13.421,-104.9
13.437,-128.44
13.453,-150.95
13.468,-171.29
13.484,-188.15
13.500,-200.11
13.515,-205.99
13.531,-204.95
13.546,-196.8
13.562,-182.27
13.578,-162.92
13.593,-140.96
13.609,-118.62
13.625,-97.71
13.640,-79.2
13.656,-63.26
13.671,-49.59
13.687,-37.7
13.703,-27.16
13.718,-17.73
13.734,-9.18
13.750,-1.27
13.765,6.31
13.781,13.8
13.796,21.32
13.812,28.78
13.828,36.0
13.843,42.75
13.859,48.95
13.875,54.7
13.890,60.22
13.906,65.64
13.921,70.92
13.937,75.72
13.953,79.55
13.968,81.96
13.984,82.61
14.000,81.38
14.015,78.29
14.031,73.55
14.046,67.55
14.062,61.02
14.078,54.81
14.093,49.75
14.109,46.27
14.125,43.97
14.140,41.74
14.156,38.09
14.171,31.82
14.187,22.64
14.203,11.57
14.218,0.51
14.234,-8.29
14.250,-13.06
14.265,-13.14
14.281,-9.13
14.296,-2.6
14.312,4.5
14.328,10.34
14.343,13.71
14.359,14.06
14.375,11.49
14.390,6.66
14.406,0.66
14.421,-5.1
14.437,-9.16
14.453,-10.31
14.468,-8.08
14.484,-2.93
14.500,3.72
14.515,9.96
14.531,14.1
14.546,15.13
14.562,13.01
14.578,8.36
14.593,1.99
14.609,-5.5
14.625,-13.88
14.640,-22.96
14.656,-32.46
14.671,-41.64
14.687,-49.63
14.703,-55.71
14.718,-59.81
14.734,-62.71
14.750,-65.77
14.765,-70.45
14.781,-77.62
14.796,-87.23
14.812,-98.37
14.828,-109.63
14.843,-119.54
14.859,-126.7
14.875,-129.79
14.890,-127.54
14.906,-118.9
14.921,-103.52
14.937,-82.07
14.953,-56.45
14.968,-29.36
14.984,-3.55
15.000,18.87
15.015,36.77
15.031,49.96
15.046,58.65
15.062,63.16
15.078,63.69
15.093,60.43
15.109,53.77
15.125,44.29
15.140,32.8
15.156,20.13
15.171,7.28
15.187,-4.6
15.203,-14.32
15.218,-20.98
15.234,-24.3
15.250,-24.85
15.265,-23.82
15.281,-22.51
15.296,-21.91
15.312,-22.48
15.328,-24.28
15.343,-27.34
15.359,-31.71
15.375,-37.44
15.390,-44.25
15.406,-51.26
15.421,-57.12
15.437,-60.4
15.453,-60.25
15.468,-56.72
15.484,-50.98
15.500,-44.81
15.515,-40.06
15.531,-38.02
15.546,-39.01
15.562,-42.38
15.578,-46.68
15.593,-49.96
15.609,-50.31
15.625,-46.32
15.640,-37.49
15.656,-24.63
15.671,-10.07
15.687,2.83
15.703,10.41
15.718,9.92
15.734,0.6
15.750,-15.98
15.765,-36.49
15.781,-57.01
15.796,-74.43
15.812,-87.23
15.828,-95.47
15.843,-100.05
15.859,-101.96
15.875,-101.84
15.890,-99.98
15.906,-96.75
15.921,-92.79
15.937,-88.9
15.953,-85.78
15.968,-83.57
15.984,-81.83
16.000,-79.84
16.015,-76.94
16.031,-72.96
16.046,-68.21
16.062,-63.34
16.078,-59.12
16.093,-56.24
16.109,-55.18
16.125,-56.27
16.140,-59.62
16.156,-64.97
16.171,-71.55
16.187,-78.07
16.203,-82.8
16.218,-84.06
16.234,-80.71
16.250,-72.45
16.265,-59.92
16.281,-44.4
16.296,-27.37
16.312,-10.04
16.328,6.69
16.343,22.32
16.359,36.53
16.375,49.05
16.390,59.67
16.406,68.26
16.421,74.86
16.437,79.66
16.453,82.96
16.468,85.06
16.484,86.22
16.500,86.63
16.515,86.46
16.531,85.87
16.546,85.02
16.562,84.04
16.578,83.0
16.593,81.78
16.609,79.96
16.625,76.93
16.640,72.17
16.656,65.6
16.671,57.86
16.687,50.11
16.703,43.59
16.718,39.03
16.734,36.16
16.750,33.86
16.765,30.71
16.781,25.77
16.796,19.13
16.812,11.9
16.828,5.82
16.843,2.47
16.859,2.77
16.875,6.74
16.890,13.72
16.906,22.67
16.921,32.54
16.937,42.47
16.953,51.84
16.968,60.21
16.984,67.24
17.000,72.61
17.015,76.07
17.031,77.52
17.046,77.1
17.062,75.24
17.078,72.49
17.093,69.48
17.109,66.66
17.125,64.23
17.140,62.18
17.156,60.4
17.171,58.81
17.187,57.44
17.203,56.39
17.218,55.74
17.234,55.5
17.250,55.46
17.265,55.32
17.281,54.73
17.296,53.4
17.312,51.19
17.328,48.08
17.343,44.16
17.359,39.56
17.375,34.45
17.390,28.88
17.406,22.89
17.421,16.44
17.437,9.46
17.453,2.15
17.468,-5.0
17.484,-11.1
17.500,-15.12
17.515,-16.1
17.531,-13.57
17.546,-7.74
17.562,0.65
17.578,10.49
17.593,20.79
17.609,30.8
17.625,40.17
17.640,48.72
17.656,56.27
17.671,62.54
17.687,67.14
17.703,69.77
17.718,70.33
17.734,69.13
17.750,66.73
17.765,63.81
17.781,60.96
17.796,58.48
17.812,56.34
17.828,54.32
17.843,52.2
17.859,49.85
17.875,47.3
17.890,44.64
17.906,41.9
17.921,39.01
17.937,35.82
17.953,32.15
17.968,27.99
17.984,23.48
18.000,18.84
18.015,14.32
18.031,10.03
18.046,6.04
18.062,2.32
18.078,-1.22
18.093,-4.65
18.109,-8.14
18.125,-11.82
18.140,-15.84
18.156,-20.27
18.171,-25.08
18.187,-30.02
18.203,-34.61
18.218,-38.2
18.234,-39.99
18.250,-39.3
18.265,-35.75
18.281,-29.47
18.296,-21.15
18.312,-11.84
18.328,-2.62
18.343,5.76
18.359,13.0
18.375,19.24
18.390,24.67
18.406,29.37
18.421,33.16
18.437,35.76
18.453,36.96
18.468,36.85
18.484,35.76
18.500,34.18
18.515,32.52
18.531,30.95
18.546,29.46
18.562,27.92
18.578,26.21
18.593,24.34
18.609,22.45
18.625,20.7
18.640,19.12
18.656,17.71
18.671,16.31
18.687,14.81
18.703,13.17
18.718,11.36
18.734,9.34
18.750,7.01
18.765,4.2
18.781,0.82
18.796,-3.03
18.812,-7.11
18.828,-11.08
18.843,-14.7
18.859,-18.01
18.875,-21.23
18.890,-24.67
18.906,-28.52
18.921,-32.75
18.937,-37.1
18.953,-41.22
18.968,-44.63
18.984,-46.83
19.000,-47.3
19.015,-45.61
19.031,-41.5
19.046,-35.09
19.062,-26.89
19.078,-17.7
19.093,-8.39
19.109,0.32
19.125,8.03
19.140,14.6
19.156,20.08
19.171,24.54
19.187,27.98
19.203,30.32
19.218,31.48
19.234,31.58
19.250,30.91
19.265,29.89
19.281,28.92
19.296,28.24
19.312,27.89
19.328,27.71
19.343,27.48
19.359,27.02
19.375,26.23
19.390,25.1
19.406,23.63
19.421,21.76
19.437,19.5
19.453,16.9
19.468,14.07
19.484,11.23
19.500,8.57
19.515,6.22
19.531,4.18
19.546,2.37
19.562,0.57
19.578,-1.43
19.593,-3.84
19.609,-6.72
19.625,-10.05
19.640,-13.7
19.656,-17.44
19.671,-21.09
19.687,-24.47
19.703,-27.52
19.718,-30.26
19.734,-32.87
19.750,-35.59
19.765,-38.68
19.781,-42.23
19.796,-46.06
19.812,-49.73
19.828,-52.48
19.843,-53.54
19.859,-52.23
19.875,-48.31
19.890,-41.99
19.906,-33.92
19.921,-25.0
19.937,-16.04
19.953,-7.59
19.968,0.07
19.984,6.92
20.000,12.94
20.015,18.04
20.031,21.99
20.046,24.58
20.062,25.77
20.078,25.8
20.093,25.17
20.109,24.38
20.125,23.79
20.140,23.48
20.156,23.26
20.171,22.93
20.187,22.35
20.203,21.61
20.218,20.89
20.234,20.38
20.250,20.12
20.265,19.91
20.281,19.54
20.296,18.76
20.312,17.51
20.328,15.85
20.343,13.91
20.359,11.83
20.375,9.67
20.390,7.43
20.406,5.09
20.421,2.69
20.437,0.26
20.453,-2.11
20.468,-4.37
20.484,-6.54
20.500,-8.63
20.515,-10.7
20.531,-12.85
20.546,-15.16
20.562,-17.64
20.578,-20.29
20.593,-22.99
20.609,-25.64
20.625,-28.2
20.640,-30.77
20.656,-33.55
20.671,-36.75
20.687,-40.49
20.703,-44.61
20.718,-48.79
20.734,-52.5
20.750,-55.11
20.765,-56.16
20.781,-55.29
20.796,-52.36
20.812,-47.46
20.828,-40.9
20.843,-33.2
20.859,-25.02
20.875,-16.92
20.890,-9.31
20.906,-2.37
20.921,3.91
20.937,9.65
20.953,14.91
20.968,19.66
20.984,23.71
21.000,26.87
21.015,28.94
21.031,29.87
21.046,29.78
21.062,28.93
21.078,27.67
21.093,26.34
21.109,25.23
21.125,24.47
21.140,24.06
21.156,23.9
21.171,23.84
21.187,23.68
21.203,23.24
21.218,22.45
21.234,21.26
21.250,19.77
21.265,17.98
21.281,15.92
21.296,13.59
21.312,11.03
21.328,8.33
21.343,5.71
21.359,3.37
21.375,1.42
21.390,-0.18
21.406,-1.63
21.421,-3.24
21.437,-5.16
21.453,-7.42
21.468,-9.89
21.484,-12.46
21.500,-15.04
21.515,-17.7
21.531,-20.51
21.546,-23.44
21.562,-26.41
21.578,-29.27
21.593,-31.99
21.609,-34.65
21.625,-37.5
21.640,-40.78
21.656,-44.56
21.671,-48.59
21.687,-52.29
21.703,-54.89
21.718,-55.73
21.734,-54.42
21.750,-50.96
21.765,-45.69
21.781,-39.17
21.796,-32.0
21.812,-24.63
21.828,-17.35
21.843,-10.23
21.859,-3.27
21.875,3.47
21.890,9.89
21.906,15.8
21.921,20.93
21.937,25.02
21.953,27.89
21.968,29.49
21.984,30.0
22.000,29.72
22.015,28.94
22.031,27.91
22.046,26.72
22.062,25.43
22.078,24.09
22.093,22.85
22.109,21.96
22.125,21.58
22.140,21.73
22.156,22.19
22.171,22.51
22.187,22.27
22.203,21.23
22.218,19.53
22.234,17.56
22.250,15.78
22.265,14.46
22.281,13.5
22.296,12.55
22.312,11.2
22.328,9.23
22.343,6.69
22.359,3.91
22.375,1.21
22.390,-1.3
22.406,-3.75
22.421,-6.45
22.437,-9.64
22.453,-13.37
22.468,-17.5
22.484,-21.76
22.500,-25.89
22.515,-29.72
22.531,-33.19
22.546,-36.26
22.562,-39.01
22.578,-41.55
22.593,-44.09
22.609,-46.84
22.625,-49.95
22.640,-53.35
22.656,-56.63
22.671,-59.07
22.687,-59.79
22.703,-58.05
22.718,-53.56
22.734,-46.6
22.750,-38.0
22.765,-28.78
22.781,-19.88
22.796,-11.89
22.812,-4.99
22.828,1.02
22.843,6.4
22.859,11.32
22.875,15.78
22.890,19.65
22.906,22.81
22.921,25.17
22.937,26.77
22.953,27.71
22.968,28.14
22.984,28.26
23.000,28.26
23.015,28.34
23.031,28.63
23.046,29.22
23.062,30.04
23.078,30.99
23.093,31.85
23.109,32.4
23.125,32.45
23.140,31.78
23.156,30.34
23.171,28.16
23.187,25.49
23.203,22.64
23.218,19.93
23.234,17.45
23.250,15.11
23.265,12.71
23.281,10.05
23.296,7.18
23.312,4.28
23.328,1.66
23.343,-0.48
23.359,-2.12
23.375,-3.5
23.390,-4.95
23.406,-6.79
23.421,-9.18
23.437,-12.12
23.453,-15.5
23.468,-19.21
23.484,-23.1
23.500,-27.11
23.515,-31.19
23.531,-35.34
23.546,-39.55
23.562,-43.88
23.578,-48.3
23.593,-52.74
23.609,-56.94
23.625,-60.4
23.640,-62.53
23.656,-62.68
23.671,-60.39
23.687,-55.6
23.703,-48.66
23.718,-40.2
23.734,-30.96
23.750,-21.61
23.765,-12.56
23.781,-4.13
23.796,3.53
23.812,10.27
23.828,16.05
23.843,20.89
23.859,24.9
23.875,28.23
23.890,30.94
23.906,33.08
23.921,34.59
23.937,35.48
23.953,35.86
23.968,35.9
23.984,35.88
24.000,35.92
24.015,36.09
24.031,36.29
24.046,36.34
24.062,36.1
24.078,35.44
24.093,34.37
24.109,32.96
24.125,31.35
24.140,29.67
24.156,27.98
24.171,26.34
24.187,24.71
24.203,23.02
24.218,21.24
24.234,19.39
24.250,17.48
24.265,15.54
24.281,13.52
24.296,11.27
24.312,8.68
24.328,5.73
24.343,2.58
24.359,-0.48
24.375,-3.17
24.390,-5.49
24.406,-7.69
24.421,-10.14
24.437,-13.11
24.453,-16.64
24.468,-20.43
24.484,-24.08
24.500,-27.35
24.515,-30.25
24.531,-33.15
24.546,-36.43
24.562,-40.32
24.578,-44.81
24.593,-49.68
24.609,-54.45
24.625,-58.56
24.640,-61.25
24.656,-61.75
24.671,-59.46
24.687,-54.19
24.703,-46.37
24.718,-36.86
24.734,-26.75
24.750,-16.9
24.765,-7.81
24.781,0.45
24.796,7.92
24.812,14.61
24.828,20.39
24.843,25.04
24.859,28.51
24.875,31.03
24.890,32.98
24.906,34.7
24.921,36.34
24.937,37.74
24.953,38.65
24.968,38.86
24.984,38.34
25.000,37.26
25.015,35.95
25.031,34.73
25.046,33.76
25.062,33.08
25.078,32.68
25.093,32.44
25.109,32.26
25.125,32.01
25.140,31.51
25.156,30.54
25.171,28.98
25.187,26.8
25.203,24.13
25.218,21.24
25.234,18.37
25.250,15.73
25.265,13.41
25.281,11.38
25.296,9.58
25.312,7.95
25.328,6.41
25.343,4.89
25.359,3.23
25.375,1.33
25.390,-0.9
25.406,-3.51
25.421,-6.46
25.437,-9.67
25.453,-13.09
25.468,-16.63
25.484,-20.15
25.500,-23.55
25.515,-26.75
25.531,-29.74
25.546,-32.66
25.562,-35.8
25.578,-39.41
25.593,-43.61
25.609,-48.27
25.625,-52.98
25.640,-57.07
25.656,-59.86
25.671,-60.7
25.687,-59.16
25.703,-55.16
25.718,-48.85
25.734,-40.73
25.750,-31.48
25.765,-21.86
25.781,-12.52
25.796,-4.0
25.812,3.45
25.828,9.8
25.843,15.17
25.859,19.72
25.875,23.56
25.890,26.7
25.906,29.15
25.921,30.93
25.937,32.14
25.953,32.97
25.968,33.55
25.984,33.97
26.000,34.24
26.015,34.33
26.031,34.24
26.046,34.08
26.062,34.01
26.078,34.11
26.093,34.28
26.109,34.3
26.125,33.81
26.140,32.65
26.156,30.82
26.171,28.53
26.187,26.18
26.203,24.02
26.218,22.2
26.234,20.59
26.250,18.98
26.265,17.07
26.281,14.75
26.296,12.0
26.312,8.97
26.328,5.89
26.343,2.94
26.359,0.24
26.375,-2.17
26.390,-4.43
26.406,-6.73
26.421,-9.26
26.437,-12.1
26.453,-15.28
26.468,-18.64
26.484,-22.06
26.500,-25.39
26.515,-28.57
26.531,-31.6
26.546,-34.57
26.562,-37.68
26.578,-41.12
26.593,-45.07
26.609,-49.39
26.625,-53.63
26.640,-56.87
26.656,-58.08
26.671,-56.4
26.687,-51.54
26.703,-43.96
26.718,-34.68
26.734,-24.95
26.750,-15.77
26.765,-7.64
26.781,-0.54
26.796,5.8
26.812,11.6
26.828,16.85
26.843,21.31
26.859,24.77
26.875,27.12
26.890,28.57
26.906,29.43
26.921,30.03
26.937,30.52
26.953,30.82
26.968,30.85
26.984,30.51
27.000,29.92
27.015,29.25
27.031,28.67
27.046,28.21
27.062,27.76
27.078,27.18
27.093,26.4
27.109,25.5
27.125,24.6
27.140,23.8
27.156,23.0
27.171,21.97
27.187,20.46
27.203,18.36
27.218,15.78
27.234,12.91
27.250,10.0
27.265,7.14
27.281,4.31
27.296,1.39
27.312,-1.67
27.328,-4.8
27.343,-7.84
27.359,-10.57
27.375,-12.89
27.390,-14.84
27.406,-16.63
27.421,-18.52
27.437,-20.8
27.453,-23.71
27.468,-27.32
27.484,-31.58
27.500,-36.27
27.515,-41.01
27.531,-45.26
27.546,-48.43
27.562,-49.9
27.578,-49.19
27.593,-46.01
27.609,-40.43
27.625,-32.83
27.640,-23.86
27.656,-14.37
27.671,-5.2
27.687,2.92
27.703,9.53
27.718,14.49
27.734,17.92
27.750,20.08
27.765,21.3
27.781,21.89
27.796,22.09
27.812,22.05
27.828,21.94
27.843,21.91
27.859,22.09
27.875,22.55
27.890,23.18
27.906,23.75
27.921,24.01
27.937,23.8
27.953,23.16
27.968,22.22
27.984,21.2
28.000,20.18
28.015,19.12
28.031,17.83
28.046,16.16
28.062,14.1
28.078,11.75
28.093,9.34
28.109,7.02
28.125,4.79
28.140,2.49
28.156,-0.05
28.171,-2.96
28.187,-6.19
28.203,-9.53
28.218,-12.75
28.234,-15.69
28.250,-18.32
28.265,-20.79
28.281,-23.32
28.296,-26.12
28.312,-29.34
28.328,-33.03
28.343,-37.14
28.359,-41.47
28.375,-45.62
28.390,-49.01
28.406,-50.89
28.421,-50.63
28.437,-47.87
28.453,-42.68
28.468,-35.53
28.484,-27.23
28.500,-18.68
28.515,-10.59
28.531,-3.43
28.546,2.7
28.562,7.9
28.578,12.34
28.593,16.14
28.609,19.3
28.625,21.74
28.640,23.39
28.656,24.29
28.671,24.58
28.687,24.59
28.703,24.57
28.718,24.71
28.734,25.08
28.750,25.66
28.765,26.35
28.781,27.04
28.796,27.61
28.812,27.84
28.828,27.54
28.843,26.52
28.859,24.69
28.875,22.12
28.890,18.99
28.906,15.64
28.921,12.37
28.937,9.36
28.953,6.66
28.968,4.09
28.984,1.36
29.000,-1.74
29.015,-5.25
29.031,-9.04
29.046,-12.79
29.062,-16.21
29.078,-19.18
29.093,-21.76
29.109,-24.24
29.125,-26.95
29.140,-30.15
29.156,-33.91
29.171,-38.2
29.187,-42.75
29.203,-47.15
29.218,-50.87
29.234,-53.18
29.250,-53.43
29.265,-51.11
29.281,-46.12
29.296,-38.86
29.312,-30.13
29.328,-20.86
29.343,-11.89
29.359,-3.75
29.375,3.35
29.390,9.43
29.406,14.56
29.421,18.86
29.437,22.33
29.453,24.98
29.468,26.89
29.484,28.17
29.500,29.04
29.515,29.71
29.531,30.29
29.546,30.72
29.562,30.85
29.578,30.51
29.593,29.7
29.609,28.64
29.625,27.73
29.640,27.34
29.656,27.58
29.671,28.2
29.687,28.67
29.703,28.47
29.718,27.26
29.734,25.1
29.750,22.35
29.765,19.44
29.781,16.65
29.796,14.05
29.812,11.47
29.828,8.64
29.843,5.35
29.859,1.47
29.875,-2.94
29.890,-7.7
29.906,-12.53
29.921,-17.17
29.937,-21.38
29.953,-25.07
29.968,-28.33
29.984,-31.45
30.000,-34.75
30.015,-38.54
30.031,-42.9
30.046,-47.54
30.062,-51.81
30.078,-54.84
30.093,-55.71
30.109,-53.86
30.125,-49.12
30.140,-41.85
30.156,-32.84
30.171,-23.06
30.187,-13.39
30.203,-4.49
30.218,3.34
30.234,10.05
30.250,15.75
30.265,20.59
30.281,24.57
30.296,27.61
30.312,29.6
30.328,30.57
30.343,30.71
30.359,30.38
30.375,29.94
30.390,29.63
30.406,29.56
30.421,29.64
30.437,29.81
30.453,30.0
30.468,30.22
30.484,30.42
30.500,30.53
30.515,30.34
30.531,29.63
30.546,28.22
30.562,26.06
30.578,23.2
30.593,19.84
30.609,16.25
30.625,12.69
30.640,9.36
30.656,6.34
30.671,3.51
30.687,0.74
30.703,-2.2
30.718,-5.34
30.734,-8.6
30.750,-11.75
30.765,-14.56
30.781,-16.91
30.796,-18.84
30.812,-20.64
30.828,-22.7
30.843,-25.47
30.859,-29.24
30.875,-34.01
30.890,-39.3
30.906,-44.25
30.921,-47.82
30.937,-48.95
30.953,-47.05
30.968,-42.1
30.984,-34.67
31.000,-25.71
31.015,-16.26
31.031,-7.18
31.046,0.97
31.062,7.97
31.078,13.82
31.093,18.55
31.109,22.21
31.125,24.79
31.140,26.33
31.156,26.92
31.171,26.77
31.187,26.21
31.203,25.6
31.218,25.24
31.234,25.28
31.250,25.74
31.265,26.44
31.281,27.11
31.296,27.57
31.312,27.7
31.328,27.52
31.343,27.07
31.359,26.3
31.375,25.07
31.390,23.24
31.406,20.82
31.421,17.88
31.437,14.71
31.453,11.57
31.468,8.54
31.484,5.56
31.500,2.49
31.515,-0.79
31.531,-4.16
31.546,-7.38
31.562,-10.26
31.578,-12.72
31.593,-14.89
31.609,-17.04
31.625,-19.46
31.640,-22.33
31.656,-25.8
31.671,-29.87
31.687,-34.46
31.703,-39.36
31.718,-44.16
31.734,-48.24
31.750,-50.87
31.765,-51.25
31.781,-48.86
31.796,-43.56
31.812,-35.8
31.828,-26.51
31.843,-16.85
31.859,-7.9
31.875,-0.32
31.890,5.75
31.906,10.68
31.921,15.0
31.937,19.07
31.953,22.92
31.968,26.28
31.984,28.81
32.000,30.38
32.015,31.13
32.031,31.37
32.046,31.44
32.062,31.54
32.078,31.7
32.093,31.82
32.109,31.84
32.125,31.71
32.140,31.51
32.156,31.27
32.171,30.98
32.187,30.58
32.203,29.9
32.218,28.74
32.234,26.95
32.250,24.52
32.265,21.56
32.281,18.35
32.296,15.23
32.312,12.4
32.328,9.89
32.343,7.47
32.359,4.8
32.375,1.64
32.390,-1.97
32.406,-5.89
32.421,-9.8
32.437,-13.48
32.453,-16.87
32.468,-20.01
32.484,-23.02
32.500,-26.09
32.515,-29.37
32.531,-33.01
32.546,-37.17
32.562,-41.86
32.578,-46.73
32.593,-51.09
32.609,-54.0
32.625,-54.53
32.640,-52.15
32.656,-46.86
32.671,-39.24
32.687,-30.11
32.703,-20.36
32.718,-10.66
32.734,-1.49
32.750,6.9
32.765,14.37
32.781,20.89
32.796,26.49
32.812,31.23
32.828,35.21
32.843,38.53
32.859,41.28
32.875,43.54
32.890,45.45
32.906,47.14
32.921,48.77
32.937,50.41
32.953,52.12
32.968,53.94
32.984,55.95
33.000,58.23
33.015,60.81
33.031,63.62
33.046,66.49
33.062,69.16
33.078,71.43
33.093,73.28
33.109,74.9
33.125,76.61
33.140,78.66
33.156,81.19
33.171,84.06
33.187,86.97
33.203,89.57
33.218,91.64
33.234,93.17
33.250,94.28
33.265,95.21
33.281,96.09
33.296,96.92
33.312,97.47
33.328,97.35
33.343,95.98
33.359,92.6
33.375,86.45
33.390,76.92
33.406,63.86
33.421,47.63
33.437,29.13
33.453,9.57
33.468,-9.8
33.484,-27.78
33.500,-43.48
33.515,-56.17
33.531,-65.38
33.546,-70.87
33.562,-72.71
33.578,-71.37
33.593,-67.66
33.609,-62.59
33.625,-57.07
33.640,-51.81
33.656,-47.07
33.671,-42.84
33.687,-38.94
33.703,-35.3
33.718,-32.07
33.734,-29.68
33.750,-28.73
33.765,-29.61
33.781,-32.36
33.796,-36.46
33.812,-41.07
33.828,-45.21
33.843,-48.17
33.859,-49.67
33.875,-49.88
33.890,-49.25
33.906,-48.21
33.921,-47.07
33.937,-45.9
33.953,-44.66
33.968,-43.35
33.984,-42.08
34.000,-41.02
34.015,-40.33
34.031,-40.01
34.046,-39.73
34.062,-39.01
34.078,-37.35
34.093,-34.49
34.109,-30.67
34.125,-26.55
34.140,-23.08
34.156,-21.07
34.171,-20.86
34.187,-22.15
34.203,-24.15
34.218,-25.98
34.234,-27.06
34.250,-27.46
34.265,-27.64
34.281,-28.25
34.296,-29.7
34.312,-31.91
34.328,-34.44
34.343,-36.61
34.359,-37.72
34.375,-37.24
34.390,-34.72
34.406,-29.84
34.421,-22.44
34.437,-12.69
34.453,-1.19
34.468,10.98
34.484,22.49
34.500,32.12
34.515,39.07
34.531,43.11
34.546,44.58
34.562,44.09
34.578,42.29
34.593,39.72
34.609,36.7
34.625,33.39
34.640,29.9
34.656,26.31
34.671,22.63
34.687,18.81
34.703,14.77
34.718,10.46
34.734,5.95
34.750,1.42
34.765,-2.92
34.781,-6.87
34.796,-10.42
34.812,-13.67
34.828,-16.8
34.843,-19.87
34.859,-22.79
34.875,-25.26
34.890,-26.91
34.906,-27.43
34.921,-26.7
34.937,-24.87
34.953,-22.42
34.968,-20.07
34.984,-18.59
35.000,-18.73
35.015,-20.9
35.031,-24.95
35.046,-30.21
35.062,-35.47
35.078,-39.41
35.093,-40.99
35.109,-39.85
35.125,-36.46
35.140,-31.95
35.156,-27.68
35.171,-24.71
35.187,-23.43
35.203,-23.36
35.218,-23.41
35.234,-22.3
35.250,-19.01
35.265,-13.16
35.281,-4.96
35.296,4.94
35.312,15.74
35.328,26.47
35.343,36.06
35.359,43.25
35.375,46.68
35.390,45.28
35.406,38.7
35.421,27.72
35.437,14.3
35.453,1.14
35.468,-9.1
35.484,-14.66
35.500,-15.25
35.515,-12.16
35.531,-7.73
35.546,-4.71
35.562,-5.33
35.578,-10.67
35.593,-20.38
35.609,-32.85
35.625,-45.75
35.640,-56.95
35.656,-65.11
35.671,-70.04
35.687,-72.48
35.703,-73.52
35.718,-73.93
35.734,-73.78
35.750,-72.55
35.765,-69.55
35.781,-64.67
35.796,-58.58
35.812,-52.61
35.828,-48.26
35.843,-46.49
35.859,-47.38
35.875,-50.2
35.890,-53.81
35.906,-57.15
35.921,-59.63
35.937,-61.31
35.953,-62.95
35.968,-65.82
35.984,-71.49
36.000,-81.43
36.015,-96.62
36.031,-116.97
36.046,-140.97
36.062,-165.69
36.078,-187.38
36.093,-202.4
36.109,-208.35
36.125,-204.69
36.140,-192.72
36.156,-175.02
36.171,-154.41
36.187,-133.19
36.203,-112.73
36.218,-93.51
36.234,-75.49
36.250,-58.44
36.265,-42.03
36.281,-25.98
36.296,-10.11
36.312,5.49
36.328,20.25
36.343,33.14
36.359,42.91
36.375,48.57
36.390,49.86
36.406,47.45
36.421,42.78
36.437,37.66
36.453,33.73
36.468,31.96
36.484,32.52
36.500,34.97
36.515,38.54
36.531,42.49
36.546,46.18
36.562,49.14
36.578,51.02
36.593,51.63
36.609,50.99
36.625,49.43
36.640,47.57
36.656,45.96
36.671,44.82
36.687,43.81
36.703,42.24
36.718,39.59
36.734,35.82
36.750,31.47
36.765,27.31
36.781,23.85
36.796,21.06
36.812,18.48
36.828,15.56
36.843,12.05
36.859,8.15
36.875,4.28
36.890,0.73
36.906,-2.61
36.921,-6.19
36.937,-10.52
36.953,-15.73
36.968,-21.5
36.984,-27.03
37.000,-31.31
37.015,-33.34
37.031,-32.34
37.046,-27.93
37.062,-20.32
37.078,-10.24
37.093,1.19
37.109,12.77
37.125,23.52
37.140,32.97
37.156,41.16
37.171,48.48
37.187,55.39
37.203,62.02
37.218,68.22
37.234,73.58
37.250,77.7
37.265,80.43
37.281,81.95
37.296,82.64
37.312,82.95
37.328,83.13
37.343,83.21
37.359,83.09
37.375,82.68
37.390,82.05
37.406,81.46
37.421,81.2
37.437,81.41
37.453,81.96
37.468,82.39
37.484,82.13
37.500,80.68
37.515,77.85
37.531,73.78
37.546,68.86
37.562,63.59
37.578,58.43
37.593,53.68
37.609,49.47
37.625,45.67
37.640,42.04
37.656,38.23
37.671,34.01
37.687,29.32
37.703,24.29
37.718,19.2
37.734,14.25
37.750,9.54
37.765,4.93
37.781,0.26
37.796,-4.62
37.812,-9.78
37.828,-15.19
37.843,-20.81
37.859,-26.49
37.875,-31.97
37.890,-36.68
37.906,-39.82
37.921,-40.47
37.937,-37.96
37.953,-32.2
37.968,-23.73
37.984,-13.62
38.000,-3.08
38.015,6.87
38.031,15.67
38.046,23.2
38.062,29.53
38.078,34.85
38.093,39.14
38.109,42.32
38.125,44.28
38.140,45.05
38.156,44.81
38.171,43.93
38.187,42.79
38.203,41.67
38.218,40.71
38.234,39.88
38.250,39.13
38.265,38.43
38.281,37.8
38.296,37.29
38.312,36.91
38.328,36.5
38.343,35.81
38.359,34.58
38.375,32.7
38.390,30.22
38.406,27.47
38.421,24.77
38.437,22.4
38.453,20.35
38.468,18.41
38.484,16.15
38.500,13.25
38.515,9.57
38.531,5.21
38.546,0.53
38.562,-4.13
38.578,-8.53
38.593,-12.61
38.609,-16.47
38.625,-20.27
38.640,-24.15
38.656,-28.23
38.671,-32.59
38.687,-37.11
38.703,-41.48
38.718,-45.09
38.734,-47.09
38.750,-46.69
38.765,-43.33
38.781,-37.02
38.796,-28.32
38.812,-18.24
38.828,-7.88
38.843,1.82
38.859,10.28
38.875,17.34
38.890,23.0
38.906,27.34
38.921,30.39
38.937,32.12
38.953,32.51
38.968,31.72
38.984,30.01
39.000,27.86
39.015,25.75
39.031,24.04
39.046,22.92
39.062,22.38
39.078,22.28
39.093,22.38
39.109,22.47
39.125,22.35
39.140,21.9
39.156,21.02
39.171,19.65
39.187,17.77
39.203,15.42
39.218,12.66
39.234,9.59
39.250,6.28
39.265,2.79
39.281,-0.8
39.296,-4.39
39.312,-7.93
39.328,-11.39
39.343,-14.78
39.359,-18.11
39.375,-21.35
39.390,-24.45
39.406,-27.38
39.421,-30.27
39.437,-33.3
39.453,-36.76
39.468,-40.83
39.484,-45.38
39.500,-49.89
39.515,-53.42
39.531,-54.89
39.546,-53.38
39.562,-48.55
39.578,-40.71
39.593,-30.8
39.609,-20.11
39.625,-9.87
39.640,-0.89
39.656,6.57
39.671,12.68
39.687,17.82
39.703,22.28
39.718,26.14
39.734,29.3
39.750,31.64
39.765,33.2
39.781,34.18
39.796,34.86
39.812,35.43
39.828,35.86
39.843,35.98
39.859,35.58
39.875,34.6
39.890,33.21
39.906,31.69
39.921,30.33
39.937,29.21
39.953,28.15
39.968,26.82
39.984,24.91
40.000,22.34
40.015,19.26
40.031,15.99
40.046,12.84
40.062,9.91
40.078,7.11
40.093,4.2
40.109,1.0
40.125,-2.58
40.140,-6.45
40.156,-10.4
40.171,-14.33
40.187,-18.18
40.203,-22.04
40.218,-25.97
40.234,-30.05
40.250,-34.32
40.265,-38.86
40.281,-43.63
40.296,-48.51
40.312,-53.02
40.328,-56.4
40.343,-57.75
40.359,-56.22
40.375,-51.42
40.390,-43.59
40.406,-33.63
40.421,-22.76
40.437,-12.15
40.453,-2.59
40.468,5.64
40.484,12.63
40.500,18.66
40.515,23.89
40.531,28.33
40.546,31.87
40.562,34.38
40.578,35.85
40.593,36.44
40.609,36.43
40.625,36.09
40.640,35.69
40.656,35.34
40.671,35.04
40.687,34.77
40.703,34.51
40.718,34.28
40.734,34.08
40.750,33.96
40.765,33.81
40.781,33.47
40.796,32.73
40.812,31.41
40.828,29.49
40.843,27.12
40.859,24.54
40.875,21.93
40.890,19.35
40.906,16.7
40.921,13.82
40.937,10.55
40.953,6.92
40.968,3.08
40.984,-0.74
41.000,-4.34
41.015,-7.72
41.031,-10.95
41.046,-14.2
41.062,-17.59
41.078,-21.14
41.093,-24.79
41.109,-28.46
41.125,-32.13
41.140,-35.84
41.156,-39.74
41.171,-43.92
41.187,-48.49
41.203,-53.36
41.218,-58.21
41.234,-62.54
41.250,-65.62
41.265,-66.71
41.281,-65.25
41.296,-61.0
41.312,-54.13
41.328,-45.25
41.343,-35.18
41.359,-24.78
41.375,-14.71
41.390,-5.44
41.406,2.81
41.421,9.93
41.437,15.89
41.453,20.74
41.468,24.54
41.484,27.35
41.500,29.34
41.515,30.7
41.531,31.63
41.546,32.36
41.562,33.0
41.578,33.55
41.593,33.93
41.609,33.99
41.625,33.64
41.640,32.99
41.656,32.26
41.671,31.74
41.687,31.59
41.703,31.72
41.718,31.79
41.734,31.37
41.750,30.12
41.765,27.99
41.781,25.2
41.796,22.07
41.812,18.89
41.828,15.8
41.843,12.82
41.859,9.84
41.875,6.87
41.890,3.89
41.906,0.93
41.921,-1.98
41.937,-4.85
41.953,-7.73
41.968,-10.62
41.984,-13.47
42.000,-16.3
42.015,-19.16
42.031,-22.13
42.046,-25.31
42.062,-28.68
42.078,-32.13
42.093,-35.5
42.109,-38.73
42.125,-41.89
42.140,-45.17
42.156,-48.71
42.171,-52.4
42.187,-55.73
42.203,-57.83
42.218,-57.77
42.234,-54.87
42.250,-49.1
42.265,-41.03
42.281,-31.65
42.296,-21.99
42.312,-12.8
42.328,-4.42
42.343,3.12
42.359,9.91
42.375,15.96
42.390,21.16
42.406,25.31
42.421,28.28
42.437,30.12
42.453,31.07
42.468,31.43
42.484,31.53
42.500,31.52
42.515,31.43
42.531,31.16
42.546,30.65
42.562,29.95
42.578,29.22
42.593,28.71
42.609,28.57
42.625,28.77
42.640,29.08
42.656,29.19
42.671,28.8
42.687,27.81
42.703,26.29
42.718,24.37
42.734,22.22
42.750,19.92
42.765,17.5
42.781,15.0
42.796,12.5
42.812,10.15
42.828,7.99
42.843,5.96
42.859,3.9
42.875,1.63
42.890,-0.97
42.906,-3.81
42.921,-6.75
42.937,-9.64
42.953,-12.46
42.968,-15.31
42.984,-18.36
43.000,-21.71
43.015,-25.29
43.031,-28.96
43.046,-32.48
43.062,-35.76
43.078,-38.88
43.093,-42.04
43.109,-45.44
43.125,-49.04
43.140,-52.41
43.156,-54.76
43.171,-55.17
43.187,-52.93
43.203,-47.87
43.218,-40.48
43.234,-31.78
43.250,-22.86
43.265,-14.56
43.281,-7.19
43.296,-0.65
43.312,5.25
43.328,10.65
43.343,15.42
43.359,19.35
43.375,22.23
43.390,24.08
43.406,25.16
43.421,25.8
43.437,26.27
43.453,26.68
43.468,27.0
43.484,27.11
43.500,26.97
43.515,26.61
43.531,26.18
43.546,25.91
43.562,25.92
43.578,26.24
43.593,26.67
43.609,26.88
43.625,26.51
43.640,25.4
43.656,23.54
43.671,21.22
43.687,18.75
43.703,16.37
43.718,14.11
43.734,11.89
43.750,9.61
43.765,7.22
43.781,4.8
43.796,2.44
43.812,0.11
43.828,-2.28
43.843,-4.89
43.859,-7.83
43.875,-10.93
43.890,-13.96
43.906,-16.63
43.921,-18.8
43.937,-20.54
43.953,-22.2
43.968,-24.11
43.984,-26.6
44.000,-29.76
44.015,-33.49
44.031,-37.54
44.046,-41.51
44.062,-44.81
44.078,-46.74
44.093,-46.58
44.109,-43.78
44.125,-38.31
44.140,-30.61
44.156,-21.66
44.171,-12.58
44.187,-4.26
44.203,2.87
44.218,8.78
44.234,13.71
44.250,17.88
44.265,21.34
44.281,24.04
44.296,25.88
44.312,26.84
44.328,27.07
44.343,26.86
44.359,26.47
44.375,26.07
44.390,25.73
44.406,25.35
44.421,24.79
44.437,24.02
44.453,23.11
44.468,22.28
44.484,21.71
44.500,21.43
44.515,21.21
44.531,20.69
44.546,19.52
44.562,17.58
44.578,15.02
44.593,12.23
44.609,9.53
44.625,7.08
44.640,4.85
44.656,2.71
44.671,0.5
44.687,-1.87
44.703,-4.43
44.718,-7.19
44.734,-10.14
44.750,-13.25
44.765,-16.48
44.781,-19.71
44.796,-22.83
44.812,-25.77
44.828,-28.6
44.843,-31.49
44.859,-34.64
44.875,-38.22
44.890,-42.12
44.906,-45.92
44.921,-48.91
44.937,-50.22
44.953,-49.16
44.968,-45.46
44.984,-39.35
45.000,-31.5
45.015,-22.78
45.031,-13.93
45.046,-5.45
45.062,2.38
45.078,9.35
45.093,15.27
45.109,19.96
45.125,23.26
45.140,25.21
45.156,26.01
45.171,25.98
45.187,25.49
45.203,24.83
45.218,24.27
45.234,23.96
45.250,23.99
45.265,24.36
45.281,24.94
45.296,25.57
45.312,26.0
45.328,26.03
45.343,25.58
45.359,24.71
45.375,23.53
45.390,22.17
45.406,20.63
45.421,18.84
45.437,16.66
45.453,14.0
45.468,10.93
45.484,7.67
45.500,4.58
45.515,1.89
45.531,-0.33
45.546,-2.36
45.562,-4.57
45.578,-7.28
45.593,-10.58
45.609,-14.24
45.625,-17.87
45.640,-21.09
45.656,-23.81
45.671,-26.22
45.687,-28.73
45.703,-31.86
45.718,-35.9
45.734,-40.85
45.750,-46.34
45.765,-51.69
45.781,-56.07
45.796,-58.66
45.812,-58.83
45.828,-56.27
45.843,-51.04
45.859,-43.57
45.875,-34.58
45.890,-24.93
45.906,-15.47
45.921,-6.79
45.937,0.81
45.953,7.28
45.968,12.73
45.984,17.25
46.000,20.85
46.015,23.54
46.031,25.34
46.046,26.44
46.062,27.03
46.078,27.42
46.093,27.77
46.109,28.13
46.125,28.51
46.140,28.86
46.156,29.08
46.171,29.09
46.187,28.8
46.203,28.15
46.218,27.14
46.234,25.79
46.250,24.17
46.265,22.28
46.281,20.07
46.296,17.54
46.312,14.76
46.328,11.93
46.343,9.28
46.359,6.92
46.375,4.78
46.390,2.61
46.406,0.07
46.421,-3.07
46.437,-6.85
46.453,-11.04
46.468,-15.35
46.484,-19.45
46.500,-23.11
46.515,-26.24
46.531,-28.94
46.546,-31.43
46.562,-34.09
46.578,-37.26
46.593,-41.23
46.609,-45.97
46.625,-51.15
46.640,-55.98
46.656,-59.45
46.671,-60.59
46.687,-58.76
46.703,-53.9
46.718,-46.48
46.734,-37.37
46.750,-27.58
46.765,-18.0
46.781,-9.25
46.796,-1.63
46.812,4.82
46.828,10.3
46.843,15.01
46.859,19.1
46.875,22.61
46.890,25.51
46.906,27.72
46.921,29.23
46.937,30.12
46.953,30.56
46.968,30.79
46.984,31.01
47.000,31.28
47.015,31.6
47.031,31.88
47.046,31.97
47.062,31.82
47.078,31.39
47.093,30.73
47.109,29.94
47.125,29.08
47.140,28.16
47.156,27.05
47.171,25.64
47.187,23.78
47.203,21.5
47.218,18.88
47.234,16.08
47.250,13.19
47.265,10.22
47.281,7.03
47.296,3.58
47.312,-0.15
47.328,-4.05
47.343,-7.9
47.359,-11.54
47.375,-14.82
47.390,-17.75
47.406,-20.41
47.421,-23.01
47.437,-25.73
47.453,-28.83
47.468,-32.52
47.484,-36.89
47.500,-41.86
47.515,-47.01
47.531,-51.65
47.546,-54.94
47.562,-56.06
47.578,-54.44
47.593,-49.87
47.609,-42.63
47.625,-33.36
47.640,-22.97
47.656,-12.47
47.671,-2.74
47.687,5.59
47.703,12.19
47.718,17.13
47.734,20.71
47.750,23.33
47.765,25.32
47.781,26.9
47.796,28.17
47.812,29.16
47.828,29.97
47.843,30.7
47.859,31.46
47.875,32.35
47.890,33.35
47.906,34.37
47.921,35.22
47.937,35.72
47.953,35.71
47.968,35.15
47.984,34.07
48.000,32.54
48.015,30.68
48.031,28.49
48.046,26.02
48.062,23.24
48.078,20.19
48.093,17.01
48.109,13.87
48.125,10.92
48.140,8.24
48.156,5.81
48.171,3.52
48.187,1.32
48.203,-0.89
48.218,-3.1
48.234,-5.29
48.250,-7.47
48.265,-9.7
48.281,-12.02
48.296,-14.46
48.312,-16.98
48.328,-19.5
48.343,-22.04
48.359,-24.74
48.375,-27.82
48.390,-31.48
48.406,-35.77
48.421,-40.52
48.437,-45.25
48.453,-49.21
48.468,-51.61
48.484,-51.77
48.500,-49.28
48.515,-44.18
48.531,-36.92
48.546,-28.23
48.562,-19.01
48.578,-10.05
48.593,-1.89
48.609,5.25
48.625,11.39
48.640,16.65
48.656,21.1
48.671,24.72
48.687,27.5
48.703,29.42
48.718,30.58
48.734,31.19
48.750,31.5
48.765,31.68
48.781,31.81
48.796,31.8
48.812,31.55
48.828,31.0
48.843,30.2
48.859,29.29
48.875,28.45
48.890,27.82
48.906,27.43
48.921,27.22
48.937,27.02
48.953,26.6
48.968,25.74
48.984,24.32
49.000,22.36
49.015,20.03
49.031,17.54
49.046,15.07
49.062,12.72
49.078,10.42
49.093,8.1
49.109,5.7
49.125,3.25
49.140,0.81
49.156,-1.61
49.171,-4.12
49.187,-6.87
49.203,-9.94
49.218,-13.32
49.234,-16.77
49.250,-20.04
49.265,-22.94
49.281,-25.48
49.296,-27.85
49.312,-30.39
49.328,-33.36
49.343,-36.93
49.359,-41.05
49.375,-45.27
49.390,-48.93
49.406,-51.15
49.421,-51.12
49.437,-48.29
49.453,-42.61
49.468,-34.55
49.484,-24.99
49.500,-15.01
49.515,-5.49
49.531,2.98
49.546,10.19
49.562,16.16
49.578,21.02
49.593,24.81
49.609,27.52
49.625,29.07
49.640,29.43
49.656,28.83
49.671,27.65
49.687,26.43
49.703,25.64
49.718,25.51
49.734,26.04
49.750,26.92
49.765,27.81
49.781,28.44
49.796,28.72
49.812,28.64
49.828,28.24
49.843,27.53
49.859,26.46
49.875,25.02
49.890,23.27
49.906,21.41
49.921,19.67
49.937,18.19
49.953,16.96
49.968,15.78
49.984,14.43
50.000,12.71
50.015,10.54
50.031,7.94
50.046,5.03
50.062,1.87
50.078,-1.43
50.093,-4.8
50.109,-8.08
50.125,-11.16
50.140,-13.97
50.156,-16.51
50.171,-18.87
50.187,-21.18
50.203,-23.59
50.218,-26.18
50.234,-29.09
50.250,-32.36
50.265,-35.93
50.281,-39.49
50.296,-42.34
50.312,-43.63
50.328,-42.51
50.343,-38.56
50.359,-32.03
50.375,-23.8
50.390,-15.08
50.406,-6.99
50.421,-0.18
50.437,5.28
50.453,9.69
50.468,13.44
50.484,16.69
50.500,19.34
50.515,21.17
50.531,22.01
50.546,21.85
50.562,20.96
50.578,19.71
50.593,18.48
50.609,17.56
50.625,17.07
50.640,16.98
50.656,17.18
50.671,17.52
50.687,17.87
50.703,18.09
50.718,18.12
50.734,17.89
50.750,17.32
50.765,16.35
50.781,14.98
50.796,13.33
50.812,11.67
50.828,10.26
50.843,9.23
50.859,8.45
50.875,7.59
50.890,6.2
50.906,3.97
50.921,0.86
50.937,-2.88
50.953,-6.83
50.968,-10.6
50.984,-13.98
51.000,-16.95
51.015,-19.69
51.031,-22.35
51.046,-25.06
51.062,-27.88
51.078,-30.92
51.093,-34.29
51.109,-38.0
51.125,-41.83
51.140,-45.19
51.156,-47.25
51.171,-47.07
51.187,-44.07
51.203,-38.26
51.218,-30.33
51.234,-21.45
51.250,-12.85
51.265,-5.44
51.281,0.46
51.296,5.06
51.312,8.8
51.328,12.14
51.343,15.25
51.359,18.02
51.375,20.23
51.390,21.65
51.406,22.25
51.421,22.21
51.437,21.84
51.453,21.43
51.468,21.15
51.484,21.01
51.500,20.95
51.515,20.87
51.531,20.72
51.546,20.48
51.562,20.22
51.578,19.91
51.593,19.4
51.609,18.52
51.625,16.99
51.640,14.7
51.656,11.69
51.671,8.24
51.687,4.75
51.703,1.57
51.718,-1.02
51.734,-3.1
51.750,-4.79
51.765,-6.34
51.781,-7.97
51.796,-9.8
51.812,-11.85
51.828,-14.17
51.843,-16.78
51.859,-19.61
51.875,-22.55
51.890,-25.41
51.906,-28.08
51.921,-30.63
51.937,-33.36
51.953,-36.71
51.968,-40.92
51.984,-45.86
52.000,-50.79
52.015,-54.58
52.031,-55.99
52.046,-54.25
52.062,-49.31
52.078,-41.78
52.093,-32.79
52.109,-23.42
52.125,-14.54
52.140,-6.56
52.156,0.38
52.171,6.3
52.187,11.16
52.203,14.87
52.218,17.48
52.234,19.13
52.250,20.14
52.265,20.9
52.281,21.76
52.296,22.87
52.312,24.16
52.328,25.42
52.343,26.37
52.359,26.92
52.375,27.08
52.390,27.07
52.406,27.13
52.421,27.4
52.437,27.79
52.453,28.0
52.468,27.68
52.484,26.58
52.500,24.68
52.515,22.16
52.531,19.39
52.546,16.69
52.562,14.27
52.578,12.25
52.593,10.52
52.609,8.97
52.625,7.35
52.640,5.39
52.656,2.81
52.671,-0.52
52.687,-4.55
52.703,-8.99
52.718,-13.36
52.734,-17.21
52.750,-20.23
52.765,-22.45
52.781,-24.22
52.796,-26.05
52.812,-28.41
52.828,-31.48
52.843,-35.11
52.859,-38.81
52.875,-41.9
52.890,-43.68
52.906,-43.61
52.921,-41.38
52.937,-36.94
52.953,-30.51
52.968,-22.5
52.984,-13.48
53.000,-4.01
53.015,5.29
53.031,13.97
53.046,21.7
53.062,28.33
53.078,33.94
53.093,38.71
53.109,42.91
53.125,46.79
53.140,50.47
53.156,53.92
53.171,57.05
53.187,59.78
53.203,62.12
53.218,64.13
53.234,65.79
53.250,66.98
53.265,67.47
53.281,67.03
53.296,65.59
53.312,63.29
53.328,60.35
53.343,56.9
53.359,52.91
53.375,48.07
53.390,42.08
53.406,34.8
53.421,26.36
53.437,17.14
53.453,7.68
53.468,-1.48
53.484,-9.84
53.500,-16.97
53.515,-22.63
53.531,-26.78
53.546,-29.67
53.562,-31.74
53.578,-33.55
53.593,-35.53
53.609,-37.93
53.625,-40.78
53.640,-43.86
53.656,-46.86
53.671,-49.47
53.687,-51.38
53.703,-52.42
53.718,-52.64
53.734,-52.37
53.750,-52.12
53.765,-52.36
53.781,-53.13
53.796,-53.93
53.812,-53.86
53.828,-51.93
53.843,-47.56
53.859,-40.81
53.875,-32.37
53.890,-23.22
53.906,-14.21
53.921,-5.83
53.937,1.87
53.953,9.06
53.968,16.0
53.984,22.83
54.000,29.51
54.015,35.83
54.031,41.46
54.046,45.94
54.062,48.82
54.078,49.79
54.093,48.85
54.109,46.46
54.125,43.35
54.140,40.31
54.156,37.82
54.171,35.71
54.187,33.17
54.203,29.1
54.218,22.64
54.234,13.7
54.250,3.2
54.265,-7.37
54.281,-16.41
54.296,-23.12
54.312,-27.59
54.328,-30.94
54.343,-34.51
54.359,-39.16
54.375,-44.87
54.390,-50.66
54.406,-55.04
54.421,-56.24
54.437,-52.82
54.453,-44.19
54.468,-30.98
54.484,-15.21
54.500,-0.24
54.515,10.03
54.531,12.31
54.546,5.02
54.562,-10.77
54.578,-31.47
54.593,-51.79
54.609,-66.44
54.625,-71.99
54.640,-68.14
54.656,-57.82
54.671,-45.86
54.687,-36.87
54.703,-33.15
54.718,-33.96
54.734,-36.22
54.750,-36.38
54.765,-32.45
54.781,-24.83
54.796,-15.84
54.812,-7.85
54.828,-2.08
54.843,1.92
54.859,5.57
54.875,9.94
54.890,15.0
54.906,19.59
54.921,22.36
54.937,22.7
54.953,21.17
54.968,19.1
54.984,17.95
55.000,18.42
55.015,20.19
55.031,22.14
55.046,22.9
55.062,21.57
55.078,17.91
55.093,12.41
55.109,5.93
55.125,-0.71
55.140,-6.88
55.156,-12.17
55.171,-16.25
55.187,-18.8
55.203,-19.54
55.218,-18.42
55.234,-15.71
55.250,-12.08
55.265,-8.42
55.281,-5.69
55.296,-4.68
55.312,-5.81
55.328,-9.14
55.343,-14.32
55.359,-20.63
55.375,-27.13
55.390,-32.84
55.406,-36.93
55.421,-38.81
55.437,-38.23
55.453,-35.13
55.468,-29.59
55.484,-21.74
55.500,-11.84
55.515,-0.27
55.531,12.28
55.546,24.9
55.562,36.57
55.578,46.25
55.593,52.96
55.609,56.14
55.625,55.88
55.640,53.27
55.656,50.44
55.671,49.93
55.687,53.8
55.703,62.53
55.718,74.51
55.734,86.44
55.750,94.61
55.765,96.44
55.781,91.51
55.796,81.61
55.812,69.82
55.828,59.14
55.843,51.42
55.859,47.09
55.875,45.63
55.890,46.32
55.906,48.67
55.921,52.53
55.937,57.66
55.953,63.37
55.968,68.51
55.984,71.86
56.000,72.83
56.015,71.88
56.031,70.44
56.046,70.11
56.062,71.82
56.078,75.21
56.093,78.66
56.109,80.05
56.125,77.64
56.140,70.83
56.156,60.44
56.171,48.21
56.187,36.16
56.203,25.81
56.218,17.79
56.234,11.89
56.250,7.39
56.265,3.44
56.281,-0.62
56.296,-5.1
56.312,-10.09
56.328,-15.55
56.343,-21.65
56.359,-28.73
56.375,-37.27
56.390,-47.51
56.406,-59.26
56.421,-71.78
56.437,-83.76
56.453,-93.61
56.468,-99.71
56.484,-100.84
56.500,-96.53
56.515,-87.3
56.531,-74.59
56.546,-60.46
56.562,-47.08
56.578,-36.05
56.593,-28.17
56.609,-23.32
56.625,-20.79
56.640,-19.8
56.656,-19.79
56.671,-20.54
56.687,-21.93
56.703,-23.69
56.718,-25.21
56.734,-25.86
56.750,-25.19
56.765,-23.22
56.781,-20.46
56.796,-17.68
56.812,-15.54
56.828,-14.22
56.843,-13.49
56.859,-12.82
56.875,-11.77
56.890,-10.22
56.906,-8.35
56.921,-6.56
56.937,-5.18
56.953,-4.32
56.968,-3.89
56.984,-3.68
57.000,-3.53
57.015,-3.31
57.031,-3.0
57.046,-2.57
57.062,-2.03
57.078,-1.4
57.093,-0.7
57.109,0.01
57.125,0.64
57.140,1.09
57.156,1.22
57.171,0.85
57.187,-0.19
57.203,-2.04
57.218,-4.67
57.234,-7.8
57.250,-11.08
57.265,-14.14
57.281,-16.72
57.296,-18.73
57.312,-20.21
57.328,-21.22
57.343,-21.8
57.359,-22.05
57.375,-22.08
57.390,-22.06
57.406,-22.15
57.421,-22.41
57.437,-22.88
57.453,-23.57
57.468,-24.53
57.484,-25.85
57.500,-27.64
57.515,-29.93
57.531,-32.58
57.546,-35.4
57.562,-38.15
57.578,-40.67
57.593,-42.89
57.609,-44.81
57.625,-46.63
57.640,-48.73
57.656,-51.57
57.671,-55.49
57.687,-60.46
57.703,-65.93
57.718,-70.78
57.734,-73.63
57.750,-73.29
57.765,-69.23
57.781,-61.75
57.796,-51.9
57.812,-41.11
57.828,-30.74
57.843,-21.68
57.859,-14.25
57.875,-8.23
57.890,-3.15
57.906,1.37
57.921,5.51
57.937,9.15
57.953,12.06
57.968,14.16
57.984,15.64
58.000,16.86
58.015,18.22
58.031,19.89
58.046,21.71
58.062,23.28
58.078,24.2
58.093,24.3
58.109,23.72
58.125,22.86
58.140,22.06
58.156,21.49
58.171,21.04
58.187,20.44
58.203,19.39
58.218,17.72
58.234,15.39
58.250,12.52
58.265,9.3
58.281,5.98
58.296,2.76
58.312,-0.24
58.328,-3.04
58.343,-5.77
58.359,-8.64
58.375,-11.9
58.390,-15.74
58.406,-20.2
58.421,-25.09
58.437,-29.9
58.453,-33.91
58.468,-36.23
58.484,-36.11
58.500,-33.15
58.515,-27.48
58.531,-19.8
58.546,-11.14
58.562,-2.5
58.578,5.41
58.593,12.31
58.609,18.26
58.625,23.35
58.640,27.51
58.656,30.53
58.671,32.1
58.687,32.14
58.703,30.93
58.718,29.11
58.734,27.4
58.750,26.33
58.765,26.03
58.781,26.23
58.796,26.44
58.812,26.29
58.828,25.6
58.843,24.49
58.859,23.21
58.875,21.93
58.890,20.58
58.906,18.96
58.921,16.8
58.937,13.99
58.953,10.67
58.968,7.14
58.984,3.75
59.000,0.72
59.015,-1.94
59.031,-4.43
59.046,-7.07
59.062,-10.22
59.078,-14.12
59.093,-18.89
59.109,-24.33
59.125,-29.94
59.140,-34.88
59.156,-38.12
59.171,-38.75
59.187,-36.27
59.203,-30.86
59.218,-23.31
59.234,-14.79
59.250,-6.37
59.265,1.18
59.281,7.61
59.296,12.91
59.312,17.31
59.328,21.01
59.343,24.06
59.359,26.44
59.375,28.03
59.390,28.76
59.406,28.63
59.421,27.81
59.437,26.52
59.453,25.02
59.468,23.54
59.484,22.09
59.500,20.64
59.515,19.06
59.531,17.29
59.546,15.35
59.562,13.33
59.578,11.29
59.593,9.14
59.609,6.69
59.625,3.7
59.640,0.12
59.656,-3.86
59.671,-7.84
59.687,-11.47
59.703,-14.61
59.718,-17.48
59.734,-20.58
59.750,-24.43
59.765,-29.26
59.781,-34.71
59.796,-39.85
59.812,-43.44
59.828,-44.33
59.843,-41.89
59.859,-36.25
59.875,-28.26
59.890,-19.09
59.906,-9.89
59.921,-1.4
59.937,6.07
59.953,12.53
59.968,18.07
59.984,22.7
