timestamp,value
00.000,-62.98
00.015,-55.46
00.031,-47.33
00.046,-41.88
00.062,-41.3
00.078,-45.97
00.093,-54.64
00.109,-65.09
00.125,-74.91
00.140,-82.17
00.156,-85.74
00.171,-85.51
00.187,-82.48
00.203,-78.54
00.218,-75.9
00.234,-76.17
00.250,-79.66
00.265,-85.07
00.281,-89.85
00.296,-91.21
00.312,-87.13
00.328,-77.09
00.343,-62.4
00.359,-45.94
00.375,-31.26
00.390,-21.5
00.406,-18.23
00.421,-20.87
00.437,-26.97
00.453,-33.45
00.468,-38.33
00.484,-41.68
00.500,-45.22
00.515,-50.78
00.531,-58.72
00.546,-67.24
00.562,-73.22
00.578,-74.24
00.593,-70.11
00.609,-63.22
00.625,-56.98
00.640,-53.73
00.656,-53.36
00.671,-53.59
00.687,-51.66
00.703,-46.11
00.718,-37.26
00.734,-26.03
00.750,-12.65
00.765,3.62
00.781,23.06
00.796,43.84
00.812,61.5
00.828,71.0
00.843,70.08
00.859,61.83
00.875,54.27
00.890,56.54
00.906,73.99
00.921,105.01
00.937,141.78
00.953,174.36
00.968,195.46
00.984,202.96
01.000,199.15
01.015,187.61
01.031,170.39
01.046,147.39
01.062,117.86
01.078,82.59
01.093,44.95
01.109,9.97
01.125,-17.53
01.140,-34.95
01.156,-42.75
01.171,-43.84
01.187,-42.22
01.203,-41.48
01.218,-43.65
01.234,-48.34
01.250,-52.81
01.265,-52.86
01.281,-44.73
01.296,-27.2
01.312,-3.01
01.328,21.51
01.343,38.78
01.359,43.15
01.375,33.62
01.390,14.48
01.406,-6.5
01.421,-21.54
01.437,-26.08
01.453,-19.91
01.468,-6.11
01.484,11.38
01.500,29.94
01.515,48.73
01.531,67.54
01.546,85.04
01.562,98.04
01.578,102.3
01.593,94.75
01.609,75.67
01.625,49.44
01.640,23.21
01.656,3.88
01.671,-4.75
01.687,-3.19
01.703,4.78
01.718,14.53
01.734,22.9
01.750,29.04
01.765,33.66
01.781,37.56
01.796,40.49
01.812,41.27
01.828,38.8
01.843,33.27
01.859,26.39
01.875,20.48
01.890,16.92
01.906,15.21
01.921,13.41
01.937,9.69
01.953,4.13
01.968,-0.78
01.984,-1.22
02.000,5.57
02.015,19.18
02.031,35.38
02.046,47.52
02.062,49.49
02.078,38.43
02.093,15.98
02.109,-12.62
02.125,-40.87
02.140,-63.66
02.156,-78.75
02.171,-87.0
02.187,-91.19
02.203,-94.4
02.218,-98.59
02.234,-103.9
02.250,-108.8
02.265,-110.96
02.281,-108.38
02.296,-100.18
02.312,-86.67
02.328,-68.9
02.343,-47.93
02.359,-24.46
02.375,1.05
02.390,27.8
02.406,54.07
02.421,77.29
02.437,94.7
02.453,104.49
02.468,106.46
02.484,102.09
02.500,93.89
02.515,84.42
02.531,75.67
02.546,68.85
02.562,64.56
02.578,62.99
02.593,63.76
02.609,65.79
02.625,67.08
02.640,65.21
02.656,58.09
02.671,44.81
02.687,26.09
02.703,4.35
02.718,-16.99
02.734,-34.45
02.750,-45.33
02.765,-48.52
02.781,-44.64
02.796,-35.9
02.812,-25.26
02.828,-15.55
02.843,-8.72
02.859,-5.4
02.875,-5.25
02.890,-7.58
02.906,-11.96
02.921,-18.08
02.937,-25.15
02.953,-31.27
02.968,-33.5
02.984,-29.12
03.000,-17.19
03.015,0.16
03.031,18.1
03.046,31.01
03.062,34.83
03.078,28.8
03.093,15.53
03.109,-0.31
03.125,-14.17
03.140,-23.33
03.156,-27.63
03.171,-29.04
03.187,-30.51
03.203,-34.61
03.218,-42.35
03.234,-52.66
03.250,-62.62
03.265,-68.59
03.281,-67.77
03.296,-59.54
03.312,-45.97
03.328,-30.87
03.343,-18.09
03.359,-9.79
03.375,-5.71
03.390,-3.68
03.406,-1.24
03.421,3.01
03.437,8.95
03.453,15.42
03.468,21.26
03.484,26.02
03.500,30.12
03.515,34.29
03.531,38.94
03.546,43.73
03.562,47.71
03.578,49.87
03.593,49.7
03.609,47.47
03.625,44.11
03.640,40.82
03.656,38.62
03.671,38.05
03.687,39.21
03.703,41.81
03.718,45.14
03.734,48.18
03.750,49.63
03.765,48.19
03.781,43.02
03.796,34.16
03.812,22.71
03.828,10.64
03.843,0.02
03.859,-7.94
03.875,-13.51
03.890,-18.53
03.906,-25.51
03.921,-36.5
03.937,-51.87
03.953,-70.11
03.968,-88.51
03.984,-104.48
04.000,-116.74
04.015,-125.55
04.031,-132.0
04.046,-136.8
04.062,-139.44
04.078,-138.3
04.093,-131.51
04.109,-117.98
04.125,-97.82
04.140,-72.29
04.156,-43.11
04.171,-12.14
04.187,18.64
04.203,46.94
04.218,70.26
04.234,86.43
04.250,94.37
04.265,94.57
04.281,88.89
04.296,79.71
04.312,68.96
04.328,57.62
04.343,45.82
04.359,33.51
04.375,21.18
04.390,9.99
04.406,1.41
04.421,-3.87
04.437,-6.56
04.453,-8.93
04.468,-14.21
04.484,-25.36
04.500,-43.99
04.515,-69.69
04.531,-100.16
04.546,-131.86
04.562,-160.87
04.578,-183.87
04.593,-198.82
04.609,-205.38
04.625,-205.01
04.640,-200.35
04.656,-194.29
04.671,-188.67
04.687,-183.48
04.703,-176.91
04.718,-166.51
04.734,-150.58
04.750,-129.28
04.765,-104.55
04.781,-79.2
04.796,-55.52
04.812,-34.52
04.828,-16.1
04.843,0.21
04.859,14.19
04.875,24.59
04.890,29.55
04.906,27.72
04.921,19.12
04.937,5.25
04.953,-11.38
04.968,-28.07
04.984,-42.3
05.000,-51.78
05.015,-54.34
05.031,-47.95
05.046,-31.63
05.062,-6.57
05.078,23.08
05.093,50.89
05.109,70.41
05.125,78.34
05.140,76.67
05.156,72.22
05.171,73.35
05.187,85.48
05.203,108.16
05.218,135.26
05.234,158.48
05.250,171.83
05.265,174.5
05.281,170.51
05.296,165.64
05.312,163.74
05.328,164.59
05.343,164.71
05.359,160.23
05.375,149.7
05.390,134.94
05.406,119.7
05.421,107.13
05.437,97.72
05.453,89.01
05.468,76.95
05.484,58.15
05.500,31.5
05.515,-1.29
05.531,-36.17
05.546,-68.1
05.562,-92.54
05.578,-106.5
05.593,-109.19
05.609,-101.96
05.625,-87.79
05.640,-70.38
05.656,-53.34
05.671,-39.34
05.687,-29.87
05.703,-25.38
05.718,-25.37
05.734,-28.34
05.750,-31.69
05.765,-31.96
05.781,-25.57
05.796,-10.11
05.812,14.42
05.828,45.06
05.843,76.68
05.859,103.74
05.875,122.42
05.890,131.79
05.906,133.57
05.921,130.79
05.937,125.97
05.953,120.08
05.968,112.57
05.984,102.36
06.000,88.93
06.015,72.76
06.031,55.29
06.046,38.21
06.062,22.82
06.078,9.58
06.093,-2.01
06.109,-13.21
06.125,-25.57
06.140,-40.3
06.156,-57.95
06.171,-77.99
06.187,-98.77
06.203,-117.95
06.218,-133.23
06.234,-143.33
06.250,-148.48
06.265,-150.22
06.281,-150.43
06.296,-150.23
06.312,-149.35
06.328,-146.62
06.343,-141.1
06.359,-133.02
06.375,-124.05
06.390,-116.5
06.406,-112.28
06.421,-111.98
06.437,-114.64
06.453,-118.31
06.468,-120.87
06.484,-120.75
06.500,-117.32
06.515,-110.96
06.531,-102.76
06.546,-93.97
06.562,-85.6
06.578,-77.9
06.593,-70.12
06.609,-60.67
06.625,-48.09
06.640,-31.93
06.656,-13.16
06.671,6.1
06.687,23.58
06.703,37.86
06.718,48.84
06.734,57.46
06.750,64.84
06.765,71.53
06.781,77.31
06.796,81.54
06.812,83.71
06.828,83.87
06.843,82.44
06.859,79.58
06.875,75.04
06.890,68.35
06.906,59.61
06.921,50.12
06.937,41.99
06.953,36.81
06.968,34.54
06.984,33.1
07.000,29.5
07.015,21.61
07.031,9.68
07.046,-3.15
07.062,-11.9
07.078,-11.45
07.093,1.58
07.109,27.76
07.125,64.33
07.140,105.46
07.156,143.33
07.171,169.82
07.187,178.76
07.203,167.77
07.218,138.68
07.234,96.74
07.250,48.55
07.265,0.01
07.281,-45.09
07.296,-85.0
07.312,-119.55
07.328,-149.27
07.343,-174.93
07.359,-197.56
07.375,-218.21
07.390,-237.73
07.406,-256.03
07.421,-271.55
07.437,-281.36
07.453,-281.98
07.468,-270.83
07.484,-247.55
07.500,-214.71
07.515,-177.17
07.531,-140.49
07.546,-108.78
07.562,-83.01
07.578,-60.93
07.593,-38.5
07.609,-12.24
07.625,18.85
07.640,52.57
07.656,84.48
07.671,109.45
07.687,123.38
07.703,124.6
07.718,113.96
07.734,94.51
07.750,70.7
07.765,47.42
07.781,29.21
07.796,19.74
07.812,21.28
07.828,34.31
07.843,57.13
07.859,85.74
07.875,114.54
07.890,137.51
07.906,150.09
07.921,150.75
07.937,141.55
07.953,127.23
07.968,113.21
07.984,103.68
08.000,100.19
08.015,101.35
08.031,103.6
08.046,102.47
08.062,94.48
08.078,78.93
08.093,58.96
08.109,41.21
08.125,33.77
08.140,42.66
08.156,68.83
08.171,106.92
08.187,146.93
08.203,178.01
08.218,192.5
08.234,188.16
08.250,167.58
08.265,135.82
08.281,97.76
08.296,56.72
08.312,14.76
08.328,-26.34
08.343,-64.31
08.359,-96.38
08.375,-119.82
08.390,-132.68
08.406,-134.16
08.421,-124.85
08.437,-106.61
08.453,-82.41
08.468,-56.04
08.484,-31.51
08.500,-12.02
08.515,0.96
08.531,8.3
08.546,13.04
08.562,19.35
08.578,31.08
08.593,50.28
08.609,76.52
08.625,107.04
08.640,137.83
08.656,164.99
08.671,185.77
08.687,198.89
08.703,204.21
08.718,202.07
08.734,192.83
08.750,177.05
08.765,155.89
08.781,131.6
08.796,107.4
08.812,86.61
08.828,71.48
08.843,62.36
08.859,57.62
08.875,54.57
08.890,50.85
08.906,45.56
08.921,39.55
08.937,34.71
08.953,32.75
08.968,34.11
08.984,37.53
09.000,40.54
09.015,40.37
09.031,35.06
09.046,24.06
09.062,8.36
09.078,-9.98
09.093,-28.55
09.109,-45.28
09.125,-58.87
09.140,-68.96
09.156,-75.78
09.171,-79.79
09.187,-81.2
09.203,-79.96
09.218,-76.06
09.234,-69.91
09.250,-62.54
09.265,-55.15
09.281,-48.43
09.296,-41.89
09.312,-33.76
09.328,-21.78
09.343,-4.54
09.359,17.28
09.375,40.67
09.390,61.12
09.406,74.34
09.421,77.89
09.437,72.12
09.453,59.93
09.468,45.67
09.484,33.59
09.500,26.57
09.515,25.2
09.531,27.73
09.546,30.58
09.562,29.69
09.578,21.84
09.593,5.7
09.609,-17.64
09.625,-45.1
09.640,-72.5
09.656,-95.46
09.671,-110.32
09.687,-114.57
09.703,-107.16
09.718,-88.74
09.734,-61.75
09.750,-30.2
09.765,1.11
09.781,27.66
09.796,46.29
09.812,55.78
09.828,56.84
09.843,51.54
09.859,42.48
09.875,32.09
09.890,22.14
09.906,13.67
09.921,7.07
09.937,2.29
09.953,-0.84
09.968,-2.4
09.984,-2.3
10.000,-0.29
10.015,3.85
10.031,9.99
10.046,17.38
10.062,24.57
10.078,29.61
10.093,30.59
10.109,26.34
10.125,17.01
10.140,4.24
10.156,-9.24
10.171,-20.61
10.187,-27.91
10.203,-30.86
10.218,-30.92
10.234,-30.72
10.250,-32.95
10.265,-39.37
10.281,-50.11
10.296,-63.68
10.312,-77.54
10.328,-89.05
10.343,-96.41
10.359,-99.17
10.375,-98.23
10.390,-95.21
10.406,-91.62
10.421,-88.36
10.437,-85.5
10.453,-82.6
10.468,-79.19
10.484,-75.07
10.500,-70.41
10.515,-65.47
10.531,-60.22
10.546,-54.21
10.562,-46.69
10.578,-37.05
10.593,-25.43
10.609,-12.92
10.625,-1.41
10.640,7.27
10.656,12.28
10.671,14.31
10.687,15.44
10.703,18.26
10.718,24.73
10.734,35.36
10.750,49.12
10.765,64.09
10.781,78.34
10.796,90.58
10.812,100.23
10.828,106.96
10.843,110.39
10.859,109.99
10.875,105.34
10.890,96.51
10.906,84.39
10.921,70.48
10.937,56.66
10.953,44.73
10.968,36.05
10.984,31.35
11.000,30.46
11.015,32.4
11.031,35.54
11.046,38.1
11.062,38.78
11.078,37.32
11.093,34.51
11.109,31.76
11.125,30.21
11.140,29.99
11.156,30.26
11.171,29.74
11.187,27.61
11.203,24.16
11.218,20.62
11.234,18.51
11.250,18.67
11.265,20.77
11.281,23.48
11.296,25.15
11.312,24.67
11.328,21.85
11.343,17.2
11.359,11.39
11.375,4.67
11.390,-3.24
11.406,-12.82
11.421,-24.15
11.437,-36.41
11.453,-47.93
11.468,-56.76
11.484,-61.31
11.500,-60.97
11.515,-56.31
11.531,-48.78
11.546,-40.25
11.562,-32.36
11.578,-26.18
11.593,-22.07
11.609,-19.9
11.625,-19.29
11.640,-19.9
11.656,-21.36
11.671,-23.07
11.687,-23.92
11.703,-22.2
11.718,-15.95
11.734,-3.6
11.750,15.16
11.765,38.97
11.781,64.88
11.796,89.24
11.812,108.65
11.828,120.83
11.843,124.85
11.859,120.92
11.875,110.12
11.890,94.21
11.906,75.53
11.921,56.8
11.937,40.65
11.953,28.98
11.968,22.31
11.984,19.66
12.000,18.91
12.015,17.75
12.031,14.64
12.046,9.33
12.062,2.62
12.078,-4.25
12.093,-10.45
12.109,-15.96
12.125,-21.48
12.140,-27.93
12.156,-35.78
12.171,-44.85
12.187,-54.5
12.203,-64.25
12.218,-74.27
12.234,-85.47
12.250,-98.98
12.265,-115.39
12.281,-134.17
12.296,-153.55
12.312,-171.07
12.328,-184.34
12.343,-191.73
12.359,-192.62
12.375,-187.28
12.390,-176.42
12.406,-160.91
12.421,-141.68
12.437,-119.83
12.453,-96.77
12.468,-74.15
12.484,-53.46
12.500,-35.78
12.515,-21.41
12.531,-9.94
12.546,-0.48
12.562,7.98
12.578,16.26
12.593,24.81
12.609,33.69
12.625,42.62
12.640,51.01
12.656,58.06
12.671,62.84
12.687,64.48
12.703,62.47
12.718,56.83
12.734,48.08
12.750,36.93
12.765,24.17
12.781,10.46
12.796,-3.5
12.812,-16.71
12.828,-27.7
12.843,-34.75
12.859,-36.26
12.875,-31.4
12.890,-20.29
12.906,-3.99
12.921,15.79
12.937,37.26
12.953,58.88
12.968,79.48
12.984,98.2
13.000,114.28
13.015,126.98
13.031,135.61
13.046,139.62
13.062,138.93
13.078,134.01
13.093,125.95
13.109,116.3
13.125,106.55
13.140,97.76
13.156,90.17
13.171,83.22
13.187,75.78
13.203,66.62
13.218,54.66
13.234,39.18
13.250,19.82
13.265,-3.46
13.281,-30.38
13.296,-59.98
13.312,-90.54
13.328,-119.43
13.343,-143.74
13.359,-161.02
13.375,-170.25
13.390,-172.23
13.406,-169.32
13.421,-164.41
13.437,-159.84
13.453,-156.59
13.468,-154.45
13.484,-152.59
13.500,-150.28
13.515,-147.03
13.531,-142.31
13.546,-135.21
13.562,-124.47
13.578,-109.02
13.593,-88.99
13.609,-65.97
13.625,-42.74
13.640,-22.06
13.656,-5.44
13.671,7.67
13.687,19.77
13.703,34.23
13.718,53.94
13.734,79.75
13.750,109.63
13.765,138.67
13.781,160.19
13.796,167.73
13.812,157.47
13.828,129.96
13.843,90.18
13.859,45.94
13.875,5.3
13.890,-25.77
13.906,-44.54
13.921,-51.12
13.937,-47.12
13.953,-34.47
13.968,-14.9
13.984,9.81
14.000,37.25
14.015,64.34
14.031,87.9
14.046,105.5
14.062,116.18
14.078,120.51
14.093,119.88
14.109,115.74
14.125,108.97
14.140,99.78
14.156,88.09
14.171,74.13
14.187,58.92
14.203,44.26
14.218,32.29
14.234,24.64
14.250,21.69
14.265,22.16
14.281,23.35
14.296,21.9
14.312,14.75
14.328,0.04
14.343,-22.34
14.359,-50.7
14.375,-82.07
14.390,-112.63
14.406,-138.56
14.421,-156.63
14.437,-164.93
14.453,-163.32
14.468,-153.61
14.484,-139.09
14.500,-123.37
14.515,-108.98
14.531,-96.44
14.546,-84.5
14.562,-71.4
14.578,-56.44
14.593,-40.78
14.609,-26.8
14.625,-16.59
14.640,-10.57
14.656,-7.27
14.671,-4.68
14.687,-1.78
14.703,0.76
14.718,1.23
14.734,-1.66
14.750,-7.65
14.765,-14.99
14.781,-21.51
14.796,-25.74
14.812,-27.4
14.828,-27.03
14.843,-25.24
14.859,-22.23
14.875,-17.95
14.890,-12.4
14.906,-5.86
14.921,1.22
14.937,8.54
14.953,15.77
14.968,22.26
14.984,26.64
15.000,26.92
15.015,21.2
15.031,8.64
15.046,-9.76
15.062,-31.14
15.078,-51.46
15.093,-66.69
15.109,-74.19
15.125,-73.83
15.140,-68.11
15.156,-61.43
15.171,-58.34
15.187,-61.75
15.203,-71.78
15.218,-86.04
15.234,-100.81
15.250,-112.61
15.265,-119.21
15.281,-119.93
15.296,-115.23
15.312,-106.26
15.328,-94.87
15.343,-83.71
15.359,-76.17
15.375,-75.58
15.390,-84.06
15.406,-101.23
15.421,-123.85
15.437,-146.4
15.453,-162.74
15.468,-168.07
15.484,-160.24
15.500,-139.92
15.515,-109.85
15.531,-73.47
15.546,-33.9
15.562,6.56
15.578,46.2
15.593,83.4
15.609,116.35
15.625,143.2
15.640,162.52
15.656,173.65
15.671,176.7
15.687,172.58
15.703,162.73
15.718,148.95
15.734,133.24
15.750,117.53
15.765,103.45
15.781,92.01
15.796,83.57
15.812,77.99
15.828,74.93
15.843,74.04
15.859,75.0
15.875,77.35
15.890,80.52
15.906,83.87
15.921,86.91
15.937,89.39
15.953,91.17
15.968,91.95
15.984,90.96
16.000,87.02
16.015,79.13
16.031,67.14
16.046,52.19
16.062,36.55
16.078,22.97
16.093,13.4
16.109,7.98
16.125,4.65
16.140,-0.24
16.156,-10.68
16.171,-29.44
16.187,-57.08
16.203,-91.59
16.218,-128.88
16.234,-163.63
16.250,-190.31
16.265,-204.37
16.281,-203.33
16.296,-187.83
16.312,-161.73
16.328,-131.43
16.343,-104.07
16.359,-85.39
16.375,-78.16
16.390,-81.64
16.406,-92.2
16.421,-104.62
16.437,-113.28
16.453,-113.29
16.468,-101.42
16.484,-76.69
16.500,-40.77
16.515,2.33
16.531,47.25
16.546,88.75
16.562,123.08
16.578,148.52
16.593,165.21
16.609,174.2
16.625,176.7
16.640,173.67
16.656,165.86
16.671,154.16
16.687,139.83
16.703,124.46
16.718,109.74
16.734,96.85
16.750,85.9
16.765,75.96
16.781,65.43
16.796,52.99
16.812,38.46
16.828,23.29
16.843,10.15
16.859,1.97
16.875,0.9
16.890,7.61
16.906,21.27
16.921,39.87
16.937,60.84
16.953,81.5
16.968,99.36
16.984,112.28
17.000,118.66
17.015,117.47
17.031,108.49
17.046,92.6
17.062,71.94
17.078,49.69
17.093,29.22
17.109,12.68
17.125,-0.05
17.140,-11.47
17.156,-25.1
17.171,-43.67
17.187,-67.53
17.203,-94.62
17.218,-121.72
17.234,-146.14
17.250,-166.63
17.265,-182.97
17.281,-195.09
17.296,-202.37
17.312,-204.34
17.328,-201.78
17.343,-197.39
17.359,-195.01
17.375,-197.64
17.390,-205.5
17.406,-215.33
17.421,-221.65
17.437,-219.02
17.453,-204.03
17.468,-176.27
17.484,-137.92
17.500,-92.8
17.515,-45.55
17.531,-0.91
17.546,36.8
17.562,64.53
17.578,81.41
17.593,89.22
17.609,91.6
17.625,92.56
17.640,94.67
17.656,98.53
17.671,103.23
17.687,107.61
17.703,111.02
17.718,113.14
17.734,113.04
17.750,108.71
17.765,97.78
17.781,79.15
17.796,54.65
17.812,29.57
17.828,11.14
17.843,6.1
17.859,18.19
17.875,46.94
17.890,87.96
17.906,134.47
17.921,179.21
17.937,216.03
17.953,240.87
17.968,252.04
17.984,250.18
18.000,237.76
18.015,218.24
18.031,195.28
18.046,172.16
18.062,151.35
18.078,134.29
18.093,121.27
18.109,111.36
18.125,102.65
18.140,92.84
18.156,79.99
18.171,63.32
18.187,43.52
18.203,22.4
18.218,1.99
18.234,-16.48
18.250,-33.15
18.265,-49.56
18.281,-67.66
18.296,-88.37
18.312,-110.42
18.328,-130.47
18.343,-144.43
18.359,-149.48
18.375,-145.38
18.390,-134.4
18.406,-119.92
18.421,-104.52
18.437,-88.92
18.453,-72.16
18.468,-52.94
18.484,-30.97
18.500,-7.43
18.515,15.68
18.531,36.57
18.546,54.37
18.562,68.98
18.578,80.2
18.593,87.1
18.609,88.28
18.625,82.95
18.640,72.18
18.656,59.14
18.671,47.96
18.687,41.94
18.703,41.89
18.718,45.59
18.734,48.92
18.750,48.06
18.765,41.43
18.781,30.47
18.796,18.75
18.812,9.87
18.828,5.64
18.843,5.43
18.859,6.91
18.875,7.91
18.890,7.83
18.906,7.95
18.921,10.61
18.937,17.58
18.953,28.99
18.968,43.1
18.984,57.19
19.000,68.77
19.015,76.85
19.031,82.11
19.046,86.29
19.062,90.88
19.078,96.14
19.093,100.78
19.109,102.56
19.125,99.52
19.140,91.1
19.156,78.44
19.171,63.97
19.187,50.26
19.203,39.04
19.218,30.79
19.234,25.01
19.250,20.78
19.265,17.18
19.281,13.34
19.296,8.28
19.312,0.82
19.328,-9.99
19.343,-24.41
19.359,-41.58
19.375,-59.65
19.390,-76.64
19.406,-91.16
19.421,-102.93
19.437,-112.71
19.453,-121.68
19.468,-130.72
19.484,-140.01
19.500,-149.19
19.515,-157.59
19.531,-164.58
19.546,-169.29
19.562,-170.4
19.578,-166.05
19.593,-154.3
19.609,-134.22
19.625,-106.6
19.640,-74.32
19.656,-41.65
19.671,-12.92
19.687,8.83
19.703,22.63
19.718,29.27
19.734,30.41
19.750,27.43
19.765,20.9
19.781,10.68
19.796,-3.14
19.812,-19.7
19.828,-37.17
19.843,-53.25
19.859,-66.12
19.875,-75.08
19.890,-81.11
19.906,-86.38
19.921,-93.37
19.937,-103.8
19.953,-117.87
19.968,-134.32
19.984,-151.11
20.000,-166.5
20.015,-179.79
20.031,-191.27
20.046,-201.52
20.062,-210.34
20.078,-216.25
20.093,-216.89
20.109,-210.28
20.125,-196.04
20.140,-175.98
20.156,-153.21
20.171,-130.53
20.187,-108.95
20.203,-87.5
20.218,-64.47
20.234,-39.2
20.250,-13.17
20.265,10.31
20.281,27.65
20.296,36.98
20.312,39.11
20.328,37.02
20.343,34.16
20.359,32.77
20.375,33.12
20.390,33.92
20.406,33.59
20.421,31.29
20.437,27.31
20.453,22.71
20.468,18.43
20.484,14.77
20.500,11.3
20.515,7.28
20.531,2.21
20.546,-3.78
20.562,-9.88
20.578,-15.02
20.593,-18.46
20.609,-20.21
20.625,-21.07
20.640,-22.31
20.656,-25.11
20.671,-30.1
20.687,-37.07
20.703,-45.07
20.718,-52.71
20.734,-58.56
20.750,-61.44
20.765,-60.62
20.781,-55.92
20.796,-47.69
20.812,-36.71
20.828,-23.95
20.843,-10.38
20.859,3.25
20.875,16.5
20.890,29.19
20.906,41.35
20.921,52.94
20.937,63.83
20.953,73.76
20.968,82.45
20.984,89.71
21.000,95.58
21.015,100.29
21.031,104.23
21.046,107.81
21.062,111.29
21.078,114.69
21.093,117.86
21.109,120.6
21.125,122.94
21.140,125.18
21.156,127.93
21.171,131.81
21.187,137.1
21.203,143.51
21.218,150.19
21.234,155.95
21.250,159.75
21.265,161.16
21.281,160.37
21.296,158.14
21.312,155.22
21.328,152.08
21.343,148.75
21.359,144.89
21.375,139.99
21.390,133.63
21.406,125.64
21.421,116.19
21.437,105.78
21.453,95.14
21.468,85.06
21.484,76.09
21.500,68.41
21.515,61.76
21.531,55.67
21.546,49.62
21.562,43.21
21.578,36.29
21.593,28.83
21.609,20.82
21.625,12.34
21.640,3.62
21.656,-4.96
21.671,-12.95
21.687,-20.15
21.703,-26.9
21.718,-33.9
21.734,-41.54
21.750,-49.06
21.765,-54.37
21.781,-54.82
21.796,-48.72
21.812,-36.84
21.828,-22.71
21.843,-11.47
21.859,-7.75
21.875,-13.7
21.890,-28.41
21.906,-48.47
21.921,-69.69
21.937,-88.45
21.953,-102.28
21.968,-109.49
21.984,-108.67
22.000,-98.67
22.015,-79.44
22.031,-52.86
22.046,-22.91
22.062,5.21
22.078,26.85
22.093,39.5
22.109,43.6
22.125,41.94
22.140,38.08
22.156,34.59
22.171,32.08
22.187,29.44
22.203,25.02
22.218,17.81
22.234,8.05
22.250,-2.95
22.265,-13.49
22.281,-22.06
22.296,-27.39
22.312,-28.23
22.328,-23.4
22.343,-12.24
22.359,4.66
22.375,25.08
22.390,45.41
22.406,61.78
22.421,71.27
22.437,72.68
22.453,66.38
22.468,53.53
22.484,35.23
22.500,12.31
22.515,-14.51
22.531,-44.17
22.546,-74.92
22.562,-104.52
22.578,-130.53
22.593,-150.78
22.609,-163.6
22.625,-167.82
22.640,-162.8
22.656,-148.62
22.671,-126.46
22.687,-98.91
22.703,-69.78
22.718,-43.21
22.734,-22.16
22.750,-7.02
22.765,4.7
22.781,17.44
22.796,35.36
22.812,60.04
22.828,89.57
22.843,119.33
22.859,144.38
22.875,161.86
22.890,172.08
22.906,177.72
22.921,181.58
22.937,184.68
22.953,185.53
22.968,181.18
22.984,169.35
23.000,149.86
23.015,124.97
23.031,98.25
23.046,72.79
23.062,49.99
23.078,29.27
23.093,8.91
23.109,-12.85
23.125,-36.81
23.140,-62.59
23.156,-88.79
23.171,-113.38
23.187,-134.11
23.203,-148.79
23.218,-155.74
23.234,-154.26
23.250,-145.05
23.265,-130.35
23.281,-113.46
23.296,-97.79
23.312,-85.78
23.328,-78.19
23.343,-74.19
23.359,-72.03
23.375,-69.79
23.390,-65.96
23.406,-59.44
23.421,-49.57
23.437,-36.18
23.453,-19.99
23.468,-3.02
23.484,11.69
23.500,21.02
23.515,23.09
23.531,18.29
23.546,9.19
23.562,-0.7
23.578,-8.41
23.593,-12.56
23.609,-13.35
23.625,-11.81
23.640,-8.9
23.656,-5.21
23.671,-1.15
23.687,2.61
23.703,4.9
23.718,4.67
23.734,1.47
23.750,-4.35
23.765,-11.87
23.781,-20.09
23.796,-28.07
23.812,-34.76
23.828,-38.74
23.843,-38.39
23.859,-32.37
23.875,-20.12
23.890,-2.09
23.906,20.23
23.921,44.57
23.937,67.77
23.953,85.91
23.968,95.27
23.984,94.02
24.000,83.83
24.015,70.0
24.031,59.39
24.046,57.08
24.062,63.8
24.078,75.99
24.093,88.27
24.109,96.96
24.125,101.84
24.140,104.84
24.156,106.97
24.171,106.55
24.187,100.26
24.203,86.2
24.218,66.5
24.234,46.83
24.250,33.09
24.265,27.92
24.281,29.34
24.296,32.75
24.312,34.57
24.328,34.41
24.343,34.07
24.359,34.64
24.375,34.3
24.390,29.1
24.406,15.78
24.421,-5.24
24.437,-29.38
24.453,-50.5
24.468,-64.52
24.484,-71.45
24.500,-74.48
24.515,-77.17
24.531,-80.92
24.546,-84.87
24.562,-87.68
24.578,-89.3
24.593,-91.46
24.609,-96.24
24.625,-103.94
24.640,-112.03
24.656,-116.2
24.671,-112.65
24.687,-100.04
24.703,-80.05
24.718,-56.13
24.734,-31.95
24.750,-10.19
24.765,7.64
24.781,20.96
24.796,29.49
24.812,33.23
24.828,32.47
24.843,28.01
24.859,21.3
24.875,14.31
24.890,9.45
24.906,9.23
24.921,15.46
24.937,28.06
24.953,44.25
24.968,58.57
24.984,64.5
25.000,57.16
25.015,35.92
25.031,5.45
25.046,-25.4
25.062,-46.59
25.078,-50.49
25.093,-34.6
25.109,-2.2
25.125,38.88
25.140,79.05
25.156,109.93
25.171,126.46
25.187,127.61
25.203,115.61
25.218,94.19
25.234,67.07
25.250,37.02
25.265,5.87
25.281,-24.96
25.296,-54.0
25.312,-79.51
25.328,-99.91
25.343,-114.0
25.359,-121.21
25.375,-121.38
25.390,-114.65
25.406,-101.52
25.421,-83.21
25.437,-61.94
25.453,-40.73
25.468,-22.49
25.484,-8.8
25.500,1.07
25.515,10.12
25.531,22.22
25.546,40.01
25.562,63.15
25.578,87.96
25.593,108.84
25.609,120.78
25.625,121.71
25.640,113.45
25.656,100.71
25.671,88.78
25.687,81.22
25.703,78.77
25.718,79.82
25.734,81.91
25.750,83.31
25.765,83.57
25.781,83.01
25.796,81.62
25.812,78.39
25.828,71.33
25.843,58.44
25.859,38.9
25.875,13.93
25.890,-13.21
25.906,-38.04
25.921,-56.52
25.937,-66.71
25.953,-69.74
25.968,-69.63
25.984,-71.75
26.000,-80.63
26.015,-97.79
26.031,-120.82
26.046,-144.18
26.062,-161.39
26.078,-167.6
26.093,-161.47
26.109,-145.32
26.125,-123.78
26.140,-101.7
26.156,-82.44
26.171,-67.15
26.187,-55.05
26.203,-44.08
26.218,-31.74
26.234,-15.68
26.250,5.65
26.265,32.34
26.281,62.7
26.296,93.34
26.312,120.18
26.328,139.83
26.343,150.89
26.359,154.35
26.375,152.9
26.390,149.58
26.406,146.32
26.421,143.34
26.437,139.44
26.453,132.91
26.468,122.53
26.484,108.15
26.500,90.66
26.515,71.53
26.531,52.24
26.546,33.78
26.562,16.41
26.578,-0.26
26.593,-16.98
26.609,-34.6
26.625,-53.81
26.640,-74.93
26.656,-97.74
26.671,-121.18
26.687,-143.16
26.703,-160.49
26.718,-169.44
26.734,-166.94
26.750,-151.98
26.765,-126.58
26.781,-95.62
26.796,-65.43
26.812,-41.67
26.828,-27.65
26.843,-23.53
26.859,-27.0
26.875,-34.32
26.890,-41.43
26.906,-44.68
26.921,-41.3
26.937,-29.82
26.953,-10.59
26.968,14.07
26.984,40.31
27.000,63.9
27.015,81.66
27.031,92.28
27.046,96.26
27.062,95.06
27.078,90.0
27.093,81.85
27.109,71.03
27.125,58.39
27.140,45.51
27.156,34.57
27.171,27.62
27.187,25.82
27.203,28.99
27.218,35.77
27.234,44.05
27.250,51.45
27.265,55.89
27.281,55.98
27.296,51.05
27.312,41.16
27.328,26.91
27.343,9.51
27.359,-9.4
27.375,-27.76
27.390,-43.23
27.406,-53.52
27.421,-56.83
27.437,-52.18
27.453,-39.78
27.468,-21.0
27.484,1.88
27.500,26.06
27.515,48.7
27.531,67.17
27.546,79.31
27.562,83.7
27.578,79.73
27.593,67.96
27.609,49.98
27.625,28.26
27.640,5.56
27.656,-15.64
27.671,-33.65
27.687,-47.96
27.703,-59.15
27.718,-68.47
27.734,-77.14
27.750,-85.74
27.765,-93.83
27.781,-100.07
27.796,-102.76
27.812,-100.43
27.828,-92.42
27.843,-78.81
27.859,-60.23
27.875,-37.53
27.890,-11.73
27.906,15.87
27.921,43.43
27.937,68.62
27.953,89.11
27.968,103.17
27.984,110.25
28.000,111.05
28.015,107.13
28.031,100.26
28.046,91.86
28.062,82.66
28.078,72.83
28.093,62.22
28.109,50.69
28.125,38.38
28.140,25.86
28.156,14.16
28.171,4.53
28.187,-1.87
28.203,-4.55
28.218,-4.01
28.234,-1.68
28.250,0.6
28.265,1.2
28.281,-0.7
28.296,-5.0
28.312,-11.04
28.328,-18.19
28.343,-26.31
28.359,-35.73
28.375,-46.93
28.390,-59.78
28.406,-73.41
28.421,-86.14
28.437,-95.87
28.453,-100.57
28.468,-98.72
28.484,-89.6
28.500,-73.4
28.515,-51.2
28.531,-24.81
28.546,3.32
28.562,30.39
28.578,53.31
28.593,69.11
28.609,75.44
28.625,71.31
28.640,57.71
28.656,37.75
28.671,15.92
28.687,-3.29
28.703,-17.04
28.718,-25.2
28.734,-30.11
28.750,-35.21
28.765,-43.19
28.781,-54.54
28.796,-67.47
28.812,-79.01
28.828,-86.56
28.843,-89.01
28.859,-86.78
28.875,-80.95
28.890,-72.17
28.906,-60.25
28.921,-44.82
28.937,-26.19
28.953,-6.2
28.968,11.99
28.984,24.94
29.000,30.31
29.015,27.71
29.031,18.72
29.046,5.91
29.062,-8.46
29.078,-23.26
29.093,-38.64
29.109,-55.32
29.125,-73.75
29.140,-93.49
29.156,-113.22
29.171,-131.06
29.187,-145.19
29.203,-154.36
29.218,-158.16
29.234,-157.21
29.250,-153.07
29.265,-147.85
29.281,-143.84
29.296,-142.85
29.312,-145.7
29.328,-151.91
29.343,-159.87
29.359,-167.25
29.375,-171.53
29.390,-170.53
29.406,-162.75
29.421,-147.68
29.437,-125.89
29.453,-99.02
29.468,-69.34
29.484,-39.18
29.500,-10.13
29.515,17.37
29.531,43.83
29.546,70.03
29.562,96.15
29.578,121.37
29.593,144.07
29.609,162.56
29.625,175.82
29.640,183.84
29.656,187.28
29.671,186.99
29.687,183.66
29.703,177.87
29.718,170.36
29.734,162.35
29.750,155.38
29.765,150.85
29.781,149.32
29.796,150.16
29.812,151.67
29.828,151.7
29.843,148.51
29.859,141.43
29.875,131.14
29.890,119.36
29.906,108.15
29.921,99.14
29.937,92.9
29.953,88.74
29.968,84.89
29.984,78.94
30.000,68.49
30.015,51.87
30.031,28.61
30.046,-0.17
30.062,-31.9
30.078,-62.99
30.093,-89.72
30.109,-109.15
30.125,-119.86
30.140,-122.15
30.156,-117.58
30.171,-108.29
30.187,-96.1
30.203,-82.15
30.218,-66.82
30.234,-50.12
30.250,-32.2
30.265,-13.62
30.281,4.55
30.296,20.97
30.312,34.27
30.328,43.43
30.343,47.89
30.359,47.59
30.375,42.87
30.390,34.31
30.406,22.47
30.421,7.61
30.437,-10.38
30.453,-31.8
30.468,-56.65
30.484,-84.19
30.500,-112.45
30.515,-138.39
30.531,-158.46
30.546,-169.5
30.562,-169.68
30.578,-159.09
30.593,-139.89
30.609,-115.88
30.625,-91.72
30.640,-71.93
30.656,-59.91
30.671,-57.18
30.687,-63.06
30.703,-74.86
30.718,-88.59
30.734,-99.86
30.750,-104.74
30.765,-100.49
30.781,-85.96
30.796,-61.7
30.812,-30.01
30.828,5.6
30.843,41.21
30.859,73.66
30.875,101.49
30.890,125.2
30.906,146.6
30.921,167.47
30.937,188.38
30.953,208.31
30.968,225.16
30.984,236.89
31.000,242.44
31.015,242.02
31.031,236.53
31.046,226.77
31.062,212.93
31.078,194.79
31.093,172.34
31.109,146.49
31.125,119.27
31.140,93.26
31.156,70.62
31.171,52.31
31.187,37.6
31.203,24.42
31.218,10.23
31.234,-6.92
31.250,-27.11
31.265,-48.18
31.281,-66.31
31.296,-77.47
31.312,-79.22
31.328,-72.05
31.343,-59.39
31.359,-46.35
31.375,-37.73
31.390,-36.29
31.406,-42.08
31.421,-52.81
31.437,-64.98
31.453,-75.04
31.468,-80.42
31.484,-79.84
31.500,-73.45
31.515,-62.75
31.531,-50.23
31.546,-38.82
31.562,-31.0
31.578,-27.88
31.593,-28.87
31.609,-31.87
31.625,-34.08
31.640,-33.08
31.656,-27.75
31.671,-18.52
31.687,-7.32
31.703,3.07
31.718,9.91
31.734,11.21
31.750,6.41
31.765,-3.51
31.781,-16.3
31.796,-29.3
31.812,-40.22
31.828,-47.82
31.843,-52.22
31.859,-54.62
31.875,-56.66
31.890,-59.74
31.906,-64.4
31.921,-70.32
31.937,-76.59
31.953,-82.14
31.968,-86.19
31.984,-88.53
32.000,-89.46
32.015,-89.76
32.031,-90.45
32.046,-92.48
32.062,-96.24
32.078,-101.11
32.093,-105.34
32.109,-106.42
32.125,-101.75
32.140,-89.73
32.156,-70.47
32.171,-46.18
32.187,-20.66
32.203,1.83
32.218,17.98
32.234,26.74
32.250,29.66
32.265,30.09
32.281,31.63
32.296,36.26
32.312,43.6
32.328,51.37
32.343,57.04
32.359,59.36
32.375,59.15
32.390,58.53
32.406,59.28
32.421,61.46
32.437,63.13
32.453,61.44
32.468,54.35
32.484,41.9
32.500,26.2
32.515,10.3
32.531,-3.32
32.546,-13.95
32.562,-22.55
32.578,-31.08
32.593,-41.2
32.609,-53.43
32.625,-67.04
32.640,-80.62
32.656,-92.94
32.671,-103.67
32.687,-113.39
32.703,-123.03
32.718,-132.88
32.734,-142.06
32.750,-148.61
32.765,-150.23
32.781,-145.44
32.796,-134.27
32.812,-118.38
32.828,-100.25
32.843,-82.21
32.859,-65.63
32.875,-50.74
32.890,-37.03
32.906,-23.84
32.921,-10.93
32.937,1.57
32.953,13.15
32.968,23.38
32.984,31.95
33.000,38.84
33.015,44.14
33.031,48.04
33.046,50.68
33.062,52.24
33.078,52.99
33.093,53.25
33.109,53.35
33.125,53.55
33.140,53.81
33.156,53.88
33.171,53.41
33.187,52.29
33.203,50.81
33.218,49.76
33.234,50.07
33.250,52.33
33.265,56.47
33.281,61.76
33.296,67.01
33.312,71.14
33.328,73.5
33.343,74.08
33.359,73.46
33.375,72.74
33.390,73.31
33.406,76.49
33.421,83.12
33.437,93.11
33.453,105.24
33.468,117.5
33.484,127.74
33.500,134.6
33.515,137.93
33.531,138.65
33.546,137.98
33.562,136.56
33.578,133.82
33.593,128.13
33.609,117.57
33.625,100.87
33.640,78.31
33.656,51.91
33.671,25.11
33.687,1.92
33.703,-14.1
33.718,-20.89
33.734,-18.27
33.750,-7.99
33.765,6.96
33.781,23.3
33.796,38.26
33.812,49.92
33.828,57.14
33.843,59.26
33.859,55.89
33.875,47.13
33.890,33.93
33.906,18.18
33.921,2.34
33.937,-11.25
33.953,-21.18
33.968,-27.19
33.984,-29.85
34.000,-29.8
34.015,-27.24
34.031,-21.88
34.046,-13.42
34.062,-2.14
34.078,10.91
34.093,24.24
34.109,36.3
34.125,45.91
34.140,52.16
34.156,54.4
34.171,52.18
34.187,45.56
34.203,35.41
34.218,23.52
34.234,12.1
34.250,3.0
34.265,-3.08
34.281,-6.89
34.296,-10.33
34.312,-15.49
34.328,-23.84
34.343,-35.66
34.359,-50.06
34.375,-65.43
34.390,-80.02
34.406,-92.45
34.421,-101.87
34.437,-107.97
34.453,-110.86
34.468,-111.01
34.484,-109.25
34.500,-106.79
34.515,-105.1
34.531,-105.66
34.546,-109.41
34.562,-116.23
34.578,-124.84
34.593,-132.91
34.609,-137.82
34.625,-137.43
34.640,-130.71
34.656,-118.04
34.671,-100.95
34.687,-81.57
34.703,-61.97
34.718,-43.68
34.734,-27.37
34.750,-13.02
34.765,-0.25
34.781,11.4
34.796,22.08
34.812,31.71
34.828,40.05
34.843,46.91
34.859,52.25
34.875,56.22
34.890,58.92
34.906,60.36
34.921,60.4
34.937,58.96
34.953,56.22
34.968,52.79
34.984,49.53
35.000,47.25
35.015,46.27
35.031,46.18
35.046,45.96
35.062,44.34
35.078,40.45
35.093,34.24
35.109,26.57
35.125,18.89
35.140,12.59
35.156,8.36
35.171,5.91
35.187,4.18
35.203,1.86
35.218,-2.09
35.234,-7.89
35.250,-14.94
35.265,-21.9
35.281,-26.93
35.296,-28.14
35.312,-24.01
35.328,-13.87
35.343,1.58
35.359,20.25
35.375,39.03
35.390,54.64
35.406,64.54
35.421,67.68
35.437,64.54
35.453,56.77
35.468,46.52
35.484,35.68
35.500,25.49
35.515,16.45
35.531,8.36
35.546,0.75
35.562,-6.82
35.578,-14.47
35.593,-21.93
35.609,-28.69
35.625,-34.19
35.640,-38.08
35.656,-40.25
35.671,-40.77
35.687,-39.79
35.703,-37.45
35.718,-34.05
35.734,-30.05
35.750,-26.15
35.765,-23.07
35.781,-21.4
35.796,-21.37
35.812,-22.98
35.828,-26.09
35.843,-30.64
35.859,-36.71
35.875,-44.28
35.890,-53.03
35.906,-62.14
35.921,-70.33
35.937,-76.12
35.953,-78.26
35.968,-76.03
35.984,-69.38
36.000,-58.87
36.015,-45.4
36.031,-30.1
36.046,-14.04
36.062,1.9
36.078,17.05
36.093,30.99
36.109,43.52
36.125,54.5
36.140,63.83
36.156,71.39
36.171,77.05
36.187,80.8
36.203,82.69
36.218,82.92
36.234,81.69
36.250,79.25
36.265,75.81
36.281,71.59
36.296,66.96
36.312,62.27
36.328,57.87
36.343,53.91
36.359,50.27
36.375,46.57
36.390,42.39
36.406,37.33
36.421,31.23
36.437,24.19
36.453,16.56
36.468,8.78
36.484,1.22
36.500,-5.92
36.515,-12.74
36.531,-19.62
36.546,-27.1
36.562,-35.68
36.578,-45.59
36.593,-56.64
36.609,-68.13
36.625,-78.94
36.640,-87.69
36.656,-93.12
36.671,-94.36
36.687,-91.06
36.703,-83.45
36.718,-72.21
36.734,-58.21
36.750,-42.36
36.765,-25.5
36.781,-8.37
36.796,8.45
36.812,24.44
36.828,39.13
36.843,52.1
36.859,63.05
36.875,71.77
36.890,78.3
36.906,82.89
36.921,85.97
36.937,88.02
36.953,89.44
36.968,90.41
36.984,90.91
37.000,90.83
37.015,90.08
37.031,88.69
37.046,86.83
37.062,84.7
37.078,82.47
37.093,80.23
37.109,77.97
37.125,75.62
37.140,73.05
37.156,70.14
37.171,66.79
37.187,63.0
37.203,58.96
37.218,55.0
37.234,51.5
37.250,48.67
37.265,46.4
37.281,44.28
37.296,41.77
37.312,38.48
37.328,34.31
37.343,29.47
37.359,24.28
37.375,18.94
37.390,13.41
37.406,7.62
37.421,1.6
37.437,-4.34
37.453,-9.65
37.468,-13.72
37.484,-15.98
37.500,-15.96
37.515,-13.19
37.531,-7.28
37.546,2.13
37.562,15.01
37.578,30.89
37.593,48.76
37.609,67.36
37.625,85.4
37.640,101.91
37.656,116.39
37.671,128.71
37.687,138.97
37.703,147.29
37.718,153.65
37.734,157.74
37.750,159.0
37.765,156.73
37.781,150.39
37.796,139.81
37.812,125.35
37.828,107.78
37.843,88.12
37.859,67.32
37.875,46.15
37.890,25.22
37.906,5.1
37.921,-13.67
37.937,-30.56
37.953,-45.2
37.968,-57.38
37.984,-67.06
38.000,-74.26
38.015,-78.94
38.031,-81.15
38.046,-81.18
38.062,-79.8
38.078,-78.27
38.093,-78.12
38.109,-80.62
38.125,-86.15
38.140,-93.89
38.156,-101.72
38.171,-106.67
38.187,-105.63
38.203,-96.32
38.218,-77.97
38.234,-51.66
38.250,-20.15
38.265,12.79
38.281,43.19
38.296,67.81
38.312,84.77
38.328,93.79
38.343,96.04
38.359,93.55
38.375,88.52
38.390,82.59
38.406,76.47
38.421,69.99
38.437,62.64
38.453,53.99
38.468,44.01
38.484,32.99
38.500,21.35
38.515,9.42
38.531,-2.58
38.546,-14.43
38.562,-25.84
38.578,-36.47
38.593,-46.19
38.609,-55.13
38.625,-63.56
38.640,-71.25
38.656,-77.08
38.671,-78.93
38.687,-74.61
38.703,-63.16
38.718,-45.92
38.734,-26.66
38.750,-10.28
38.765,-0.96
38.781,-0.44
38.796,-7.59
38.812,-19.15
38.828,-31.41
38.843,-41.67
38.859,-48.79
38.875,-52.78
38.890,-54.03
38.906,-52.81
38.921,-49.48
38.937,-45.05
38.953,-41.46
38.968,-41.14
38.984,-45.88
39.000,-55.76
39.015,-68.81
39.031,-81.58
39.046,-90.61
39.062,-93.86
39.078,-91.45
39.093,-85.33
39.109,-78.09
39.125,-71.6
39.140,-66.3
39.156,-61.44
39.171,-55.87
39.187,-48.96
39.203,-40.94
39.218,-32.56
39.234,-24.37
39.250,-16.03
39.265,-6.33
39.281,6.21
39.296,22.43
39.312,41.77
39.328,62.28
39.343,81.13
39.359,95.5
39.375,103.5
39.390,104.46
39.406,98.87
39.421,87.9
39.437,72.92
39.453,55.06
39.468,35.16
39.484,13.77
39.500,-8.5
39.515,-30.84
39.531,-52.04
39.546,-70.53
39.562,-84.69
39.578,-93.24
39.593,-95.89
39.609,-93.65
39.625,-88.9
39.640,-84.69
39.656,-83.86
39.671,-87.94
39.687,-96.47
39.703,-106.96
39.718,-115.45
39.734,-117.72
39.750,-110.49
39.765,-92.4
39.781,-64.39
39.796,-29.28
39.812,9.05
39.828,46.79
39.843,80.95
39.859,109.72
39.875,132.1
39.890,147.44
39.906,155.23
39.921,155.21
39.937,148.02
39.953,135.56
39.968,121.03
39.984,108.01
40.000,99.24
40.015,95.58
40.031,95.64
40.046,96.52
40.062,95.06
40.078,89.19
40.093,78.69
40.109,65.15
40.125,51.06
40.140,38.8
40.156,29.75
40.171,23.9
40.187,20.07
40.203,16.33
40.218,10.54
40.234,0.81
40.250,-14.16
40.265,-34.75
40.281,-60.0
40.296,-87.52
40.312,-113.76
40.328,-135.02
40.343,-148.79
40.359,-154.75
40.375,-154.97
40.390,-153.2
40.406,-153.21
40.421,-157.43
40.437,-166.11
40.453,-177.65
40.468,-189.35
40.484,-198.35
40.500,-202.15
40.515,-198.85
40.531,-187.24
40.546,-167.12
40.562,-139.72
40.578,-107.89
40.593,-75.7
40.609,-47.4
40.625,-26.15
40.640,-13.02
40.656,-6.83
40.671,-4.75
40.687,-3.29
40.703,0.75
40.718,9.6
40.734,23.95
40.750,42.48
40.765,61.74
40.781,76.72
40.796,82.4
40.812,76.0
40.828,58.62
40.843,35.55
40.859,14.6
40.875,3.17
40.890,5.4
40.906,20.76
40.921,44.63
40.937,70.48
40.953,92.36
40.968,106.45
40.984,111.39
41.000,107.64
41.015,96.4
41.031,78.92
41.046,56.32
41.062,29.88
41.078,1.41
41.093,-26.62
41.109,-51.31
41.125,-70.08
41.140,-81.53
41.156,-85.96
41.171,-85.2
41.187,-81.89
41.203,-78.33
41.218,-75.93
41.234,-75.05
41.250,-75.24
41.265,-75.4
41.281,-73.73
41.296,-67.87
41.312,-55.32
41.328,-34.45
41.343,-5.56
41.359,28.86
41.375,64.82
41.390,98.28
41.406,126.61
41.421,149.17
41.437,166.59
41.453,179.65
41.468,188.19
41.484,191.01
41.500,186.65
41.515,174.54
41.531,155.78
41.546,133.0
41.562,109.51
41.578,88.19
41.593,70.69
41.609,57.24
41.625,46.92
41.640,38.39
41.656,30.28
41.671,21.44
41.687,10.71
41.703,-3.02
41.718,-20.64
41.734,-42.17
41.750,-66.45
41.765,-91.22
41.781,-113.86
41.796,-132.4
41.812,-146.13
41.828,-155.75
41.843,-162.5
41.859,-167.48
41.875,-171.11
41.890,-173.32
41.906,-174.0
41.921,-173.41
41.937,-172.04
41.953,-170.27
41.968,-168.1
41.984,-165.18
42.000,-161.23
42.015,-156.55
42.031,-151.97
42.046,-148.36
42.062,-145.93
42.078,-144.02
42.093,-141.15
42.109,-135.67
42.125,-126.48
42.140,-113.28
42.156,-96.3
42.171,-75.59
42.187,-50.62
42.203,-20.72
42.218,13.77
42.234,50.36
42.250,83.94
42.265,108.37
42.281,119.44
42.296,117.76
42.312,109.46
42.328,103.57
42.343,107.33
42.359,122.06
42.375,142.52
42.390,160.25
42.406,168.71
42.421,166.81
42.437,158.56
42.453,149.11
42.468,140.18
42.484,128.87
42.500,110.07
42.515,81.21
42.531,45.16
42.546,9.46
42.562,-17.65
42.578,-31.48
42.593,-32.36
42.609,-23.97
42.625,-10.41
42.640,5.61
42.656,22.01
42.671,35.53
42.687,41.49
42.703,35.46
42.718,16.0
42.734,-13.64
42.750,-46.76
42.765,-76.21
42.781,-97.13
42.796,-107.83
42.812,-108.55
42.828,-99.83
42.843,-82.27
42.859,-57.74
42.875,-30.78
42.890,-8.14
42.906,3.88
42.921,2.89
42.937,-7.65
42.953,-19.73
42.968,-24.87
42.984,-18.1
43.000,0.03
43.015,24.54
43.031,48.97
43.046,68.32
43.062,80.29
43.078,84.91
43.093,83.47
43.109,77.51
43.125,68.29
43.140,56.73
43.156,43.56
43.171,29.59
43.187,15.92
43.203,4.17
43.218,-3.61
43.234,-5.5
43.250,-0.97
43.265,8.1
43.281,17.15
43.296,20.25
43.312,12.62
43.328,-7.09
43.343,-35.62
43.359,-65.98
43.375,-89.88
43.390,-100.75
43.406,-96.02
43.421,-77.74
43.437,-51.52
43.453,-24.4
43.468,-2.71
43.484,9.33
43.500,9.98
43.515,-0.64
43.531,-21.36
43.546,-50.48
43.562,-85.61
43.578,-123.36
43.593,-159.21
43.609,-188.06
43.625,-205.29
43.640,-208.14
43.656,-196.53
43.671,-172.91
43.687,-141.42
43.703,-106.43
43.718,-71.4
43.734,-38.36
43.750,-8.13
43.765,19.01
43.781,42.74
43.796,62.48
43.812,77.74
43.828,88.64
43.843,96.35
43.859,102.8
43.875,110.11
43.890,119.64
43.906,131.45
43.921,144.29
43.937,156.12
43.953,164.73
43.968,168.37
43.984,166.01
44.000,157.48
44.015,143.44
44.031,125.37
44.046,105.36
44.062,85.67
44.078,68.16
44.093,53.72
44.109,42.21
44.125,32.74
44.140,24.23
44.156,15.93
44.171,7.65
44.187,-0.29
44.203,-7.29
44.218,-12.65
44.234,-15.79
44.250,-16.39
44.265,-14.54
44.281,-10.78
44.296,-5.84
44.312,-0.33
44.328,5.53
44.343,12.0
44.359,19.42
44.375,27.65
44.390,35.7
44.406,41.64
44.421,43.18
44.437,38.35
44.453,26.3
44.468,7.56
44.484,-15.96
44.500,-41.49
44.515,-65.9
44.531,-86.24
44.546,-100.15
44.562,-106.18
44.578,-103.88
44.593,-93.77
44.609,-77.09
44.625,-55.43
44.640,-30.35
44.656,-3.31
44.671,24.32
44.687,50.99
44.703,74.9
44.718,94.25
44.734,107.79
44.750,115.33
44.765,117.95
44.781,117.58
44.796,116.06
44.812,114.3
44.828,111.95
44.843,107.8
44.859,100.72
44.875,90.55
44.890,78.32
44.906,65.84
44.921,54.76
44.937,45.74
44.953,38.29
44.968,31.17
44.984,22.94
45.000,12.47
45.015,-1.13
45.031,-18.6
45.046,-40.4
45.062,-66.17
45.078,-94.12
45.093,-120.91
45.109,-142.24
45.125,-154.35
45.140,-155.32
45.156,-145.8
45.171,-128.71
45.187,-107.93
45.203,-87.02
45.218,-68.41
45.234,-53.27
45.250,-41.95
45.265,-34.35
45.281,-29.82
45.296,-27.02
45.312,-23.87
45.328,-18.0
45.343,-7.8
45.359,6.72
45.375,23.53
45.390,39.2
45.406,50.14
45.421,54.08
45.437,50.83
45.453,42.06
45.468,30.15
45.484,16.76
45.500,1.9
45.515,-15.87
45.531,-38.41
45.546,-66.51
45.562,-98.75
45.578,-131.44
45.593,-159.54
45.609,-178.19
45.625,-184.14
45.640,-176.65
45.656,-157.51
45.671,-130.41
45.687,-99.99
45.703,-70.63
45.718,-45.3
45.734,-24.78
45.750,-7.33
45.765,10.66
45.781,33.17
45.796,62.65
45.812,98.56
45.828,137.06
45.843,172.08
45.859,197.52
45.875,209.35
45.890,206.82
45.906,192.35
45.921,170.23
45.937,144.98
45.953,120.12
45.968,97.73
45.984,78.8
46.000,63.7
46.015,52.52
46.031,44.85
46.046,39.37
46.062,33.72
46.078,25.14
46.093,11.51
46.109,-7.33
46.125,-29.04
46.140,-49.43
46.156,-64.0
46.171,-69.73
46.187,-66.14
46.203,-55.21
46.218,-40.22
46.234,-24.41
46.250,-10.1
46.265,1.35
46.281,9.06
46.296,12.23
46.312,10.02
46.328,1.9
46.343,-12.11
46.359,-31.3
46.375,-54.33
46.390,-79.39
46.406,-104.26
46.421,-126.41
46.437,-143.24
46.453,-152.59
46.468,-153.31
46.484,-145.72
46.500,-131.49
46.515,-113.0
46.531,-92.39
46.546,-70.77
46.562,-48.09
46.578,-23.88
46.593,1.65
46.609,26.83
46.625,48.57
46.640,63.38
46.656,68.86
46.671,64.96
46.687,54.13
46.703,40.4
46.718,27.76
46.734,18.76
46.750,14.05
46.765,12.85
46.781,13.97
46.796,16.72
46.812,21.02
46.828,26.85
46.843,33.55
46.859,39.53
46.875,42.59
46.890,40.74
46.906,33.07
46.921,20.08
46.937,3.65
46.953,-13.56
46.968,-28.66
46.984,-39.01
47.000,-42.75
47.015,-39.25
47.031,-29.35
47.046,-15.3
47.062,-0.03
47.078,13.97
47.093,25.71
47.109,36.26
47.125,48.16
47.140,64.21
47.156,85.84
47.171,112.22
47.187,140.41
47.203,166.42
47.218,186.65
47.234,198.88
47.250,202.64
47.265,198.71
47.281,188.54
47.296,173.55
47.312,154.89
47.328,133.39
47.343,109.68
47.359,84.44
47.375,58.66
47.390,33.83
47.406,11.76
47.421,-5.84
47.437,-17.91
47.453,-24.6
47.468,-27.47
47.484,-29.18
47.500,-32.74
47.515,-40.49
47.531,-53.22
47.546,-69.77
47.562,-87.37
47.578,-102.67
47.593,-113.05
47.609,-117.65
47.625,-117.57
47.640,-115.25
47.656,-113.32
47.671,-113.57
47.687,-116.6
47.703,-122.16
47.718,-129.74
47.734,-138.88
47.750,-148.95
47.765,-158.55
47.781,-165.21
47.796,-165.75
47.812,-157.6
47.828,-139.92
47.843,-114.42
47.859,-85.06
47.875,-56.81
47.890,-34.15
47.906,-19.86
47.921,-14.51
47.937,-16.11
47.953,-20.65
47.968,-22.86
47.984,-17.58
48.000,-1.25
48.015,26.82
48.031,63.77
48.046,103.51
48.062,138.1
48.078,159.57
48.093,162.5
48.109,146.44
48.125,116.94
48.140,84.34
48.156,60.1
48.171,51.83
48.187,60.09
48.203,78.21
48.218,96.17
48.234,105.62
48.250,103.73
48.265,93.14
48.281,78.6
48.296,62.85
48.312,44.84
48.328,21.6
48.343,-8.19
48.359,-41.81
48.375,-73.13
48.390,-95.92
48.406,-107.13
48.421,-107.9
48.437,-101.73
48.453,-91.71
48.468,-79.21
48.484,-64.9
48.500,-50.61
48.515,-39.96
48.531,-36.87
48.546,-42.88
48.562,-55.29
48.578,-67.95
48.593,-74.42
48.609,-71.09
48.625,-58.5
48.640,-39.88
48.656,-18.32
48.671,4.78
48.687,29.06
48.703,53.37
48.718,74.43
48.734,87.11
48.750,86.83
48.765,72.13
48.781,46.0
48.796,15.13
48.812,-12.34
48.828,-29.35
48.843,-31.84
48.859,-19.58
48.875,3.99
48.890,32.47
48.906,58.12
48.921,74.24
48.937,77.34
48.953,68.35
48.968,52.02
48.984,34.94
49.000,22.96
49.015,19.35
49.031,24.16
49.046,34.46
49.062,45.2
49.078,50.55
49.093,45.95
49.109,30.04
49.125,6.01
49.140,-19.35
49.156,-38.08
49.171,-44.49
49.187,-37.6
49.203,-21.09
49.218,-1.16
49.234,16.55
49.250,28.99
49.265,35.7
49.281,37.04
49.296,32.59
49.312,20.77
49.328,0.14
49.343,-28.8
49.359,-62.66
49.375,-95.53
49.390,-120.82
49.406,-133.39
49.421,-131.17
49.437,-115.78
49.453,-91.83
49.468,-65.22
49.484,-41.17
49.500,-22.52
49.515,-9.27
49.531,0.96
49.546,11.49
49.562,25.26
49.578,43.85
49.593,67.27
49.609,94.05
49.625,121.58
49.640,146.41
49.656,164.82
49.671,173.55
49.687,170.81
49.703,157.15
49.718,135.4
49.734,109.62
49.750,83.61
49.765,59.51
49.781,37.29
49.796,15.58
49.812,-7.0
49.828,-30.61
49.843,-54.05
49.859,-75.58
49.875,-94.16
49.890,-110.36
49.906,-126.07
49.921,-143.34
49.937,-162.77
49.953,-182.63
49.968,-199.19
49.984,-208.08
50.000,-205.94
50.015,-191.47
50.031,-165.78
50.046,-131.84
50.062,-93.75
50.078,-55.97
50.093,-22.7
50.109,2.91
50.125,19.29
50.140,26.75
50.156,27.16
50.171,23.21
50.187,17.56
50.203,12.46
50.218,9.79
50.234,11.11
50.250,17.65
50.265,29.61
50.281,45.55
50.296,62.27
50.312,75.71
50.328,82.38
50.343,80.75
50.359,71.38
50.375,56.09
50.390,36.57
50.406,13.47
50.421,-13.5
50.437,-44.48
50.453,-78.23
50.468,-111.97
50.484,-142.1
50.500,-165.93
50.515,-182.71
50.531,-193.73
50.546,-201.1
50.562,-206.06
50.578,-207.98
50.593,-204.72
50.609,-194.06
50.625,-175.55
50.640,-151.21
50.656,-125.08
50.671,-101.45
50.687,-83.03
50.703,-69.96
50.718,-60.22
50.734,-51.16
50.750,-41.03
50.765,-29.93
50.781,-19.44
50.796,-11.53
50.812,-7.35
50.828,-6.59
50.843,-7.94
50.859,-10.0
50.875,-12.13
50.890,-14.81
50.906,-19.0
50.921,-25.31
50.937,-33.26
50.953,-41.27
50.968,-47.18
50.984,-49.17
51.000,-46.53
51.015,-39.9
51.031,-30.89
51.046,-21.64
51.062,-14.34
51.078,-10.92
51.093,-12.74
51.109,-20.13
51.125,-31.95
51.140,-45.38
51.156,-56.44
51.171,-61.16
51.187,-57.17
51.203,-44.63
51.218,-26.34
51.234,-6.59
51.250,10.53
51.265,22.56
51.281,29.16
51.296,31.6
51.312,31.6
51.328,30.5
51.343,28.84
51.359,26.7
51.375,24.17
51.390,21.62
51.406,19.6
51.421,18.48
51.437,18.25
51.453,18.3
51.468,17.83
51.484,16.04
51.500,12.47
51.515,7.16
51.531,0.52
51.546,-6.85
51.562,-14.47
51.578,-22.13
51.593,-29.83
51.609,-37.52
51.625,-44.81
51.640,-50.87
51.656,-54.51
51.671,-54.65
51.687,-50.58
51.703,-42.35
51.718,-30.6
51.734,-16.45
51.750,-1.07
51.765,14.56
51.781,29.75
51.796,44.1
51.812,57.35
51.828,69.28
51.843,79.72
51.859,88.47
51.875,95.41
51.890,100.49
51.906,103.8
51.921,105.56
51.937,106.08
51.953,105.7
51.968,104.65
51.984,103.01
52.000,100.73
52.015,97.64
52.031,93.62
52.046,88.65
52.062,82.86
52.078,76.48
52.093,69.74
52.109,62.78
52.125,55.5
52.140,47.64
52.156,38.78
52.171,28.56
52.187,16.96
52.203,4.35
52.218,-8.25
52.234,-19.48
52.250,-27.82
52.265,-32.02
52.281,-31.5
52.296,-26.4
52.312,-17.52
52.328,-5.93
52.343,7.33
52.359,21.48
52.375,36.03
52.390,50.59
52.406,64.73
52.421,77.88
52.437,89.38
52.453,98.64
52.468,105.35
52.484,109.49
52.500,111.39
52.515,111.52
52.531,110.32
52.546,108.13
52.562,105.09
52.578,101.23
52.593,96.61
52.609,91.34
52.625,85.65
52.640,79.79
52.656,73.89
52.671,67.94
52.687,61.81
52.703,55.22
52.718,47.93
52.734,39.75
52.750,30.53
52.765,20.17
52.781,8.69
52.796,-3.72
52.812,-16.52
52.828,-28.77
52.843,-39.2
52.859,-46.46
52.875,-49.49
52.890,-47.76
52.906,-41.46
52.921,-31.38
52.937,-18.67
52.953,-4.57
52.968,9.91
52.984,23.97
53.000,37.14
53.015,49.15
53.031,59.9
53.046,69.36
53.062,77.59
53.078,84.67
53.093,90.61
53.109,95.42
53.125,98.97
53.140,101.17
53.156,101.93
53.171,101.36
53.187,99.86
53.203,98.29
53.218,97.91
53.234,100.03
53.250,105.57
53.265,114.31
53.281,124.62
53.296,133.54
53.312,137.55
53.328,133.84
53.343,121.36
53.359,101.29
53.375,76.49
53.390,50.28
53.406,25.13
53.421,2.12
53.437,-18.9
53.453,-38.42
53.468,-56.31
53.484,-71.53
53.500,-82.4
53.515,-87.37
53.531,-85.73
53.546,-77.87
53.562,-65.15
53.578,-49.4
53.593,-32.49
53.609,-16.11
53.625,-1.68
53.640,9.64
53.656,17.21
53.671,21.15
53.687,22.47
53.703,22.89
53.718,24.41
53.734,28.51
53.750,35.7
53.765,45.36
53.781,56.19
53.796,66.94
53.812,76.94
53.828,86.22
53.843,95.16
53.859,103.8
53.875,111.52
53.890,117.11
53.906,119.28
53.921,117.27
53.937,111.21
53.953,102.06
53.968,91.25
53.984,80.27
54.000,70.22
54.015,61.35
54.031,52.77
54.046,42.43
54.062,27.68
54.078,6.41
54.093,-21.8
54.109,-54.81
54.125,-88.02
54.140,-115.47
54.156,-131.71
54.171,-133.56
54.187,-121.2
54.203,-97.97
54.218,-69.16
54.234,-40.06
54.250,-14.46
54.265,6.2
54.281,22.5
54.296,36.11
54.312,48.33
54.328,59.11
54.343,66.87
54.359,69.28
54.375,64.63
54.390,53.07
54.406,36.92
54.421,20.03
54.437,6.32
54.453,-1.64
54.468,-3.43
54.484,-0.48
54.500,4.67
54.515,9.44
54.531,11.92
54.546,11.04
54.562,6.32
54.578,-2.38
54.593,-14.93
54.609,-30.54
54.625,-47.44
54.640,-63.01
54.656,-74.35
54.671,-79.13
54.687,-76.62
54.703,-68.17
54.718,-56.98
54.734,-47.17
54.750,-42.55
54.765,-45.28
54.781,-55.17
54.796,-69.58
54.812,-84.08
54.828,-93.91
54.843,-95.49
54.859,-87.73
54.875,-72.45
54.890,-53.37
54.906,-34.19
54.921,-16.74
54.937,-0.11
54.953,18.32
54.968,40.61
54.984,66.22
55.000,91.39
55.015,110.55
55.031,118.85
55.046,114.34
55.062,98.54
55.078,75.12
55.093,47.8
55.109,19.05
55.125,-9.58
55.140,-36.23
55.156,-57.9
55.171,-70.82
55.187,-72.56
55.203,-63.84
55.218,-49.32
55.234,-36.19
55.250,-31.22
55.265,-38.1
55.281,-55.78
55.296,-78.71
55.312,-98.62
55.328,-107.25
55.343,-99.07
55.359,-73.39
55.375,-35.13
55.390,6.22
55.406,39.42
55.421,55.39
55.437,50.59
55.453,28.25
55.468,-3.18
55.484,-33.88
55.500,-56.68
55.515,-69.24
55.531,-73.5
55.546,-73.24
55.562,-71.31
55.578,-68.28
55.593,-63.05
55.609,-54.56
55.625,-43.2
55.640,-31.06
55.656,-20.8
55.671,-14.17
55.687,-11.01
55.703,-9.33
55.718,-6.57
55.734,-1.19
55.750,6.46
55.765,14.27
55.781,19.4
55.796,19.75
55.812,15.03
55.828,6.87
55.843,-1.94
55.859,-8.79
55.875,-12.25
55.890,-12.43
55.906,-10.51
55.921,-7.82
55.937,-5.16
55.953,-2.73
55.968,-0.51
55.984,1.26
56.000,1.84
56.015,0.43
56.031,-3.24
56.046,-8.67
56.062,-14.78
56.078,-20.46
56.093,-25.08
56.109,-28.75
56.125,-32.06
56.140,-35.67
56.156,-39.8
56.171,-44.07
56.187,-47.57
56.203,-49.11
56.218,-47.49
56.234,-41.97
56.250,-32.6
56.265,-20.48
56.281,-7.56
56.296,3.93
56.312,12.27
56.328,16.84
56.343,18.16
56.359,17.39
56.375,15.55
56.390,13.06
56.406,9.72
56.421,5.13
56.437,-0.77
56.453,-7.42
56.468,-13.74
56.484,-18.55
56.500,-21.05
56.515,-21.23
56.531,-19.63
56.546,-17.07
56.562,-14.18
56.578,-11.15
56.593,-7.73
56.609,-3.58
56.625,1.34
56.640,6.55
56.656,11.1
56.671,14.01
56.687,14.67
56.703,13.18
56.718,10.36
56.734,7.35
56.750,5.12
56.765,4.01
56.781,3.67
56.796,3.33
56.812,2.25
56.828,0.03
56.843,-3.24
56.859,-7.18
56.875,-11.34
56.890,-15.32
56.906,-18.65
56.921,-20.66
56.937,-20.36
56.953,-16.61
56.968,-8.54
56.984,3.93
57.000,19.93
57.015,37.77
57.031,55.4
57.046,70.75
57.062,81.95
57.078,87.38
57.093,85.63
57.109,75.82
57.125,58.03
57.140,33.75
57.156,5.8
57.171,-22.22
57.187,-46.93
57.203,-66.14
57.218,-79.22
57.234,-86.99
57.250,-91.04
57.265,-93.2
57.281,-95.08
57.296,-97.83
57.312,-102.08
57.328,-107.76
57.343,-114.1
57.359,-119.9
57.375,-124.02
57.390,-125.95
57.406,-126.01
57.421,-125.03
57.437,-123.83
57.453,-122.52
57.468,-120.35
57.484,-116.21
57.500,-109.36
57.515,-100.15
57.531,-90.06
57.546,-81.19
57.562,-75.32
57.578,-72.98
57.593,-73.09
57.609,-73.28
57.625,-70.69
57.640,-63.04
57.656,-49.36
57.671,-30.31
57.687,-7.77
57.703,15.93
57.718,38.73
57.734,59.39
57.750,77.47
57.765,93.12
57.781,106.77
57.796,118.95
57.812,130.13
57.828,140.65
57.843,150.55
57.859,159.35
57.875,166.01
57.890,169.26
57.906,168.11
57.921,162.39
57.937,153.01
57.953,141.79
57.968,130.88
57.984,122.08
58.000,116.45
58.015,114.17
58.031,114.77
58.046,117.5
58.062,121.56
58.078,126.19
58.093,130.68
58.109,134.42
58.125,136.94
58.140,138.04
58.156,137.73
58.171,136.09
58.187,132.93
58.203,127.65
58.218,119.24
58.234,106.57
58.250,88.89
58.265,66.13
58.281,38.79
58.296,7.55
58.312,-27.11
58.328,-64.79
58.343,-104.66
58.359,-144.84
58.375,-182.26
58.390,-213.37
58.406,-235.26
58.421,-246.8
58.437,-248.85
58.453,-243.62
58.468,-233.45
58.484,-219.92
58.500,-203.63
58.515,-184.75
58.531,-163.85
58.546,-142.32
58.562,-122.01
58.578,-104.45
58.593,-90.12
58.609,-78.27
58.625,-67.43
58.640,-56.17
58.656,-43.86
58.671,-30.95
58.687,-18.68
58.703,-8.42
58.718,-1.07
58.734,3.3
58.750,5.37
58.765,6.02
58.781,5.9
58.796,5.03
58.812,3.0
58.828,-0.7
58.843,-6.3
58.859,-13.54
58.875,-21.8
58.890,-30.44
58.906,-39.0
58.921,-47.34
58.937,-55.46
58.953,-63.19
58.968,-70.05
58.984,-75.16
59.000,-77.44
59.015,-75.9
59.031,-69.77
59.046,-58.83
59.062,-43.57
59.078,-25.2
59.093,-5.4
59.109,13.99
59.125,31.29
59.140,45.31
59.156,55.4
59.171,61.82
59.187,65.29
59.203,66.87
59.218,67.79
59.234,69.16
59.250,71.64
59.265,75.19
59.281,78.95
59.296,81.56
59.312,82.26
59.328,80.85
59.343,77.88
59.359,74.4
59.375,71.59
59.390,70.19
59.406,70.15
59.421,70.57
59.437,70.01
59.453,68.41
59.468,66.7
59.484,66.98
59.500,71.93
59.515,83.63
59.531,102.55
59.546,126.99
59.562,153.64
59.578,178.6
59.593,200.27
59.609,218.61
59.625,234.82
59.640,250.25
59.656,265.45
59.671,280.12
59.687,293.87
59.703,307.2
59.718,312.49
59.734,305.15
59.750,282.8
59.765,246.08
59.781,198.69
59.796,145.93
59.812,92.86
59.828,43.05
59.843,-1.6
59.859,-40.46
59.875,-72.26
59.890,-96.34
59.906,-112.8
59.921,-122.52
59.937,-127.11
59.953,-128.25
59.968,-127.41
59.984,-125.62
