timestamp,value
00.000,52.67
00.015,53.1
00.031,53.3
00.046,53.19
00.062,52.45
00.078,50.67
00.093,47.46
00.109,42.71
00.125,36.66
00.140,29.85
00.156,23.06
00.171,16.89
00.187,11.64
00.203,7.17
00.218,2.98
00.234,-1.62
00.250,-7.28
00.265,-14.27
00.281,-22.39
00.296,-30.77
00.312,-38.14
00.328,-43.01
00.343,-44.18
00.359,-40.98
00.375,-33.54
00.390,-22.64
00.406,-9.52
00.421,4.5
00.437,18.23
00.453,30.78
00.468,41.54
00.484,50.12
00.500,56.29
00.515,59.98
00.531,61.27
00.546,60.51
00.562,58.16
00.578,54.88
00.593,51.3
00.609,48.1
00.625,45.75
00.640,44.45
00.656,44.12
00.671,44.45
00.687,45.04
00.703,45.49
00.718,45.58
00.734,45.2
00.750,44.27
00.765,42.62
00.781,39.95
00.796,35.95
00.812,30.43
00.828,23.58
00.843,16.01
00.859,8.56
00.875,1.95
00.890,-3.5
00.906,-8.05
00.921,-12.46
00.937,-17.6
00.953,-24.11
00.968,-31.95
00.984,-40.35
01.000,-47.9
01.015,-52.89
01.031,-53.84
01.046,-49.85
01.062,-40.95
01.078,-27.95
01.093,-12.24
01.109,4.66
01.125,21.46
01.140,37.25
01.156,51.46
01.171,63.76
01.187,73.85
01.203,81.47
01.218,86.47
01.234,88.93
01.250,89.21
01.265,87.9
01.281,85.68
01.296,83.14
01.312,80.6
01.328,78.14
01.343,75.65
01.359,72.98
01.375,70.09
01.390,67.06
01.406,64.02
01.421,61.04
01.437,58.0
01.453,54.54
01.468,50.19
01.484,44.53
01.500,37.38
01.515,28.89
01.531,19.57
01.546,10.15
01.562,1.31
01.578,-6.48
01.593,-13.17
01.609,-19.12
01.625,-24.98
01.640,-31.47
01.656,-39.09
01.671,-47.91
01.687,-57.32
01.703,-66.15
01.718,-72.81
01.734,-75.65
01.750,-73.46
01.765,-65.78
01.781,-53.06
01.796,-36.58
01.812,-18.04
01.828,0.83
01.843,18.62
01.859,34.41
01.875,47.75
01.890,58.51
01.906,66.71
01.921,72.38
01.937,75.59
01.953,76.52
01.968,75.56
01.984,73.31
02.000,70.55
02.015,67.99
02.031,66.08
02.046,64.84
02.062,63.88
02.078,62.61
02.093,60.6
02.109,57.73
02.125,54.24
02.140,50.51
02.156,46.8
02.171,43.02
02.187,38.81
02.203,33.78
02.218,27.72
02.234,20.84
02.250,13.67
02.265,6.81
02.281,0.69
02.296,-4.56
02.312,-9.2
02.328,-13.67
02.343,-18.46
02.359,-24.0
02.375,-30.62
02.390,-38.44
02.406,-47.29
02.421,-56.57
02.437,-65.07
02.453,-71.15
02.468,-73.17
02.484,-69.94
02.500,-61.24
02.515,-47.91
02.531,-31.58
02.546,-14.14
02.562,2.79
02.578,18.15
02.593,31.49
02.609,42.64
02.625,51.56
02.640,58.14
02.656,62.3
02.671,64.18
02.687,64.15
02.703,62.84
02.718,60.92
02.734,58.95
02.750,57.14
02.765,55.46
02.781,53.67
02.796,51.49
02.812,48.8
02.828,45.64
02.843,42.22
02.859,38.71
02.875,35.26
02.890,31.91
02.906,28.59
02.921,25.22
02.937,21.61
02.953,17.59
02.968,13.04
02.984,7.93
03.000,2.39
03.015,-3.33
03.031,-8.91
03.046,-14.19
03.062,-19.21
03.078,-24.27
03.093,-29.73
03.109,-35.91
03.125,-42.94
03.140,-50.61
03.156,-58.54
03.171,-66.08
03.187,-72.38
03.203,-76.37
03.218,-77.01
03.234,-73.42
03.250,-65.42
03.265,-53.55
03.281,-39.05
03.296,-23.48
03.312,-8.31
03.328,5.57
03.343,17.84
03.359,28.55
03.375,37.87
03.390,45.73
03.406,51.83
03.421,55.88
03.437,57.79
03.453,57.8
03.468,56.41
03.484,54.25
03.500,51.79
03.515,49.33
03.531,46.95
03.546,44.69
03.562,42.62
03.578,40.83
03.593,39.38
03.609,38.22
03.625,37.09
03.640,35.66
03.656,33.55
03.671,30.53
03.687,26.59
03.703,21.99
03.718,17.01
03.734,11.97
03.750,7.04
03.765,2.17
03.781,-2.76
03.796,-7.88
03.812,-13.13
03.828,-18.32
03.843,-23.15
03.859,-27.44
03.875,-31.15
03.890,-34.57
03.906,-38.17
03.921,-42.46
03.937,-47.81
03.953,-54.25
03.968,-61.42
03.984,-68.46
04.000,-74.18
04.015,-77.11
04.031,-76.04
04.046,-70.25
04.062,-59.81
04.078,-45.72
04.093,-29.51
04.109,-12.96
04.125,2.48
04.140,15.95
04.156,27.22
04.171,36.48
04.187,44.01
04.203,49.99
04.218,54.37
04.234,57.12
04.250,58.3
04.265,58.22
04.281,57.36
04.296,56.22
04.312,55.15
04.328,54.18
04.343,53.17
04.359,51.88
04.375,50.23
04.390,48.27
04.406,46.17
04.421,44.01
04.437,41.77
04.453,39.25
04.468,36.19
04.484,32.45
04.500,28.01
04.515,23.06
04.531,17.93
04.546,12.96
04.562,8.45
04.578,4.5
04.593,1.02
04.609,-2.31
04.625,-5.84
04.640,-9.91
04.656,-14.59
04.671,-19.73
04.687,-24.99
04.703,-29.94
04.718,-34.3
04.734,-38.0
04.750,-41.24
04.765,-44.39
04.781,-47.92
04.796,-52.2
04.812,-57.37
04.828,-63.27
04.843,-69.19
04.859,-74.09
04.875,-76.68
04.890,-75.83
04.906,-70.91
04.921,-62.04
04.937,-50.04
04.953,-36.2
04.968,-21.9
04.984,-8.21
05.000,4.17
05.015,14.97
05.031,24.17
05.046,31.78
05.062,37.77
05.078,42.12
05.093,44.9
05.109,46.26
05.125,46.52
05.140,46.03
05.156,45.13
05.171,44.1
05.187,43.02
05.203,41.88
05.218,40.58
05.234,39.03
05.250,37.19
05.265,35.13
05.281,32.94
05.296,30.66
05.312,28.24
05.328,25.48
05.343,22.21
05.359,18.42
05.375,14.34
05.390,10.39
05.406,7.02
05.421,4.43
05.437,2.46
05.453,0.69
05.468,-1.41
05.484,-4.26
05.500,-7.91
05.515,-12.14
05.531,-16.54
05.546,-20.74
05.562,-24.57
05.578,-28.13
05.593,-31.65
05.609,-35.41
05.625,-39.54
05.640,-44.09
05.656,-48.96
05.671,-53.97
05.687,-58.89
05.703,-63.29
05.718,-66.53
05.734,-67.74
05.750,-66.1
05.765,-61.08
05.781,-52.77
05.796,-41.93
05.812,-29.75
05.828,-17.44
05.843,-5.87
05.859,4.54
05.875,13.77
05.890,21.84
05.906,28.67
05.921,34.03
05.937,37.71
05.953,39.7
05.968,40.26
05.984,39.84
06.000,38.86
06.015,37.66
06.031,36.37
06.046,35.04
06.062,33.74
06.078,32.58
06.093,31.65
06.109,30.97
06.125,30.45
06.140,29.87
06.156,28.99
06.171,27.53
06.187,25.32
06.203,22.29
06.218,18.47
06.234,14.03
06.250,9.26
06.265,4.5
06.281,0.04
06.296,-4.0
06.312,-7.68
06.328,-11.2
06.343,-14.76
06.359,-18.48
06.375,-22.36
06.390,-26.3
06.406,-30.2
06.421,-34.0
06.437,-37.76
06.453,-41.6
06.468,-45.68
06.484,-50.15
06.500,-55.11
06.515,-60.5
06.531,-65.93
06.546,-70.7
06.562,-73.75
06.578,-74.05
06.593,-70.9
06.609,-64.23
06.625,-54.61
06.640,-43.13
06.656,-30.96
06.671,-19.03
06.687,-7.88
06.703,2.35
06.718,11.68
06.734,20.06
06.750,27.33
06.765,33.22
06.781,37.47
06.796,40.02
06.812,41.05
06.828,40.94
06.843,40.22
06.859,39.3
06.875,38.4
06.890,37.48
06.906,36.41
06.921,35.05
06.937,33.42
06.953,31.74
06.968,30.2
06.984,28.88
07.000,27.69
07.015,26.37
07.031,24.7
07.046,22.56
07.062,19.96
07.078,16.99
07.093,13.76
07.109,10.31
07.125,6.68
07.140,2.92
07.156,-0.89
07.171,-4.64
07.187,-8.26
07.203,-11.78
07.218,-15.29
07.234,-18.87
07.250,-22.58
07.265,-26.38
07.281,-30.2
07.296,-34.05
07.312,-37.97
07.328,-42.12
07.343,-46.62
07.359,-51.52
07.375,-56.74
07.390,-62.05
07.406,-67.04
07.421,-71.16
07.437,-73.8
07.453,-74.29
07.468,-72.04
07.484,-66.77
07.500,-58.58
07.515,-48.06
07.531,-36.12
07.546,-23.76
07.562,-11.79
07.578,-0.65
07.593,9.52
07.609,18.74
07.625,27.0
07.640,34.13
07.656,39.87
07.671,44.02
07.687,46.58
07.703,47.84
07.718,48.28
07.734,48.3
07.750,48.11
07.765,47.6
07.781,46.51
07.796,44.62
07.812,41.94
07.828,38.76
07.843,35.53
07.859,32.66
07.875,30.34
07.890,28.44
07.906,26.58
07.921,24.38
07.937,21.54
07.953,18.01
07.968,13.94
07.984,9.61
08.000,5.3
08.015,1.21
08.031,-2.6
08.046,-6.24
08.062,-9.89
08.078,-13.68
08.093,-17.68
08.109,-21.81
08.125,-25.85
08.140,-29.56
08.156,-32.83
08.171,-35.68
08.187,-38.28
08.203,-40.89
08.218,-43.76
08.234,-47.13
08.250,-51.08
08.265,-55.63
08.281,-60.53
08.296,-65.26
08.312,-68.91
08.328,-70.45
08.343,-68.91
08.359,-63.82
08.375,-55.41
08.390,-44.56
08.406,-32.51
08.421,-20.51
08.437,-9.4
08.453,0.53
08.468,9.3
08.484,17.07
08.500,23.84
08.515,29.47
08.531,33.75
08.546,36.61
08.562,38.24
08.578,39.03
08.593,39.39
08.609,39.56
08.625,39.53
08.640,39.17
08.656,38.3
08.671,36.91
08.687,35.17
08.703,33.35
08.718,31.7
08.734,30.26
08.750,28.97
08.765,27.58
08.781,25.84
08.796,23.59
08.812,20.77
08.828,17.49
08.843,14.02
08.859,10.63
08.875,7.5
08.890,4.6
08.906,1.68
08.921,-1.55
08.937,-5.36
08.953,-9.75
08.968,-14.56
08.984,-19.43
09.000,-24.05
09.015,-28.33
09.031,-32.36
09.046,-36.43
09.062,-40.92
09.078,-46.19
09.093,-52.36
09.109,-59.28
09.125,-66.31
09.140,-72.39
09.156,-76.21
09.171,-76.5
09.187,-72.5
09.203,-64.27
09.218,-52.64
09.234,-39.02
09.250,-24.94
09.265,-11.62
09.281,0.25
09.296,10.43
09.312,18.97
09.328,25.93
09.343,31.31
09.359,35.12
09.375,37.44
09.390,38.59
09.406,38.99
09.421,39.16
09.437,39.46
09.453,39.99
09.468,40.6
09.484,41.01
09.500,40.92
09.515,40.19
09.531,38.86
09.546,37.14
09.562,35.29
09.578,33.45
09.593,31.58
09.609,29.52
09.625,27.03
09.640,23.99
09.656,20.44
09.671,16.59
09.687,12.75
09.703,9.13
09.718,5.77
09.734,2.45
09.750,-1.16
09.765,-5.38
09.781,-10.35
09.796,-15.95
09.812,-21.84
09.828,-27.59
09.843,-32.79
09.859,-37.23
09.875,-41.01
09.890,-44.41
09.906,-47.89
09.921,-51.94
09.937,-56.89
09.953,-62.74
09.968,-69.06
09.984,-74.94
10.000,-79.16
10.015,-80.39
10.031,-77.68
10.046,-70.66
10.062,-59.72
10.078,-45.89
10.093,-30.57
10.109,-15.12
10.125,-0.59
10.140,12.39
10.156,23.6
10.171,32.95
10.187,40.44
10.203,46.06
10.218,49.86
10.234,52.04
10.250,52.98
10.265,53.14
10.281,52.95
10.296,52.73
10.312,52.5
10.328,52.19
10.343,51.65
10.359,50.85
10.375,49.84
10.390,48.76
10.406,47.68
10.421,46.53
10.437,45.09
10.453,43.06
10.468,40.24
10.484,36.59
10.500,32.27
10.515,27.61
10.531,22.96
10.546,18.53
10.562,14.35
10.578,10.28
10.593,6.08
10.609,1.54
10.625,-3.45
10.640,-8.88
10.656,-14.6
10.671,-20.44
10.687,-26.18
10.703,-31.62
10.718,-36.65
10.734,-41.29
10.750,-45.72
10.765,-50.27
10.781,-55.35
10.796,-61.23
10.812,-67.8
10.828,-74.42
10.843,-79.87
10.859,-82.73
10.875,-81.77
10.890,-76.38
10.906,-66.79
10.921,-53.99
10.937,-39.39
10.953,-24.4
10.968,-10.13
10.984,2.73
11.000,13.84
11.015,23.09
11.031,30.46
11.046,36.05
11.062,40.02
11.078,42.57
11.093,43.95
11.109,44.34
11.125,43.97
11.140,43.03
11.156,41.81
11.171,40.54
11.187,39.5
11.203,38.84
11.218,38.57
11.234,38.57
11.250,38.52
11.265,38.12
11.281,37.02
11.296,35.03
11.312,32.15
11.328,28.55
11.343,24.55
11.359,20.4
11.375,16.29
11.390,12.21
11.406,8.09
11.421,3.83
11.437,-0.6
11.453,-5.11
11.468,-9.57
11.484,-13.84
11.500,-17.86
11.515,-21.62
11.531,-25.22
11.546,-28.82
11.562,-32.63
11.578,-36.93
11.593,-41.91
11.609,-47.63
11.625,-53.77
11.640,-59.57
11.656,-63.87
11.671,-65.37
11.687,-63.04
11.703,-56.42
11.718,-45.9
11.734,-32.59
11.750,-18.04
11.765,-3.79
11.781,9.04
11.796,19.89
11.812,28.66
11.828,35.56
11.843,40.85
11.859,44.69
11.875,47.16
11.890,48.31
11.906,48.29
11.921,47.38
11.937,45.98
11.953,44.41
11.968,42.89
11.984,41.43
12.000,40.0
12.015,38.5
12.031,36.98
12.046,35.51
12.062,34.21
12.078,33.03
12.093,31.78
12.109,30.14
12.125,27.86
12.140,24.86
12.156,21.31
12.171,17.48
12.187,13.57
12.203,9.64
12.218,5.52
12.234,0.94
12.250,-4.25
12.265,-9.98
12.281,-15.96
12.296,-21.76
12.312,-26.99
12.328,-31.48
12.343,-35.32
12.359,-38.83
12.375,-42.47
12.390,-46.69
12.406,-51.83
12.421,-57.89
12.437,-64.42
12.453,-70.5
12.468,-74.86
12.484,-76.17
12.500,-73.38
12.515,-66.11
12.531,-54.78
12.546,-40.52
12.562,-24.89
12.578,-9.44
12.593,4.62
12.609,16.59
12.625,26.24
12.640,33.75
12.656,39.38
12.671,43.45
12.687,46.24
12.703,48.03
12.718,49.09
12.734,49.7
12.750,50.05
12.765,50.17
12.781,50.05
12.796,49.54
12.812,48.56
12.828,47.11
12.843,45.33
12.859,43.38
12.875,41.43
12.890,39.49
12.906,37.48
12.921,35.21
12.937,32.51
12.953,29.31
12.968,25.7
12.984,21.87
13.000,18.08
13.015,14.53
13.031,11.27
13.046,8.19
13.062,4.99
13.078,1.29
13.093,-3.21
13.109,-8.55
13.125,-14.54
13.140,-20.68
13.156,-26.46
13.171,-31.49
13.187,-35.67
13.203,-39.26
13.218,-42.72
13.234,-46.54
13.250,-51.08
13.265,-56.41
13.281,-62.21
13.296,-67.74
13.312,-71.91
13.328,-73.52
13.343,-71.55
13.359,-65.52
13.375,-55.65
13.390,-42.85
13.406,-28.41
13.421,-13.7
13.437,0.19
13.453,12.57
13.468,23.13
13.484,31.78
13.500,38.53
13.515,43.5
13.531,46.8
13.546,48.59
13.562,49.14
13.578,48.72
13.593,47.74
13.609,46.55
13.625,45.51
13.640,44.78
13.656,44.35
13.671,44.01
13.687,43.47
13.703,42.54
13.718,41.19
13.734,39.51
13.750,37.6
13.765,35.42
13.781,32.79
13.796,29.48
13.812,25.35
13.828,20.52
13.843,15.41
13.859,10.5
13.875,6.22
13.890,2.68
13.906,-0.27
13.921,-3.07
13.937,-6.18
13.953,-9.98
13.968,-14.58
13.984,-19.75
14.000,-25.08
14.015,-30.11
14.031,-34.52
14.046,-38.27
14.062,-41.58
14.078,-44.87
14.093,-48.57
14.109,-52.99
14.125,-58.13
14.140,-63.67
14.156,-68.84
14.171,-72.62
14.187,-73.9
14.203,-71.76
14.218,-65.8
14.234,-56.26
14.250,-43.93
14.265,-30.04
14.281,-15.85
14.296,-2.4
14.312,9.61
14.328,19.79
14.343,28.02
14.359,34.29
14.375,38.66
14.390,41.29
14.406,42.44
14.421,42.47
14.437,41.83
14.453,40.99
14.468,40.23
14.484,39.75
14.500,39.52
14.515,39.41
14.531,39.33
14.546,39.2
14.562,38.95
14.578,38.55
14.593,37.84
14.609,36.61
14.625,34.69
14.640,31.93
14.656,28.33
14.671,24.08
14.687,19.46
14.703,14.79
14.718,10.32
14.734,6.14
14.750,2.14
14.765,-1.82
14.781,-5.95
14.796,-10.29
14.812,-14.72
14.828,-19.03
14.843,-23.0
14.859,-26.54
14.875,-29.83
14.890,-33.24
14.906,-37.2
14.921,-42.01
14.937,-47.69
14.953,-53.88
14.968,-59.89
14.984,-64.68
15.000,-67.12
15.015,-66.24
15.031,-61.51
15.046,-53.03
15.062,-41.59
15.078,-28.4
15.093,-14.82
15.109,-2.01
15.125,9.34
15.140,19.01
15.156,27.04
15.171,33.51
15.187,38.44
15.203,41.75
15.218,43.45
15.234,43.73
15.250,43.0
15.265,41.77
15.281,40.52
15.296,39.48
15.312,38.61
15.328,37.74
15.343,36.68
15.359,35.36
15.375,33.94
15.390,32.61
15.406,31.41
15.421,30.18
15.437,28.54
15.453,26.07
15.468,22.51
15.484,17.9
15.500,12.61
15.515,7.18
15.531,2.11
15.546,-2.33
15.562,-6.16
15.578,-9.61
15.593,-13.01
15.609,-16.61
15.625,-20.51
15.640,-24.6
15.656,-28.68
15.671,-32.57
15.687,-36.2
15.703,-39.62
15.718,-43.0
15.734,-46.65
15.750,-50.83
15.765,-55.77
15.781,-61.49
15.796,-67.6
15.812,-73.29
15.828,-77.29
15.843,-78.26
15.859,-75.23
15.875,-67.97
15.890,-57.12
15.906,-43.99
15.921,-30.1
15.937,-16.69
15.953,-4.5
15.968,6.21
15.984,15.45
16.000,23.27
16.015,29.68
16.031,34.64
16.046,38.26
16.062,40.72
16.078,42.38
16.093,43.51
16.109,44.32
16.125,44.88
16.140,45.18
16.156,45.09
16.171,44.57
16.187,43.61
16.203,42.25
16.218,40.63
16.234,38.86
16.250,36.98
16.265,35.01
16.281,32.87
16.296,30.44
16.312,27.62
16.328,24.41
16.343,20.91
16.359,17.28
16.375,13.67
16.390,10.13
16.406,6.57
16.421,2.8
16.437,-1.39
16.453,-6.1
16.468,-11.25
16.484,-16.61
16.500,-21.79
16.515,-26.47
16.531,-30.45
16.546,-33.77
16.562,-36.67
16.578,-39.58
16.593,-43.0
16.609,-47.3
16.625,-52.63
16.640,-58.72
16.656,-64.82
16.671,-69.79
16.687,-72.32
16.703,-71.26
16.718,-66.04
16.734,-56.81
16.750,-44.44
16.765,-30.31
16.781,-15.88
16.796,-2.41
16.812,9.26
16.828,18.81
16.843,26.29
16.859,31.96
16.875,36.17
16.890,39.19
16.906,41.22
16.921,42.45
16.937,43.05
16.953,43.26
16.968,43.27
16.984,43.17
17.000,42.91
17.015,42.31
17.031,41.22
17.046,39.61
17.062,37.68
17.078,35.69
17.093,33.85
17.109,32.19
17.125,30.5
17.140,28.46
17.156,25.82
17.171,22.49
17.187,18.64
17.203,14.62
17.218,10.83
17.234,7.52
17.250,4.71
17.265,2.16
17.281,-0.54
17.296,-3.82
17.312,-7.95
17.328,-12.88
17.343,-18.29
17.359,-23.7
17.375,-28.65
17.390,-32.91
17.406,-36.5
17.421,-39.72
17.437,-43.01
17.453,-46.8
17.468,-51.29
17.484,-56.36
17.500,-61.44
17.515,-65.59
17.531,-67.67
17.546,-66.66
17.562,-61.96
17.578,-53.56
17.593,-42.13
17.609,-28.77
17.625,-14.75
17.640,-1.22
17.656,10.98
17.671,21.33
17.687,29.62
17.703,35.76
17.718,39.84
17.734,41.99
17.750,42.44
17.765,41.58
17.781,39.92
17.796,37.99
17.812,36.28
17.828,35.07
17.843,34.47
17.859,34.36
17.875,34.56
17.890,34.82
17.906,34.93
17.921,34.7
17.937,33.96
17.953,32.55
17.968,30.35
17.984,27.38
18.000,23.72
18.015,19.58
18.031,15.17
18.046,10.68
18.062,6.19
18.078,1.76
18.093,-2.56
18.109,-6.72
18.125,-10.64
18.140,-14.3
18.156,-17.69
18.171,-20.83
18.187,-23.84
18.203,-26.88
18.218,-30.2
18.234,-34.1
18.250,-38.8
18.265,-44.36
18.281,-50.46
18.296,-56.29
18.312,-60.79
18.328,-62.81
18.343,-61.51
18.359,-56.61
18.375,-48.43
18.390,-37.85
18.406,-25.94
18.421,-13.8
18.437,-2.19
18.453,8.37
18.468,17.66
18.484,25.56
18.500,32.07
18.515,37.17
18.531,40.89
18.546,43.32
18.562,44.62
18.578,45.03
18.593,44.82
18.609,44.22
18.625,43.41
18.640,42.47
18.656,41.41
18.671,40.16
18.687,38.71
18.703,37.09
18.718,35.36
18.734,33.54
18.750,31.56
18.765,29.26
18.781,26.44
18.796,23.03
18.812,19.09
18.828,14.83
18.843,10.5
18.859,6.2
18.875,1.97
18.890,-2.33
18.906,-6.82
18.921,-11.53
18.937,-16.38
18.953,-21.17
18.968,-25.74
18.984,-29.99
19.000,-33.95
19.015,-37.7
19.031,-41.45
19.046,-45.45
19.062,-49.98
19.078,-55.18
19.093,-60.84
19.109,-66.28
19.125,-70.3
19.140,-71.59
19.156,-69.07
19.171,-62.46
19.187,-52.31
19.203,-39.93
19.218,-26.83
19.234,-14.27
19.250,-2.99
19.265,6.77
19.281,15.05
19.296,21.93
19.312,27.4
19.328,31.43
19.343,34.1
19.359,35.72
19.375,36.77
19.390,37.7
19.406,38.75
19.421,39.88
19.437,40.82
19.453,41.27
19.468,41.05
19.484,40.26
19.500,39.13
19.515,37.91
19.531,36.68
19.546,35.29
19.562,33.48
19.578,31.03
19.593,27.93
19.609,24.38
19.625,20.74
19.640,17.31
19.656,14.21
19.671,11.26
19.687,8.2
19.703,4.66
19.718,0.45
19.734,-4.48
19.750,-10.01
19.765,-15.84
19.781,-21.68
19.796,-27.26
19.812,-32.4
19.828,-37.07
19.843,-41.4
19.859,-45.66
19.875,-50.11
19.890,-54.97
19.906,-60.14
19.921,-65.09
19.937,-68.93
19.953,-70.53
19.968,-68.88
19.984,-63.48
20.000,-54.51
20.015,-42.83
20.031,-29.73
20.046,-16.51
20.062,-4.17
20.078,6.77
20.093,16.28
20.109,24.46
20.125,31.46
20.140,37.27
20.156,41.79
20.171,44.87
20.187,46.55
20.203,47.04
20.218,46.68
20.234,45.89
20.250,44.87
20.265,43.65
20.281,42.13
20.296,40.18
20.312,37.81
20.328,35.21
20.343,32.62
20.359,30.22
20.375,28.02
20.390,25.79
20.406,23.26
20.421,20.25
20.437,16.76
20.453,12.98
20.468,9.13
20.484,5.36
20.500,1.65
20.515,-2.08
20.531,-5.92
20.546,-9.86
20.562,-13.75
20.578,-17.44
20.593,-20.82
20.609,-23.96
20.625,-27.09
20.640,-30.54
20.656,-34.65
20.671,-39.64
20.687,-45.5
20.703,-51.81
20.718,-57.81
20.734,-62.39
20.750,-64.29
20.765,-62.58
20.781,-56.81
20.796,-47.33
20.812,-35.15
20.828,-21.69
20.843,-8.34
20.859,3.87
20.875,14.4
20.890,23.24
20.906,30.57
20.921,36.59
20.937,41.38
20.953,44.92
20.968,47.2
20.984,48.4
21.000,48.84
21.015,48.93
21.031,49.03
21.046,49.25
21.062,49.46
21.078,49.39
21.093,48.83
21.109,47.78
21.125,46.42
21.140,45.05
21.156,43.88
21.171,42.97
21.187,42.11
21.203,41.04
21.218,39.51
21.234,37.33
21.250,34.54
21.265,31.2
21.281,27.51
21.296,23.69
21.312,20.05
21.328,16.87
21.343,14.34
21.359,12.52
21.375,11.16
21.390,9.98
21.406,8.7
21.421,7.24
21.437,5.76
21.453,4.61
21.468,4.13
21.484,4.57
21.500,6.02
21.515,8.39
21.531,11.6
21.546,15.63
21.562,20.61
21.578,26.79
21.593,34.51
21.609,44.01
21.625,55.4
21.640,68.56
21.656,83.07
21.671,98.39
21.687,113.86
21.703,128.89
21.718,143.08
21.734,156.25
21.750,168.35
21.765,179.35
21.781,189.06
21.796,196.99
21.812,202.3
21.828,203.86
21.843,200.53
21.859,191.5
21.875,176.72
21.890,157.01
21.906,133.96
21.921,109.53
21.937,85.44
21.953,62.71
21.968,41.38
21.984,20.81
22.000,0.12
22.015,-21.35
22.031,-43.61
22.046,-66.15
22.062,-88.19
22.078,-109.22
22.093,-129.18
22.109,-148.64
22.125,-168.41
22.140,-189.31
22.156,-211.73
22.171,-235.53
22.187,-259.99
22.203,-284.08
22.218,-306.65
22.234,-326.65
22.250,-343.25
22.265,-355.79
22.281,-363.57
22.296,-365.78
22.312,-361.42
22.328,-349.69
22.343,-330.21
22.359,-303.55
22.375,-271.28
22.390,-235.71
22.406,-199.42
22.421,-164.58
22.437,-132.57
22.453,-103.8
22.468,-78.19
22.484,-55.36
22.500,-35.17
22.515,-17.7
22.531,-3.05
22.546,8.84
22.562,18.41
22.578,26.36
22.593,33.48
22.609,40.25
22.625,46.82
22.640,52.98
22.656,58.49
22.671,63.26
22.687,67.47
22.703,71.46
22.718,75.46
22.734,79.44
22.750,82.94
22.765,85.36
22.781,86.13
22.796,84.98
22.812,82.06
22.828,77.74
22.843,72.49
22.859,66.67
22.875,60.52
22.890,54.18
22.906,47.87
22.921,41.83
22.937,36.29
22.953,31.34
22.968,26.82
22.984,22.35
23.000,17.48
23.015,11.83
23.031,5.18
23.046,-2.58
23.062,-11.29
23.078,-20.6
23.093,-29.73
23.109,-37.52
23.125,-42.56
23.140,-43.62
23.156,-40.1
23.171,-32.34
23.187,-21.58
23.203,-9.52
23.218,2.21
23.234,12.48
23.250,20.82
23.265,27.25
23.281,31.93
23.296,35.0
23.312,36.48
23.328,36.43
23.343,35.15
23.359,33.17
23.375,31.18
23.390,29.82
23.406,29.48
23.421,30.18
23.437,31.68
23.453,33.57
23.468,35.47
23.484,37.06
23.500,38.17
23.515,38.69
23.531,38.55
23.546,37.75
23.562,36.37
23.578,34.55
23.593,32.48
23.609,30.35
23.625,28.26
23.640,26.22
23.656,24.18
23.671,21.95
23.687,19.3
23.703,16.0
23.718,11.9
23.734,7.01
23.750,1.44
23.765,-4.64
23.781,-11.09
23.796,-17.76
23.812,-24.46
23.828,-30.84
23.843,-36.27
23.859,-39.82
23.875,-40.48
23.890,-37.46
23.906,-30.49
23.921,-20.01
23.937,-7.04
23.953,7.02
23.968,20.94
23.984,33.83
24.000,45.4
24.015,55.74
24.031,65.07
24.046,73.48
24.062,80.93
24.078,87.33
24.093,92.73
24.109,97.49
24.125,102.12
24.140,107.14
24.156,112.76
24.171,118.78
24.187,124.65
24.203,129.79
24.218,133.84
24.234,136.81
24.250,139.02
24.265,140.92
24.281,142.8
24.296,144.55
24.312,145.53
24.328,144.74
24.343,141.08
24.359,133.72
24.375,122.42
24.390,107.55
24.406,90.02
24.421,70.89
24.437,51.15
24.453,31.54
24.468,12.44
24.484,-6.05
24.500,-23.97
24.515,-41.44
24.531,-58.5
24.546,-75.0
24.562,-90.44
24.578,-104.11
24.593,-115.12
24.609,-122.85
24.625,-127.19
24.640,-128.71
24.656,-128.43
24.671,-127.41
24.687,-126.29
24.703,-125.07
24.718,-123.1
24.734,-119.44
24.750,-113.37
24.765,-104.74
24.781,-94.17
24.796,-82.86
24.812,-72.19
24.828,-63.37
24.843,-57.03
24.859,-53.13
24.875,-51.03
24.890,-49.78
24.906,-48.36
24.921,-45.96
24.937,-41.96
24.953,-35.95
24.968,-27.7
24.984,-17.16
25.000,-4.59
25.015,9.39
25.031,23.82
25.046,37.55
25.062,49.58
25.078,59.33
25.093,66.87
25.109,72.83
25.125,78.14
25.140,83.64
25.156,89.71
25.171,96.22
25.187,102.55
25.203,107.91
25.218,111.64
25.234,113.17
25.250,111.91
25.265,107.15
25.281,98.01
25.296,83.9
25.312,64.99
25.328,42.48
25.343,18.41
25.359,-5.02
25.375,-26.13
25.390,-44.14
25.406,-58.79
25.421,-69.94
25.437,-77.14
25.453,-79.82
25.468,-77.89
25.484,-72.38
25.500,-65.45
25.515,-59.67
25.531,-57.0
25.546,-57.91
25.562,-61.28
25.578,-64.95
25.593,-66.72
25.609,-65.13
25.625,-59.76
25.640,-51.05
25.656,-39.85
25.671,-27.05
25.687,-13.29
25.703,1.01
25.718,15.55
25.734,29.83
25.750,42.76
25.765,52.7
25.781,57.88
25.796,57.16
25.812,50.6
25.828,39.52
25.843,25.66
25.859,10.12
25.875,-7.34
25.890,-28.13
25.906,-53.86
25.921,-85.22
25.937,-121.4
25.953,-160.41
25.968,-199.78
25.984,-237.24
26.000,-270.74
26.015,-298.22
26.031,-317.45
26.046,-326.41
26.062,-324.09
26.078,-311.14
26.093,-289.83
26.109,-263.19
26.125,-234.02
26.140,-204.13
26.156,-174.27
26.171,-144.74
26.187,-115.84
26.203,-88.25
26.218,-62.79
26.234,-40.07
26.250,-20.24
26.265,-3.03
26.281,11.96
26.296,24.97
26.312,35.99
26.328,44.87
26.343,51.56
26.359,56.31
26.375,59.71
26.390,62.49
26.406,65.2
26.421,68.03
26.437,70.73
26.453,72.76
26.468,73.57
26.484,72.83
26.500,70.58
26.515,67.15
26.531,63.01
26.546,58.59
26.562,54.18
26.578,49.86
26.593,45.63
26.609,41.5
26.625,37.57
26.640,34.01
26.656,30.96
26.671,28.45
26.687,26.33
26.703,24.3
26.718,21.97
26.734,18.87
26.750,14.62
26.765,8.91
26.781,1.73
26.796,-6.47
26.812,-14.69
26.828,-21.47
26.843,-25.25
26.859,-24.84
26.875,-19.92
26.890,-11.07
26.906,0.3
26.921,12.48
26.937,23.98
26.953,33.86
26.968,41.81
26.984,47.94
27.000,52.6
27.015,56.11
27.031,58.82
27.046,60.91
27.062,62.61
27.078,64.2
27.093,65.88
27.109,67.86
27.125,70.23
27.140,72.92
27.156,75.71
27.171,78.38
27.187,80.69
27.203,82.59
27.218,84.22
27.234,85.82
27.250,87.68
27.265,90.06
27.281,92.95
27.296,96.13
27.312,99.25
27.328,101.96
27.343,104.07
27.359,105.55
27.375,106.55
27.390,107.15
27.406,107.36
27.421,106.88
27.437,105.33
27.453,102.29
27.468,97.42
27.484,90.45
27.500,81.23
27.515,69.73
27.531,56.21
27.546,41.34
27.562,26.3
27.578,12.51
27.593,1.24
27.609,-6.97
27.625,-12.4
27.640,-16.13
27.656,-19.46
27.671,-23.4
27.687,-28.3
27.703,-33.78
27.718,-39.0
27.734,-42.98
27.750,-44.96
27.765,-44.42
27.781,-41.2
27.796,-35.36
27.812,-27.19
27.828,-17.27
27.843,-6.39
27.859,4.64
27.875,15.15
27.890,24.76
27.906,33.55
27.921,41.85
27.937,50.08
27.953,58.53
27.968,67.16
27.984,75.51
28.000,82.74
28.015,87.89
28.031,90.04
28.046,88.68
28.062,83.83
28.078,76.09
28.093,66.41
28.109,55.63
28.125,43.94
28.140,30.59
28.156,13.98
28.171,-7.65
28.187,-35.38
28.203,-68.88
28.218,-106.27
28.234,-144.61
28.250,-180.7
28.265,-211.86
28.281,-236.35
28.296,-253.19
28.312,-261.99
28.328,-262.67
28.343,-255.58
28.359,-241.62
28.375,-222.32
28.390,-199.64
28.406,-175.56
28.421,-151.64
28.437,-128.79
28.453,-107.4
28.468,-87.57
28.484,-69.38
28.500,-53.02
28.515,-38.67
28.531,-26.38
28.546,-15.93
28.562,-6.95
28.578,0.98
28.593,8.08
28.609,14.3
28.625,19.28
28.640,22.47
28.656,23.31
28.671,21.42
28.687,16.75
28.703,9.71
28.718,1.12
28.734,-7.94
28.750,-16.52
28.765,-24.32
28.781,-32.06
28.796,-41.19
28.812,-53.14
28.828,-68.3
28.843,-85.3
28.859,-101.02
28.875,-111.58
28.890,-113.68
28.906,-105.72
28.921,-88.23
28.937,-63.38
28.953,-34.1
28.968,-3.32
28.984,26.49
29.000,53.54
29.015,76.79
29.031,96.19
29.046,112.7
29.062,128.05
29.078,143.89
29.093,160.91
29.109,178.33
29.125,194.0
29.140,205.14
29.156,209.41
29.171,205.75
29.187,194.7
29.203,178.2
29.218,158.89
29.234,139.37
29.250,121.71
29.265,107.24
29.281,96.6
29.296,90.02
29.312,87.7
29.328,89.99
29.343,97.23
29.359,109.49
29.375,126.01
29.390,145.0
29.406,163.71
29.421,178.79
29.437,187.06
29.453,186.07
29.468,174.72
29.484,153.43
29.500,124.16
29.515,90.01
29.531,54.53
29.546,20.96
29.562,-8.37
29.578,-32.04
29.593,-49.28
29.609,-59.37
29.625,-61.33
29.640,-54.17
29.656,-37.72
29.671,-13.77
29.687,13.39
29.703,37.29
29.718,50.93
29.734,48.93
29.750,29.61
29.765,-4.25
29.781,-46.25
29.796,-88.47
29.812,-123.83
29.828,-147.53
29.843,-157.2
29.859,-151.94
29.875,-131.4
29.890,-95.66
29.906,-46.2
29.921,12.71
29.937,73.64
29.953,126.98
29.968,163.56
29.984,177.25
30.000,166.64
30.015,135.0
30.031,88.92
30.046,36.43
30.062,-14.63
30.078,-57.37
30.093,-86.25
30.109,-97.38
30.125,-88.74
30.140,-60.74
30.156,-16.52
30.171,38.09
30.187,95.14
30.203,145.69
30.218,181.52
30.234,197.07
30.250,190.85
30.265,165.78
30.281,128.08
30.296,84.93
30.312,41.85
30.328,1.06
30.343,-38.36
30.359,-78.61
30.375,-120.4
30.390,-161.15
30.406,-194.9
30.421,-214.48
30.437,-214.5
30.453,-193.84
30.468,-156.34
30.484,-109.4
30.500,-61.49
30.515,-19.78
30.531,11.09
30.546,28.9
30.562,32.85
30.578,22.72
30.593,-1.24
30.609,-37.85
30.625,-84.21
30.640,-135.32
30.656,-184.44
30.671,-224.14
30.687,-247.8
30.703,-251.29
30.718,-234.17
30.734,-199.91
30.750,-154.95
30.765,-106.89
30.781,-62.47
30.796,-26.33
30.812,-0.79
30.828,13.49
30.843,16.82
30.859,10.34
30.875,-3.61
30.890,-21.01
30.906,-36.5
30.921,-44.74
30.937,-42.31
30.953,-29.25
30.968,-9.48
30.984,10.46
31.000,23.39
31.015,23.76
31.031,8.94
31.046,-20.69
31.062,-62.45
31.078,-112.46
31.093,-166.21
31.109,-218.7
31.125,-264.48
31.140,-298.12
31.156,-315.23
31.171,-313.73
31.187,-294.77
31.203,-262.65
31.218,-223.62
31.234,-184.03
31.250,-148.49
31.265,-119.03
31.281,-95.29
31.296,-75.64
31.312,-58.34
31.328,-42.41
31.343,-27.72
31.359,-14.63
31.375,-3.55
31.390,5.44
31.406,12.73
31.421,19.14
31.437,25.71
31.453,33.48
31.468,43.19
31.484,55.05
31.500,68.64
31.515,82.86
31.531,96.29
31.546,107.6
31.562,115.96
31.578,121.19
31.593,123.74
31.609,124.35
31.625,123.7
31.640,122.32
31.656,120.45
31.671,118.2
31.687,115.63
31.703,112.78
31.718,109.57
31.734,105.72
31.750,100.89
31.765,94.78
31.781,87.43
31.796,79.22
31.812,70.83
31.828,62.96
31.843,55.91
31.859,49.45
31.875,43.01
31.890,36.03
31.906,28.47
31.921,21.03
31.937,15.05
31.953,12.04
31.968,13.03
31.984,18.22
32.000,26.9
32.015,37.79
32.031,49.44
32.046,60.58
32.062,70.25
32.078,77.74
32.093,82.58
32.109,84.48
32.125,83.48
32.140,79.94
32.156,74.58
32.171,68.3
32.187,61.96
32.203,56.18
32.218,51.28
32.234,47.33
32.250,44.19
32.265,41.71
32.281,39.7
32.296,38.06
32.312,36.69
32.328,35.54
32.343,34.54
32.359,33.67
32.375,32.93
32.390,32.31
32.406,31.81
32.421,31.29
32.437,30.58
32.453,29.43
32.468,27.64
32.484,25.18
32.500,22.2
32.515,18.98
32.531,15.73
32.546,12.55
32.562,9.28
32.578,5.66
32.593,1.4
32.609,-3.73
32.625,-9.84
32.640,-16.84
32.656,-24.35
32.671,-31.64
32.687,-37.66
32.703,-41.18
32.718,-41.22
32.734,-37.31
32.750,-29.78
32.765,-19.68
32.781,-8.47
32.796,2.43
32.812,12.05
32.828,19.93
32.843,26.12
32.859,30.92
32.875,34.64
32.890,37.48
32.906,39.51
32.921,40.74
32.937,41.3
32.953,41.46
32.968,41.63
32.984,42.08
33.000,42.91
33.015,43.87
33.031,44.5
33.046,44.36
33.062,43.26
33.078,41.38
33.093,39.11
33.109,36.78
33.125,34.37
33.140,31.59
33.156,27.96
33.171,23.23
33.187,17.44
33.203,11.03
33.218,4.56
33.234,-1.5
33.250,-6.89
33.265,-11.58
33.281,-15.66
33.296,-19.29
33.312,-22.7
33.328,-26.15
33.343,-29.99
33.359,-34.45
33.375,-39.51
33.390,-44.72
33.406,-49.19
33.421,-51.86
33.437,-51.76
33.453,-48.4
33.468,-41.93
33.484,-33.1
33.500,-22.93
33.515,-12.45
33.531,-2.41
33.546,6.76
33.562,14.84
33.578,21.7
33.593,27.16
33.609,31.02
33.625,33.15
33.640,33.65
33.656,32.8
33.671,31.04
33.687,28.83
33.703,26.5
33.718,24.26
33.734,22.15
33.750,20.12
33.765,18.03
33.781,15.67
33.796,12.75
33.812,8.95
33.828,4.08
33.843,-1.84
33.859,-8.54
33.875,-15.56
33.890,-22.39
33.906,-28.67
33.921,-34.15
33.937,-38.7
33.953,-42.26
33.968,-44.72
33.984,-46.0
34.000,-46.1
34.015,-45.15
34.031,-43.37
34.046,-40.99
34.062,-38.09
34.078,-34.65
34.093,-30.47
34.109,-25.29
34.125,-18.98
34.140,-11.5
34.156,-3.1
34.171,5.66
34.187,14.02
34.203,21.02
34.218,25.8
34.234,27.71
34.250,26.53
34.265,22.43
34.281,15.97
34.296,7.91
34.312,-0.92
34.328,-9.73
34.343,-17.84
34.359,-24.71
34.375,-29.97
34.390,-33.41
34.406,-34.97
34.421,-34.72
34.437,-32.81
34.453,-29.46
34.468,-24.99
34.484,-19.76
34.500,-14.2
34.515,-8.76
34.531,-3.85
34.546,0.24
34.562,3.4
34.578,5.74
34.593,7.62
34.609,9.65
34.625,12.59
34.640,17.22
34.656,24.2
34.671,33.79
34.687,45.74
34.703,59.21
34.718,72.97
34.734,85.74
34.750,96.59
34.765,105.19
34.781,111.92
34.796,117.58
34.812,123.15
34.828,129.48
34.843,137.03
34.859,145.92
34.875,155.96
34.890,166.71
34.906,177.57
34.921,187.79
34.937,196.49
34.953,202.62
34.968,205.01
34.984,202.53
35.000,194.33
35.015,180.09
35.031,160.23
35.046,135.89
35.062,108.78
35.078,80.83
35.093,53.78
35.109,28.89
35.125,6.85
35.140,-12.22
35.156,-28.58
35.171,-42.76
35.187,-55.42
35.203,-67.36
35.218,-79.42
35.234,-92.41
35.250,-106.77
35.265,-122.38
35.281,-138.45
35.296,-153.72
35.312,-167.01
35.328,-177.62
35.343,-185.7
35.359,-192.18
35.375,-198.2
35.390,-204.63
35.406,-211.66
35.421,-218.83
35.437,-225.31
35.453,-230.2
35.468,-232.69
35.484,-232.12
35.500,-227.95
35.515,-219.8
35.531,-207.68
35.546,-192.17
35.562,-174.36
35.578,-155.58
35.593,-137.07
35.609,-119.56
35.625,-103.29
35.640,-88.22
35.656,-74.26
35.671,-61.49
35.687,-50.16
35.703,-40.45
35.718,-32.37
35.734,-25.73
35.750,-20.18
35.765,-15.44
35.781,-11.41
35.796,-8.07
35.812,-5.48
35.828,-3.53
35.843,-2.03
35.859,-0.81
35.875,0.22
35.890,0.96
35.906,1.16
35.921,0.56
35.937,-0.98
35.953,-3.44
35.968,-6.63
35.984,-10.27
36.000,-14.08
36.015,-17.86
36.031,-21.53
36.046,-25.21
36.062,-29.15
36.078,-33.7
36.093,-39.16
36.109,-45.61
36.125,-52.75
36.140,-59.81
36.156,-65.63
36.171,-69.05
36.187,-69.21
36.203,-65.83
36.218,-59.27
36.234,-50.38
36.250,-40.13
36.265,-29.29
36.281,-18.4
36.296,-7.72
36.312,2.5
36.328,11.95
36.343,20.27
36.359,27.15
36.375,32.44
36.390,36.22
36.406,38.72
36.421,40.23
36.437,40.96
36.453,40.99
36.468,40.35
36.484,39.01
36.500,36.97
36.515,34.33
36.531,31.27
36.546,28.08
36.562,24.97
36.578,22.08
36.593,19.4
36.609,16.69
36.625,13.73
36.640,10.33
36.656,6.46
36.671,2.25
36.687,-2.06
36.703,-6.27
36.718,-10.33
36.734,-14.36
36.750,-18.68
36.765,-23.67
36.781,-29.61
36.796,-36.57
36.812,-44.25
36.828,-51.91
36.843,-58.45
36.859,-62.65
36.875,-63.4
36.890,-60.09
36.906,-52.83
36.921,-42.32
36.937,-29.7
36.953,-16.16
36.968,-2.6
36.984,10.45
37.000,22.75
37.015,34.12
37.031,44.28
37.046,52.78
37.062,59.11
37.078,62.98
37.093,64.48
37.109,64.05
37.125,62.4
37.140,60.27
37.156,58.15
37.171,56.3
37.187,54.68
37.203,53.15
37.218,51.55
37.234,49.75
37.250,47.71
37.265,45.37
37.281,42.71
37.296,39.59
37.312,35.87
37.328,31.34
37.343,25.96
37.359,19.82
37.375,13.12
37.390,6.22
37.406,-0.64
37.421,-7.37
37.437,-14.13
37.453,-21.21
37.468,-28.92
37.484,-37.48
37.500,-46.93
37.515,-57.2
37.531,-67.9
37.546,-78.27
37.562,-87.13
37.578,-93.05
37.593,-94.7
37.609,-91.33
37.625,-83.01
37.640,-70.66
37.656,-55.71
37.671,-39.54
37.687,-23.22
37.703,-7.33
37.718,7.84
37.734,22.06
37.750,34.95
37.765,46.08
37.781,55.1
37.796,61.87
37.812,66.54
37.828,69.5
37.843,71.26
37.859,72.34
37.875,73.17
37.890,74.08
37.906,75.32
37.921,77.02
37.937,79.2
37.953,81.81
37.968,84.68
37.984,87.52
38.000,90.01
38.015,91.81
38.031,92.66
38.046,92.49
38.062,91.47
38.078,89.96
38.093,88.46
38.109,87.43
38.125,87.15
38.140,87.6
38.156,88.48
38.171,89.21
38.187,89.17
38.203,87.88
38.218,85.18
38.234,81.31
38.250,76.72
38.265,71.84
38.281,66.93
38.296,62.0
38.312,56.92
38.328,51.64
38.343,46.3
38.359,41.19
38.375,36.65
38.390,32.86
38.406,29.78
38.421,27.22
38.437,24.96
38.453,22.81
38.468,20.65
38.484,18.49
38.500,16.28
38.515,14.05
38.531,11.8
38.546,9.5
38.562,7.01
38.578,4.09
38.593,0.41
38.609,-4.29
38.625,-10.0
38.640,-16.43
38.656,-22.99
38.671,-29.04
38.687,-34.13
38.703,-38.08
38.718,-41.11
38.734,-43.69
38.750,-46.39
38.765,-49.66
38.781,-53.77
38.796,-58.63
38.812,-63.88
38.828,-69.02
38.843,-73.55
38.859,-77.26
38.875,-80.26
38.890,-83.05
38.906,-86.41
38.921,-91.19
38.937,-97.9
38.953,-106.35
38.968,-115.51
38.984,-123.42
39.000,-127.7
39.015,-126.2
39.031,-117.79
39.046,-102.74
39.062,-82.66
39.078,-59.89
39.093,-36.69
39.109,-14.79
39.125,4.88
39.140,21.83
39.156,35.76
39.171,46.34
39.187,53.28
39.203,56.65
39.218,57.07
39.234,55.68
39.250,53.69
39.265,52.12
39.281,51.38
39.296,51.29
39.312,51.34
39.328,50.95
39.343,49.76
39.359,47.75
39.375,45.11
39.390,42.11
39.406,38.91
39.421,35.47
39.437,31.64
39.453,27.27
39.468,22.35
39.484,17.08
39.500,11.78
39.515,6.91
39.531,2.69
39.546,-0.9
39.562,-4.18
39.578,-7.79
39.593,-12.38
39.609,-18.47
39.625,-26.21
39.640,-35.24
39.656,-44.62
39.671,-52.89
39.687,-58.38
39.703,-59.51
39.718,-55.36
39.734,-45.97
39.750,-32.42
39.765,-16.48
39.781,-0.12
39.796,15.13
39.812,28.49
39.828,39.9
39.843,49.7
39.859,58.2
39.875,65.36
39.890,70.72
39.906,73.58
39.921,73.19
39.937,68.91
39.953,60.35
39.968,47.37
39.984,30.23
40.000,9.58
40.015,-13.22
40.031,-36.23
40.046,-57.03
40.062,-73.31
40.078,-83.5
40.093,-87.27
40.109,-85.61
40.125,-80.4
40.140,-73.79
40.156,-67.47
40.171,-62.32
40.187,-58.52
40.203,-55.82
40.218,-53.94
40.234,-52.74
40.250,-52.32
40.265,-52.86
40.281,-54.55
40.296,-57.54
40.312,-61.9
40.328,-67.43
40.343,-73.58
40.359,-79.19
40.375,-82.61
40.390,-82.02
40.406,-76.0
40.421,-64.04
40.437,-46.79
40.453,-25.91
40.468,-3.59
40.484,18.05
40.500,37.52
40.515,54.03
40.531,67.38
40.546,77.65
40.562,84.98
40.578,89.45
40.593,91.27
40.609,90.83
40.625,88.76
40.640,85.74
40.656,82.38
40.671,79.07
40.687,75.96
40.703,73.03
40.718,70.18
40.734,67.36
40.750,64.63
40.765,62.06
40.781,59.68
40.796,57.42
40.812,55.06
40.828,52.32
40.843,48.91
40.859,44.73
40.875,39.87
40.890,34.67
40.906,29.53
40.921,24.78
40.937,20.45
40.953,16.24
40.968,11.63
40.984,6.13
41.000,-0.34
41.015,-7.27
41.031,-13.47
41.046,-17.41
41.062,-17.51
41.078,-12.74
41.093,-2.94
41.109,11.06
41.125,27.67
41.140,45.01
41.156,61.41
41.171,75.77
41.187,87.72
41.203,97.32
41.218,104.83
41.234,110.31
41.250,113.59
41.265,114.43
41.281,112.79
41.296,108.94
41.312,103.48
41.328,97.09
41.343,90.28
41.359,83.23
41.375,75.94
41.390,68.4
41.406,60.81
41.421,53.55
41.437,47.08
41.453,41.57
41.468,36.91
41.484,32.59
41.500,28.06
41.515,22.87
41.531,16.98
41.546,10.68
41.562,4.49
41.578,-1.0
41.593,-5.34
41.609,-8.29
41.625,-9.96
41.640,-10.84
41.656,-11.84
41.671,-14.15
41.687,-19.0
41.703,-27.3
41.718,-39.21
41.734,-53.96
41.750,-69.79
41.765,-84.42
41.781,-95.66
41.796,-102.08
41.812,-103.3
41.828,-99.95
41.843,-93.24
41.859,-84.45
41.875,-74.66
41.890,-64.71
41.906,-55.41
41.921,-47.6
41.937,-42.16
41.953,-39.64
41.968,-40.02
41.984,-42.56
42.000,-46.06
42.015,-49.29
42.031,-51.45
42.046,-52.42
42.062,-52.61
42.078,-52.69
42.093,-53.16
42.109,-54.1
42.125,-55.14
42.140,-55.68
42.156,-55.27
42.171,-53.77
42.187,-51.49
42.203,-49.08
42.218,-47.13
42.234,-46.1
42.250,-46.15
42.265,-47.28
42.281,-49.49
42.296,-52.92
42.312,-57.74
42.328,-64.12
42.343,-71.94
42.359,-80.74
42.375,-89.85
42.390,-98.54
42.406,-106.12
42.421,-111.91
42.437,-114.95
42.453,-113.89
42.468,-107.08
42.484,-93.18
42.500,-71.8
42.515,-44.15
42.531,-12.87
42.546,18.51
42.562,46.73
42.578,69.78
42.593,87.29
42.609,100.24
42.625,110.1
42.640,118.04
42.656,124.49
42.671,129.22
42.687,131.75
42.703,131.83
42.718,129.65
42.734,125.71
42.750,120.49
42.765,114.24
42.781,106.79
42.796,97.83
42.812,87.19
42.828,75.06
42.843,62.01
42.859,48.87
42.875,36.33
42.890,24.68
42.906,13.77
42.921,3.15
42.937,-7.62
42.953,-18.67
42.968,-29.79
42.984,-40.49
43.000,-50.32
43.015,-59.07
43.031,-66.86
43.046,-74.04
43.062,-81.03
43.078,-88.1
43.093,-95.3
43.109,-102.65
43.125,-110.17
43.140,-118.0
43.156,-126.26
43.171,-134.67
43.187,-142.41
43.203,-147.99
43.218,-149.57
43.234,-145.55
43.250,-135.17
43.265,-118.74
43.281,-97.49
43.296,-73.09
43.312,-47.04
43.328,-20.39
43.343,6.12
43.359,31.84
43.375,55.8
43.390,76.67
43.406,93.02
43.421,103.85
43.437,108.93
43.453,109.07
43.468,105.81
43.484,100.98
43.500,96.14
43.515,92.26
43.531,89.66
43.546,88.2
43.562,87.54
43.578,87.32
43.593,87.27
43.609,87.1
43.625,86.41
43.640,84.76
43.656,81.8
43.671,77.38
43.687,71.73
43.703,65.27
43.718,58.54
43.734,52.0
43.750,45.85
43.765,39.92
43.781,33.73
43.796,26.54
43.812,17.61
43.828,6.46
43.843,-7.0
43.859,-22.37
43.875,-39.07
43.890,-56.46
43.906,-74.12
43.921,-91.66
43.937,-108.51
43.953,-123.63
43.968,-135.43
43.984,-142.18
44.000,-142.51
44.015,-136.09
44.031,-123.77
44.046,-107.4
44.062,-89.17
44.078,-70.98
44.093,-53.98
44.109,-38.56
44.125,-24.67
44.140,-12.13
44.156,-1.0
44.171,8.45
44.187,15.82
44.203,20.84
44.218,23.52
44.234,24.11
44.250,23.1
44.265,21.04
44.281,18.5
44.296,15.93
44.312,13.57
44.328,11.48
44.343,9.53
44.359,7.47
44.375,5.07
44.390,2.23
44.406,-0.98
44.421,-4.35
44.437,-7.72
44.453,-11.0
44.468,-14.16
44.484,-17.25
44.500,-20.24
44.515,-23.06
44.531,-25.58
44.546,-27.74
44.562,-29.55
44.578,-31.06
44.593,-32.3
44.609,-33.28
44.625,-34.03
44.640,-34.65
44.656,-35.41
44.671,-36.73
44.687,-39.0
44.703,-42.42
44.718,-46.72
44.734,-51.06
44.750,-54.14
44.765,-54.46
44.781,-50.7
44.796,-42.13
44.812,-29.02
44.828,-12.49
44.843,5.62
44.859,23.38
44.875,39.22
44.890,52.3
44.906,62.47
44.921,70.07
44.937,75.5
44.953,79.0
44.968,80.66
44.984,80.47
45.000,78.57
45.015,75.25
45.031,71.03
45.046,66.36
45.062,61.61
45.078,57.01
45.093,52.71
45.109,48.94
45.125,45.94
45.140,43.88
45.156,42.76
45.171,42.24
45.187,41.84
45.203,41.01
45.218,39.4
45.234,36.92
45.250,33.75
45.265,30.09
45.281,26.09
45.296,21.77
45.312,17.03
45.328,11.84
45.343,6.24
45.359,0.42
45.375,-5.34
45.390,-10.75
45.406,-15.62
45.421,-19.98
45.437,-24.07
45.453,-28.36
45.468,-33.38
45.484,-39.47
45.500,-46.7
45.515,-54.58
45.531,-62.08
45.546,-67.73
45.562,-69.95
45.578,-67.54
45.593,-60.03
45.609,-47.98
45.625,-32.75
45.640,-16.19
45.671,14.64
45.687,27.26
45.703,37.95
45.718,46.94
45.734,54.27
45.750,59.73
45.765,63.07
45.781,64.18
45.796,63.38
45.812,61.35
45.828,58.85
45.843,56.54
45.859,54.69
45.875,53.24
45.890,51.91
45.906,50.46
45.921,48.78
45.937,46.88
45.953,44.86
45.968,42.73
45.984,40.46
46.000,37.86
46.015,34.87
46.031,31.38
46.046,27.38
46.062,22.82
46.078,17.74
46.093,12.21
46.109,6.38
46.125,0.56
46.140,-4.98
46.156,-10.04
46.171,-14.61
46.187,-18.94
46.203,-23.48
46.218,-28.68
46.234,-34.89
46.250,-42.18
46.265,-50.13
46.281,-57.85
46.296,-64.02
46.312,-67.12
46.328,-65.94
46.343,-59.92
46.359,-49.41
46.375,-35.54
46.390,-19.96
46.406,-4.33
46.421,10.05
46.437,22.42
46.453,32.48
46.468,40.27
46.484,45.93
46.500,49.61
46.515,51.5
46.531,51.81
46.546,50.86
46.562,49.06
46.578,46.86
46.593,44.66
46.609,42.75
46.625,41.2
46.640,39.91
46.656,38.6
46.671,37.02
46.687,35.04
46.703,32.74
46.718,30.28
46.734,27.84
46.750,25.43
46.765,22.83
46.781,19.61
46.796,15.4
46.812,10.0
46.828,3.6
46.843,-3.26
46.859,-9.96
46.875,-15.93
46.890,-20.96
46.906,-25.16
46.921,-28.93
46.937,-32.75
46.953,-37.08
46.968,-42.32
46.984,-48.67
47.000,-56.06
47.015,-63.99
47.031,-71.39
47.046,-76.69
47.062,-78.24
47.078,-74.81
47.093,-66.06
47.109,-52.78
47.125,-36.61
47.140,-19.54
47.156,-3.29
47.171,10.99
47.187,22.92
47.203,32.56
47.218,40.15
47.234,45.87
47.250,49.79
47.265,51.95
47.281,52.54
47.296,51.9
47.312,50.52
47.328,48.89
47.343,47.34
47.359,45.98
47.375,44.73
47.390,43.34
47.406,41.64
47.421,39.5
47.437,37.0
47.453,34.3
47.468,31.62
47.484,29.07
47.500,26.56
47.515,23.85
47.531,20.54
47.546,16.29
47.562,10.97
47.578,4.71
47.593,-2.14
47.609,-9.11
47.625,-15.84
47.640,-22.1
47.656,-27.85
47.671,-33.22
47.687,-38.34
47.703,-43.39
47.718,-48.57
47.734,-54.1
47.750,-60.2
47.765,-66.89
47.781,-73.78
47.796,-79.88
47.812,-83.81
47.828,-84.11
47.843,-79.73
47.859,-70.51
47.875,-57.23
47.890,-41.43
47.906,-24.88
47.921,-9.14
47.937,4.87
47.953,16.78
47.968,26.65
47.984,34.6
48.000,40.72
48.015,45.02
48.031,47.59
48.046,48.64
48.062,48.57
48.078,47.82
48.093,46.79
48.109,45.72
48.125,44.71
48.140,43.72
48.156,42.69
48.171,41.59
48.187,40.37
48.203,39.0
48.218,37.43
48.234,35.55
48.250,33.33
48.265,30.75
48.281,27.87
48.296,24.76
48.312,21.44
48.328,17.85
48.343,13.84
48.359,9.22
48.375,3.9
48.390,-2.0
48.406,-8.23
48.421,-14.41
48.437,-20.25
48.453,-25.67
48.468,-30.83
48.484,-36.01
48.500,-41.63
48.515,-47.95
48.531,-55.05
48.546,-62.53
48.562,-69.47
48.578,-74.52
48.593,-76.22
48.609,-73.42
48.625,-65.76
48.640,-53.77
48.656,-38.76
48.671,-22.46
48.687,-6.44
48.703,8.11
48.718,20.6
48.734,30.88
48.750,38.98
48.765,45.02
48.781,49.07
48.796,51.28
48.812,51.87
48.828,51.14
48.843,49.55
48.859,47.57
48.875,45.56
48.890,43.76
48.906,42.21
48.921,40.79
48.937,39.28
48.953,37.49
48.968,35.25
48.984,32.5
49.000,29.33
49.015,25.88
49.031,22.37
49.046,18.93
49.062,15.61
49.078,12.33
49.093,8.94
49.109,5.26
49.125,1.13
49.140,-3.48
49.156,-8.56
49.171,-13.99
49.187,-19.67
49.203,-25.41
49.218,-30.96
49.234,-36.1
49.250,-40.73
49.265,-44.98
49.281,-49.23
49.296,-53.98
49.312,-59.51
49.328,-65.66
49.343,-71.61
49.359,-76.07
49.375,-77.53
49.390,-74.81
49.406,-67.49
49.421,-55.99
49.437,-41.56
49.453,-25.76
49.468,-10.15
49.484,4.09
49.500,16.32
49.515,26.25
49.531,33.88
49.546,39.25
49.562,42.45
49.578,43.59
49.593,43.0
49.609,41.16
49.625,38.74
49.640,36.35
49.656,34.4
49.671,33.02
49.687,32.05
49.703,31.19
49.718,30.18
49.734,28.89
49.750,27.3
49.765,25.53
49.781,23.64
49.796,21.64
49.812,19.47
49.828,17.02
49.843,14.19
49.859,10.84
49.875,6.87
49.890,2.23
49.906,-2.92
49.921,-8.33
49.937,-13.69
49.953,-18.73
49.968,-23.4
49.984,-27.81
50.000,-32.2
50.015,-36.8
50.031,-41.82
50.046,-47.32
50.062,-53.15
50.078,-58.91
50.093,-63.85
50.109,-66.97
50.125,-67.15
50.140,-63.53
50.156,-55.81
50.171,-44.51
50.187,-30.83
50.203,-16.24
50.218,-2.16
50.234,10.46
50.250,21.1
50.265,29.62
50.281,35.96
50.296,40.06
50.312,41.91
50.328,41.64
50.343,39.72
50.359,36.81
50.375,33.69
50.390,30.98
50.406,29.04
50.421,27.91
50.437,27.37
50.453,27.09
50.468,26.79
50.484,26.18
50.500,25.09
50.515,23.42
50.531,21.15
50.546,18.35
50.562,15.15
50.578,11.7
50.593,8.08
50.609,4.29
50.625,0.19
50.640,-4.32
50.656,-9.29
50.671,-14.63
50.687,-20.14
50.703,-25.59
50.718,-30.83
50.734,-35.87
50.750,-40.91
50.765,-46.24
50.781,-52.14
50.796,-58.59
50.812,-65.2
50.828,-71.09
50.843,-75.03
50.859,-75.78
50.875,-72.42
50.890,-64.7
50.906,-53.23
50.921,-39.21
50.937,-24.13
50.953,-9.39
50.968,4.07
50.984,15.79
51.000,25.75
51.015,34.02
51.031,40.65
51.046,45.52
51.062,48.43
51.078,49.31
51.093,48.32
51.109,45.92
51.125,42.82
51.140,39.75
51.156,37.21
51.171,35.44
51.187,34.33
51.203,33.6
51.218,32.89
51.234,31.94
51.250,30.59
51.265,28.77
51.281,26.45
51.296,23.67
51.312,20.47
51.328,16.88
51.343,12.87
51.359,8.39
51.375,3.37
51.390,-2.1
51.406,-7.8
51.421,-13.43
51.437,-18.73
51.453,-23.56
51.468,-28.04
51.484,-32.4
51.500,-36.94
51.515,-41.94
51.531,-47.56
51.546,-53.8
51.562,-60.44
51.578,-66.87
51.593,-72.07
51.609,-74.67
51.625,-73.34
51.640,-67.26
51.656,-56.47
51.671,-41.98
51.687,-25.49
51.703,-8.78
51.718,6.73
51.734,20.36
51.750,32.07
51.765,42.17
51.781,50.94
51.796,58.42
51.812,64.39
51.828,68.63
51.843,71.09
51.859,71.97
51.875,71.73
51.890,70.86
51.906,69.75
51.921,68.58
51.937,67.37
51.953,66.06
51.968,64.61
51.984,62.99
52.000,61.18
52.015,59.09
52.031,56.54
52.046,53.37
52.062,49.37
52.078,44.46
52.093,38.57
52.109,31.75
52.125,24.11
52.140,15.85
52.156,7.23
52.171,-1.51
52.187,-10.16
52.203,-18.62
52.218,-26.88
52.234,-35.03
52.250,-43.19
52.265,-51.55
52.281,-60.3
52.296,-69.58
52.312,-79.32
52.328,-88.96
52.343,-97.41
52.359,-103.12
52.375,-104.54
52.390,-100.58
52.406,-91.13
52.421,-77.1
52.437,-60.28
52.453,-42.68
52.468,-25.98
52.484,-11.15
52.500,1.61
52.515,12.55
52.531,22.0
52.546,30.04
52.562,36.56
52.578,41.37
52.593,44.41
52.609,45.91
52.625,46.26
52.640,45.84
52.656,44.9
52.671,43.41
52.687,41.24
52.703,38.26
52.718,34.55
52.734,30.39
52.750,26.17
52.765,22.19
52.781,18.58
52.796,15.23
52.812,11.86
52.828,8.13
52.843,3.78
52.859,-1.35
52.875,-7.23
52.890,-13.72
52.906,-20.49
52.921,-27.12
52.937,-33.14
52.953,-38.17
52.968,-42.1
52.984,-45.22
53.000,-48.12
53.015,-51.54
53.031,-56.12
53.046,-62.15
53.062,-69.45
53.078,-77.36
53.093,-84.77
53.109,-90.26
53.125,-92.39
53.140,-90.02
53.156,-82.65
53.171,-70.65
53.187,-55.26
53.203,-38.25
53.218,-21.43
53.234,-6.11
53.250,7.03
53.265,17.88
53.281,26.57
53.296,33.27
53.312,38.06
53.328,41.06
53.343,42.58
53.359,43.06
53.375,43.01
53.390,42.71
53.406,42.16
53.421,41.09
53.437,39.16
53.453,36.24
53.468,32.46
53.484,28.32
53.500,24.38
53.515,21.16
53.531,18.92
53.546,17.52
53.562,16.5
53.578,15.17
53.593,12.96
53.609,9.58
53.625,5.18
53.640,0.27
53.656,-4.57
53.671,-8.94
53.687,-12.79
53.703,-16.41
53.718,-20.26
53.734,-24.72
53.750,-30.03
53.765,-36.21
53.781,-43.13
53.796,-50.46
53.812,-57.53
53.828,-63.3
53.843,-66.45
53.859,-65.76
53.875,-60.44
53.890,-50.63
53.906,-37.31
53.921,-22.07
53.937,-6.59
53.953,7.8
53.968,20.35
53.984,30.8
54.000,39.18
54.015,45.51
54.031,49.76
54.046,51.91
54.062,52.08
54.078,50.64
54.093,48.23
54.109,45.54
54.125,43.13
54.140,41.27
54.156,39.87
54.171,38.54
54.187,36.89
54.203,34.63
54.218,31.7
54.234,28.31
54.250,24.7
54.265,21.05
54.281,17.37
54.296,13.53
54.312,9.28
54.328,4.43
54.343,-1.03
54.359,-6.98
54.375,-13.15
54.390,-19.22
54.406,-25.01
54.421,-30.46
54.437,-35.67
54.453,-40.83
54.468,-46.12
54.484,-51.74
54.500,-57.83
54.515,-64.39
54.531,-71.18
54.546,-77.64
54.562,-82.76
54.578,-85.31
54.593,-84.07
54.609,-78.26
54.625,-67.93
54.640,-53.98
54.656,-37.9
54.671,-21.35
54.687,-5.65
54.703,8.44
54.718,20.72
54.734,31.27
54.750,40.23
54.765,47.53
54.781,52.97
54.796,56.35
54.812,57.74
54.828,57.52
54.843,56.35
54.859,54.91
54.875,53.72
54.890,52.98
54.906,52.56
54.921,52.17
54.937,51.51
54.953,50.39
54.968,48.81
54.984,46.84
55.000,44.51
55.015,41.79
55.031,38.61
55.046,34.84
55.062,30.5
55.078,25.68
55.093,20.5
55.109,15.13
55.125,9.67
55.140,4.17
55.156,-1.41
55.171,-7.14
55.187,-13.12
55.203,-19.41
55.218,-26.07
55.234,-33.21
55.250,-40.93
55.265,-49.28
55.281,-58.16
55.296,-67.09
55.312,-75.1
55.328,-80.85
55.343,-82.94
55.359,-80.36
55.375,-72.94
55.390,-61.41
55.406,-47.19
55.421,-31.93
55.437,-16.94
55.453,-3.02
55.468,9.58
55.484,20.88
55.500,30.84
55.515,39.27
55.531,45.85
55.546,50.34
55.562,52.72
55.578,53.33
55.593,52.6
55.609,51.05
55.625,49.08
55.640,46.96
55.656,44.87
55.671,42.92
55.687,41.12
55.703,39.45
55.718,37.79
55.734,35.99
55.750,33.85
55.765,31.28
55.781,28.18
55.796,24.49
55.812,20.13
55.828,15.05
55.843,9.26
55.859,2.93
55.875,-3.59
55.890,-9.88
55.906,-15.56
55.921,-20.48
55.937,-24.81
55.953,-28.9
55.968,-33.19
55.984,-38.06
56.000,-43.68
56.015,-50.05
56.031,-57.03
56.046,-64.25
56.062,-71.09
56.078,-76.5
56.093,-79.19
56.109,-77.86
56.125,-71.74
56.140,-60.91
56.156,-46.43
56.171,-30.03
56.187,-13.53
56.203,1.67
56.218,14.9
56.234,26.19
56.250,35.85
56.265,44.14
56.281,51.03
56.296,56.24
56.312,59.48
56.328,60.63
56.343,59.93
56.359,57.92
56.375,55.28
56.390,52.64
56.406,50.33
56.421,48.39
56.437,46.63
56.453,44.82
56.468,42.82
56.484,40.66
56.500,38.49
56.515,36.41
56.531,34.38
56.546,32.16
56.562,29.4
56.578,25.85
56.593,21.44
56.609,16.4
56.625,11.12
56.640,6.06
56.656,1.54
56.671,-2.35
56.687,-5.76
56.703,-8.95
56.718,-12.24
56.734,-15.98
56.750,-20.45
56.765,-25.87
56.781,-32.28
56.796,-39.36
56.812,-46.32
56.828,-51.92
56.843,-54.69
56.859,-53.34
56.875,-47.26
56.890,-36.78
56.906,-23.14
56.921,-8.17
56.937,6.3
56.953,18.98
56.968,29.3
56.984,37.38
57.000,43.62
57.015,48.4
57.031,51.8
57.046,53.73
57.062,54.12
57.078,53.14
57.093,51.19
57.109,48.82
57.125,46.47
57.140,44.29
57.156,42.19
57.171,39.96
57.187,37.39
57.203,34.41
57.218,31.06
57.234,27.5
57.250,23.9
57.265,20.39
57.281,17.08
57.296,13.83
57.312,10.45
57.328,6.59
57.343,1.96
57.359,-3.61
57.375,-10.01
57.390,-17.01
57.406,-24.26
57.421,-31.38
57.437,-38.1
57.453,-44.21
57.468,-49.67
57.484,-54.62
57.500,-59.32
57.515,-64.24
57.531,-69.78
57.546,-76.13
57.562,-82.95
57.578,-89.37
57.593,-93.9
57.609,-94.86
57.625,-90.8
57.640,-81.03
57.656,-65.91
57.671,-46.81
57.687,-25.76
57.703,-4.86
57.718,14.25
57.734,30.72
57.750,44.36
57.765,55.36
57.781,64.03
57.796,70.54
57.812,74.94
57.828,77.27
57.843,77.73
57.859,76.58
57.875,74.14
57.890,70.62
57.906,66.05
57.921,60.35
57.937,53.46
57.953,45.48
57.968,36.75
57.984,27.79
58.000,19.15
58.015,11.37
58.031,4.84
58.046,-0.21
58.062,-3.76
58.078,-6.03
58.093,-7.47
58.109,-8.63
58.125,-9.97
58.140,-11.71
58.156,-13.71
58.171,-15.62
58.187,-17.05
58.203,-17.87
58.218,-18.4
58.234,-19.18
58.250,-20.88
58.265,-24.09
58.281,-29.22
58.296,-36.59
58.312,-46.36
58.328,-58.4
58.343,-71.96
58.359,-85.63
58.375,-97.29
58.390,-104.71
58.406,-106.21
58.421,-101.23
58.437,-90.55
58.453,-75.86
58.468,-59.13
58.484,-41.91
58.500,-25.01
58.515,-8.64
58.531,7.17
58.546,22.17
58.562,35.78
58.578,47.3
58.593,56.21
58.609,62.48
58.625,66.51
58.640,68.94
58.656,70.38
58.671,71.12
58.687,71.2
58.703,70.51
58.718,68.95
58.734,66.6
58.750,63.7
58.765,60.53
58.781,57.32
58.796,54.27
58.812,51.35
58.828,48.5
58.843,45.59
58.859,42.49
58.875,39.04
58.890,35.16
58.906,30.81
58.921,26.05
58.937,21.1
58.953,16.16
58.968,11.42
58.984,6.88
59.000,2.43
59.015,-2.25
59.031,-7.47
59.046,-13.56
59.062,-20.67
59.078,-28.7
59.093,-37.31
59.109,-45.67
59.125,-52.62
59.140,-56.82
59.156,-57.1
59.171,-52.84
59.187,-44.35
59.203,-32.81
59.218,-19.94
59.234,-7.51
59.250,3.26
59.265,11.9
59.281,18.55
59.296,23.56
59.312,27.13
59.328,29.15
59.343,29.3
59.359,27.44
59.375,23.78
59.390,19.05
59.406,14.19
59.421,10.06
59.437,7.11
59.453,5.31
59.468,4.2
59.484,3.2
59.500,1.89
59.515,0.09
59.531,-2.07
59.546,-4.31
59.562,-6.38
59.578,-8.17
59.593,-9.8
59.609,-11.48
59.625,-13.46
59.640,-15.83
59.656,-18.54
59.671,-21.41
59.687,-24.25
59.703,-26.89
59.718,-29.2
59.734,-31.03
59.750,-32.24
59.765,-32.74
59.781,-32.5
59.796,-31.69
59.812,-30.56
59.828,-29.28
59.843,-27.67
59.859,-25.06
59.875,-20.33
59.890,-12.22
59.906,0.21
59.921,17.22
59.937,38.32
59.953,62.39
59.968,88.05
59.984,114.05
