timestamp,value
00.000,-92.64
00.015,-93.53
00.031,-92.18
00.046,-89.05
00.062,-84.78
00.078,-79.97
00.093,-74.89
00.109,-69.46
00.125,-63.27
00.140,-55.79
00.156,-46.74
00.171,-36.34
00.187,-25.37
00.203,-15.11
00.218,-6.79
00.234,-1.18
00.250,1.74
00.265,2.78
00.281,3.2
00.296,4.11
00.312,6.1
00.328,9.05
00.343,12.32
00.359,15.14
00.375,17.03
00.390,17.88
00.406,17.74
00.421,16.75
00.437,14.91
00.453,12.18
00.468,8.6
00.484,4.49
00.500,0.32
00.515,-3.37
00.531,-6.18
00.546,-8.0
00.562,-8.99
00.578,-9.44
00.593,-9.65
00.609,-9.78
00.625,-9.9
00.640,-9.96
00.656,-9.85
00.671,-9.42
00.687,-8.38
00.703,-6.48
00.718,-3.46
00.734,0.68
00.750,5.68
00.765,10.99
00.781,15.88
00.796,19.61
00.812,21.58
00.828,21.57
00.843,19.76
00.859,16.63
00.875,12.87
00.890,9.08
00.906,5.7
00.921,2.84
00.937,0.45
00.953,-1.59
00.968,-3.37
00.984,-4.86
01.000,-6.1
01.015,-7.16
01.031,-8.38
01.046,-10.14
01.062,-12.86
01.078,-16.8
01.093,-21.98
01.109,-28.23
01.125,-35.29
01.140,-42.92
01.156,-50.85
01.171,-58.83
01.187,-66.47
01.203,-73.24
01.218,-78.57
01.234,-81.94
01.250,-83.08
01.265,-82.02
01.281,-79.17
01.296,-75.14
01.312,-70.5
01.328,-65.69
01.343,-60.8
01.359,-55.71
01.375,-50.28
01.390,-44.52
01.406,-38.64
01.421,-33.07
01.437,-28.18
01.453,-24.2
01.468,-21.05
01.484,-18.45
01.500,-16.17
01.515,-14.06
01.531,-12.21
01.546,-10.77
01.562,-9.86
01.578,-9.42
01.593,-9.22
01.609,-9.01
01.625,-8.65
01.640,-8.19
01.656,-7.79
01.671,-7.57
01.687,-7.47
01.703,-7.12
01.718,-6.04
01.734,-3.78
01.750,-0.24
01.765,4.34
01.781,9.43
01.796,14.48
01.812,19.05
01.828,23.04
01.843,26.52
01.859,29.62
01.875,32.43
01.890,34.87
01.906,36.78
01.921,38.07
01.937,38.86
01.953,39.36
01.968,39.97
01.984,40.96
02.000,42.38
02.015,44.09
02.031,45.72
02.046,46.89
02.062,47.29
02.078,46.77
02.093,45.33
02.109,43.1
02.125,40.2
02.140,36.71
02.156,32.72
02.171,28.27
02.187,23.44
02.203,18.38
02.218,13.23
02.234,8.17
02.250,3.35
02.265,-1.17
02.281,-5.39
02.296,-9.22
02.312,-12.56
02.328,-15.23
02.343,-17.05
02.359,-17.97
02.375,-18.17
02.390,-18.09
02.406,-18.32
02.421,-19.38
02.437,-21.47
02.453,-24.34
02.468,-27.31
02.484,-29.48
02.500,-30.01
02.515,-28.45
02.531,-24.86
02.546,-19.73
02.562,-13.77
02.578,-7.6
02.593,-1.62
02.609,4.09
02.625,9.6
02.640,14.99
02.656,20.17
02.671,24.99
02.687,29.22
02.703,32.71
02.718,35.48
02.734,37.73
02.750,39.76
02.765,41.87
02.781,44.25
02.796,46.91
02.812,49.71
02.828,52.39
02.843,54.51
02.859,55.63
02.875,55.37
02.890,53.53
02.906,50.16
02.921,45.52
02.937,39.87
02.953,33.46
02.968,26.47
02.984,18.96
03.000,11.1
03.015,3.2
03.031,-4.25
03.046,-10.68
03.062,-15.63
03.078,-18.92
03.093,-20.66
03.109,-21.38
03.125,-21.85
03.140,-22.97
03.156,-25.54
03.171,-30.03
03.187,-36.36
03.203,-43.82
03.218,-51.24
03.234,-57.24
03.250,-60.66
03.265,-60.86
03.281,-57.9
03.296,-52.44
03.312,-45.53
03.328,-38.14
03.343,-30.96
03.359,-24.18
03.375,-17.63
03.390,-10.98
03.406,-4.07
03.421,3.02
03.437,9.8
03.453,15.65
03.468,20.02
03.484,22.7
03.500,23.84
03.515,23.96
03.531,23.7
03.546,23.66
03.562,24.17
03.578,25.19
03.593,26.45
03.609,27.5
03.625,27.88
03.640,27.11
03.656,24.77
03.671,20.47
03.687,14.02
03.703,5.51
03.718,-4.62
03.734,-15.55
03.750,-26.3
03.765,-35.92
03.781,-43.72
03.796,-49.32
03.812,-52.67
03.828,-53.91
03.843,-53.29
03.859,-51.12
03.875,-47.78
03.890,-43.73
03.906,-39.53
03.921,-35.71
03.937,-32.73
03.953,-30.93
03.968,-30.4
03.984,-31.03
04.000,-32.46
04.015,-34.14
04.031,-35.47
04.046,-35.94
04.062,-35.19
04.078,-33.13
04.093,-29.78
04.109,-25.3
04.125,-19.96
04.140,-14.01
04.156,-7.76
04.171,-1.49
04.187,4.6
04.203,10.41
04.218,15.91
04.234,21.14
04.250,26.02
04.265,30.31
04.281,33.67
04.296,35.77
04.312,36.45
04.328,35.86
04.343,34.34
04.359,32.37
04.375,30.31
04.390,28.33
04.406,26.45
04.421,24.5
04.437,22.32
04.453,19.85
04.468,17.15
04.484,14.4
04.500,11.8
04.515,9.48
04.531,7.51
04.546,5.83
04.562,4.32
04.578,2.85
04.593,1.24
04.609,-0.6
04.625,-2.76
04.640,-5.27
04.656,-8.09
04.671,-11.06
04.687,-13.97
04.703,-16.63
04.718,-18.86
04.734,-20.66
04.750,-22.06
04.765,-23.21
04.781,-24.19
04.796,-25.01
04.812,-25.56
04.828,-25.59
04.843,-24.81
04.859,-22.94
04.875,-19.89
04.890,-15.72
04.906,-10.8
04.921,-5.54
04.937,-0.38
04.953,4.44
04.968,8.85
04.984,12.88
05.000,16.52
05.015,19.65
05.031,22.0
05.046,23.24
05.062,23.17
05.078,21.82
05.093,19.43
05.109,16.39
05.125,13.09
05.140,9.88
05.156,6.98
05.171,4.59
05.187,2.84
05.203,1.79
05.218,1.43
05.234,1.6
05.250,2.11
05.265,2.7
05.281,3.26
05.296,3.7
05.312,4.09
05.328,4.48
05.343,4.92
05.359,5.44
05.375,6.03
05.390,6.66
05.406,7.24
05.421,7.6
05.437,7.54
05.453,6.82
05.468,5.31
05.484,2.95
05.500,-0.18
05.515,-3.99
05.531,-8.35
05.546,-13.1
05.562,-18.04
05.578,-22.82
05.593,-26.95
05.609,-29.87
05.625,-31.11
05.640,-30.35
05.656,-27.56
05.671,-23.0
05.687,-17.09
05.703,-10.44
05.718,-3.66
05.734,2.7
05.750,8.21
05.765,12.49
05.781,15.38
05.796,16.78
05.812,16.74
05.828,15.49
05.843,13.45
05.859,11.2
05.875,9.4
05.890,8.61
05.906,9.08
05.921,10.75
05.937,13.19
05.953,15.89
05.968,18.39
05.984,20.42
06.000,21.87
06.015,22.76
06.031,23.12
06.046,22.95
06.062,22.3
06.078,21.23
06.093,19.83
06.109,18.21
06.125,16.28
06.140,13.9
06.156,10.87
06.171,7.13
06.187,2.88
06.203,-1.51
06.218,-5.67
06.234,-9.32
06.250,-12.48
06.265,-15.36
06.281,-18.22
06.296,-21.29
06.312,-24.55
06.328,-27.77
06.343,-30.53
06.359,-32.31
06.375,-32.59
06.390,-31.02
06.406,-27.52
06.421,-22.25
06.437,-15.66
06.453,-8.31
06.468,-0.73
06.484,6.64
06.500,13.54
06.515,19.89
06.531,25.6
06.546,30.57
06.562,34.72
06.578,37.95
06.593,40.24
06.609,41.62
06.625,42.21
06.640,42.08
06.656,41.4
06.671,40.23
06.687,38.6
06.703,36.57
06.718,34.19
06.734,31.55
06.750,28.73
06.765,25.81
06.781,22.79
06.796,19.65
06.812,16.29
06.828,12.62
06.843,8.5
06.859,3.84
06.875,-1.38
06.890,-7.1
06.906,-13.14
06.921,-19.28
06.937,-25.22
06.953,-30.76
06.968,-35.74
06.984,-40.04
07.000,-43.7
07.015,-46.75
07.031,-49.24
07.046,-51.19
07.062,-52.56
07.078,-53.21
07.093,-52.94
07.109,-51.58
07.125,-49.01
07.140,-45.27
07.156,-40.49
07.171,-34.92
07.187,-28.81
07.203,-22.45
07.218,-16.1
07.234,-10.02
07.250,-4.47
07.265,0.39
07.281,4.49
07.296,7.94
07.312,10.91
07.328,13.61
07.343,16.24
07.359,18.85
07.375,21.35
07.390,23.56
07.406,25.28
07.421,26.35
07.437,26.74
07.453,26.58
07.468,26.0
07.484,25.26
07.500,24.46
07.515,23.67
07.531,22.88
07.546,22.01
07.562,20.88
07.578,19.36
07.593,17.37
07.609,14.94
07.625,12.25
07.640,9.54
07.656,7.0
07.671,4.71
07.687,2.57
07.703,0.38
07.718,-2.12
07.734,-5.08
07.750,-8.52
07.765,-12.27
07.781,-16.06
07.796,-19.5
07.812,-22.23
07.828,-24.03
07.843,-24.91
07.859,-25.19
07.875,-25.46
07.890,-26.33
07.906,-28.16
07.921,-30.86
07.937,-33.99
07.953,-36.7
07.968,-38.23
07.984,-38.05
08.000,-35.98
08.015,-32.24
08.031,-27.27
08.046,-21.6
08.062,-15.7
08.078,-9.98
08.093,-4.67
08.109,0.08
08.125,4.18
08.140,7.58
08.156,10.31
08.171,12.47
08.187,14.2
08.203,15.7
08.218,17.11
08.234,18.51
08.250,19.82
08.265,20.78
08.281,21.06
08.296,20.38
08.312,18.67
08.328,16.13
08.343,13.21
08.359,10.46
08.375,8.42
08.390,7.35
08.406,7.23
08.421,7.8
08.437,8.57
08.453,9.1
08.468,9.02
08.484,8.21
08.500,6.63
08.515,4.37
08.531,1.42
08.546,-2.24
08.562,-6.61
08.578,-11.7
08.593,-17.37
08.609,-23.42
08.625,-29.63
08.640,-35.84
08.656,-41.96
08.671,-47.87
08.687,-53.28
08.703,-57.67
08.718,-60.4
08.734,-60.87
08.750,-58.76
08.765,-54.19
08.781,-47.77
08.796,-40.38
08.812,-32.9
08.828,-25.97
08.843,-19.86
08.859,-14.59
08.875,-9.98
08.890,-5.98
08.906,-2.6
08.921,-0.01
08.937,1.67
08.953,2.41
08.968,2.31
08.984,1.56
09.000,0.37
09.015,-1.04
09.031,-2.44
09.046,-3.51
09.062,-4.0
09.078,-3.7
09.093,-2.59
09.109,-0.9
09.125,0.98
09.140,2.64
09.156,3.78
09.171,4.27
09.187,4.13
09.203,3.48
09.218,2.43
09.234,1.16
09.250,-0.17
09.265,-1.38
09.281,-2.26
09.296,-2.74
09.312,-2.82
09.328,-2.69
09.343,-2.58
09.359,-2.73
09.375,-3.21
09.390,-4.06
09.406,-5.05
09.421,-5.84
09.437,-6.01
09.453,-5.12
09.468,-2.85
09.484,0.88
09.500,5.89
09.515,11.82
09.531,18.1
09.546,24.3
09.562,30.06
09.578,35.17
09.593,39.53
09.609,43.03
09.625,45.44
09.640,46.54
09.656,46.13
09.671,44.27
09.687,41.26
09.703,37.74
09.718,34.42
09.734,32.02
09.750,30.99
09.765,31.42
09.781,33.0
09.796,35.06
09.812,36.74
09.828,37.21
09.843,35.83
09.859,32.38
09.875,27.14
09.890,20.75
09.906,13.99
09.921,7.63
09.937,2.14
09.953,-2.3
09.968,-5.71
09.984,-8.17
10.000,-9.72
10.015,-10.31
10.031,-9.92
10.046,-8.68
10.062,-6.85
10.078,-4.83
10.093,-3.07
10.109,-1.92
10.125,-1.6
10.140,-2.17
10.156,-3.54
10.171,-5.45
10.187,-7.55
10.203,-9.35
10.218,-10.4
10.234,-10.39
10.250,-9.27
10.265,-7.22
10.281,-4.65
10.296,-1.94
10.312,0.7
10.328,3.29
10.343,5.97
10.359,8.8
10.375,11.68
10.390,14.34
10.406,16.43
10.421,17.69
10.437,18.09
10.453,17.8
10.468,17.1
10.484,16.27
10.500,15.52
10.515,14.96
10.531,14.65
10.546,14.62
10.562,14.86
10.578,15.33
10.593,16.0
10.609,16.85
10.625,17.93
10.640,19.29
10.656,20.9
10.671,22.55
10.687,23.87
10.703,24.37
10.718,23.65
10.734,21.53
10.750,18.05
10.765,13.46
10.781,8.09
10.796,2.27
10.812,-3.71
10.828,-9.48
10.843,-14.76
10.859,-19.3
10.875,-22.98
10.890,-25.79
10.906,-27.87
10.921,-29.31
10.937,-30.13
10.953,-30.17
10.968,-29.16
10.984,-26.9
11.000,-23.33
11.015,-18.7
11.031,-13.42
11.046,-7.94
11.062,-2.66
11.078,2.18
11.093,6.52
11.109,10.37
11.125,13.69
11.140,16.4
11.156,18.34
11.171,19.37
11.187,19.47
11.203,18.74
11.218,17.37
11.234,15.57
11.250,13.56
11.265,11.45
11.281,9.35
11.296,7.34
11.312,5.48
11.328,3.82
11.343,2.46
11.359,1.42
11.375,0.62
11.406,-0.61
11.421,-1.36
11.437,-2.26
11.453,-3.29
11.468,-4.36
11.484,-5.36
11.500,-6.25
11.515,-7.09
11.531,-7.99
11.546,-9.03
11.562,-10.24
11.578,-11.52
11.593,-12.79
11.609,-13.97
11.625,-15.17
11.640,-16.61
11.656,-18.47
11.671,-20.81
11.687,-23.4
11.703,-25.72
11.718,-27.12
11.734,-27.06
11.750,-25.21
11.765,-21.58
11.781,-16.52
11.796,-10.61
11.812,-4.52
11.828,1.12
11.843,5.87
11.859,9.51
11.875,12.0
11.890,13.46
11.906,14.07
11.921,14.01
11.937,13.48
11.953,12.66
11.968,11.68
11.984,10.61
12.000,9.47
12.015,8.19
12.031,6.72
12.046,5.09
12.062,3.37
12.078,1.67
12.093,0.06
12.109,-1.47
12.125,-3.04
12.140,-4.83
12.156,-7.0
12.171,-9.63
12.187,-12.71
12.203,-16.12
12.218,-19.65
12.234,-23.07
12.250,-26.18
12.265,-28.84
12.281,-31.01
12.296,-32.64
12.312,-33.74
12.328,-34.33
12.343,-34.53
12.359,-34.45
12.375,-34.27
12.390,-34.13
12.406,-34.19
12.421,-34.6
12.437,-35.42
12.453,-36.71
12.468,-38.41
12.484,-40.37
12.500,-42.29
12.515,-43.77
12.531,-44.33
12.546,-43.59
12.562,-41.35
12.578,-37.6
12.593,-32.59
12.609,-26.75
12.625,-20.48
12.640,-14.2
12.656,-8.21
12.671,-2.61
12.687,2.51
12.703,7.15
12.718,11.25
12.734,14.74
12.750,17.55
12.765,19.78
12.781,21.54
12.796,23.01
12.812,24.29
12.828,25.35
12.843,26.14
12.859,26.57
12.875,26.66
12.890,26.52
12.906,26.3
12.921,26.02
12.937,25.63
12.953,24.96
12.968,23.89
12.984,22.43
13.000,20.75
13.015,19.1
13.031,17.66
13.046,16.49
13.062,15.47
13.078,14.41
13.093,13.11
13.109,11.43
13.125,9.4
13.140,7.1
13.156,4.66
13.171,2.2
13.187,-0.24
13.203,-2.67
13.218,-5.14
13.234,-7.64
13.250,-10.15
13.265,-12.47
13.281,-14.36
13.296,-15.48
13.312,-15.5
13.328,-14.22
13.343,-11.53
13.359,-7.54
13.375,-2.48
13.390,3.21
13.406,9.09
13.421,14.65
13.437,19.55
13.453,23.65
13.468,26.94
13.484,29.56
13.500,31.6
13.515,33.1
13.531,33.89
13.546,33.81
13.562,32.75
13.578,30.84
13.593,28.46
13.609,26.05
13.625,24.09
13.640,22.78
13.656,22.16
13.671,21.99
13.687,22.02
13.703,22.01
13.718,21.83
13.734,21.44
13.750,20.8
13.765,19.96
13.781,18.87
13.796,17.59
13.812,16.2
13.828,14.82
13.843,13.57
13.859,12.51
13.875,11.65
13.890,10.82
13.906,9.94
13.921,8.91
13.937,7.79
13.953,6.73
13.968,5.87
13.984,5.31
14.000,4.89
14.015,4.41
14.031,3.54
14.046,2.18
14.062,0.39
14.078,-1.5
14.093,-3.13
14.109,-4.28
14.125,-4.93
14.140,-5.32
14.156,-5.7
14.171,-6.27
14.187,-6.95
14.203,-7.53
14.218,-7.74
14.234,-7.49
14.250,-6.87
14.265,-6.18
14.281,-5.79
14.296,-5.93
14.312,-6.68
14.328,-7.84
14.343,-9.15
14.359,-10.38
14.375,-11.4
14.390,-12.23
14.406,-12.99
14.421,-13.85
14.437,-14.88
14.453,-16.15
14.468,-17.55
14.484,-18.91
14.500,-20.05
14.515,-20.81
14.531,-21.14
14.546,-21.12
14.562,-20.96
14.578,-20.93
14.593,-21.32
14.609,-22.28
14.625,-23.8
14.640,-25.57
14.656,-27.1
14.671,-27.83
14.687,-27.33
14.703,-25.51
14.718,-22.73
14.734,-19.82
14.750,-17.72
14.765,-17.27
14.781,-18.85
14.796,-22.26
14.812,-26.79
14.828,-31.42
14.843,-35.11
14.859,-37.05
14.875,-36.81
14.890,-34.31
14.906,-29.88
14.921,-23.99
14.937,-17.23
14.953,-10.13
14.968,-3.15
14.984,3.34
15.000,9.04
15.015,13.77
15.031,17.4
15.046,19.92
15.062,21.46
15.078,22.27
15.093,22.64
15.109,22.83
15.125,22.95
15.140,23.01
15.156,22.84
15.171,22.29
15.187,21.2
15.203,19.47
15.218,17.1
15.234,14.09
15.250,10.44
15.265,6.15
15.281,1.24
15.296,-4.17
15.312,-9.82
15.328,-15.32
15.343,-20.23
15.359,-24.17
15.375,-26.93
15.390,-28.45
15.406,-28.9
15.421,-28.48
15.437,-27.43
15.453,-25.98
15.468,-24.29
15.484,-22.58
15.500,-21.06
15.515,-19.99
15.531,-19.48
15.546,-19.56
15.562,-20.03
15.578,-20.59
15.593,-20.8
15.609,-20.24
15.625,-18.6
15.640,-15.76
15.656,-11.88
15.671,-7.36
15.687,-2.74
15.703,1.42
15.718,4.65
15.734,6.75
15.750,7.75
15.765,7.79
15.781,6.99
15.796,5.43
15.812,3.2
15.828,0.56
15.843,-2.03
15.859,-4.02
15.875,-4.95
15.890,-4.75
15.906,-3.79
15.921,-2.81
15.937,-2.53
15.953,-3.36
15.968,-5.24
15.984,-7.64
16.000,-9.9
16.015,-11.5
16.031,-12.22
16.046,-12.17
16.062,-11.62
16.078,-10.86
16.093,-10.09
16.109,-9.39
16.125,-8.79
16.140,-8.33
16.156,-8.11
16.171,-8.33
16.187,-9.1
16.203,-10.42
16.218,-12.17
16.234,-14.1
16.250,-15.96
16.265,-17.54
16.281,-18.67
16.296,-19.16
16.312,-18.87
16.328,-17.57
16.343,-15.12
16.359,-11.61
16.375,-7.3
16.390,-2.63
16.406,1.97
16.421,6.28
16.437,10.33
16.453,14.33
16.468,18.46
16.484,22.66
16.500,26.61
16.515,29.88
16.531,32.1
16.546,33.16
16.562,33.27
16.578,32.79
16.593,32.11
16.609,31.49
16.625,30.95
16.640,30.36
16.656,29.52
16.671,28.23
16.687,26.34
16.703,23.79
16.718,20.66
16.734,17.26
16.750,14.18
16.765,12.25
16.781,12.33
16.796,14.97
16.812,20.14
16.828,27.01
16.843,34.11
16.859,39.66
16.875,42.12
16.890,40.57
16.906,35.0
16.921,26.17
16.937,15.34
16.953,3.94
16.968,-6.65
16.984,-15.26
17.000,-20.96
17.015,-23.24
17.031,-21.94
17.046,-17.45
17.062,-10.62
17.078,-2.62
17.093,5.29
17.109,12.1
17.125,17.16
17.140,20.33
17.156,21.82
17.171,22.09
17.187,21.65
17.203,20.89
17.218,19.98
17.234,18.89
17.250,17.34
17.265,15.1
17.281,12.05
17.296,8.3
17.312,4.17
17.328,0.05
17.343,-3.71
17.359,-6.86
17.375,-9.27
17.390,-10.91
17.406,-11.8
17.421,-11.9
17.437,-11.32
17.453,-10.21
17.468,-8.84
17.484,-7.48
17.500,-6.31
17.515,-5.33
17.531,-4.41
17.546,-3.36
17.562,-2.06
17.578,-0.61
17.593,0.71
17.609,1.51
17.625,1.42
17.640,0.28
17.656,-1.74
17.671,-4.12
17.687,-6.13
17.703,-6.98
17.718,-6.16
17.734,-3.47
17.750,0.9
17.765,6.46
17.781,12.66
17.796,18.99
17.812,25.05
17.828,30.56
17.843,35.34
17.859,39.15
17.875,41.84
17.890,43.29
17.906,43.42
17.921,42.31
17.937,40.04
17.953,36.75
17.968,32.64
17.984,27.98
18.000,23.06
18.015,18.21
18.031,13.73
18.046,9.86
18.062,6.74
18.078,4.39
18.093,2.71
18.109,1.5
18.125,0.51
18.140,-0.58
18.156,-2.03
18.171,-4.01
18.187,-6.57
18.203,-9.55
18.218,-12.76
18.234,-15.97
18.250,-19.01
18.265,-21.86
18.281,-24.54
18.296,-27.08
18.312,-29.56
18.328,-31.99
18.343,-34.4
18.359,-36.88
18.375,-39.46
18.390,-42.16
18.406,-44.84
18.421,-47.18
18.437,-48.65
18.453,-48.66
18.468,-46.64
18.484,-42.26
18.500,-35.5
18.515,-26.72
18.531,-16.52
18.546,-5.62
18.562,5.27
18.578,15.64
18.593,25.16
18.609,33.62
18.625,40.94
18.640,47.01
18.656,51.64
18.671,54.63
18.687,55.8
18.703,55.08
18.718,52.5
18.734,48.26
18.750,42.67
18.765,36.12
18.781,28.98
18.796,21.58
18.812,14.18
18.828,6.94
18.843,0.03
18.859,-6.42
18.875,-12.21
18.890,-17.07
18.906,-20.76
18.921,-23.16
18.937,-24.39
18.953,-24.83
18.968,-25.03
18.984,-25.66
19.000,-27.18
19.015,-29.79
19.031,-33.21
19.046,-36.74
19.062,-39.52
19.078,-40.74
19.093,-39.88
19.109,-36.85
19.125,-31.9
19.140,-25.63
19.156,-18.74
19.171,-12.01
19.187,-6.15
19.203,-1.69
19.218,1.08
19.234,2.22
19.250,2.07
19.265,1.24
19.281,0.38
19.296,0.02
19.312,0.45
19.328,1.72
19.343,3.71
19.359,6.13
19.375,8.69
19.390,11.05
19.406,12.99
19.421,14.37
19.437,15.21
19.453,15.65
19.468,15.87
19.484,16.03
19.500,16.16
19.515,16.13
19.531,15.76
19.546,14.94
19.562,13.6
19.578,11.8
19.593,9.68
19.609,7.33
19.625,4.84
19.640,2.31
19.656,-0.05
19.671,-1.94
19.687,-3.01
19.703,-3.08
19.718,-2.23
19.734,-0.71
19.750,1.08
19.765,2.8
19.781,4.27
19.796,5.53
19.812,6.67
19.828,7.81
19.843,9.01
19.859,10.19
19.875,11.2
19.890,11.82
19.906,11.83
19.921,11.01
19.937,9.23
19.953,6.38
19.968,2.46
19.984,-2.41
20.000,-7.97
20.015,-13.74
20.031,-19.07
20.046,-23.13
20.062,-25.09
20.078,-24.46
20.093,-21.14
20.109,-15.51
20.125,-8.34
20.140,-0.52
20.156,7.2
20.171,14.31
20.187,20.58
20.203,26.01
20.218,30.53
20.234,34.01
20.250,36.15
20.265,36.72
20.281,35.64
20.296,33.16
20.312,29.86
20.328,26.48
20.343,23.65
20.359,21.76
20.375,20.84
20.390,20.63
20.406,20.81
20.421,21.14
20.437,21.51
20.453,21.89
20.468,22.23
20.484,22.3
20.500,21.83
20.515,20.53
20.531,18.26
20.546,15.06
20.562,11.22
20.578,7.05
20.593,2.88
20.609,-1.13
20.625,-4.85
20.640,-8.23
20.656,-11.17
20.671,-13.61
20.687,-15.64
20.703,-17.53
20.718,-19.71
20.734,-22.57
20.750,-26.26
20.765,-30.61
20.781,-35.07
20.796,-39.0
20.812,-41.82
20.828,-43.21
20.843,-43.1
20.859,-41.62
20.875,-38.96
20.890,-35.38
20.906,-31.17
20.921,-26.57
20.937,-21.85
20.953,-17.1
20.968,-12.37
20.984,-7.65
21.000,-3.05
21.015,1.24
21.031,4.95
21.046,7.87
21.062,9.9
21.078,11.1
21.093,11.64
21.109,11.65
21.125,11.23
21.140,10.42
21.156,9.3
21.171,8.04
21.187,6.86
21.203,5.97
21.218,5.46
21.234,5.31
21.250,5.37
21.265,5.51
21.281,5.69
21.296,5.97
21.312,6.42
21.328,6.99
21.343,7.45
21.359,7.43
21.375,6.63
21.390,4.89
21.406,2.33
21.421,-0.71
21.437,-3.85
21.453,-6.8
21.468,-9.55
21.484,-12.29
21.500,-15.3
21.515,-18.7
21.531,-22.44
21.546,-26.3
21.562,-29.96
21.578,-33.13
21.593,-35.51
21.609,-36.87
21.625,-36.89
21.640,-35.19
21.656,-31.47
21.671,-25.65
21.687,-18.07
21.703,-9.48
21.718,-0.9
21.734,6.79
21.750,13.09
21.765,18.09
21.781,22.23
21.796,25.96
21.812,29.54
21.828,32.81
21.843,35.43
21.859,37.07
21.875,37.68
21.890,37.53
21.906,37.04
21.921,36.45
21.937,35.75
21.953,34.75
21.968,33.2
21.984,31.06
22.000,28.59
22.015,26.13
22.031,24.02
22.046,22.33
22.062,20.76
22.078,18.81
22.093,16.04
22.109,12.31
22.125,7.84
22.140,3.16
22.156,-1.24
22.171,-5.06
22.187,-8.32
22.203,-11.25
22.218,-14.16
22.234,-17.23
22.250,-20.47
22.265,-23.74
22.281,-26.82
22.296,-29.58
22.312,-31.9
22.328,-33.72
22.343,-35.0
22.359,-35.68
22.375,-35.66
22.390,-34.92
22.406,-33.42
22.421,-31.18
22.437,-28.27
22.453,-24.67
22.468,-20.31
22.484,-15.12
22.500,-8.94
22.515,-1.72
22.531,6.35
22.546,14.83
22.562,23.07
22.578,30.34
22.593,36.1
22.609,40.2
22.625,42.8
22.640,44.32
22.656,45.18
22.671,45.65
22.687,45.79
22.703,45.36
22.718,43.92
22.734,40.86
22.750,35.63
22.765,27.87
22.781,17.74
22.796,5.96
22.812,-6.24
22.828,-17.44
22.843,-26.47
22.859,-32.72
22.875,-36.17
22.890,-37.33
22.906,-36.83
22.921,-35.25
22.937,-33.01
22.953,-30.43
22.968,-27.78
22.984,-25.33
23.000,-23.35
23.015,-21.99
23.031,-21.36
23.046,-21.46
23.062,-22.2
23.078,-23.4
23.093,-24.81
23.109,-26.16
23.125,-27.13
23.140,-27.57
23.156,-27.44
23.171,-26.88
23.187,-26.18
23.203,-25.56
23.218,-25.2
23.234,-25.15
23.250,-25.33
23.265,-25.6
23.281,-25.75
23.296,-25.49
23.312,-24.53
23.328,-22.55
23.343,-19.37
23.359,-15.0
23.375,-9.7
23.390,-3.94
23.406,1.78
23.421,7.02
23.437,11.56
23.453,15.39
23.468,18.62
23.484,21.41
23.500,23.81
23.515,25.77
23.531,27.19
23.546,27.95
23.562,27.96
23.578,27.17
23.593,25.62
23.609,23.38
23.625,20.64
23.640,17.67
23.656,14.73
23.671,12.09
23.687,9.84
23.703,7.97
23.718,6.42
23.734,5.1
23.750,3.99
23.765,3.15
23.781,2.72
23.796,2.74
23.812,3.2
23.828,3.9
23.843,4.55
23.859,4.96
23.875,4.98
23.890,4.57
23.906,3.89
23.921,3.02
23.937,2.02
23.953,0.89
23.968,-0.42
23.984,-1.92
24.000,-3.55
24.015,-5.28
24.031,-7.14
24.046,-9.26
24.062,-11.78
24.078,-14.69
24.093,-17.73
24.109,-20.36
24.125,-21.94
24.140,-21.83
24.156,-19.65
24.171,-15.33
24.187,-9.16
24.203,-1.65
24.218,6.55
24.234,14.75
24.250,22.35
24.265,28.87
24.281,33.97
24.296,37.46
24.312,39.24
24.328,39.2
24.343,37.21
24.359,33.2
24.375,27.26
24.390,19.73
24.406,11.32
24.421,2.96
24.437,-4.35
24.453,-9.85
24.468,-13.11
24.484,-14.14
24.500,-13.26
24.515,-11.01
24.531,-7.93
24.546,-4.51
24.562,-1.09
24.578,2.13
24.593,5.04
24.609,7.55
24.625,9.55
24.640,10.95
24.656,11.69
24.671,11.76
24.687,11.21
24.703,10.05
24.718,8.35
24.734,6.13
24.750,3.52
24.765,0.6
24.781,-2.47
24.796,-5.56
24.812,-8.54
24.828,-11.36
24.843,-14.06
24.859,-16.74
24.875,-19.52
24.890,-22.53
24.906,-25.77
24.921,-29.15
24.937,-32.41
24.953,-35.1
24.968,-36.78
24.984,-37.1
25.000,-35.91
25.015,-33.3
25.031,-29.52
25.046,-24.98
25.062,-20.12
25.078,-15.32
25.093,-10.89
25.109,-7.04
25.125,-3.84
25.140,-1.25
25.156,0.83
25.171,2.57
25.187,4.08
25.203,5.41
25.218,6.46
25.234,7.12
25.250,7.23
25.265,6.8
25.281,5.98
25.296,5.04
25.312,4.27
25.328,3.92
25.343,4.03
25.359,4.5
25.375,5.15
25.390,5.8
25.406,6.46
25.421,7.29
25.437,8.55
25.453,10.48
25.468,13.19
25.484,16.5
25.500,20.01
25.515,23.21
25.531,25.68
25.546,27.15
25.562,27.69
25.578,27.7
25.593,27.78
25.609,28.56
25.625,30.56
25.640,33.97
25.656,38.47
25.671,43.14
25.687,46.63
25.703,47.46
25.718,44.48
25.734,37.37
25.750,26.74
25.765,14.04
25.781,1.08
25.796,-10.52
25.812,-19.77
25.828,-26.37
25.843,-30.49
25.859,-32.59
25.875,-33.1
25.890,-32.44
25.906,-30.95
25.921,-29.07
25.937,-27.31
25.953,-26.01
25.968,-25.26
25.984,-24.79
26.000,-24.22
26.015,-23.17
26.031,-21.5
26.046,-19.31
26.062,-16.94
26.078,-14.77
26.093,-13.08
26.109,-11.9
26.125,-11.1
26.140,-10.5
26.156,-9.88
26.171,-9.14
26.187,-8.3
26.203,-7.45
26.218,-6.68
26.234,-6.01
26.250,-5.4
26.265,-4.77
26.281,-4.05
26.296,-3.24
26.312,-2.54
26.328,-2.2
26.343,-2.46
26.359,-3.42
26.375,-4.97
26.390,-6.85
26.406,-8.82
26.421,-10.58
26.437,-12.01
26.453,-13.1
26.468,-13.95
26.484,-14.7
26.500,-15.6
26.515,-16.85
26.531,-18.61
26.546,-20.88
26.562,-23.44
26.578,-25.87
26.593,-27.64
26.609,-28.27
26.625,-27.41
26.640,-25.0
26.656,-21.22
26.671,-16.45
26.687,-11.2
26.703,-5.95
26.718,-1.04
26.734,3.31
26.750,7.02
26.765,10.11
26.781,12.62
26.796,14.58
26.812,16.1
26.828,17.31
26.843,18.41
26.859,19.62
26.875,21.04
26.890,22.7
26.906,24.52
26.921,26.39
26.937,28.25
26.953,30.08
26.968,31.84
26.984,33.42
27.000,34.7
27.015,35.46
27.031,35.53
27.046,34.75
27.062,33.04
27.078,30.44
27.093,27.12
27.109,23.35
27.125,19.49
27.140,15.85
27.156,12.53
27.171,9.51
27.187,6.61
27.203,3.66
27.218,0.6
27.234,-2.52
27.250,-5.65
27.265,-8.79
27.281,-12.08
27.296,-15.69
27.312,-19.63
27.328,-23.83
27.343,-28.03
27.359,-31.9
27.375,-35.16
27.390,-37.56
27.406,-38.9
27.421,-38.99
27.437,-37.79
27.453,-35.43
27.468,-32.29
27.484,-28.97
27.500,-25.97
27.515,-23.48
27.531,-21.23
27.546,-18.68
27.562,-15.22
27.578,-10.6
27.593,-4.91
27.609,1.45
27.625,8.0
27.640,14.36
27.656,20.33
27.671,25.84
27.687,30.86
27.703,35.38
27.718,39.31
27.734,42.62
27.750,45.09
27.765,46.37
27.781,45.85
27.796,42.82
27.812,36.77
27.828,27.71
27.843,16.23
27.859,3.45
27.875,-9.37
27.890,-21.04
27.906,-30.78
27.921,-38.21
27.937,-43.32
27.953,-46.38
27.968,-47.74
27.984,-47.77
28.000,-46.8
28.015,-44.99
28.031,-42.41
28.046,-39.11
28.062,-35.16
28.078,-30.72
28.093,-26.0
28.109,-21.21
28.125,-16.47
28.140,-11.88
28.156,-7.5
28.171,-3.41
28.187,0.29
28.203,3.55
28.218,6.43
28.234,9.02
28.250,11.47
28.265,13.85
28.281,16.13
28.296,18.25
28.312,20.1
28.328,21.6
28.343,22.71
28.359,23.29
28.375,23.13
28.390,22.06
28.406,20.05
28.421,17.25
28.437,14.05
28.453,10.86
28.468,8.0
28.484,5.66
28.500,3.84
28.515,2.57
28.531,1.99
28.546,2.35
28.562,3.91
28.578,6.78
28.593,10.85
28.609,15.8
28.625,21.14
28.640,26.35
28.656,30.87
28.671,34.23
28.687,36.07
28.703,36.18
28.718,34.69
28.734,31.88
28.750,28.26
28.765,24.3
28.781,20.29
28.796,16.33
28.812,12.38
28.828,8.32
28.843,4.08
28.859,-0.3
28.875,-4.81
28.890,-9.36
28.906,-13.83
28.921,-18.0
28.937,-21.47
28.953,-23.7
28.968,-24.25
28.984,-22.89
29.000,-19.75
29.015,-15.31
29.031,-10.28
29.046,-5.35
29.062,-1.05
29.078,2.46
29.093,5.22
29.109,7.42
29.125,9.2
29.140,10.63
29.156,11.57
29.171,11.81
29.187,11.09
29.203,9.23
29.218,6.22
29.234,2.24
29.250,-2.31
29.265,-6.91
29.281,-10.99
29.296,-14.11
29.312,-15.99
29.328,-16.61
29.343,-16.13
29.359,-14.83
29.375,-13.06
29.390,-11.17
29.406,-9.38
29.421,-7.88
29.437,-6.76
29.453,-6.01
29.468,-5.53
29.484,-5.22
29.500,-4.93
29.515,-4.62
29.531,-4.32
29.546,-4.12
29.562,-4.22
29.578,-4.77
29.593,-5.95
29.609,-7.78
29.625,-10.2
29.640,-12.97
29.656,-15.81
29.671,-18.3
29.687,-19.97
29.703,-20.39
29.718,-19.27
29.734,-16.5
29.750,-12.22
29.765,-6.78
29.781,-0.65
29.796,5.67
29.812,11.78
29.828,17.44
29.843,22.48
29.859,26.83
29.875,30.43
29.890,33.23
29.906,35.23
29.921,36.5
29.937,37.07
29.953,37.04
29.968,36.45
29.984,35.26
30.000,33.42
30.015,30.94
30.031,27.86
30.046,24.27
30.062,20.34
30.078,16.25
30.093,12.11
30.109,8.03
30.125,4.01
30.140,0.12
30.156,-3.58
30.171,-6.96
30.187,-9.95
30.203,-12.44
30.218,-14.44
30.234,-16.02
30.250,-17.29
30.265,-18.33
30.281,-19.09
30.296,-19.48
30.312,-19.38
30.328,-18.78
30.343,-17.84
30.359,-16.78
30.375,-15.8
30.390,-14.92
30.406,-14.0
30.421,-12.68
30.437,-10.6
30.453,-7.45
30.468,-3.04
30.484,2.72
30.500,9.82
30.515,18.21
30.531,27.66
30.546,37.78
30.562,48.06
30.578,57.99
30.593,67.2
30.609,75.63
30.625,83.4
30.640,90.84
30.656,98.27
30.671,106.03
30.687,114.4
30.703,123.61
30.718,133.82
30.734,145.04
30.750,157.03
30.765,169.37
30.781,181.48
30.796,192.77
30.812,202.75
30.828,211.23
30.843,218.3
30.859,224.33
30.875,229.77
30.890,234.8
30.906,239.12
30.921,241.83
30.937,241.86
30.953,238.41
30.968,231.46
30.984,221.88
31.000,211.16
31.015,200.91
31.031,192.4
31.046,186.4
31.062,183.36
31.078,183.44
31.093,186.48
31.109,191.73
31.125,197.73
31.140,202.47
31.156,204.03
31.171,201.14
31.187,193.51
31.203,181.6
31.218,166.23
31.234,148.08
31.250,127.76
31.265,105.97
31.281,83.76
31.296,62.56
31.312,43.83
31.328,28.55
31.343,16.89
31.359,8.33
31.375,2.02
31.390,-2.76
31.406,-6.37
31.421,-8.85
31.437,-10.18
31.453,-10.47
31.468,-10.1
31.484,-9.51
31.500,-9.18
31.515,-9.32
31.531,-9.91
31.546,-10.73
31.562,-11.54
31.578,-12.32
31.593,-13.4
31.609,-15.43
31.625,-19.21
31.640,-25.43
31.656,-34.41
31.671,-45.97
31.687,-59.5
31.703,-74.17
31.718,-89.18
31.734,-104.0
31.750,-118.39
31.765,-132.45
31.781,-146.42
31.796,-160.73
31.812,-175.79
31.828,-191.75
31.843,-208.15
31.859,-223.74
31.875,-236.71
31.890,-245.41
31.906,-249.1
31.921,-248.66
31.937,-246.4
31.953,-245.37
31.968,-248.3
31.984,-256.56
32.000,-269.78
32.015,-285.97
32.031,-302.36
32.046,-316.17
32.062,-325.22
32.078,-328.28
32.093,-325.17
32.109,-316.61
32.125,-303.9
32.140,-288.63
32.156,-272.25
32.171,-256.0
32.187,-240.65
32.203,-226.43
32.218,-212.98
32.234,-199.52
32.250,-185.21
32.265,-169.64
32.281,-153.21
32.296,-137.02
32.312,-122.41
32.328,-110.19
32.343,-100.23
32.359,-91.49
32.375,-82.69
32.390,-72.97
32.406,-62.19
32.421,-50.76
32.437,-39.14
32.453,-27.36
32.468,-14.95
32.484,-1.4
32.500,13.33
32.515,28.61
32.531,43.44
32.546,56.89
32.562,68.59
32.578,78.83
32.593,88.22
32.609,97.12
32.625,105.18
32.640,111.31
32.656,114.19
32.671,112.86
32.687,107.13
32.703,97.56
32.718,85.1
32.734,70.58
32.750,54.38
32.765,36.63
32.781,17.65
32.796,-1.76
32.812,-20.35
32.828,-36.89
32.843,-50.59
32.859,-61.22
32.875,-68.82
32.890,-73.37
32.906,-74.61
32.921,-72.22
32.937,-66.38
32.953,-58.21
32.968,-49.7
32.984,-43.15
33.000,-40.39
33.015,-42.26
33.031,-48.49
33.046,-58.01
33.062,-69.54
33.078,-81.91
33.093,-94.22
33.109,-105.75
33.125,-115.95
33.140,-124.37
33.156,-130.74
33.171,-134.99
33.187,-137.16
33.203,-137.44
33.218,-136.06
33.234,-133.32
33.250,-129.48
33.265,-124.81
33.281,-119.51
33.296,-113.68
33.312,-107.36
33.328,-100.6
33.343,-93.5
33.359,-86.2
33.375,-78.75
33.390,-71.1
33.406,-63.08
33.421,-54.62
33.437,-45.78
33.453,-37.02
33.468,-29.06
33.484,-22.64
33.500,-18.28
33.515,-15.87
33.531,-14.74
33.546,-13.72
33.562,-11.57
33.578,-7.3
33.593,-0.51
33.609,8.49
33.625,18.92
33.640,29.78
33.656,40.21
33.671,49.72
33.687,58.23
33.703,65.95
33.718,73.14
33.734,79.96
33.750,86.43
33.765,92.42
33.781,97.78
33.796,102.48
33.812,106.59
33.828,110.25
33.843,113.49
33.859,116.16
33.875,117.81
33.890,117.85
33.906,115.65
33.921,110.7
33.937,102.77
33.953,91.88
33.968,78.29
33.984,62.27
34.000,44.1
34.015,24.08
34.031,2.7
34.046,-19.33
34.062,-40.97
34.078,-61.01
34.093,-78.29
34.109,-91.96
34.125,-101.67
34.140,-107.59
34.156,-110.26
34.171,-110.39
34.187,-108.77
34.203,-106.09
34.218,-103.07
34.234,-100.32
34.250,-98.24
34.265,-96.79
34.281,-95.37
34.296,-92.89
34.312,-88.04
34.328,-79.84
34.343,-67.91
34.359,-52.67
34.375,-35.18
34.390,-16.72
34.406,1.4
34.421,18.17
34.437,32.83
34.453,44.75
34.468,53.37
34.484,58.32
34.500,59.47
34.515,57.15
34.531,52.19
34.546,45.65
34.562,38.75
34.578,32.49
34.593,27.42
34.609,23.71
34.625,21.16
34.640,19.36
34.656,17.8
34.671,16.01
34.687,13.62
34.703,10.37
34.718,6.22
34.734,1.34
34.750,-3.94
34.765,-9.19
34.781,-14.08
34.796,-18.47
34.812,-22.41
34.828,-26.09
34.843,-29.79
34.859,-33.76
34.875,-38.19
34.890,-43.17
34.906,-48.76
34.921,-54.92
34.937,-61.59
34.953,-68.69
34.968,-76.23
34.984,-84.33
35.000,-93.19
35.015,-102.93
35.031,-113.41
35.046,-124.03
35.062,-133.72
35.078,-141.05
35.093,-144.63
35.109,-143.46
35.125,-137.15
35.140,-126.07
35.156,-111.22
35.171,-93.97
35.187,-75.77
35.203,-57.83
35.218,-41.01
35.234,-25.75
35.250,-12.22
35.265,-0.41
35.281,9.58
35.296,17.69
35.312,23.8
35.328,28.09
35.343,31.01
35.359,33.29
35.375,35.64
35.390,38.58
35.406,42.3
35.421,46.67
35.437,51.47
35.453,56.47
35.468,61.51
35.484,66.46
35.500,71.14
35.515,75.27
35.531,78.56
35.546,80.8
35.562,81.96
35.578,82.2
35.593,81.8
35.609,81.06
35.625,80.2
35.640,79.41
35.656,78.66
35.671,77.83
35.687,76.82
35.703,75.64
35.718,74.51
35.734,73.82
35.750,73.95
35.765,75.05
35.781,77.02
35.796,79.4
35.812,81.63
35.828,83.28
35.843,84.11
35.859,84.16
35.875,83.57
35.890,82.56
35.906,81.31
35.921,80.04
35.937,78.99
35.953,78.33
35.968,78.13
35.984,78.23
36.000,78.39
36.015,78.25
36.031,77.52
36.046,76.08
36.062,73.91
36.078,71.18
36.093,68.01
36.109,64.61
36.125,61.1
36.140,57.67
36.156,54.37
36.171,51.16
36.187,47.96
36.203,44.61
36.218,41.02
36.234,37.12
36.250,32.99
36.265,28.8
36.281,24.78
36.296,21.09
36.312,17.76
36.328,14.6
36.343,11.27
36.359,7.34
36.375,2.45
36.390,-3.47
36.406,-10.24
36.421,-17.34
36.437,-24.13
36.453,-30.05
36.468,-34.77
36.484,-38.33
36.500,-41.13
36.515,-43.86
36.531,-47.29
36.546,-51.97
36.562,-57.89
36.578,-64.19
36.593,-69.28
36.609,-71.16
36.625,-68.0
36.640,-58.77
36.656,-43.7
36.671,-24.23
36.687,-2.67
36.703,18.4
36.718,36.81
36.734,51.16
36.750,60.87
36.765,66.16
36.781,67.71
36.796,66.42
36.812,63.29
36.828,59.27
36.843,55.22
36.859,51.87
36.875,49.6
36.890,48.45
36.906,48.12
36.921,48.0
36.937,47.51
36.953,46.3
36.968,44.36
36.984,42.1
37.000,40.07
37.015,38.66
37.031,37.9
37.046,37.47
37.062,36.73
37.078,35.09
37.093,32.16
37.109,27.84
37.125,22.3
37.140,15.93
37.156,9.12
37.171,2.21
37.187,-4.58
37.203,-11.25
37.218,-17.95
37.234,-24.86
37.250,-32.11
37.265,-39.63
37.281,-46.92
37.296,-53.1
37.312,-57.12
37.328,-57.93
37.343,-54.97
37.359,-48.26
37.375,-38.46
37.390,-26.7
37.406,-14.23
37.421,-2.11
37.437,8.91
37.453,18.41
37.468,26.19
37.484,32.05
37.500,35.91
37.515,37.76
37.531,37.76
37.546,36.26
37.562,33.74
37.578,30.67
37.593,27.46
37.609,24.38
37.625,21.56
37.640,19.08
37.656,16.98
37.671,15.33
37.687,14.1
37.703,13.17
37.718,12.3
37.734,11.11
37.750,9.3
37.765,6.63
37.781,3.09
37.796,-1.09
37.812,-5.5
37.828,-9.7
37.843,-13.37
37.859,-16.35
37.875,-18.84
37.890,-21.28
37.906,-24.34
37.921,-28.71
37.937,-34.83
37.953,-42.53
37.968,-50.97
37.984,-58.67
38.000,-63.83
38.015,-64.92
38.031,-61.12
38.046,-52.62
38.062,-40.42
38.078,-26.11
38.093,-11.3
38.109,2.64
38.125,14.78
38.140,24.66
38.156,32.14
38.171,37.4
38.187,40.79
38.203,42.91
38.218,44.32
38.234,45.56
38.250,47.01
38.265,48.79
38.281,50.74
38.296,52.5
38.312,53.59
38.328,53.63
38.343,52.48
38.359,50.31
38.375,47.62
38.390,44.99
38.406,42.89
38.421,41.52
38.437,40.71
38.453,40.14
38.468,39.47
38.484,38.49
38.500,37.22
38.515,35.75
38.531,34.2
38.546,32.48
38.562,30.44
38.578,27.85
38.593,24.48
38.609,20.15
38.625,14.77
38.640,8.54
38.656,1.95
38.671,-4.11
38.687,-8.54
38.703,-10.21
38.718,-8.36
38.734,-2.93
38.750,5.51
38.765,15.91
38.781,27.14
38.796,38.31
38.812,48.92
38.828,58.69
38.843,67.57
38.859,75.44
38.875,82.1
38.890,87.2
38.906,90.32
38.921,91.0
38.937,88.95
38.953,84.24
38.968,77.28
38.984,68.83
39.000,59.82
39.015,51.0
39.031,42.87
39.046,35.61
39.062,29.19
39.078,23.58
39.093,18.83
39.109,14.91
39.125,11.65
39.140,8.65
39.156,5.38
39.171,1.35
39.187,-3.67
39.203,-9.61
39.218,-16.13
39.234,-22.73
39.250,-28.97
39.265,-34.59
39.281,-39.54
39.296,-43.95
39.312,-48.09
39.328,-52.29
39.343,-56.92
39.359,-62.27
39.375,-68.49
39.390,-75.49
39.406,-82.86
39.421,-89.78
39.437,-95.15
39.453,-97.74
39.468,-96.54
39.484,-91.15
39.500,-81.85
39.515,-69.58
39.531,-55.67
39.546,-41.41
39.562,-27.71
39.578,-15.03
39.593,-3.4
39.609,7.34
39.625,17.25
39.640,26.24
39.656,34.02
39.671,40.3
39.687,44.9
39.703,47.9
39.718,49.49
39.734,49.98
39.750,49.58
39.765,48.38
39.781,46.38
39.796,43.68
39.812,40.51
39.828,37.22
39.843,34.19
39.859,31.6
39.875,29.39
39.890,27.3
39.906,24.97
39.921,22.15
39.937,18.84
39.953,15.16
39.968,11.25
39.984,7.2
40.000,2.92
40.015,-1.67
40.031,-6.62
40.046,-11.87
40.062,-17.26
40.078,-22.52
40.093,-27.45
40.109,-31.95
40.125,-36.04
40.140,-39.88
40.156,-43.76
40.171,-47.98
40.187,-52.9
40.203,-58.75
40.218,-65.47
40.234,-72.72
40.250,-79.65
40.265,-85.12
40.281,-87.87
40.296,-86.88
40.312,-81.61
40.328,-72.26
40.343,-59.66
40.359,-45.01
40.375,-29.65
40.390,-14.7
40.406,-0.98
40.421,11.05
40.437,21.21
40.453,29.42
40.468,35.68
40.484,40.02
40.500,42.62
40.515,43.72
40.531,43.81
40.546,43.34
40.562,42.73
40.578,42.18
40.593,41.69
40.609,41.09
40.625,40.3
40.640,39.37
40.656,38.5
40.671,37.9
40.687,37.67
40.703,37.7
40.718,37.74
40.734,37.52
40.750,36.8
40.765,35.48
40.781,33.53
40.796,30.99
40.812,27.86
40.828,24.13
40.843,19.83
40.859,15.0
40.875,9.77
40.890,4.32
40.906,-1.11
40.921,-6.31
40.937,-11.07
40.953,-15.27
40.968,-19.0
40.984,-22.51
41.000,-26.16
41.015,-30.34
41.031,-35.25
41.046,-40.88
41.062,-47.0
41.078,-53.06
41.093,-58.33
41.109,-61.96
41.125,-63.15
41.140,-61.27
41.156,-56.05
41.171,-47.76
41.187,-37.14
41.203,-25.33
41.218,-13.44
41.234,-2.36
41.250,7.41
41.265,15.72
41.281,22.64
41.296,28.27
41.312,32.65
41.328,35.78
41.343,37.77
41.359,38.87
41.375,39.36
41.390,39.5
41.406,39.41
41.421,39.07
41.437,38.39
41.453,37.41
41.468,36.25
41.484,35.15
41.500,34.32
41.515,33.77
41.531,33.33
41.546,32.72
41.562,31.63
41.578,29.83
41.593,27.2
41.609,23.74
41.625,19.52
41.640,14.71
41.656,9.6
41.671,4.47
41.687,-0.38
41.703,-4.77
41.718,-8.68
41.734,-12.22
41.750,-15.55
41.765,-18.77
41.781,-21.87
41.796,-24.73
41.812,-27.26
41.828,-29.44
41.843,-31.33
41.859,-33.09
41.875,-34.85
41.890,-36.75
41.906,-38.83
41.921,-41.02
41.937,-42.95
41.953,-43.97
41.968,-43.06
41.984,-39.12
42.000,-31.32
42.015,-19.42
42.031,-4.04
42.046,13.59
42.062,31.95
42.078,49.86
42.093,66.66
42.109,82.29
42.125,96.96
42.140,110.82
42.156,123.77
42.171,135.42
42.187,145.31
42.203,153.03
42.218,158.43
42.234,161.5
42.250,162.47
42.265,161.75
42.281,159.88
42.296,157.63
42.312,155.65
42.328,154.18
42.343,152.56
42.359,149.05
42.375,141.02
42.390,125.7
42.406,101.33
42.421,67.88
42.437,27.59
42.453,-15.67
42.468,-57.44
42.484,-93.97
42.500,-122.94
42.515,-143.67
42.531,-156.73
42.546,-163.3
42.562,-164.89
42.578,-163.05
42.593,-159.38
42.609,-155.52
42.625,-152.78
42.640,-151.84
42.656,-152.5
42.671,-153.81
42.687,-154.47
42.703,-153.47
42.718,-150.35
42.734,-145.39
42.750,-139.33
42.765,-132.84
42.781,-126.13
42.796,-118.95
42.812,-110.74
42.828,-101.18
42.843,-90.59
42.859,-79.92
42.875,-70.41
42.890,-63.13
42.906,-58.52
42.921,-56.39
42.937,-56.18
42.953,-57.29
42.968,-59.33
42.984,-62.07
43.000,-65.11
43.015,-67.78
43.031,-69.18
43.046,-68.45
43.062,-65.11
43.078,-59.29
43.093,-51.58
43.109,-42.75
43.125,-33.61
43.140,-24.65
43.156,-16.18
43.171,-8.28
43.187,-1.07
43.203,5.32
43.218,10.78
43.234,15.23
43.250,18.75
43.265,21.42
43.281,23.4
43.296,24.77
43.312,25.57
43.328,25.79
43.343,25.37
43.359,24.31
43.375,22.72
43.390,20.79
43.406,18.77
43.421,16.88
43.437,15.18
43.453,13.54
43.468,11.71
43.484,9.32
43.500,6.06
43.515,1.86
43.531,-3.09
43.546,-8.23
43.562,-12.63
43.578,-15.23
43.593,-14.96
43.609,-11.04
43.625,-3.16
43.640,8.31
43.656,22.47
43.671,38.09
43.687,53.88
43.703,68.77
43.718,82.07
43.734,93.47
43.750,102.97
43.765,110.84
43.781,117.51
43.796,123.56
43.812,129.59
43.828,136.03
43.843,142.98
43.859,150.07
43.875,156.76
43.890,162.52
43.906,167.35
43.921,171.86
43.937,177.1
43.953,183.94
43.968,192.57
43.984,202.25
44.000,211.51
44.015,218.91
44.031,223.59
44.046,225.74
44.062,226.51
44.078,227.5
44.093,230.14
44.109,235.15
44.125,242.22
44.140,249.86
44.156,255.75
44.171,257.11
44.187,251.57
44.203,237.86
44.218,216.31
44.234,188.84
44.250,158.04
44.265,126.45
44.281,95.55
44.296,65.51
44.312,35.41
44.328,3.84
44.343,-30.14
44.359,-66.21
44.375,-102.05
44.390,-133.54
44.406,-155.68
44.421,-164.49
44.437,-158.96
44.453,-142.19
44.468,-120.96
44.484,-103.44
44.500,-96.48
44.515,-103.44
44.531,-123.82
44.546,-154.47
44.562,-191.38
44.578,-231.0
44.593,-270.19
44.609,-305.72
44.625,-333.58
44.640,-349.32
44.656,-349.25
44.671,-331.96
44.687,-299.24
44.703,-256.03
44.718,-209.33
44.734,-166.18
44.750,-132.2
44.765,-110.18
44.781,-100.01
44.796,-99.32
44.812,-104.76
44.828,-113.23
44.843,-122.6
44.859,-131.62
44.875,-139.19
44.890,-143.73
44.906,-143.03
44.921,-134.84
44.937,-117.86
44.953,-92.5
44.968,-61.11
44.984,-27.24
45.000,5.43
45.015,34.24
45.031,58.19
45.046,77.79
45.062,94.51
45.078,109.87
45.093,124.74
45.109,138.92
45.125,151.24
45.140,160.0
45.156,163.47
45.171,160.27
45.187,149.46
45.203,130.5
45.218,103.18
45.234,68.01
45.250,26.48
45.265,-18.58
45.281,-63.33
45.296,-103.54
45.312,-135.6
45.328,-157.15
45.343,-167.13
45.359,-165.34
45.375,-151.94
45.390,-127.41
45.406,-93.14
45.421,-52.13
45.437,-9.33
45.453,29.11
45.468,57.26
45.484,71.06
45.500,69.51
45.515,54.6
45.531,30.56
45.546,2.34
45.562,-25.37
45.578,-48.77
45.593,-64.86
45.609,-71.4
45.625,-67.01
45.640,-51.74
45.656,-27.73
45.671,0.55
45.687,27.04
45.703,45.62
45.718,51.97
45.734,44.95
45.750,26.77
45.765,2.03
45.781,-23.98
45.796,-46.86
45.812,-63.77
45.828,-73.33
45.843,-74.86
45.859,-68.09
45.875,-53.27
45.890,-31.96
45.906,-7.58
45.921,14.7
45.937,29.29
45.953,31.88
45.968,21.06
45.984,-1.12
46.000,-29.97
46.015,-59.83
46.031,-85.72
46.046,-104.42
46.062,-114.57
46.078,-116.06
46.093,-109.5
46.109,-96.05
46.125,-77.53
46.140,-56.57
46.156,-36.23
46.171,-19.34
46.187,-7.61
46.203,-1.2
46.218,1.2
46.234,1.66
46.250,2.3
46.265,4.86
46.281,10.64
46.296,20.71
46.312,35.82
46.328,55.97
46.343,79.78
46.359,104.13
46.375,124.5
46.390,136.23
46.406,136.04
46.421,123.27
46.437,100.21
46.453,71.28
46.468,41.6
46.484,15.77
46.500,-3.17
46.515,-13.91
46.531,-16.83
46.546,-13.68
46.562,-7.36
46.578,-1.31
46.593,1.15
46.609,-2.35
46.625,-12.39
46.640,-27.8
46.656,-46.01
46.671,-63.92
46.687,-78.61
46.703,-87.97
46.718,-90.63
46.734,-86.01
46.750,-74.29
46.765,-56.51
46.781,-34.89
46.796,-12.82
46.812,5.4
46.828,15.49
46.843,14.3
46.859,0.97
46.875,-22.63
46.890,-52.14
46.906,-81.98
46.921,-106.87
46.937,-123.0
46.953,-128.65
46.968,-123.82
46.984,-109.56
47.000,-87.21
47.015,-58.26
47.031,-24.52
47.046,11.35
47.062,45.75
47.078,74.61
47.093,94.31
47.109,102.81
47.125,100.3
47.140,89.22
47.156,73.39
47.171,56.85
47.187,42.76
47.203,32.86
47.218,27.63
47.234,26.91
47.250,30.5
47.265,38.47
47.281,50.97
47.296,67.65
47.312,87.08
47.328,106.47
47.343,121.96
47.359,129.52
47.375,126.16
47.390,110.93
47.406,85.41
47.421,53.25
47.437,19.24
47.453,-12.04
47.468,-37.19
47.484,-54.22
47.500,-62.44
47.515,-62.07
47.531,-54.15
47.546,-40.82
47.562,-25.7
47.578,-13.6
47.593,-9.6
47.609,-17.38
47.625,-37.69
47.640,-67.78
47.656,-102.05
47.671,-133.67
47.687,-156.62
47.703,-167.15
47.718,-164.2
47.734,-148.99
47.750,-124.16
47.765,-92.82
47.781,-58.09
47.796,-22.85
47.812,10.34
47.828,39.4
47.843,63.02
47.859,80.87
47.875,93.62
47.890,102.85
47.906,110.39
47.921,117.49
47.937,124.09
47.953,128.64
47.968,128.42
47.984,120.95
48.000,105.04
48.015,81.67
48.031,53.77
48.046,25.27
48.062,-0.22
48.078,-20.31
48.093,-34.0
48.109,-41.4
48.125,-43.11
48.140,-39.96
48.156,-33.07
48.171,-24.05
48.187,-14.94
48.203,-7.83
48.218,-4.29
48.234,-4.75
48.250,-8.45
48.265,-13.74
48.281,-18.77
48.296,-22.2
48.312,-23.61
48.328,-23.58
48.343,-23.24
48.359,-23.79
48.375,-25.94
48.390,-29.51
48.406,-33.3
48.421,-35.23
48.437,-32.8
48.453,-23.78
48.468,-7.1
48.484,16.47
48.500,44.08
48.515,71.07
48.531,92.26
48.546,103.43
48.562,102.75
48.578,91.29
48.593,72.56
48.609,51.04
48.625,30.69
48.640,13.94
48.656,1.51
48.671,-6.86
48.687,-11.62
48.703,-12.99
48.718,-11.06
48.734,-6.25
48.750,0.34
48.765,7.08
48.781,12.49
48.796,15.79
48.812,17.31
48.828,18.24
48.843,19.91
48.859,23.15
48.875,27.85
48.890,33.07
48.906,37.52
48.921,40.16
48.937,40.61
48.953,39.31
48.968,37.48
48.984,36.71
49.000,38.66
49.015,44.3
49.031,53.37
49.046,63.88
49.062,72.29
49.078,74.14
49.093,65.53
49.109,44.46
49.125,11.56
49.140,-29.84
49.156,-74.86
49.171,-118.51
49.187,-156.79
49.203,-187.16
49.218,-208.35
49.234,-219.6
49.250,-220.42
49.265,-210.69
49.281,-191.01
49.296,-163.11
49.312,-129.69
49.328,-93.74
49.343,-57.61
49.359,-22.75
49.375,10.28
49.390,40.94
49.406,67.86
49.421,88.81
49.437,101.23
49.453,103.36
49.468,95.21
49.484,78.84
49.500,57.81
49.515,36.09
49.531,17.09
49.546,2.94
49.562,-5.33
49.578,-7.61
49.593,-4.28
49.609,3.96
49.625,16.05
49.640,30.63
49.656,46.21
49.671,61.42
49.687,75.38
49.703,87.94
49.718,99.6
49.734,111.22
49.750,123.27
49.765,135.11
49.781,144.51
49.796,148.03
49.812,142.12
49.828,124.51
49.843,95.45
49.859,57.79
49.875,16.27
49.890,-24.04
49.906,-59.18
49.921,-87.11
49.937,-107.6
49.953,-121.53
49.968,-130.17
49.984,-134.71
50.000,-136.16
50.015,-135.37
50.031,-133.0
50.046,-129.3
50.062,-123.93
50.078,-116.0
50.093,-104.44
50.109,-88.49
50.125,-68.12
50.140,-44.24
50.156,-18.37
50.171,7.76
50.187,32.88
50.203,56.35
50.218,78.03
50.234,97.72
50.250,114.5
50.265,126.59
50.281,131.63
50.296,127.62
50.312,113.89
50.328,91.68
50.343,63.97
50.359,34.55
50.375,7.02
50.390,-15.98
50.406,-32.97
50.421,-43.37
50.437,-47.1
50.453,-44.51
50.468,-36.4
50.484,-24.26
50.500,-10.21
50.515,3.53
50.531,15.36
50.546,24.82
50.562,32.66
50.578,40.35
50.593,49.34
50.609,60.49
50.625,73.76
50.640,88.27
50.656,102.44
50.671,114.17
50.687,121.0
50.703,120.44
50.718,110.47
50.734,90.35
50.750,61.03
50.765,25.1
50.781,-13.81
50.796,-51.99
50.812,-86.35
50.828,-114.62
50.843,-135.0
50.859,-145.68
50.875,-144.79
50.890,-130.96
50.906,-104.24
50.921,-67.08
50.937,-24.49
50.953,16.7
50.968,49.55
50.984,68.95
51.000,73.04
51.015,63.51
51.031,44.66
51.046,21.85
51.062,-0.13
51.078,-18.03
51.093,-30.26
51.109,-36.4
51.125,-36.57
51.140,-31.18
51.156,-21.05
51.171,-7.61
51.187,7.23
51.203,21.55
51.218,34.15
51.234,45.1
51.250,55.67
51.265,67.57
51.281,81.77
51.296,97.5
51.312,111.97
51.328,121.09
51.343,120.95
51.359,109.32
51.375,86.6
51.390,55.71
51.406,21.05
51.421,-12.78
51.437,-42.22
51.453,-65.16
51.468,-80.89
51.484,-89.62
51.500,-92.09
51.515,-89.35
51.531,-82.62
51.546,-73.25
51.562,-62.39
51.578,-50.86
51.593,-39.07
51.609,-27.32
51.625,-16.23
51.640,-6.93
51.656,-0.92
51.671,0.42
51.687,-3.47
51.703,-11.98
51.718,-23.3
51.734,-34.93
51.750,-44.27
51.765,-49.2
51.781,-48.34
51.796,-40.97
51.812,-27.16
51.828,-7.83
51.843,15.03
51.859,38.43
51.875,58.91
51.890,73.35
51.906,79.91
51.921,78.52
51.937,70.75
51.953,59.05
51.968,45.86
51.984,32.82
52.000,20.81
52.015,10.16
52.031,1.28
52.046,-5.12
52.062,-8.29
52.078,-7.89
52.093,-4.42
52.109,0.77
52.125,5.9
52.140,9.51
52.156,10.85
52.171,10.1
52.187,8.24
52.203,6.59
52.218,6.47
52.234,8.7
52.250,13.27
52.265,18.97
52.281,23.44
52.296,23.68
52.312,17.18
52.328,2.91
52.343,-17.8
52.359,-41.68
52.375,-64.44
52.390,-82.36
52.406,-93.3
52.421,-96.92
52.437,-94.02
52.453,-85.63
52.468,-72.35
52.484,-54.39
52.500,-31.95
52.515,-5.6
52.531,23.53
52.546,53.89
52.562,83.62
52.578,110.45
52.593,131.55
52.609,143.81
52.625,144.46
52.640,132.19
52.656,107.96
52.671,75.11
52.687,38.68
52.703,4.01
52.718,-24.48
52.734,-44.13
52.750,-54.13
52.765,-55.2
52.781,-49.17
52.796,-38.52
52.812,-25.91
52.828,-13.79
52.843,-3.95
52.859,2.84
52.875,6.91
52.890,9.45
52.906,11.95
52.921,15.5
52.937,20.16
52.953,24.59
52.968,26.23
52.984,22.13
53.000,10.25
53.015,-9.27
53.031,-33.54
53.046,-57.47
53.062,-75.44
53.078,-83.12
53.093,-78.86
53.109,-63.89
53.125,-41.58
53.140,-15.95
53.156,9.45
53.171,32.09
53.187,50.46
53.203,63.74
53.218,71.6
53.234,74.25
53.250,72.56
53.265,67.96
53.281,62.24
53.296,57.08
53.312,53.59
53.328,52.1
53.343,52.11
53.359,52.65
53.375,52.59
53.390,51.15
53.406,48.13
53.421,43.86
53.437,38.95
53.453,33.76
53.468,28.16
53.484,21.58
53.500,13.33
53.515,3.05
53.531,-9.0
53.546,-21.97
53.562,-34.82
53.578,-46.81
53.593,-57.84
53.609,-68.33
53.625,-78.92
53.640,-89.94
53.656,-101.16
53.671,-111.67
53.687,-120.16
53.703,-125.25
53.718,-125.92
53.734,-121.78
53.750,-113.09
53.765,-100.81
53.781,-86.36
53.796,-71.27
53.812,-56.81
53.828,-43.7
53.843,-32.01
53.859,-21.33
53.875,-11.11
53.890,-1.01
53.906,8.77
53.921,17.64
53.937,24.82
53.953,29.7
53.968,32.18
53.984,32.76
54.000,32.37
54.015,32.16
54.031,33.12
54.046,35.78
54.062,40.12
54.078,45.47
54.093,50.73
54.109,54.67
54.125,56.28
54.140,55.21
54.156,52.04
54.171,48.41
54.187,46.58
54.203,48.71
54.218,55.63
54.234,65.87
54.250,75.52
54.265,78.97
54.281,70.59
54.296,46.73
54.312,7.11
54.328,-44.95
54.343,-103.37
54.359,-160.94
54.375,-210.99
54.390,-248.37
54.406,-270.05
54.421,-275.18
54.437,-264.87
54.453,-241.96
54.468,-210.56
54.484,-175.19
54.500,-139.94
54.515,-107.65
54.531,-79.53
54.546,-55.26
54.562,-33.63
54.578,-13.31
54.593,6.46
54.609,25.61
54.625,43.37
54.640,58.79
54.656,71.21
54.671,80.75
54.687,88.22
54.703,94.99
54.718,102.54
54.734,112.09
54.750,124.16
54.765,138.27
54.781,152.7
54.796,164.55
54.812,170.3
54.828,166.66
54.843,151.69
54.859,125.68
54.875,91.11
54.890,52.02
54.906,12.88
54.921,-22.39
54.937,-50.8
54.953,-70.12
54.968,-78.79
54.984,-75.98
55.000,-62.3
55.015,-40.52
55.031,-15.8
55.046,5.21
55.062,16.2
55.078,13.21
55.093,-3.98
55.109,-31.83
55.125,-64.2
55.140,-94.14
55.156,-115.63
55.171,-124.59
55.187,-119.29
55.203,-100.25
55.218,-70.03
55.234,-32.85
55.250,5.98
55.265,40.95
55.281,67.5
55.296,82.84
55.312,86.62
55.328,80.66
55.343,68.29
55.359,53.53
55.375,40.39
55.390,32.26
55.406,31.45
55.421,38.84
55.437,53.37
55.453,72.13
55.468,90.83
55.484,104.84
55.500,110.53
55.515,106.36
55.531,93.22
55.546,73.97
55.562,52.49
55.578,32.53
55.593,17.02
55.609,7.51
55.625,4.15
55.640,5.74
55.656,9.91
55.671,13.68
55.687,14.15
55.703,9.39
55.718,-0.98
55.734,-15.66
55.750,-32.18
55.765,-47.89
55.781,-60.71
55.796,-69.75
55.812,-75.22
55.828,-78.11
55.843,-79.66
55.859,-80.89
55.875,-82.33
55.890,-83.84
55.906,-84.78
55.921,-84.17
55.937,-81.08
55.953,-75.05
55.968,-66.28
55.984,-55.58
56.000,-44.01
56.015,-32.36
56.031,-20.8
56.046,-8.84
56.062,4.37
56.078,19.3
56.093,35.46
56.109,51.19
56.125,63.91
56.140,71.04
56.156,70.92
56.171,63.53
56.187,50.47
56.203,34.51
56.218,18.56
56.234,4.88
56.250,-5.16
56.265,-11.22
56.281,-13.46
56.296,-12.29
56.312,-8.16
56.328,-1.67
56.343,6.41
56.359,15.17
56.375,23.81
56.390,31.95
56.406,39.69
56.421,47.36
56.437,55.16
56.453,62.64
56.468,68.55
56.484,71.06
56.500,68.29
56.515,59.19
56.531,43.94
56.546,23.93
56.562,1.34
56.578,-21.52
56.593,-42.61
56.609,-60.1
56.625,-72.25
56.640,-77.11
56.656,-72.89
56.671,-58.71
56.687,-35.48
56.703,-6.28
56.718,24.07
56.734,50.25
56.750,68.12
56.765,75.92
56.781,74.59
56.796,67.09
56.812,56.97
56.828,47.18
56.843,39.43
56.859,34.35
56.875,32.1
56.890,32.95
56.906,37.26
56.921,44.87
56.937,54.47
56.953,63.36
56.968,68.16
56.984,65.97
57.000,55.64
57.015,38.36
57.031,17.2
57.046,-4.06
57.062,-22.29
57.078,-35.83
57.093,-44.34
57.109,-48.16
57.125,-47.49
57.140,-42.2
57.156,-32.28
57.171,-18.64
57.187,-3.55
57.203,9.54
57.218,17.12
57.234,16.92
57.250,8.73
57.265,-5.49
57.281,-22.63
57.296,-39.55
57.312,-54.02
57.328,-65.0
57.343,-72.24
57.359,-75.93
57.375,-76.42
57.390,-74.5
57.406,-71.47
57.421,-69.05
57.437,-68.73
57.453,-71.08
57.468,-75.42
57.484,-80.02
57.500,-82.83
57.515,-82.26
57.531,-77.58
57.546,-68.74
57.562,-56.02
57.578,-39.72
57.593,-20.17
57.609,1.71
57.625,24.08
57.640,44.2
57.656,59.1
57.671,66.56
57.687,66.03
57.703,58.85
57.718,47.85
57.734,36.41
57.750,27.39
57.765,22.48
57.781,21.93
57.796,24.7
57.812,28.94
57.828,32.54
57.843,33.56
57.859,30.71
57.875,23.65
57.890,12.98
57.906,0.08
57.921,-13.34
57.937,-25.68
57.953,-35.73
57.968,-42.86
57.984,-46.87
58.000,-47.9
58.015,-46.17
58.031,-41.86
58.046,-35.11
58.062,-26.17
58.078,-15.76
58.093,-5.27
58.109,3.18
58.125,7.19
58.140,4.82
58.156,-4.64
58.171,-20.34
58.187,-39.99
58.203,-60.6
58.218,-79.24
58.234,-93.37
58.250,-101.09
58.265,-101.23
58.281,-93.38
58.296,-78.31
58.312,-58.1
58.328,-35.87
58.343,-15.14
58.359,1.22
58.375,11.8
58.390,16.88
58.406,18.01
58.421,17.23
58.437,16.26
58.453,16.09
58.468,17.09
58.484,19.35
58.500,23.11
58.515,28.93
58.531,37.62
58.546,49.82
58.562,65.49
58.578,83.46
58.593,101.34
58.609,116.1
58.625,124.86
58.640,125.78
58.656,118.75
58.671,105.23
58.687,87.76
58.703,69.14
58.718,51.61
58.734,36.74
58.750,25.61
58.765,19.16
58.781,18.26
58.796,23.43
58.812,34.1
58.828,48.15
58.843,61.94
58.859,71.05
58.875,71.65
58.890,61.84
58.906,42.19
58.921,15.53
58.937,-14.16
58.953,-42.96
58.968,-67.93
58.984,-87.04
59.000,-98.99
59.015,-102.71
59.031,-97.47
59.046,-83.52
59.062,-62.57
59.078,-37.89
59.093,-13.76
59.109,5.91
59.125,18.76
59.140,24.58
59.156,25.09
59.171,23.0
59.187,21.01
59.203,21.14
59.218,24.58
59.234,31.7
59.250,42.13
59.265,54.81
59.281,67.87
59.296,78.94
59.312,85.69
59.328,86.58
59.343,81.56
59.359,72.05
59.375,60.7
59.390,50.53
59.406,44.09
59.421,42.98
59.437,47.5
59.453,56.56
59.468,67.71
59.484,77.64
59.500,82.75
59.515,80.22
59.531,68.99
59.546,50.13
59.562,26.63
59.578,2.55
59.593,-18.27
59.609,-33.09
59.625,-40.6
59.640,-40.73
59.656,-34.29
59.671,-22.75
59.687,-8.25
59.703,6.34
59.718,17.68
59.734,22.82
59.750,20.04
59.765,9.67
59.781,-6.01
59.796,-23.47
59.812,-39.23
59.828,-50.85
59.843,-57.41
59.859,-59.32
59.875,-57.69
59.890,-53.61
59.906,-48.01
59.921,-41.66
59.937,-35.09
59.953,-28.68
59.968,-22.32
59.984,-15.32
