timestamp,value
00.000,13.04
00.015,9.82
00.031,6.87
00.046,4.26
00.062,2.02
00.078,0.15
00.093,-1.36
00.109,-2.56
00.125,-3.51
00.140,-4.27
00.156,-4.89
00.171,-5.39
00.187,-5.77
00.203,-6.13
00.218,-6.69
00.234,-7.77
00.250,-9.76
00.265,-12.91
00.281,-17.2
00.296,-22.27
00.312,-27.48
00.328,-31.98
00.343,-35.01
00.359,-36.02
00.375,-34.77
00.390,-31.42
00.406,-26.42
00.421,-20.5
00.437,-14.44
00.453,-9.01
00.468,-4.7
00.484,-1.75
00.500,-0.11
00.515,0.5
00.531,0.46
00.546,0.21
00.562,0.13
00.578,0.54
00.593,1.71
00.609,3.73
00.625,6.49
00.640,9.69
00.656,12.89
00.671,15.54
00.687,17.29
00.703,17.97
00.718,17.75
00.734,17.04
00.750,16.35
00.765,16.08
00.781,16.46
00.796,17.47
00.812,18.83
00.828,20.16
00.843,21.12
00.859,21.53
00.875,21.45
00.890,21.26
00.906,21.5
00.921,22.74
00.937,25.37
00.953,29.46
00.968,34.74
00.984,40.67
01.000,46.58
01.015,51.86
01.031,55.98
01.046,58.6
01.062,59.48
01.078,58.53
01.093,55.74
01.109,51.22
01.125,45.16
01.140,37.73
01.156,29.09
01.171,19.3
01.187,8.44
01.203,-3.35
01.218,-15.77
01.234,-28.33
01.250,-40.47
01.265,-51.65
01.281,-61.51
01.296,-69.92
01.312,-76.91
01.328,-82.56
01.343,-86.94
01.359,-89.97
01.375,-91.56
01.390,-91.63
01.406,-90.2
01.421,-87.42
01.437,-83.54
01.453,-78.78
01.468,-73.27
01.484,-66.97
01.500,-59.65
01.515,-51.01
01.531,-40.83
01.546,-29.07
01.562,-16.01
01.578,-2.22
01.593,11.58
01.609,24.66
01.625,36.47
01.640,46.73
01.656,55.39
01.671,62.49
01.687,68.09
01.703,72.17
01.718,74.6
01.734,75.37
01.750,74.62
01.765,72.79
01.781,70.47
01.796,68.27
01.812,66.47
01.828,65.06
01.843,63.73
01.859,62.24
01.875,60.64
01.890,59.42
01.906,59.33
01.921,61.05
01.937,64.85
01.953,70.35
01.968,76.67
01.984,82.48
02.000,86.15
02.015,85.71
02.031,78.93
02.046,63.78
02.062,39.17
02.078,5.87
02.093,-33.24
02.109,-73.48
02.125,-109.75
02.140,-137.93
02.156,-156.01
02.171,-164.11
02.187,-163.85
02.203,-157.28
02.218,-146.1
02.234,-131.57
02.250,-114.75
02.265,-96.84
02.281,-79.33
02.296,-63.61
02.312,-50.67
02.328,-40.87
02.343,-33.99
02.359,-29.47
02.375,-26.74
02.390,-25.39
02.406,-25.13
02.421,-25.72
02.437,-26.82
02.453,-27.87
02.468,-28.25
02.484,-27.37
02.500,-24.87
02.515,-20.81
02.531,-15.65
02.546,-10.14
02.562,-5.11
02.578,-1.16
02.593,1.45
02.609,2.92
02.625,3.88
02.640,5.31
02.656,8.27
02.671,13.6
02.687,21.65
02.703,32.08
02.718,43.93
02.734,55.86
02.750,66.49
02.765,74.74
02.781,79.96
02.796,82.05
02.812,81.46
02.828,79.15
02.843,76.56
02.859,75.36
02.875,77.06
02.890,82.55
02.906,91.75
02.921,103.52
02.937,115.93
02.953,126.68
02.968,133.61
02.984,135.03
03.000,130.08
03.015,118.84
03.031,102.41
03.046,82.71
03.062,62.04
03.078,42.42
03.093,24.98
03.109,9.69
03.125,-4.34
03.140,-18.28
03.156,-32.99
03.171,-48.65
03.187,-64.86
03.203,-80.91
03.218,-96.03
03.234,-109.4
03.250,-119.97
03.265,-126.48
03.281,-127.68
03.296,-122.87
03.312,-112.41
03.328,-98.0
03.343,-82.25
03.359,-67.94
03.375,-57.0
03.390,-49.89
03.406,-45.53
03.421,-41.79
03.437,-36.33
03.453,-27.44
03.468,-14.47
03.484,2.09
03.500,21.02
03.515,40.85
03.531,60.4
03.546,79.04
03.562,96.74
03.578,113.88
03.593,130.83
03.609,147.57
03.625,163.52
03.640,177.55
03.656,188.35
03.671,194.7
03.687,195.79
03.703,191.15
03.718,180.54
03.734,163.75
03.750,140.7
03.765,111.6
03.781,77.21
03.796,38.74
03.812,-2.47
03.828,-45.36
03.843,-89.35
03.859,-134.03
03.875,-178.71
03.890,-221.89
03.906,-261.16
03.921,-293.92
03.937,-318.08
03.953,-332.74
03.968,-338.31
03.984,-336.09
04.000,-327.62
04.015,-314.23
04.031,-296.95
04.046,-276.73
04.062,-254.62
04.078,-231.64
04.093,-208.57
04.109,-185.72
04.125,-162.89
04.140,-139.72
04.156,-115.98
04.171,-91.79
04.187,-67.49
04.203,-43.53
04.218,-20.17
04.234,2.43
04.250,24.1
04.265,44.46
04.281,62.86
04.296,78.76
04.312,91.97
04.328,103.03
04.343,113.03
04.359,123.18
04.375,134.09
04.390,145.42
04.406,155.95
04.421,164.08
04.437,168.61
04.453,169.36
04.468,167.21
04.484,163.53
04.500,159.48
04.515,155.34
04.531,150.47
04.546,143.66
04.562,133.89
04.578,120.77
04.593,104.72
04.609,86.58
04.625,67.42
04.640,48.29
04.656,30.35
04.671,14.85
04.687,2.94
04.703,-4.8
04.718,-8.8
04.734,-10.55
04.750,-12.12
04.765,-15.25
04.781,-20.59
04.796,-27.5
04.812,-34.58
04.828,-40.42
04.843,-44.4
04.859,-46.64
04.875,-47.69
04.890,-47.93
04.906,-47.35
04.921,-45.62
04.937,-42.68
04.953,-38.86
04.968,-34.9
04.984,-31.67
05.000,-29.73
05.015,-29.22
05.031,-29.96
05.046,-31.91
05.062,-35.35
05.078,-41.0
05.093,-49.68
05.109,-61.75
05.125,-76.77
05.140,-93.3
05.156,-109.18
05.171,-122.11
05.187,-130.22
05.203,-132.58
05.218,-129.36
05.234,-121.58
05.250,-110.62
05.265,-97.75
05.281,-83.74
05.296,-68.77
05.312,-52.66
05.328,-35.23
05.343,-16.76
05.359,1.71
05.375,18.39
05.390,31.14
05.406,38.17
05.421,38.63
05.437,33.14
05.453,23.66
05.468,12.98
05.484,3.96
05.500,-1.21
05.515,-1.39
05.531,3.55
05.546,13.03
05.562,26.1
05.578,41.74
05.593,58.86
05.609,76.3
05.625,92.79
05.640,107.22
05.656,118.84
05.671,127.51
05.687,133.69
05.703,138.21
05.718,141.77
05.734,144.56
05.750,146.11
05.765,145.38
05.781,141.28
05.796,133.09
05.812,120.9
05.828,105.57
05.843,88.48
05.859,71.09
05.875,54.4
05.890,38.83
05.906,24.09
05.921,9.41
05.937,-6.13
05.953,-23.26
05.968,-42.26
05.984,-62.83
06.000,-84.1
06.015,-104.74
06.031,-123.23
06.046,-138.12
06.062,-148.3
06.078,-153.23
06.093,-153.01
06.109,-148.27
06.125,-140.05
06.140,-129.54
06.156,-117.88
06.171,-106.0
06.187,-94.66
06.203,-84.43
06.218,-75.76
06.234,-68.96
06.250,-64.09
06.265,-60.91
06.281,-58.83
06.296,-57.13
06.312,-55.21
06.328,-52.73
06.343,-49.8
06.359,-46.75
06.375,-43.99
06.390,-41.74
06.406,-39.98
06.421,-38.51
06.437,-37.05
06.453,-35.44
06.468,-33.59
06.484,-31.53
06.500,-29.33
06.515,-27.13
06.531,-25.09
06.546,-23.46
06.562,-22.46
06.578,-22.12
06.593,-22.11
06.609,-21.65
06.625,-19.62
06.640,-14.85
06.656,-6.56
06.671,5.41
06.687,20.49
06.703,37.52
06.718,55.21
06.734,72.36
06.750,88.12
06.765,101.93
06.781,113.52
06.796,122.75
06.812,129.45
06.828,133.55
06.843,134.97
06.859,133.71
06.875,129.85
06.890,123.62
06.906,115.48
06.921,106.09
06.937,96.2
06.953,86.45
06.968,77.17
06.984,68.31
07.000,59.55
07.015,50.59
07.031,41.31
07.046,32.0
07.062,23.22
07.078,15.62
07.093,9.68
07.109,5.52
07.125,2.88
07.140,1.17
07.156,-0.38
07.171,-2.62
07.187,-6.32
07.203,-11.99
07.218,-19.71
07.234,-28.99
07.250,-38.83
07.265,-47.91
07.281,-54.91
07.296,-58.82
07.312,-59.26
07.328,-56.52
07.343,-51.43
07.359,-45.14
07.375,-38.75
07.390,-33.12
07.406,-28.73
07.421,-25.63
07.437,-23.54
07.453,-21.99
07.468,-20.43
07.484,-18.43
07.500,-15.63
07.515,-11.88
07.531,-7.1
07.546,-1.35
07.562,5.13
07.578,12.0
07.593,18.87
07.609,25.41
07.625,31.46
07.640,37.0
07.656,42.17
07.671,47.0
07.687,51.26
07.703,54.43
07.718,55.77
07.734,54.58
07.750,50.46
07.765,43.38
07.781,33.66
07.796,21.86
07.812,8.75
07.828,-4.81
07.843,-17.74
07.859,-29.02
07.875,-37.77
07.890,-43.6
07.906,-46.76
07.921,-48.13
07.937,-48.79
07.953,-49.76
07.968,-51.55
07.984,-54.15
08.000,-57.14
08.015,-59.95
08.031,-62.12
08.046,-63.33
08.062,-63.36
08.078,-62.01
08.093,-59.02
08.109,-54.15
08.125,-47.27
08.140,-38.63
08.156,-28.89
08.171,-18.93
08.187,-9.76
08.203,-2.15
08.218,3.58
08.234,7.47
08.250,9.9
08.265,11.32
08.281,12.01
08.296,12.12
08.312,11.64
08.328,10.56
08.343,8.92
08.359,6.83
08.375,4.3
08.390,1.26
08.406,-2.47
08.421,-7.01
08.437,-12.2
08.453,-17.53
08.468,-22.15
08.484,-25.06
08.500,-25.45
08.515,-22.98
08.531,-17.94
08.546,-11.08
08.562,-3.45
08.578,3.97
08.593,10.49
08.609,15.7
08.625,19.5
08.640,21.86
08.656,22.82
08.671,22.46
08.687,21.0
08.703,18.77
08.718,16.26
08.734,13.9
08.750,12.0
08.765,10.62
08.781,9.74
08.796,9.18
08.812,8.87
08.828,8.78
08.843,8.89
08.859,9.11
08.875,9.27
08.890,9.17
08.906,8.68
08.921,7.88
08.937,6.97
08.953,6.21
08.968,5.73
08.984,5.39
09.000,4.9
09.015,3.87
09.031,1.99
09.046,-0.76
09.062,-4.09
09.078,-7.35
09.093,-9.68
09.109,-10.23
09.125,-8.38
09.140,-3.95
09.156,2.74
09.171,11.0
09.187,19.92
09.203,28.66
09.218,36.61
09.234,43.4
09.250,48.85
09.265,52.8
09.281,55.21
09.296,56.13
09.312,55.81
09.328,54.68
09.343,53.22
09.359,51.83
09.375,50.72
09.390,49.96
09.406,49.45
09.421,49.1
09.437,48.82
09.453,48.55
09.468,48.26
09.484,47.89
09.500,47.41
09.515,46.75
09.531,45.91
09.546,44.82
09.562,43.39
09.578,41.55
09.593,39.29
09.609,36.69
09.625,33.99
09.640,31.41
09.656,29.11
09.671,27.15
09.687,25.37
09.703,23.62
09.718,21.78
09.734,19.83
09.750,17.88
09.765,16.09
09.781,14.57
09.796,13.36
09.812,12.38
09.828,11.49
09.843,10.55
09.859,9.48
09.875,8.26
09.890,6.95
09.906,5.61
09.921,4.22
09.937,2.77
09.953,1.22
09.968,-0.47
09.984,-2.29
10.000,-4.18
10.015,-6.07
10.031,-7.87
10.046,-9.51
10.062,-11.01
10.078,-12.41
10.093,-13.81
10.109,-15.27
10.125,-16.86
10.140,-18.59
10.156,-20.53
10.171,-22.72
10.187,-25.23
10.203,-28.08
10.218,-31.16
10.234,-34.25
10.250,-37.05
10.265,-39.39
10.281,-41.32
10.296,-43.18
10.312,-45.45
10.328,-48.58
10.343,-52.66
10.359,-57.32
10.375,-61.77
10.390,-64.94
10.406,-65.79
10.421,-63.62
10.437,-58.25
10.453,-50.05
10.468,-39.84
10.484,-28.68
10.500,-17.63
10.515,-7.6
10.531,0.79
10.546,7.24
10.562,11.72
10.578,14.37
10.593,15.48
10.609,15.44
10.625,14.71
10.640,13.79
10.656,13.04
10.671,12.66
10.687,12.63
10.703,12.75
10.718,12.74
10.734,12.45
10.750,11.9
10.765,11.24
10.781,10.67
10.796,10.26
10.812,9.86
10.828,9.26
10.843,8.28
10.859,6.9
10.875,5.24
10.890,3.5
10.906,1.74
10.921,-0.08
10.937,-2.15
10.953,-4.7
10.968,-7.8
10.984,-11.3
11.000,-14.82
11.015,-17.81
11.031,-19.61
11.046,-19.65
11.062,-17.61
11.078,-13.52
11.093,-7.77
11.109,-1.02
11.125,6.02
11.140,12.74
11.156,18.69
11.171,23.55
11.187,27.07
11.203,29.05
11.218,29.51
11.234,28.66
11.250,26.96
11.265,24.91
11.281,22.97
11.296,21.32
11.312,19.96
11.328,18.72
11.343,17.48
11.359,16.21
11.375,14.93
11.390,13.65
11.406,12.33
11.421,10.86
11.437,9.18
11.453,7.29
11.468,5.28
11.484,3.26
11.500,1.25
11.515,-0.84
11.531,-3.21
11.546,-6.13
11.562,-9.77
11.578,-14.07
11.593,-18.66
11.609,-22.89
11.625,-25.97
11.640,-27.2
11.656,-26.14
11.671,-22.75
11.687,-17.33
11.703,-10.44
11.718,-2.77
11.734,4.93
11.750,11.99
11.765,17.85
11.781,22.04
11.796,24.41
11.812,25.02
11.828,24.26
11.843,22.61
11.859,20.56
11.875,18.49
11.890,16.59
11.906,14.97
11.921,13.64
11.937,12.6
11.953,11.81
11.968,11.15
11.984,10.42
12.000,9.38
12.015,7.89
12.031,5.93
12.046,3.69
12.062,1.39
12.078,-0.79
12.093,-2.83
12.109,-4.88
12.125,-7.18
12.140,-9.98
12.156,-13.39
12.171,-17.33
12.187,-21.53
12.203,-25.5
12.218,-28.58
12.234,-30.03
12.250,-29.26
12.265,-25.99
12.281,-20.45
12.296,-13.32
12.312,-5.53
12.328,1.97
12.343,8.48
12.359,13.64
12.375,17.38
12.390,19.82
12.406,21.11
12.421,21.45
12.437,21.08
12.453,20.24
12.468,19.18
12.484,18.07
12.500,16.97
12.515,15.9
12.531,14.86
12.546,13.82
12.562,12.81
12.578,11.79
12.593,10.64
12.609,9.16
12.625,7.25
12.640,4.9
12.656,2.26
12.671,-0.42
12.687,-2.93
12.703,-5.23
12.718,-7.47
12.734,-9.9
12.750,-12.82
12.765,-16.38
12.781,-20.49
12.796,-24.82
12.812,-28.84
12.828,-31.9
12.843,-33.36
12.859,-32.69
12.875,-29.68
12.890,-24.44
12.906,-17.45
12.921,-9.51
12.937,-1.48
12.953,5.9
12.968,12.05
12.984,16.71
13.000,19.86
13.015,21.6
13.031,22.13
13.046,21.71
13.062,20.61
13.078,19.16
13.093,17.66
13.109,16.35
13.125,15.35
13.140,14.63
13.156,14.03
13.171,13.35
13.187,12.39
13.203,11.04
13.218,9.26
13.234,7.06
13.250,4.52
13.265,1.72
13.281,-1.22
13.296,-4.16
13.312,-6.98
13.328,-9.67
13.343,-12.32
13.359,-15.14
13.375,-18.36
13.390,-22.11
13.406,-26.37
13.421,-30.88
13.437,-35.17
13.453,-38.63
13.468,-40.62
13.484,-40.61
13.500,-38.29
13.515,-33.69
13.531,-27.17
13.546,-19.37
13.562,-11.03
13.578,-2.87
13.593,4.54
13.609,10.81
13.625,15.75
13.640,19.3
13.656,21.51
13.671,22.56
13.687,22.74
13.703,22.36
13.718,21.7
13.734,20.93
13.750,20.17
13.765,19.46
13.781,18.86
13.796,18.48
13.812,18.38
13.828,18.58
13.843,18.94
13.859,19.29
13.875,19.44
13.890,19.29
13.906,18.84
13.921,18.14
13.937,17.26
13.953,16.26
13.968,15.16
13.984,13.95
14.000,12.69
14.015,11.4
14.031,10.12
14.046,8.84
14.062,7.54
14.078,6.22
14.093,4.91
14.109,3.7
14.125,2.73
14.140,2.11
14.156,1.89
14.171,2.05
14.187,2.45
14.203,2.95
14.218,3.35
14.234,3.5
14.250,3.27
14.265,2.63
14.281,1.64
14.296,0.43
14.312,-0.84
14.328,-2.02
14.343,-3.05
14.359,-3.94
14.375,-4.74
14.390,-5.55
14.406,-6.36
14.421,-7.17
14.437,-7.93
14.453,-8.64
14.468,-9.33
14.484,-10.12
14.500,-11.17
14.515,-12.59
14.531,-14.43
14.546,-16.66
14.562,-19.08
14.578,-21.48
14.593,-23.65
14.609,-25.5
14.625,-27.08
14.640,-28.61
14.656,-30.37
14.671,-32.62
14.687,-35.41
14.703,-38.55
14.718,-41.58
14.734,-43.8
14.750,-44.49
14.765,-43.05
14.781,-39.24
14.796,-33.17
14.812,-25.42
14.828,-16.75
14.843,-8.07
14.859,-0.11
14.875,6.65
14.890,12.0
14.906,15.91
14.921,18.51
14.937,20.02
14.953,20.68
14.968,20.82
14.984,20.73
15.000,20.63
15.015,20.62
15.031,20.65
15.046,20.61
15.062,20.39
15.078,19.97
15.093,19.37
15.109,18.6
15.125,17.58
15.140,16.17
15.156,14.27
15.171,11.83
15.187,9.0
15.203,5.99
15.218,3.03
15.234,0.27
15.250,-2.28
15.265,-4.78
15.281,-7.44
15.296,-10.47
15.312,-13.97
15.328,-17.85
15.343,-21.75
15.359,-25.11
15.375,-27.28
15.390,-27.67
15.406,-25.95
15.421,-22.15
15.437,-16.69
15.453,-10.23
15.468,-3.56
15.484,2.68
15.500,8.07
15.515,12.36
15.531,15.5
15.546,17.49
15.562,18.35
15.578,18.18
15.593,17.18
15.609,15.64
15.625,13.92
15.640,12.34
15.656,11.1
15.671,10.19
15.687,9.5
15.703,8.82
15.718,7.99
15.734,6.91
15.750,5.52
15.765,3.81
15.781,1.76
15.796,-0.63
15.812,-3.27
15.828,-5.98
15.843,-8.6
15.859,-11.04
15.875,-13.31
15.890,-15.55
15.906,-18.0
15.921,-20.84
15.937,-24.21
15.953,-28.01
15.968,-31.92
15.984,-35.43
16.000,-37.85
16.015,-38.54
16.031,-37.05
16.046,-33.27
16.062,-27.54
16.078,-20.46
16.093,-12.81
16.109,-5.3
16.125,1.53
16.140,7.36
16.156,12.0
16.171,15.37
16.187,17.51
16.203,18.51
16.218,18.59
16.234,17.98
16.250,16.94
16.265,15.6
16.281,14.04
16.296,12.28
16.312,10.3
16.328,8.16
16.343,5.96
16.359,3.88
16.375,2.11
16.390,0.8
16.421,-0.37
16.437,-0.51
16.453,-0.7
16.468,-1.19
16.484,-2.18
16.500,-3.76
16.515,-5.94
16.531,-8.74
16.546,-12.18
16.562,-16.29
16.578,-21.02
16.593,-26.1
16.609,-31.01
16.625,-35.04
16.640,-37.41
16.656,-37.55
16.671,-35.21
16.687,-30.56
16.703,-24.1
16.718,-16.47
16.734,-8.34
16.750,-0.26
16.765,7.35
16.781,14.15
16.796,19.85
16.812,24.25
16.828,27.22
16.843,28.84
16.859,29.37
16.875,29.19
16.890,28.71
16.906,28.23
16.921,27.9
16.937,27.71
16.953,27.57
16.968,27.42
16.984,27.25
17.000,27.13
17.015,27.11
17.031,27.18
17.046,27.22
17.062,27.08
17.078,26.62
17.093,25.83
17.109,24.81
17.125,23.72
17.140,22.75
17.156,21.95
17.171,21.29
17.187,20.67
17.203,19.97
17.218,19.17
17.234,18.27
17.250,17.37
17.265,16.51
17.281,15.7
17.296,14.91
17.312,14.07
17.328,13.17
17.343,12.23
17.359,11.28
17.375,10.36
17.390,9.47
17.406,8.6
17.421,7.74
17.437,6.89
17.453,6.1
17.468,5.46
17.484,4.93
17.500,4.44
17.515,3.83
17.531,2.91
17.546,1.57
17.562,-0.15
17.578,-2.06
17.593,-3.9
17.609,-5.42
17.625,-6.6
17.640,-7.63
17.656,-8.84
17.671,-10.55
17.687,-12.92
17.703,-15.84
17.718,-18.99
17.734,-22.03
17.750,-24.69
17.765,-26.96
17.781,-28.94
17.796,-30.9
17.812,-33.03
17.828,-35.51
17.843,-38.42
17.859,-41.78
17.875,-45.39
17.890,-48.87
17.906,-51.54
17.921,-52.55
17.937,-51.16
17.953,-46.96
17.968,-40.08
17.984,-31.16
18.000,-21.2
18.015,-11.21
18.031,-1.95
18.046,6.1
18.062,12.76
18.078,18.04
18.093,21.92
18.109,24.47
18.125,25.78
18.140,26.05
18.156,25.62
18.171,24.85
18.187,24.0
18.203,23.2
18.218,22.41
18.234,21.47
18.250,20.28
18.265,18.83
18.281,17.18
18.296,15.41
18.312,13.56
18.328,11.63
18.343,9.57
18.359,7.35
18.375,4.99
18.390,2.58
18.406,0.24
18.421,-1.93
18.437,-3.99
18.453,-6.1
18.468,-8.49
18.484,-11.38
18.500,-14.78
18.515,-18.41
18.531,-21.71
18.546,-24.02
18.562,-24.76
18.578,-23.64
18.593,-20.7
18.609,-16.26
18.625,-10.77
18.640,-4.68
18.656,1.56
18.671,7.58
18.687,12.98
18.703,17.41
18.718,20.61
18.734,22.45
18.750,22.99
18.765,22.41
18.781,20.95
18.796,18.87
18.812,16.42
18.828,13.82
18.843,11.25
18.859,8.92
18.875,6.96
18.890,5.39
18.906,4.1
18.921,2.94
18.937,1.72
18.953,0.3
18.968,-1.37
18.984,-3.3
19.000,-5.44
19.015,-7.77
19.031,-10.29
19.046,-12.97
19.062,-15.71
19.078,-18.4
19.093,-20.94
19.109,-23.31
19.125,-25.62
19.140,-27.98
19.156,-30.44
19.171,-32.78
19.187,-34.51
19.203,-34.95
19.218,-33.51
19.234,-29.94
19.250,-24.43
19.265,-17.61
19.281,-10.29
19.296,-3.21
19.312,3.18
19.328,8.7
19.343,13.36
19.359,17.19
19.375,20.14
19.390,22.12
19.406,23.09
19.421,23.18
19.437,22.66
19.453,21.86
19.468,21.07
19.484,20.42
19.500,19.85
19.515,19.23
19.531,18.45
19.546,17.48
19.562,16.36
19.578,15.15
19.593,13.86
19.609,12.44
19.625,10.81
19.640,8.93
19.656,6.9
19.671,4.91
19.687,3.16
19.703,1.8
19.718,0.81
19.734,-0.04
19.750,-1.07
19.765,-2.61
19.781,-4.79
19.796,-7.46
19.812,-10.13
19.828,-12.12
19.843,-12.7
19.859,-11.38
19.875,-8.01
19.890,-2.84
19.906,3.6
19.921,10.65
19.937,17.64
19.953,24.02
19.968,29.36
19.984,33.34
20.000,35.82
20.015,36.79
20.031,36.45
20.046,35.16
20.062,33.35
20.078,31.36
20.093,29.42
20.109,27.58
20.125,25.85
20.140,24.19
20.156,22.69
20.171,21.5
20.187,20.77
20.203,20.6
20.218,20.92
20.234,21.52
20.250,22.08
20.265,22.34
20.281,22.16
20.296,21.58
20.312,20.78
20.328,19.97
20.343,19.28
20.359,18.64
20.375,17.83
20.390,16.47
20.406,14.22
20.421,10.89
20.437,6.54
20.453,1.55
20.468,-3.47
20.484,-7.62
20.500,-9.94
20.515,-9.49
20.531,-5.67
20.546,1.65
20.562,12.04
20.578,24.62
20.593,38.34
20.609,52.23
20.625,65.6
20.640,78.04
20.656,89.2
20.671,98.78
20.687,106.56
20.703,112.55
20.718,117.19
20.734,121.05
20.750,124.39
20.765,126.54
20.781,125.63
20.796,119.05
20.812,104.3
20.828,79.89
20.843,45.71
20.859,2.91
20.875,-46.44
20.890,-99.57
20.906,-152.87
20.921,-201.72
20.937,-240.93
20.953,-265.79
20.968,-273.61
20.984,-264.8
21.000,-242.82
21.015,-212.97
21.031,-180.59
21.046,-149.57
21.062,-121.86
21.078,-97.93
21.093,-77.58
21.109,-60.52
21.125,-46.5
21.140,-35.0
21.156,-25.08
21.171,-15.5
21.187,-5.09
21.203,6.9
21.218,20.76
21.234,36.29
21.250,53.0
21.265,70.04
21.281,86.19
21.296,99.91
21.312,109.61
21.328,114.09
21.343,112.88
21.359,106.19
21.375,94.84
21.390,79.92
21.406,62.57
21.421,44.02
21.437,25.72
21.453,9.43
21.468,-2.84
21.484,-9.28
21.500,-8.85
21.515,-1.87
21.531,9.81
21.546,23.22
21.562,35.14
21.578,43.12
21.593,46.08
21.609,44.38
21.625,39.12
21.640,31.4
21.656,21.85
21.671,10.63
21.687,-2.09
21.703,-15.86
21.718,-29.91
21.734,-43.7
21.750,-57.13
21.765,-70.5
21.781,-83.99
21.796,-97.05
21.812,-108.4
21.828,-116.46
21.843,-120.24
21.859,-119.92
21.875,-116.85
21.890,-112.86
21.906,-109.46
21.921,-107.3
21.937,-106.08
21.953,-105.01
21.968,-103.19
21.984,-99.99
22.000,-95.06
22.015,-88.29
22.031,-79.76
22.046,-69.74
22.062,-58.83
22.078,-47.98
22.093,-38.31
22.109,-30.79
22.125,-25.97
22.140,-23.76
22.156,-23.49
22.171,-24.17
22.187,-24.87
22.203,-24.96
22.218,-24.22
22.234,-22.8
22.250,-21.04
22.265,-19.21
22.281,-17.4
22.296,-15.49
22.312,-13.24
22.328,-10.41
22.343,-6.92
22.359,-2.89
22.375,1.42
22.390,5.61
22.406,9.37
22.421,12.49
22.437,14.93
22.453,16.76
22.468,18.08
22.484,18.94
22.500,19.34
22.515,19.25
22.531,18.64
22.546,17.58
22.562,16.09
22.578,14.26
22.593,12.21
22.609,10.14
22.625,8.37
22.640,7.34
22.656,7.61
22.671,9.62
22.687,13.59
22.703,19.38
22.718,26.49
22.734,34.21
22.750,41.79
22.765,48.63
22.781,54.38
22.796,58.9
22.812,62.22
22.828,64.45
22.843,65.69
22.859,66.04
22.875,65.64
22.890,64.59
22.906,63.02
22.921,61.08
22.937,58.92
22.953,56.66
22.968,54.46
22.984,52.43
23.000,50.66
23.015,49.17
23.031,47.95
23.046,46.89
23.062,45.87
23.078,44.74
23.093,43.32
23.109,41.49
23.125,39.18
23.140,36.46
23.156,33.47
23.171,30.47
23.187,27.66
23.203,25.22
23.218,23.13
23.234,21.25
23.250,19.42
23.265,17.48
23.281,15.41
23.296,13.32
23.312,11.36
23.328,9.67
23.343,8.25
23.359,7.05
23.375,6.01
23.390,5.09
23.406,4.36
23.421,3.82
23.437,3.45
23.453,3.14
23.468,2.78
23.484,2.27
23.500,1.6
23.515,0.82
23.531,-0.01
23.546,-0.85
23.562,-1.69
23.578,-2.49
23.593,-3.21
23.609,-3.81
23.625,-4.31
23.640,-4.83
23.656,-5.57
23.671,-6.7
23.687,-8.23
23.703,-9.98
23.718,-11.57
23.734,-12.76
23.750,-13.43
23.765,-13.78
23.781,-14.19
23.796,-15.01
23.812,-16.48
23.828,-18.53
23.843,-20.93
23.859,-23.42
23.875,-25.81
23.890,-28.06
23.906,-30.23
23.921,-32.39
23.937,-34.63
23.953,-37.03
23.968,-39.71
23.984,-42.75
24.000,-46.21
24.015,-49.89
24.031,-53.37
24.046,-55.98
24.062,-56.98
24.078,-55.79
24.093,-52.21
24.109,-46.47
24.125,-39.17
24.140,-31.13
24.156,-23.13
24.171,-15.83
24.187,-9.62
24.203,-4.73
24.218,-1.18
24.234,1.09
24.250,2.27
24.265,2.64
24.281,2.6
24.296,2.48
24.312,2.48
24.328,2.7
24.343,3.09
24.359,3.56
24.375,4.01
24.390,4.35
24.406,4.54
24.421,4.55
24.437,4.34
24.453,3.9
24.468,3.27
24.484,2.45
24.500,1.45
24.515,0.23
24.531,-1.19
24.546,-2.75
24.562,-4.25
24.578,-5.52
24.593,-6.43
24.609,-7.04
24.625,-7.63
24.640,-8.57
24.656,-10.19
24.671,-12.57
24.687,-15.53
24.703,-18.51
24.718,-20.81
24.734,-21.68
24.750,-20.59
24.765,-17.35
24.781,-12.15
24.796,-5.47
24.812,2.03
24.828,9.64
24.843,16.73
24.859,22.71
24.875,27.19
24.890,29.99
24.906,31.17
24.921,31.06
24.937,30.15
24.953,28.92
24.968,27.76
24.984,26.76
25.000,25.84
25.015,24.85
25.031,23.68
25.046,22.33
25.062,20.93
25.078,19.57
25.093,18.33
25.109,17.15
25.125,15.92
25.140,14.5
25.156,12.82
25.171,10.88
25.187,8.7
25.203,6.33
25.218,3.79
25.234,1.04
25.250,-1.95
25.265,-5.23
25.281,-8.82
25.296,-12.67
25.312,-16.71
25.328,-20.8
25.343,-24.65
25.359,-27.84
25.375,-29.81
25.390,-29.99
25.406,-27.93
25.421,-23.5
25.437,-17.01
25.453,-9.11
25.468,-0.75
25.484,7.2
25.500,14.03
25.515,19.37
25.531,23.11
25.546,25.36
25.562,26.29
25.578,26.11
25.593,25.09
25.609,23.49
25.625,21.62
25.640,19.77
25.656,18.14
25.671,16.8
25.687,15.68
25.703,14.69
25.718,13.68
25.734,12.6
25.750,11.43
25.765,10.23
25.781,8.94
25.796,7.48
25.812,5.75
25.828,3.63
25.843,1.11
25.859,-1.75
25.875,-4.8
25.890,-7.93
25.906,-11.07
25.921,-14.26
25.937,-17.66
25.953,-21.32
25.968,-25.21
25.984,-29.03
26.000,-32.27
26.015,-34.23
26.031,-34.28
26.046,-32.02
26.062,-27.36
26.078,-20.61
26.093,-12.32
26.109,-3.23
26.125,5.87
26.140,14.24
26.156,21.26
26.171,26.5
26.187,29.82
26.203,31.35
26.218,31.5
26.234,30.75
26.250,29.51
26.265,28.04
26.281,26.41
26.296,24.62
26.312,22.7
26.328,20.73
26.343,18.82
26.359,17.04
26.375,15.39
26.390,13.71
26.406,11.88
26.421,9.78
26.437,7.35
26.453,4.62
26.468,1.63
26.484,-1.54
26.500,-4.83
26.515,-8.12
26.531,-11.33
26.546,-14.43
26.562,-17.5
26.578,-20.73
26.593,-24.31
26.609,-28.37
26.625,-32.74
26.640,-37.02
26.656,-40.56
26.671,-42.59
26.687,-42.47
26.703,-39.83
26.718,-34.67
26.734,-27.33
26.750,-18.47
26.765,-8.87
26.781,0.62
26.796,9.26
26.812,16.44
26.828,21.75
26.843,25.03
26.859,26.38
26.875,26.11
26.890,24.67
26.906,22.54
26.921,20.12
26.937,17.67
26.953,15.36
26.968,13.28
26.984,11.45
27.000,9.89
27.015,8.59
27.031,7.48
27.046,6.44
27.062,5.34
27.078,4.0
27.093,2.34
27.109,0.32
27.125,-1.98
27.140,-4.45
27.156,-6.95
27.171,-9.37
27.187,-11.64
27.203,-13.77
27.218,-15.81
27.234,-17.84
27.250,-20.03
27.265,-22.52
27.281,-25.39
27.296,-28.53
27.312,-31.59
27.328,-33.98
27.343,-35.0
27.359,-34.07
27.375,-30.88
27.390,-25.54
27.406,-18.54
27.421,-10.59
27.437,-2.46
27.453,5.15
27.468,11.78
27.484,17.12
27.500,21.02
27.515,23.45
27.531,24.5
27.546,24.3
27.562,23.15
27.578,21.37
27.593,19.33
27.609,17.35
27.625,15.67
27.640,14.4
27.656,13.51
27.671,12.93
27.687,12.57
27.703,12.36
27.718,12.23
27.734,12.1
27.750,11.77
27.765,11.02
27.781,9.66
27.796,7.66
27.812,5.16
27.828,2.43
27.843,-0.19
27.859,-2.52
27.875,-4.51
27.890,-6.29
27.906,-8.12
27.921,-10.26
27.937,-12.89
27.953,-15.98
27.968,-19.24
27.984,-22.09
28.000,-23.84
28.015,-23.77
28.031,-21.44
28.046,-16.84
28.062,-10.38
28.078,-2.85
28.093,4.9
28.109,12.04
28.125,17.98
28.140,22.41
28.156,25.23
28.171,26.6
28.187,26.9
28.203,26.57
28.218,26.03
28.234,25.57
28.250,25.22
28.265,24.83
28.281,24.23
28.296,23.27
28.312,21.96
28.328,20.43
28.343,18.9
28.359,17.53
28.375,16.38
28.390,15.37
28.406,14.32
28.421,13.0
28.437,11.23
28.453,8.94
28.468,6.22
28.484,3.32
28.500,0.46
28.515,-2.15
28.531,-4.49
28.546,-6.67
28.562,-8.9
28.578,-11.36
28.593,-14.2
28.609,-17.42
28.625,-20.9
28.640,-24.27
28.656,-27.01
28.671,-28.47
28.687,-28.04
28.703,-25.35
28.718,-20.45
28.734,-13.76
28.750,-6.03
28.765,1.87
28.781,9.2
28.796,15.41
28.812,20.23
28.828,23.58
28.843,25.55
28.859,26.3
28.875,26.08
28.890,25.13
28.906,23.7
28.921,22.06
28.937,20.39
28.953,18.87
28.968,17.58
28.984,16.55
29.000,15.74
29.015,15.05
29.031,14.38
29.046,13.59
29.062,12.59
29.078,11.26
29.093,9.58
29.109,7.52
29.125,5.15
29.140,2.51
29.156,-0.28
29.171,-3.19
29.187,-6.15
29.203,-9.12
29.218,-12.07
29.234,-15.0
29.250,-17.94
29.265,-20.97
29.281,-24.14
29.296,-27.37
29.312,-30.41
29.328,-32.77
29.343,-33.89
29.359,-33.2
29.375,-30.4
29.390,-25.54
29.406,-19.02
29.421,-11.54
29.437,-3.85
29.453,3.41
29.468,9.75
29.484,14.93
29.500,18.89
29.515,21.68
29.531,23.41
29.546,24.27
29.562,24.44
29.578,24.14
29.593,23.53
29.609,22.72
29.625,21.83
29.640,20.87
29.656,19.97
29.671,19.19
29.687,18.64
29.703,18.29
29.718,18.07
29.734,17.82
29.750,17.37
29.765,16.65
29.781,15.65
29.796,14.42
29.812,13.05
29.828,11.62
29.843,10.18
29.859,8.77
29.875,7.41
29.890,6.15
29.906,5.03
29.921,4.09
29.937,3.31
29.953,2.65
29.968,2.05
29.984,1.43
30.000,0.75
30.015,0.06
30.031,-0.59
30.046,-1.07
30.062,-1.34
30.078,-1.45
30.093,-1.5
30.109,-1.59
30.125,-1.77
30.140,-2.03
30.156,-2.26
30.171,-2.46
30.187,-2.64
30.203,-2.9
30.218,-3.25
30.234,-3.68
30.250,-4.1
30.265,-4.44
30.281,-4.76
30.296,-5.12
30.312,-5.64
30.328,-6.3
30.343,-6.96
30.359,-7.45
30.375,-7.62
30.390,-7.5
30.406,-7.28
30.421,-7.25
30.437,-7.68
30.453,-8.65
30.468,-10.05
30.484,-11.63
30.500,-13.13
30.515,-14.36
30.531,-15.28
30.546,-15.99
30.562,-16.72
30.578,-17.73
30.593,-19.23
30.609,-21.21
30.625,-23.34
30.640,-24.91
30.656,-25.02
30.671,-22.88
30.687,-18.19
30.703,-11.52
30.718,-4.26
30.734,1.59
30.750,4.06
30.765,1.8
30.781,-5.47
30.796,-16.9
30.812,-30.84
30.828,-45.23
30.843,-58.08
30.859,-67.78
30.875,-73.18
30.890,-73.77
30.906,-69.72
30.921,-61.89
30.937,-51.67
30.953,-40.69
30.968,-30.29
30.984,-21.07
31.000,-12.73
31.015,-4.15
31.031,6.03
31.046,18.77
31.062,34.07
31.078,50.74
31.093,66.62
31.109,79.23
31.125,86.44
31.140,87.04
31.156,80.92
31.171,68.84
31.187,52.02
31.203,31.81
31.218,9.71
31.234,-12.41
31.250,-32.18
31.265,-46.86
31.281,-54.05
31.296,-52.39
31.312,-42.15
31.328,-25.17
31.343,-4.3
31.359,17.42
31.375,37.22
31.390,52.62
31.406,61.38
31.421,61.8
31.437,53.32
31.453,37.17
31.468,16.31
31.484,-5.38
31.500,-24.52
31.515,-39.35
31.531,-50.07
31.546,-58.15
31.562,-65.21
31.578,-72.08
31.593,-78.67
31.609,-84.35
31.625,-88.46
31.640,-90.59
31.656,-90.37
31.671,-87.27
31.687,-80.63
31.703,-70.1
31.718,-56.19
31.734,-40.38
31.750,-24.84
31.765,-11.7
31.781,-2.45
31.796,2.46
31.812,3.47
31.828,1.63
31.843,-1.92
31.859,-6.21
31.875,-10.55
31.890,-14.49
31.906,-17.71
31.921,-20.02
31.937,-21.29
31.953,-21.54
31.968,-20.79
31.984,-19.09
32.000,-16.41
32.015,-12.67
32.031,-7.86
32.046,-2.04
32.062,4.63
32.078,12.05
32.093,20.19
32.109,29.06
32.125,38.49
32.140,47.95
32.156,56.6
32.171,63.36
32.187,67.43
32.203,68.59
32.218,67.4
32.234,65.01
32.250,62.78
32.265,61.91
32.281,63.24
32.296,67.33
32.312,74.48
32.328,84.66
32.343,97.12
32.359,109.95
32.375,120.03
32.390,123.55
32.406,117.07
32.421,98.83
32.437,69.61
32.453,32.61
32.468,-7.36
32.484,-45.43
32.500,-77.93
32.515,-102.95
32.531,-120.2
32.546,-130.24
32.562,-133.8
32.578,-131.4
32.593,-123.63
32.609,-111.42
32.625,-96.23
32.640,-79.8
32.656,-63.62
32.671,-48.46
32.687,-34.32
32.703,-20.69
32.718,-7.06
32.734,6.64
32.750,20.05
32.765,32.53
32.781,43.5
32.796,52.67
32.812,59.98
32.828,65.51
32.843,69.25
32.859,70.97
32.875,70.1
32.890,65.97
32.906,57.93
32.921,45.75
32.937,29.78
32.953,11.03
32.968,-9.12
32.984,-29.26
33.000,-48.48
33.015,-66.54
33.031,-83.79
33.046,-100.97
33.062,-118.73
33.078,-137.3
33.093,-156.28
33.109,-174.64
33.125,-190.89
33.140,-203.36
33.156,-210.54
33.171,-211.39
33.187,-205.52
33.203,-193.24
33.218,-175.42
33.234,-153.31
33.250,-128.39
33.265,-102.18
33.281,-76.17
33.296,-51.64
33.312,-29.51
33.328,-10.24
33.343,6.19
33.359,20.27
33.375,32.65
33.390,44.01
33.406,54.87
33.421,65.49
33.437,75.87
33.453,85.85
33.468,95.21
33.484,103.79
33.500,111.56
33.515,118.57
33.531,124.86
33.546,130.44
33.562,135.14
33.578,138.66
33.593,140.69
33.609,141.11
33.625,140.16
33.640,138.4
33.656,136.64
33.671,135.56
33.687,135.34
33.703,135.22
33.718,133.62
33.734,128.45
33.750,117.68
33.765,100.23
33.781,76.49
33.796,48.43
33.812,19.27
33.828,-7.17
33.843,-27.29
33.859,-38.55
33.875,-40.27
33.890,-33.96
33.906,-22.95
33.921,-11.55
33.937,-3.89
33.953,-2.88
33.968,-9.56
33.984,-22.85
34.000,-39.65
34.015,-55.42
34.031,-65.02
34.046,-64.04
34.062,-50.28
34.078,-24.57
34.093,9.12
34.109,44.96
34.125,77.31
34.140,102.51
34.156,119.81
34.171,130.93
34.187,138.75
34.203,145.77
34.218,153.4
34.234,162.0
34.250,171.25
34.265,180.64
34.281,189.86
34.296,198.86
34.312,207.98
34.328,217.84
34.343,229.27
34.359,243.06
34.375,259.73
34.390,279.3
34.406,301.18
34.421,324.06
34.437,345.91
34.453,364.11
34.468,375.73
34.484,378.24
34.500,370.3
34.515,352.37
34.531,326.73
34.546,296.88
34.562,266.48
34.578,238.29
34.593,213.66
34.609,192.49
34.625,173.86
34.640,156.69
34.656,140.21
34.671,123.97
34.687,107.71
34.703,91.14
34.718,73.9
34.734,55.69
34.750,36.48
34.765,16.74
34.781,-2.61
34.796,-20.47
34.812,-35.87
34.828,-48.43
34.843,-58.41
34.859,-66.64
34.875,-74.24
34.890,-82.15
34.906,-90.86
34.921,-100.39
34.937,-110.48
34.953,-120.87
34.968,-131.54
34.984,-142.84
35.000,-155.27
35.015,-169.4
35.031,-185.72
35.046,-204.66
35.062,-226.36
35.078,-250.33
35.093,-275.09
35.109,-297.96
35.125,-315.61
35.140,-325.0
35.156,-324.45
35.171,-314.44
35.187,-297.42
35.203,-276.79
35.218,-255.67
35.234,-235.89
35.250,-217.88
35.265,-201.16
35.281,-185.23
35.296,-169.98
35.312,-155.77
35.328,-142.94
35.343,-131.49
35.359,-120.97
35.375,-110.84
35.390,-100.86
35.406,-91.32
35.421,-82.93
35.437,-76.45
35.453,-72.2
35.468,-69.82
35.484,-68.3
35.500,-66.45
35.515,-63.29
35.531,-58.47
35.546,-52.33
35.562,-45.63
35.578,-39.19
35.593,-33.48
35.609,-28.46
35.625,-23.67
35.640,-18.54
35.656,-12.68
35.671,-6.09
35.687,0.81
35.703,7.37
35.718,13.02
35.734,17.35
35.750,20.2
35.765,21.6
35.781,21.59
35.796,20.27
35.812,17.79
35.828,14.46
35.843,10.82
35.859,7.57
35.875,5.27
35.890,4.12
35.906,3.8
35.921,3.64
35.937,2.84
35.953,0.91
35.968,-2.25
35.984,-6.28
36.000,-10.68
36.015,-15.07
36.031,-19.35
36.046,-23.49
36.062,-27.37
36.078,-30.49
36.093,-32.07
36.109,-31.27
36.125,-27.46
36.140,-20.43
36.156,-10.43
36.171,2.01
36.187,15.91
36.203,29.69
36.218,40.92
36.234,46.48
36.250,43.33
36.265,29.64
36.281,5.92
36.296,-24.73
36.312,-57.37
36.328,-86.72
36.343,-108.8
36.359,-121.87
36.375,-126.34
36.390,-123.97
36.406,-116.79
36.421,-106.44
36.437,-94.17
36.453,-81.04
36.468,-68.37
36.484,-57.59
36.500,-49.95
36.515,-46.0
36.531,-45.42
36.546,-47.22
36.562,-50.21
36.578,-53.6
36.593,-57.17
36.609,-61.16
36.625,-65.94
36.640,-71.62
36.656,-77.85
36.671,-83.79
36.687,-88.37
36.703,-90.44
36.718,-89.02
36.734,-83.59
36.750,-74.29
36.765,-62.05
36.781,-48.37
36.796,-34.97
36.812,-23.32
36.828,-14.29
36.843,-8.02
36.859,-4.29
36.875,-2.84
36.890,-3.54
36.906,-6.55
36.921,-11.9
36.937,-19.39
36.953,-28.43
36.968,-38.1
36.984,-47.47
37.000,-55.73
37.015,-62.4
37.031,-67.28
37.046,-70.4
37.062,-71.92
37.078,-72.13
37.093,-71.48
37.109,-70.55
37.125,-70.05
37.140,-70.67
37.156,-72.92
37.171,-76.97
37.187,-82.67
37.203,-89.58
37.218,-97.06
37.234,-104.59
37.250,-111.78
37.265,-118.6
37.281,-125.36
37.296,-132.61
37.312,-140.84
37.328,-150.02
37.343,-159.31
37.359,-167.04
37.375,-171.08
37.390,-169.57
37.406,-161.51
37.421,-147.17
37.437,-127.87
37.453,-105.49
37.468,-81.89
37.484,-58.56
37.500,-36.55
37.515,-16.72
37.531,0.16
37.546,13.44
37.562,22.84
37.578,28.67
37.593,31.93
37.609,34.14
37.625,36.79
37.640,41.0
37.656,47.12
37.671,54.76
37.687,62.93
37.703,70.45
37.718,76.24
37.734,79.59
37.750,80.22
37.765,78.27
37.781,74.14
37.796,68.42
37.812,61.76
37.828,54.8
37.843,48.11
37.859,42.1
37.875,36.92
37.890,32.35
37.906,27.87
37.921,22.71
37.937,16.28
37.953,8.38
37.968,-0.46
37.984,-9.15
38.000,-16.22
38.015,-20.35
38.031,-20.81
38.046,-17.62
38.062,-11.57
38.078,-3.91
38.093,3.98
38.109,10.92
38.125,16.03
38.140,18.85
38.156,19.35
38.171,17.72
38.187,14.4
38.203,9.93
38.218,4.82
38.234,-0.58
38.250,-6.1
38.265,-11.79
38.281,-17.67
38.296,-23.6
38.312,-29.13
38.328,-33.46
38.343,-35.65
38.359,-34.94
38.375,-31.03
38.390,-24.25
38.406,-15.52
38.421,-6.06
38.437,2.95
38.453,10.6
38.468,16.42
38.484,20.26
38.500,22.17
38.515,22.18
38.531,20.32
38.546,16.68
38.562,11.65
38.578,6.11
38.593,1.42
38.609,-0.74
38.625,1.09
38.640,7.78
38.656,19.27
38.671,34.55
38.687,51.92
38.703,69.47
38.718,85.61
38.734,99.3
38.750,110.34
38.765,119.12
38.781,126.45
38.796,133.2
38.812,139.97
38.828,146.87
38.843,153.45
38.859,158.77
38.875,161.54
38.890,160.44
38.906,154.32
38.921,142.55
38.937,125.36
38.953,103.98
38.968,80.68
38.984,58.35
39.000,39.88
39.015,27.21
39.031,20.82
39.046,19.51
39.062,20.9
39.078,22.16
39.093,20.95
39.109,15.91
39.125,6.75
39.140,-5.99
39.156,-21.41
39.171,-38.45
39.187,-55.96
39.203,-72.64
39.218,-86.94
39.234,-97.3
39.250,-102.44
39.265,-101.81
39.281,-95.7
39.296,-85.32
39.312,-72.39
39.328,-58.7
39.343,-45.7
39.359,-34.17
39.375,-24.25
39.390,-15.54
39.406,-7.45
39.421,0.54
39.437,8.68
39.453,16.94
39.468,25.17
39.484,33.27
39.500,41.32
39.515,49.56
39.531,58.26
39.546,67.51
39.562,77.13
39.578,86.71
39.593,95.61
39.609,103.27
39.625,109.24
39.640,113.41
39.656,116.0
39.671,117.6
39.687,119.02
39.703,121.19
39.718,125.1
39.734,131.5
39.750,140.96
39.765,153.58
39.781,168.99
39.796,186.27
39.812,204.07
39.828,220.95
39.843,235.84
39.859,248.5
39.875,259.64
39.890,270.74
39.906,283.43
39.921,298.77
39.937,316.81
39.953,336.53
39.968,356.21
39.984,374.01
40.000,388.42
40.015,398.36
40.031,403.09
40.046,401.9
40.062,394.17
40.078,379.61
40.093,358.58
40.109,332.39
40.125,303.09
40.140,272.98
40.156,243.89
40.171,216.69
40.187,191.11
40.203,166.12
40.218,140.53
40.234,113.54
40.250,85.14
40.265,55.96
40.281,26.96
40.296,-1.06
40.312,-27.8
40.328,-53.55
40.343,-78.98
40.359,-104.78
40.375,-131.23
40.390,-158.05
40.406,-184.47
40.421,-209.61
40.437,-232.82
40.453,-254.08
40.468,-273.9
40.484,-293.26
40.500,-313.37
40.515,-335.53
40.531,-360.88
40.546,-390.08
40.562,-422.55
40.578,-455.92
40.593,-485.98
40.609,-507.59
40.625,-516.19
40.640,-509.52
40.656,-488.46
40.671,-456.62
40.687,-419.0
40.703,-380.2
40.718,-343.25
40.734,-309.37
40.750,-278.57
40.765,-250.5
40.781,-224.91
40.796,-201.73
40.812,-180.69
40.828,-161.21
40.843,-142.5
40.859,-123.95
40.875,-105.49
40.890,-87.54
40.906,-70.86
40.921,-56.09
40.937,-43.3
40.953,-32.0
40.968,-21.27
40.984,-10.29
41.000,1.2
41.015,12.7
41.031,23.08
41.046,31.14
41.062,36.21
41.078,38.67
41.093,39.94
41.109,42.12
41.125,47.21
41.140,56.39
41.156,69.68
41.171,86.16
41.187,104.43
41.203,123.34
41.218,142.35
41.234,161.54
41.250,181.19
41.265,201.28
41.281,221.19
41.296,239.44
41.312,253.64
41.328,260.61
41.343,256.97
41.359,240.06
41.375,209.09
41.390,166.04
41.406,115.5
41.421,63.7
41.437,16.64
41.453,-21.74
41.468,-50.57
41.484,-71.84
41.500,-88.99
41.515,-105.11
41.531,-121.45
41.546,-137.08
41.562,-149.66
41.578,-156.83
41.593,-157.41
41.609,-151.83
41.625,-141.73
41.640,-128.99
41.656,-114.87
41.671,-99.74
41.687,-83.36
41.703,-65.74
41.718,-47.57
41.734,-30.1
41.750,-14.45
41.765,-0.89
41.781,11.55
41.796,24.59
41.812,39.8
41.828,57.84
41.843,77.9
41.859,98.07
41.875,116.04
41.890,130.09
41.906,139.65
41.921,145.32
41.937,148.45
41.953,150.41
41.968,152.07
41.984,153.59
42.000,154.63
42.015,154.7
42.031,153.47
42.046,150.87
42.062,146.94
42.078,141.78
42.093,135.34
42.109,127.55
42.125,118.38
42.140,108.0
42.156,96.79
42.171,85.22
42.187,73.77
42.203,62.77
42.218,52.29
42.234,42.21
42.250,32.25
42.265,22.05
42.281,11.33
42.296,-0.09
42.312,-12.28
42.328,-25.1
42.343,-38.18
42.359,-50.84
42.375,-62.14
42.390,-70.97
42.406,-76.28
42.421,-77.32
42.437,-73.9
42.453,-66.44
42.468,-55.87
42.484,-43.51
42.500,-30.75
42.515,-18.84
42.531,-8.74
42.546,-1.01
42.562,4.13
42.578,6.77
42.593,7.09
42.609,5.33
42.625,1.68
42.640,-3.72
42.656,-10.65
42.671,-18.67
42.687,-27.16
42.703,-35.34
42.718,-42.59
42.734,-48.6
42.750,-53.47
42.765,-57.6
42.781,-61.44
42.796,-65.33
42.812,-69.29
42.828,-73.15
42.843,-76.64
42.859,-79.54
42.875,-81.79
42.890,-83.43
42.906,-84.62
42.921,-85.58
42.937,-86.54
42.953,-87.73
42.968,-89.28
42.984,-91.06
43.000,-92.57
43.015,-92.95
43.031,-91.17
43.046,-86.37
43.062,-78.26
43.078,-67.26
43.093,-54.49
43.109,-41.49
43.125,-29.72
43.140,-20.22
43.156,-13.37
43.171,-8.94
43.187,-6.39
43.203,-5.12
43.218,-4.71
43.234,-4.95
43.250,-5.76
43.265,-7.02
43.281,-8.52
43.296,-10.03
43.312,-11.31
43.328,-12.31
43.343,-13.13
43.359,-14.07
43.375,-15.44
43.390,-17.47
43.406,-20.13
43.421,-23.16
43.437,-26.14
43.453,-28.59
43.468,-30.2
43.484,-30.89
43.500,-30.87
43.515,-30.54
43.531,-30.34
43.546,-30.68
43.562,-31.82
43.578,-33.95
43.593,-37.06
43.609,-40.85
43.625,-44.64
43.640,-47.35
43.656,-47.7
43.671,-44.57
43.687,-37.4
43.703,-26.5
43.718,-13.07
43.734,1.16
43.750,14.41
43.765,25.34
43.781,33.43
43.796,38.85
43.812,42.26
43.828,44.39
43.843,45.73
43.859,46.48
43.875,46.63
43.890,46.14
43.906,45.05
43.921,43.58
43.937,41.97
43.953,40.4
43.968,38.84
43.984,37.15
44.000,35.12
44.015,32.63
44.031,29.67
44.046,26.35
44.062,22.85
44.078,19.27
44.093,15.58
44.109,11.64
44.125,7.3
44.140,2.41
44.156,-3.03
44.171,-8.94
44.187,-15.22
44.203,-21.81
44.218,-28.59
44.234,-35.28
44.250,-41.31
44.265,-45.79
44.281,-47.66
44.296,-46.08
44.312,-40.77
44.328,-32.12
44.343,-21.14
44.359,-9.06
44.375,3.02
44.390,14.38
44.406,24.63
44.421,33.64
44.437,41.24
44.453,47.24
44.468,51.48
44.484,53.89
44.500,54.63
44.515,54.12
44.531,52.81
44.546,51.06
44.562,49.1
44.578,46.89
44.593,44.29
44.609,41.03
44.625,36.96
44.640,32.04
44.656,26.43
44.671,20.4
44.687,14.27
44.703,8.26
44.718,2.44
44.734,-3.14
44.750,-8.57
44.765,-13.92
44.781,-19.3
44.796,-24.91
44.812,-30.97
44.828,-37.64
44.843,-44.77
44.859,-51.75
44.875,-57.54
44.890,-60.9
44.906,-60.8
44.921,-56.76
44.937,-49.02
44.953,-38.44
44.968,-26.17
44.984,-13.36
45.000,-0.97
45.015,10.4
45.031,20.31
45.046,28.44
45.062,34.57
45.078,38.51
45.093,40.26
45.109,39.96
45.125,38.01
45.140,34.94
45.156,31.38
45.171,27.87
45.187,24.78
45.203,22.15
45.218,19.84
45.234,17.57
45.250,15.18
45.265,12.62
45.281,9.99
45.296,7.43
45.312,4.94
45.328,2.43
45.343,-0.31
45.359,-3.46
45.375,-7.11
45.390,-11.33
45.406,-16.2
45.421,-21.87
45.437,-28.42
45.453,-35.75
45.468,-43.28
45.484,-49.99
45.500,-54.59
45.515,-55.92
45.531,-53.35
45.546,-47.04
45.562,-37.87
45.578,-27.16
45.593,-16.32
45.609,-6.48
45.625,1.7
45.640,7.92
45.656,12.17
45.671,14.51
45.687,15.04
45.703,13.91
45.718,11.37
45.734,7.87
45.750,4.0
45.765,0.33
45.781,-2.65
45.796,-4.69
45.812,-5.81
45.828,-6.16
45.843,-5.95
45.859,-5.35
45.875,-4.54
45.890,-3.7
45.906,-3.06
45.921,-2.89
45.937,-3.39
45.953,-4.67
45.968,-6.67
45.984,-9.22
46.000,-12.18
46.015,-15.54
46.031,-19.39
46.046,-23.92
46.062,-29.16
46.078,-34.78
46.093,-40.03
46.109,-43.75
46.125,-44.66
46.140,-41.73
46.156,-34.58
46.171,-23.66
46.187,-10.17
46.203,4.17
46.218,17.74
46.234,29.27
46.250,38.12
46.265,44.26
46.281,47.96
46.296,49.66
46.312,49.7
46.328,48.39
46.343,45.99
46.359,42.85
46.375,39.45
46.390,36.26
46.406,33.7
46.421,31.96
46.437,30.94
46.453,30.25
46.468,29.4
46.484,27.91
46.500,25.57
46.515,22.44
46.531,18.79
46.546,14.95
46.562,11.16
46.578,7.42
46.593,3.56
46.609,-0.63
46.625,-5.31
46.640,-10.56
46.656,-16.4
46.671,-22.82
46.687,-29.75
46.703,-36.94
46.718,-43.72
46.734,-49.03
46.750,-51.56
46.765,-50.1
46.781,-44.07
46.796,-33.8
46.812,-20.46
46.828,-5.75
46.843,8.69
46.859,21.71
46.875,32.77
46.890,41.82
46.906,49.01
46.921,54.43
46.937,58.11
46.953,60.14
46.968,60.84
46.984,60.69
47.000,60.21
47.015,59.76
47.031,59.4
47.046,58.91
47.062,58.02
47.078,56.53
47.093,54.43
47.109,51.86
47.125,48.99
47.140,45.87
47.156,42.46
47.171,38.63
47.187,34.29
47.203,29.4
47.218,24.05
47.234,18.44
47.250,12.84
47.265,7.51
47.281,2.6
47.296,-1.9
47.312,-6.21
47.328,-10.67
47.343,-15.66
47.359,-21.23
47.375,-26.95
47.390,-31.84
47.406,-34.58
47.421,-33.98
47.437,-29.34
47.453,-20.84
47.468,-9.39
47.484,3.56
47.500,16.51
47.515,28.18
47.531,37.83
47.546,45.09
47.562,49.99
47.578,52.74
47.593,53.67
47.609,53.21
47.625,51.79
47.640,49.81
47.656,47.6
47.671,45.35
47.687,43.16
47.703,41.07
47.718,39.09
47.734,37.19
47.750,35.3
47.765,33.31
47.781,31.05
47.796,28.36
47.812,25.12
47.828,21.29
47.843,16.96
47.859,12.28
47.875,7.42
47.890,2.52
47.906,-2.33
47.921,-7.14
47.937,-11.97
47.953,-16.98
47.968,-22.37
47.984,-28.33
48.000,-34.95
48.015,-41.98
48.031,-48.77
48.046,-54.27
48.062,-57.31
48.078,-56.9
48.093,-52.57
48.109,-44.57
48.125,-33.81
48.140,-21.67
48.156,-9.58
48.171,1.27
48.187,10.16
48.203,16.79
48.218,21.18
48.234,23.49
48.250,24.02
48.265,23.06
48.281,20.95
48.296,18.1
48.312,14.97
48.328,11.91
48.343,9.21
48.359,7.0
48.375,5.26
48.390,3.89
48.406,2.75
48.421,1.63
48.437,0.35
48.453,-1.26
48.468,-3.33
48.484,-5.86
48.500,-8.75
48.515,-11.81
48.531,-14.84
48.546,-17.68
48.562,-20.29
48.578,-22.74
48.593,-25.25
48.609,-28.12
48.625,-31.6
48.640,-35.87
48.656,-40.77
48.671,-45.74
48.687,-49.83
48.703,-51.86
48.718,-50.83
48.734,-46.2
48.750,-38.15
48.765,-27.58
48.781,-15.81
48.796,-4.2
48.812,6.2
48.828,14.81
48.843,21.44
48.859,26.15
48.875,29.01
48.890,30.08
48.906,29.53
48.921,27.65
48.937,24.96
48.953,22.09
48.968,19.55
48.984,17.64
49.000,16.38
49.015,15.58
49.031,14.98
49.046,14.4
49.062,13.73
49.078,12.88
49.093,11.74
49.109,10.16
49.125,8.0
49.140,5.23
49.156,1.93
49.171,-1.69
49.187,-5.43
49.203,-9.15
49.218,-12.81
49.234,-16.45
49.250,-20.27
49.265,-24.48
49.281,-29.3
49.296,-34.82
49.312,-40.81
49.328,-46.6
49.343,-51.2
49.359,-53.5
49.375,-52.6
49.390,-48.23
49.406,-40.83
49.421,-31.39
49.437,-21.21
49.453,-11.42
49.468,-2.81
49.484,4.28
49.500,9.8
49.515,13.8
49.531,16.33
49.546,17.43
49.562,17.21
49.578,15.88
49.593,13.76
49.609,11.3
49.625,8.87
49.640,6.76
49.656,5.06
49.671,3.7
49.687,2.52
49.703,1.32
49.718,-0.06
49.734,-1.81
49.750,-4.0
49.765,-6.73
49.781,-9.89
49.796,-13.33
49.812,-16.78
49.828,-19.95
49.843,-22.64
49.859,-24.87
49.875,-26.78
49.890,-28.74
49.906,-31.13
49.921,-34.21
49.937,-38.06
49.953,-42.47
49.968,-46.83
49.984,-50.23
50.000,-51.59
50.015,-49.95
50.031,-44.72
50.046,-35.95
50.062,-24.33
50.078,-11.01
50.093,2.68
50.109,15.55
50.125,26.68
50.140,35.6
50.156,42.16
50.171,46.45
50.187,48.68
50.203,49.2
50.218,48.42
50.234,46.83
50.250,44.91
50.265,43.04
50.281,41.42
50.296,40.08
50.312,38.83
50.328,37.45
50.343,35.77
50.359,33.76
50.375,31.52
50.390,29.17
50.406,26.74
50.421,24.17
50.437,21.29
50.453,17.93
50.468,14.03
50.484,9.69
50.500,5.08
50.515,0.39
50.531,-4.31
50.546,-9.18
50.562,-14.43
50.578,-20.31
50.593,-26.83
50.609,-33.62
50.625,-39.89
50.640,-44.59
50.656,-46.67
50.671,-45.43
50.687,-40.73
50.703,-32.99
50.718,-23.13
50.734,-12.24
50.750,-1.41
50.765,8.46
50.781,16.74
50.796,23.11
50.812,27.47
50.828,29.94
50.843,30.78
50.859,30.32
50.875,28.9
50.890,26.88
50.906,24.57
50.921,22.27
50.937,20.24
50.953,18.66
50.968,17.61
50.984,16.98
51.000,16.59
51.015,16.22
51.031,15.68
51.046,14.84
51.062,13.62
51.078,11.94
51.093,9.77
51.109,7.1
51.125,3.98
51.140,0.57
51.156,-2.92
51.171,-6.31
51.187,-9.57
51.203,-12.82
51.218,-16.32
51.234,-20.35
51.250,-25.01
51.265,-30.09
51.281,-35.0
51.296,-38.84
51.312,-40.63
51.328,-39.62
51.343,-35.55
51.359,-28.76
51.375,-20.06
51.390,-10.56
51.406,-1.29
51.421,6.94
51.437,13.63
51.453,18.55
51.468,21.68
51.484,23.09
51.500,23.0
51.515,21.68
51.531,19.51
51.546,16.87
51.562,14.14
51.578,11.56
51.593,9.33
51.609,7.55
51.625,6.23
51.640,5.32
51.656,4.69
51.671,4.12
51.687,3.38
51.703,2.31
51.718,0.84
51.734,-1.0
51.750,-3.12
51.765,-5.42
51.781,-7.83
51.796,-10.35
51.812,-12.96
51.828,-15.72
51.843,-18.67
51.859,-21.9
51.875,-25.56
51.890,-29.7
51.906,-34.25
51.921,-38.83
51.937,-42.71
51.953,-44.99
51.968,-44.77
51.984,-41.49
52.000,-35.13
52.015,-26.25
52.031,-15.85
52.046,-5.1
52.062,4.9
52.078,13.39
52.093,19.93
52.109,24.4
52.125,26.93
52.140,27.72
52.156,27.12
52.171,25.55
52.187,23.48
52.203,21.37
52.218,19.58
52.234,18.27
52.250,17.4
52.265,16.82
52.281,16.35
52.296,15.87
52.312,15.29
52.328,14.58
52.343,13.6
52.359,12.21
52.375,10.23
52.390,7.55
52.406,4.19
52.421,0.33
52.437,-3.75
52.453,-7.79
52.468,-11.57
52.484,-14.97
52.500,-18.08
52.515,-21.13
52.531,-24.47
52.546,-28.37
52.562,-32.86
52.578,-37.57
52.593,-41.69
52.609,-44.09
52.625,-43.68
52.640,-39.81
52.656,-32.51
52.671,-22.55
52.687,-11.23
52.703,0.01
52.718,9.97
52.734,17.91
52.750,23.59
52.765,27.15
52.781,28.87
52.796,29.14
52.812,28.31
52.828,26.76
52.843,24.89
52.859,23.06
52.875,21.49
52.890,20.27
52.906,19.33
52.921,18.45
52.937,17.45
52.953,16.19
52.968,14.65
52.984,12.83
53.000,10.76
53.015,8.39
53.031,5.66
53.046,2.55
53.062,-0.94
53.078,-4.75
53.093,-8.79
53.109,-12.98
53.125,-17.24
53.140,-21.53
53.156,-25.87
53.171,-30.29
53.187,-34.83
53.203,-39.49
53.218,-44.15
53.234,-48.45
53.250,-51.7
53.265,-53.0
53.281,-51.42
53.296,-46.31
53.312,-37.56
53.328,-25.71
53.343,-11.82
53.359,2.78
53.375,16.9
53.390,29.66
53.406,40.65
53.421,49.75
53.437,57.02
53.453,62.53
53.468,66.32
53.484,68.45
53.500,69.07
53.515,68.39
53.531,66.66
53.546,64.06
53.562,60.62
53.578,56.28
53.593,51.0
53.609,44.8
53.625,37.86
53.640,30.46
53.656,22.91
53.671,15.46
53.687,8.41
53.703,2.02
53.718,-3.41
53.734,-7.61
53.750,-10.42
53.765,-11.94
53.781,-12.46
53.796,-12.55
53.812,-12.83
53.828,-13.92
53.843,-16.28
53.859,-20.11
53.875,-25.28
53.890,-31.18
53.906,-36.71
53.921,-40.45
53.937,-40.97
53.953,-37.25
53.968,-29.17
53.984,-17.56
54.000,-4.05
54.015,9.46
54.031,21.39
54.046,30.84
54.062,37.62
54.078,41.97
54.093,44.29
54.109,44.85
54.125,43.78
54.140,41.22
54.156,37.45
54.171,32.94
54.187,28.28
54.203,23.98
54.218,20.4
54.234,17.65
54.250,15.6
54.265,14.02
54.281,12.57
54.296,10.93
54.312,8.85
54.328,6.19
54.343,2.93
54.359,-0.84
54.375,-4.99
54.390,-9.4
54.406,-13.95
54.421,-18.63
54.437,-23.5
54.453,-28.74
54.468,-34.54
54.484,-41.09
54.500,-48.37
54.515,-56.12
54.531,-63.71
54.546,-70.16
54.562,-74.32
54.578,-75.11
54.593,-71.93
54.609,-64.88
54.625,-54.84
54.640,-43.29
54.656,-31.88
54.671,-22.01
54.687,-14.4
54.703,-9.18
54.718,-6.02
54.734,-4.5
54.750,-4.29
54.765,-5.25
54.781,-7.29
54.796,-10.2
54.812,-13.59
54.828,-17.0
54.843,-20.01
54.859,-22.42
54.875,-24.29
54.890,-25.85
54.906,-27.42
54.921,-29.3
54.937,-31.63
54.953,-34.46
54.968,-37.66
54.984,-41.03
55.000,-44.3
55.015,-47.33
55.031,-50.08
55.046,-52.69
55.062,-55.33
55.078,-58.19
55.093,-61.42
55.109,-65.12
55.125,-69.25
55.140,-73.56
55.156,-77.48
55.171,-80.07
55.187,-80.19
55.203,-76.82
55.218,-69.46
55.234,-58.41
55.250,-44.77
55.265,-30.13
55.281,-16.04
55.296,-3.64
55.312,6.56
55.328,14.56
55.343,20.67
55.359,25.23
55.375,28.48
55.390,30.6
55.406,31.76
55.421,32.24
55.437,32.42
55.453,32.7
55.468,33.34
55.484,34.4
55.500,35.76
55.515,37.15
55.531,38.34
55.546,39.18
55.562,39.64
55.578,39.68
55.593,39.28
55.609,38.36
55.625,36.88
55.640,34.88
55.656,32.45
55.671,29.7
55.687,26.65
55.703,23.18
55.718,19.05
55.734,14.05
55.750,8.17
55.765,1.76
55.781,-4.4
55.796,-9.24
55.812,-11.63
55.828,-10.76
55.843,-6.41
55.859,0.97
55.875,10.35
55.890,20.39
55.906,29.85
55.921,37.88
55.937,44.07
55.953,48.35
55.968,50.82
55.984,51.58
56.000,50.68
56.015,48.22
56.031,44.4
56.046,39.58
56.062,34.28
56.078,29.01
56.093,24.18
56.109,20.04
56.125,16.56
56.140,13.63
56.156,11.01
56.171,8.45
56.187,5.72
56.203,2.64
56.218,-0.88
56.234,-4.78
56.250,-8.91
56.265,-13.08
56.281,-17.1
56.296,-20.87
56.312,-24.4
56.328,-27.83
56.343,-31.38
56.359,-35.22
56.375,-39.34
56.390,-43.51
56.406,-47.12
56.421,-49.3
56.437,-49.05
56.453,-45.56
56.468,-38.46
56.484,-28.03
56.500,-15.18
56.515,-1.2
56.531,12.55
56.546,24.94
56.562,35.37
56.578,43.62
56.593,49.86
56.609,54.47
56.625,57.85
56.640,60.39
56.656,62.56
56.671,64.85
56.687,67.77
56.703,71.83
56.718,77.3
56.734,84.2
56.750,92.26
56.765,100.93
56.781,109.64
56.796,117.91
56.812,125.46
56.828,132.2
56.843,138.19
56.859,143.44
56.875,147.86
56.890,151.3
56.906,153.63
56.921,154.81
56.937,154.93
56.953,154.11
56.968,152.32
56.984,149.22
57.000,144.18
57.015,136.57
57.031,126.13
57.046,113.32
57.062,99.46
57.078,86.38
57.093,75.88
57.109,69.16
57.125,66.29
57.140,66.33
57.156,67.66
57.171,68.65
57.187,68.1
57.203,65.48
57.218,60.81
57.234,54.3
57.250,46.07
57.265,36.03
57.281,23.93
57.296,9.65
57.312,-6.65
57.328,-24.49
57.343,-43.2
57.359,-62.12
57.375,-80.82
57.390,-99.07
57.406,-116.82
57.421,-134.0
57.437,-150.42
57.453,-165.74
57.468,-179.58
57.484,-191.62
57.500,-201.68
57.515,-209.77
57.531,-216.1
57.546,-220.98
57.562,-224.73
57.578,-227.66
57.593,-230.0
57.609,-231.95
57.625,-233.68
57.640,-235.26
57.656,-236.5
57.671,-236.85
57.687,-235.34
57.703,-230.86
57.718,-222.57
57.734,-210.38
57.750,-194.97
57.765,-177.55
57.781,-159.1
57.796,-139.91
57.812,-119.39
57.828,-96.54
57.843,-70.76
57.859,-42.56
57.875,-13.68
57.890,13.47
57.906,36.64
57.921,54.6
57.937,67.44
57.953,76.3
57.968,82.71
57.984,87.95
58.000,92.71
58.015,97.13
58.031,101.04
58.046,104.13
58.062,106.0
58.078,106.06
58.093,103.46
58.109,97.21
58.125,86.51
58.140,71.07
58.156,51.31
58.171,28.25
58.187,3.07
58.203,-23.23
58.218,-50.17
58.234,-77.64
58.250,-105.39
58.265,-132.44
58.281,-156.57
58.296,-174.52
58.312,-182.83
58.328,-179.09
58.343,-163.0
58.359,-136.95
58.375,-105.36
58.390,-73.4
58.406,-45.41
58.421,-23.7
58.437,-8.35
58.453,2.22
58.468,10.07
58.484,16.79
58.500,23.03
58.515,28.76
58.531,33.76
58.546,38.21
58.562,42.74
58.578,48.17
58.593,55.02
58.609,63.29
58.625,72.52
58.640,82.16
58.656,91.88
58.671,101.57
58.687,111.1
58.703,119.91
58.718,126.99
58.734,131.24
58.750,132.09
58.765,129.89
58.781,125.88
58.796,121.53
58.812,117.87
58.828,115.03
58.843,112.33
58.859,108.85
58.875,104.06
58.890,98.24
58.906,92.49
58.921,88.26
58.937,86.74
58.953,88.41
58.968,92.91
58.984,99.24
59.000,106.33
59.015,113.34
59.031,119.87
59.046,125.88
59.062,131.44
59.078,136.47
59.093,140.68
59.109,143.59
59.125,144.64
59.140,143.28
59.156,139.15
59.171,132.19
59.187,122.86
59.203,112.13
59.218,101.06
59.234,90.22
59.250,79.02
59.265,65.37
59.281,46.51
59.296,20.31
59.312,-13.24
59.328,-51.53
59.343,-90.12
59.359,-124.53
59.375,-151.99
59.390,-172.06
59.406,-186.07
59.421,-195.79
59.437,-202.5
59.453,-206.91
59.468,-209.96
59.484,-213.38
59.500,-219.54
59.515,-230.14
59.531,-244.7
59.546,-259.78
59.562,-269.76
59.578,-268.98
59.593,-254.2
59.609,-226.06
59.625,-188.73
59.640,-148.3
59.656,-110.46
59.671,-78.84
59.687,-54.42
59.703,-36.15
59.718,-22.18
59.734,-10.88
59.750,-1.29
59.765,7.11
59.781,14.71
59.796,22.03
59.812,29.5
59.828,37.09
59.843,44.16
59.859,49.79
59.875,53.32
59.890,54.89
59.906,55.47
59.921,56.49
59.937,59.14
59.953,63.99
59.968,70.88
59.984,79.23
