timestamp,value
00.000,51.97
00.015,37.34
00.031,24.19
00.046,14.06
00.062,8.2
00.078,7.48
00.093,12.2
00.109,21.82
00.125,34.83
00.140,48.8
00.156,61.03
00.171,69.47
00.187,73.49
00.203,74.01
00.218,73.01
00.234,72.39
00.250,73.06
00.265,74.68
00.281,76.04
00.296,76.13
00.312,74.79
00.328,72.95
00.343,71.91
00.359,72.68
00.375,75.47
00.390,79.74
00.406,84.86
00.421,90.7
00.437,97.69
00.453,106.48
00.468,117.47
00.484,130.3
00.500,143.87
00.515,156.66
00.531,167.12
00.546,174.02
00.562,176.45
00.578,173.96
00.593,166.55
00.609,154.91
00.625,140.37
00.640,124.71
00.656,109.58
00.671,96.1
00.687,84.59
00.703,74.73
00.718,65.94
00.734,57.73
00.750,49.85
00.765,42.08
00.781,34.14
00.796,25.6
00.812,16.16
00.828,6.08
00.843,-3.77
00.859,-12.05
00.875,-17.58
00.890,-19.87
00.906,-19.37
00.921,-17.04
00.937,-13.92
00.953,-10.66
00.968,-7.44
00.984,-4.32
01.000,-1.47
01.015,0.72
01.031,1.94
01.046,2.35
01.062,2.79
01.078,4.43
01.093,8.17
01.109,14.03
01.125,20.93
01.140,27.2
01.156,31.22
01.171,32.12
01.187,29.97
01.203,25.58
01.218,19.98
01.234,14.11
01.250,8.46
01.265,3.11
01.281,-2.14
01.296,-7.64
01.312,-13.71
01.328,-20.58
01.343,-28.08
01.359,-35.5
01.375,-41.42
01.390,-43.9
01.406,-40.97
01.421,-31.38
01.437,-15.26
01.453,5.7
01.468,28.6
01.484,50.18
01.500,67.71
01.515,79.5
01.531,85.1
01.546,84.86
01.562,79.86
01.578,71.57
01.593,61.74
01.609,52.31
01.625,44.94
01.640,40.51
01.656,38.78
01.671,38.29
01.687,36.89
01.703,32.65
01.718,24.53
01.734,12.76
01.750,-1.44
01.765,-16.39
01.781,-30.63
01.796,-43.04
01.812,-52.97
01.828,-60.01
01.843,-63.92
01.859,-64.75
01.875,-63.0
01.890,-59.76
01.906,-56.69
01.921,-55.73
01.937,-58.56
01.953,-66.08
01.968,-78.04
01.984,-93.06
02.000,-108.85
02.015,-122.83
02.031,-132.57
02.046,-136.39
02.062,-133.44
02.078,-123.85
02.093,-108.63
02.109,-89.58
02.125,-69.0
02.140,-49.24
02.156,-32.19
02.171,-18.77
02.187,-8.87
02.203,-1.61
02.218,4.07
02.234,8.96
02.250,13.29
02.265,16.96
02.281,19.73
02.296,21.5
02.312,22.29
02.328,22.03
02.343,20.6
02.359,17.97
02.375,14.62
02.390,11.72
02.406,10.85
02.421,13.35
02.437,19.58
02.453,28.57
02.468,38.26
02.484,46.33
02.500,51.11
02.515,52.15
02.531,50.06
02.546,45.89
02.562,40.4
02.578,33.77
02.593,25.85
02.609,16.72
02.625,7.36
02.640,-0.09
02.656,-2.92
02.671,1.29
02.687,13.71
02.703,33.6
02.718,58.46
02.734,84.84
02.750,109.37
02.765,129.55
02.781,144.09
02.796,152.56
02.812,154.93
02.828,151.2
02.843,141.46
02.859,126.17
02.875,106.46
02.890,84.09
02.906,61.04
02.921,39.12
02.937,19.66
02.953,3.67
02.968,-7.99
02.984,-14.6
03.000,-15.9
03.015,-12.51
03.031,-6.14
03.046,0.67
03.062,5.27
03.078,5.7
03.093,1.12
03.109,-8.24
03.125,-21.49
03.140,-37.46
03.156,-54.98
03.171,-72.85
03.187,-89.84
03.203,-104.8
03.218,-117.08
03.234,-126.77
03.250,-134.77
03.265,-142.4
03.281,-150.6
03.296,-159.25
03.312,-166.98
03.328,-171.7
03.343,-171.52
03.359,-165.74
03.375,-155.21
03.390,-141.75
03.406,-127.35
03.421,-113.05
03.437,-98.76
03.453,-83.69
03.468,-67.21
03.484,-49.65
03.500,-32.4
03.515,-17.29
03.531,-5.66
03.546,2.26
03.562,7.35
03.578,10.96
03.593,14.13
03.609,17.27
03.625,20.18
03.640,22.41
03.656,23.79
03.671,24.48
03.687,24.79
03.703,24.97
03.718,24.91
03.734,24.16
03.750,22.23
03.765,18.88
03.781,14.31
03.796,9.23
03.812,4.53
03.828,0.96
03.843,-1.27
03.859,-2.58
03.875,-3.88
03.890,-6.25
03.906,-10.51
03.921,-16.93
03.937,-24.97
03.953,-33.47
03.968,-40.81
03.984,-45.32
04.000,-45.65
04.015,-41.16
04.031,-32.07
04.046,-19.54
04.062,-5.25
04.078,9.05
04.093,22.0
04.109,32.96
04.125,41.92
04.140,49.19
04.156,54.98
04.171,59.21
04.187,61.61
04.203,61.94
04.218,60.34
04.234,57.35
04.250,53.74
04.265,50.24
04.281,47.13
04.296,44.31
04.312,41.42
04.328,38.18
04.343,34.62
04.359,31.09
04.375,28.06
04.390,25.83
04.406,24.36
04.421,23.2
04.437,21.7
04.453,19.31
04.468,15.78
04.484,11.24
04.500,6.08
04.515,0.74
04.531,-4.42
04.546,-9.25
04.562,-13.82
04.578,-18.38
04.593,-23.25
04.609,-28.75
04.625,-35.08
04.640,-42.17
04.656,-49.63
04.671,-56.59
04.687,-61.8
04.703,-63.9
04.718,-61.81
04.734,-55.16
04.750,-44.52
04.765,-31.23
04.781,-16.94
04.796,-3.15
04.812,9.19
04.828,19.73
04.843,28.51
04.859,35.68
04.875,41.19
04.890,44.9
04.906,46.68
04.921,46.65
04.937,45.28
04.953,43.22
04.968,41.14
04.984,39.48
05.000,38.37
05.015,37.59
05.031,36.78
05.046,35.65
05.062,34.07
05.078,32.08
05.093,29.86
05.109,27.51
05.125,25.05
05.140,22.33
05.156,19.17
05.171,15.36
05.187,10.84
05.203,5.76
05.218,0.38
05.234,-4.94
05.250,-9.89
05.265,-14.36
05.281,-18.43
05.296,-22.38
05.312,-26.53
05.328,-31.2
05.343,-36.62
05.359,-42.83
05.375,-49.6
05.390,-56.34
05.406,-62.08
05.421,-65.6
05.437,-65.66
05.453,-61.48
05.468,-53.04
05.484,-41.18
05.500,-27.32
05.515,-13.05
05.531,0.27
05.546,11.83
05.562,21.36
05.578,28.97
05.593,34.89
05.609,39.29
05.625,42.33
05.640,44.13
05.656,44.91
05.671,44.93
05.687,44.52
05.703,44.03
05.718,43.65
05.734,43.47
05.750,43.45
05.765,43.4
05.781,43.17
05.796,42.65
05.812,41.83
05.828,40.91
05.843,40.11
05.859,39.63
05.875,39.47
05.890,39.52
05.906,39.51
05.921,39.23
05.937,38.55
05.953,37.47
05.968,36.12
05.984,34.65
06.000,33.16
06.015,31.71
06.031,30.28
06.046,28.83
06.062,27.29
06.078,25.67
06.093,24.05
06.109,22.64
06.125,21.65
06.140,21.22
06.156,21.34
06.171,21.87
06.187,22.6
06.203,23.35
06.218,24.05
06.234,24.64
06.250,25.05
06.265,25.17
06.281,24.94
06.296,24.48
06.312,24.01
06.328,23.84
06.343,24.05
06.359,24.35
06.375,24.13
06.390,22.59
06.406,19.18
06.421,13.8
06.437,6.87
06.453,-0.87
06.468,-8.65
06.484,-15.93
06.500,-22.52
06.515,-28.52
06.531,-34.05
06.546,-39.19
06.562,-43.84
06.578,-47.87
06.593,-51.25
06.609,-54.12
06.625,-56.79
06.640,-59.59
06.656,-62.67
06.671,-65.94
06.687,-69.07
06.703,-71.58
06.718,-73.12
06.734,-73.5
06.750,-72.7
06.765,-70.93
06.781,-68.61
06.796,-66.39
06.812,-65.25
06.828,-66.22
06.843,-69.96
06.859,-76.31
06.875,-83.88
06.890,-90.4
06.906,-93.51
06.921,-91.77
06.937,-85.29
06.953,-75.65
06.968,-65.08
06.984,-55.51
07.000,-47.93
07.015,-42.4
07.031,-38.53
07.046,-36.02
07.062,-34.66
07.078,-34.25
07.093,-34.2
07.109,-33.54
07.125,-31.19
07.140,-26.64
07.156,-20.11
07.171,-12.57
07.187,-5.17
07.203,1.17
07.218,6.07
07.234,9.64
07.250,12.22
07.265,14.2
07.281,15.75
07.296,16.94
07.312,17.66
07.328,17.74
07.343,17.01
07.359,15.32
07.375,12.61
07.390,9.0
07.406,4.81
07.421,0.41
07.437,-3.79
07.453,-7.59
07.468,-11.05
07.484,-14.42
07.500,-18.16
07.515,-22.66
07.531,-28.11
07.546,-34.3
07.562,-40.58
07.578,-45.88
07.593,-49.0
07.609,-48.98
07.625,-45.31
07.640,-38.22
07.656,-28.58
07.671,-17.61
07.687,-6.48
07.703,3.95
07.718,13.31
07.734,21.46
07.750,28.31
07.765,33.64
07.781,37.11
07.796,38.47
07.812,37.75
07.828,35.39
07.843,32.15
07.859,28.82
07.875,25.96
07.890,23.67
07.906,21.89
07.921,20.43
07.937,19.3
07.953,18.68
07.968,18.69
07.984,19.3
08.000,20.2
08.015,20.94
08.031,21.01
08.046,20.07
08.062,17.81
08.078,14.07
08.093,8.73
08.109,1.88
08.125,-6.16
08.140,-14.77
08.156,-23.35
08.171,-31.49
08.187,-39.17
08.203,-46.64
08.218,-54.07
08.234,-61.09
08.250,-66.69
08.265,-69.46
08.281,-68.14
08.296,-62.11
08.312,-51.76
08.328,-38.31
08.343,-23.43
08.359,-8.76
08.375,4.6
08.390,16.04
08.406,25.42
08.421,32.61
08.437,37.41
08.453,39.56
08.468,38.96
08.484,35.95
08.500,31.37
08.515,26.4
08.531,22.11
08.546,19.22
08.562,17.8
08.578,17.46
08.593,17.59
08.609,17.71
08.625,17.64
08.640,17.39
08.656,16.98
08.671,16.35
08.687,15.29
08.703,13.61
08.718,11.23
08.734,8.31
08.750,5.14
08.765,2.05
08.781,-0.7
08.796,-3.14
08.812,-5.5
08.828,-8.22
08.843,-11.81
08.859,-16.59
08.875,-22.51
08.890,-28.94
08.906,-34.69
08.921,-38.16
08.937,-37.94
08.953,-33.2
08.968,-24.07
08.984,-11.62
09.000,2.48
09.015,16.42
09.031,28.77
09.046,38.67
09.062,45.88
09.078,50.54
09.093,52.94
09.109,53.35
09.125,51.98
09.140,49.02
09.156,44.77
09.171,39.64
09.187,34.14
09.203,28.78
09.218,23.88
09.234,19.59
09.250,15.93
09.265,12.93
09.281,10.67
09.296,9.24
09.312,8.6
09.328,8.36
09.343,7.82
09.359,6.12
09.375,2.59
09.390,-3.02
09.406,-10.45
09.421,-19.0
09.437,-27.8
09.453,-36.1
09.468,-43.4
09.484,-49.62
09.500,-55.0
09.515,-60.01
09.531,-65.1
09.546,-70.45
09.562,-75.72
09.578,-80.03
09.593,-82.11
09.609,-80.72
09.625,-75.1
09.640,-65.22
09.656,-51.91
09.671,-36.52
09.687,-20.55
09.703,-5.21
09.718,8.69
09.734,20.74
09.750,30.71
09.765,38.37
09.781,43.44
09.796,45.68
09.812,45.1
09.828,42.1
09.843,37.49
09.859,32.2
09.875,27.15
09.890,22.9
09.906,19.67
09.921,17.43
09.937,16.04
09.953,15.41
09.968,15.48
09.984,16.16
10.000,17.24
10.015,18.53
10.031,19.86
10.046,21.3
10.062,23.01
10.078,25.12
10.093,27.47
10.109,29.59
10.125,30.71
10.140,30.04
10.156,27.07
10.171,21.6
10.187,13.86
10.203,4.41
10.218,-5.92
10.234,-16.06
10.250,-24.75
10.265,-30.74
10.281,-33.13
10.296,-31.6
10.312,-26.58
10.328,-19.17
10.343,-10.67
10.359,-2.2
10.375,5.63
10.390,12.7
10.406,19.22
10.421,25.43
10.437,31.35
10.453,36.82
10.468,41.5
10.484,45.12
10.500,47.61
10.515,49.09
10.531,49.72
10.546,49.63
10.562,48.83
10.578,47.24
10.593,44.69
10.609,41.03
10.625,36.31
10.640,30.83
10.656,25.11
10.671,19.77
10.687,15.32
10.703,11.85
10.718,9.08
10.734,6.33
10.750,2.96
10.765,-1.35
10.781,-6.56
10.796,-12.38
10.812,-18.64
10.828,-25.55
10.843,-33.7
10.859,-43.66
10.875,-55.48
10.890,-68.45
10.906,-81.1
10.921,-91.82
10.937,-99.39
10.953,-103.25
10.968,-103.51
10.984,-100.45
11.000,-94.21
11.015,-84.71
11.031,-72.05
11.046,-56.77
11.062,-40.09
11.078,-23.53
11.093,-8.38
11.109,4.67
11.125,15.69
11.140,25.09
11.156,33.15
11.171,39.72
11.187,44.39
11.203,46.79
11.218,47.08
11.234,45.92
11.250,44.19
11.265,42.67
11.281,41.7
11.296,41.22
11.312,40.92
11.328,40.48
11.343,39.71
11.359,38.53
11.375,36.97
11.390,35.0
11.406,32.62
11.421,29.79
11.437,26.53
11.453,22.86
11.468,18.86
11.484,14.72
11.500,10.8
11.515,7.5
11.531,5.07
11.546,3.45
11.562,2.13
11.578,0.27
11.593,-3.04
11.609,-8.38
11.625,-15.64
11.640,-23.92
11.656,-31.64
11.671,-36.89
11.687,-38.0
11.703,-34.05
11.718,-25.14
11.734,-12.44
11.750,2.22
11.765,16.89
11.781,30.11
11.796,41.17
11.812,50.01
11.828,56.91
11.843,62.13
11.859,65.66
11.875,67.39
11.890,67.2
11.906,65.34
11.921,62.42
11.937,59.35
11.953,56.98
11.968,55.82
11.984,55.86
12.000,56.59
12.015,57.28
12.031,57.21
12.046,56.05
12.062,53.8
12.078,50.78
12.093,47.37
12.109,43.84
12.125,40.3
12.140,36.74
12.156,33.2
12.171,29.82
12.187,26.89
12.203,24.69
12.218,23.33
12.234,22.7
12.250,22.51
12.265,22.42
12.281,22.26
12.296,21.99
12.312,21.72
12.328,21.56
12.343,21.46
12.359,21.19
12.375,20.46
12.390,19.05
12.406,16.94
12.421,14.3
12.437,11.42
12.453,8.52
12.468,5.59
12.484,2.47
12.500,-1.09
12.515,-5.24
12.531,-9.94
12.546,-14.87
12.562,-19.54
12.578,-23.53
12.593,-26.6
12.609,-28.76
12.625,-30.16
12.640,-31.01
12.656,-31.4
12.671,-31.42
12.687,-31.14
12.703,-30.71
12.718,-30.35
12.734,-30.28
12.750,-30.62
12.765,-31.35
12.781,-32.39
12.796,-33.7
12.812,-35.41
12.828,-37.78
12.843,-41.1
12.859,-45.45
12.875,-50.73
12.890,-56.49
12.906,-62.17
12.921,-67.25
12.937,-71.41
12.953,-74.63
12.968,-77.28
12.984,-79.96
13.000,-83.4
13.015,-88.12
13.031,-94.09
13.046,-100.55
13.062,-105.95
13.078,-108.3
13.093,-105.79
13.109,-97.45
13.125,-83.51
13.140,-65.41
13.156,-45.26
13.171,-25.2
13.187,-6.87
13.203,8.9
13.218,21.9
13.234,32.23
13.250,40.07
13.265,45.54
13.281,48.88
13.296,50.48
13.312,51.0
13.328,51.17
13.343,51.52
13.359,52.22
13.375,52.98
13.390,53.26
13.406,52.5
13.421,50.4
13.437,46.97
13.453,42.52
13.468,37.38
13.484,31.67
13.500,25.26
13.515,17.93
13.531,9.58
13.546,0.46
13.562,-8.81
13.578,-17.43
13.593,-24.7
13.609,-30.29
13.625,-34.33
13.640,-37.26
13.656,-39.6
13.671,-41.94
13.687,-44.66
13.703,-48.02
13.718,-52.04
13.734,-56.39
13.750,-60.31
13.765,-62.67
13.781,-62.22
13.796,-58.08
13.812,-50.11
13.828,-39.0
13.843,-26.16
13.859,-13.25
13.875,-1.68
13.890,7.59
13.906,14.12
13.921,17.88
13.937,19.04
13.953,17.96
13.968,15.15
13.984,11.35
14.000,7.43
14.015,4.17
14.031,2.08
14.046,1.26
14.062,1.49
14.078,2.3
14.093,3.25
14.109,4.03
14.125,4.54
14.140,4.86
14.156,5.17
14.171,5.57
14.187,6.04
14.203,6.36
14.218,6.21
14.234,5.26
14.250,3.35
14.265,0.55
14.281,-2.7
14.296,-5.89
14.312,-8.64
14.328,-10.98
14.343,-13.33
14.359,-16.45
14.375,-20.98
14.390,-27.13
14.406,-34.55
14.421,-42.22
14.437,-48.8
14.453,-52.94
14.468,-53.62
14.484,-50.42
14.500,-43.52
14.515,-33.61
14.531,-21.72
14.546,-8.97
14.562,3.58
14.578,15.08
14.593,24.91
14.609,32.71
14.625,38.39
14.640,42.1
14.656,44.27
14.671,45.43
14.687,46.14
14.703,46.68
14.718,47.09
14.734,47.07
14.750,46.28
14.765,44.43
14.781,41.48
14.796,37.58
14.812,32.97
14.828,27.86
14.843,22.3
14.859,16.21
14.875,9.51
14.890,2.23
14.906,-5.43
14.921,-13.16
14.937,-20.53
14.953,-27.13
14.968,-32.62
14.984,-36.85
15.000,-39.96
15.015,-42.41
15.031,-44.91
15.046,-48.1
15.062,-52.26
15.078,-56.92
15.093,-60.9
15.109,-62.68
15.125,-60.79
15.140,-54.49
15.156,-43.98
15.171,-30.32
15.187,-15.01
15.203,0.33
15.218,14.45
15.234,26.55
15.250,36.17
15.265,43.21
15.281,47.79
15.296,50.2
15.312,50.86
15.328,50.29
15.343,49.01
15.359,47.42
15.375,45.79
15.390,44.15
15.406,42.39
15.421,40.34
15.437,37.82
15.453,34.86
15.468,31.69
15.484,28.63
15.500,25.95
15.515,23.61
15.531,21.25
15.546,18.44
15.562,14.8
15.578,10.32
15.593,5.42
15.609,0.65
15.625,-3.6
15.640,-7.29
15.656,-10.78
15.671,-14.69
15.687,-19.53
15.703,-25.59
15.718,-32.87
15.734,-40.94
15.750,-49.01
15.765,-55.96
15.781,-60.43
15.796,-61.12
15.812,-57.22
15.828,-48.71
15.843,-36.42
15.859,-21.85
15.875,-6.59
15.890,8.09
15.906,21.53
15.921,33.62
15.937,44.41
15.953,53.85
15.968,61.68
15.984,67.55
16.000,71.28
16.015,73.16
16.031,73.8
16.046,74.01
16.062,74.38
16.078,75.12
16.093,76.09
16.109,76.97
16.125,77.45
16.140,77.34
16.156,76.51
16.171,74.75
16.187,71.81
16.203,67.47
16.218,61.68
16.234,54.76
16.250,47.31
16.265,40.16
16.281,33.98
16.296,29.2
16.312,25.91
16.328,23.87
16.343,22.58
16.359,21.48
16.375,20.06
16.390,18.01
16.406,15.43
16.421,12.71
16.437,10.5
16.453,9.39
16.468,9.7
16.484,11.17
16.500,13.11
16.515,14.53
16.531,14.58
16.546,12.84
16.562,9.48
16.578,5.13
16.593,0.63
16.609,-3.23
16.625,-6.04
16.640,-7.81
16.656,-8.92
16.671,-9.91
16.687,-11.25
16.703,-13.14
16.718,-15.49
16.734,-18.01
16.750,-20.38
16.765,-22.4
16.781,-24.12
16.796,-25.78
16.812,-27.6
16.828,-29.58
16.843,-31.49
16.859,-32.96
16.875,-33.71
16.890,-33.78
16.906,-33.54
16.921,-33.64
16.937,-34.82
16.953,-37.59
16.968,-42.05
16.984,-47.83
17.000,-54.21
17.015,-60.37
17.031,-65.61
17.046,-69.61
17.062,-72.41
17.078,-74.44
17.093,-76.31
17.109,-78.66
17.125,-82.0
17.140,-86.54
17.156,-91.99
17.171,-97.35
17.187,-101.07
17.203,-101.32
17.218,-96.64
17.234,-86.47
17.250,-71.49
17.265,-53.46
17.281,-34.55
17.296,-16.69
17.312,-1.08
17.328,11.81
17.343,22.07
17.359,29.9
17.375,35.5
17.390,38.96
17.406,40.46
17.421,40.33
17.437,38.99
17.453,36.82
17.468,34.03
17.484,30.63
17.500,26.53
17.515,21.72
17.531,16.39
17.546,10.92
17.562,5.76
17.578,1.21
17.593,-2.65
17.609,-5.97
17.625,-9.02
17.640,-12.04
17.656,-15.14
17.671,-18.26
17.687,-21.28
17.703,-24.15
17.718,-26.98
17.734,-29.91
17.750,-33.1
17.765,-36.69
17.781,-40.76
17.796,-45.35
17.812,-50.38
17.828,-55.45
17.843,-59.68
17.859,-61.9
17.875,-60.88
17.890,-55.78
17.906,-46.58
17.921,-34.06
17.937,-19.65
17.953,-4.9
17.968,8.94
17.984,21.16
18.000,31.54
18.015,40.08
18.031,46.88
18.046,51.94
18.062,55.36
18.078,57.44
18.093,58.64
18.109,59.55
18.125,60.61
18.140,61.98
18.156,63.5
18.171,64.85
18.187,65.71
18.203,65.97
18.218,65.74
18.234,65.17
18.250,64.4
18.265,63.43
18.281,62.11
18.296,60.43
18.312,58.5
18.328,56.63
18.343,55.21
18.359,54.57
18.375,54.79
18.390,55.75
18.406,57.16
18.421,58.61
18.437,59.82
18.453,60.64
18.468,61.13
18.484,61.51
18.500,62.08
18.515,63.07
18.531,64.57
18.546,66.49
18.562,68.45
18.578,69.98
18.593,70.54
18.609,69.66
18.625,67.06
18.640,62.72
18.656,56.9
18.671,50.03
18.687,42.7
18.703,35.46
18.718,28.7
18.734,22.65
18.750,17.23
18.765,12.25
18.781,7.35
18.796,2.17
18.812,-3.54
18.828,-9.91
18.843,-16.77
18.859,-23.74
18.875,-30.3
18.890,-36.09
18.906,-40.97
18.921,-45.24
18.937,-49.45
18.953,-54.13
18.968,-59.49
18.984,-65.23
19.000,-70.73
19.015,-75.37
19.031,-78.96
19.046,-81.82
19.062,-84.69
19.078,-88.4
19.093,-93.52
19.109,-100.22
19.125,-108.28
19.140,-117.15
19.156,-125.85
19.171,-133.02
19.187,-136.94
19.203,-135.89
19.218,-128.78
19.234,-115.56
19.250,-97.41
19.265,-76.38
19.281,-54.78
19.296,-34.54
19.312,-16.88
19.328,-2.36
19.343,8.89
19.359,16.83
19.375,21.49
19.390,23.03
19.406,21.83
19.421,18.59
19.437,14.26
19.453,9.8
19.468,6.04
19.484,3.48
19.500,2.26
19.515,2.19
19.531,2.91
19.546,3.94
19.562,4.87
19.578,5.45
19.593,5.5
19.609,4.98
19.625,3.95
19.640,2.49
19.656,0.76
19.671,-1.13
19.687,-3.16
19.703,-5.47
19.718,-8.27
19.734,-11.93
19.750,-16.75
19.765,-22.84
19.781,-30.04
19.796,-37.81
19.812,-45.12
19.828,-50.64
19.843,-52.92
19.859,-50.85
19.875,-44.14
19.890,-33.43
19.906,-20.21
19.921,-6.38
19.937,6.41
19.953,17.17
19.968,25.66
19.984,32.19
20.000,37.19
20.015,40.91
20.031,43.32
20.046,44.25
20.062,43.59
20.078,41.5
20.093,38.46
20.109,35.06
20.125,31.85
20.140,29.11
20.156,26.85
20.171,24.83
20.187,22.76
20.203,20.48
20.218,17.95
20.234,15.28
20.250,12.48
20.265,9.44
20.281,5.99
20.296,1.95
20.312,-2.72
20.328,-7.93
20.343,-13.56
20.359,-19.54
20.375,-25.97
20.390,-33.05
20.406,-40.96
20.421,-49.55
20.437,-58.23
20.453,-65.87
20.468,-70.98
20.484,-72.2
20.500,-68.71
20.515,-60.65
20.531,-49.19
20.546,-36.16
20.562,-23.49
20.578,-12.5
20.593,-3.57
20.609,3.8
20.625,10.56
20.640,17.49
20.656,24.9
20.671,32.51
20.687,39.7
20.703,45.81
20.718,50.36
20.734,53.11
20.750,53.98
20.765,53.03
20.781,50.51
20.796,46.87
20.812,42.79
20.828,39.06
20.843,36.38
20.859,35.03
20.875,34.77
20.890,34.99
20.906,34.92
20.921,34.0
20.937,31.97
20.953,28.91
20.968,25.07
20.984,20.67
21.000,15.78
21.015,10.28
21.031,3.9
21.046,-3.66
21.062,-12.61
21.078,-22.89
21.093,-33.95
21.109,-44.65
21.125,-53.38
21.140,-58.4
21.156,-58.39
21.171,-52.98
21.187,-42.86
21.203,-29.63
21.218,-15.28
21.234,-1.5
21.250,10.64
21.265,20.75
21.281,28.92
21.296,35.37
21.312,40.27
21.328,43.72
21.343,45.81
21.359,46.73
21.375,46.83
21.390,46.47
21.406,45.94
21.421,45.47
21.437,45.21
21.453,45.21
21.468,45.42
21.484,45.62
21.500,45.45
21.515,44.59
21.531,42.89
21.546,40.55
21.562,38.11
21.578,36.31
21.593,35.73
21.609,36.53
21.625,38.35
21.640,40.43
21.656,41.92
21.671,42.12
21.687,40.62
21.703,37.24
21.718,31.93
21.734,24.68
21.750,15.52
21.765,4.62
21.781,-7.71
21.796,-21.04
21.812,-34.9
21.828,-48.73
21.843,-61.87
21.859,-73.43
21.875,-82.3
21.890,-87.41
21.906,-88.05
21.921,-84.14
21.937,-76.35
21.953,-65.78
21.968,-53.49
21.984,-40.22
22.000,-26.28
22.015,-11.81
22.031,2.85
22.046,17.05
22.062,29.89
22.078,40.54
22.093,48.46
22.109,53.61
22.125,56.3
22.140,57.13
22.156,56.74
22.171,55.72
22.187,54.49
22.203,53.3
22.218,52.18
22.234,51.03
22.250,49.76
22.265,48.28
22.281,46.68
22.296,44.98
22.312,43.12
22.328,40.84
22.343,37.85
22.359,33.98
22.375,29.3
22.390,24.09
22.406,18.69
22.421,13.36
22.437,8.17
22.453,3.0
22.468,-2.23
22.484,-7.55
22.500,-12.84
22.515,-17.97
22.531,-22.91
22.546,-27.74
22.562,-32.67
22.578,-37.96
22.593,-43.86
22.609,-50.42
22.625,-57.57
22.640,-64.76
22.656,-71.05
22.671,-75.18
22.687,-75.92
22.703,-72.48
22.718,-64.87
22.734,-53.91
22.750,-40.98
22.765,-27.57
22.781,-14.77
22.796,-3.12
22.812,7.25
22.828,16.37
22.843,24.18
22.859,30.44
22.875,34.91
22.890,37.47
22.906,38.28
22.921,37.73
22.937,36.31
22.953,34.45
22.968,32.43
22.984,30.33
23.000,28.18
23.015,26.02
23.031,24.01
23.046,22.43
23.062,21.58
23.078,21.6
23.093,22.38
23.109,23.57
23.125,24.65
23.140,25.15
23.156,24.87
23.171,23.86
23.187,22.37
23.203,20.66
23.218,18.83
23.234,16.73
23.250,14.05
23.265,10.46
23.281,5.82
23.296,0.28
23.312,-5.83
23.328,-12.1
23.343,-18.22
23.359,-24.18
23.375,-30.18
23.390,-36.53
23.406,-43.49
23.421,-51.1
23.437,-59.08
23.453,-66.9
23.468,-73.73
23.484,-78.56
23.500,-80.41
23.515,-78.54
23.531,-72.72
23.546,-63.38
23.562,-51.54
23.578,-38.57
23.593,-25.77
23.609,-14.07
23.625,-3.92
23.640,4.62
23.656,11.62
23.671,17.15
23.687,21.22
23.703,23.85
23.718,25.17
23.734,25.5
23.750,25.27
23.765,24.96
23.781,24.9
23.796,25.25
23.812,25.91
23.828,26.63
23.843,27.12
23.859,27.16
23.875,26.71
23.890,25.89
23.906,24.89
23.921,23.81
23.937,22.68
23.953,21.43
23.968,19.95
23.984,18.2
24.000,16.13
24.015,13.73
24.031,10.91
24.046,7.59
24.062,3.74
24.078,-0.52
24.093,-5.0
24.109,-9.41
24.125,-13.5
24.140,-17.18
24.156,-20.55
24.171,-23.87
24.187,-27.51
24.203,-31.8
24.218,-36.77
24.234,-42.17
24.250,-47.27
24.265,-51.0
24.281,-52.22
24.296,-50.11
24.312,-44.4
24.328,-35.59
24.343,-24.79
24.359,-13.34
24.375,-2.47
24.390,7.07
24.406,15.07
24.421,21.71
24.437,27.3
24.453,31.99
24.468,35.76
24.484,38.44
24.500,39.88
24.515,40.14
24.531,39.54
24.546,38.54
24.562,37.57
24.578,36.88
24.593,36.43
24.609,35.99
24.625,35.32
24.640,34.28
24.656,32.86
24.671,31.22
24.687,29.52
24.703,27.86
24.718,26.2
24.734,24.45
24.750,22.49
24.765,20.21
24.781,17.51
24.796,14.31
24.812,10.53
24.828,6.2
24.843,1.45
24.859,-3.42
24.875,-8.1
24.890,-12.3
24.906,-15.88
24.921,-18.89
24.937,-21.58
24.953,-24.33
24.968,-27.49
24.984,-31.31
25.000,-35.7
25.015,-40.28
25.031,-44.29
25.046,-46.7
25.062,-46.56
25.078,-43.2
25.093,-36.58
25.109,-27.32
25.125,-16.53
25.140,-5.51
25.156,4.71
25.171,13.46
25.187,20.62
25.203,26.35
25.218,30.88
25.234,34.35
25.250,36.75
25.265,38.06
25.281,38.28
25.296,37.6
25.312,36.26
25.328,34.59
25.343,32.81
25.359,31.08
25.375,29.55
25.390,28.31
25.406,27.51
25.421,27.25
25.437,27.52
25.453,28.06
25.468,28.45
25.484,28.19
25.500,26.92
25.515,24.62
25.531,21.57
25.546,18.35
25.562,15.43
25.578,13.04
25.593,10.98
25.609,8.77
25.625,5.84
25.640,1.88
25.656,-3.04
25.671,-8.62
25.687,-14.33
25.703,-19.73
25.718,-24.61
25.734,-29.05
25.750,-33.39
25.765,-38.06
25.781,-43.51
25.796,-49.97
25.812,-57.46
25.828,-65.51
25.843,-73.2
25.859,-79.23
25.875,-82.24
25.890,-81.22
25.906,-75.85
25.921,-66.73
25.937,-55.12
25.953,-42.63
25.968,-30.64
25.984,-20.04
26.000,-11.09
26.015,-3.65
26.031,2.55
26.046,7.7
26.062,11.93
26.078,15.32
26.093,18.09
26.109,20.46
26.125,22.6
26.140,24.49
26.156,25.95
26.171,26.71
26.187,26.62
26.203,25.79
26.218,24.55
26.234,23.3
26.250,22.34
26.265,21.66
26.281,21.01
26.296,20.0
26.312,18.23
26.328,15.51
26.343,11.91
26.359,7.66
26.375,3.09
26.390,-1.52
26.406,-6.05
26.421,-10.53
26.437,-15.05
26.453,-19.73
26.468,-24.6
26.484,-29.56
26.500,-34.42
26.515,-38.97
26.531,-43.1
26.546,-46.84
26.562,-50.33
26.578,-53.83
26.593,-57.6
26.609,-61.76
26.625,-66.2
26.640,-70.45
26.656,-73.66
26.671,-74.74
26.687,-72.72
26.703,-67.02
26.718,-57.77
26.734,-45.86
26.750,-32.67
26.765,-19.71
26.781,-8.17
26.796,1.35
26.812,8.9
26.828,14.86
26.843,19.65
26.859,23.44
26.875,26.13
26.890,27.51
26.906,27.45
26.921,26.13
26.937,24.0
26.953,21.62
26.968,19.47
26.984,17.78
27.000,16.55
27.015,15.65
27.031,14.99
27.046,14.52
27.062,14.26
27.078,14.22
27.093,14.35
27.109,14.45
27.125,14.32
27.140,13.75
27.156,12.59
27.171,10.77
27.187,8.29
27.203,5.18
27.218,1.54
27.234,-2.43
27.250,-6.49
27.265,-10.39
27.281,-13.94
27.296,-17.06
27.312,-19.78
27.328,-22.25
27.343,-24.71
27.359,-27.4
27.375,-30.56
27.390,-34.29
27.406,-38.39
27.421,-42.27
27.437,-44.93
27.453,-45.25
27.468,-42.34
27.484,-35.99
27.500,-26.77
27.515,-15.76
27.531,-4.22
27.546,6.9
27.562,17.09
27.578,26.27
27.593,34.49
27.609,41.75
27.625,47.84
27.640,52.47
27.656,55.45
27.671,56.76
27.687,56.66
27.703,55.58
27.718,53.99
27.734,52.32
27.750,50.86
27.765,49.7
27.781,48.75
27.796,47.84
27.812,46.79
27.828,45.61
27.843,44.39
27.859,43.21
27.875,42.03
27.890,40.58
27.906,38.45
27.921,35.26
27.937,30.93
27.953,25.63
27.968,19.81
27.984,13.94
28.000,8.33
28.015,3.01
28.031,-2.15
28.046,-7.42
28.062,-12.99
28.078,-18.92
28.093,-25.23
28.109,-31.83
28.125,-38.59
28.140,-45.24
28.156,-51.34
28.171,-56.19
28.187,-58.86
28.203,-58.46
28.218,-54.4
28.234,-46.74
28.250,-36.22
28.265,-24.1
28.281,-11.81
28.296,-0.52
28.312,9.04
28.328,16.71
28.343,22.58
28.359,26.84
28.375,29.61
28.390,30.89
28.406,30.76
28.421,29.38
28.437,27.11
28.453,24.32
28.468,21.41
28.484,18.6
28.500,15.99
28.515,13.58
28.531,11.43
28.546,9.58
28.562,8.01
28.578,6.69
28.593,5.39
28.609,3.9
28.625,1.97
28.640,-0.52
28.656,-3.65
28.671,-7.37
28.687,-11.61
28.703,-16.27
28.718,-21.03
28.734,-25.56
28.750,-29.47
28.765,-32.45
28.781,-34.45
28.796,-35.67
28.812,-36.56
28.828,-37.57
28.843,-39.15
28.859,-41.53
28.875,-44.72
28.890,-48.46
28.906,-52.12
28.921,-54.79
28.937,-55.39
28.953,-53.04
28.968,-47.37
28.984,-38.85
29.000,-28.52
29.015,-17.73
29.031,-7.63
29.046,1.21
29.062,8.86
29.078,15.76
29.093,22.33
29.109,28.72
29.125,34.7
29.140,39.93
29.156,44.14
29.171,47.31
29.187,49.65
29.203,51.49
29.218,53.13
29.234,54.7
29.250,56.24
29.265,57.6
29.281,58.61
29.296,59.08
29.312,58.9
29.328,58.05
29.343,56.62
29.359,54.72
29.375,52.36
29.390,49.45
29.406,45.82
29.421,41.25
29.437,35.72
29.453,29.38
29.468,22.66
29.484,15.97
29.500,9.6
29.515,3.59
29.531,-2.23
29.546,-8.15
29.562,-14.46
29.578,-21.34
29.593,-28.89
29.609,-37.04
29.625,-45.68
29.640,-54.45
29.656,-62.67
29.671,-69.29
29.687,-73.02
29.703,-72.72
29.718,-67.79
29.734,-58.6
29.750,-46.41
29.765,-33.04
29.781,-20.29
29.796,-9.38
29.812,-0.73
29.828,5.89
29.843,10.94
29.859,14.71
29.875,17.22
29.890,18.36
29.906,18.25
29.921,17.28
29.937,16.19
29.953,15.59
29.968,15.75
29.984,16.41
30.000,16.95
30.015,16.79
30.031,15.66
30.046,13.86
30.062,12.0
30.078,10.75
30.093,10.4
30.109,10.65
30.125,10.69
30.140,9.63
30.156,6.85
30.171,2.31
30.187,-3.33
30.203,-9.15
30.218,-14.3
30.234,-18.37
30.250,-21.49
30.265,-24.16
30.281,-26.98
30.296,-30.4
30.312,-34.63
30.328,-39.55
30.343,-44.77
30.359,-49.58
30.375,-53.09
30.390,-54.31
30.406,-52.38
30.421,-46.94
30.437,-38.25
30.453,-27.26
30.468,-15.23
30.484,-3.42
30.500,7.24
30.515,16.27
30.531,23.57
30.546,29.19
30.562,33.18
30.578,35.61
30.593,36.58
30.609,36.4
30.625,35.49
30.640,34.35
30.656,33.35
30.671,32.59
30.687,31.98
30.703,31.27
30.718,30.36
30.734,29.34
30.750,28.45
30.765,27.9
30.781,27.59
30.796,27.13
30.812,25.91
30.828,23.4
30.843,19.38
30.859,14.15
30.875,8.39
30.890,2.98
30.906,-1.38
30.921,-4.46
30.937,-6.58
30.953,-8.53
30.968,-11.35
30.984,-15.9
31.000,-22.67
31.015,-31.46
31.031,-41.44
31.046,-51.18
31.062,-58.97
31.078,-63.21
31.093,-62.82
31.109,-57.58
31.125,-48.2
31.140,-36.15
31.156,-23.28
31.171,-11.28
31.187,-1.22
31.203,6.54
31.218,12.33
31.234,16.81
31.250,20.58
31.265,24.01
31.281,27.14
31.296,29.92
31.312,32.29
31.328,34.3
31.343,35.99
31.359,37.35
31.375,38.18
31.390,38.25
31.406,37.42
31.421,35.82
31.437,33.82
31.453,31.9
31.468,30.32
31.484,28.99
31.500,27.46
31.515,25.15
31.531,21.69
31.546,17.07
31.562,11.66
31.578,6.09
31.593,0.89
31.609,-3.57
31.625,-7.23
31.640,-10.27
31.656,-13.04
31.671,-16.06
31.687,-19.91
31.703,-25.16
31.718,-32.07
31.734,-40.41
31.750,-49.29
31.765,-57.18
31.781,-62.35
31.796,-63.42
31.812,-59.85
31.828,-52.17
31.843,-41.79
31.859,-30.4
31.875,-19.5
31.890,-9.87
31.906,-1.59
31.921,5.77
31.937,12.63
31.953,19.07
31.968,24.77
31.984,29.2
32.000,32.02
32.015,33.31
32.031,33.64
32.046,33.8
32.062,34.42
32.078,35.72
32.093,37.35
32.109,38.7
32.125,39.19
32.140,38.53
32.156,36.96
32.171,34.96
32.187,33.08
32.203,31.6
32.218,30.42
32.234,29.13
32.250,27.17
32.265,24.0
32.281,19.27
32.296,12.8
32.312,4.59
32.328,-5.15
32.343,-16.08
32.359,-27.68
32.375,-39.37
32.390,-50.63
32.406,-61.22
32.421,-71.21
32.437,-80.79
32.453,-90.02
32.468,-98.39
32.484,-104.83
32.500,-107.84
32.515,-106.04
32.531,-98.65
32.546,-85.92
32.562,-69.09
32.578,-50.03
32.593,-30.69
32.609,-12.6
32.625,3.41
32.640,17.08
32.656,28.56
32.671,38.11
32.687,45.95
32.703,52.19
32.718,56.93
32.734,60.33
32.750,62.6
32.765,63.91
32.781,64.33
32.796,63.82
32.812,62.28
32.828,59.68
32.843,56.04
32.859,51.46
32.875,46.06
32.890,40.01
32.906,33.6
32.921,27.27
32.937,21.54
32.953,16.79
32.968,13.14
32.984,10.22
33.000,7.42
33.015,4.06
33.031,-0.19
33.046,-5.17
33.062,-10.4
33.078,-15.31
33.093,-19.67
33.109,-23.57
33.125,-27.34
33.140,-31.34
33.156,-35.82
33.171,-40.88
33.187,-46.54
33.203,-52.9
33.218,-59.9
33.234,-67.16
33.250,-73.73
33.265,-78.22
33.281,-79.2
33.296,-75.8
33.312,-68.08
33.328,-57.03
33.343,-44.23
33.359,-31.22
33.375,-19.03
33.390,-8.0
33.406,2.05
33.421,11.43
33.437,20.25
33.453,28.22
33.468,34.91
33.484,39.85
33.500,42.81
33.515,43.85
33.531,43.31
33.546,41.71
33.562,39.64
33.578,37.74
33.593,36.4
33.609,35.78
33.625,35.61
33.640,35.35
33.656,34.35
33.671,32.01
33.687,28.14
33.703,22.94
33.718,16.87
33.734,10.32
33.750,3.46
33.765,-3.9
33.781,-12.02
33.796,-20.81
33.812,-29.74
33.828,-37.75
33.843,-43.72
33.859,-46.89
33.875,-47.32
33.890,-45.75
33.906,-43.32
33.921,-41.07
33.937,-39.49
33.953,-38.54
33.968,-37.78
33.984,-36.66
34.000,-34.69
34.015,-31.59
34.031,-27.21
34.046,-21.52
34.062,-14.69
34.078,-7.01
34.093,1.13
34.109,9.37
34.125,17.46
34.140,25.22
34.156,32.45
34.171,38.92
34.187,44.28
34.203,48.18
34.218,50.5
34.234,51.38
34.250,51.32
34.265,50.93
34.281,50.73
34.296,51.0
34.312,51.77
34.328,52.83
34.343,53.9
34.359,54.68
34.375,54.86
34.390,54.24
34.406,52.71
34.421,50.37
34.437,47.53
34.453,44.67
34.468,42.28
34.484,40.69
34.500,40.03
34.515,40.16
34.531,40.76
34.546,41.52
34.562,42.19
34.578,42.63
34.593,42.86
34.609,42.99
34.625,43.13
34.640,43.32
34.656,43.54
34.671,43.67
34.687,43.59
34.703,43.22
34.718,42.52
34.734,41.52
34.750,40.19
34.765,38.51
34.781,36.4
34.796,33.82
34.812,30.87
34.828,27.68
34.843,24.39
34.859,21.06
34.875,17.67
34.890,14.16
34.906,10.45
34.921,6.56
34.937,2.54
34.953,-1.52
34.968,-5.52
34.984,-9.3
35.000,-12.64
35.015,-15.29
35.031,-17.08
35.046,-18.06
35.062,-18.54
35.078,-18.96
35.093,-19.7
35.109,-20.96
35.125,-22.58
35.140,-24.34
35.156,-26.03
35.171,-27.6
35.187,-29.1
35.203,-30.56
35.218,-31.87
35.234,-32.84
35.250,-33.36
35.265,-33.54
35.281,-33.78
35.296,-34.7
35.312,-36.88
35.328,-40.73
35.343,-46.41
35.359,-53.76
35.375,-62.26
35.390,-70.99
35.406,-78.61
35.421,-83.63
35.437,-84.78
35.453,-81.5
35.468,-74.19
35.484,-64.17
35.500,-53.31
35.515,-43.35
35.531,-35.54
35.546,-30.34
35.562,-27.56
35.578,-26.64
35.593,-26.95
35.609,-28.05
35.625,-29.59
35.640,-31.28
35.656,-32.74
35.671,-33.54
35.687,-33.31
35.703,-31.93
35.718,-29.62
35.734,-26.87
35.750,-24.27
35.765,-22.13
35.781,-20.41
35.796,-18.69
35.812,-16.44
35.828,-13.34
35.843,-9.56
35.859,-5.73
35.875,-2.68
35.890,-1.07
35.906,-1.07
35.921,-2.43
35.937,-4.5
35.953,-6.7
35.968,-8.68
35.984,-10.38
36.000,-12.04
36.015,-13.95
36.031,-16.38
36.046,-19.45
36.062,-23.19
36.078,-27.28
36.093,-31.06
36.109,-33.55
36.125,-33.56
36.140,-30.19
36.156,-23.17
36.171,-13.12
36.187,-1.32
36.203,10.66
36.218,21.47
36.234,30.37
36.250,37.18
36.265,42.1
36.281,45.51
36.296,47.62
36.312,48.62
36.328,48.59
36.343,47.65
36.359,45.99
36.375,43.74
36.390,41.04
36.406,38.09
36.421,35.13
36.437,32.6
36.453,30.98
36.468,30.6
36.484,31.37
36.500,32.65
36.515,33.27
36.531,31.87
36.546,27.48
36.562,19.83
36.578,9.57
36.593,-1.95
36.609,-13.24
36.625,-23.2
36.640,-31.48
36.656,-38.44
36.671,-44.91
36.687,-51.61
36.703,-58.86
36.718,-66.52
36.734,-74.07
36.750,-80.91
36.765,-86.45
36.781,-90.03
36.796,-90.99
36.812,-88.73
36.828,-82.92
36.843,-73.82
36.859,-62.4
36.875,-50.09
36.890,-38.4
36.906,-28.35
36.921,-20.31
36.937,-13.99
36.953,-8.85
36.968,-4.45
36.984,-0.63
37.000,2.53
37.015,4.91
37.031,6.46
37.046,7.34
37.062,7.82
37.078,8.23
37.093,8.86
37.109,9.86
37.125,11.21
37.140,12.69
37.156,13.92
37.171,14.5
37.187,14.12
37.203,12.67
37.218,10.26
37.234,7.24
37.250,3.96
37.265,0.76
37.281,-2.21
37.296,-4.93
37.312,-7.57
37.328,-10.34
37.343,-13.48
37.359,-17.23
37.375,-21.59
37.390,-26.33
37.406,-30.74
37.421,-33.72
37.437,-33.92
37.453,-30.21
37.468,-22.12
37.484,-10.12
37.500,4.38
37.515,19.55
37.531,33.64
37.546,45.53
37.562,54.86
37.578,61.94
37.593,67.31
37.609,71.38
37.625,74.27
37.640,75.88
37.656,76.22
37.671,75.43
37.687,73.95
37.703,72.25
37.718,70.57
37.734,68.91
37.750,67.04
37.765,64.69
37.781,61.72
37.796,58.23
37.812,54.32
37.828,50.04
37.843,45.33
37.859,39.93
37.875,33.75
37.890,26.93
37.906,19.8
37.921,12.8
37.937,6.22
37.953,0.04
37.968,-6.02
37.984,-12.41
38.000,-19.6
38.015,-27.93
38.031,-37.44
38.046,-47.78
38.062,-58.14
38.078,-67.22
38.093,-73.56
38.109,-75.93
38.125,-73.65
38.140,-67.0
38.156,-56.99
38.171,-45.07
38.187,-32.64
38.203,-20.65
38.218,-9.48
38.234,0.81
38.250,10.19
38.265,18.45
38.281,25.23
38.296,30.26
38.312,33.51
38.328,35.31
38.343,36.26
38.359,37.02
38.375,38.0
38.390,39.33
38.406,40.9
38.421,42.5
38.437,43.96
38.453,45.26
38.468,46.4
38.484,47.45
38.500,48.35
38.515,48.95
38.531,49.04
38.546,48.54
38.562,47.46
38.578,46.07
38.593,44.72
38.609,43.67
38.625,43.07
38.640,42.75
38.656,42.41
38.671,41.71
38.687,40.48
38.703,38.67
38.718,36.46
38.734,34.12
38.750,31.98
38.765,30.3
38.781,29.19
38.796,28.58
38.812,28.23
38.828,27.83
38.843,27.05
38.859,25.74
38.875,23.93
38.890,21.82
38.906,19.69
38.921,17.83
38.937,16.4
38.953,15.35
38.968,14.51
38.984,13.57
39.000,12.22
39.015,10.29
39.031,7.84
39.046,5.15
39.062,2.62
39.078,0.62
39.093,-0.78
39.109,-1.72
39.125,-2.56
39.140,-3.62
39.156,-5.01
39.171,-6.68
39.187,-8.34
39.203,-9.87
39.218,-11.37
39.234,-13.26
39.250,-16.04
39.265,-20.07
39.281,-25.29
39.296,-31.3
39.312,-37.49
39.328,-43.35
39.343,-48.76
39.359,-53.87
39.375,-59.05
39.390,-64.64
39.406,-70.8
39.421,-77.51
39.437,-84.51
39.453,-91.29
39.468,-96.99
39.484,-100.45
39.500,-100.45
39.515,-96.08
39.531,-87.12
39.546,-74.23
39.562,-58.81
39.578,-42.53
39.593,-26.9
39.609,-12.94
39.625,-1.18
39.640,8.21
39.656,15.21
39.671,19.92
39.687,22.56
39.703,23.45
39.718,23.06
39.734,21.88
39.750,20.31
39.765,18.59
39.781,16.73
39.796,14.56
39.812,11.87
39.828,8.56
39.843,4.68
39.859,0.56
39.875,-3.36
39.890,-6.62
39.906,-8.97
39.921,-10.45
39.937,-11.33
39.953,-12.02
39.968,-12.8
39.984,-13.78
40.000,-14.95
40.015,-16.18
40.031,-17.45
40.046,-18.79
40.062,-20.35
40.078,-22.34
40.093,-24.92
40.109,-28.01
40.125,-31.25
40.140,-33.85
40.156,-34.83
40.171,-33.21
40.187,-28.39
40.203,-20.5
40.218,-10.38
40.234,0.61
40.250,11.1
40.265,20.12
40.281,27.36
40.296,32.97
40.312,37.39
40.328,40.9
40.343,43.41
40.359,44.52
40.375,43.77
40.390,40.99
40.406,36.53
40.421,31.29
40.437,26.4
40.453,22.92
40.468,21.48
40.484,22.15
40.500,24.47
40.515,27.78
40.531,31.51
40.546,35.28
40.562,38.94
40.578,42.41
40.593,45.52
40.609,47.95
40.625,49.31
40.640,49.35
40.656,48.02
40.671,45.57
40.687,42.48
40.703,39.26
40.718,36.32
40.734,33.86
40.750,31.83
40.765,30.03
40.781,28.26
40.796,26.36
40.812,24.29
40.828,22.15
40.843,20.11
40.859,18.37
40.875,17.11
40.890,16.42
40.906,16.31
40.921,16.7
40.937,17.41
40.953,18.26
40.968,19.02
40.984,19.5
41.000,19.55
41.015,19.03
41.031,17.91
41.046,16.23
41.062,14.05
41.078,11.4
41.093,8.29
41.109,4.77
41.125,0.89
41.140,-3.18
41.156,-7.23
41.171,-11.08
41.187,-14.65
41.203,-18.0
41.218,-21.32
41.234,-24.81
41.250,-28.6
41.265,-32.74
41.281,-37.11
41.296,-41.53
41.312,-45.84
41.328,-49.89
41.343,-53.66
41.359,-57.24
41.375,-60.85
41.390,-64.8
41.406,-69.48
41.421,-75.19
41.437,-82.0
41.453,-89.58
41.468,-96.96
41.484,-102.69
41.500,-105.12
41.515,-102.91
41.531,-95.56
41.546,-83.68
41.562,-68.74
41.578,-52.64
41.593,-37.01
41.609,-22.9
41.625,-10.68
41.640,-0.34
41.656,8.22
41.671,15.04
41.687,20.02
41.703,23.19
41.718,24.75
41.734,25.18
41.750,25.03
41.765,24.82
41.781,24.88
41.796,25.27
41.812,25.9
41.828,26.52
41.843,26.95
41.859,27.02
41.875,26.63
41.890,25.68
41.906,24.0
41.921,21.47
41.937,17.95
41.953,13.57
41.968,8.64
41.984,3.66
42.000,-0.9
42.015,-4.81
42.031,-8.16
42.046,-11.42
42.062,-15.18
42.078,-19.95
42.093,-25.96
42.109,-32.88
42.125,-39.97
42.140,-46.0
42.156,-49.65
42.171,-49.77
42.187,-45.84
42.203,-38.13
42.218,-27.7
42.234,-16.01
42.250,-4.57
42.265,5.59
42.281,14.03
42.296,20.8
42.312,26.17
42.328,30.34
42.343,33.35
42.359,35.17
42.375,35.84
42.390,35.58
42.406,34.67
42.421,33.37
42.437,31.75
42.453,29.75
42.468,27.28
42.484,24.46
42.500,21.61
42.515,19.17
42.531,17.42
42.546,16.28
42.562,15.29
42.578,13.83
42.593,11.41
42.609,7.93
42.625,3.68
42.640,-0.83
42.656,-5.23
42.671,-9.36
42.687,-13.37
42.703,-17.48
42.718,-21.89
42.734,-26.77
42.750,-32.22
42.765,-38.33
42.781,-45.01
42.796,-51.86
42.812,-57.93
42.828,-61.98
42.843,-62.74
42.859,-59.47
42.875,-52.29
42.890,-42.12
42.906,-30.35
42.921,-18.42
42.937,-7.41
42.953,2.17
42.968,10.16
42.984,16.65
43.000,21.75
43.015,25.51
43.031,28.0
43.046,29.36
43.062,29.87
43.078,29.89
43.093,29.79
43.109,29.72
43.125,29.61
43.140,29.17
43.156,28.16
43.171,26.54
43.187,24.56
43.203,22.75
43.218,21.56
43.234,21.1
43.250,20.91
43.265,20.27
43.281,18.45
43.296,15.17
43.312,10.78
43.328,6.01
43.343,1.66
43.359,-1.87
43.375,-4.73
43.390,-7.59
43.406,-11.15
43.421,-15.94
43.437,-22.09
43.453,-29.35
43.468,-37.21
43.484,-44.92
43.500,-51.53
43.515,-55.89
43.531,-56.91
43.546,-53.89
43.562,-46.78
43.578,-36.43
43.593,-24.21
43.609,-11.68
43.625,-0.05
43.640,10.05
43.656,18.53
43.671,25.53
43.687,31.1
43.703,35.17
43.718,37.58
43.734,38.43
43.750,38.11
43.765,37.29
43.781,36.65
43.796,36.58
43.812,37.02
43.828,37.64
43.843,38.0
43.859,37.84
43.875,37.2
43.890,36.27
43.906,35.26
43.921,34.2
43.937,32.89
43.953,31.0
43.968,28.29
43.984,24.65
44.000,20.2
44.015,15.28
44.031,10.28
44.046,5.59
44.062,1.56
44.078,-1.69
44.093,-4.33
44.109,-6.76
44.125,-9.54
44.140,-13.23
44.156,-18.08
44.171,-23.89
44.187,-29.97
44.203,-35.15
44.218,-38.13
44.234,-37.8
44.250,-33.62
44.265,-25.67
44.281,-14.8
44.296,-2.3
44.312,10.44
44.328,22.26
44.343,32.55
44.359,41.19
44.375,48.37
44.390,54.33
44.406,59.06
44.421,62.28
44.437,63.58
44.453,62.72
44.468,59.81
44.484,55.44
44.500,50.4
44.515,45.52
44.531,41.36
44.546,38.05
44.562,35.41
44.578,33.06
44.593,30.69
44.609,28.12
44.625,25.41
44.640,22.69
44.656,20.12
44.671,17.75
44.687,15.45
44.703,12.97
44.718,10.07
44.734,6.58
44.750,2.5
44.765,-1.98
44.781,-6.63
44.796,-11.19
44.812,-15.53
44.828,-19.62
44.843,-23.61
44.859,-27.73
44.875,-32.28
44.890,-37.52
44.906,-43.59
44.921,-50.41
44.937,-57.57
44.953,-64.32
44.968,-69.65
44.984,-72.47
45.000,-71.87
45.015,-67.4
45.031,-59.22
45.046,-48.07
45.062,-35.11
45.078,-21.57
45.093,-8.54
45.109,3.21
45.125,13.28
45.140,21.57
45.156,28.15
45.171,33.22
45.187,37.02
45.203,39.8
45.218,41.72
45.234,42.86
45.250,43.14
45.265,42.5
45.281,40.92
45.296,38.6
45.312,35.85
45.328,33.13
45.343,30.82
45.359,29.16
45.375,28.18
45.390,27.75
45.406,27.6
45.421,27.4
45.437,26.83
45.453,25.57
45.468,23.44
45.484,20.42
45.500,16.66
45.515,12.43
45.531,8.03
45.546,3.63
45.562,-0.71
45.578,-5.13
45.593,-9.78
45.609,-14.74
45.625,-19.89
45.640,-25.06
45.656,-30.1
45.671,-35.06
45.687,-40.27
45.703,-46.17
45.718,-53.15
45.734,-61.18
45.750,-69.64
45.765,-77.32
45.781,-82.78
45.796,-84.72
45.812,-82.58
45.828,-76.58
45.843,-67.62
45.859,-56.9
45.875,-45.49
45.890,-34.02
45.906,-22.81
45.921,-12.07
45.937,-2.13
45.953,6.49
45.968,13.31
45.984,18.1
46.000,21.04
46.015,22.69
46.031,23.73
46.046,24.58
46.062,25.34
46.078,25.8
46.093,25.76
46.109,25.26
46.125,24.77
46.140,24.92
46.156,26.22
46.171,28.77
46.187,32.13
46.203,35.59
46.218,38.5
46.234,40.56
46.250,41.84
46.265,42.62
46.281,43.1
46.296,43.35
46.312,43.31
46.328,43.05
46.343,42.9
46.359,43.38
46.375,44.93
46.390,47.53
46.406,50.58
46.421,53.0
46.437,53.63
46.453,51.63
46.468,46.79
46.484,39.4
46.500,29.95
46.515,18.74
46.531,5.77
46.546,-9.04
46.562,-25.34
46.578,-42.09
46.593,-57.55
46.609,-69.82
46.625,-77.52
46.640,-80.29
46.656,-78.99
46.671,-75.26
46.687,-70.83
46.703,-66.89
46.718,-63.81
46.734,-61.09
46.750,-57.72
46.765,-52.61
46.781,-44.9
46.796,-34.3
46.812,-21.24
46.828,-6.86
46.843,7.18
46.859,19.09
46.875,27.43
46.890,31.55
46.906,31.72
46.921,29.01
46.937,24.98
46.953,21.23
46.968,19.02
46.984,19.12
47.000,21.72
47.015,26.6
47.031,33.21
47.046,40.89
47.062,49.03
47.078,57.36
47.093,65.91
47.109,74.91
47.125,84.41
47.140,93.81
47.156,101.87
47.171,106.88
47.187,107.22
47.203,102.0
47.218,91.41
47.234,76.51
47.250,58.79
47.265,39.7
47.281,20.15
47.296,0.65
47.312,-18.48
47.328,-36.89
47.343,-53.91
47.359,-68.68
47.375,-80.22
47.390,-87.69
47.406,-90.3
47.421,-87.68
47.437,-79.94
47.453,-67.81
47.468,-52.75
47.484,-36.6
47.500,-21.23
47.515,-8.01
47.531,2.41
47.546,10.17
47.562,15.8
47.578,20.03
47.593,23.65
47.609,27.47
47.625,32.44
47.640,39.49
47.656,49.11
47.671,60.86
47.687,73.26
47.703,83.97
47.718,90.62
47.734,91.63
47.750,86.77
47.765,77.25
47.781,65.11
47.796,52.36
47.812,40.33
47.828,29.46
47.843,19.47
47.859,9.91
47.875,0.58
47.890,-8.29
47.906,-16.16
47.921,-22.57
47.937,-27.46
47.953,-31.23
47.968,-34.59
47.984,-38.14
48.000,-42.07
48.015,-46.04
48.031,-49.42
48.046,-51.5
48.062,-51.84
48.078,-50.39
48.093,-47.49
48.109,-43.63
48.125,-39.28
48.140,-34.65
48.156,-29.63
48.171,-24.06
48.187,-17.99
48.203,-11.93
48.218,-6.8
48.234,-3.64
48.250,-3.22
48.265,-5.69
48.281,-10.58
48.296,-17.1
48.312,-24.38
48.328,-31.6
48.343,-37.9
48.359,-42.41
48.375,-44.25
48.390,-43.0
48.406,-38.96
48.421,-33.28
48.437,-27.64
48.453,-23.62
48.468,-22.13
48.484,-23.1
48.500,-25.68
48.515,-28.58
48.531,-30.57
48.546,-30.79
48.562,-28.87
48.578,-25.01
48.593,-19.94
48.609,-14.79
48.625,-10.76
48.640,-8.81
48.656,-9.38
48.671,-12.41
48.687,-17.48
48.703,-24.06
48.718,-31.59
48.734,-39.42
48.750,-46.74
48.765,-52.66
48.781,-56.44
48.796,-57.77
48.812,-57.05
48.828,-55.15
48.843,-52.93
48.859,-50.73
48.875,-48.15
48.890,-44.33
48.906,-38.62
48.921,-31.13
48.937,-22.69
48.953,-14.61
48.968,-7.86
48.984,-2.69
49.000,1.36
49.015,5.03
49.031,8.78
49.046,12.56
49.062,16.03
49.078,18.81
49.093,20.9
49.109,22.54
49.125,23.99
49.140,25.11
49.156,25.37
49.171,24.11
49.187,21.03
49.203,16.59
49.218,11.85
49.234,8.2
49.250,6.83
49.265,8.26
49.281,12.2
49.296,17.74
49.312,23.62
49.328,28.54
49.343,31.52
49.359,31.91
49.375,29.54
49.390,24.63
49.406,17.68
49.421,9.37
49.437,0.41
49.453,-8.55
49.468,-17.03
49.484,-24.77
49.500,-31.71
49.515,-37.91
49.531,-43.5
49.546,-48.54
49.562,-53.1
49.578,-57.24
49.593,-61.09
49.609,-64.87
49.625,-68.91
49.640,-73.5
49.656,-78.76
49.671,-84.37
49.687,-89.55
49.703,-93.02
49.718,-93.41
49.734,-89.71
49.750,-81.66
49.765,-69.91
49.781,-55.75
49.796,-40.69
49.812,-25.95
49.828,-12.28
49.843,0.05
49.859,10.89
49.875,19.95
49.890,26.8
49.906,31.04
49.921,32.53
49.937,31.54
49.953,28.69
49.968,24.85
49.984,20.94
50.000,17.83
50.015,16.25
50.031,16.63
50.046,19.1
50.062,23.35
50.078,28.78
50.093,34.55
50.109,39.88
50.125,44.24
50.140,47.38
50.156,49.28
50.171,49.89
50.187,49.25
50.203,47.31
50.218,44.23
50.234,40.35
50.250,36.2
50.265,32.31
50.281,28.99
50.296,26.22
50.312,23.57
50.328,20.56
50.343,16.86
50.359,12.51
50.375,7.84
50.390,3.28
50.406,-0.91
50.421,-4.71
50.437,-8.16
50.453,-11.24
50.468,-13.66
50.484,-15.09
50.500,-15.34
50.515,-14.49
50.531,-12.94
50.546,-11.09
50.562,-9.11
50.578,-6.72
50.593,-3.44
50.609,1.04
50.625,6.45
50.640,11.98
50.656,16.5
50.671,19.01
50.687,19.03
50.703,16.62
50.718,12.32
50.734,6.82
50.750,0.86
50.765,-4.85
50.781,-9.55
50.796,-12.48
50.812,-13.08
50.828,-11.16
50.843,-7.07
50.859,-1.7
50.875,3.79
50.890,8.26
50.906,10.89
50.921,11.23
50.937,9.21
50.953,5.06
50.968,-0.64
50.984,-6.99
51.000,-12.68
51.015,-16.32
51.031,-16.71
51.046,-13.31
51.062,-6.49
51.078,2.37
51.093,11.11
51.109,17.38
51.125,19.19
51.140,15.52
51.156,6.68
51.171,-5.61
51.187,-18.59
51.203,-29.14
51.218,-34.62
51.234,-33.54
51.250,-26.04
51.265,-13.77
51.281,0.71
51.296,14.64
51.312,25.75
51.328,32.57
51.343,34.55
51.359,31.94
51.375,25.63
51.390,16.99
51.406,7.61
51.421,-0.9
51.437,-7.34
51.453,-11.2
51.468,-12.65
51.484,-12.45
51.500,-11.57
51.515,-10.89
51.531,-10.97
51.546,-12.12
51.562,-14.34
51.578,-17.4
51.593,-20.76
51.609,-23.61
51.625,-25.15
51.640,-24.83
51.656,-22.67
51.671,-19.31
51.687,-15.75
51.703,-12.98
51.718,-11.56
51.734,-11.55
51.750,-12.57
51.765,-14.22
51.781,-16.19
51.796,-18.48
51.812,-21.36
51.828,-25.22
51.843,-30.64
51.859,-38.07
51.875,-47.67
51.890,-58.95
51.906,-70.4
51.921,-79.63
51.937,-83.77
51.953,-80.42
51.968,-68.62
51.984,-49.29
52.000,-25.08
52.015,0.58
52.031,24.48
52.046,44.5
52.062,59.89
52.078,70.8
52.093,77.83
52.109,81.51
52.125,82.26
52.140,80.51
52.156,76.84
52.171,72.03
52.187,66.84
52.203,61.81
52.218,57.13
52.234,52.8
52.250,48.88
52.265,45.66
52.281,43.68
52.296,43.43
52.312,45.05
52.328,48.16
52.343,51.8
52.359,54.73
52.375,55.85
52.390,54.42
52.406,50.31
52.421,43.84
52.437,35.63
52.453,26.26
52.468,16.15
52.484,5.45
52.500,-5.88
52.515,-17.87
52.531,-30.52
52.546,-43.64
52.562,-56.9
52.578,-69.74
52.593,-81.45
52.609,-91.12
52.625,-97.66
52.640,-100.05
52.656,-97.6
52.671,-90.31
52.687,-79.02
52.703,-65.36
52.718,-51.19
52.734,-38.04
52.750,-26.66
52.765,-16.99
52.781,-8.41
52.796,-0.3
52.812,7.48
52.828,14.57
52.843,20.28
52.859,23.96
52.875,25.33
52.890,24.53
52.906,22.02
52.921,18.34
52.937,14.02
52.953,9.56
52.968,5.54
52.984,2.73
53.000,1.91
53.015,3.75
53.031,8.45
53.046,15.59
53.062,24.12
53.078,32.59
53.093,39.66
53.109,44.36
53.125,46.3
53.140,45.57
53.156,42.52
53.171,37.58
53.187,31.11
53.203,23.41
53.218,14.69
53.234,5.18
53.250,-4.98
53.265,-15.61
53.281,-26.4
53.296,-36.61
53.312,-45.03
53.328,-50.11
53.343,-50.41
53.359,-45.23
53.375,-34.96
53.390,-21.07
53.406,-5.58
53.421,9.54
53.437,22.99
53.453,34.17
53.468,43.1
53.484,49.94
53.500,54.73
53.515,57.34
53.531,57.72
53.546,56.08
53.562,52.94
53.578,49.07
53.593,45.15
53.609,41.58
53.625,38.43
53.640,35.44
53.656,32.28
53.671,28.72
53.687,24.82
53.703,20.9
53.718,17.5
53.734,15.07
53.750,13.71
53.765,13.09
53.781,12.39
53.796,10.64
53.812,7.21
53.828,2.06
53.843,-4.19
53.859,-10.53
53.875,-16.14
53.890,-20.71
53.906,-24.5
53.921,-28.08
53.937,-32.0
53.953,-36.51
53.968,-41.55
53.984,-46.8
54.000,-51.59
54.015,-55.0
54.031,-55.93
54.046,-53.28
54.062,-46.46
54.078,-35.75
54.093,-22.37
54.109,-8.12
54.125,5.23
54.140,16.59
54.156,26.05
54.171,34.68
54.187,44.09
54.203,55.64
54.218,69.78
54.234,85.78
54.250,101.79
54.265,115.53
54.281,124.85
54.296,128.39
54.312,125.7
54.328,117.22
54.343,103.93
54.359,87.08
54.375,68.11
54.390,48.55
54.406,29.87
54.421,13.34
54.437,-0.32
54.453,-11.19
54.468,-19.97
54.484,-27.73
54.500,-35.38
54.515,-43.33
54.531,-51.38
54.546,-58.94
54.562,-65.34
54.578,-70.12
54.593,-73.24
54.609,-74.98
54.625,-75.89
54.640,-76.65
54.656,-77.94
54.671,-80.34
54.687,-84.12
54.703,-88.92
54.718,-93.64
54.734,-96.66
54.750,-96.21
54.765,-91.04
54.781,-80.81
54.796,-66.25
54.812,-48.78
54.828,-30.05
54.843,-11.48
54.859,6.01
54.875,21.91
54.890,35.94
54.906,47.87
54.921,57.3
54.937,63.68
54.953,66.42
54.968,65.1
54.984,59.9
55.000,51.92
55.015,43.2
55.031,36.33
55.046,33.77
55.062,36.97
55.078,45.9
55.093,58.98
55.109,73.57
55.125,86.76
55.140,96.11
55.156,100.15
55.171,98.58
55.187,92.08
55.203,82.08
55.218,70.38
55.234,58.93
55.250,49.47
55.265,43.26
55.281,40.88
55.296,42.01
55.312,45.5
55.328,49.6
55.343,52.38
55.359,52.3
55.375,48.71
55.390,41.97
55.406,33.24
55.421,23.99
55.437,15.41
55.453,8.15
55.468,2.36
55.484,-2.02
55.500,-5.03
55.515,-6.5
55.531,-6.29
55.546,-4.49
55.562,-1.61
55.578,1.46
55.593,3.8
55.609,4.79
55.625,4.25
55.640,2.37
55.656,-0.47
55.671,-3.9
55.687,-7.64
55.703,-11.6
55.718,-15.81
55.734,-20.36
55.750,-25.26
55.765,-30.45
55.781,-35.71
55.796,-40.75
55.812,-45.32
55.828,-49.36
55.843,-52.98
55.859,-56.5
55.875,-60.18
55.890,-64.08
55.906,-68.01
55.921,-71.62
55.937,-74.56
55.953,-76.77
55.968,-78.51
55.984,-80.25
56.000,-82.55
56.015,-85.87
56.031,-90.46
56.046,-96.28
56.062,-102.99
56.078,-109.87
56.093,-115.84
56.109,-119.6
56.125,-119.82
56.140,-115.57
56.156,-106.56
56.171,-93.28
56.187,-76.72
56.203,-58.23
56.218,-39.11
56.234,-20.48
56.250,-3.23
56.265,12.0
56.281,24.93
56.296,35.67
56.312,44.63
56.328,52.4
56.343,59.42
56.359,65.73
56.375,70.92
56.390,74.36
56.406,75.54
56.421,74.37
56.437,71.33
56.453,67.29
56.468,63.24
56.484,59.94
56.500,57.71
56.515,56.35
56.531,55.3
56.546,53.9
56.562,51.67
56.578,48.46
56.593,44.46
56.609,40.02
56.625,35.4
56.640,30.63
56.656,25.52
56.671,19.73
56.687,12.87
56.703,4.7
56.718,-4.88
56.734,-15.7
56.750,-27.26
56.765,-38.68
56.781,-48.79
56.796,-56.29
56.812,-60.2
56.828,-60.13
56.843,-56.44
56.859,-50.13
56.875,-42.48
56.890,-34.64
56.906,-27.34
56.921,-20.9
56.937,-15.25
56.953,-10.23
56.968,-5.78
56.984,-2.05
57.000,0.6
57.015,1.72
57.031,0.98
57.046,-1.64
57.062,-5.78
57.078,-10.74
57.093,-15.71
57.109,-19.88
57.125,-22.66
57.140,-23.77
57.156,-23.18
57.171,-21.16
57.187,-18.14
57.203,-14.64
57.218,-11.3
57.234,-8.74
57.250,-7.49
57.265,-7.86
57.281,-9.95
57.296,-13.56
57.312,-18.28
57.328,-23.69
57.343,-29.51
57.359,-35.89
57.375,-43.4
57.390,-52.67
57.406,-63.83
57.421,-75.91
57.437,-86.68
57.453,-93.12
57.468,-92.56
57.484,-83.69
57.500,-67.26
57.515,-45.78
57.531,-22.53
57.546,-0.4
57.562,18.96
57.578,35.16
57.593,48.55
57.609,59.39
57.625,67.59
57.640,72.67
57.656,74.28
57.671,72.59
57.687,68.44
57.703,63.13
57.718,57.86
57.734,53.48
57.750,50.09
57.765,47.32
57.781,44.64
57.796,41.66
57.812,38.31
57.828,34.81
57.843,31.42
57.859,28.26
57.875,25.23
57.890,22.07
57.906,18.66
57.921,15.15
57.937,12.01
57.953,9.8
57.968,8.8
57.984,8.85
58.000,9.14
58.015,8.51
58.031,5.67
58.046,-0.33
58.062,-9.68
58.078,-21.65
58.093,-34.54
58.109,-46.22
58.125,-54.71
58.140,-58.79
58.156,-58.25
58.171,-53.9
58.187,-47.04
58.203,-38.94
58.218,-30.52
58.234,-22.26
58.250,-14.47
58.265,-7.48
58.281,-1.72
58.296,2.49
58.312,5.07
58.328,6.31
58.343,6.75
58.359,6.94
58.375,7.3
58.390,7.9
58.406,8.53
58.421,8.72
58.437,8.1
58.453,6.55
58.468,4.38
58.484,2.23
58.500,0.8
58.515,0.52
58.531,1.24
58.546,2.37
58.562,3.01
58.578,2.5
58.593,0.65
58.609,-2.32
58.625,-6.03
58.640,-10.32
58.656,-15.24
58.671,-20.99
58.687,-27.49
58.703,-34.28
58.718,-40.61
58.734,-45.69
58.750,-48.92
58.765,-49.87
58.781,-48.24
58.796,-43.73
58.812,-36.18
58.828,-25.85
58.843,-13.53
58.859,-0.49
58.875,12.01
58.890,23.08
58.906,32.62
58.921,41.04
58.937,48.88
58.953,56.26
58.968,62.86
58.984,67.99
59.000,71.12
59.015,72.14
59.031,71.37
59.046,69.36
59.062,66.62
59.078,63.48
59.093,60.0
59.109,56.21
59.125,52.16
59.140,48.08
59.156,44.32
59.171,41.23
59.187,39.03
59.203,37.69
59.218,36.9
59.234,36.08
59.250,34.61
59.265,32.02
59.281,28.16
59.296,23.37
59.312,18.3
59.328,13.66
59.343,9.85
59.359,6.76
59.375,3.72
59.390,-0.31
59.406,-6.38
59.421,-15.17
59.437,-26.81
59.453,-40.85
59.468,-56.33
59.484,-72.01
59.500,-86.46
59.515,-98.11
59.531,-105.47
59.546,-107.41
59.562,-103.52
59.578,-94.3
59.593,-81.22
59.609,-66.28
59.625,-51.38
59.640,-37.82
59.656,-26.1
59.671,-15.99
59.687,-6.93
59.703,1.45
59.718,9.18
59.734,15.92
59.750,21.25
59.765,24.9
59.781,26.88
59.796,27.41
59.812,26.81
59.828,25.32
59.843,23.1
59.859,20.3
59.875,17.18
59.890,14.2
59.906,11.95
59.921,10.96
59.937,11.52
59.953,13.52
59.968,16.47
59.984,19.67
