timestamp,value
00.000,-16.07
00.015,-17.11
00.031,-18.2
00.046,-19.45
00.062,-20.98
00.078,-22.86
00.093,-24.94
00.109,-26.89
00.125,-28.3
00.140,-28.7
00.156,-27.79
00.171,-25.5
00.187,-21.99
00.203,-17.63
00.218,-12.91
00.234,-8.33
00.250,-4.37
00.265,-1.43
00.281,0.28
00.296,0.67
00.312,-0.06
00.328,-1.57
00.343,-3.46
00.359,-5.34
00.375,-7.01
00.390,-8.41
00.406,-9.58
00.421,-10.55
00.437,-11.29
00.453,-11.71
00.468,-11.75
00.484,-11.53
00.500,-11.26
00.515,-11.25
00.531,-11.73
00.546,-12.75
00.562,-14.1
00.578,-15.48
00.593,-16.58
00.609,-17.12
00.625,-17.05
00.640,-16.34
00.656,-15.03
00.671,-13.21
00.687,-10.99
00.703,-8.57
00.718,-6.23
00.734,-4.27
00.750,-2.86
00.765,-1.97
00.781,-1.32
00.796,-0.5
00.812,0.87
00.828,2.96
00.843,5.66
00.859,8.67
00.875,11.6
00.890,14.13
00.906,15.98
00.921,17.03
00.937,17.19
00.953,16.43
00.968,14.85
00.984,12.69
01.000,10.34
01.015,8.26
01.031,6.89
01.046,6.49
01.062,7.16
01.078,8.83
01.093,11.31
01.109,14.45
01.125,18.05
01.140,21.93
01.156,25.88
01.171,29.63
01.187,32.83
01.203,35.21
01.218,36.64
01.234,37.2
01.250,37.1
01.265,36.62
01.281,36.04
01.296,35.55
01.312,35.23
01.328,35.02
01.343,34.74
01.359,34.1
01.375,32.8
01.390,30.61
01.406,27.46
01.421,23.51
01.437,19.12
01.453,14.77
01.468,10.91
01.484,7.9
01.500,5.89
01.515,4.81
01.531,4.38
01.546,4.18
01.562,3.76
01.578,2.74
01.593,0.97
01.609,-1.49
01.625,-4.36
01.640,-7.37
01.656,-10.26
01.671,-12.91
01.687,-15.32
01.703,-17.6
01.718,-19.84
01.734,-22.11
01.750,-24.42
01.765,-26.73
01.781,-28.98
01.796,-31.08
01.812,-32.91
01.828,-34.37
01.843,-35.4
01.859,-35.95
01.875,-36.05
01.890,-35.79
01.906,-35.31
01.921,-34.8
01.937,-34.52
01.953,-34.72
01.968,-35.71
01.984,-37.63
02.000,-40.46
02.015,-43.93
02.031,-47.43
02.046,-50.21
02.062,-51.46
02.078,-50.57
02.093,-47.19
02.109,-41.36
02.125,-33.43
02.140,-23.97
02.156,-13.8
02.171,-3.74
02.187,5.4
02.203,13.02
02.218,18.8
02.234,22.74
02.250,25.05
02.265,25.95
02.281,25.72
02.296,24.52
02.312,22.6
02.328,20.29
02.343,17.99
02.359,16.07
02.375,14.62
02.390,13.51
02.406,12.38
02.421,10.85
02.437,8.75
02.453,6.18
02.468,3.41
02.484,0.77
02.500,-1.56
02.515,-3.63
02.531,-5.68
02.546,-7.99
02.562,-10.79
02.578,-14.14
02.593,-17.96
02.609,-22.06
02.625,-26.1
02.640,-29.6
02.656,-32.07
02.671,-33.01
02.687,-32.06
02.703,-29.18
02.718,-24.6
02.734,-18.81
02.750,-12.43
02.765,-6.08
02.781,-0.21
02.796,4.85
02.812,8.91
02.828,11.82
02.843,13.51
02.859,13.98
02.875,13.33
02.890,11.76
02.906,9.57
02.921,7.11
02.937,4.69
02.953,2.55
02.968,0.77
02.984,-0.64
03.000,-1.73
03.015,-2.59
03.031,-3.28
03.046,-3.91
03.062,-4.63
03.078,-5.64
03.093,-7.15
03.109,-9.24
03.125,-11.84
03.140,-14.72
03.156,-17.69
03.171,-20.63
03.187,-23.63
03.203,-26.78
03.218,-30.05
03.234,-33.09
03.250,-35.12
03.265,-35.18
03.281,-32.36
03.296,-26.23
03.312,-17.12
03.328,-6.24
03.343,4.63
03.359,13.51
03.375,18.86
03.390,20.01
03.406,17.37
03.421,12.22
03.437,6.38
03.453,1.61
03.468,-0.79
03.484,-0.27
03.500,2.79
03.515,7.11
03.531,10.8
03.546,11.94
03.562,9.33
03.578,3.12
03.593,-5.03
03.609,-12.52
03.625,-16.66
03.640,-15.79
03.656,-9.8
03.671,-0.21
03.687,10.44
03.703,19.33
03.718,24.03
03.734,22.81
03.750,14.66
03.765,-0.6
03.781,-22.17
03.796,-48.02
03.812,-74.73
03.828,-97.93
03.843,-113.33
03.859,-117.69
03.875,-109.97
03.890,-91.69
03.906,-66.59
03.921,-39.64
03.937,-15.85
03.953,0.8
03.968,8.13
03.984,6.05
04.000,-3.41
04.015,-16.64
04.031,-29.45
04.046,-38.31
04.062,-41.55
04.078,-39.87
04.093,-35.84
04.109,-32.61
04.125,-32.26
04.140,-34.88
04.156,-38.7
04.171,-41.18
04.187,-40.26
04.203,-35.33
04.218,-27.01
04.234,-16.41
04.250,-4.25
04.265,9.28
04.281,24.28
04.296,40.35
04.312,56.34
04.328,70.56
04.343,81.4
04.359,88.11
04.375,91.04
04.390,91.4
04.406,90.67
04.421,90.25
04.437,91.16
04.453,94.19
04.468,99.89
04.484,108.43
04.500,119.48
04.515,132.14
04.531,145.11
04.546,157.0
04.562,166.83
04.578,174.0
04.593,178.3
04.609,179.52
04.625,177.48
04.640,172.01
04.656,163.25
04.671,151.94
04.687,139.26
04.703,126.61
04.718,114.93
04.734,104.32
04.750,93.87
04.765,82.13
04.781,67.75
04.796,50.06
04.812,29.36
04.828,6.59
04.843,-17.08
04.859,-40.58
04.875,-62.78
04.890,-82.38
04.906,-97.87
04.921,-107.97
04.937,-112.33
04.953,-111.92
04.968,-108.95
04.984,-106.03
05.000,-105.2
05.015,-107.13
05.031,-111.26
05.046,-116.37
05.062,-121.48
05.078,-126.32
05.093,-131.09
05.109,-135.92
05.125,-140.27
05.140,-142.83
05.156,-142.04
05.171,-136.77
05.187,-126.92
05.203,-113.4
05.218,-97.88
05.234,-82.07
05.250,-67.28
05.265,-54.12
05.281,-42.61
05.296,-32.54
05.312,-23.72
05.328,-16.22
05.343,-10.24
05.359,-6.02
05.375,-3.65
05.390,-2.95
05.406,-3.46
05.421,-4.57
05.437,-5.68
05.453,-6.3
05.468,-6.13
05.484,-5.08
05.500,-3.21
05.515,-0.62
05.531,2.48
05.546,5.8
05.562,9.02
05.578,11.76
05.593,13.77
05.609,14.95
05.625,15.34
05.640,15.09
05.656,14.3
05.671,13.03
05.687,11.28
05.703,9.13
05.718,6.76
05.734,4.46
05.750,2.49
05.765,0.89
05.781,-0.53
05.796,-2.14
05.812,-4.28
05.828,-7.06
05.843,-10.31
05.859,-13.59
05.875,-16.44
05.890,-18.4
05.906,-19.23
05.921,-18.72
05.937,-16.72
05.953,-13.12
05.968,-7.93
05.984,-1.35
06.000,6.14
06.015,13.87
06.031,21.22
06.046,27.74
06.062,33.45
06.078,38.72
06.093,44.09
06.109,49.98
06.125,56.41
06.140,62.92
06.156,68.75
06.171,73.16
06.187,75.6
06.203,76.0
06.218,74.52
06.234,71.39
06.250,66.84
06.265,61.0
06.281,54.08
06.296,46.56
06.312,39.19
06.328,32.8
06.343,28.15
06.359,25.53
06.375,24.77
06.390,25.32
06.406,26.51
06.421,27.75
06.437,28.63
06.453,28.97
06.468,28.59
06.484,27.38
06.500,25.18
06.515,21.97
06.531,17.96
06.546,13.57
06.562,9.36
06.578,5.86
06.593,3.31
06.609,1.62
06.625,0.47
06.640,-0.55
06.656,-1.72
06.671,-2.96
06.687,-3.96
06.703,-4.2
06.718,-3.2
06.734,-0.6
06.750,3.69
06.765,9.53
06.781,16.61
06.796,24.47
06.812,32.52
06.828,40.14
06.843,46.69
06.859,51.57
06.875,54.44
06.890,55.18
06.906,53.98
06.921,51.24
06.937,47.44
06.953,43.03
06.968,38.39
06.984,33.83
07.000,29.56
07.015,25.72
07.031,22.32
07.046,19.24
07.062,16.2
07.078,12.95
07.093,9.25
07.109,5.04
07.125,0.4
07.140,-4.51
07.156,-9.48
07.171,-14.33
07.187,-18.92
07.203,-23.08
07.218,-26.71
07.234,-29.69
07.250,-32.02
07.265,-33.83
07.281,-35.44
07.296,-37.21
07.312,-39.51
07.328,-42.53
07.343,-46.25
07.359,-50.41
07.375,-54.63
07.390,-58.53
07.406,-61.72
07.421,-63.93
07.437,-64.9
07.453,-64.35
07.468,-62.07
07.484,-57.89
07.500,-51.82
07.515,-44.09
07.531,-35.12
07.546,-25.44
07.562,-15.64
07.578,-6.3
07.593,2.05
07.609,9.0
07.625,14.28
07.640,17.84
07.656,19.77
07.671,20.22
07.687,19.4
07.703,17.54
07.718,14.87
07.734,11.7
07.750,8.32
07.765,5.02
07.781,1.91
07.796,-1.04
07.812,-3.98
07.828,-6.99
07.843,-9.96
07.859,-12.57
07.875,-14.38
07.890,-15.13
07.906,-14.81
07.921,-13.69
07.937,-12.22
07.953,-10.84
07.968,-9.86
07.984,-9.39
08.000,-9.43
08.015,-9.91
08.031,-10.82
08.046,-12.2
08.062,-14.09
08.078,-16.43
08.093,-19.07
08.109,-21.79
08.125,-24.31
08.140,-26.44
08.156,-28.08
08.171,-29.21
08.187,-29.82
08.203,-29.87
08.218,-29.19
08.234,-27.52
08.250,-24.56
08.265,-20.09
08.281,-14.09
08.296,-6.77
08.312,1.43
08.328,9.96
08.343,18.2
08.359,25.6
08.375,31.79
08.390,36.52
08.406,39.71
08.421,41.45
08.437,42.01
08.453,41.82
08.468,41.39
08.484,41.24
08.500,41.74
08.515,43.0
08.531,44.84
08.546,46.86
08.562,48.55
08.578,49.52
08.593,49.53
08.609,48.52
08.625,46.6
08.640,43.9
08.656,40.53
08.671,36.54
08.687,31.95
08.703,26.79
08.718,21.14
08.734,15.2
08.750,9.21
08.765,3.42
08.781,-2.0
08.796,-7.01
08.812,-11.66
08.828,-16.06
08.843,-20.32
08.859,-24.56
08.875,-28.93
08.890,-33.59
08.906,-38.62
08.921,-43.85
08.937,-48.87
08.953,-52.96
08.968,-55.34
08.984,-55.39
09.000,-52.87
09.015,-47.99
09.031,-41.31
09.046,-33.51
09.062,-25.23
09.078,-17.04
09.093,-9.36
09.109,-2.53
09.125,3.15
09.140,7.47
09.156,10.31
09.171,11.74
09.187,11.94
09.203,11.24
09.218,10.02
09.234,8.64
09.250,7.31
09.265,6.15
09.281,5.14
09.296,4.17
09.312,3.17
09.328,2.09
09.343,0.93
09.359,-0.31
09.375,-1.6
09.390,-2.98
09.406,-4.43
09.421,-5.96
09.437,-7.55
09.453,-9.2
09.468,-10.97
09.484,-12.91
09.500,-15.08
09.515,-17.45
09.531,-19.95
09.546,-22.48
09.562,-24.9
09.578,-27.13
09.593,-29.17
09.609,-31.07
09.625,-32.98
09.640,-35.08
09.656,-37.54
09.671,-40.47
09.687,-43.77
09.703,-47.1
09.718,-49.89
09.734,-51.43
09.750,-51.12
09.765,-48.59
09.781,-43.86
09.796,-37.36
09.812,-29.73
09.828,-21.74
09.843,-14.07
09.859,-7.2
09.875,-1.38
09.890,3.35
09.906,7.05
09.921,9.93
09.937,12.15
09.953,13.88
09.968,15.3
09.984,16.52
10.000,17.74
10.015,19.12
10.031,20.74
10.046,22.63
10.062,24.72
10.078,26.89
10.093,29.04
10.109,31.11
10.125,33.07
10.140,34.81
10.156,36.19
10.171,37.0
10.187,37.04
10.203,36.21
10.218,34.59
10.234,32.38
10.250,29.83
10.265,27.16
10.281,24.52
10.296,21.96
10.312,19.49
10.328,17.03
10.343,14.51
10.359,11.8
10.375,8.84
10.390,5.58
10.406,2.0
10.421,-1.83
10.437,-5.82
10.453,-9.91
10.468,-14.06
10.484,-18.33
10.500,-22.76
10.515,-27.25
10.531,-31.48
10.546,-34.91
10.562,-36.84
10.578,-36.69
10.593,-34.15
10.609,-29.29
10.625,-22.56
10.640,-14.56
10.656,-5.97
10.671,2.62
10.687,10.74
10.703,17.91
10.718,23.75
10.734,27.93
10.750,30.34
10.765,31.04
10.781,30.29
10.796,28.47
10.812,25.96
10.828,23.15
10.843,20.36
10.859,17.92
10.875,16.09
10.890,15.01
10.906,14.63
10.921,14.72
10.937,14.93
10.953,14.9
10.968,14.47
10.984,13.59
11.000,12.39
11.015,10.96
11.031,9.32
11.046,7.37
11.062,5.04
11.078,2.31
11.093,-0.68
11.109,-3.72
11.125,-6.63
11.140,-9.38
11.156,-12.14
11.171,-15.11
11.187,-18.46
11.203,-22.19
11.218,-26.1
11.234,-29.94
11.250,-33.48
11.265,-36.66
11.281,-39.5
11.296,-42.12
11.312,-44.61
11.328,-47.12
11.343,-49.8
11.359,-52.75
11.375,-55.92
11.390,-58.92
11.406,-61.01
11.421,-61.2
11.437,-58.6
11.453,-52.79
11.468,-44.01
11.484,-33.03
11.500,-20.92
11.515,-8.67
11.531,2.99
11.546,13.59
11.562,22.81
11.578,30.37
11.593,36.08
11.609,39.94
11.625,42.18
11.640,43.27
11.656,43.66
11.671,43.78
11.687,43.85
11.703,43.99
11.718,44.3
11.734,44.85
11.750,45.68
11.765,46.72
11.781,47.78
11.796,48.57
11.812,48.91
11.828,48.65
11.843,47.81
11.859,46.48
11.875,44.76
11.890,42.65
11.906,40.18
11.921,37.33
11.937,34.14
11.953,30.68
11.968,27.0
11.984,23.13
12.000,19.11
12.015,14.95
12.031,10.68
12.046,6.37
12.062,2.07
12.078,-2.2
12.093,-6.41
12.109,-10.63
12.125,-14.9
12.140,-19.24
12.156,-23.68
12.171,-28.19
12.187,-32.71
12.203,-37.15
12.218,-41.32
12.234,-44.91
12.250,-47.53
12.265,-48.75
12.281,-48.12
12.296,-45.31
12.312,-40.12
12.328,-32.51
12.343,-22.77
12.359,-11.44
12.375,0.66
12.390,12.56
12.406,23.36
12.421,32.44
12.437,39.5
12.453,44.63
12.468,48.08
12.484,50.11
12.500,50.87
12.515,50.49
12.531,49.0
12.546,46.56
12.562,43.35
12.578,39.58
12.593,35.45
12.609,31.11
12.625,26.73
12.640,22.51
12.656,18.69
12.671,15.46
12.687,12.86
12.703,10.75
12.718,8.88
12.734,6.96
12.750,4.87
12.765,2.68
12.781,0.57
12.796,-1.3
12.812,-2.89
12.828,-4.34
12.843,-5.8
12.859,-7.47
12.875,-9.39
12.890,-11.57
12.906,-13.94
12.921,-16.46
12.937,-19.1
12.953,-21.88
12.968,-24.75
12.984,-27.6
13.000,-30.33
13.015,-32.86
13.031,-35.19
13.046,-37.34
13.062,-39.23
13.078,-40.66
13.093,-41.23
13.109,-40.51
13.125,-38.06
13.140,-33.71
13.156,-27.59
13.171,-20.12
13.187,-11.99
13.203,-3.96
13.218,3.3
13.234,9.33
13.250,13.92
13.265,17.06
13.281,18.89
13.296,19.51
13.312,19.08
13.328,17.74
13.343,15.69
13.359,13.24
13.375,10.83
13.390,8.83
13.406,7.52
13.421,6.95
13.437,7.01
13.453,7.45
13.468,7.95
13.484,8.29
13.500,8.36
13.515,8.16
13.531,7.77
13.546,7.28
13.562,6.7
13.578,6.0
13.593,5.1
13.609,3.88
13.625,2.32
13.640,0.44
13.656,-1.7
13.671,-3.98
13.687,-6.32
13.703,-8.69
13.718,-11.09
13.734,-13.56
13.750,-16.16
13.765,-19.0
13.781,-22.12
13.796,-25.49
13.812,-28.89
13.828,-31.93
13.843,-34.04
13.859,-34.69
13.875,-33.46
13.890,-30.22
13.906,-25.15
13.921,-18.71
13.937,-11.47
13.953,-4.01
13.968,3.18
13.984,9.72
14.000,15.24
14.015,19.48
14.031,22.23
14.046,23.47
14.062,23.34
14.078,22.18
14.093,20.35
14.109,18.18
14.125,15.91
14.140,13.63
14.156,11.38
14.171,9.21
14.187,7.23
14.203,5.55
14.218,4.31
14.234,3.49
14.250,3.02
14.265,2.72
14.281,2.35
14.296,1.67
14.312,0.49
14.328,-1.29
14.343,-3.63
14.359,-6.33
14.375,-9.11
14.390,-11.61
14.406,-13.53
14.421,-14.67
14.437,-14.99
14.453,-14.62
14.468,-13.87
14.484,-13.19
14.500,-12.98
14.515,-13.53
14.531,-14.87
14.546,-16.67
14.562,-18.34
14.578,-19.15
14.593,-18.5
14.609,-16.09
14.625,-11.96
14.640,-6.5
14.656,-0.31
14.671,6.01
14.687,11.91
14.703,16.96
14.718,20.93
14.734,23.73
14.750,25.35
14.765,25.84
14.781,25.29
14.796,23.81
14.812,21.6
14.828,18.97
14.843,16.27
14.859,13.87
14.875,12.04
14.890,10.87
14.906,10.25
14.921,9.94
14.937,9.69
14.953,9.25
14.968,8.52
14.984,7.46
15.000,6.08
15.015,4.41
15.031,2.47
15.046,0.25
15.062,-2.2
15.078,-4.8
15.093,-7.44
15.109,-9.95
15.125,-12.18
15.140,-14.1
15.156,-15.82
15.171,-17.59
15.187,-19.68
15.203,-22.21
15.218,-25.09
15.234,-27.92
15.250,-30.16
15.265,-31.22
15.281,-30.65
15.296,-28.22
15.312,-24.02
15.328,-18.31
15.343,-11.53
15.359,-4.18
15.375,3.23
15.390,10.18
15.406,16.31
15.421,21.34
15.437,25.15
15.453,27.69
15.468,28.99
15.484,29.06
15.500,27.96
15.515,25.81
15.531,22.89
15.546,19.54
15.562,16.14
15.578,13.0
15.593,10.31
15.609,8.07
15.625,6.28
15.640,4.86
15.656,3.78
15.671,3.03
15.687,2.53
15.703,2.15
15.718,1.7
15.734,0.98
15.750,-0.15
15.765,-1.73
15.781,-3.75
15.796,-6.07
15.812,-8.52
15.828,-10.91
15.843,-13.11
15.859,-15.08
15.875,-16.88
15.890,-18.69
15.906,-20.74
15.921,-23.11
15.937,-25.71
15.953,-28.18
15.968,-29.96
15.984,-30.48
16.000,-29.26
16.015,-26.07
16.031,-21.0
16.046,-14.4
16.062,-6.85
16.078,0.93
16.093,8.26
16.109,14.55
16.125,19.45
16.140,22.83
16.156,24.79
16.171,25.54
16.187,25.32
16.203,24.33
16.218,22.79
16.234,20.93
16.250,19.04
16.265,17.38
16.281,16.16
16.296,15.38
16.312,14.95
16.328,14.66
16.343,14.36
16.359,14.0
16.375,13.63
16.390,13.33
16.406,13.11
16.421,12.9
16.437,12.55
16.453,11.93
16.468,11.04
16.484,9.97
16.500,8.92
16.515,8.05
16.531,7.44
16.546,7.05
16.562,6.78
16.578,6.48
16.593,6.09
16.609,5.56
16.625,4.96
16.640,4.38
16.656,3.89
16.671,3.56
16.687,3.38
16.703,3.26
16.718,3.05
16.734,2.59
16.750,1.82
16.765,0.78
16.781,-0.35
16.796,-1.41
16.812,-2.29
16.828,-3.0
16.843,-3.63
16.859,-4.29
16.875,-5.01
16.890,-5.63
16.906,-5.94
16.921,-5.73
16.937,-4.97
16.953,-3.83
16.968,-2.6
16.984,-1.64
17.000,-1.2
17.015,-1.37
17.031,-2.12
17.046,-3.34
17.062,-4.93
17.078,-6.84
17.093,-8.98
17.109,-11.26
17.125,-13.59
17.140,-15.91
17.156,-18.22
17.171,-20.61
17.187,-23.15
17.203,-25.83
17.218,-28.61
17.234,-31.33
17.250,-33.84
17.265,-36.09
17.281,-38.15
17.296,-40.23
17.312,-42.6
17.328,-45.39
17.343,-48.5
17.359,-51.5
17.375,-53.68
17.390,-54.2
17.406,-52.38
17.421,-47.9
17.437,-40.91
17.453,-32.01
17.468,-22.05
17.484,-11.97
17.500,-2.51
17.515,5.79
17.531,12.65
17.546,18.0
17.562,21.91
17.578,24.47
17.593,25.79
17.609,26.03
17.625,25.47
17.640,24.43
17.656,23.22
17.671,22.06
17.687,20.97
17.703,19.76
17.718,18.22
17.734,16.31
17.750,14.21
17.765,12.29
17.781,10.93
17.796,10.25
17.812,10.09
17.828,10.05
17.843,9.73
17.859,8.83
17.875,7.3
17.890,5.27
17.906,2.98
17.921,0.62
17.937,-1.62
17.953,-3.7
17.968,-5.68
17.984,-7.75
18.000,-10.16
18.015,-13.05
18.031,-16.26
18.046,-19.34
18.062,-21.59
18.078,-22.28
18.093,-21.01
18.109,-17.76
18.125,-12.9
18.140,-7.05
18.156,-0.82
18.171,5.32
18.187,11.02
18.203,16.03
18.218,20.12
18.234,23.04
18.250,24.66
18.265,24.95
18.281,24.08
18.296,22.35
18.312,20.1
18.328,17.64
18.343,15.2
18.359,12.92
18.375,10.83
18.390,8.92
18.406,7.21
18.421,5.68
18.437,4.39
18.453,3.33
18.468,2.41
18.484,1.48
18.500,0.32
18.515,-1.23
18.531,-3.23
18.546,-5.61
18.562,-8.13
18.578,-10.53
18.593,-12.65
18.609,-14.5
18.625,-16.31
18.640,-18.38
18.656,-20.94
18.671,-23.96
18.687,-27.09
18.703,-29.71
18.718,-31.07
18.734,-30.52
18.750,-27.69
18.765,-22.63
18.781,-15.75
18.796,-7.77
18.812,0.52
18.828,8.34
18.843,15.15
18.859,20.58
18.875,24.48
18.890,26.86
18.906,27.81
18.921,27.43
18.937,25.88
18.953,23.34
18.968,20.09
18.984,16.5
19.000,12.98
19.015,9.91
19.031,7.62
19.046,6.23
19.062,5.66
19.078,5.64
19.093,5.8
19.109,5.75
19.125,5.22
19.140,4.07
19.156,2.3
19.171,0.06
19.187,-2.5
19.203,-5.22
19.218,-8.01
19.234,-10.79
19.250,-13.56
19.265,-16.36
19.281,-19.23
19.296,-22.18
19.312,-25.1
19.328,-27.73
19.343,-29.61
19.359,-30.26
19.375,-29.22
19.390,-26.25
19.406,-21.38
19.421,-14.9
19.437,-7.21
19.453,1.18
19.468,9.79
19.484,18.12
19.500,25.65
19.515,31.84
19.531,36.21
19.546,38.48
19.562,38.72
19.578,37.24
19.593,34.6
19.609,31.33
19.625,27.85
19.640,24.38
19.656,21.06
19.671,17.92
19.687,15.06
19.703,12.54
19.718,10.38
19.734,8.49
19.750,6.7
19.765,4.83
19.781,2.78
19.796,0.58
19.812,-1.67
19.828,-3.88
19.843,-5.97
19.859,-7.99
19.875,-10.02
19.890,-12.16
19.906,-14.52
19.921,-17.19
19.937,-20.23
19.953,-23.56
19.968,-26.94
19.984,-29.86
20.000,-31.69
20.015,-31.82
20.031,-29.85
20.046,-25.74
20.062,-19.85
20.078,-12.81
20.093,-5.3
20.109,2.1
20.125,9.06
20.140,15.43
20.156,21.19
20.171,26.28
20.187,30.55
20.203,33.78
20.218,35.81
20.234,36.6
20.250,36.28
20.265,35.1
20.281,33.25
20.296,30.88
20.312,28.06
20.328,24.84
20.343,21.39
20.359,17.93
20.375,14.76
20.390,12.08
20.406,9.94
20.421,8.24
20.437,6.72
20.453,5.17
20.468,3.34
20.484,1.15
20.500,-1.35
20.515,-4.0
20.531,-6.57
20.546,-8.92
20.562,-11.04
20.578,-13.09
20.593,-15.35
20.609,-18.12
20.625,-21.54
20.640,-25.54
20.656,-29.71
20.671,-33.42
20.687,-35.88
20.703,-36.32
20.718,-34.24
20.734,-29.53
20.750,-22.55
20.765,-14.02
20.781,-4.82
20.796,4.15
20.812,12.21
20.828,18.9
20.843,23.99
20.859,27.45
20.875,29.36
20.890,29.89
20.906,29.29
20.921,27.86
20.937,25.92
20.953,23.81
20.968,21.78
20.984,20.02
21.000,18.6
21.015,17.47
21.031,16.47
21.046,15.42
21.062,14.08
21.078,12.36
21.093,10.25
21.109,7.87
21.125,5.35
21.140,2.83
21.156,0.36
21.171,-2.06
21.187,-4.47
21.203,-6.9
21.218,-9.32
21.234,-11.64
21.250,-13.79
21.265,-15.75
21.281,-17.55
21.296,-19.33
21.312,-21.23
21.328,-23.34
21.343,-25.79
21.359,-28.63
21.375,-31.85
21.390,-35.31
21.406,-38.56
21.421,-40.94
21.437,-41.64
21.453,-39.97
21.468,-35.58
21.484,-28.7
21.500,-19.95
21.515,-10.24
21.531,-0.52
21.546,8.5
21.562,16.32
21.578,22.65
21.593,27.34
21.609,30.4
21.625,31.92
21.640,32.2
21.656,31.61
21.671,30.53
21.687,29.29
21.703,28.04
21.718,26.82
21.734,25.59
21.750,24.33
21.765,23.04
21.781,21.74
21.796,20.45
21.812,19.16
21.828,17.84
21.843,16.46
21.859,15.01
21.875,13.54
21.890,12.08
21.906,10.66
21.921,9.26
21.937,7.77
21.953,6.09
21.968,4.14
21.984,1.86
22.000,-0.69
22.015,-3.39
22.031,-6.05
22.046,-8.52
22.062,-10.72
22.078,-12.68
22.093,-14.56
22.109,-16.57
22.125,-18.9
22.140,-21.67
22.156,-24.84
22.171,-28.16
22.187,-31.18
22.203,-33.32
22.218,-34.06
22.234,-33.01
22.250,-30.02
22.265,-25.2
22.281,-18.86
22.296,-11.5
22.312,-3.66
22.328,4.03
22.343,10.99
22.359,16.7
22.375,20.8
22.390,23.23
22.406,24.16
22.421,24.02
22.437,23.36
22.453,22.63
22.468,22.06
22.484,21.65
22.500,21.29
22.515,20.81
22.531,20.18
22.546,19.47
22.562,18.77
22.578,18.09
22.593,17.31
22.609,16.27
22.625,14.9
22.640,13.23
22.656,11.4
22.671,9.52
22.687,7.58
22.703,5.43
22.718,3.01
22.734,0.29
22.750,-2.55
22.765,-5.36
22.781,-8.02
22.796,-10.61
22.812,-13.25
22.828,-16.06
22.843,-18.99
22.859,-21.9
22.875,-24.66
22.890,-27.24
22.906,-29.79
22.921,-32.41
22.937,-35.05
22.953,-37.36
22.968,-38.72
22.984,-38.5
23.000,-36.22
23.015,-31.79
23.031,-25.5
23.046,-17.9
23.062,-9.7
23.078,-1.55
23.093,6.01
23.109,12.64
23.125,18.09
23.140,22.25
23.156,25.07
23.171,26.59
23.187,26.94
23.203,26.29
23.218,24.88
23.234,22.98
23.250,20.83
23.265,18.69
23.281,16.75
23.296,15.14
23.312,13.91
23.328,12.99
23.343,12.22
23.359,11.44
23.375,10.49
23.390,9.27
23.406,7.76
23.421,5.96
23.437,3.89
23.453,1.6
23.468,-0.85
23.484,-3.39
23.500,-5.92
23.515,-8.36
23.531,-10.66
23.546,-12.75
23.562,-14.63
23.578,-16.25
23.593,-17.63
23.609,-18.89
23.625,-20.2
23.640,-21.83
23.656,-23.96
23.671,-26.64
23.687,-29.62
23.703,-32.52
23.718,-34.78
23.734,-35.85
23.750,-35.26
23.765,-32.73
23.781,-28.2
23.796,-21.9
23.812,-14.31
23.828,-6.06
23.843,2.11
23.859,9.53
23.875,15.73
23.890,20.44
23.906,23.61
23.921,25.37
23.937,25.95
23.953,25.63
23.968,24.65
23.984,23.2
24.000,21.47
24.015,19.63
24.031,17.9
24.046,16.48
24.062,15.5
24.078,15.02
24.093,14.88
24.109,14.85
24.125,14.63
24.140,14.02
24.156,12.97
24.171,11.55
24.187,9.88
24.203,8.08
24.218,6.18
24.234,4.16
24.250,1.98
24.265,-0.37
24.281,-2.89
24.296,-5.54
24.312,-8.29
24.328,-11.07
24.343,-13.83
24.359,-16.47
24.375,-18.89
24.390,-20.95
24.406,-22.57
24.421,-23.74
24.437,-24.64
24.453,-25.53
24.468,-26.72
24.484,-28.38
24.500,-30.35
24.515,-32.17
24.531,-33.22
24.546,-32.91
24.562,-30.83
24.578,-26.93
24.593,-21.42
24.609,-14.69
24.625,-7.24
24.640,0.44
24.656,7.79
24.671,14.3
24.687,19.52
24.703,23.24
24.718,25.44
24.734,26.4
24.750,26.48
24.765,26.04
24.781,25.31
24.796,24.41
24.812,23.36
24.828,22.2
24.843,21.04
24.859,20.05
24.875,19.36
24.890,18.99
24.906,18.88
24.921,18.84
24.937,18.73
24.953,18.46
24.968,17.96
24.984,17.16
25.000,15.97
25.015,14.31
25.031,12.14
25.046,9.61
25.062,6.95
25.078,4.47
25.093,2.35
25.109,0.62
25.125,-0.86
25.140,-2.37
25.156,-4.11
25.171,-6.22
25.187,-8.63
25.203,-11.17
25.218,-13.63
25.234,-15.82
25.250,-17.66
25.265,-19.22
25.281,-20.65
25.296,-22.27
25.312,-24.34
25.328,-27.0
25.343,-30.12
25.359,-33.25
25.375,-35.7
25.390,-36.75
25.406,-35.82
25.421,-32.68
25.437,-27.46
25.453,-20.64
25.468,-12.85
25.484,-4.76
25.500,3.06
25.515,10.17
25.531,16.23
25.546,21.02
25.562,24.43
25.578,26.47
25.593,27.26
25.609,27.08
25.625,26.23
25.640,25.03
25.656,23.73
25.671,22.45
25.687,21.27
25.703,20.23
25.718,19.37
25.734,18.74
25.750,18.4
25.765,18.33
25.781,18.46
25.796,18.69
25.812,18.9
25.828,19.02
25.843,19.0
25.859,18.76
25.875,18.14
25.890,16.98
25.906,15.11
25.921,12.48
25.937,9.26
25.953,5.72
25.968,2.19
25.984,-1.17
26.000,-4.35
26.015,-7.53
26.031,-10.82
26.046,-14.2
26.062,-17.49
26.078,-20.42
26.093,-22.91
26.109,-25.12
26.125,-27.45
26.140,-30.28
26.156,-33.69
26.171,-37.4
26.187,-40.76
26.203,-43.02
26.218,-43.54
26.234,-42.06
26.250,-38.57
26.265,-33.37
26.281,-26.82
26.296,-19.35
26.312,-11.41
26.328,-3.54
26.343,3.72
26.359,9.87
26.375,14.59
26.390,17.83
26.406,19.75
26.421,20.67
26.437,20.9
26.453,20.67
26.468,20.07
26.484,19.13
26.500,17.89
26.515,16.38
26.531,14.7
26.546,12.97
26.562,11.33
26.578,9.82
26.593,8.44
26.609,7.16
26.625,5.88
26.640,4.56
26.656,3.14
26.671,1.63
26.687,0.06
26.703,-1.49
26.718,-2.98
26.734,-4.42
26.750,-5.84
26.765,-7.33
26.781,-8.91
26.796,-10.67
26.812,-12.6
26.828,-14.74
26.843,-17.14
26.859,-19.84
26.875,-22.85
26.890,-26.12
26.906,-29.57
26.921,-33.04
26.937,-36.46
26.953,-39.69
26.968,-42.62
26.984,-44.96
27.000,-46.25
27.015,-45.88
27.031,-43.3
27.046,-38.12
27.062,-30.32
27.078,-20.32
27.093,-8.84
27.109,3.23
27.125,14.97
27.140,25.66
27.156,34.72
27.171,41.84
27.187,46.88
27.203,49.93
27.218,51.26
27.234,51.27
27.250,50.35
27.265,48.8
27.281,46.79
27.296,44.28
27.312,41.23
27.328,37.64
27.343,33.6
27.359,29.33
27.375,25.08
27.390,21.06
27.406,17.37
27.421,14.04
27.437,11.05
27.453,8.34
27.468,5.85
27.484,3.52
27.500,1.27
27.515,-0.92
27.531,-3.12
27.546,-5.4
27.562,-7.82
27.578,-10.44
27.593,-13.26
27.609,-16.19
27.625,-19.1
27.640,-21.89
27.656,-24.51
27.671,-26.99
27.687,-29.38
27.703,-31.71
27.718,-33.86
27.734,-35.62
27.750,-36.61
27.765,-36.49
27.781,-34.94
27.796,-31.75
27.812,-26.83
27.828,-20.19
27.843,-12.05
27.859,-2.82
27.875,6.89
27.890,16.31
27.906,24.68
27.921,31.44
27.937,36.32
27.953,39.35
27.968,40.8
27.984,41.02
28.000,40.3
28.015,38.86
28.031,36.77
28.046,34.16
28.062,31.13
28.078,27.91
28.093,24.77
28.109,21.95
28.125,19.69
28.140,18.08
28.156,17.1
28.171,16.53
28.187,16.07
28.203,15.4
28.218,14.33
28.234,12.83
28.250,11.03
28.265,9.05
28.281,6.92
28.296,4.51
28.312,1.6
28.328,-1.95
28.343,-6.09
28.359,-10.51
28.375,-14.79
28.390,-18.62
28.406,-21.92
28.421,-24.9
28.437,-27.83
28.453,-30.94
28.468,-34.24
28.484,-37.58
28.500,-40.7
28.515,-43.31
28.531,-45.18
28.546,-46.07
28.562,-45.63
28.578,-43.54
28.593,-39.54
28.609,-33.63
28.625,-26.17
28.640,-17.86
28.656,-9.52
28.671,-1.92
28.687,4.49
28.703,9.58
28.718,13.53
28.734,16.58
28.750,18.9
28.765,20.49
28.781,21.25
28.796,21.11
28.812,20.19
28.828,18.76
28.843,17.19
28.859,15.75
28.875,14.58
28.890,13.63
28.906,12.74
28.921,11.74
28.937,10.51
28.953,8.93
28.968,6.98
28.984,4.62
29.000,1.92
29.015,-0.93
29.031,-3.57
29.046,-5.72
29.062,-7.16
29.078,-7.86
29.093,-8.04
29.109,-7.95
29.125,-7.79
29.140,-7.58
29.156,-7.18
29.171,-6.44
29.187,-5.37
29.203,-4.25
29.218,-3.49
29.234,-3.53
29.250,-4.63
29.265,-6.76
29.281,-9.71
29.296,-13.17
29.312,-16.82
29.328,-20.41
29.343,-23.63
29.359,-26.04
29.375,-27.15
29.390,-26.48
29.406,-23.75
29.421,-19.09
29.437,-13.02
29.453,-6.31
29.468,0.23
29.484,5.94
29.500,10.51
29.515,13.88
29.531,16.21
29.546,17.7
29.562,18.42
29.578,18.38
29.593,17.58
29.609,16.04
29.625,13.95
29.640,11.6
29.656,9.25
29.671,7.12
29.687,5.23
29.703,3.5
29.718,1.82
29.734,0.19
29.750,-1.19
29.765,-1.98
29.781,-1.84
29.796,-0.63
29.812,1.57
29.828,4.43
29.843,7.5
29.859,10.38
29.875,12.78
29.890,14.6
29.906,15.78
29.921,16.34
29.937,16.22
29.953,15.38
29.968,13.78
29.984,11.44
30.000,8.51
30.015,5.19
30.031,1.62
30.046,-2.15
30.062,-6.14
30.078,-10.43
30.093,-14.9
30.109,-19.23
30.125,-22.9
30.140,-25.26
30.156,-25.74
30.171,-24.07
30.187,-20.28
30.203,-14.77
30.218,-8.16
30.234,-1.13
30.250,5.68
30.265,11.75
30.281,16.81
30.296,20.76
30.312,23.66
30.328,25.68
30.343,26.94
30.359,27.56
30.375,27.66
30.390,27.31
30.406,26.61
30.421,25.63
30.437,24.41
30.453,22.98
30.468,21.42
30.484,19.81
30.500,18.26
30.515,16.8
30.531,15.42
30.546,14.05
30.562,12.63
30.578,11.17
30.593,9.76
30.609,8.46
30.625,7.25
30.640,5.93
30.656,4.25
30.671,2.03
30.687,-0.7
30.703,-3.74
30.718,-6.76
30.734,-9.48
30.750,-11.85
30.765,-14.0
30.781,-16.2
30.796,-18.71
30.812,-21.66
30.828,-24.99
30.843,-28.49
30.859,-31.82
30.875,-34.57
30.890,-36.3
30.906,-36.56
30.921,-34.96
30.937,-31.34
30.953,-25.84
30.968,-18.87
30.984,-11.11
31.000,-3.27
31.015,4.06
31.031,10.48
31.046,15.79
31.062,19.95
31.078,22.94
31.093,24.74
31.109,25.36
31.125,24.87
31.140,23.46
31.156,21.42
31.171,19.06
31.187,16.7
31.203,14.5
31.218,12.54
31.234,10.77
31.250,9.13
31.265,7.54
31.281,6.01
31.296,4.62
31.312,3.44
31.328,2.52
31.343,1.81
31.359,1.2
31.375,0.5
31.390,-0.46
31.406,-1.79
31.421,-3.52
31.437,-5.54
31.453,-7.7
31.468,-9.82
31.484,-11.81
31.500,-13.65
31.515,-15.42
31.531,-17.28
31.546,-19.38
31.562,-21.8
31.578,-24.47
31.593,-27.14
31.609,-29.37
31.625,-30.61
31.640,-30.39
31.656,-28.37
31.671,-24.46
31.687,-18.89
31.703,-12.13
31.718,-4.74
31.734,2.61
31.750,9.4
31.765,15.24
31.781,19.89
31.796,23.21
31.812,25.19
31.828,25.88
31.843,25.44
31.859,24.11
31.875,22.23
31.890,20.16
31.906,18.19
31.921,16.45
31.937,14.93
31.953,13.53
31.968,12.16
31.984,10.79
32.000,9.43
32.015,8.11
32.031,6.85
32.046,5.55
32.062,4.1
32.078,2.4
32.093,0.44
32.109,-1.76
32.125,-4.15
32.140,-6.7
32.156,-9.4
32.171,-12.22
32.187,-15.09
32.203,-17.91
32.218,-20.63
32.234,-23.25
32.250,-25.86
32.265,-28.43
32.281,-30.85
32.296,-32.69
32.312,-33.39
32.328,-32.32
32.343,-29.14
32.359,-23.86
32.375,-16.9
32.390,-8.98
32.406,-0.84
32.421,6.86
32.437,13.76
32.453,19.64
32.468,24.42
32.484,28.0
32.500,30.28
32.515,31.17
32.531,30.66
32.546,28.96
32.562,26.42
32.578,23.49
32.593,20.62
32.609,18.12
32.625,16.14
32.640,14.63
32.656,13.46
32.671,12.42
32.687,11.29
32.703,9.96
32.718,8.35
32.734,6.56
32.750,4.73
32.765,3.03
32.781,1.48
32.796,-0.07
32.812,-1.88
32.828,-4.19
32.843,-7.02
32.859,-10.12
32.875,-13.04
32.890,-15.4
32.906,-17.07
32.921,-18.32
32.937,-19.62
32.953,-21.4
32.968,-23.87
32.984,-26.91
33.000,-30.14
33.015,-33.07
33.031,-35.22
33.046,-36.14
33.062,-35.47
33.078,-32.92
33.093,-28.34
33.109,-21.89
33.125,-14.0
33.140,-5.38
33.156,3.14
33.171,10.86
33.187,17.37
33.203,22.5
33.218,26.32
33.234,28.94
33.250,30.43
33.265,30.86
33.281,30.29
33.296,28.8
33.312,26.57
33.328,23.8
33.343,20.72
33.359,17.59
33.375,14.66
33.390,12.08
33.406,9.95
33.421,8.24
33.437,6.79
33.453,5.43
33.468,4.02
33.484,2.56
33.500,1.08
33.515,-0.36
33.531,-1.85
33.546,-3.55
33.562,-5.65
33.578,-8.24
33.593,-11.16
33.609,-14.11
33.625,-16.69
33.640,-18.59
33.656,-19.69
33.671,-20.05
33.687,-19.91
33.703,-19.48
33.718,-18.99
33.734,-18.65
33.750,-18.72
33.765,-19.47
33.781,-21.05
33.796,-23.29
33.812,-25.63
33.828,-27.18
33.843,-27.01
33.859,-24.47
33.875,-19.44
33.890,-12.39
33.906,-4.12
33.921,4.46
33.937,12.62
33.953,19.81
33.968,25.72
33.984,30.19
34.000,33.22
34.015,34.92
34.031,35.55
34.046,35.35
34.062,34.6
34.078,33.44
34.093,31.95
34.109,30.12
34.125,28.02
34.140,25.75
34.156,23.48
34.171,21.36
34.187,19.53
34.203,18.03
34.218,16.81
34.234,15.74
34.250,14.63
34.265,13.34
34.281,11.76
34.296,9.89
34.312,7.79
34.328,5.58
34.343,3.34
34.359,1.1
34.375,-1.18
34.390,-3.54
34.406,-6.04
34.421,-8.67
34.437,-11.38
34.453,-14.05
34.468,-16.6
34.484,-18.95
34.500,-21.0
34.515,-22.74
34.531,-24.2
34.546,-25.47
34.562,-26.77
34.578,-28.32
34.593,-30.25
34.609,-32.5
34.625,-34.66
34.640,-36.08
34.656,-36.0
34.671,-33.8
34.687,-29.27
34.703,-22.68
34.718,-14.7
34.734,-6.21
34.750,1.99
34.765,9.32
34.781,15.52
34.796,20.5
34.812,24.34
34.828,27.11
34.843,28.89
34.859,29.77
34.875,29.87
34.890,29.38
34.906,28.51
34.921,27.47
34.937,26.38
34.953,25.29
34.968,24.24
34.984,23.28
35.000,22.48
35.015,21.87
35.031,21.41
35.046,20.99
35.062,20.41
35.078,19.44
35.093,17.95
35.109,15.9
35.125,13.42
35.140,10.69
35.156,7.96
35.171,5.41
35.187,3.13
35.203,1.13
35.218,-0.72
35.234,-2.58
35.250,-4.65
35.265,-7.03
35.281,-9.73
35.296,-12.63
35.312,-15.58
35.328,-18.45
35.343,-21.19
35.359,-23.86
35.375,-26.54
35.390,-29.3
35.406,-32.22
35.421,-35.18
35.437,-37.93
35.453,-40.09
35.468,-41.1
35.484,-40.47
35.500,-37.82
35.515,-33.1
35.531,-26.62
35.546,-19.02
35.562,-11.03
35.578,-3.32
35.593,3.64
35.609,9.65
35.625,14.72
35.640,18.83
35.656,21.96
35.671,24.06
35.687,25.13
35.703,25.25
35.718,24.65
35.734,23.57
35.750,22.25
35.765,20.81
35.781,19.32
35.796,17.86
35.812,16.57
35.828,15.54
35.843,14.87
35.859,14.49
35.875,14.24
35.890,13.88
35.906,13.21
35.921,12.16
35.937,10.78
35.953,9.21
35.968,7.58
35.984,5.95
36.000,4.3
36.015,2.6
36.031,0.79
36.046,-1.13
36.062,-3.15
36.078,-5.17
36.093,-7.14
36.109,-9.02
36.125,-10.83
36.140,-12.59
36.156,-14.31
36.171,-16.03
36.187,-17.77
36.203,-19.6
36.218,-21.56
36.234,-23.64
36.250,-25.72
36.265,-27.51
36.281,-28.66
36.296,-28.77
36.312,-27.53
36.328,-24.81
36.343,-20.7
36.359,-15.5
36.375,-9.64
36.390,-3.65
36.406,2.0
36.421,6.97
36.437,11.04
36.453,14.13
36.468,16.28
36.484,17.49
36.500,17.82
36.515,17.37
36.531,16.27
36.546,14.77
36.562,13.16
36.578,11.72
36.593,10.63
36.609,9.99
36.625,9.72
36.640,9.67
36.656,9.6
36.671,9.28
36.687,8.53
36.703,7.28
36.718,5.68
36.734,3.93
36.750,2.31
36.765,0.91
36.781,-0.33
36.796,-1.59
36.812,-3.04
36.828,-4.75
36.843,-6.62
36.859,-8.47
36.875,-10.13
36.890,-11.53
36.906,-12.82
36.921,-14.2
36.937,-15.88
36.953,-17.96
36.968,-20.42
36.984,-23.08
37.000,-25.72
37.015,-28.08
37.031,-29.8
37.046,-30.55
37.062,-29.94
37.078,-27.67
37.093,-23.7
37.109,-18.22
37.125,-11.68
37.140,-4.73
37.156,2.0
37.171,8.09
37.187,13.27
37.203,17.5
37.218,20.83
37.234,23.25
37.250,24.73
37.265,25.23
37.281,24.72
37.296,23.28
37.312,21.21
37.328,18.83
37.343,16.55
37.359,14.66
37.375,13.3
37.390,12.43
37.406,11.91
37.421,11.51
37.437,11.04
37.453,10.46
37.468,9.68
37.484,8.68
37.500,7.44
37.515,5.92
37.531,4.08
37.546,1.96
37.562,-0.32
37.578,-2.61
37.593,-4.77
37.609,-6.78
37.625,-8.67
37.640,-10.51
37.656,-12.4
37.671,-14.41
37.687,-16.51
37.703,-18.71
37.718,-21.04
37.734,-23.49
37.750,-26.04
37.765,-28.48
37.781,-30.43
37.796,-31.38
37.812,-30.82
37.828,-28.38
37.843,-24.02
37.859,-18.01
37.875,-10.88
37.890,-3.26
37.906,4.18
37.921,10.94
37.937,16.59
37.953,20.9
37.968,23.76
37.984,25.26
38.000,25.57
38.015,25.02
38.031,24.0
38.046,22.83
38.062,21.79
38.078,21.0
38.093,20.46
38.109,20.04
38.125,19.57
38.140,18.85
38.156,17.81
38.171,16.44
38.187,14.82
38.203,13.03
38.218,11.14
38.234,9.17
38.250,7.11
38.265,4.92
38.281,2.59
38.296,0.13
38.312,-2.47
38.328,-5.23
38.343,-8.2
38.359,-11.35
38.375,-14.59
38.390,-17.69
38.406,-20.42
38.421,-22.62
38.437,-24.27
38.453,-25.54
38.468,-26.75
38.484,-28.24
38.500,-30.27
38.515,-32.85
38.531,-35.65
38.546,-38.11
38.562,-39.49
38.578,-39.15
38.593,-36.65
38.609,-31.92
38.625,-25.28
38.640,-17.3
38.656,-8.72
38.671,-0.22
38.687,7.64
38.703,14.53
38.718,20.26
38.734,24.79
38.750,28.08
38.765,30.12
38.781,30.89
38.796,30.49
38.812,29.11
38.828,27.09
38.843,24.82
38.859,22.65
38.875,20.78
38.890,19.22
38.906,17.88
38.921,16.61
38.937,15.32
38.953,13.92
38.968,12.38
38.984,10.67
39.000,8.75
39.015,6.63
39.031,4.38
39.046,2.08
39.062,-0.13
39.078,-2.19
39.093,-4.16
39.109,-6.14
39.125,-8.26
39.140,-10.6
39.156,-13.13
39.171,-15.68
39.187,-18.08
39.203,-20.2
39.218,-21.98
39.234,-23.59
39.250,-25.31
39.265,-27.42
39.281,-30.08
39.296,-33.19
39.312,-36.27
39.328,-38.62
39.343,-39.41
39.359,-37.98
39.375,-34.06
39.390,-27.81
39.406,-19.81
39.421,-10.85
39.437,-1.74
39.453,6.91
39.468,14.61
39.484,21.07
39.500,26.17
39.515,29.81
39.531,32.06
39.546,33.04
39.562,32.99
39.578,32.15
39.593,30.78
39.609,29.14
39.625,27.41
39.640,25.78
39.656,24.28
39.671,22.92
39.687,21.62
39.703,20.34
39.718,19.0
39.734,17.62
39.750,16.24
39.765,14.87
39.781,13.51
39.796,12.1
39.812,10.57
39.828,8.87
39.843,6.99
39.859,4.91
39.875,2.61
39.890,0.09
39.906,-2.69
39.921,-5.7
39.937,-8.89
39.953,-12.13
39.968,-15.27
39.984,-18.27
40.000,-21.12
40.015,-23.92
40.031,-26.78
40.046,-29.79
40.062,-32.9
40.078,-35.89
40.093,-38.42
40.109,-39.96
40.125,-39.94
40.140,-37.88
40.156,-33.48
40.171,-26.8
40.187,-18.31
40.203,-8.76
40.218,0.94
40.234,9.92
40.250,17.58
40.265,23.6
40.281,27.92
40.296,30.63
40.312,31.98
40.328,32.24
40.343,31.72
40.359,30.73
40.375,29.47
40.390,28.12
40.406,26.71
40.421,25.34
40.437,24.09
40.453,23.08
40.468,22.36
40.484,21.91
40.500,21.56
40.515,21.1
40.531,20.37
40.546,19.26
40.562,17.79
40.578,16.06
40.593,14.09
40.609,11.91
40.625,9.53
40.640,6.99
40.656,4.36
40.671,1.66
40.687,-1.13
40.703,-4.07
40.718,-7.2
40.734,-10.5
40.750,-13.8
40.765,-16.92
40.781,-19.72
40.796,-22.17
40.812,-24.43
40.828,-26.78
40.843,-29.45
40.859,-32.51
40.875,-35.75
40.890,-38.61
40.906,-40.35
40.921,-40.25
40.937,-37.79
40.953,-32.86
40.968,-25.82
40.984,-17.36
41.000,-8.33
41.015,0.48
41.031,8.43
41.046,15.13
41.062,20.4
41.078,24.21
41.093,26.64
41.109,27.87
41.125,28.14
41.140,27.67
41.156,26.64
41.171,25.22
41.187,23.54
41.203,21.72
41.218,19.87
41.234,18.12
41.250,16.54
41.265,15.23
41.281,14.16
41.296,13.28
41.312,12.43
41.328,11.41
41.343,10.02
41.359,8.19
41.375,5.95
41.390,3.48
41.406,1.0
41.421,-1.35
41.437,-3.57
41.453,-5.79
41.468,-8.16
41.484,-10.77
41.500,-13.56
41.515,-16.35
41.531,-18.97
41.546,-21.31
41.562,-23.45
41.578,-25.57
41.593,-27.84
41.609,-30.3
41.625,-32.72
41.640,-34.61
41.656,-35.31
41.671,-34.23
41.687,-31.0
41.703,-25.68
41.718,-18.7
41.734,-10.73
41.750,-2.49
41.765,5.42
41.781,12.57
41.796,18.67
41.812,23.5
41.828,26.9
41.843,28.79
41.859,29.21
41.875,28.35
41.890,26.53
41.906,24.19
41.921,21.69
41.937,19.33
41.953,17.23
41.968,15.42
41.984,13.79
42.000,12.28
42.015,10.88
42.031,9.67
42.046,8.73
42.062,8.06
42.078,7.55
42.093,6.93
42.109,5.93
42.125,4.39
42.140,2.34
42.156,-0.04
42.171,-2.51
42.187,-4.87
42.203,-7.06
42.218,-9.1
42.234,-11.05
42.250,-13.01
42.265,-15.04
42.281,-17.25
42.296,-19.8
42.312,-22.8
42.328,-26.18
42.343,-29.57
42.359,-32.32
42.375,-33.64
42.390,-32.94
42.406,-29.94
42.421,-24.81
42.437,-17.99
42.453,-10.14
42.468,-1.9
42.484,6.14
42.500,13.44
42.515,19.58
42.531,24.22
42.546,27.23
42.562,28.62
42.578,28.6
42.593,27.48
42.609,25.62
42.625,23.35
42.640,20.91
42.656,18.51
42.671,16.26
42.687,14.29
42.703,12.61
42.718,11.24
42.734,10.16
42.750,9.3
42.765,8.56
42.781,7.83
42.796,7.01
42.812,6.03
42.828,4.88
42.843,3.49
42.859,1.83
42.875,-0.2
42.890,-2.61
42.906,-5.36
42.921,-8.3
42.937,-11.25
42.953,-14.05
42.968,-16.63
42.984,-19.01
43.000,-21.34
43.015,-23.81
43.031,-26.53
43.046,-29.47
43.062,-32.33
43.078,-34.55
43.093,-35.43
43.109,-34.34
43.125,-30.89
43.140,-25.11
43.156,-17.45
43.171,-8.66
43.187,0.44
43.203,9.11
43.218,16.82
43.234,23.28
43.250,28.36
43.265,32.01
43.281,34.26
43.296,35.22
43.312,35.07
43.328,34.1
43.343,32.58
43.359,30.82
43.375,29.03
43.390,27.38
43.406,25.96
43.421,24.78
43.437,23.82
43.453,23.06
43.468,22.43
43.484,21.91
43.500,21.44
43.515,20.93
43.531,20.36
43.546,19.66
43.562,18.78
43.578,17.69
43.593,16.43
43.609,15.11
43.625,13.82
43.640,12.69
43.656,11.71
43.671,10.85
43.687,10.06
43.703,9.33
43.718,8.67
43.734,8.11
43.750,7.71
43.765,7.41
43.781,7.12
43.796,6.76
43.812,6.23
43.828,5.57
43.843,4.83
43.859,4.02
43.875,3.16
43.890,2.25
43.906,1.29
43.921,0.36
43.937,-0.44
43.953,-1.02
43.968,-1.39
43.984,-1.59
44.000,-1.78
44.015,-2.13
44.031,-2.73
44.046,-3.61
44.062,-4.71
44.078,-5.88
44.093,-6.95
44.109,-7.8
44.125,-8.41
44.140,-8.88
44.156,-9.34
44.171,-9.9
44.187,-10.66
44.203,-11.58
44.218,-12.58
44.234,-13.59
44.250,-14.58
44.265,-15.51
44.281,-16.41
44.296,-17.25
44.312,-18.09
44.328,-19.04
44.343,-20.27
44.359,-21.9
44.375,-23.99
44.390,-26.4
44.406,-28.85
44.421,-31.07
44.437,-32.89
44.453,-34.32
44.468,-35.55
44.484,-36.82
44.500,-38.33
44.515,-40.28
44.531,-42.75
44.546,-45.71
44.562,-48.93
44.578,-51.91
44.593,-53.86
44.609,-53.88
44.625,-51.28
44.640,-45.79
44.656,-37.79
44.671,-28.13
44.687,-17.85
44.703,-7.88
44.718,1.11
44.734,8.85
44.750,15.26
44.765,20.43
44.781,24.37
44.796,27.1
44.812,28.65
44.828,29.11
44.843,28.7
44.859,27.68
44.875,26.32
44.890,24.82
44.906,23.29
44.921,21.81
44.937,20.4
44.953,19.16
44.968,18.12
44.984,17.33
45.000,16.7
45.015,16.12
45.031,15.42
45.046,14.51
45.062,13.36
45.078,11.93
45.093,10.22
45.109,8.21
45.125,5.93
45.140,3.46
45.156,0.92
45.171,-1.61
45.187,-4.1
45.203,-6.62
45.218,-9.26
45.234,-12.05
45.250,-15.0
45.265,-18.05
45.281,-21.05
45.296,-23.8
45.312,-25.97
45.328,-27.16
45.343,-26.93
45.359,-24.95
45.375,-21.1
45.390,-15.6
45.406,-9.0
45.421,-1.98
45.437,4.77
45.453,10.68
45.468,15.4
45.484,18.81
45.500,20.95
45.515,21.97
45.531,22.03
45.546,21.31
45.562,19.97
45.578,18.17
45.593,16.13
45.609,14.06
45.625,12.13
45.640,10.43
45.656,8.99
45.671,7.81
45.687,6.83
45.703,5.97
45.718,5.13
45.734,4.15
45.750,2.89
45.765,1.24
45.781,-0.85
45.796,-3.29
45.812,-5.93
45.828,-8.54
45.843,-10.97
45.859,-13.12
45.875,-14.94
45.890,-16.48
45.906,-17.82
45.921,-19.09
45.937,-20.46
45.953,-22.04
45.968,-23.74
45.984,-25.25
46.000,-26.11
46.015,-25.74
46.031,-23.68
46.046,-19.78
46.062,-14.27
46.078,-7.67
46.093,-0.64
46.109,6.19
46.125,12.34
46.140,17.48
46.156,21.44
46.171,24.09
46.187,25.42
46.203,25.52
46.218,24.59
46.234,22.94
46.250,20.86
46.265,18.62
46.281,16.34
46.296,14.08
46.312,11.87
46.328,9.84
46.343,8.14
46.359,6.89
46.375,6.09
46.390,5.56
46.406,5.01
46.421,4.09
46.437,2.58
46.453,0.48
46.468,-2.03
46.484,-4.65
46.500,-7.13
46.515,-9.36
46.531,-11.42
46.546,-13.44
46.562,-15.7
46.578,-18.36
46.593,-21.49
46.609,-24.94
46.625,-28.33
46.640,-31.08
46.656,-32.58
46.671,-32.28
46.687,-29.85
46.703,-25.29
46.718,-18.93
46.734,-11.35
46.750,-3.3
46.765,4.51
46.781,11.45
46.796,17.1
46.812,21.22
46.828,23.79
46.843,24.92
46.859,24.77
46.875,23.55
46.890,21.55
46.906,19.11
46.921,16.59
46.937,14.33
46.953,12.51
46.968,11.13
46.984,10.02
47.000,8.98
47.015,7.88
47.031,6.62
47.046,5.19
47.062,3.55
47.078,1.69
47.093,-0.41
47.109,-2.66
47.125,-4.97
47.140,-7.19
47.156,-9.27
47.171,-11.28
47.187,-13.4
47.203,-15.85
47.218,-18.81
47.234,-22.29
47.250,-26.08
47.265,-29.78
47.281,-32.75
47.296,-34.26
47.312,-33.7
47.328,-30.73
47.343,-25.44
47.359,-18.31
47.375,-10.07
47.390,-1.5
47.406,6.68
47.421,14.04
47.437,20.3
47.453,25.31
47.468,28.99
47.484,31.3
47.500,32.2
47.515,31.77
47.531,30.2
47.546,27.78
47.562,24.9
47.578,21.97
47.593,19.33
47.609,17.17
47.625,15.52
47.640,14.27
47.656,13.3
47.671,12.52
47.687,11.81
47.703,11.1
47.718,10.26
47.734,9.1
47.750,7.45
47.765,5.27
47.781,2.63
47.796,-0.29
47.812,-3.26
47.828,-6.15
47.843,-9.02
47.859,-12.04
47.875,-15.49
47.890,-19.51
47.906,-24.09
47.921,-28.94
47.937,-33.55
47.953,-37.22
47.968,-39.25
47.984,-39.09
48.000,-36.42
48.015,-31.36
48.031,-24.29
48.046,-15.89
48.062,-6.96
48.078,1.78
48.093,9.78
48.109,16.64
48.125,22.2
48.140,26.39
48.156,29.17
48.171,30.61
48.187,30.83
48.203,30.0
48.218,28.47
48.234,26.61
48.250,24.76
48.265,23.18
48.281,21.95
48.296,20.95
48.312,20.03
48.328,19.08
48.343,18.03
48.359,16.95
48.375,15.95
48.390,15.09
48.406,14.3
48.421,13.35
48.437,11.96
48.453,9.92
48.468,7.22
48.484,4.02
48.500,0.63
48.515,-2.71
48.531,-5.86
48.546,-8.77
48.562,-11.62
48.578,-14.57
48.593,-17.8
48.609,-21.42
48.625,-25.42
48.640,-29.59
48.656,-33.53
48.671,-36.65
48.687,-38.24
48.703,-37.76
48.718,-34.88
48.734,-29.62
48.750,-22.37
48.765,-13.77
48.781,-4.57
48.796,4.42
48.812,12.59
48.828,19.51
48.843,25.02
48.859,29.11
48.875,31.87
48.890,33.38
48.906,33.72
48.921,32.95
48.937,31.25
48.953,28.92
48.968,26.41
48.984,24.12
49.000,22.34
49.015,21.12
49.031,20.26
49.046,19.53
49.062,18.65
49.078,17.49
49.093,16.02
49.109,14.29
49.125,12.34
49.140,10.17
49.156,7.8
49.171,5.18
49.187,2.36
49.203,-0.55
49.218,-3.44
49.234,-6.17
49.250,-8.68
49.265,-10.97
49.281,-13.1
49.296,-15.14
49.312,-17.27
49.328,-19.57
49.343,-22.14
49.359,-24.99
49.375,-28.01
49.390,-30.94
49.406,-33.34
49.421,-34.63
49.437,-34.21
49.453,-31.67
49.468,-26.85
49.484,-19.96
49.500,-11.56
49.515,-2.4
49.531,6.7
49.546,15.09
49.562,22.29
49.578,28.03
49.593,32.15
49.609,34.65
49.625,35.57
49.640,35.09
49.656,33.53
49.671,31.31
49.687,28.89
49.703,26.64
49.718,24.69
49.734,22.97
49.750,21.28
49.765,19.42
49.781,17.3
49.796,14.99
49.812,12.61
49.828,10.32
49.843,8.23
49.859,6.39
49.875,4.84
49.890,3.57
49.906,2.54
49.921,1.59
49.937,0.54
49.953,-0.86
49.968,-2.71
49.984,-5.03
50.000,-7.65
50.015,-10.35
50.031,-12.95
50.046,-15.45
50.062,-17.96
50.078,-20.64
50.093,-23.62
50.109,-26.91
50.125,-30.32
50.140,-33.5
50.156,-36.0
50.171,-37.3
50.187,-36.92
50.203,-34.54
50.218,-30.03
50.234,-23.62
50.250,-15.83
50.265,-7.39
50.281,0.89
50.296,8.38
50.312,14.72
50.328,19.76
50.343,23.47
50.359,25.9
50.375,27.04
50.390,26.88
50.406,25.54
50.421,23.27
50.437,20.47
50.453,17.65
50.468,15.19
50.484,13.31
50.500,12.01
50.515,11.13
50.531,10.44
50.546,9.77
50.562,9.03
50.578,8.21
50.593,7.39
50.609,6.56
50.625,5.7
50.640,4.64
50.656,3.26
50.671,1.48
50.687,-0.62
50.703,-2.88
50.718,-5.14
50.734,-7.27
50.750,-9.28
50.765,-11.28
50.781,-13.44
50.796,-15.92
50.812,-18.79
50.828,-22.02
50.843,-25.43
50.859,-28.67
50.875,-31.25
50.890,-32.57
50.906,-32.12
50.921,-29.57
50.937,-24.96
50.953,-18.66
50.968,-11.3
50.984,-3.62
51.000,3.74
51.015,10.23
51.031,15.56
51.046,19.58
51.062,22.31
51.078,23.83
51.093,24.25
51.109,23.73
51.125,22.44
51.140,20.57
51.156,18.33
51.171,15.95
51.187,13.7
51.203,11.75
51.218,10.2
51.234,9.03
51.250,8.07
51.265,7.17
51.281,6.21
51.296,5.2
51.312,4.24
51.328,3.42
51.343,2.72
51.359,1.95
51.375,0.83
51.390,-0.88
51.406,-3.22
51.421,-6.03
51.437,-8.99
51.453,-11.72
51.468,-14.05
51.484,-15.97
51.500,-17.64
51.515,-19.26
51.531,-20.99
51.546,-22.9
51.562,-24.99
51.578,-27.22
51.593,-29.48
51.609,-31.54
51.625,-33.01
51.640,-33.38
51.656,-32.12
51.671,-28.83
51.687,-23.48
51.703,-16.39
51.718,-8.26
51.734,0.12
51.750,7.96
51.765,14.71
51.781,20.04
51.796,23.87
51.812,26.23
51.828,27.26
51.843,27.15
51.859,26.13
51.875,24.49
51.890,22.56
51.906,20.67
51.921,19.01
51.937,17.67
51.953,16.58
51.968,15.62
51.984,14.69
52.000,13.72
52.015,12.69
52.031,11.63
52.046,10.59
52.062,9.52
52.078,8.36
52.093,6.98
52.109,5.27
52.125,3.22
52.140,0.87
52.156,-1.69
52.171,-4.35
52.187,-7.02
52.203,-9.65
52.218,-12.17
52.234,-14.53
52.250,-16.7
52.265,-18.68
52.281,-20.63
52.296,-22.74
52.312,-25.22
52.328,-28.13
52.343,-31.29
52.359,-34.24
52.375,-36.41
52.390,-37.21
52.406,-36.2
52.421,-33.17
52.437,-28.14
52.453,-21.37
52.468,-13.37
52.484,-4.82
52.500,3.57
52.515,11.12
52.531,17.38
52.546,22.17
52.562,25.53
52.578,27.65
52.593,28.67
52.609,28.69
52.625,27.77
52.640,26.02
52.656,23.68
52.671,21.04
52.687,18.48
52.703,16.23
52.718,14.44
52.734,13.09
52.750,12.11
52.765,11.35
52.781,10.69
52.796,10.01
52.812,9.2
52.828,8.2
52.843,6.93
52.859,5.37
52.875,3.5
52.890,1.37
52.906,-0.96
52.921,-3.42
52.937,-5.89
52.953,-8.32
52.968,-10.62
52.984,-12.87
53.000,-15.09
53.015,-17.36
53.031,-19.72
53.046,-22.18
53.062,-24.75
53.078,-27.45
53.093,-30.25
53.109,-32.99
53.125,-35.39
53.140,-36.98
53.156,-37.25
53.171,-35.74
53.187,-32.27
53.203,-26.95
53.218,-20.21
53.234,-12.69
53.250,-4.98
53.265,2.36
53.281,8.97
53.296,14.64
53.312,19.26
53.328,22.8
53.343,25.24
53.359,26.66
53.375,27.13
53.390,26.82
53.406,25.89
53.421,24.52
53.437,22.91
53.453,21.22
53.468,19.64
53.484,18.27
53.500,17.11
53.515,16.09
53.531,15.09
53.546,14.02
53.562,12.84
53.578,11.59
53.593,10.28
53.609,8.92
53.625,7.4
53.640,5.64
53.656,3.57
53.671,1.24
53.687,-1.24
53.703,-3.75
53.718,-6.21
53.734,-8.61
53.750,-10.89
53.765,-13.04
53.781,-14.93
53.796,-16.55
53.812,-17.95
53.828,-19.35
53.843,-21.08
53.859,-23.37
53.875,-26.23
53.890,-29.3
53.906,-31.98
53.921,-33.56
53.937,-33.5
53.953,-31.49
53.968,-27.58
53.984,-22.01
54.000,-15.2
54.015,-7.64
54.031,0.13
54.046,7.57
54.062,14.19
54.078,19.66
54.093,23.82
54.109,26.67
54.125,28.28
54.140,28.75
54.156,28.22
54.171,26.89
54.187,25.02
54.203,22.96
54.218,20.99
54.234,19.28
54.250,17.84
54.265,16.53
54.281,15.21
54.296,13.82
54.312,12.38
54.328,10.94
54.343,9.54
54.359,8.15
54.375,6.67
54.390,5.04
54.406,3.14
54.421,0.96
54.437,-1.49
54.453,-4.11
54.468,-6.82
54.484,-9.53
54.500,-12.19
54.515,-14.74
54.531,-17.14
54.546,-19.4
54.562,-21.55
54.578,-23.77
54.593,-26.23
54.609,-29.1
54.625,-32.36
54.640,-35.7
54.656,-38.53
54.671,-40.03
54.687,-39.47
54.703,-36.35
54.718,-30.68
54.734,-22.85
54.750,-13.61
54.765,-3.85
54.781,5.63
54.796,14.15
54.812,21.28
54.828,26.72
54.843,30.33
54.859,32.06
54.875,32.06
54.890,30.64
54.906,28.24
54.921,25.36
54.937,22.46
54.953,19.82
54.968,17.54
54.984,15.57
55.000,13.77
55.015,12.07
55.031,10.48
55.046,9.05
55.062,7.86
55.078,6.89
55.093,6.06
55.109,5.21
55.125,4.17
55.140,2.81
55.156,1.07
55.171,-1.04
55.187,-3.47
55.203,-6.08
55.218,-8.72
55.234,-11.21
55.250,-13.43
55.265,-15.34
55.281,-17.07
55.296,-18.9
55.312,-21.06
55.328,-23.71
55.343,-26.69
55.359,-29.57
55.375,-31.65
55.390,-32.22
55.406,-30.76
55.421,-27.11
55.437,-21.48
55.453,-14.36
55.468,-6.38
55.484,1.8
55.500,9.61
55.515,16.59
55.531,22.32
55.546,26.46
55.562,28.76
55.578,29.17
55.593,27.95
55.609,25.56
55.625,22.61
55.640,19.68
55.656,17.12
55.671,15.02
55.687,13.27
55.703,11.71
55.718,10.26
55.734,9.02
55.750,8.1
55.765,7.61
55.781,7.47
55.796,7.43
55.812,7.14
55.828,6.35
55.843,4.92
55.859,2.85
55.875,0.27
55.890,-2.67
55.906,-5.77
55.921,-8.89
55.937,-11.9
55.953,-14.77
55.968,-17.51
55.984,-20.17
56.000,-22.88
56.015,-25.68
56.031,-28.5
56.046,-31.18
56.062,-33.39
56.078,-34.69
56.093,-34.62
56.109,-32.71
56.125,-28.73
56.140,-22.73
56.156,-15.21
56.171,-6.93
56.187,1.23
56.203,8.6
56.218,14.83
56.234,19.83
56.250,23.71
56.265,26.51
56.281,28.17
56.296,28.62
56.312,27.86
56.328,26.09
56.343,23.78
56.359,21.44
56.375,19.48
56.390,18.06
56.406,17.07
56.421,16.22
56.437,15.23
56.453,13.94
56.468,12.38
56.484,10.76
56.500,9.3
56.515,8.09
56.531,7.07
56.546,6.0
56.562,4.6
56.578,2.69
56.593,0.23
56.609,-2.61
56.625,-5.58
56.640,-8.45
56.656,-11.16
56.671,-13.76
56.687,-16.39
56.703,-19.18
56.718,-22.19
56.734,-25.41
56.750,-28.76
56.765,-32.07
56.781,-35.01
56.796,-37.1
56.812,-37.67
56.828,-36.08
56.843,-31.9
56.859,-25.15
56.875,-16.36
56.890,-6.48
56.906,3.36
56.921,12.25
56.937,19.63
56.953,25.37
56.968,29.6
56.984,32.47
57.000,34.1
57.015,34.55
57.031,33.9
57.046,32.34
57.062,30.21
57.078,27.83
57.093,25.51
57.109,23.43
57.125,21.65
57.140,20.16
57.156,18.88
57.171,17.78
57.187,16.74
57.203,15.63
57.218,14.31
57.234,12.65
57.250,10.62
57.265,8.25
57.281,5.63
57.296,2.83
57.312,-0.12
57.328,-3.17
57.343,-6.28
57.359,-9.36
57.375,-12.3
57.390,-15.04
57.406,-17.54
57.421,-19.84
57.437,-22.02
57.453,-24.2
57.468,-26.49
57.484,-28.99
57.500,-31.69
57.515,-34.5
57.531,-37.08
57.546,-38.94
57.562,-39.37
57.578,-37.78
57.593,-33.78
57.609,-27.4
57.625,-19.13
57.640,-9.76
57.656,-0.22
57.671,8.72
57.687,16.5
57.703,22.89
57.718,27.81
57.734,31.29
57.750,33.34
57.765,34.02
57.781,33.46
57.796,31.91
57.812,29.73
57.828,27.32
57.843,25.01
57.859,22.99
57.875,21.35
57.890,20.08
57.906,19.16
57.921,18.58
57.937,18.31
57.953,18.26
57.968,18.26
57.984,18.14
58.000,17.75
58.015,17.06
58.031,16.07
58.046,14.81
58.062,13.24
58.078,11.29
58.093,8.93
58.109,6.3
58.125,3.71
58.140,1.54
58.156,0.11
58.171,-0.48
58.187,-0.37
58.203,0.1
58.218,0.52
58.234,0.53
58.250,-0.15
58.265,-1.69
58.281,-4.1
58.296,-7.17
58.312,-10.49
58.328,-13.41
58.343,-15.3
58.359,-15.55
58.375,-13.81
58.390,-10.04
58.406,-4.41
58.421,2.62
58.437,10.47
58.453,18.42
58.468,25.76
58.484,31.8
58.500,36.15
58.515,38.66
58.531,39.38
58.546,38.52
58.562,36.22
58.578,32.57
58.593,27.59
58.609,21.43
58.625,14.33
58.640,6.71
58.656,-0.86
58.671,-7.9
58.687,-14.0
58.703,-18.98
58.718,-22.8
58.734,-25.65
58.750,-27.8
58.765,-29.56
58.781,-31.27
58.796,-33.11
58.812,-35.2
58.828,-37.53
58.843,-40.05
58.859,-42.62
58.875,-45.07
58.890,-47.17
58.906,-48.69
58.921,-49.43
58.937,-49.27
58.953,-48.31
58.968,-46.78
58.984,-45.01
59.000,-43.28
59.015,-41.66
59.031,-39.99
59.046,-37.88
59.062,-34.85
59.078,-30.46
59.093,-24.5
59.109,-16.99
59.125,-8.22
59.140,1.31
59.156,11.04
59.171,20.47
59.187,29.21
59.203,37.04
59.218,43.87
59.234,49.52
59.250,53.82
59.265,56.56
59.281,57.68
59.296,57.42
59.312,56.25
59.328,54.67
59.343,52.97
59.359,51.14
59.375,48.83
59.390,45.66
59.406,41.43
59.421,36.25
59.437,30.51
59.453,24.65
59.468,18.95
59.484,13.41
59.500,7.95
59.515,2.45
59.531,-3.04
59.546,-8.3
59.562,-13.03
59.578,-16.95
59.593,-19.97
59.609,-22.16
59.625,-23.84
59.640,-25.35
59.656,-27.06
59.671,-29.15
59.687,-31.64
59.703,-34.38
59.718,-37.01
59.734,-39.07
59.750,-40.07
59.765,-39.53
59.781,-37.16
59.796,-32.87
59.812,-26.84
59.828,-19.52
59.843,-11.53
59.859,-3.5
59.875,4.01
59.890,10.6
59.906,16.06
59.921,20.25
59.937,23.1
59.953,24.6
59.968,24.85
59.984,24.04
