timestamp,value
00.000,64.52
00.015,60.65
00.031,57.6
00.046,55.62
00.062,54.41
00.078,53.46
00.093,52.25
00.109,50.53
00.125,48.3
00.140,45.85
00.156,43.47
00.171,41.33
00.187,39.33
00.203,37.05
00.218,33.93
00.234,29.5
00.250,23.66
00.265,16.84
00.281,9.76
00.296,3.24
00.312,-2.32
00.328,-7.02
00.343,-11.54
00.359,-16.87
00.375,-23.97
00.390,-33.47
00.406,-45.23
00.421,-58.27
00.437,-70.71
00.453,-80.16
00.468,-84.22
00.484,-81.29
00.500,-71.03
00.515,-54.57
00.531,-34.17
00.546,-12.52
00.562,7.95
00.578,25.67
00.593,39.94
00.609,50.8
00.625,58.54
00.640,63.46
00.656,65.72
00.671,65.44
00.687,62.89
00.703,58.65
00.718,53.57
00.734,48.68
00.750,44.94
00.765,42.92
00.781,42.57
00.796,43.27
00.812,43.99
00.828,43.7
00.843,41.74
00.859,37.97
00.875,32.7
00.890,26.42
00.906,19.57
00.921,12.42
00.937,5.18
00.953,-1.81
00.968,-8.03
00.984,-12.92
01.000,-16.17
01.015,-17.99
01.031,-19.11
01.046,-20.5
01.062,-22.98
01.078,-26.91
01.093,-32.2
01.109,-38.53
01.125,-45.48
01.140,-52.62
01.156,-59.28
01.171,-64.37
01.187,-66.25
01.203,-63.11
01.218,-53.5
01.234,-36.98
01.250,-14.47
01.265,11.93
01.281,39.51
01.296,65.83
01.312,89.3
01.328,109.41
01.343,126.44
01.359,140.92
01.375,153.25
01.390,163.53
01.406,171.71
01.421,177.72
01.437,181.31
01.453,181.58
01.468,176.67
01.484,163.94
01.500,140.78
01.515,106.11
01.531,61.4
01.546,11.07
01.562,-38.74
01.578,-81.95
01.593,-114.37
01.609,-134.69
01.625,-144.17
01.640,-145.67
01.656,-142.49
01.671,-137.77
01.687,-134.3
01.703,-134.47
01.718,-139.8
01.734,-150.39
01.750,-164.46
01.765,-178.7
01.781,-189.36
01.796,-193.74
01.812,-191.32
01.828,-183.84
01.843,-174.43
01.859,-166.28
01.875,-161.43
01.890,-160.22
01.906,-161.48
01.921,-163.08
01.937,-162.63
01.953,-158.07
01.968,-148.13
01.984,-132.74
02.000,-113.01
02.015,-91.02
02.031,-69.26
02.046,-49.86
02.062,-34.14
02.078,-22.45
02.093,-14.43
02.109,-9.4
02.125,-6.77
02.140,-6.02
02.156,-6.63
02.171,-7.87
02.187,-8.8
02.203,-8.42
02.218,-5.95
02.234,-1.1
02.250,5.91
02.265,14.42
02.281,23.46
02.296,32.09
02.312,39.46
02.328,44.95
02.343,48.27
02.359,49.34
02.375,48.31
02.390,45.4
02.406,40.81
02.421,34.73
02.437,27.33
02.453,19.01
02.468,10.35
02.484,2.23
02.500,-4.55
02.515,-9.4
02.531,-12.27
02.546,-13.69
02.562,-14.54
02.578,-15.87
02.593,-18.59
02.609,-23.25
02.625,-29.93
02.640,-38.08
02.656,-46.38
02.671,-52.85
02.687,-55.18
02.703,-51.33
02.718,-40.24
02.734,-22.28
02.750,0.77
02.765,26.2
02.781,51.14
02.796,73.3
02.812,91.37
02.828,104.98
02.843,114.43
02.859,120.31
02.875,123.29
02.890,124.06
02.906,123.39
02.921,122.17
02.937,121.28
02.953,121.42
02.968,122.96
02.984,125.8
03.000,129.5
03.015,133.45
03.031,137.18
03.046,140.43
03.062,143.22
03.078,145.6
03.093,147.49
03.109,148.62
03.125,148.57
03.140,147.05
03.156,144.05
03.171,139.96
03.187,135.46
03.203,131.33
03.218,128.19
03.234,126.29
03.250,125.46
03.265,125.26
03.281,125.18
03.296,124.87
03.312,124.39
03.328,124.14
03.343,124.76
03.359,126.79
03.375,130.41
03.390,135.28
03.406,140.63
03.421,145.62
03.437,149.75
03.453,153.07
03.468,156.11
03.484,159.61
03.500,164.0
03.515,169.14
03.531,174.2
03.546,177.85
03.562,178.53
03.578,174.83
03.593,165.71
03.609,150.82
03.625,130.64
03.640,106.49
03.656,80.28
03.671,54.05
03.687,29.38
03.703,7.03
03.718,-13.13
03.734,-31.83
03.750,-49.89
03.765,-67.85
03.781,-85.74
03.796,-103.22
03.812,-119.74
03.828,-134.69
03.843,-147.51
03.859,-157.64
03.875,-164.6
03.890,-168.1
03.906,-168.2
03.921,-165.34
03.937,-160.27
03.953,-153.84
03.968,-146.74
03.984,-139.28
04.000,-131.37
04.015,-122.77
04.031,-113.3
04.046,-103.19
04.062,-93.29
04.078,-85.02
04.093,-80.06
04.109,-79.8
04.125,-84.78
04.140,-94.17
04.156,-105.68
04.171,-115.94
04.187,-121.33
04.203,-118.98
04.218,-107.68
04.234,-88.17
04.250,-62.9
04.265,-35.14
04.281,-8.01
04.296,16.34
04.312,37.04
04.328,54.22
04.343,68.5
04.359,80.48
04.375,90.49
04.390,98.53
04.406,104.4
04.421,107.8
04.437,108.46
04.453,106.09
04.468,100.53
04.484,91.88
04.500,80.57
04.515,67.4
04.531,53.52
04.546,40.22
04.562,28.77
04.578,20.2
04.593,14.98
04.609,12.77
04.625,12.33
04.640,11.59
04.656,8.18
04.671,0.21
04.687,-13.16
04.703,-31.36
04.718,-52.69
04.734,-75.08
04.750,-96.79
04.765,-116.9
04.781,-135.3
04.796,-152.28
04.812,-167.93
04.828,-181.78
04.843,-192.66
04.859,-198.99
04.875,-199.36
04.890,-192.97
04.906,-180.02
04.921,-161.8
04.937,-140.29
04.953,-117.75
04.968,-96.18
04.984,-76.87
05.000,-60.4
05.015,-46.78
05.031,-35.73
05.046,-26.9
05.062,-19.95
05.078,-14.4
05.093,-9.66
05.109,-5.05
05.125,0.02
05.140,5.78
05.156,11.96
05.171,17.98
05.187,23.15
05.203,27.0
05.218,29.45
05.234,30.62
05.250,30.68
05.265,29.57
05.281,27.21
05.296,23.69
05.312,19.49
05.328,15.25
05.343,11.38
05.359,7.37
05.375,1.57
05.390,-8.48
05.406,-25.15
05.421,-49.79
05.437,-81.97
05.453,-119.44
05.468,-158.6
05.484,-195.21
05.500,-225.03
05.515,-244.37
05.531,-250.44
05.546,-241.88
05.562,-219.18
05.578,-184.9
05.593,-143.37
05.609,-99.86
05.625,-59.42
05.640,-25.74
05.656,-0.64
05.671,15.92
05.687,25.25
05.703,29.22
05.718,29.64
05.734,27.88
05.750,24.9
05.765,21.31
05.781,17.56
05.796,14.06
05.812,11.21
05.828,9.35
05.843,8.62
05.859,8.86
05.875,9.54
05.890,9.77
05.906,8.61
05.921,5.26
05.937,-0.53
05.953,-8.44
05.968,-17.67
05.984,-27.35
06.000,-36.86
06.015,-46.09
06.031,-55.4
06.046,-65.41
06.062,-76.79
06.078,-89.9
06.093,-104.61
06.109,-120.05
06.125,-134.61
06.140,-146.03
06.156,-151.98
06.171,-150.68
06.187,-141.57
06.203,-125.67
06.218,-105.31
06.234,-83.43
06.250,-62.68
06.265,-44.72
06.281,-29.94
06.296,-17.69
06.312,-6.93
06.328,3.31
06.343,13.53
06.359,23.74
06.375,33.62
06.390,42.79
06.406,50.94
06.421,57.91
06.437,63.67
06.453,68.3
06.468,71.92
06.484,74.67
06.500,76.53
06.515,77.25
06.531,76.28
06.546,72.86
06.562,66.3
06.578,56.31
06.593,43.19
06.609,27.85
06.625,11.61
06.640,-4.2
06.656,-18.5
06.671,-30.71
06.687,-40.75
06.703,-49.05
06.718,-56.39
06.734,-63.81
06.750,-72.27
06.765,-82.22
06.781,-93.26
06.796,-103.85
06.812,-111.54
06.828,-113.65
06.843,-108.08
06.859,-94.15
06.875,-72.91
06.890,-46.91
06.906,-19.41
06.921,6.55
06.937,28.89
06.953,46.76
06.968,60.3
06.984,70.12
07.000,76.77
07.015,80.54
07.031,81.46
07.046,79.58
07.062,75.21
07.078,69.01
07.093,61.83
07.109,54.53
07.125,47.77
07.140,41.97
07.156,37.31
07.171,33.86
07.187,31.71
07.203,30.88
07.218,31.19
07.234,32.23
07.250,33.27
07.265,33.55
07.281,32.49
07.296,29.96
07.312,26.28
07.328,22.1
07.343,18.08
07.359,14.49
07.375,11.07
07.390,7.08
07.406,1.58
07.421,-6.16
07.437,-16.14
07.453,-27.38
07.468,-37.95
07.484,-45.34
07.500,-47.13
07.515,-41.74
07.531,-28.84
07.546,-9.47
07.562,14.33
07.578,40.23
07.593,66.18
07.609,90.77
07.625,113.19
07.640,132.96
07.656,149.72
07.671,163.03
07.687,172.57
07.703,178.38
07.718,180.96
07.734,181.32
07.750,180.63
07.765,179.95
07.781,179.85
07.796,180.36
07.812,181.05
07.828,181.19
07.843,180.02
07.859,176.9
07.875,171.36
07.890,163.11
07.906,152.05
07.921,138.29
07.937,122.14
07.953,104.16
07.968,85.1
07.984,65.7
08.000,46.72
08.015,28.73
08.031,12.08
08.046,-3.1
08.062,-16.99
08.078,-29.96
08.093,-42.6
08.109,-55.62
08.125,-69.62
08.140,-84.91
08.156,-101.16
08.171,-117.28
08.187,-131.36
08.203,-141.05
08.218,-144.15
08.234,-139.3
08.250,-126.46
08.265,-107.0
08.281,-83.25
08.296,-57.86
08.312,-33.09
08.328,-10.39
08.343,9.66
08.359,27.12
08.375,42.45
08.390,56.25
08.406,69.1
08.421,81.41
08.437,93.36
08.453,104.84
08.468,115.46
08.484,124.8
08.500,132.47
08.515,138.26
08.531,142.17
08.546,144.34
08.562,145.06
08.578,144.82
08.593,144.48
08.609,145.01
08.625,147.05
08.640,150.12
08.656,152.14
08.671,149.65
08.687,138.81
08.703,116.68
08.718,82.28
08.734,36.8
08.750,-16.9
08.765,-75.03
08.781,-133.54
08.796,-188.34
08.812,-235.45
08.828,-271.34
08.843,-293.63
08.859,-301.89
08.875,-298.02
08.890,-285.73
08.906,-269.38
08.921,-252.42
08.937,-236.39
08.953,-220.81
08.968,-203.86
08.984,-183.51
09.000,-158.6
09.015,-129.37
09.031,-97.39
09.046,-64.93
09.062,-34.19
09.078,-6.66
09.093,17.17
09.109,37.57
09.125,55.16
09.140,70.43
09.156,83.55
09.171,94.53
09.187,103.4
09.203,110.41
09.218,116.02
09.234,120.75
09.250,124.93
09.265,128.63
09.281,131.65
09.296,133.68
09.312,134.51
09.328,134.11
09.343,132.7
09.359,130.62
09.375,128.24
09.390,125.83
09.406,123.39
09.421,120.63
09.437,116.91
09.453,111.42
09.468,103.34
09.484,92.21
09.500,78.07
09.515,61.58
09.531,43.87
09.546,26.17
09.562,9.54
09.578,-5.5
09.593,-18.95
09.609,-31.27
09.625,-43.17
09.640,-55.38
09.656,-68.51
09.671,-82.71
09.687,-97.47
09.703,-111.33
09.718,-122.05
09.734,-127.07
09.750,-124.29
09.765,-112.94
09.781,-93.93
09.796,-69.65
09.812,-43.16
09.828,-17.19
09.843,6.57
09.859,27.6
09.875,46.18
09.890,62.7
09.906,77.2
09.921,89.32
09.937,98.58
09.953,104.88
09.968,108.59
09.984,110.49
10.000,111.29
10.015,111.37
10.031,110.58
10.046,108.52
10.062,104.9
10.078,99.69
10.093,93.06
10.109,85.0
10.125,75.03
10.140,62.26
10.156,45.79
10.171,25.33
10.187,1.61
10.203,-23.66
10.218,-48.34
10.234,-70.5
10.250,-88.86
10.265,-102.88
10.281,-112.57
10.296,-118.07
10.312,-119.61
10.328,-117.48
10.343,-112.33
10.359,-105.21
10.375,-97.49
10.390,-90.68
10.406,-86.12
10.421,-84.77
10.437,-87.07
10.453,-92.77
10.468,-100.85
10.484,-109.63
10.500,-117.07
10.515,-121.22
10.531,-120.84
10.546,-115.66
10.562,-106.45
10.578,-94.67
10.593,-81.96
10.609,-69.67
10.625,-58.58
10.640,-48.83
10.656,-40.06
10.671,-31.59
10.687,-22.65
10.703,-12.56
10.718,-0.9
10.734,12.33
10.750,26.7
10.765,41.48
10.781,55.74
10.796,68.71
10.812,79.92
10.828,89.3
10.843,97.14
10.859,103.82
10.875,109.5
10.890,113.99
10.906,116.65
10.921,116.77
10.937,114.11
10.953,109.31
10.968,104.07
10.984,100.77
11.000,101.6
11.015,107.67
11.031,118.5
11.046,132.08
11.062,145.71
11.078,157.03
11.093,164.85
11.109,169.43
11.125,172.05
11.140,174.39
11.156,177.76
11.171,182.75
11.187,189.02
11.203,195.35
11.218,199.79
11.234,200.04
11.250,193.97
11.265,180.28
11.281,158.9
11.296,131.07
11.312,98.82
11.328,64.21
11.343,28.49
11.359,-8.22
11.375,-46.55
11.390,-86.97
11.406,-128.62
11.421,-168.93
11.437,-203.89
11.453,-229.39
11.468,-242.66
11.484,-243.3
11.500,-233.21
11.515,-215.8
11.531,-194.62
11.546,-172.31
11.562,-150.3
11.578,-129.26
11.593,-109.72
11.609,-92.48
11.625,-78.42
11.640,-68.05
11.656,-61.12
11.671,-56.58
11.687,-53.02
11.703,-49.13
11.718,-44.02
11.734,-37.22
11.750,-28.6
11.765,-18.15
11.781,-5.96
11.796,7.71
11.812,22.43
11.828,37.55
11.843,52.16
11.859,65.22
11.875,75.47
11.890,81.64
11.906,82.66
11.921,78.08
11.937,68.28
11.953,54.44
11.968,38.2
11.984,21.02
12.000,3.67
12.015,-13.81
12.031,-31.72
12.046,-49.97
12.062,-67.56
12.078,-82.48
12.093,-92.43
12.109,-95.79
12.125,-92.44
12.140,-83.93
12.156,-72.96
12.171,-62.34
12.187,-54.06
12.203,-48.85
12.218,-46.38
12.234,-45.74
12.250,-46.06
12.265,-46.78
12.281,-47.7
12.296,-48.74
12.312,-49.84
12.328,-50.85
12.343,-51.69
12.359,-52.43
12.375,-53.29
12.390,-54.59
12.406,-56.58
12.421,-59.24
12.437,-62.16
12.453,-64.65
12.468,-65.96
12.484,-65.56
12.500,-63.51
12.515,-60.45
12.531,-57.34
12.546,-55.04
12.562,-53.87
12.578,-53.44
12.593,-52.8
12.609,-50.87
12.625,-46.93
12.640,-40.99
12.656,-33.85
12.671,-26.82
12.687,-21.25
12.703,-18.05
12.718,-17.34
12.734,-18.59
12.750,-20.94
12.765,-23.77
12.781,-27.11
12.796,-31.65
12.812,-38.37
12.828,-47.94
12.843,-60.14
12.859,-73.63
12.875,-86.01
12.890,-94.36
12.906,-95.78
12.921,-88.28
12.937,-71.37
12.953,-46.65
12.968,-17.75
12.984,10.36
13.000,32.57
13.015,45.02
13.031,46.18
13.046,37.06
13.062,20.68
13.078,0.89
13.093,-18.8
13.109,-35.97
13.125,-49.36
13.140,-58.66
13.156,-63.83
13.171,-64.82
13.187,-61.37
13.203,-53.3
13.218,-40.92
13.234,-25.35
13.250,-8.56
13.265,7.08
13.281,19.47
13.296,27.47
13.312,31.16
13.328,31.49
13.343,29.68
13.359,26.38
13.375,21.39
13.390,13.92
13.406,3.27
13.421,-10.53
13.437,-26.43
13.453,-42.74
13.468,-57.87
13.484,-71.03
13.500,-82.47
13.515,-93.17
13.531,-104.27
13.546,-116.45
13.562,-129.75
13.578,-143.73
13.593,-157.8
13.609,-171.43
13.625,-183.96
13.640,-194.36
13.656,-200.96
13.671,-201.67
13.687,-194.65
13.703,-179.04
13.718,-155.56
13.734,-126.42
13.750,-94.84
13.765,-64.14
13.781,-36.91
13.796,-14.6
13.812,2.48
13.828,14.81
13.843,23.18
13.859,28.31
13.875,30.79
13.890,31.11
13.906,29.81
13.921,27.6
13.937,25.23
13.953,23.51
13.968,23.05
13.984,24.21
14.000,27.04
14.015,31.34
14.031,36.69
14.046,42.62
14.062,48.65
14.078,54.36
14.093,59.48
14.109,63.71
14.125,66.81
14.140,68.49
14.156,68.51
14.171,66.73
14.187,63.26
14.203,58.54
14.218,53.21
14.234,48.08
14.250,43.81
14.265,40.81
14.281,39.03
14.296,38.0
14.312,37.03
14.328,35.39
14.343,32.49
14.359,28.01
14.375,22.02
14.390,15.07
14.406,8.32
14.421,3.54
14.437,2.87
14.453,8.3
14.468,21.05
14.484,41.02
14.500,66.61
14.515,95.17
14.531,123.73
14.546,149.66
14.562,171.2
14.578,187.48
14.593,198.3
14.609,203.9
14.625,204.78
14.640,201.68
14.656,195.49
14.671,187.25
14.687,177.93
14.703,168.34
14.718,159.0
14.734,150.23
14.750,142.23
14.765,135.15
14.781,129.22
14.796,124.58
14.812,121.23
14.828,118.92
14.843,117.11
14.859,115.11
14.875,112.31
14.890,108.43
14.906,103.52
14.921,97.84
14.937,91.61
14.953,84.81
14.968,77.13
14.984,68.21
15.000,57.96
15.015,46.6
15.031,34.61
15.046,22.46
15.062,10.44
15.078,-1.17
15.093,-11.84
15.109,-20.84
15.125,-27.64
15.140,-32.57
15.156,-37.22
15.171,-44.01
15.187,-55.03
15.203,-70.65
15.218,-88.94
15.234,-106.15
15.250,-118.32
15.265,-122.86
15.281,-119.41
15.296,-109.5
15.312,-95.29
15.328,-78.4
15.343,-59.5
15.359,-38.76
15.375,-16.66
15.390,5.48
15.406,25.81
15.421,42.63
15.437,55.21
15.453,64.01
15.468,70.29
15.484,75.42
15.500,80.21
15.515,84.58
15.531,87.65
15.546,88.17
15.562,84.83
15.578,76.68
15.593,63.3
15.609,45.01
15.625,22.91
15.640,-1.18
15.656,-24.97
15.671,-46.28
15.687,-63.46
15.703,-75.78
15.718,-83.42
15.734,-87.16
15.750,-87.98
15.765,-86.8
15.781,-84.44
15.796,-81.77
15.812,-79.65
15.828,-78.62
15.843,-78.49
15.859,-78.26
15.875,-76.41
15.890,-71.79
15.906,-64.34
15.921,-55.4
15.937,-47.05
15.953,-41.11
15.968,-38.18
15.984,-37.42
16.000,-37.14
16.015,-35.74
16.031,-32.38
16.046,-27.07
16.062,-20.17
16.078,-11.91
16.093,-2.28
16.109,8.78
16.125,20.84
16.140,32.85
16.156,43.3
16.171,50.88
16.187,54.85
16.203,55.33
16.218,53.12
16.234,49.35
16.250,45.04
16.265,40.97
16.281,37.58
16.296,35.14
16.312,33.84
16.328,33.85
16.343,35.16
16.359,37.43
16.375,39.85
16.390,41.28
16.406,40.49
16.421,36.69
16.437,29.83
16.453,20.66
16.468,10.54
16.484,0.94
16.500,-7.03
16.515,-12.93
16.531,-16.97
16.546,-19.87
16.562,-22.56
16.578,-25.74
16.593,-29.65
16.609,-33.81
16.625,-37.12
16.640,-38.04
16.656,-35.1
16.671,-27.37
16.687,-14.84
16.703,1.56
16.718,20.25
16.734,39.48
16.750,57.67
16.765,73.71
16.781,86.8
16.796,96.36
16.812,102.02
16.828,103.66
16.843,101.62
16.859,96.79
16.875,90.49
16.890,84.07
16.906,78.48
16.921,73.89
16.937,69.63
16.953,64.51
16.968,57.35
16.984,47.53
17.000,35.24
17.015,21.38
17.031,7.11
17.046,-6.7
17.062,-19.85
17.078,-32.9
17.093,-46.75
17.109,-62.1
17.125,-78.92
17.140,-96.08
17.156,-111.54
17.171,-122.82
17.187,-127.8
17.203,-125.68
17.218,-117.56
17.234,-106.38
17.250,-96.09
17.265,-90.3
17.281,-90.81
17.296,-96.82
17.312,-104.95
17.328,-110.2
17.343,-107.47
17.359,-93.13
17.375,-66.3
17.390,-29.37
17.406,12.32
17.421,51.72
17.437,81.81
17.453,97.45
17.468,96.79
17.484,81.5
17.500,56.04
17.515,26.12
17.531,-2.86
17.546,-26.87
17.562,-43.53
17.578,-51.88
17.593,-52.06
17.609,-45.06
17.625,-32.65
17.640,-17.2
17.656,-1.27
17.671,12.93
17.687,24.16
17.703,32.37
17.718,38.52
17.734,44.04
17.750,50.17
17.765,57.4
17.781,65.17
17.796,72.07
17.812,76.16
17.828,75.62
17.843,69.2
17.859,56.54
17.875,38.12
17.890,14.95
17.906,-11.75
17.921,-40.75
17.937,-70.61
17.953,-99.41
17.968,-124.58
17.984,-143.11
18.000,-152.33
18.015,-150.85
18.031,-139.19
18.046,-119.85
18.062,-96.59
18.078,-73.28
18.093,-52.92
18.109,-37.06
18.125,-25.97
18.140,-19.14
18.156,-15.85
18.171,-15.46
18.187,-17.41
18.203,-21.01
18.218,-25.38
18.234,-29.57
18.250,-32.8
18.265,-34.66
18.281,-35.2
18.296,-34.7
18.312,-33.45
18.328,-31.53
18.343,-28.76
18.359,-24.86
18.375,-19.68
18.390,-13.28
18.406,-5.92
18.421,1.95
18.437,9.87
18.453,17.36
18.468,23.92
18.484,29.13
18.500,32.62
18.515,34.2
18.531,33.82
18.546,31.53
18.562,27.45
18.578,21.93
18.593,15.8
18.609,10.64
18.625,8.7
18.640,12.55
18.656,24.19
18.671,44.32
18.687,71.82
18.703,103.94
18.718,136.91
18.734,166.82
18.750,190.35
18.765,205.04
18.781,209.44
18.796,203.12
18.812,186.69
18.828,161.94
18.843,131.65
18.859,99.08
18.875,67.14
18.890,37.6
18.906,10.79
18.921,-14.03
18.937,-37.94
18.953,-61.52
18.968,-84.47
18.984,-105.79
19.000,-124.27
19.015,-139.13
19.031,-150.19
19.046,-157.83
19.062,-162.58
19.078,-164.81
19.093,-164.62
19.109,-162.04
19.125,-157.28
19.140,-151.08
19.156,-144.65
19.171,-139.56
19.187,-137.3
19.203,-138.67
19.218,-143.39
19.234,-149.89
19.250,-155.6
19.265,-157.6
19.281,-153.47
19.296,-142.06
19.312,-123.78
19.328,-100.48
19.343,-74.81
19.359,-49.48
19.375,-26.57
19.390,-7.19
19.406,8.46
19.421,20.78
19.437,30.4
19.453,37.82
19.468,43.37
19.484,47.25
19.500,49.67
19.515,50.96
19.531,51.56
19.546,51.93
19.562,52.32
19.578,52.75
19.593,53.07
19.609,52.99
19.625,52.31
19.640,50.89
19.656,48.77
19.671,46.1
19.687,43.09
19.703,40.02
19.718,37.03
19.734,34.11
19.750,30.81
19.765,26.33
19.781,19.54
19.796,9.39
19.812,-4.76
19.828,-22.74
19.843,-43.36
19.859,-64.46
19.875,-83.25
19.890,-96.88
19.906,-103.07
19.921,-100.59
19.937,-89.67
19.953,-71.93
19.968,-49.96
19.984,-26.71
20.000,-4.83
20.015,13.86
20.031,28.5
20.046,39.01
20.062,45.78
20.078,49.36
20.093,50.23
20.109,48.86
20.125,45.8
20.140,41.69
20.156,37.28
20.171,33.15
20.187,29.62
20.203,26.65
20.218,24.05
20.234,21.59
20.250,19.3
20.265,17.52
20.281,16.77
20.296,17.57
20.312,20.2
20.328,24.63
20.343,30.55
20.359,37.53
20.375,45.1
20.390,52.76
20.406,59.93
20.421,65.83
20.437,69.7
20.453,71.06
20.468,70.13
20.484,68.01
20.500,66.62
20.515,68.0
20.531,73.62
20.546,83.73
20.562,97.17
20.578,111.87
20.593,125.41
20.609,135.87
20.625,142.1
20.640,143.9
20.656,141.76
20.671,136.63
20.687,129.66
20.703,122.01
20.718,114.72
20.734,108.54
20.750,103.85
20.765,100.71
20.781,98.88
20.796,97.91
20.812,97.22
20.828,96.14
20.843,93.95
20.859,90.1
20.875,84.29
20.890,76.66
20.906,67.65
20.921,57.78
20.937,47.45
20.953,36.8
20.968,25.82
20.984,14.5
21.000,3.03
21.015,-8.23
21.031,-18.91
21.046,-28.92
21.062,-38.53
21.078,-48.37
21.093,-59.17
21.109,-71.32
21.125,-84.52
21.140,-97.6
21.156,-108.68
21.171,-115.66
21.187,-116.83
21.203,-111.45
21.218,-99.97
21.234,-83.89
21.250,-65.21
21.265,-45.84
21.281,-27.17
21.296,-9.96
21.312,5.39
21.328,18.49
21.343,28.77
21.359,35.55
21.375,38.38
21.390,37.24
21.406,32.74
21.421,25.92
21.437,17.96
21.453,9.82
21.468,2.1
21.484,-5.07
21.500,-11.76
21.515,-18.12
21.531,-24.17
21.546,-29.81
21.562,-34.84
21.578,-39.14
21.593,-42.74
21.609,-45.83
21.625,-48.72
21.640,-51.69
21.656,-54.87
21.671,-58.16
21.687,-61.26
21.703,-63.71
21.718,-65.09
21.734,-65.2
21.750,-64.14
21.765,-62.35
21.781,-60.56
21.796,-59.66
21.812,-60.42
21.828,-63.17
21.843,-67.55
21.859,-72.36
21.875,-75.71
21.890,-75.45
21.906,-69.83
21.921,-58.05
21.937,-40.44
21.953,-18.39
21.968,6.18
21.984,31.28
22.000,55.23
22.015,76.79
22.031,95.06
22.046,109.37
22.062,119.26
22.078,124.56
22.093,125.49
22.109,122.74
22.125,117.32
22.140,110.39
22.156,103.06
22.171,96.2
22.187,90.36
22.203,85.75
22.218,82.32
22.234,79.85
22.250,78.01
22.265,76.47
22.281,74.93
22.296,73.07
22.312,70.61
22.328,67.17
22.343,62.43
22.359,56.07
22.375,47.92
22.390,38.07
22.406,26.91
22.421,15.1
22.437,3.4
22.453,-7.54
22.468,-17.46
22.484,-26.52
22.500,-35.25
22.515,-44.35
22.531,-54.42
22.546,-65.7
22.562,-77.94
22.578,-90.24
22.593,-101.08
22.609,-108.6
22.625,-111.04
22.640,-107.26
22.656,-97.19
22.671,-81.94
22.687,-63.52
22.703,-44.22
22.718,-25.99
22.734,-10.07
22.750,3.01
22.765,13.21
22.781,20.62
22.796,25.34
22.812,27.59
22.828,27.87
22.843,27.09
22.859,26.5
22.875,27.45
22.890,31.08
22.906,37.95
22.921,47.84
22.937,59.71
22.953,71.96
22.968,82.82
22.984,90.84
23.000,95.28
23.015,96.17
23.031,94.11
23.046,89.91
23.062,84.18
23.078,77.2
23.093,69.05
23.109,59.8
23.125,49.68
23.140,39.1
23.156,28.4
23.171,17.66
23.187,6.6
23.203,-5.38
23.218,-18.89
23.234,-34.31
23.250,-51.72
23.265,-71.03
23.281,-92.19
23.296,-115.24
23.312,-139.98
23.328,-165.41
23.343,-189.46
23.359,-209.05
23.375,-221.0
23.390,-223.16
23.406,-215.33
23.421,-199.39
23.437,-178.54
23.453,-156.12
23.468,-134.48
23.484,-114.68
23.500,-96.87
23.515,-81.01
23.531,-67.4
23.546,-56.66
23.562,-49.33
23.578,-45.37
23.593,-44.01
23.609,-44.03
23.625,-44.2
23.640,-43.67
23.656,-42.08
23.671,-39.39
23.687,-35.61
23.703,-30.66
23.718,-24.4
23.734,-16.8
23.750,-8.21
23.765,0.6
23.781,8.51
23.796,14.38
23.812,17.37
23.828,17.22
23.843,14.2
23.859,9.08
23.875,2.85
23.890,-3.51
23.906,-9.29
23.921,-14.23
23.937,-18.66
23.953,-23.4
23.968,-29.52
23.984,-37.87
24.000,-48.63
24.015,-61.01
24.031,-73.24
24.046,-83.0
24.062,-88.07
24.078,-86.92
24.093,-79.17
24.109,-65.51
24.125,-47.54
24.140,-27.23
24.156,-6.62
24.171,12.6
24.187,29.17
24.203,42.41
24.218,52.09
24.234,58.44
24.250,61.96
24.265,63.23
24.281,62.89
24.296,61.48
24.312,59.47
24.328,57.26
24.343,55.23
24.359,53.66
24.375,52.79
24.390,52.78
24.406,53.61
24.421,55.26
24.437,57.69
24.453,60.95
24.468,65.13
24.484,70.21
24.500,75.98
24.515,82.08
24.531,88.29
24.546,94.74
24.562,102.06
24.578,110.91
24.593,121.31
24.609,131.89
24.625,139.76
24.640,141.19
24.656,132.9
24.671,113.44
24.687,83.65
24.703,46.45
24.718,5.75
24.734,-34.34
24.750,-69.86
24.765,-96.87
24.781,-111.59
24.796,-111.18
24.812,-95.15
24.828,-66.56
24.843,-31.82
24.859,0.95
24.875,24.61
24.890,35.38
24.906,33.61
24.921,22.78
24.937,7.66
24.953,-7.49
24.968,-19.56
24.984,-26.44
25.000,-26.85
25.015,-20.51
25.031,-8.65
25.046,5.56
25.062,17.76
25.078,23.76
25.093,21.16
25.109,10.21
25.125,-6.56
25.140,-25.42
25.156,-42.52
25.171,-54.55
25.187,-58.93
25.203,-54.05
25.218,-39.78
25.234,-18.06
25.250,6.96
25.265,29.91
25.281,45.87
25.296,52.16
25.312,49.18
25.328,39.84
25.343,28.18
25.359,17.77
25.375,10.97
25.390,8.94
25.406,12.02
25.421,20.08
25.437,32.28
25.453,46.87
25.468,61.19
25.484,72.2
25.500,77.33
25.515,75.28
25.531,66.27
25.546,51.92
25.562,34.88
25.578,18.35
25.593,5.81
25.609,0.52
25.625,4.96
25.640,19.96
25.656,44.19
25.671,74.12
25.687,104.79
25.703,131.13
25.718,149.32
25.734,157.79
25.750,157.5
25.765,151.42
25.781,143.54
25.796,137.3
25.812,134.33
25.828,133.8
25.843,132.61
25.859,126.61
25.875,112.22
25.890,87.81
25.906,54.23
25.921,14.25
25.937,-28.64
25.953,-71.36
25.968,-111.79
25.984,-148.52
26.000,-180.41
26.015,-206.15
26.031,-224.6
26.046,-235.37
26.062,-239.47
26.078,-239.27
26.093,-238.0
26.109,-238.71
26.125,-243.39
26.140,-252.17
26.156,-263.21
26.171,-272.94
26.187,-276.93
26.203,-271.16
26.218,-253.16
26.234,-222.87
26.250,-182.61
26.265,-136.37
26.281,-88.54
26.296,-42.74
26.312,-1.35
26.328,34.33
26.343,63.51
26.359,85.63
26.375,100.37
26.390,108.22
26.406,110.92
26.421,111.31
26.437,112.65
26.453,117.51
26.468,126.94
26.484,140.19
26.500,155.11
26.515,168.89
26.531,178.84
26.546,182.9
26.562,179.79
26.578,169.14
26.593,151.34
26.609,127.52
26.625,99.26
26.640,68.3
26.656,36.21
26.671,4.41
26.687,-25.57
26.703,-51.57
26.718,-70.71
26.734,-80.1
26.750,-78.12
26.765,-65.74
26.781,-47.14
26.796,-28.85
26.812,-17.8
26.828,-18.83
26.843,-33.01
26.859,-57.21
26.875,-85.43
26.890,-110.92
26.906,-128.31
26.921,-134.91
26.937,-130.77
26.953,-117.95
26.968,-99.37
26.984,-77.9
27.000,-55.85
27.015,-34.89
27.031,-16.29
27.046,-0.93
27.062,10.57
27.078,18.02
27.093,21.81
27.109,22.82
27.125,22.22
27.140,21.14
27.156,20.35
27.171,20.18
27.187,20.67
27.203,21.76
27.218,23.6
27.234,26.58
27.250,31.18
27.265,37.64
27.281,45.56
27.296,53.76
27.312,60.38
27.328,63.42
27.343,61.3
27.359,53.41
27.375,40.33
27.390,23.64
27.406,5.45
27.421,-12.28
27.437,-28.21
27.453,-41.85
27.468,-53.45
27.484,-63.53
27.500,-72.37
27.515,-79.66
27.531,-84.46
27.546,-85.42
27.562,-81.28
27.578,-71.35
27.593,-55.81
27.609,-35.69
27.625,-12.51
27.640,12.02
27.656,36.29
27.671,59.08
27.687,79.48
27.703,97.02
27.718,111.71
27.734,124.11
27.750,135.27
27.765,146.71
27.781,160.02
27.796,176.44
27.812,196.07
27.828,217.29
27.843,236.67
27.859,249.6
27.875,251.57
27.890,239.52
27.906,212.77
27.921,173.04
27.937,123.82
27.953,69.51
27.968,14.77
27.984,-35.85
28.000,-78.06
28.015,-108.31
28.031,-124.46
28.046,-126.42
28.062,-116.42
28.078,-98.68
28.093,-78.52
28.109,-61.33
28.125,-51.52
28.140,-51.76
28.156,-62.37
28.171,-80.98
28.187,-102.88
28.203,-122.09
28.218,-133.04
28.234,-132.21
28.250,-119.22
28.265,-96.53
28.281,-68.3
28.296,-38.79
28.312,-11.11
28.328,13.26
28.343,34.06
28.359,51.51
28.375,65.6
28.390,75.93
28.406,81.94
28.421,83.31
28.437,80.46
28.453,74.54
28.468,67.22
28.484,60.17
28.500,54.68
28.515,51.33
28.531,50.02
28.546,50.07
28.562,50.47
28.578,50.01
28.593,47.56
28.609,42.2
28.625,33.42
28.640,21.21
28.656,6.07
28.671,-11.08
28.687,-29.13
28.703,-47.06
28.718,-64.24
28.734,-80.6
28.750,-96.65
28.765,-113.27
28.781,-131.27
28.796,-150.81
28.812,-170.95
28.828,-189.39
28.843,-202.82
28.859,-207.75
28.875,-201.56
28.890,-183.58
28.906,-155.43
28.921,-120.72
28.937,-84.04
28.953,-49.69
28.968,-20.62
28.984,1.9
29.000,18.08
29.015,28.95
29.031,35.67
29.046,39.1
29.062,39.81
29.078,38.23
29.093,34.83
29.109,30.17
29.125,24.81
29.140,19.14
29.156,13.38
29.171,7.57
29.187,1.68
29.203,-4.31
29.218,-10.32
29.234,-16.25
29.250,-22.03
29.265,-27.72
29.281,-33.52
29.296,-39.7
29.312,-46.6
29.328,-54.43
29.343,-63.23
29.359,-72.89
29.375,-83.29
29.390,-94.43
29.406,-106.53
29.421,-119.82
29.437,-134.03
29.453,-148.02
29.468,-159.58
29.484,-165.74
29.500,-163.76
29.515,-152.06
29.531,-130.94
29.546,-102.56
29.562,-70.29
29.578,-37.67
29.593,-7.44
29.609,18.82
29.625,40.6
29.640,58.07
29.656,71.65
29.671,81.85
29.687,89.21
29.703,94.38
29.718,97.95
29.734,100.34
29.750,101.53
29.765,101.27
29.781,99.32
29.796,95.83
29.812,91.54
29.828,87.61
29.843,85.21
29.859,85.03
29.875,86.99
29.890,90.27
29.906,93.67
29.921,96.03
29.937,96.5
29.953,94.68
29.968,90.56
29.984,84.41
30.000,76.65
30.015,67.69
30.031,57.87
30.046,47.15
30.062,34.92
30.078,19.98
30.093,0.93
30.109,-23.07
30.125,-51.41
30.140,-81.57
30.156,-109.45
30.171,-130.49
30.187,-141.24
30.203,-140.55
30.218,-129.74
30.234,-111.89
30.250,-90.59
30.265,-68.68
30.281,-47.83
30.296,-28.8
30.312,-11.97
30.328,2.14
30.343,12.9
30.359,20.02
30.375,23.83
30.390,25.37
30.406,25.98
30.421,26.77
30.437,28.21
30.453,30.14
30.468,32.02
30.484,33.41
30.500,34.25
30.515,34.9
30.531,35.84
30.546,37.31
30.562,39.13
30.578,40.68
30.593,41.26
30.609,40.41
30.625,38.13
30.640,34.9
30.656,31.27
30.671,27.52
30.687,23.4
30.703,18.06
30.718,10.42
30.734,-0.45
30.750,-15.04
30.765,-33.07
30.781,-53.44
30.796,-74.22
30.812,-92.76
30.828,-106.19
30.843,-112.03
30.859,-108.92
30.875,-97.09
30.890,-78.39
30.906,-55.73
30.921,-32.21
30.937,-10.39
30.953,8.17
30.968,22.93
30.984,33.93
31.000,41.45
31.015,45.84
31.031,47.49
31.046,46.94
31.062,44.98
31.078,42.48
31.093,40.25
31.109,38.77
31.125,38.08
31.140,37.79
31.156,37.34
31.171,36.26
31.187,34.34
31.203,31.74
31.218,28.82
31.234,25.87
31.250,22.93
31.265,19.72
31.281,15.76
31.296,10.64
31.312,4.28
31.328,-2.96
31.343,-10.34
31.359,-17.02
31.375,-22.49
31.390,-26.71
31.406,-30.26
31.421,-34.11
31.437,-39.28
31.453,-46.52
31.468,-55.94
31.484,-66.94
31.500,-78.11
31.515,-87.52
31.531,-93.04
31.546,-92.92
31.562,-86.37
31.578,-73.88
31.593,-57.13
31.609,-38.58
31.625,-20.6
31.640,-4.88
31.656,7.88
31.671,17.88
31.687,25.69
31.703,31.8
31.718,36.37
31.734,39.33
31.750,40.62
31.765,40.49
31.781,39.55
31.796,38.59
31.812,38.26
31.828,38.79
31.843,39.94
31.859,41.1
31.875,41.7
31.890,41.47
31.906,40.6
31.921,39.58
31.937,38.91
31.953,38.67
31.968,38.41
31.984,37.32
32.000,34.54
32.015,29.64
32.031,22.83
32.046,14.88
32.062,6.82
32.078,-0.51
32.093,-6.7
32.109,-11.9
32.125,-16.65
32.140,-21.61
32.156,-27.38
32.171,-34.36
32.187,-42.56
32.203,-51.51
32.218,-60.1
32.234,-66.74
32.250,-69.63
32.265,-67.34
32.281,-59.33
32.296,-46.2
32.312,-29.53
32.328,-11.35
32.343,6.35
32.359,22.1
32.375,34.98
32.390,44.43
32.406,50.02
32.421,51.36
32.437,48.3
32.453,41.08
32.468,30.59
32.484,18.16
32.500,5.4
32.515,-6.26
32.531,-15.87
32.546,-23.0
32.562,-27.74
32.578,-30.43
32.593,-31.47
32.609,-31.21
32.625,-30.1
32.640,-28.74
32.656,-27.99
32.671,-28.86
32.687,-32.18
32.703,-38.34
32.718,-46.99
32.734,-57.08
32.750,-67.08
32.765,-75.46
32.781,-81.14
32.796,-83.75
32.812,-83.78
32.828,-82.28
32.843,-80.63
32.859,-80.09
32.875,-81.38
32.890,-84.33
32.906,-87.77
32.921,-89.71
32.937,-87.78
32.953,-80.08
32.968,-65.67
32.984,-45.0
33.000,-19.72
33.015,7.85
33.031,35.36
33.046,60.92
33.062,83.28
33.078,101.68
33.093,115.62
33.109,124.81
33.125,129.21
33.140,129.22
33.156,125.86
33.171,120.67
33.187,115.38
33.203,111.41
33.218,109.45
33.234,109.26
33.250,109.85
33.265,109.94
33.281,108.49
33.296,105.09
33.312,99.95
33.328,93.59
33.343,86.51
33.359,78.87
33.375,70.5
33.390,61.19
33.406,50.93
33.421,40.1
33.437,29.43
33.453,19.69
33.468,11.35
33.484,4.4
33.500,-1.81
33.515,-8.28
33.531,-16.26
33.546,-26.77
33.562,-40.28
33.578,-56.38
33.593,-73.64
33.609,-89.71
33.625,-101.75
33.640,-107.1
33.656,-104.11
33.671,-92.61
33.687,-74.0
33.703,-50.88
33.718,-26.19
33.734,-2.41
33.750,18.89
33.765,37.21
33.781,52.68
33.796,65.74
33.812,76.68
33.828,85.61
33.843,92.55
33.859,97.62
33.875,101.18
33.890,103.78
33.906,106.1
33.921,108.7
33.937,111.94
33.953,115.92
33.968,120.47
33.984,125.28
34.000,129.98
34.015,134.2
34.031,137.62
34.046,139.99
34.062,141.08
34.078,140.78
34.093,139.08
34.109,136.15
34.125,132.36
34.140,128.23
34.156,124.39
34.171,121.38
34.187,119.52
34.203,118.8
34.218,118.9
34.234,119.36
34.250,119.7
34.265,119.69
34.281,119.37
34.296,118.97
34.312,118.75
34.328,118.77
34.343,118.77
34.359,118.23
34.375,116.53
34.390,113.09
34.406,107.52
34.421,99.61
34.437,89.31
34.453,76.72
34.468,62.02
34.484,45.58
34.500,27.89
34.515,9.53
34.531,-8.95
34.546,-27.18
34.562,-45.01
34.578,-62.51
34.593,-79.93
34.609,-97.57
34.625,-115.7
34.640,-134.55
34.656,-154.22
34.671,-174.59
34.687,-195.23
34.703,-215.34
34.718,-233.78
34.734,-249.21
34.750,-260.48
34.765,-266.82
34.781,-268.32
34.796,-265.89
34.812,-261.09
34.828,-255.73
34.843,-251.33
34.859,-248.71
34.875,-247.9
34.890,-248.31
34.906,-249.08
34.921,-249.54
34.937,-249.38
34.953,-248.75
34.968,-248.06
34.984,-247.57
35.000,-246.98
35.015,-245.18
35.031,-240.27
35.046,-230.04
35.062,-212.63
35.078,-187.28
35.093,-154.66
35.109,-116.84
35.125,-76.72
35.140,-37.3
35.156,-1.13
35.171,30.04
35.187,55.33
35.203,74.54
35.218,88.07
35.234,96.84
35.250,102.09
35.265,105.29
35.281,107.75
35.296,110.4
35.312,113.62
35.328,117.31
35.343,121.12
35.359,124.58
35.375,127.36
35.390,129.25
35.406,130.07
35.421,129.66
35.437,127.67
35.453,123.78
35.468,117.79
35.484,109.86
35.500,100.5
35.515,90.59
35.531,81.01
35.546,72.36
35.562,64.76
35.578,57.71
35.593,50.37
35.609,41.79
35.625,31.34
35.640,18.95
35.656,5.29
35.671,-8.16
35.687,-19.4
35.703,-26.2
35.718,-26.66
35.734,-19.76
35.750,-5.66
35.765,14.37
35.781,38.28
35.796,63.88
35.812,89.37
35.828,113.48
35.843,135.41
35.859,154.39
35.875,169.43
35.890,179.41
35.906,183.42
35.921,181.39
35.937,174.29
35.953,164.09
35.968,153.12
35.984,143.4
36.000,136.04
36.015,131.14
36.031,128.22
36.046,126.82
36.062,127.09
36.078,129.92
36.093,136.49
36.109,147.65
36.125,163.06
36.140,180.8
36.156,197.4
36.171,208.61
36.187,210.54
36.203,200.89
36.218,179.92
36.234,150.48
36.250,117.28
36.265,85.53
36.281,59.3
36.296,40.32
36.312,27.64
36.328,18.19
36.343,8.07
36.359,-5.97
36.375,-25.37
36.390,-49.33
36.406,-75.2
36.421,-99.45
36.437,-118.83
36.453,-131.38
36.468,-136.81
36.484,-136.36
36.500,-132.11
36.515,-126.27
36.531,-120.46
36.546,-115.25
36.562,-110.27
36.578,-104.71
36.593,-98.03
36.609,-90.76
36.625,-84.59
36.640,-81.7
36.656,-83.55
36.671,-89.64
36.687,-97.3
36.703,-102.69
36.718,-102.77
36.734,-96.97
36.750,-87.52
36.765,-78.21
36.781,-72.17
36.796,-70.22
36.812,-70.85
36.828,-71.63
36.843,-71.2
36.859,-70.29
36.875,-71.1
36.890,-75.68
36.906,-84.5
36.921,-96.23
36.937,-108.82
36.953,-120.9
36.968,-132.32
36.984,-143.26
37.000,-152.7
37.015,-157.72
37.031,-154.3
37.046,-139.54
37.062,-113.72
37.078,-80.96
37.093,-47.91
37.109,-21.24
37.125,-5.5
37.140,-2.01
37.156,-9.17
37.171,-23.44
37.187,-40.27
37.203,-54.77
37.218,-62.55
37.234,-60.91
37.250,-49.95
37.265,-32.93
37.281,-15.32
37.296,-2.8
37.312,0.88
37.328,-4.98
37.343,-18.32
37.359,-35.25
37.375,-51.24
37.390,-61.85
37.406,-63.41
37.421,-53.98
37.437,-34.42
37.453,-8.92
37.468,15.78
37.484,32.5
37.500,36.13
37.515,25.21
37.531,1.9
37.546,-29.38
37.562,-63.59
37.578,-95.94
37.593,-122.02
37.609,-137.84
37.625,-140.37
37.640,-128.81
37.656,-105.41
37.671,-75.33
37.687,-45.05
37.703,-20.18
37.718,-3.62
37.734,4.85
37.750,7.95
37.765,9.66
37.781,13.85
37.796,23.22
37.812,38.35
37.828,57.25
37.843,75.59
37.859,87.89
37.875,89.52
37.890,78.47
37.906,56.17
37.921,26.84
37.937,-4.29
37.953,-32.39
37.968,-53.95
37.984,-66.6
38.000,-68.9
38.015,-60.55
38.031,-43.06
38.046,-20.18
38.062,2.49
38.078,19.15
38.093,25.6
38.109,20.6
38.125,5.8
38.140,-15.31
38.156,-38.73
38.171,-60.71
38.187,-77.88
38.203,-87.27
38.218,-86.53
38.234,-74.75
38.250,-53.14
38.265,-25.09
38.281,4.6
38.296,31.2
38.312,51.32
38.328,63.58
38.343,68.69
38.359,69.09
38.375,68.38
38.390,70.57
38.406,78.94
38.421,94.81
38.437,116.56
38.453,139.75
38.468,158.49
38.484,167.48
38.500,164.11
38.515,149.14
38.531,126.27
38.546,100.74
38.562,77.95
38.578,62.5
38.593,57.43
38.609,63.49
38.625,78.38
38.640,96.61
38.656,110.61
38.671,112.93
38.687,99.04
38.703,68.91
38.718,26.93
38.734,-20.03
38.750,-64.97
38.765,-102.41
38.781,-128.77
38.796,-142.14
38.812,-142.17
38.828,-130.38
38.843,-110.58
38.859,-88.33
38.875,-69.3
38.890,-57.21
38.906,-52.5
38.921,-52.59
38.937,-53.54
38.953,-51.72
38.968,-44.82
38.984,-31.73
39.000,-12.0
39.015,14.14
39.031,45.09
39.046,77.23
39.062,105.18
39.078,123.41
39.093,128.5
39.109,120.71
39.125,103.78
39.140,83.37
39.156,64.81
39.171,51.76
39.187,46.06
39.203,48.29
39.218,58.3
39.234,74.99
39.250,95.8
39.265,116.46
39.281,131.85
39.296,137.58
39.312,131.6
39.328,114.97
39.343,91.34
39.359,65.43
39.375,41.48
39.390,22.21
39.406,8.56
39.421,0.04
39.437,-4.86
39.453,-8.45
39.468,-13.52
39.484,-22.98
39.500,-39.0
39.515,-61.99
39.531,-89.85
39.546,-117.83
39.562,-139.47
39.578,-148.44
39.593,-140.73
39.609,-116.27
39.625,-79.36
39.640,-37.4
39.656,1.5
39.671,31.21
39.687,49.23
39.703,56.89
39.718,57.93
39.734,56.53
39.750,55.66
39.765,56.32
39.781,57.75
39.796,58.19
39.812,55.59
39.828,48.13
39.843,34.59
39.859,14.6
39.875,-11.03
39.890,-40.23
39.906,-69.81
39.921,-96.03
39.937,-115.43
39.953,-125.61
39.968,-125.75
39.984,-116.75
40.000,-101.04
40.015,-81.87
40.031,-62.71
40.046,-46.36
40.062,-34.45
40.078,-27.25
40.093,-23.93
40.109,-23.19
40.125,-23.84
40.140,-25.3
40.156,-27.83
40.171,-32.39
40.187,-40.34
40.203,-52.93
40.218,-70.65
40.234,-92.64
40.250,-116.36
40.265,-137.71
40.281,-151.99
40.296,-155.21
40.312,-145.49
40.328,-123.8
40.343,-93.69
40.359,-60.12
40.375,-27.84
40.390,-0.11
40.406,21.87
40.421,38.52
40.437,51.04
40.453,60.49
40.468,67.33
40.484,71.49
40.500,72.75
40.515,71.09
40.531,66.9
40.546,60.92
40.562,54.1
40.578,47.61
40.593,42.84
40.609,41.5
40.625,45.46
40.640,56.19
40.656,74.13
40.671,97.98
40.687,124.58
40.703,149.45
40.718,167.94
40.734,176.51
40.750,173.67
40.765,160.22
40.781,138.77
40.796,112.83
40.812,85.96
40.828,61.18
40.843,40.63
40.859,25.35
40.875,15.08
40.890,8.19
40.906,1.75
40.921,-7.89
40.937,-24.17
40.953,-49.22
40.968,-83.04
40.984,-123.32
41.000,-165.84
41.015,-205.41
41.031,-236.86
41.046,-255.97
41.062,-260.19
41.078,-249.07
41.093,-224.45
41.109,-190.17
41.125,-151.17
41.140,-112.32
41.156,-77.16
41.171,-47.11
41.187,-21.56
41.203,1.22
41.218,22.88
41.234,43.91
41.250,63.38
41.265,79.48
41.281,90.56
41.296,95.91
41.312,96.07
41.328,92.55
41.343,87.09
41.359,81.1
41.375,75.28
41.390,69.78
41.406,64.5
41.421,59.44
41.437,54.75
41.453,50.61
41.468,46.96
41.484,43.49
41.500,39.57
41.515,34.59
41.531,28.19
41.546,20.42
41.562,11.68
41.578,2.51
41.593,-6.64
41.609,-15.59
41.625,-24.33
41.640,-32.92
41.656,-41.36
41.671,-49.52
41.687,-57.27
41.703,-64.57
41.718,-71.62
41.734,-78.78
41.750,-86.32
41.765,-94.18
41.781,-101.64
41.796,-107.38
41.812,-109.63
41.828,-106.69
41.843,-97.5
41.859,-82.1
41.875,-61.73
41.890,-38.65
41.906,-15.5
41.921,5.36
41.937,22.4
41.953,35.16
41.968,44.11
41.984,50.22
42.000,54.6
42.015,58.18
42.031,61.59
42.046,65.29
42.062,69.59
42.078,74.85
42.093,81.35
42.109,89.27
42.125,98.49
42.140,108.6
42.156,118.9
42.171,128.55
42.187,136.8
42.203,143.2
42.218,147.61
42.234,150.25
42.250,151.5
42.265,151.76
42.281,151.37
42.296,150.56
42.312,149.47
42.328,148.16
42.343,146.6
42.359,144.71
42.375,142.42
42.390,139.83
42.406,137.27
42.421,135.17
42.437,133.72
42.453,132.38
42.468,129.59
42.484,122.81
42.500,109.14
42.515,86.13
42.531,52.69
42.546,9.54
42.562,-40.65
42.578,-93.66
42.593,-144.51
42.609,-188.34
42.625,-221.44
42.640,-241.89
42.656,-249.77
42.671,-246.87
42.687,-235.88
42.703,-219.56
42.718,-200.02
42.734,-178.61
42.750,-156.12
42.765,-133.32
42.781,-111.38
42.796,-91.91
42.812,-76.61
42.828,-66.79
42.843,-62.94
42.859,-64.48
42.875,-69.8
42.890,-76.57
42.906,-82.27
42.921,-84.78
42.937,-82.88
42.953,-76.48
42.968,-66.42
42.984,-54.04
43.000,-40.63
43.015,-27.13
43.031,-14.06
43.046,-1.84
43.062,8.87
43.078,17.14
43.093,22.12
43.109,23.53
43.125,22.11
43.140,19.46
43.156,17.4
43.171,17.12
43.187,18.61
43.203,20.62
43.218,21.42
43.234,19.46
43.250,14.1
43.265,5.61
43.281,-5.16
43.296,-17.38
43.312,-30.52
43.328,-44.24
43.343,-57.96
43.359,-70.42
43.375,-79.52
43.390,-82.81
43.406,-78.3
43.421,-65.44
43.437,-45.45
43.453,-21.06
43.468,4.62
43.484,29.24
43.500,52.04
43.515,73.68
43.531,95.47
43.546,118.19
43.562,141.51
43.578,163.94
43.593,183.53
43.609,198.62
43.625,208.31
43.640,212.44
43.656,211.2
43.671,204.8
43.687,193.35
43.703,177.07
43.718,156.58
43.734,133.1
43.750,108.36
43.765,84.21
43.781,62.11
43.796,42.76
43.812,25.98
43.828,10.95
43.843,-3.32
43.859,-17.49
43.875,-31.6
43.890,-45.08
43.906,-56.95
43.921,-66.15
43.937,-71.88
43.953,-73.84
43.968,-72.37
43.984,-68.45
44.000,-63.53
44.015,-59.32
44.031,-57.33
44.046,-58.66
44.062,-63.71
44.078,-72.27
44.093,-83.73
44.109,-97.13
44.125,-111.14
44.140,-123.95
44.156,-133.29
44.171,-136.79
44.187,-132.56
44.203,-119.89
44.218,-99.64
44.234,-74.09
44.250,-46.36
44.265,-19.54
44.281,4.03
44.296,23.03
44.312,37.11
44.328,46.57
44.343,52.0
44.359,54.01
44.375,53.2
44.390,50.18
44.406,45.57
44.421,40.07
44.437,34.39
44.453,29.09
44.468,24.55
44.484,20.74
44.500,17.34
44.515,13.89
44.531,10.04
44.546,5.75
44.562,1.4
44.578,-2.41
44.593,-5.07
44.609,-6.23
44.625,-6.03
44.640,-5.01
44.656,-3.89
44.671,-3.42
44.687,-4.15
44.703,-6.32
44.718,-9.92
44.734,-14.7
44.750,-20.28
44.765,-26.29
44.781,-32.42
44.796,-38.54
44.812,-44.72
44.828,-51.3
44.843,-58.69
44.859,-67.27
44.875,-76.99
44.890,-87.12
44.906,-96.19
44.921,-102.27
44.937,-103.47
44.953,-98.68
44.968,-87.95
44.984,-72.56
45.000,-54.64
45.015,-36.49
45.031,-19.96
45.046,-6.25
45.062,4.19
45.078,11.44
45.093,15.98
45.109,18.65
45.125,20.71
45.140,23.68
45.156,29.0
45.171,37.55
45.187,49.35
45.203,63.5
45.218,78.45
45.234,92.54
45.250,104.45
45.265,113.46
45.281,119.47
45.296,122.8
45.312,123.9
45.328,123.16
45.343,120.84
45.359,117.07
45.375,111.96
45.390,105.67
45.406,98.56
45.421,91.13
45.437,84.01
45.453,77.78
45.468,72.72
45.484,68.76
45.500,65.36
45.515,61.7
45.531,56.83
45.546,49.91
45.562,40.31
45.578,27.81
45.593,12.72
45.609,-3.96
45.625,-20.62
45.640,-35.22
45.656,-45.66
45.671,-50.48
45.687,-49.12
45.703,-42.14
45.718,-30.94
45.734,-17.28
45.750,-2.76
45.765,11.34
45.781,24.07
45.796,34.55
45.812,41.93
45.828,45.52
45.843,45.17
45.859,41.55
45.875,36.17
45.890,30.85
45.906,27.1
45.921,25.5
45.937,25.38
45.953,25.17
45.968,23.03
45.984,17.62
46.000,8.69
46.015,-2.81
46.031,-15.1
46.046,-26.33
46.062,-35.25
46.078,-41.63
46.093,-46.17
46.109,-50.0
46.125,-54.17
46.140,-59.22
46.156,-65.19
46.171,-71.85
46.187,-78.97
46.203,-86.47
46.218,-94.36
46.234,-102.51
46.250,-110.6
46.265,-118.13
46.281,-124.73
46.296,-130.3
46.312,-134.99
46.328,-139.09
46.343,-142.6
46.359,-145.09
46.375,-145.61
46.390,-143.02
46.406,-136.4
46.421,-125.42
46.437,-110.55
46.453,-92.91
46.468,-73.98
46.484,-55.15
46.500,-37.49
46.515,-21.59
46.531,-7.6
46.546,4.64
46.562,15.55
46.578,25.78
46.593,36.18
46.609,47.71
46.625,61.28
46.640,77.5
46.656,96.49
46.671,117.76
46.687,140.22
46.703,162.36
46.718,182.62
46.734,199.89
46.750,213.83
46.765,224.78
46.781,233.39
46.796,239.84
46.812,243.36
46.828,242.12
46.843,233.72
46.859,216.13
46.875,188.74
46.890,152.84
46.906,111.47
46.921,68.63
46.937,28.13
46.953,-7.33
46.968,-36.55
46.984,-59.59
47.000,-77.04
47.015,-89.31
47.031,-96.37
47.046,-97.99
47.062,-94.29
47.078,-86.33
47.093,-76.04
47.109,-65.69
47.125,-57.01
47.140,-50.44
47.156,-45.05
47.171,-39.12
47.187,-31.2
47.203,-21.06
47.218,-10.18
47.234,-1.28
47.250,2.64
47.265,-0.53
47.281,-11.13
47.296,-27.73
47.312,-47.59
47.328,-67.71
47.343,-85.66
47.359,-100.07
47.375,-110.52
47.390,-117.22
47.406,-120.57
47.421,-120.86
47.437,-118.24
47.453,-112.65
47.468,-103.83
47.484,-91.34
47.500,-74.97
47.515,-55.35
47.531,-34.51
47.546,-15.9
47.562,-3.5
47.578,-0.36
47.593,-7.19
47.609,-21.85
47.625,-40.06
47.640,-56.92
47.656,-68.62
47.671,-73.35
47.687,-71.16
47.703,-63.22
47.718,-50.86
47.734,-35.19
47.750,-17.15
47.765,2.03
47.781,20.88
47.796,37.92
47.812,52.31
47.828,64.18
47.843,74.46
47.859,84.22
47.875,94.06
47.890,103.89
47.906,113.06
47.921,120.94
47.937,127.25
47.953,131.98
47.968,134.94
47.984,135.32
48.000,131.73
48.015,122.67
48.031,107.43
48.046,86.5
48.062,61.64
48.078,35.17
48.093,9.21
48.109,-14.78
48.125,-35.98
48.140,-53.85
48.156,-67.92
48.171,-77.82
48.187,-83.58
48.203,-85.98
48.218,-86.52
48.234,-87.13
48.250,-89.58
48.265,-94.81
48.281,-102.65
48.296,-111.72
48.312,-119.81
48.328,-124.41
48.343,-123.35
48.359,-115.31
48.375,-100.14
48.390,-78.88
48.406,-53.55
48.421,-26.69
48.437,-0.91
48.453,21.64
48.468,39.63
48.484,52.59
48.500,60.89
48.515,65.35
48.531,66.81
48.546,65.84
48.562,62.65
48.578,57.32
48.593,50.14
48.609,41.94
48.625,33.92
48.640,27.39
48.656,23.12
48.671,20.91
48.687,19.54
48.703,17.04
48.718,11.48
48.734,1.64
48.750,-12.5
48.765,-29.73
48.781,-47.95
48.796,-64.75
48.812,-78.0
48.828,-86.28
48.843,-89.06
48.859,-86.71
48.875,-80.39
48.890,-71.91
48.906,-63.51
48.921,-57.4
48.937,-55.16
48.953,-57.11
48.968,-61.85
48.984,-66.5
49.000,-67.55
49.015,-62.13
49.031,-49.12
49.046,-29.57
49.062,-6.29
49.078,17.3
49.093,38.22
49.109,54.65
49.125,65.91
49.140,72.13
49.156,73.76
49.171,71.43
49.187,65.9
49.203,58.13
49.218,49.13
49.234,39.78
49.250,30.56
49.265,21.59
49.281,12.82
49.296,4.23
49.312,-3.94
49.328,-11.24
49.343,-17.25
49.359,-21.69
49.375,-24.65
49.390,-26.54
49.406,-28.02
49.421,-29.84
49.437,-32.62
49.453,-36.6
49.468,-41.44
49.484,-46.25
49.500,-49.96
49.515,-51.74
49.531,-51.45
49.546,-49.8
49.562,-48.02
49.578,-47.18
49.593,-47.45
49.609,-47.82
49.625,-46.3
49.640,-40.7
49.656,-29.53
49.671,-12.53
49.687,9.2
49.703,33.69
49.718,58.61
49.734,81.88
49.750,101.97
49.765,118.1
49.781,130.38
49.796,139.67
49.812,147.38
49.828,154.62
49.843,161.48
49.859,166.44
49.875,166.73
49.890,159.32
49.906,142.39
49.921,116.28
49.937,83.53
49.953,48.01
49.968,13.6
49.984,-16.62
50.000,-40.62
50.015,-57.02
50.031,-64.75
50.046,-63.23
50.062,-53.1
50.078,-36.8
50.093,-18.56
50.109,-3.45
50.125,4.18
50.140,1.98
50.156,-9.82
50.171,-29.0
50.187,-52.48
50.203,-77.54
50.218,-102.37
50.234,-125.9
50.250,-147.13
50.265,-164.53
50.281,-175.99
50.296,-179.29
50.312,-173.0
50.328,-157.19
50.343,-133.56
50.359,-105.01
50.375,-74.76
50.390,-45.52
50.406,-18.94
50.421,4.32
50.437,24.25
50.453,40.91
50.468,54.18
50.484,63.77
50.500,69.45
50.515,71.31
50.531,69.99
50.546,66.5
50.562,62.13
50.578,58.09
50.593,55.35
50.609,54.35
50.625,55.04
50.640,56.83
50.656,58.85
50.671,60.15
50.687,60.02
50.703,58.06
50.718,54.31
50.734,49.1
50.750,42.93
50.765,36.28
50.781,29.59
50.796,23.12
50.812,16.95
50.828,10.89
50.843,4.55
50.859,-2.42
50.875,-10.08
50.890,-17.85
50.906,-24.49
50.921,-28.35
50.937,-27.9
50.953,-22.29
50.968,-11.63
50.984,3.02
51.000,19.97
51.015,37.4
51.031,53.71
51.046,67.78
51.062,78.98
51.078,87.05
51.093,91.94
51.109,93.73
51.125,92.54
51.140,88.58
51.156,82.19
51.171,73.92
51.187,64.61
51.203,55.27
51.218,46.91
51.234,40.28
51.250,35.78
51.265,33.32
51.281,32.51
51.296,32.72
51.312,33.25
51.328,33.39
51.343,32.47
51.359,29.92
51.375,25.43
51.390,18.99
51.406,10.89
51.421,1.61
51.437,-8.27
51.453,-18.37
51.468,-28.55
51.484,-38.95
51.500,-49.92
51.515,-61.75
51.531,-74.29
51.546,-86.69
51.562,-97.35
51.578,-104.25
51.593,-105.54
51.609,-100.21
51.625,-88.55
51.640,-72.09
51.656,-53.14
51.671,-34.08
51.687,-16.73
51.703,-2.05
51.718,9.76
51.734,18.94
51.750,25.89
51.765,30.97
51.781,34.53
51.796,36.95
51.812,38.69
51.828,40.26
51.843,42.06
51.859,44.28
51.875,46.81
51.890,49.29
51.906,51.22
51.921,52.17
51.937,51.85
51.953,50.14
51.968,46.97
51.984,42.34
52.000,36.24
52.015,28.74
52.031,20.1
52.046,10.71
52.062,1.05
52.078,-8.4
52.093,-17.35
52.109,-25.75
52.125,-33.78
52.140,-41.79
52.156,-50.14
52.171,-58.88
52.187,-67.55
52.203,-75.02
52.218,-79.72
52.234,-79.96
52.250,-74.59
52.265,-63.42
52.281,-47.36
52.296,-28.2
52.312,-8.08
52.328,11.11
52.343,27.99
52.359,41.71
52.375,51.79
52.390,57.86
52.406,59.72
52.421,57.43
52.437,51.58
52.453,43.3
52.468,34.15
52.484,25.68
52.500,19.06
52.515,14.8
52.531,12.84
52.546,12.64
52.562,13.54
52.578,14.94
52.593,16.36
52.609,17.42
52.625,17.74
52.640,16.99
52.656,14.96
52.671,11.67
52.687,7.35
52.703,2.43
52.718,-2.59
52.734,-7.34
52.750,-11.68
52.765,-15.82
52.781,-20.39
52.796,-26.25
52.812,-34.28
52.828,-44.93
52.843,-57.83
52.859,-71.61
52.875,-83.99
52.890,-92.39
52.906,-94.68
52.921,-89.85
52.937,-78.27
52.953,-61.54
52.968,-41.89
52.984,-21.55
53.000,-2.35
53.015,14.56
53.031,28.58
53.046,39.49
53.062,47.3
53.078,52.21
53.093,54.59
53.109,55.02
53.125,54.24
53.140,53.01
53.156,51.97
53.171,51.54
53.187,51.79
53.203,52.57
53.218,53.67
53.234,54.84
53.250,55.87
53.265,56.34
53.281,55.45
53.296,51.9
53.312,44.17
53.328,31.0
53.343,11.89
53.359,-12.56
53.375,-40.76
53.390,-70.7
53.406,-100.43
53.421,-128.68
53.437,-154.83
53.453,-178.77
53.468,-200.51
53.484,-219.86
53.500,-236.33
53.515,-249.03
53.531,-256.85
53.546,-258.5
53.562,-252.77
53.578,-238.89
53.593,-216.9
53.609,-187.95
53.625,-154.31
53.640,-118.95
53.656,-84.93
53.671,-54.69
53.687,-29.64
53.703,-10.04
53.718,4.65
53.734,15.39
53.750,23.18
53.765,28.93
53.781,33.35
53.796,37.05
53.812,40.49
53.828,43.98
53.843,47.57
53.859,51.18
53.875,54.61
53.890,57.75
53.906,60.65
53.921,63.56
53.937,66.83
53.953,70.75
53.968,75.38
53.984,80.51
54.000,85.68
54.015,90.36
54.031,94.06
54.046,96.51
54.062,97.69
54.078,97.83
54.093,97.42
54.109,97.03
54.125,97.16
54.140,97.99
54.156,99.16
54.171,99.82
54.187,98.98
54.203,96.02
54.218,91.34
54.234,86.52
54.250,84.12
54.265,86.93
54.281,97.12
54.296,115.56
54.312,141.45
54.328,172.22
54.343,203.87
54.359,231.5
54.375,250.13
54.390,255.68
54.406,245.98
54.421,221.23
54.437,183.98
54.453,138.42
54.468,89.27
54.484,40.87
54.500,-3.4
54.515,-41.19
54.531,-70.96
54.546,-91.84
54.562,-103.53
54.578,-106.45
54.593,-101.72
54.609,-91.0
54.625,-76.19
54.640,-59.07
54.656,-41.09
54.671,-23.32
54.687,-6.59
54.703,8.4
54.718,20.99
54.734,30.65
54.750,37.21
54.765,41.0
54.781,42.86
54.796,43.84
54.812,44.9
54.828,46.43
54.843,48.11
54.859,48.99
54.875,47.76
54.890,43.16
54.906,34.34
54.921,21.16
54.937,4.43
54.953,-14.04
54.968,-31.61
54.984,-45.32
55.000,-52.65
55.015,-52.31
55.031,-44.69
55.046,-31.74
55.062,-16.29
55.078,-1.09
55.093,11.96
55.109,22.11
55.125,29.55
55.140,34.81
55.156,38.23
55.171,39.77
55.187,39.17
55.203,36.34
55.218,31.65
55.234,25.96
55.250,20.28
55.265,15.45
55.281,11.81
55.296,9.15
55.312,7.0
55.328,4.91
55.343,2.81
55.359,1.02
55.375,0.13
55.390,0.6
55.406,2.58
55.421,5.75
55.437,9.46
55.453,13.03
55.468,16.0
55.484,18.27
55.500,20.12
55.515,22.01
55.531,24.37
55.546,27.28
55.562,30.36
55.578,32.78
55.593,33.5
55.609,31.58
55.625,26.53
55.640,18.59
55.656,8.74
55.671,-1.38
55.687,-9.63
55.703,-13.8
55.718,-12.08
55.734,-3.8
55.750,10.02
55.765,26.37
55.781,40.82
55.796,48.75
55.812,46.78
55.828,34.02
55.843,12.25
55.859,-14.83
55.875,-42.99
55.890,-68.74
55.906,-89.97
55.921,-105.8
55.937,-116.03
55.953,-120.71
55.968,-120.04
55.984,-114.54
56.000,-105.26
56.015,-93.63
56.031,-81.07
56.046,-68.42
56.062,-55.54
56.078,-41.34
56.093,-24.31
56.109,-3.34
56.125,21.23
56.140,47.17
56.156,70.41
56.171,86.0
56.187,89.71
56.203,79.52
56.218,56.58
56.234,24.9
56.250,-9.86
56.265,-42.26
56.281,-68.56
56.296,-87.31
56.312,-98.91
56.328,-104.57
56.343,-105.31
56.359,-101.56
56.375,-93.41
56.390,-81.19
56.406,-65.92
56.421,-49.36
56.437,-33.54
56.453,-20.06
56.468,-9.59
56.484,-1.84
56.500,4.14
56.515,9.37
56.531,14.53
56.546,19.77
56.562,24.76
56.578,29.05
56.593,32.28
56.609,34.34
56.625,35.4
56.640,35.7
56.656,35.51
56.671,35.12
56.687,34.87
56.703,35.3
56.718,37.14
56.734,41.14
56.750,47.84
56.765,57.25
56.781,68.8
56.796,81.38
56.812,93.62
56.828,104.27
56.843,112.38
56.859,117.39
56.875,119.02
56.890,117.15
56.906,111.71
56.921,102.67
56.937,90.23
56.953,75.09
56.968,58.71
56.984,43.11
57.000,30.39
57.015,21.72
57.031,16.45
57.046,11.88
57.062,3.84
57.078,-11.74
57.093,-37.14
57.109,-71.72
57.125,-111.92
57.140,-152.35
57.156,-187.36
57.171,-212.24
57.187,-223.87
57.203,-220.75
57.218,-203.07
57.234,-172.86
57.250,-134.12
57.265,-92.54
57.281,-54.36
57.296,-24.8
57.312,-6.58
57.328,0.67
57.343,-0.19
57.359,-5.28
57.375,-11.26
57.390,-16.18
57.406,-19.59
57.421,-21.92
57.437,-23.86
57.453,-25.97
57.468,-28.58
57.484,-31.77
57.500,-35.37
57.515,-38.91
57.531,-41.76
57.546,-43.23
57.562,-42.89
57.578,-40.66
57.593,-36.75
57.609,-31.58
57.625,-25.62
57.640,-19.44
57.656,-13.77
57.671,-9.46
57.687,-7.1
57.703,-7.0
57.718,-9.13
57.734,-13.46
57.750,-20.17
57.765,-29.49
57.781,-41.04
57.796,-53.0
57.812,-62.05
57.828,-64.19
57.843,-56.6
57.859,-39.26
57.875,-15.53
57.890,8.84
57.906,27.91
57.921,37.74
57.937,37.6
57.953,29.73
57.968,18.26
57.984,7.63
58.000,1.42
58.015,1.71
58.031,8.7
58.046,20.82
58.062,34.98
58.078,47.32
58.093,54.15
58.109,53.02
58.125,43.45
58.140,27.02
58.156,7.17
58.171,-11.62
58.187,-24.7
58.203,-28.59
58.218,-22.2
58.234,-7.67
58.250,9.81
58.265,23.4
58.281,26.81
58.296,16.6
58.312,-6.66
58.328,-38.84
58.343,-73.9
58.359,-106.2
58.375,-132.18
58.390,-150.92
58.406,-163.58
58.421,-172.15
58.437,-178.22
58.453,-182.28
58.468,-183.48
58.484,-180.02
58.500,-169.91
58.515,-151.89
58.531,-126.14
58.546,-94.57
58.562,-60.5
58.578,-27.71
58.593,0.54
58.609,22.29
58.625,37.11
58.640,45.78
58.656,49.57
58.671,49.79
58.687,47.52
58.703,43.67
58.718,39.18
58.734,34.96
58.750,31.7
58.765,29.67
58.781,28.52
58.796,27.52
58.812,26.03
58.828,23.93
58.843,21.77
58.859,20.61
58.875,21.47
58.890,24.8
58.906,30.2
58.921,36.39
58.937,41.75
58.953,44.86
58.968,44.94
58.984,41.98
59.000,36.63
59.015,29.83
59.031,22.6
59.046,15.87
59.062,10.24
59.078,5.87
59.093,2.17
59.109,-2.14
59.125,-8.72
59.140,-18.84
59.156,-32.73
59.171,-49.13
59.187,-65.55
59.203,-79.1
59.218,-87.51
59.234,-89.83
59.250,-86.48
59.265,-78.76
59.281,-68.18
59.296,-55.92
59.312,-42.69
59.328,-29.0
59.343,-15.41
59.359,-2.66
59.375,8.4
59.390,17.09
59.406,23.14
59.421,26.81
59.437,28.73
59.453,29.72
59.468,30.52
59.484,31.58
59.500,33.0
59.515,34.56
59.531,35.79
59.546,36.1
59.562,34.89
59.578,31.71
59.593,26.33
59.609,18.89
59.625,9.84
59.640,-0.06
59.656,-9.96
59.671,-19.1
59.687,-27.0
59.703,-33.65
59.718,-39.55
59.734,-45.57
59.750,-52.57
59.765,-60.88
59.781,-69.78
59.796,-77.46
59.812,-81.32
59.828,-78.89
59.843,-68.71
59.859,-50.97
59.875,-27.48
59.890,-1.1
59.906,25.12
59.921,48.71
59.937,68.09
59.953,82.73
59.968,92.92
59.984,99.73
