timestamp,value
00.000,-174.42
00.015,-177.69
00.031,-177.24
00.046,-172.91
00.062,-164.65
00.078,-152.55
00.093,-136.89
00.109,-118.13
00.125,-96.84
00.140,-73.53
00.156,-48.62
00.171,-22.52
00.187,4.26
00.203,30.87
00.218,56.1
00.234,78.48
00.250,96.69
00.265,109.96
00.281,118.3
00.296,122.56
00.312,124.24
00.328,124.92
00.343,125.8
00.359,127.42
00.375,129.59
00.390,131.74
00.406,133.36
00.421,134.32
00.437,134.94
00.453,135.72
00.468,137.01
00.484,138.65
00.500,139.83
00.515,139.24
00.531,135.36
00.546,127.11
00.562,114.32
00.578,98.12
00.593,80.83
00.609,65.46
00.625,54.73
00.640,50.18
00.656,51.77
00.671,58.06
00.687,67.03
00.703,77.01
00.718,87.2
00.734,97.51
00.750,108.0
00.765,118.29
00.781,127.43
00.796,134.2
00.812,137.9
00.828,138.47
00.843,136.09
00.859,130.45
00.875,120.55
00.890,105.31
00.906,84.85
00.921,61.27
00.937,38.24
00.953,19.29
00.968,5.82
00.984,-3.84
01.000,-13.62
01.015,-27.37
01.031,-46.58
01.046,-69.5
01.062,-92.16
01.078,-110.62
01.093,-122.91
01.109,-129.53
01.125,-132.51
01.140,-133.77
01.156,-134.14
01.171,-133.41
01.187,-131.33
01.203,-128.46
01.218,-126.44
01.234,-127.44
01.250,-132.96
01.265,-142.93
01.281,-155.33
01.296,-166.92
01.312,-174.4
01.328,-175.74
01.343,-170.92
01.359,-161.99
01.375,-152.18
01.390,-144.8
01.406,-142.08
01.421,-144.48
01.437,-150.63
01.453,-157.86
01.468,-163.02
01.484,-163.35
01.500,-157.18
01.515,-144.15
01.531,-125.0
01.546,-101.29
01.562,-74.84
01.578,-47.43
01.593,-20.66
01.609,4.12
01.625,25.76
01.640,43.42
01.656,56.65
01.671,65.54
01.687,70.72
01.703,73.12
01.718,73.74
01.734,73.31
01.750,72.18
01.765,70.36
01.781,67.68
01.796,63.97
01.812,59.29
01.828,53.98
01.843,48.62
01.859,43.8
01.875,39.98
01.890,37.25
01.906,35.28
01.921,33.4
01.937,30.93
01.953,27.37
01.968,22.66
01.984,17.09
02.000,11.1
02.015,5.06
02.031,-0.93
02.046,-7.03
02.062,-13.56
02.078,-20.78
02.093,-28.85
02.109,-37.67
02.125,-46.93
02.140,-56.05
02.156,-64.14
02.171,-70.08
02.187,-72.61
02.203,-70.62
02.218,-63.45
02.234,-51.05
02.250,-34.09
02.265,-13.79
02.281,8.35
02.296,30.84
02.312,52.38
02.328,71.91
02.343,88.63
02.359,101.85
02.375,111.09
02.390,116.15
02.406,117.14
02.421,114.5
02.437,108.97
02.453,101.39
02.468,92.57
02.484,83.21
02.500,73.92
02.515,65.19
02.531,57.42
02.546,50.8
02.562,45.29
02.578,40.56
02.593,36.0
02.609,30.96
02.625,24.96
02.640,17.79
02.656,9.63
02.671,0.88
02.687,-7.97
02.703,-16.51
02.718,-24.6
02.734,-32.42
02.750,-40.43
02.765,-49.24
02.781,-59.35
02.796,-70.89
02.812,-83.31
02.828,-95.25
02.843,-104.81
02.859,-109.97
02.875,-109.29
02.890,-102.25
02.906,-89.41
02.921,-72.23
02.937,-52.47
02.953,-31.82
02.968,-11.6
02.984,7.27
03.000,24.18
03.015,38.67
03.031,50.43
03.046,59.39
03.062,65.66
03.078,69.56
03.093,71.51
03.109,71.94
03.125,71.28
03.140,69.87
03.156,67.97
03.171,65.81
03.187,63.59
03.203,61.47
03.218,59.64
03.234,58.19
03.250,57.09
03.265,56.14
03.281,54.99
03.296,53.19
03.312,50.36
03.328,46.38
03.343,41.39
03.359,35.77
03.375,29.9
03.390,24.06
03.406,18.19
03.421,12.0
03.437,5.04
03.453,-3.11
03.468,-12.59
03.484,-23.09
03.500,-33.68
03.515,-42.91
03.531,-49.04
03.546,-50.45
03.562,-46.05
03.578,-35.64
03.593,-20.02
03.609,-0.75
03.625,20.24
03.640,41.14
03.656,60.74
03.671,78.44
03.687,94.25
03.703,108.37
03.718,120.92
03.734,131.74
03.750,140.47
03.765,146.77
03.781,150.53
03.796,152.07
03.812,151.99
03.828,151.04
03.843,149.84
03.859,148.76
03.875,147.91
03.890,147.34
03.906,147.02
03.921,146.98
03.937,147.23
03.953,147.63
03.968,147.88
03.984,147.64
04.000,146.65
04.015,144.89
04.031,142.54
04.046,139.8
04.062,136.71
04.078,132.9
04.093,127.59
04.109,119.81
04.125,108.67
04.140,93.59
04.156,74.43
04.171,51.56
04.187,25.87
04.203,-1.38
04.218,-28.58
04.234,-54.07
04.250,-76.39
04.265,-94.55
04.281,-108.25
04.296,-117.84
04.312,-124.19
04.328,-128.43
04.343,-131.6
04.359,-134.47
04.375,-137.43
04.390,-140.42
04.406,-143.12
04.421,-145.03
04.437,-145.67
04.453,-144.7
04.468,-141.98
04.484,-137.42
04.500,-131.05
04.515,-122.88
04.531,-113.01
04.546,-101.69
04.562,-89.41
04.578,-76.84
04.593,-64.78
04.609,-53.96
04.625,-45.01
04.640,-38.37
04.656,-34.4
04.671,-33.33
04.687,-35.15
04.703,-39.56
04.718,-45.8
04.734,-52.74
04.750,-59.09
04.765,-63.72
04.781,-66.0
04.796,-66.0
04.812,-64.44
04.828,-62.56
04.843,-61.76
04.859,-63.2
04.875,-67.51
04.890,-74.36
04.906,-82.54
04.921,-90.07
04.937,-94.81
04.953,-94.94
04.968,-89.62
04.984,-78.98
05.000,-64.04
05.015,-46.27
05.031,-27.15
05.046,-7.98
05.062,10.22
05.078,26.56
05.093,40.34
05.109,51.02
05.125,58.37
05.140,62.55
05.156,64.06
05.171,63.65
05.187,62.06
05.203,59.93
05.218,57.55
05.234,54.99
05.250,52.18
05.265,49.07
05.281,45.8
05.296,42.66
05.312,40.02
05.328,38.11
05.343,36.85
05.359,35.83
05.375,34.32
05.390,31.61
05.406,27.17
05.421,20.89
05.437,13.15
05.453,4.64
05.468,-3.76
05.484,-11.41
05.500,-17.96
05.515,-23.57
05.531,-28.66
05.546,-33.91
05.562,-39.89
05.578,-46.95
05.593,-55.07
05.609,-63.76
05.625,-72.01
05.640,-78.42
05.656,-81.52
05.671,-80.16
05.687,-73.88
05.703,-63.03
05.718,-48.71
05.734,-32.37
05.750,-15.45
05.765,0.96
05.781,16.18
05.796,29.8
05.812,41.48
05.828,50.9
05.843,57.79
05.859,62.08
05.875,64.01
05.890,64.11
05.906,63.03
05.921,61.41
05.937,59.72
05.953,58.19
05.968,56.92
05.984,55.87
06.000,54.9
06.015,53.85
06.031,52.51
06.046,50.7
06.062,48.32
06.078,45.4
06.093,42.0
06.109,38.18
06.125,33.86
06.140,28.9
06.156,23.13
06.171,16.5
06.187,9.14
06.203,1.35
06.218,-6.49
06.234,-14.15
06.250,-21.52
06.265,-28.73
06.281,-36.06
06.296,-43.84
06.312,-52.35
06.328,-61.62
06.343,-71.31
06.359,-80.6
06.375,-88.23
06.390,-92.75
06.406,-92.85
06.421,-87.78
06.437,-77.64
06.453,-63.34
06.468,-46.41
06.484,-28.55
06.500,-11.2
06.515,4.68
06.531,18.71
06.546,30.9
06.562,41.37
06.578,50.21
06.593,57.38
06.609,62.82
06.625,66.56
06.640,68.8
06.656,69.96
06.671,70.5
06.687,70.84
06.703,71.24
06.718,71.75
06.734,72.31
06.750,72.86
06.765,73.33
06.781,73.74
06.796,74.08
06.812,74.26
06.828,74.08
06.843,73.37
06.859,72.04
06.875,70.22
06.890,68.2
06.906,66.37
06.921,64.99
06.937,64.14
06.953,63.7
06.968,63.4
06.984,62.9
07.000,61.98
07.015,60.49
07.031,58.38
07.046,55.73
07.062,52.75
07.078,49.77
07.093,47.2
07.109,45.32
07.125,44.2
07.140,43.64
07.156,43.28
07.171,42.71
07.187,41.71
07.203,40.29
07.218,38.54
07.234,36.57
07.250,34.34
07.265,31.64
07.281,28.29
07.296,24.25
07.312,19.78
07.328,15.3
07.343,11.23
07.359,7.74
07.375,4.64
07.390,1.52
07.406,-2.13
07.421,-6.58
07.437,-11.82
07.453,-17.57
07.468,-23.47
07.484,-29.23
07.500,-34.71
07.515,-39.83
07.531,-44.5
07.546,-48.59
07.562,-51.92
07.578,-54.44
07.593,-56.26
07.609,-57.65
07.625,-59.01
07.640,-60.73
07.656,-63.15
07.671,-66.45
07.687,-70.74
07.703,-75.98
07.718,-82.05
07.734,-88.75
07.750,-95.83
07.765,-103.05
07.781,-110.22
07.796,-117.28
07.812,-124.26
07.828,-131.22
07.843,-138.13
07.859,-144.69
07.875,-150.2
07.890,-153.57
07.906,-153.56
07.921,-149.13
07.937,-139.79
07.953,-125.83
07.968,-108.28
07.984,-88.59
08.000,-68.28
08.015,-48.59
08.031,-30.42
08.046,-14.37
08.062,-0.89
08.078,9.64
08.093,16.96
08.109,21.08
08.125,22.34
08.140,21.46
08.156,19.36
08.171,16.96
08.187,14.93
08.203,13.61
08.218,12.97
08.234,12.84
08.250,12.97
08.265,13.25
08.281,13.68
08.296,14.3
08.312,15.08
08.328,15.83
08.343,16.15
08.359,15.58
08.375,13.74
08.390,10.44
08.406,5.79
08.421,0.23
08.437,-5.69
08.453,-11.42
08.468,-16.62
08.484,-21.22
08.500,-25.43
08.515,-29.64
08.531,-34.34
08.546,-39.94
08.562,-46.76
08.578,-54.8
08.593,-63.61
08.609,-72.18
08.625,-79.04
08.640,-82.53
08.656,-81.3
08.671,-74.76
08.687,-63.27
08.703,-47.96
08.718,-30.42
08.734,-12.22
08.750,5.36
08.765,21.43
08.781,35.4
08.796,46.82
08.812,55.38
08.828,60.89
08.843,63.48
08.859,63.58
08.875,61.96
08.890,59.54
08.906,57.19
08.921,55.53
08.937,54.82
08.953,54.94
08.968,55.51
08.984,56.11
09.000,56.42
09.015,56.35
09.031,55.96
09.046,55.31
09.062,54.36
09.078,52.89
09.093,50.55
09.109,47.07
09.125,42.39
09.140,36.76
09.156,30.71
09.171,24.94
09.187,20.01
09.203,16.28
09.218,13.67
09.234,11.74
09.250,9.73
09.265,6.77
09.281,2.12
09.296,-4.45
09.312,-12.37
09.328,-20.26
09.343,-25.97
09.359,-27.24
09.375,-22.29
09.390,-10.42
09.406,7.69
09.421,30.19
09.437,54.48
09.453,77.86
09.468,97.97
09.484,113.23
09.500,122.88
09.515,126.95
09.531,126.02
09.546,120.93
09.562,112.5
09.578,101.34
09.593,87.94
09.609,72.8
09.625,56.65
09.640,40.41
09.656,25.03
09.671,11.15
09.687,-1.03
09.703,-11.71
09.718,-21.17
09.734,-29.5
09.750,-36.53
09.765,-41.87
09.781,-45.24
09.796,-46.65
09.812,-46.46
09.828,-45.3
09.843,-43.86
09.859,-42.73
09.875,-42.27
09.890,-42.51
09.906,-43.2
09.921,-43.87
09.937,-44.07
09.953,-43.55
09.968,-42.52
09.984,-41.63
10.000,-41.8
10.015,-43.82
10.031,-48.0
10.046,-53.85
10.062,-60.03
10.078,-64.53
10.093,-65.1
10.109,-59.78
10.125,-47.61
10.140,-29.04
10.156,-6.06
10.171,18.21
10.187,40.32
10.203,57.5
10.218,68.35
10.234,73.09
10.250,73.22
10.265,70.77
10.281,67.62
10.296,65.04
10.312,63.58
10.328,63.31
10.343,64.02
10.359,65.29
10.375,66.53
10.390,67.01
10.406,65.93
10.421,62.68
10.437,57.04
10.453,49.29
10.468,40.15
10.484,30.55
10.500,21.28
10.515,12.75
10.531,4.92
10.546,-2.63
10.562,-10.48
10.578,-19.11
10.593,-28.69
10.609,-38.98
10.625,-49.39
10.640,-59.14
10.656,-67.6
10.671,-74.44
10.687,-79.89
10.703,-84.57
10.718,-89.33
10.734,-94.9
10.750,-101.74
10.765,-109.89
10.781,-118.9
10.796,-127.93
10.812,-135.71
10.828,-140.73
10.843,-141.52
10.859,-137.06
10.875,-127.09
10.890,-112.36
10.906,-94.38
10.921,-74.98
10.937,-55.84
10.953,-38.0
10.968,-21.94
10.984,-7.77
11.000,4.46
11.015,14.49
11.031,21.93
11.046,26.5
11.062,28.27
11.078,27.74
11.093,25.75
11.109,23.25
11.125,20.96
11.140,19.3
11.156,18.26
11.171,17.7
11.187,17.46
11.203,17.43
11.218,17.61
11.234,17.99
11.250,18.41
11.265,18.59
11.281,18.07
11.296,16.42
11.312,13.32
11.328,8.7
11.343,2.79
11.359,-3.99
11.375,-11.08
11.390,-17.99
11.406,-24.36
11.421,-30.07
11.437,-35.28
11.453,-40.39
11.468,-45.95
11.484,-52.51
11.500,-60.33
11.515,-69.19
11.531,-78.22
11.546,-85.95
11.562,-90.66
11.578,-90.8
11.593,-85.4
11.609,-74.41
11.625,-58.67
11.640,-39.66
11.656,-19.19
11.671,1.09
11.687,19.94
11.703,36.64
11.718,50.87
11.734,62.54
11.750,71.55
11.765,77.8
11.781,81.24
11.796,82.06
11.812,80.81
11.828,78.28
11.843,75.38
11.859,72.77
11.875,70.77
11.890,69.29
11.906,68.04
11.921,66.7
11.937,65.04
11.953,63.01
11.968,60.6
11.984,57.75
12.000,54.36
12.015,50.26
12.031,45.28
12.046,39.35
12.062,32.47
12.078,24.81
12.093,16.64
12.109,8.38
12.125,0.43
12.140,-6.89
12.156,-13.5
12.171,-19.58
12.187,-25.54
12.203,-31.92
12.218,-39.22
12.234,-47.72
12.250,-57.36
12.265,-67.59
12.281,-77.36
12.296,-85.23
12.312,-89.54
12.328,-88.89
12.343,-82.5
12.359,-70.51
12.375,-54.0
12.390,-34.76
12.406,-14.77
12.421,4.24
12.437,21.12
12.453,35.35
12.468,46.83
12.484,55.64
12.500,61.89
12.515,65.69
12.531,67.24
12.546,67.0
12.562,65.61
12.578,63.81
12.593,62.22
12.609,61.15
12.625,60.55
12.640,60.13
12.656,59.51
12.671,58.36
12.687,56.56
12.703,54.14
12.718,51.18
12.734,47.76
12.750,43.88
12.765,39.47
12.781,34.48
12.796,28.88
12.812,22.77
12.828,16.42
12.843,10.15
12.859,4.28
12.875,-1.03
12.890,-5.86
12.906,-10.53
12.921,-15.56
12.937,-21.43
12.953,-28.58
12.968,-37.16
12.984,-47.1
13.000,-57.92
13.015,-68.67
13.031,-77.94
13.046,-84.03
13.062,-85.32
13.078,-80.75
13.093,-70.3
13.109,-55.03
13.125,-36.83
13.140,-17.89
13.156,-0.1
13.171,15.35
13.187,27.98
13.203,37.8
13.218,45.04
13.234,49.89
13.250,52.57
13.265,53.36
13.281,52.72
13.296,51.27
13.312,49.61
13.328,48.24
13.343,47.32
13.359,46.76
13.375,46.23
13.390,45.35
13.406,43.85
13.421,41.71
13.437,39.14
13.453,36.45
13.468,33.89
13.484,31.54
13.500,29.23
13.515,26.63
13.531,23.43
13.546,19.5
13.562,14.96
13.578,10.11
13.593,5.22
13.609,0.4
13.625,-4.49
13.640,-9.8
13.656,-15.92
13.671,-23.14
13.687,-31.49
13.703,-40.71
13.718,-50.26
13.734,-59.28
13.750,-66.68
13.765,-71.29
13.781,-72.06
13.796,-68.35
13.812,-60.1
13.828,-47.93
13.843,-32.96
13.859,-16.67
13.875,-0.46
13.890,14.58
13.906,27.75
13.921,38.73
13.937,47.44
13.953,53.87
13.968,58.09
13.984,60.21
14.000,60.5
14.015,59.4
14.031,57.51
14.046,55.43
14.062,53.57
14.078,52.08
14.093,50.82
14.109,49.47
14.125,47.73
14.140,45.45
14.156,42.75
14.171,39.9
14.187,37.19
14.203,34.78
14.218,32.58
14.234,30.24
14.250,27.33
14.265,23.44
14.281,18.35
14.296,12.05
14.312,4.78
14.328,-3.08
14.343,-11.1
14.359,-18.9
14.375,-26.27
14.390,-33.27
14.406,-40.14
14.421,-47.3
14.437,-55.11
14.453,-63.61
14.468,-72.42
14.484,-80.58
14.500,-86.81
14.515,-89.78
14.531,-88.43
14.546,-82.35
14.562,-71.83
14.578,-57.85
14.593,-41.7
14.609,-24.8
14.625,-8.3
14.640,6.94
14.656,20.39
14.671,31.79
14.687,41.05
14.703,48.14
14.718,53.11
14.734,56.06
14.750,57.12
14.765,56.54
14.781,54.68
14.796,52.06
14.812,49.27
14.828,46.8
14.843,44.96
14.859,43.78
14.875,43.06
14.890,42.49
14.906,41.79
14.921,40.71
14.937,39.1
14.953,36.89
14.968,33.97
14.984,30.29
15.000,25.77
15.015,20.42
15.031,14.3
15.046,7.65
15.062,0.84
15.078,-5.73
15.093,-11.67
15.109,-16.84
15.125,-21.37
15.140,-25.68
15.156,-30.34
15.171,-35.91
15.187,-42.76
15.203,-50.94
15.218,-60.06
15.234,-69.31
15.250,-77.48
15.265,-83.13
15.281,-84.87
15.296,-81.78
15.312,-73.62
15.328,-61.0
15.343,-45.18
15.359,-27.8
15.375,-10.48
15.390,5.46
15.406,19.17
15.421,30.23
15.437,38.55
15.453,44.27
15.468,47.62
15.484,48.97
15.500,48.78
15.515,47.61
15.531,46.02
15.546,44.53
15.562,43.45
15.578,42.9
15.593,42.79
15.609,42.91
15.625,42.98
15.640,42.75
15.656,42.01
15.671,40.63
15.687,38.52
15.703,35.72
15.718,32.37
15.734,28.68
15.750,24.9
15.765,21.21
15.781,17.61
15.796,13.94
15.812,9.96
15.828,5.5
15.843,0.53
15.859,-4.84
15.875,-10.45
15.890,-16.15
15.906,-21.97
15.921,-28.04
15.937,-34.55
15.953,-41.67
15.968,-49.42
15.984,-57.67
16.000,-65.97
16.015,-73.6
16.031,-79.52
16.046,-82.54
16.062,-81.62
16.078,-76.19
16.093,-66.49
16.109,-53.43
16.125,-38.47
16.140,-23.14
16.156,-8.74
16.171,3.98
16.187,14.73
16.203,23.55
16.218,30.65
16.234,36.2
16.250,40.25
16.265,42.84
16.281,44.05
16.296,44.01
16.312,43.01
16.328,41.43
16.343,39.64
16.359,38.01
16.375,36.78
16.390,36.06
16.406,35.81
16.421,35.87
16.437,36.0
16.453,35.92
16.468,35.39
16.484,34.27
16.500,32.52
16.515,30.23
16.531,27.51
16.546,24.41
16.562,20.94
16.578,17.1
16.593,12.92
16.609,8.55
16.625,4.17
16.640,-0.03
16.656,-3.9
16.671,-7.4
16.687,-10.63
16.703,-13.74
16.718,-16.9
16.734,-20.33
16.750,-24.3
16.765,-28.99
16.781,-34.46
16.796,-40.4
16.812,-46.01
16.828,-50.06
16.843,-51.12
16.859,-47.99
16.875,-40.2
16.890,-28.17
16.906,-13.14
16.921,3.21
16.937,19.25
16.953,33.82
16.968,46.3
16.984,56.6
17.000,64.84
17.015,71.16
17.031,75.64
17.046,78.3
17.062,79.28
17.078,78.9
17.093,77.65
17.109,75.92
17.125,73.82
17.140,70.97
17.156,66.58
17.171,59.8
17.187,50.13
17.203,37.8
17.218,23.89
17.234,10.04
17.250,-2.04
17.265,-11.18
17.281,-17.13
17.296,-20.62
17.312,-23.1
17.328,-26.25
17.343,-31.53
17.359,-39.83
17.375,-51.36
17.390,-65.64
17.406,-81.32
17.421,-95.93
17.437,-106.06
17.453,-108.17
17.468,-99.99
17.484,-81.84
17.500,-57.12
17.515,-31.42
17.531,-10.53
17.546,1.68
17.562,4.49
17.578,0.1
17.593,-7.73
17.609,-15.47
17.625,-20.93
17.640,-23.49
17.656,-23.43
17.671,-21.3
17.687,-17.58
17.703,-12.76
17.718,-7.62
17.734,-3.23
17.750,-0.68
17.765,-0.72
17.781,-3.49
17.796,-8.34
17.812,-14.14
17.828,-19.59
17.843,-23.76
17.859,-26.36
17.875,-27.75
17.890,-28.75
17.906,-30.18
17.921,-32.56
17.937,-35.88
17.953,-39.68
17.968,-43.24
17.984,-45.89
18.000,-47.28
18.015,-47.51
18.031,-47.08
18.046,-46.76
18.062,-47.33
18.078,-49.24
18.093,-52.61
18.109,-57.1
18.125,-62.05
18.140,-66.7
18.156,-70.43
18.171,-73.0
18.187,-74.7
18.203,-76.48
18.218,-79.63
18.234,-85.55
18.250,-95.13
18.265,-108.27
18.281,-123.67
18.296,-138.99
18.312,-151.4
18.328,-158.33
18.343,-158.15
18.359,-150.51
18.375,-136.3
18.390,-117.26
18.406,-95.44
18.421,-72.79
18.437,-50.94
18.453,-31.1
18.468,-14.12
18.484,-0.48
18.500,9.66
18.515,16.48
18.531,20.51
18.546,22.54
18.562,23.44
18.578,24.02
18.593,24.82
18.609,26.05
18.625,27.58
18.640,29.15
18.656,30.51
18.671,31.63
18.687,32.67
18.703,33.93
18.718,35.54
18.734,37.39
18.750,39.03
18.765,39.88
18.781,39.42
18.796,37.39
18.812,33.89
18.828,29.26
18.843,23.95
18.859,18.38
18.875,12.9
18.890,7.66
18.906,2.66
18.921,-2.32
18.937,-7.63
18.953,-13.73
18.968,-20.97
18.984,-29.31
19.000,-38.14
19.015,-46.3
19.031,-52.21
19.046,-54.31
19.062,-51.54
19.078,-43.61
19.093,-31.12
19.109,-15.4
19.125,1.9
19.140,19.19
19.156,35.23
19.171,49.25
19.187,60.87
19.203,70.03
19.218,76.82
19.234,81.46
19.250,84.23
19.265,85.48
19.281,85.59
19.296,84.93
19.312,83.83
19.328,82.58
19.343,81.38
19.359,80.36
19.375,79.6
19.390,79.06
19.406,78.67
19.421,78.25
19.437,77.68
19.453,76.78
19.468,75.41
19.484,73.48
19.500,70.96
19.515,67.85
19.531,64.26
19.546,60.4
19.562,56.47
19.578,52.72
19.593,49.32
19.609,46.35
19.625,43.79
19.640,41.54
19.656,39.43
19.671,37.32
19.687,35.09
19.703,32.65
19.718,29.99
19.734,27.19
19.750,24.36
19.765,21.73
19.781,19.48
19.796,17.76
19.812,16.59
19.828,15.85
19.843,15.29
19.859,14.66
19.875,13.79
19.890,12.67
19.906,11.42
19.921,10.2
19.937,9.1
19.953,8.05
19.968,6.84
19.984,5.18
20.000,2.88
20.015,-0.01
20.031,-3.26
20.046,-6.43
20.062,-9.17
20.078,-11.29
20.093,-12.9
20.109,-14.38
20.125,-16.23
20.140,-18.88
20.156,-22.53
20.171,-27.09
20.187,-32.18
20.203,-37.32
20.218,-42.03
20.234,-45.99
20.250,-49.16
20.265,-51.86
20.281,-54.81
20.296,-59.05
20.312,-65.57
20.328,-74.83
20.343,-86.31
20.359,-98.33
20.375,-108.45
20.390,-114.16
20.406,-113.82
20.421,-107.26
20.437,-95.73
20.453,-81.38
20.468,-66.45
20.484,-52.59
20.500,-40.59
20.515,-30.55
20.531,-22.26
20.546,-15.52
20.562,-10.29
20.578,-6.59
20.593,-4.35
20.609,-3.31
20.625,-2.99
20.640,-2.78
20.656,-2.09
20.671,-0.6
20.687,1.72
20.703,4.61
20.718,7.6
20.734,10.26
20.750,12.33
20.765,13.69
20.781,14.37
20.796,14.35
20.812,13.54
20.828,11.79
20.843,9.0
20.859,5.24
20.875,0.76
20.890,-4.11
20.906,-9.17
20.921,-14.4
20.937,-20.1
20.953,-26.67
20.968,-34.26
20.984,-42.46
21.000,-50.19
21.015,-55.79
21.031,-57.56
21.046,-54.31
21.062,-45.78
21.078,-32.77
21.093,-16.86
21.109,0.11
21.125,16.51
21.140,31.19
21.156,43.57
21.171,53.36
21.187,60.4
21.203,64.56
21.218,65.72
21.234,63.98
21.250,59.82
21.265,54.03
21.281,47.65
21.296,41.66
21.312,36.77
21.328,33.21
21.343,30.78
21.359,28.95
21.375,27.16
21.390,24.96
21.406,22.15
21.421,18.77
21.437,15.03
21.453,11.1
21.468,7.09
21.484,2.92
21.500,-1.65
21.515,-6.96
21.531,-13.35
21.546,-21.01
21.562,-29.84
21.578,-39.3
21.593,-48.35
21.609,-55.54
21.625,-59.26
21.640,-58.22
21.656,-51.81
21.671,-40.34
21.687,-25.0
21.703,-7.53
21.718,10.2
21.734,26.65
21.750,40.85
21.765,52.38
21.781,61.23
21.796,67.51
21.812,71.36
21.828,72.83
21.843,72.03
21.859,69.23
21.875,64.84
21.890,59.49
21.906,53.8
21.921,48.34
21.937,43.46
21.953,39.3
21.968,35.82
21.984,32.81
22.000,30.02
22.015,27.16
22.031,24.03
22.046,20.51
22.062,16.64
22.078,12.52
22.093,8.23
22.109,3.72
22.125,-1.17
22.140,-6.7
22.156,-13.07
22.171,-20.35
22.187,-28.38
22.203,-36.67
22.218,-44.44
22.234,-50.59
22.250,-53.85
22.265,-53.05
22.281,-47.43
22.296,-36.93
22.312,-22.32
22.328,-5.14
22.343,12.72
22.359,29.45
22.375,43.68
22.390,54.71
22.406,62.53
22.421,67.54
22.437,70.36
22.453,71.56
22.468,71.49
22.484,70.34
22.500,68.22
22.515,65.24
22.531,61.61
22.546,57.58
22.562,53.4
22.578,49.2
22.593,44.97
22.609,40.63
22.625,36.07
22.640,31.27
22.656,26.28
22.671,21.18
22.687,16.07
22.703,10.96
22.718,5.83
22.734,0.57
22.750,-4.88
22.765,-10.62
22.781,-16.77
22.796,-23.49
22.812,-31.02
22.828,-39.47
22.843,-48.72
22.859,-58.1
22.875,-66.45
22.890,-72.22
22.906,-73.93
22.921,-70.55
22.937,-61.94
22.953,-48.88
22.968,-32.88
22.984,-15.8
23.000,0.66
23.015,15.27
23.031,27.41
23.046,36.96
23.062,44.14
23.078,49.28
23.093,52.66
23.109,54.51
23.125,55.05
23.140,54.59
23.156,53.53
23.171,52.38
23.187,51.5
23.203,51.03
23.218,50.8
23.234,50.44
23.250,49.55
23.265,47.97
23.281,45.84
23.296,43.57
23.312,41.56
23.328,40.06
23.343,38.93
23.359,37.75
23.375,35.99
23.390,33.22
23.406,29.25
23.421,24.14
23.437,18.11
23.453,11.41
23.468,4.23
23.484,-3.36
23.500,-11.31
23.515,-19.57
23.531,-28.1
23.546,-36.87
23.562,-45.82
23.578,-54.8
23.593,-63.46
23.609,-71.05
23.625,-76.54
23.640,-78.77
23.656,-76.8
23.671,-70.26
23.687,-59.53
23.703,-45.66
23.718,-30.07
23.734,-14.18
23.750,0.99
23.765,14.83
23.781,27.12
23.796,37.77
23.812,46.71
23.828,53.83
23.843,58.96
23.859,62.08
23.875,63.27
23.890,62.77
23.906,60.83
23.921,57.68
23.937,53.51
23.953,48.57
23.968,43.23
23.984,38.04
24.000,33.57
24.015,30.32
24.031,28.44
24.046,27.67
24.062,27.47
24.078,27.15
24.093,26.17
24.109,24.24
24.125,21.39
24.140,17.68
24.156,13.28
24.171,8.22
24.187,2.54
24.203,-3.68
24.218,-10.18
24.234,-16.6
24.250,-22.52
24.265,-27.67
24.281,-32.04
24.296,-35.76
24.312,-39.16
24.328,-42.59
24.343,-46.42
24.359,-50.99
24.375,-56.58
24.390,-63.26
24.406,-70.7
24.421,-78.1
24.437,-84.13
24.453,-87.24
24.468,-86.11
24.484,-80.04
24.500,-69.28
24.515,-54.86
24.531,-38.41
24.546,-21.59
24.562,-5.84
24.578,7.92
24.593,19.2
24.609,27.85
24.625,34.03
24.640,37.97
24.656,40.0
24.671,40.53
24.687,39.99
24.703,38.86
24.718,37.52
24.734,36.28
24.750,35.31
24.765,34.68
24.781,34.32
24.796,34.12
24.812,33.87
24.828,33.35
24.843,32.32
24.859,30.6
24.875,28.1
24.890,24.9
24.906,21.18
24.921,17.28
24.937,13.5
24.953,10.06
24.968,6.97
24.984,4.11
25.000,1.25
25.015,-1.82
25.031,-5.21
25.046,-8.94
25.062,-13.04
25.078,-17.52
25.093,-22.42
25.109,-27.75
25.125,-33.48
25.140,-39.51
25.156,-45.69
25.171,-51.82
25.187,-57.63
25.203,-62.68
25.218,-66.27
25.234,-67.54
25.250,-65.67
25.265,-60.2
25.281,-51.3
25.296,-39.86
25.312,-27.23
25.328,-14.86
25.343,-3.86
25.359,5.29
25.375,12.69
25.390,18.7
25.406,23.69
25.421,27.79
25.437,30.94
25.453,33.02
25.468,34.0
25.484,34.07
25.500,33.49
25.515,32.56
25.531,31.44
25.546,30.25
25.562,29.0
25.578,27.75
25.593,26.54
25.609,25.4
25.625,24.28
25.640,23.07
25.656,21.7
25.671,20.12
25.687,18.4
25.703,16.57
25.718,14.55
25.734,12.16
25.750,9.16
25.765,5.34
25.781,0.65
25.796,-4.81
25.812,-10.76
25.828,-16.86
25.843,-22.79
25.859,-28.32
25.875,-33.34
25.890,-37.87
25.906,-42.07
25.921,-46.14
25.937,-50.31
25.953,-54.64
25.968,-58.9
25.984,-62.47
26.000,-64.54
26.015,-64.28
26.031,-61.12
26.046,-54.98
26.062,-46.23
26.078,-35.63
26.093,-24.04
26.109,-12.29
26.125,-1.01
26.140,9.29
26.156,18.26
26.171,25.66
26.187,31.32
26.203,35.23
26.218,37.46
26.234,38.22
26.250,37.79
26.265,36.55
26.281,34.86
26.296,33.03
26.312,31.32
26.328,29.89
26.343,28.86
26.359,28.27
26.375,28.11
26.390,28.31
26.406,28.67
26.421,28.86
26.437,28.47
26.453,27.16
26.468,24.68
26.484,21.1
26.500,16.64
26.515,11.72
26.531,6.8
26.546,2.22
26.562,-1.89
26.578,-5.56
26.593,-8.95
26.609,-12.31
26.625,-15.79
26.640,-19.47
26.656,-23.36
26.671,-27.39
26.687,-31.51
26.703,-35.74
26.718,-40.19
26.734,-45.07
26.750,-50.61
26.765,-56.92
26.781,-63.78
26.796,-70.56
26.812,-76.23
26.828,-79.57
26.843,-79.52
26.859,-75.53
26.875,-67.72
26.890,-56.9
26.906,-44.3
26.921,-31.28
26.937,-18.98
26.953,-8.15
26.968,0.89
26.984,8.31
27.000,14.51
27.015,19.97
27.031,25.03
27.046,29.78
27.062,34.04
27.078,37.5
27.093,39.92
27.109,41.23
27.125,41.61
27.140,41.24
27.156,40.32
27.171,38.99
27.187,37.39
27.203,35.76
27.218,34.4
27.234,33.56
27.250,33.3
27.265,33.4
27.281,33.36
27.296,32.65
27.312,30.89
27.328,28.02
27.343,24.2
27.359,19.81
27.375,15.19
27.390,10.57
27.406,6.0
27.421,1.4
27.437,-3.32
27.453,-8.17
27.468,-13.08
27.484,-17.87
27.500,-22.28
27.515,-26.1
27.531,-29.27
27.546,-31.9
27.562,-34.34
27.578,-37.12
27.593,-40.81
27.609,-45.83
27.625,-52.28
27.640,-59.82
27.656,-67.58
27.671,-74.31
27.687,-78.58
27.703,-79.18
27.718,-75.4
27.734,-67.31
27.750,-55.72
27.765,-42.0
27.781,-27.67
27.796,-14.09
27.812,-2.14
27.828,7.82
27.843,15.87
27.859,22.31
27.875,27.53
27.890,31.72
27.906,35.01
27.921,37.42
27.937,39.08
27.953,40.16
27.968,40.94
27.984,41.65
28.000,42.34
28.015,42.87
28.031,42.95
28.046,42.33
28.062,40.95
28.078,39.01
28.093,36.85
28.109,34.8
28.125,33.0
28.140,31.34
28.156,29.59
28.171,27.53
28.187,25.05
28.203,22.2
28.218,19.14
28.234,15.93
28.250,12.59
28.265,8.99
28.281,4.93
28.296,0.27
28.312,-4.99
28.328,-10.73
28.343,-16.65
28.359,-22.37
28.375,-27.5
28.390,-31.81
28.406,-35.26
28.421,-38.12
28.437,-40.8
28.453,-43.83
28.468,-47.7
28.484,-52.66
28.500,-58.68
28.515,-65.33
28.531,-71.78
28.546,-76.9
28.562,-79.52
28.578,-78.67
28.593,-73.94
28.609,-65.56
28.625,-54.38
28.640,-41.53
28.656,-28.18
28.671,-15.25
28.687,-3.37
28.703,7.08
28.718,15.89
28.734,22.89
28.750,28.02
28.765,31.33
28.781,33.05
28.796,33.57
28.812,33.37
28.828,32.94
28.843,32.65
28.859,32.74
28.875,33.23
28.890,34.01
28.906,34.88
28.921,35.61
28.937,35.99
28.953,35.95
28.968,35.44
28.984,34.47
29.000,33.1
29.015,31.37
29.031,29.35
29.046,27.15
29.062,24.87
29.078,22.65
29.093,20.56
29.109,18.7
29.125,17.02
29.140,15.39
29.156,13.56
29.171,11.2
29.187,7.95
29.203,3.6
29.218,-1.83
29.234,-8.06
29.250,-14.58
29.265,-20.91
29.281,-26.69
29.296,-31.88
29.312,-36.72
29.328,-41.63
29.343,-46.98
29.359,-52.92
29.375,-59.18
29.390,-65.08
29.406,-69.64
29.421,-71.79
29.437,-70.72
29.453,-66.07
29.468,-58.11
29.484,-47.57
29.500,-35.47
29.515,-22.8
29.531,-10.39
29.546,1.19
29.562,11.56
29.578,20.42
29.593,27.56
29.609,32.81
29.625,36.21
29.640,37.94
29.656,38.34
29.671,37.82
29.687,36.78
29.703,35.55
29.718,34.41
29.734,33.55
29.750,33.07
29.765,32.97
29.781,33.15
29.796,33.47
29.812,33.79
29.828,33.97
29.843,33.83
29.859,33.09
29.875,31.43
29.890,28.61
29.906,24.62
29.921,19.67
29.937,14.25
29.953,8.88
29.968,3.95
29.984,-0.37
30.000,-4.17
30.015,-7.63
30.031,-10.92
30.046,-14.09
30.062,-17.15
30.078,-20.1
30.093,-23.1
30.109,-26.36
30.125,-30.22
30.140,-34.95
30.156,-40.7
30.171,-47.46
30.187,-54.97
30.203,-62.67
30.218,-69.7
30.234,-74.98
30.250,-77.39
30.265,-76.03
30.281,-70.53
30.296,-61.22
30.312,-49.05
30.328,-35.42
30.343,-21.77
30.359,-9.22
30.375,1.57
30.390,10.46
30.406,17.66
30.421,23.52
30.437,28.38
30.453,32.39
30.468,35.59
30.484,37.93
30.500,39.44
30.515,40.2
30.531,40.4
30.546,40.22
30.562,39.82
30.578,39.22
30.593,38.43
30.609,37.46
30.625,36.39
30.640,35.39
30.656,34.56
30.671,33.84
30.687,33.05
30.703,31.91
30.718,30.21
30.734,27.91
30.750,25.13
30.765,22.06
30.781,18.83
30.796,15.39
30.812,11.58
30.828,7.23
30.843,2.29
30.859,-3.06
30.875,-8.5
30.890,-13.66
30.906,-18.31
30.921,-22.39
30.937,-26.08
30.953,-29.65
30.968,-33.48
30.984,-37.87
31.000,-42.97
31.015,-48.67
31.031,-54.51
31.046,-59.65
31.062,-63.04
31.078,-63.58
31.093,-60.45
31.109,-53.46
31.125,-43.06
31.140,-30.29
31.156,-16.42
31.171,-2.64
31.187,10.15
31.203,21.46
31.218,31.0
31.234,38.62
31.250,44.16
31.265,47.5
31.281,48.7
31.296,48.07
31.312,46.2
31.328,43.81
31.343,41.6
31.359,40.06
31.375,39.35
31.390,39.35
31.406,39.8
31.421,40.42
31.437,40.96
31.453,41.23
31.468,41.0
31.484,40.03
31.500,38.07
31.515,34.97
31.531,30.79
31.546,25.82
31.562,20.49
31.578,15.24
31.593,10.4
31.609,6.02
31.625,2.0
31.640,-1.92
31.656,-5.94
31.671,-10.19
31.687,-14.66
31.703,-19.28
31.718,-23.99
31.734,-28.76
31.750,-33.68
31.765,-38.85
31.781,-44.43
31.796,-50.53
31.812,-57.18
31.828,-64.24
31.843,-71.25
31.859,-77.34
31.875,-81.3
31.890,-81.92
31.906,-78.32
31.921,-70.34
31.937,-58.66
31.953,-44.63
31.968,-29.84
31.984,-15.67
32.000,-2.95
32.015,8.07
32.031,17.51
32.046,25.65
32.062,32.64
32.078,38.52
32.093,43.25
32.109,46.78
32.125,49.08
32.140,50.19
32.156,50.17
32.171,49.13
32.187,47.33
32.203,45.15
32.218,43.04
32.234,41.38
32.250,40.33
32.265,39.8
32.281,39.51
32.296,39.06
32.312,38.14
32.328,36.58
32.343,34.32
32.359,31.41
32.375,27.93
32.390,23.97
32.406,19.57
32.421,14.79
32.437,9.63
32.453,4.14
32.468,-1.63
32.484,-7.57
32.500,-13.46
32.515,-19.04
32.531,-24.04
32.546,-28.33
32.562,-32.01
32.578,-35.48
32.593,-39.34
32.609,-44.24
32.625,-50.61
32.640,-58.39
32.656,-66.87
32.671,-74.72
32.687,-80.2
32.703,-81.75
32.718,-78.32
32.734,-69.8
32.750,-57.05
32.765,-41.59
32.781,-25.19
32.796,-9.42
32.812,4.63
32.828,16.42
32.843,25.79
32.859,32.85
32.875,37.74
32.890,40.67
32.906,41.89
32.921,41.81
32.937,40.92
32.953,39.75
32.968,38.7
32.984,37.96
33.000,37.47
33.015,37.05
33.031,36.51
33.046,35.78
33.062,34.92
33.078,34.0
33.093,32.98
33.109,31.61
33.125,29.52
33.140,26.37
33.156,22.1
33.171,17.01
33.187,11.73
33.203,6.96
33.218,3.22
33.234,0.65
33.250,-0.98
33.265,-2.17
33.281,-3.47
33.296,-5.23
33.312,-7.61
33.328,-10.55
33.343,-13.84
33.359,-17.3
33.375,-20.7
33.390,-23.91
33.406,-26.89
33.421,-29.69
33.437,-32.49
33.453,-35.42
33.468,-38.36
33.484,-40.73
33.500,-41.46
33.515,-39.26
33.531,-33.05
33.546,-22.49
33.562,-8.1
33.578,8.79
33.593,26.57
33.609,43.83
33.625,59.75
33.640,74.06
33.656,86.79
33.671,97.9
33.687,107.18
33.703,114.25
33.718,118.74
33.734,120.52
33.750,119.7
33.765,116.52
33.781,111.24
33.796,104.02
33.812,95.02
33.828,84.53
33.843,73.08
33.859,61.48
33.875,50.59
33.890,41.16
33.906,33.58
33.921,27.79
33.937,23.41
33.953,19.82
33.968,16.38
33.984,12.55
34.000,7.98
34.015,2.63
34.031,-3.27
34.046,-9.24
34.062,-14.79
34.078,-19.53
34.093,-23.26
34.109,-26.1
34.125,-28.34
34.140,-30.34
34.156,-32.42
34.171,-34.84
34.187,-37.78
34.203,-41.38
34.218,-45.78
34.234,-51.12
34.250,-57.48
34.265,-64.86
34.281,-72.99
34.296,-81.23
34.312,-88.52
34.328,-93.46
34.343,-94.63
34.359,-91.11
34.375,-82.76
34.390,-70.52
34.406,-56.14
34.421,-41.78
34.437,-29.48
34.453,-20.56
34.468,-15.37
34.484,-13.32
34.500,-13.2
34.515,-13.74
34.531,-14.03
34.546,-13.83
34.562,-13.43
34.578,-13.35
34.593,-13.9
34.609,-14.94
34.625,-15.89
34.640,-16.05
34.656,-14.9
34.671,-12.4
34.687,-8.9
34.703,-5.01
34.718,-1.35
34.734,1.61
34.750,3.58
34.765,4.44
34.781,4.22
34.796,3.18
34.812,1.74
34.828,0.45
34.843,-0.34
34.859,-0.77
34.875,-1.49
34.890,-3.52
34.906,-7.65
34.921,-13.88
34.937,-20.96
34.953,-26.63
34.968,-28.35
34.984,-24.48
35.000,-15.19
35.015,-2.76
35.031,9.04
35.046,16.15
35.062,15.61
35.078,6.53
35.093,-9.72
35.109,-30.07
35.125,-50.86
35.140,-68.85
35.156,-81.93
35.171,-89.22
35.187,-90.76
35.203,-86.99
35.218,-78.58
35.234,-66.38
35.250,-51.51
35.265,-35.27
35.281,-18.89
35.296,-3.11
35.312,12.03
35.328,26.91
35.343,41.83
35.359,56.46
35.375,69.81
35.390,80.69
35.406,88.49
35.421,93.66
35.437,97.64
35.453,102.16
35.468,108.45
35.484,116.78
35.500,126.42
35.515,136.04
35.531,144.09
35.546,149.06
35.562,149.58
35.578,144.62
35.593,133.91
35.609,118.26
35.625,99.63
35.640,80.63
35.656,63.65
35.671,50.0
35.687,39.41
35.703,30.31
35.718,20.68
35.734,9.19
35.750,-4.03
35.765,-17.28
35.781,-28.01
35.796,-34.0
35.812,-34.41
35.828,-30.19
35.843,-23.74
35.859,-18.0
35.875,-15.33
35.890,-17.0
35.906,-23.07
35.921,-32.84
35.937,-45.25
35.953,-59.14
35.968,-73.28
35.984,-86.3
36.000,-96.88
36.015,-103.99
36.031,-107.28
36.046,-107.29
36.062,-105.25
36.078,-102.65
36.093,-100.68
36.109,-99.9
36.125,-99.99
36.140,-100.06
36.156,-99.05
36.171,-96.21
36.187,-91.51
36.203,-85.69
36.218,-79.92
36.234,-75.29
36.250,-72.32
36.265,-70.69
36.281,-69.52
36.296,-67.88
36.312,-65.34
36.328,-62.17
36.343,-59.21
36.359,-57.47
36.375,-57.7
36.390,-60.22
36.406,-64.95
36.421,-71.61
36.437,-79.96
36.453,-89.89
36.468,-101.54
36.484,-115.13
36.500,-130.8
36.515,-148.23
36.531,-166.39
36.546,-183.36
36.562,-196.66
36.578,-203.88
36.593,-203.4
36.609,-194.89
36.625,-179.33
36.640,-158.48
36.656,-134.27
36.671,-108.31
36.687,-81.9
36.703,-56.18
36.718,-32.47
36.734,-11.99
36.750,4.4
36.765,16.76
36.781,26.2
36.796,34.39
36.812,42.82
36.828,52.05
36.843,61.56
36.859,69.99
36.875,75.99
36.890,78.83
36.906,78.71
36.921,76.5
36.937,73.24
36.953,69.74
36.968,66.31
36.984,62.88
37.000,59.04
37.015,54.23
37.031,47.87
37.046,39.56
37.062,29.32
37.078,17.77
37.093,6.06
37.109,-4.47
37.125,-12.8
37.140,-18.77
37.156,-23.08
37.171,-27.06
37.187,-32.08
37.203,-38.95
37.218,-47.64
37.234,-57.17
37.250,-66.02
37.265,-72.52
37.281,-75.28
37.296,-73.48
37.312,-67.12
37.328,-56.97
37.343,-44.34
37.359,-30.7
37.375,-17.23
37.390,-4.54
37.406,7.47
37.421,19.34
37.437,31.76
37.453,45.16
37.468,59.55
37.484,74.58
37.500,89.64
37.515,104.06
37.531,117.17
37.546,128.36
37.562,137.08
37.578,142.95
37.593,145.86
37.609,146.03
37.625,143.96
37.640,140.23
37.656,135.22
37.671,129.03
37.687,121.46
37.703,112.26
37.718,101.36
37.734,89.01
37.750,75.74
37.765,62.27
37.781,49.26
37.796,37.15
37.812,26.14
37.828,16.17
37.843,7.03
37.859,-1.59
37.875,-10.02
37.890,-18.46
37.906,-26.77
37.921,-34.34
37.937,-40.09
37.953,-42.67
37.968,-40.87
37.984,-34.07
38.000,-22.54
38.015,-7.4
38.031,9.69
38.046,26.98
38.062,43.03
38.078,56.95
38.093,68.33
38.109,77.06
38.125,83.14
38.140,86.53
38.156,87.17
38.171,85.06
38.187,80.42
38.203,73.71
38.218,65.64
38.234,57.07
38.250,48.79
38.265,41.46
38.281,35.55
38.296,31.36
38.312,29.03
38.328,28.6
38.343,29.86
38.359,32.27
38.375,34.95
38.390,36.82
38.406,36.94
38.421,34.78
38.437,30.42
38.453,24.47
38.468,17.87
38.484,11.45
38.500,5.73
38.515,0.76
38.531,-3.76
38.546,-8.34
38.562,-13.52
38.578,-19.72
38.593,-27.17
38.609,-35.74
38.625,-44.7
38.640,-52.69
38.656,-57.88
38.671,-58.43
38.687,-53.15
38.703,-42.0
38.718,-26.18
38.734,-7.79
38.750,10.9
38.765,28.16
38.781,43.14
38.796,55.87
38.812,66.75
38.828,76.18
38.843,84.15
38.859,90.27
38.875,94.04
38.890,95.2
38.906,93.93
38.921,90.91
38.937,87.05
38.953,83.15
38.968,79.72
38.984,76.83
39.000,74.36
39.015,72.16
39.031,70.2
39.046,68.53
39.062,67.0
39.078,65.13
39.093,62.03
39.109,56.81
39.125,48.95
39.140,38.68
39.156,27.05
39.171,15.47
39.187,5.18
39.203,-3.27
39.218,-10.14
39.234,-16.3
39.250,-22.78
39.265,-30.43
39.281,-39.79
39.296,-51.05
39.312,-64.06
39.328,-78.26
39.343,-92.43
39.359,-104.77
39.375,-113.16
39.390,-115.81
39.406,-111.89
39.421,-101.93
39.437,-87.64
39.453,-71.24
39.468,-54.69
39.484,-39.02
39.500,-24.33
39.515,-10.13
39.531,4.01
39.546,18.01
39.562,31.14
39.578,42.31
39.593,50.58
39.609,55.59
39.625,57.65
39.640,57.63
39.656,56.49
39.671,54.94
39.687,53.23
39.703,51.26
39.718,48.74
39.734,45.6
39.750,42.07
39.765,38.68
39.781,35.87
39.796,33.74
39.812,31.84
39.828,29.34
39.843,25.36
39.859,19.43
39.875,11.82
39.890,3.33
39.906,-4.98
39.921,-12.35
39.937,-18.61
39.953,-24.24
39.968,-30.08
39.984,-37.02
40.000,-45.65
40.015,-56.1
40.031,-67.96
40.046,-80.28
40.062,-91.61
40.078,-100.19
40.093,-104.3
40.109,-102.77
40.125,-95.34
40.140,-82.85
40.156,-67.01
40.171,-49.86
40.187,-33.2
40.203,-18.1
40.218,-4.84
40.234,6.89
40.250,17.58
40.265,27.52
40.281,36.61
40.296,44.48
40.312,50.68
40.328,55.01
40.343,57.57
40.359,58.74
40.375,58.97
40.390,58.57
40.406,57.71
40.421,56.47
40.437,55.0
40.453,53.56
40.468,52.39
40.484,51.56
40.500,50.87
40.515,49.89
40.531,48.17
40.546,45.39
40.562,41.53
40.578,36.75
40.593,31.29
40.609,25.32
40.625,18.97
40.640,12.31
40.656,5.36
40.671,-1.91
40.687,-9.6
40.703,-17.82
40.718,-26.64
40.734,-36.07
40.750,-46.03
40.765,-56.4
40.781,-67.03
40.796,-77.62
40.812,-87.63
40.828,-96.08
40.843,-101.66
40.859,-103.11
40.875,-99.58
40.890,-91.07
40.906,-78.47
40.921,-63.29
40.937,-47.24
40.953,-31.79
40.968,-17.89
40.984,-5.95
41.000,4.04
41.015,12.35
41.031,19.38
41.046,25.7
41.062,31.94
41.078,38.77
41.093,46.51
41.109,54.94
41.125,63.17
41.140,69.84
41.156,73.66
41.171,73.9
41.187,70.8
41.203,65.48
41.218,59.44
41.234,53.9
41.250,49.32
41.265,45.39
41.281,41.39
41.296,36.81
41.312,31.71
41.328,26.66
41.343,22.34
41.359,19.04
41.375,16.34
41.390,13.42
41.406,9.38
41.421,3.89
41.437,-2.63
41.453,-9.24
41.468,-15.0
41.484,-19.48
41.500,-23.02
41.515,-26.53
41.531,-31.03
41.546,-37.24
41.562,-45.34
41.578,-54.92
41.593,-65.16
41.609,-74.93
41.625,-82.96
41.640,-87.92
41.656,-88.73
41.671,-84.81
41.687,-76.4
41.703,-64.62
41.718,-51.17
41.734,-37.84
41.750,-25.99
41.765,-16.25
41.781,-8.48
41.796,-2.12
41.812,3.41
41.828,8.42
41.843,12.81
41.859,16.29
41.875,18.54
41.890,19.55
41.906,19.65
41.921,19.39
41.937,19.35
41.953,19.91
41.968,21.06
41.984,22.55
42.000,24.07
42.015,25.35
42.031,26.34
42.046,27.05
42.062,27.37
42.078,26.98
42.093,25.43
42.109,22.33
42.125,17.68
42.140,11.88
42.156,5.71
42.171,-0.1
42.187,-5.16
42.203,-9.53
42.218,-13.68
42.234,-18.11
42.250,-23.16
42.265,-28.85
42.281,-34.93
42.296,-41.04
42.312,-46.8
42.328,-51.83
42.343,-55.8
42.359,-58.46
42.375,-59.8
42.390,-60.11
42.406,-59.96
42.421,-59.89
42.437,-60.07
42.453,-60.1
42.468,-59.05
42.484,-55.84
42.500,-49.75
42.515,-40.75
42.531,-29.6
42.546,-17.47
42.562,-5.52
42.578,5.48
42.593,15.22
42.609,23.72
42.625,30.98
42.640,36.85
42.656,41.09
42.671,43.53
42.687,44.33
42.703,44.05
42.718,43.47
42.734,43.35
42.750,44.18
42.765,45.99
42.781,48.43
42.796,50.96
42.812,53.06
42.828,54.39
42.843,54.83
42.859,54.43
42.875,53.3
42.890,51.55
42.906,49.29
42.921,46.69
42.937,44.02
42.953,41.71
42.968,40.17
42.984,39.66
43.000,40.13
43.015,41.16
43.031,42.25
43.046,42.98
43.062,43.27
43.078,43.46
43.093,44.11
43.109,45.72
43.125,48.51
43.140,52.26
43.156,56.46
43.171,60.47
43.187,63.78
43.203,66.2
43.218,67.89
43.234,69.28
43.250,70.86
43.265,73.06
43.281,76.07
43.296,79.78
43.312,83.78
43.328,87.46
43.343,90.11
43.359,91.11
43.375,90.07
43.390,87.01
43.406,82.36
43.421,76.9
43.437,71.51
43.453,66.82
43.468,63.01
43.484,59.65
43.500,55.78
43.515,50.26
43.531,42.17
43.546,31.17
43.562,17.6
43.578,2.44
43.593,-12.94
43.609,-27.18
43.625,-39.25
43.640,-48.69
43.656,-55.56
43.671,-60.46
43.687,-64.22
43.703,-67.7
43.718,-71.61
43.734,-76.32
43.750,-81.85
43.765,-87.89
43.781,-93.92
43.796,-99.36
43.812,-103.69
43.828,-106.57
43.843,-107.9
43.859,-107.81
43.875,-106.56
43.890,-104.61
43.906,-102.49
43.921,-100.83
43.937,-100.27
43.953,-101.39
43.968,-104.5
43.984,-109.41
44.000,-115.37
44.015,-121.06
44.031,-124.86
44.046,-125.29
44.062,-121.48
44.078,-113.35
44.093,-101.69
44.109,-87.82
44.125,-73.22
44.140,-59.25
44.156,-46.87
44.171,-36.66
44.187,-28.86
44.203,-23.36
44.218,-19.77
44.234,-17.5
44.250,-15.81
44.265,-14.01
44.281,-11.59
44.296,-8.26
44.312,-3.91
44.328,1.42
44.343,7.59
44.359,14.33
44.375,21.23
44.390,27.62
44.406,32.7
44.421,35.66
44.437,35.87
44.453,33.15
44.468,27.82
44.484,20.59
44.500,12.37
44.515,3.97
44.531,-4.07
44.546,-11.55
44.562,-18.65
44.578,-25.68
44.593,-32.95
44.609,-40.57
44.625,-48.31
44.640,-55.72
44.656,-62.17
44.671,-67.11
44.687,-70.33
44.703,-72.04
44.718,-72.91
44.734,-73.89
44.750,-75.93
44.765,-79.66
44.781,-85.08
44.796,-91.45
44.812,-97.43
44.828,-101.31
44.843,-101.5
44.859,-96.93
44.875,-87.26
44.890,-73.04
44.906,-55.47
44.921,-36.12
44.937,-16.59
44.953,1.8
44.968,18.11
44.984,31.86
45.000,42.87
45.015,51.2
45.031,57.03
45.046,60.64
45.062,62.41
45.078,62.73
45.093,62.05
45.109,60.79
45.125,59.28
45.140,57.71
45.156,56.18
45.171,54.71
45.187,53.21
45.203,51.56
45.218,49.5
45.234,46.66
45.250,42.69
45.265,37.41
45.281,30.88
45.296,23.56
45.312,16.13
45.328,9.26
45.343,3.44
45.359,-1.12
45.375,-4.53
45.390,-7.06
45.406,-9.1
45.421,-11.07
45.437,-13.4
45.453,-16.47
45.468,-20.5
45.484,-25.46
45.500,-31.12
45.515,-37.15
45.531,-43.38
45.546,-49.95
45.562,-57.19
45.578,-65.28
45.593,-73.77
45.609,-81.51
45.625,-86.77
45.640,-87.9
45.656,-84.03
45.671,-75.45
45.687,-63.48
45.703,-49.88
45.718,-36.16
45.734,-23.07
45.750,-10.69
45.765,1.24
45.781,12.74
45.796,23.3
45.812,32.08
45.828,38.3
45.843,41.72
45.859,42.85
45.875,42.72
45.890,42.45
45.906,42.83
45.921,44.1
45.937,46.11
45.953,48.54
45.968,51.12
45.984,53.72
46.000,56.19
46.015,58.25
46.031,59.49
46.046,59.51
46.062,58.09
46.078,55.4
46.093,51.84
46.109,47.95
46.125,44.14
46.140,40.52
46.156,36.97
46.171,33.21
46.187,29.02
46.203,24.31
46.218,19.19
46.234,13.84
46.250,8.38
46.265,2.84
46.281,-2.86
46.296,-8.86
46.312,-15.29
46.328,-22.21
46.343,-29.6
46.359,-37.25
46.375,-44.64
46.390,-50.93
46.406,-54.97
46.421,-55.63
46.437,-52.06
46.453,-44.12
46.468,-32.49
46.484,-18.53
46.500,-3.87
46.515,9.98
46.531,22.09
46.546,32.16
46.562,40.37
46.578,47.12
46.593,52.79
46.609,57.58
46.625,61.51
46.640,64.53
46.656,66.58
46.671,67.63
46.687,67.62
46.703,66.46
46.718,63.98
46.734,60.02
46.750,54.59
46.765,47.95
46.781,40.64
46.796,33.24
46.812,26.34
46.828,20.28
46.843,15.22
46.859,11.14
46.875,7.89
46.890,5.23
46.906,2.79
46.921,0.22
46.937,-2.7
46.953,-5.89
46.968,-9.0
46.984,-11.58
47.000,-13.41
47.015,-14.76
47.031,-16.37
47.046,-19.15
47.062,-23.86
47.078,-30.73
47.093,-39.43
47.109,-49.15
47.125,-58.8
47.140,-67.15
47.156,-72.94
47.171,-75.05
47.187,-72.76
47.203,-66.05
47.218,-55.85
47.234,-43.81
47.250,-31.89
47.265,-21.65
47.281,-13.79
47.296,-7.91
47.312,-2.93
47.328,2.35
47.343,8.59
47.359,15.54
47.375,22.16
47.390,27.01
47.406,28.87
47.421,27.31
47.437,22.89
47.453,17.14
47.468,12.02
47.484,9.36
47.500,10.23
47.515,14.7
47.531,21.9
47.546,30.41
47.562,38.74
47.578,45.7
47.593,50.56
47.609,53.02
47.625,53.07
47.640,50.89
47.656,46.8
47.671,41.29
47.687,35.0
47.703,28.61
47.718,22.73
47.734,17.73
47.750,13.66
47.765,10.23
47.781,6.93
47.796,3.24
47.812,-1.31
47.828,-6.98
47.843,-13.83
47.859,-21.69
47.875,-30.11
47.890,-38.34
47.906,-45.34
47.921,-49.9
47.937,-50.99
47.953,-47.97
47.968,-40.84
47.984,-30.29
48.000,-17.51
48.015,-3.91
48.031,9.19
48.046,20.75
48.062,30.13
48.078,37.06
48.093,41.66
48.109,44.26
48.125,45.36
48.140,45.45
48.156,44.93
48.171,43.99
48.187,42.76
48.203,41.35
48.218,39.88
48.234,38.51
48.250,37.31
48.265,36.2
48.281,34.96
48.296,33.29
48.312,31.01
48.328,28.11
48.343,24.73
48.359,21.07
48.375,17.22
48.390,13.13
48.406,8.69
48.421,3.79
48.437,-1.53
48.453,-7.09
48.468,-12.69
48.484,-18.21
48.500,-23.65
48.515,-29.07
48.531,-34.48
48.546,-39.85
48.562,-45.12
48.578,-50.32
48.593,-55.55
48.609,-60.95
48.625,-66.53
48.640,-71.95
48.656,-76.43
48.671,-78.86
48.687,-78.08
48.703,-73.22
48.718,-64.05
48.734,-51.07
48.750,-35.45
48.765,-18.67
48.781,-2.19
48.796,12.89
48.812,26.03
48.828,37.12
48.843,46.39
48.859,54.09
48.875,60.34
48.890,65.11
48.906,68.37
48.921,70.13
48.937,70.59
48.953,70.07
48.968,68.87
48.984,67.14
49.000,64.84
49.015,61.89
49.031,58.27
49.046,54.27
49.062,50.32
49.078,46.94
49.093,44.41
49.109,42.65
49.125,41.3
49.140,39.9
49.156,38.09
49.171,35.75
49.187,32.95
49.203,29.8
49.218,26.36
49.234,22.69
49.250,18.84
49.265,15.02
49.281,11.5
49.296,8.56
49.312,6.3
49.328,4.56
49.343,2.93
49.359,0.83
49.375,-2.28
49.390,-6.77
49.406,-12.63
49.421,-19.37
49.437,-26.11
49.453,-31.63
49.468,-34.75
49.484,-34.63
49.500,-31.04
49.515,-24.45
49.531,-15.91
49.546,-6.75
49.562,1.76
49.578,8.67
49.593,13.49
49.609,16.11
49.625,16.66
49.640,15.31
49.656,12.2
49.671,7.52
49.687,1.6
49.703,-5.02
49.718,-11.57
49.734,-17.28
49.750,-21.58
49.765,-24.28
49.781,-25.52
49.796,-25.63
49.812,-24.91
49.828,-23.57
49.843,-21.79
49.859,-19.75
49.875,-17.8
49.890,-16.25
49.906,-15.26
49.921,-14.64
49.937,-13.88
49.953,-12.35
49.968,-9.56
49.984,-5.38
50.000,-0.06
50.015,5.93
50.031,12.15
50.046,18.29
50.062,24.22
50.078,29.92
50.093,35.33
50.109,40.29
50.125,44.64
50.140,48.27
50.156,51.11
50.171,53.17
50.187,54.44
50.203,54.87
50.218,54.39
50.234,53.03
50.250,51.0
50.265,48.67
50.281,46.47
50.296,44.72
50.312,43.52
50.328,42.72
50.343,42.02
50.359,41.08
50.375,39.71
50.390,37.77
50.406,35.22
50.421,31.98
50.437,27.89
50.453,22.75
50.468,16.44
50.484,8.99
50.500,0.74
50.515,-7.76
50.531,-15.84
50.546,-22.94
50.562,-28.71
50.578,-33.12
50.593,-36.37
50.609,-38.76
50.625,-40.58
50.640,-42.06
50.656,-43.43
50.671,-44.97
50.687,-47.06
50.703,-50.04
50.718,-54.03
50.734,-58.79
50.750,-63.78
50.765,-68.33
50.781,-71.89
50.796,-74.21
50.812,-75.37
50.828,-75.76
50.843,-75.82
50.859,-75.99
50.875,-76.63
50.890,-77.88
50.906,-79.61
50.921,-81.21
50.937,-81.61
50.953,-79.37
50.968,-73.11
50.984,-62.1
51.000,-46.61
51.015,-27.89
51.031,-7.88
51.046,11.42
51.062,28.43
51.078,42.32
51.093,52.92
51.109,60.48
51.125,65.44
51.140,68.19
51.156,69.2
51.171,69.01
51.187,68.33
51.203,67.92
51.218,68.34
51.234,69.68
51.250,71.42
51.265,72.57
51.281,72.09
51.296,69.27
51.312,64.03
51.328,56.78
51.343,48.05
51.359,38.16
51.375,27.1
51.390,14.78
51.406,1.42
51.421,-12.08
51.437,-24.36
51.453,-34.05
51.468,-40.44
51.484,-43.79
51.500,-45.23
51.515,-46.19
51.531,-47.89
51.546,-50.89
51.562,-55.22
51.578,-60.56
51.593,-66.65
51.609,-73.33
51.625,-80.38
51.640,-87.23
51.656,-92.87
51.671,-95.94
51.687,-95.32
51.703,-90.56
51.718,-82.23
51.734,-71.72
51.750,-60.79
51.765,-50.86
51.781,-42.59
51.796,-35.83
51.812,-29.98
51.828,-24.51
51.843,-19.27
51.859,-14.5
51.875,-10.58
51.890,-7.77
51.906,-5.99
51.921,-4.93
51.937,-4.32
51.953,-4.01
51.968,-4.09
51.984,-4.7
52.000,-5.89
52.015,-7.5
52.031,-9.2
52.046,-10.63
52.062,-11.52
52.078,-11.79
52.093,-11.6
52.109,-11.24
52.125,-11.09
52.140,-11.47
52.156,-12.58
52.171,-14.45
52.187,-16.97
52.203,-19.88
52.218,-22.97
52.234,-26.14
52.250,-29.5
52.265,-33.36
52.281,-38.08
52.296,-43.85
52.312,-50.49
52.328,-57.3
52.343,-63.05
52.359,-66.33
52.375,-65.94
52.390,-61.28
52.406,-52.66
52.421,-41.12
52.437,-28.16
52.453,-15.31
52.468,-3.74
52.484,5.85
52.500,13.21
52.515,18.3
52.531,21.24
52.546,22.19
52.562,21.47
52.578,19.64
52.593,17.44
52.609,15.67
52.625,14.84
52.640,15.11
52.656,16.2
52.671,17.65
52.687,19.0
52.703,20.04
52.718,20.78
52.734,21.34
52.750,21.83
52.765,22.25
52.781,22.5
52.796,22.48
52.812,22.15
52.828,21.52
52.843,20.58
52.859,19.25
52.875,17.41
52.890,14.95
52.906,11.86
52.921,8.26
52.937,4.3
52.953,0.08
52.968,-4.42
52.984,-9.39
53.000,-15.11
53.015,-21.82
53.031,-29.52
53.046,-37.77
53.062,-45.64
53.078,-51.8
53.093,-54.87
53.109,-53.86
53.125,-48.48
53.140,-39.24
53.156,-27.26
53.171,-13.95
53.187,-0.58
53.203,11.88
53.218,22.88
53.234,32.17
53.250,39.71
53.265,45.55
53.281,49.85
53.296,52.81
53.312,54.68
53.328,55.67
53.343,56.01
53.359,56.02
53.375,56.08
53.390,56.55
53.406,57.62
53.421,59.07
53.437,60.37
53.453,60.84
53.468,59.93
53.484,57.56
53.500,54.19
53.515,50.52
53.531,47.28
53.546,44.82
53.562,42.99
53.578,41.34
53.593,39.34
53.609,36.62
53.625,33.13
53.640,29.07
53.656,24.69
53.671,20.2
53.687,15.68
53.703,11.11
53.718,6.46
53.734,1.74
53.750,-3.0
53.765,-7.71
53.781,-12.37
53.796,-16.95
53.812,-21.3
53.828,-25.02
53.843,-27.47
53.859,-27.91
53.875,-25.79
53.890,-21.04
53.906,-14.18
53.921,-6.25
53.937,1.59
53.953,8.51
53.968,14.28
53.984,19.34
54.000,24.63
54.015,31.11
54.031,39.4
54.046,49.57
54.062,61.12
54.078,73.13
54.093,84.54
54.109,94.38
54.125,101.86
54.140,106.52
54.156,108.2
54.171,107.13
54.187,103.87
54.203,99.35
54.218,94.68
54.234,90.94
54.250,88.93
54.265,88.97
54.281,90.87
54.296,94.01
54.312,97.56
54.328,100.69
54.343,102.73
54.359,103.14
54.375,101.48
54.390,97.17
54.406,89.57
54.421,78.21
54.437,63.07
54.453,44.95
54.468,25.43
54.484,6.45
54.500,-10.33
54.515,-24.07
54.531,-34.93
54.546,-43.83
54.562,-51.75
54.578,-59.3
54.593,-66.53
54.609,-73.01
54.625,-78.24
54.640,-81.83
54.656,-83.55
54.671,-83.2
54.687,-80.61
54.703,-75.7
54.718,-68.84
54.734,-60.88
54.750,-53.11
54.765,-46.91
54.781,-43.23
54.796,-42.35
54.812,-43.73
54.828,-46.34
54.843,-48.95
54.859,-50.48
54.875,-50.19
54.890,-47.77
54.906,-43.27
54.921,-37.12
54.937,-30.01
54.953,-22.79
54.968,-16.26
54.984,-10.91
55.000,-6.78
55.015,-3.36
55.031,0.11
55.046,4.36
55.062,9.77
55.078,16.17
55.093,22.94
55.109,29.34
55.125,34.75
55.140,39.1
55.156,42.76
55.171,46.49
55.187,51.14
55.203,57.38
55.218,65.54
55.234,75.48
55.250,86.64
55.265,98.01
55.281,108.21
55.296,115.78
55.312,119.47
55.328,118.69
55.343,113.67
55.359,105.48
55.375,95.7
55.390,86.03
55.406,77.99
55.421,72.85
55.437,71.56
55.453,74.68
55.468,82.26
55.484,93.66
55.500,107.46
55.515,121.69
55.531,134.28
55.546,143.57
55.562,148.65
55.578,149.39
55.593,146.2
55.609,139.65
55.625,130.16
55.640,117.83
55.656,102.51
55.671,84.07
55.687,62.57
55.703,38.65
55.718,13.43
55.734,-11.62
55.750,-35.13
55.765,-56.28
55.781,-74.99
55.796,-91.91
55.812,-107.92
55.828,-123.61
55.843,-138.72
55.859,-152.15
55.875,-162.27
55.890,-167.64
55.906,-167.73
55.921,-163.18
55.937,-155.61
55.953,-146.95
55.968,-138.78
55.984,-131.77
56.000,-125.75
56.015,-120.16
56.031,-114.57
56.046,-109.03
56.062,-103.98
56.078,-99.94
56.093,-97.2
56.109,-95.74
56.125,-95.37
56.140,-95.91
56.156,-97.24
56.171,-99.02
56.187,-100.54
56.203,-100.65
56.218,-98.11
56.234,-92.07
56.250,-82.53
56.265,-70.32
56.281,-56.79
56.296,-43.24
56.312,-30.39
56.328,-18.36
56.343,-7.01
56.359,3.63
56.375,12.98
56.390,20.0
56.406,23.59
56.421,23.05
56.437,18.48
56.453,10.74
56.468,1.16
56.484,-8.92
56.500,-18.4
56.515,-26.61
56.531,-33.19
56.546,-37.95
56.562,-40.83
56.578,-41.93
56.593,-41.58
56.609,-40.3
56.625,-38.75
56.640,-37.37
56.656,-36.21
56.671,-34.82
56.687,-32.42
56.703,-28.26
56.718,-21.95
56.734,-13.66
56.750,-4.04
56.765,6.07
56.781,15.99
56.796,25.37
56.812,34.18
56.828,42.53
56.843,50.4
56.859,57.65
56.875,64.03
56.890,69.44
56.906,73.97
56.921,77.9
56.937,81.47
56.953,84.8
56.968,87.9
56.984,90.79
57.000,93.64
57.015,96.64
57.031,99.79
57.046,102.47
57.062,103.48
57.078,101.35
57.093,94.97
57.109,84.2
57.125,69.94
57.140,53.92
57.156,37.97
57.171,23.47
57.187,11.1
57.203,0.87
57.218,-7.49
57.234,-14.37
57.250,-20.11
57.265,-25.16
57.281,-30.14
57.296,-35.84
57.312,-43.02
57.328,-52.16
57.343,-63.31
57.359,-76.0
57.375,-89.48
57.390,-102.87
57.406,-115.49
57.421,-126.98
57.437,-137.36
57.453,-146.92
57.468,-155.98
57.484,-164.81
57.500,-173.5
57.515,-182.08
57.531,-190.59
57.546,-199.0
57.562,-207.06
57.578,-214.02
57.593,-218.64
57.609,-219.3
57.625,-214.59
57.640,-203.85
57.656,-187.54
57.671,-167.11
57.687,-144.58
57.703,-121.82
57.718,-99.98
57.734,-79.34
57.750,-59.61
57.765,-40.37
57.781,-21.43
57.796,-2.94
57.812,14.75
57.828,31.39
57.843,46.91
57.859,61.38
57.875,74.84
57.890,87.09
57.906,97.73
57.921,106.31
57.937,112.52
57.953,116.38
57.968,118.24
57.984,118.54
58.000,117.65
58.015,115.68
58.031,112.41
58.046,107.38
58.062,100.09
58.078,90.22
58.093,77.79
58.109,63.24
58.125,47.29
58.140,30.78
58.156,14.39
58.171,-1.46
58.187,-16.67
58.203,-31.41
58.218,-45.98
58.234,-60.61
58.250,-75.27
58.265,-89.57
58.281,-102.74
58.296,-113.79
58.312,-121.78
58.328,-126.14
58.343,-126.79
58.359,-124.11
58.375,-118.79
58.390,-111.56
58.406,-103.22
58.421,-94.49
58.437,-86.1
58.453,-78.64
58.468,-72.33
58.484,-66.9
58.500,-61.59
58.515,-55.43
58.531,-47.65
58.546,-38.09
58.562,-27.33
58.578,-16.62
58.593,-7.38
58.609,-0.83
58.625,2.44
58.640,2.61
58.656,0.44
58.671,-2.95
58.687,-6.41
58.703,-8.98
58.718,-10.02
58.734,-9.33
58.750,-7.22
58.765,-4.55
58.781,-2.59
58.796,-2.68
58.812,-5.71
58.828,-11.72
58.843,-19.79
58.859,-28.46
58.875,-36.41
58.890,-43.02
58.906,-48.5
58.921,-53.57
58.937,-58.75
58.953,-63.87
58.968,-67.93
58.984,-69.55
59.000,-67.53
59.015,-61.36
59.031,-51.41
59.046,-38.73
59.062,-24.62
59.078,-10.27
59.093,3.46
59.109,16.07
59.125,27.3
59.140,37.07
59.156,45.33
59.171,52.14
59.187,57.62
59.203,61.94
59.218,65.27
59.234,67.67
59.250,69.12
59.265,69.49
59.281,68.72
59.296,66.9
59.312,64.23
59.328,61.05
59.343,57.67
59.359,54.29
59.375,50.93
59.390,47.44
59.406,43.56
59.421,38.99
59.437,33.53
59.453,27.08
59.468,19.78
59.484,12.04
59.500,4.36
59.515,-2.79
59.531,-9.19
59.546,-15.06
59.562,-21.0
59.578,-27.75
59.593,-35.84
59.609,-45.25
59.625,-55.17
59.640,-64.12
59.656,-70.24
59.671,-71.82
59.687,-67.85
59.703,-58.3
59.718,-44.09
59.734,-26.81
59.750,-8.2
59.765,10.22
59.781,27.41
59.796,42.86
59.812,56.36
59.828,67.8
59.843,77.07
59.859,84.06
59.875,88.82
59.890,91.61
59.906,92.92
59.921,93.35
59.937,93.48
59.953,93.7
59.968,94.19
59.984,94.88
