timestamp,value
00.000,169.6
00.015,152.84
00.031,136.57
00.046,122.66
00.062,112.24
00.078,104.66
00.093,97.65
00.109,88.37
00.125,74.84
00.140,57.06
00.156,37.1
00.171,18.19
00.187,3.32
00.203,-5.99
00.218,-10.1
00.234,-10.73
00.250,-9.89
00.265,-8.88
00.281,-7.85
00.296,-6.01
00.312,-2.36
00.328,3.69
00.343,11.88
00.359,21.13
00.375,29.93
00.390,36.92
00.406,41.21
00.421,42.69
00.437,41.88
00.453,39.64
00.468,36.95
00.484,34.56
00.500,33.05
00.515,32.8
00.531,34.02
00.546,36.7
00.562,40.56
00.578,45.06
00.593,49.47
00.609,53.08
00.625,55.35
00.640,55.91
00.656,54.55
00.671,51.18
00.687,45.73
00.703,38.41
00.718,29.91
00.734,21.37
00.750,14.26
00.765,9.87
00.781,8.73
00.796,10.26
00.812,12.93
00.828,14.75
00.843,14.05
00.859,10.16
00.875,3.45
00.890,-4.83
00.906,-13.29
00.921,-20.88
00.937,-27.2
00.953,-32.3
00.968,-36.4
00.984,-39.5
01.000,-41.39
01.015,-41.82
01.031,-40.76
01.046,-38.6
01.062,-36.0
01.078,-33.72
01.093,-32.26
01.109,-31.82
01.125,-32.18
01.140,-32.95
01.156,-33.74
01.171,-34.1
01.187,-33.65
01.203,-32.14
01.218,-29.62
01.234,-26.51
01.250,-23.54
01.265,-21.44
01.281,-20.58
01.296,-20.79
01.312,-21.37
01.328,-21.4
01.343,-20.11
01.359,-17.1
01.375,-12.28
01.390,-5.7
01.406,2.69
01.421,12.93
01.437,24.8
01.453,37.53
01.468,49.6
01.484,59.13
01.500,64.34
01.515,64.21
01.531,58.91
01.546,49.71
01.562,38.77
01.578,28.44
01.593,20.7
01.609,16.59
01.625,16.17
01.640,18.7
01.656,22.97
01.671,27.87
01.687,32.65
01.703,37.06
01.718,41.21
01.734,45.22
01.750,49.02
01.765,52.09
01.781,53.77
01.796,53.45
01.812,50.99
01.828,46.8
01.843,41.74
01.859,36.79
01.875,32.53
01.890,28.95
01.906,25.41
01.921,21.06
01.937,15.22
01.953,7.78
01.968,-0.77
01.984,-9.55
02.000,-17.69
02.015,-24.61
02.031,-30.11
02.046,-34.37
02.062,-37.62
02.078,-40.02
02.093,-41.55
02.109,-42.13
02.125,-41.72
02.140,-40.4
02.156,-38.48
02.171,-36.36
02.187,-34.43
02.203,-32.93
02.218,-31.85
02.234,-30.9
02.250,-29.68
02.265,-27.75
02.281,-24.88
02.296,-21.16
02.312,-16.95
02.328,-12.86
02.343,-9.51
02.359,-7.4
02.375,-6.72
02.390,-7.32
02.406,-8.64
02.421,-9.96
02.437,-10.45
02.453,-9.41
02.468,-6.43
02.484,-1.44
02.500,5.34
02.515,13.49
02.531,22.38
02.546,31.18
02.562,38.82
02.578,44.05
02.593,45.68
02.609,42.98
02.625,36.08
02.640,26.14
02.656,15.12
02.671,5.19
02.687,-1.81
02.703,-4.93
02.718,-4.14
02.734,-0.07
02.750,6.31
02.765,13.95
02.781,21.9
02.796,29.33
02.812,35.49
02.828,39.9
02.843,42.43
02.859,43.29
02.875,42.9
02.890,41.58
02.906,39.4
02.921,36.17
02.937,31.81
02.953,26.51
02.968,21.04
02.984,16.33
03.000,13.12
03.015,11.42
03.031,10.37
03.046,8.51
03.062,4.41
03.078,-2.63
03.093,-12.35
03.109,-23.52
03.125,-34.54
03.140,-43.94
03.156,-50.78
03.171,-54.83
03.187,-56.28
03.203,-55.59
03.218,-53.26
03.234,-49.91
03.250,-46.22
03.265,-43.1
03.281,-41.39
03.296,-41.48
03.312,-43.14
03.328,-45.39
03.343,-46.94
03.359,-46.6
03.375,-43.76
03.390,-38.55
03.406,-31.61
03.421,-23.83
03.437,-15.96
03.453,-8.68
03.468,-2.55
03.484,1.86
03.500,4.08
03.515,3.99
03.531,2.06
03.546,-0.64
03.562,-2.76
03.578,-2.92
03.593,-0.26
03.609,5.53
03.625,14.25
03.640,25.27
03.656,37.78
03.671,50.72
03.687,62.79
03.703,72.38
03.718,77.8
03.734,77.48
03.750,70.57
03.765,57.33
03.781,39.26
03.796,19.05
03.812,-0.14
03.828,-15.32
03.843,-24.43
03.859,-26.66
03.875,-22.51
03.890,-13.5
03.906,-1.68
03.921,10.7
03.937,21.7
03.953,29.89
03.968,34.65
03.984,36.11
04.000,35.15
04.015,33.0
04.031,31.0
04.046,30.23
04.062,31.17
04.078,33.65
04.093,36.84
04.109,39.51
04.125,40.32
04.140,38.15
04.156,32.36
04.171,22.95
04.187,10.55
04.203,-3.81
04.218,-18.96
04.234,-33.85
04.250,-47.7
04.265,-59.97
04.281,-70.16
04.296,-77.52
04.312,-80.9
04.328,-78.95
04.343,-70.76
04.359,-56.55
04.375,-38.19
04.390,-18.98
04.406,-2.67
04.421,7.79
04.437,11.3
04.453,8.82
04.468,2.82
04.484,-3.96
04.500,-9.37
04.515,-12.53
04.531,-13.7
04.546,-13.76
04.562,-13.62
04.578,-13.88
04.593,-14.72
04.609,-15.96
04.625,-17.18
04.640,-17.8
04.656,-17.23
04.671,-14.98
04.687,-10.58
04.703,-3.64
04.718,6.16
04.734,18.84
04.750,33.82
04.765,49.69
04.781,64.19
04.796,74.64
04.812,78.65
04.828,75.0
04.843,63.98
04.859,47.3
04.875,27.52
04.890,7.38
04.906,-10.78
04.921,-25.24
04.937,-34.83
04.953,-38.92
04.968,-37.38
04.984,-30.85
05.000,-20.72
05.015,-8.98
05.031,2.38
05.046,11.93
05.062,19.2
05.078,24.56
05.093,28.89
05.109,32.9
05.125,36.86
05.140,40.49
05.156,43.22
05.171,44.48
05.187,43.94
05.203,41.4
05.218,36.77
05.234,29.99
05.250,21.11
05.265,10.42
05.281,-1.38
05.296,-13.27
05.312,-24.2
05.328,-33.34
05.343,-40.41
05.359,-45.69
05.375,-49.84
05.390,-53.58
05.406,-57.36
05.421,-61.21
05.437,-64.73
05.453,-67.44
05.468,-68.92
05.484,-69.14
05.500,-68.35
05.515,-66.95
05.531,-65.34
05.546,-63.66
05.562,-61.9
05.578,-59.97
05.593,-57.76
05.609,-55.23
05.625,-52.4
05.640,-49.34
05.656,-46.25
05.671,-43.48
05.687,-41.48
05.703,-40.69
05.718,-41.34
05.734,-43.25
05.750,-45.76
05.765,-47.94
05.781,-48.79
05.796,-47.56
05.812,-43.84
05.828,-37.6
05.843,-29.05
05.859,-18.53
05.875,-6.51
05.890,6.5
05.906,19.87
05.921,32.83
05.937,44.59
05.953,54.27
05.968,61.11
05.984,64.56
06.000,64.52
06.015,61.45
06.031,56.37
06.046,50.76
06.062,46.18
06.078,43.88
06.093,44.34
06.109,47.16
06.125,51.22
06.140,55.14
06.156,57.83
06.171,58.85
06.187,58.44
06.203,57.14
06.218,55.4
06.234,53.25
06.250,50.41
06.265,46.64
06.281,42.04
06.296,37.15
06.312,32.71
06.328,29.17
06.343,26.43
06.359,23.9
06.375,20.95
06.390,17.27
06.406,13.19
06.421,9.25
06.437,5.85
06.453,2.69
06.468,-1.1
06.484,-6.55
06.500,-14.24
06.515,-23.71
06.531,-33.55
06.546,-41.96
06.562,-47.49
06.578,-49.56
06.593,-48.56
06.609,-45.44
06.625,-41.28
06.640,-36.87
06.656,-32.67
06.671,-28.92
06.687,-25.8
06.703,-23.43
06.718,-21.73
06.734,-20.42
06.750,-19.1
06.765,-17.45
06.781,-15.39
06.796,-13.13
06.812,-11.07
06.828,-9.54
06.843,-8.59
06.859,-8.01
06.875,-7.36
06.890,-6.15
06.906,-3.88
06.921,-0.18
06.937,5.16
06.953,11.96
06.968,19.53
06.984,26.64
07.000,31.83
07.015,33.83
07.031,32.01
07.046,26.72
07.062,19.09
07.078,10.72
07.093,3.23
07.109,-2.2
07.125,-4.93
07.140,-4.8
07.156,-2.02
07.171,2.97
07.187,9.5
07.203,16.69
07.218,23.62
07.234,29.59
07.250,34.26
07.265,37.74
07.281,40.34
07.296,42.31
07.312,43.69
07.328,44.32
07.343,44.14
07.359,43.37
07.375,42.67
07.390,42.79
07.406,44.27
07.421,46.97
07.437,50.02
07.453,51.99
07.468,51.42
07.484,47.28
07.500,39.32
07.515,28.13
07.531,14.8
07.546,0.54
07.562,-13.69
07.578,-27.28
07.593,-39.79
07.609,-50.7
07.625,-59.43
07.640,-65.45
07.656,-68.58
07.671,-69.21
07.687,-68.21
07.703,-66.66
07.718,-65.48
07.734,-65.14
07.750,-65.65
07.765,-66.47
07.781,-66.67
07.796,-65.04
07.812,-60.48
07.828,-52.45
07.843,-41.41
07.859,-28.9
07.875,-17.11
07.890,-7.99
07.906,-2.48
07.921,-0.03
07.937,1.16
07.953,3.22
07.968,7.96
07.984,16.21
08.000,27.91
08.015,42.33
08.031,58.48
08.046,75.15
08.062,90.93
08.078,104.14
08.093,112.98
08.109,116.05
08.125,112.78
08.140,103.61
08.156,89.96
08.171,73.85
08.187,57.32
08.203,42.13
08.218,29.58
08.234,20.59
08.250,15.73
08.265,15.23
08.281,18.9
08.296,26.03
08.312,35.44
08.328,45.75
08.343,55.68
08.359,64.33
08.375,71.18
08.390,75.92
08.406,78.22
08.421,77.7
08.437,74.21
08.453,68.11
08.468,60.54
08.484,53.21
08.500,47.9
08.515,45.72
08.531,46.73
08.546,49.94
08.562,53.97
08.578,57.83
08.593,61.36
08.609,65.21
08.625,70.45
08.640,77.67
08.656,86.76
08.671,96.91
08.687,107.05
08.703,116.5
08.718,125.0
08.734,132.27
08.750,137.45
08.765,138.69
08.781,133.5
08.796,119.57
08.812,95.87
08.828,63.23
08.843,24.17
08.859,-17.96
08.875,-60.03
08.890,-100.16
08.906,-137.74
08.921,-173.21
08.937,-207.49
08.953,-241.33
08.968,-275.29
08.984,-310.0
09.000,-346.61
09.015,-386.53
09.031,-430.47
09.046,-476.92
09.062,-521.15
09.078,-555.41
09.093,-571.16
09.109,-562.21
09.125,-527.4
09.140,-471.37
09.156,-402.92
09.171,-331.72
09.187,-265.27
09.203,-207.14
09.218,-157.46
09.234,-114.49
09.250,-76.34
09.265,-41.8
09.281,-9.96
09.296,20.62
09.312,52.32
09.328,87.93
09.343,129.17
09.359,175.08
09.375,221.36
09.390,261.01
09.406,286.88
09.421,294.57
09.437,284.28
09.453,260.81
09.468,231.44
09.484,202.96
09.500,179.45
09.515,161.84
09.531,149.08
09.546,140.05
09.562,134.86
09.578,134.44
09.593,139.24
09.609,147.7
09.625,156.0
09.640,159.07
09.656,152.73
09.671,135.32
09.687,108.37
09.703,76.16
09.718,43.77
09.734,15.27
09.750,-7.3
09.765,-24.14
09.781,-36.75
09.796,-46.8
09.812,-55.36
09.828,-62.63
09.843,-68.24
09.859,-71.83
09.875,-73.41
09.890,-73.34
09.906,-72.32
09.921,-70.99
09.937,-69.64
09.953,-68.11
09.968,-65.86
09.984,-62.35
10.000,-57.5
10.015,-51.95
10.031,-46.96
10.046,-43.94
10.062,-43.71
10.078,-45.92
10.093,-49.07
10.109,-51.04
10.125,-49.88
10.140,-44.61
10.156,-35.44
10.171,-23.56
10.187,-10.5
10.203,2.5
10.218,14.81
10.234,26.45
10.250,37.69
10.265,48.72
10.281,59.25
10.296,68.46
10.312,75.19
10.328,78.27
10.343,77.02
10.359,71.51
10.375,62.65
10.390,52.13
10.406,42.05
10.421,34.4
10.437,30.61
10.453,31.08
10.468,35.13
10.484,41.24
10.500,47.56
10.515,52.52
10.531,55.22
10.546,55.42
10.562,53.28
10.578,48.92
10.593,42.34
10.609,33.5
10.625,22.69
10.640,10.7
10.656,-1.28
10.671,-12.18
10.687,-21.39
10.703,-29.02
10.718,-35.59
10.734,-41.52
10.750,-46.81
10.765,-50.84
10.781,-52.72
10.796,-51.73
10.812,-47.74
10.828,-41.35
10.843,-33.76
10.859,-26.29
10.875,-20.02
10.890,-15.5
10.906,-12.71
10.921,-11.2
10.937,-10.38
10.953,-9.72
10.968,-8.98
10.984,-8.17
11.000,-7.48
11.015,-7.17
11.031,-7.43
11.046,-8.2
11.062,-9.07
11.078,-9.29
11.093,-8.07
11.109,-5.03
11.125,-0.49
11.140,4.47
11.156,8.45
11.171,10.44
11.187,10.41
11.203,9.47
11.218,9.4
11.234,11.91
11.250,17.88
11.265,27.18
11.281,38.85
11.296,51.7
11.312,64.56
11.328,76.39
11.343,85.98
11.359,91.84
11.375,92.43
11.390,86.65
11.406,74.52
11.421,57.33
11.437,37.44
11.453,17.46
11.468,-0.37
11.484,-14.78
11.500,-25.29
11.515,-31.91
11.531,-34.81
11.546,-34.16
11.562,-30.38
11.578,-24.12
11.593,-16.26
11.609,-7.56
11.625,1.52
11.640,10.83
11.656,20.2
11.671,29.07
11.687,36.56
11.703,41.67
11.718,43.86
11.734,43.17
11.750,40.24
11.765,35.85
11.781,30.46
11.796,24.03
11.812,16.12
11.828,6.3
11.843,-5.57
11.859,-19.13
11.875,-33.63
11.890,-48.04
11.906,-61.39
11.921,-72.74
11.937,-81.44
11.953,-86.97
11.968,-89.11
11.984,-87.92
12.000,-83.69
12.015,-77.04
12.031,-68.79
12.046,-59.86
12.062,-51.01
12.078,-42.72
12.093,-35.16
12.109,-28.37
12.125,-22.54
12.140,-17.98
12.156,-14.98
12.171,-13.63
12.187,-13.58
12.203,-14.2
12.218,-14.91
12.234,-15.44
12.250,-15.95
12.265,-16.83
12.281,-18.24
12.296,-19.92
12.312,-21.15
12.328,-21.05
12.343,-19.01
12.359,-14.88
12.375,-8.96
12.390,-1.84
12.406,5.81
12.421,13.4
12.437,20.23
12.453,25.59
12.468,28.74
12.484,29.2
12.500,27.04
12.515,23.07
12.531,18.75
12.546,15.71
12.562,15.21
12.578,17.74
12.593,22.91
12.609,29.69
12.625,36.8
12.640,43.21
12.656,48.35
12.671,52.16
12.687,54.89
12.703,56.93
12.718,58.67
12.734,60.36
12.750,62.03
12.765,63.41
12.781,63.96
12.796,62.98
12.812,60.06
12.828,55.27
12.843,49.42
12.859,43.73
12.875,39.16
12.890,35.86
12.906,32.83
12.921,28.4
12.937,20.83
12.953,9.37
12.968,-5.43
12.984,-21.88
13.000,-37.83
13.015,-51.53
13.031,-62.03
13.046,-69.18
13.062,-73.3
13.078,-74.87
13.093,-74.24
13.109,-71.79
13.125,-68.04
13.140,-63.64
13.156,-59.21
13.171,-54.99
13.187,-50.79
13.203,-46.16
13.218,-40.67
13.234,-34.27
13.250,-27.33
13.265,-20.48
13.281,-14.32
13.296,-9.15
13.312,-4.98
13.328,-1.73
13.343,0.66
13.359,2.09
13.375,2.6
13.390,2.54
13.406,2.61
13.421,3.83
13.437,7.11
13.453,12.89
13.468,20.99
13.484,30.75
13.500,41.29
13.515,51.94
13.531,62.3
13.546,72.12
13.562,80.95
13.578,87.86
13.593,91.52
13.609,90.57
13.625,84.16
13.640,72.35
13.656,56.2
13.671,37.42
13.687,17.88
13.703,-0.72
13.718,-17.13
13.734,-30.4
13.750,-39.79
13.765,-44.8
13.781,-45.27
13.796,-41.53
13.812,-34.48
13.828,-25.45
13.843,-15.85
13.859,-6.93
13.875,0.52
13.890,6.13
13.906,9.93
13.921,12.11
13.937,13.07
13.953,13.37
13.968,13.7
13.984,14.8
14.000,17.25
14.015,21.2
14.031,26.16
14.046,31.01
14.062,34.19
14.078,34.18
14.093,30.04
14.109,21.8
14.125,10.39
14.140,-2.58
14.156,-15.45
14.171,-26.99
14.187,-36.6
14.203,-44.26
14.218,-50.14
14.234,-54.44
14.250,-57.26
14.265,-58.77
14.281,-59.27
14.296,-59.13
14.312,-58.66
14.328,-57.91
14.343,-56.71
14.359,-54.82
14.375,-52.11
14.390,-48.67
14.406,-44.81
14.421,-40.88
14.437,-37.2
14.453,-34.09
14.468,-31.8
14.484,-30.47
14.500,-30.0
14.515,-29.93
14.531,-29.57
14.546,-28.2
14.562,-25.44
14.578,-21.36
14.593,-16.35
14.609,-10.74
14.625,-4.6
14.640,2.44
14.656,10.83
14.671,20.87
14.687,32.18
14.703,43.57
14.718,53.21
14.734,59.08
14.750,59.64
14.765,54.38
14.781,44.08
14.796,30.72
14.812,16.95
14.828,5.44
14.843,-1.85
14.859,-4.02
14.875,-1.35
14.890,4.97
14.906,13.22
14.921,21.66
14.937,28.99
14.953,34.68
14.968,38.87
14.984,42.13
15.000,44.88
15.015,47.02
15.031,47.92
15.046,46.84
15.062,43.46
15.078,38.36
15.093,32.84
15.109,28.3
15.125,25.44
15.140,23.83
15.156,22.05
15.171,18.37
15.187,11.64
15.203,1.71
15.218,-10.54
15.234,-23.73
15.250,-36.48
15.265,-47.76
15.281,-56.86
15.296,-63.35
15.312,-66.96
15.328,-67.62
15.343,-65.51
15.359,-61.09
15.375,-55.0
15.390,-47.96
15.406,-40.71
15.421,-33.96
15.437,-28.38
15.453,-24.48
15.468,-22.44
15.484,-22.04
15.500,-22.58
15.515,-23.13
15.531,-22.96
15.546,-21.74
15.562,-19.74
15.578,-17.7
15.593,-16.44
15.609,-16.46
15.625,-17.73
15.640,-19.56
15.656,-20.86
15.671,-20.41
15.687,-17.24
15.703,-10.78
15.718,-1.01
15.734,11.6
15.750,26.28
15.765,42.0
15.781,57.59
15.796,71.78
15.812,83.25
15.828,90.78
15.843,93.43
15.859,90.71
15.875,82.79
15.890,70.42
15.906,54.85
15.921,37.54
15.937,19.91
15.953,3.27
15.968,-11.23
15.984,-22.62
16.000,-30.15
16.015,-33.37
16.031,-32.29
16.046,-27.36
16.062,-19.37
16.078,-9.3
16.093,1.83
16.109,13.04
16.125,23.31
16.140,31.67
16.156,37.43
16.171,40.48
16.187,41.42
16.203,41.43
16.218,41.74
16.234,42.89
16.250,44.28
16.265,44.25
16.281,40.76
16.296,32.39
16.312,19.08
16.328,2.34
16.343,-15.26
16.359,-31.09
16.375,-43.26
16.390,-51.19
16.406,-55.41
16.421,-56.99
16.437,-56.97
16.453,-55.9
16.468,-53.89
16.484,-50.89
16.500,-47.17
16.515,-43.46
16.531,-40.79
16.546,-40.14
16.562,-41.95
16.578,-46.01
16.593,-51.44
16.609,-57.05
16.625,-61.8
16.640,-65.22
16.656,-67.39
16.671,-68.66
16.687,-69.15
16.703,-68.38
16.718,-65.27
16.734,-58.5
16.750,-47.17
16.765,-31.36
16.781,-12.29
16.796,8.0
16.812,27.23
16.828,43.49
16.843,55.58
16.859,63.1
16.875,66.38
16.890,66.44
16.906,64.86
16.921,63.46
16.937,63.83
16.953,66.62
16.968,71.14
16.984,75.53
17.000,77.35
17.015,74.61
17.031,66.46
17.046,53.42
17.062,37.18
17.078,20.04
17.093,4.43
17.109,-7.48
17.125,-14.1
17.140,-14.78
17.156,-10.03
17.171,-1.57
17.187,8.19
17.203,17.01
17.218,23.45
17.234,27.29
17.250,29.16
17.265,29.94
17.281,30.22
17.296,30.19
17.312,29.97
17.328,29.9
17.343,30.59
17.359,32.45
17.375,35.2
17.390,37.6
17.406,37.89
17.421,34.43
17.437,26.5
17.453,14.61
17.468,0.15
17.484,-15.18
17.500,-30.12
17.515,-43.97
17.531,-56.4
17.546,-67.12
17.562,-75.54
17.578,-80.82
17.593,-82.16
17.609,-79.26
17.625,-72.61
17.640,-63.53
17.656,-53.77
17.671,-45.01
17.687,-38.36
17.703,-34.05
17.718,-31.71
17.734,-30.68
17.750,-30.54
17.765,-31.3
17.781,-33.31
17.796,-36.94
17.812,-42.13
17.828,-48.16
17.843,-53.67
17.859,-56.92
17.875,-56.19
17.890,-50.35
17.906,-39.07
17.921,-22.98
17.937,-3.56
17.953,17.19
17.968,37.06
17.984,54.06
18.000,66.63
18.015,73.77
18.031,75.2
18.046,71.3
18.062,63.09
18.078,52.03
18.093,39.78
18.109,27.98
18.125,17.98
18.140,10.82
18.156,7.19
18.171,7.33
18.187,10.99
18.203,17.43
18.218,25.46
18.234,33.84
18.250,41.53
18.265,47.83
18.281,52.27
18.296,54.39
18.312,53.66
18.328,49.73
18.343,42.75
18.359,33.67
18.375,24.19
18.390,16.12
18.406,10.65
18.421,7.79
18.437,6.4
18.453,4.75
18.468,1.28
18.484,-4.72
18.500,-12.98
18.515,-22.49
18.531,-32.02
18.546,-40.47
18.562,-47.15
18.578,-51.71
18.593,-54.03
18.609,-54.12
18.625,-52.14
18.640,-48.41
18.656,-43.43
18.671,-37.82
18.687,-32.19
18.703,-27.03
18.718,-22.69
18.734,-19.33
18.750,-17.03
18.765,-15.75
18.781,-15.43
18.796,-15.77
18.812,-16.41
18.828,-16.88
18.843,-16.86
18.859,-16.28
18.875,-15.41
18.890,-14.64
18.906,-14.26
18.921,-14.24
18.937,-14.09
18.953,-13.07
18.968,-10.47
18.984,-5.91
19.000,0.62
19.015,8.84
19.031,18.36
19.046,28.75
19.062,39.52
19.078,49.91
19.093,58.87
19.109,65.18
19.125,67.7
19.140,65.84
19.156,59.7
19.171,50.1
19.187,38.26
19.203,25.56
19.218,13.2
19.234,2.15
19.250,-6.92
19.265,-13.48
19.281,-17.2
19.296,-17.93
19.312,-15.78
19.328,-11.18
19.343,-4.76
19.359,2.65
19.375,10.16
19.390,16.87
19.406,21.89
19.421,24.51
19.437,24.29
19.453,21.29
19.468,16.2
19.484,10.29
19.500,4.98
19.515,1.4
19.531,-0.11
19.546,-0.22
19.562,-0.36
19.578,-2.15
19.593,-6.66
19.609,-13.91
19.625,-22.82
19.640,-31.63
19.656,-38.58
19.671,-42.5
19.687,-43.14
19.703,-41.11
19.718,-37.53
19.734,-33.49
19.750,-29.79
19.765,-26.83
19.781,-24.66
19.796,-23.28
19.812,-22.79
19.828,-23.4
19.843,-25.23
19.859,-28.13
19.875,-31.39
19.890,-33.82
19.906,-34.21
19.921,-31.81
19.937,-26.82
19.953,-20.46
19.968,-14.59
19.984,-10.96
20.000,-10.49
20.015,-12.94
20.031,-16.99
20.046,-20.74
20.062,-22.38
20.078,-20.74
20.093,-15.45
20.109,-6.94
20.125,4.06
20.140,16.75
20.156,30.48
20.171,44.71
20.187,58.67
20.203,71.18
20.218,80.46
20.234,84.58
20.250,81.98
20.265,72.2
20.281,56.25
20.296,36.46
20.312,15.86
20.328,-2.59
20.343,-16.65
20.359,-25.08
20.375,-27.6
20.390,-24.7
20.406,-17.44
20.421,-7.27
20.437,4.12
20.453,15.02
20.468,23.95
20.484,30.01
20.500,33.01
20.515,33.46
20.531,32.3
20.546,30.6
20.562,29.26
20.578,28.85
20.593,29.55
20.609,31.07
20.625,32.75
20.640,33.56
20.656,32.32
20.671,28.02
20.687,20.23
20.703,9.45
20.718,-2.79
20.734,-14.35
20.750,-23.2
20.765,-28.3
20.781,-30.15
20.796,-30.47
20.812,-31.48
20.828,-34.64
20.843,-40.0
20.859,-46.11
20.875,-50.89
20.890,-52.65
20.906,-50.96
20.921,-46.91
20.937,-42.53
20.953,-39.95
20.968,-40.47
20.984,-44.02
21.000,-49.11
21.015,-53.33
21.031,-54.21
21.046,-50.15
21.062,-41.05
21.078,-28.42
21.093,-14.79
21.109,-2.8
21.125,5.83
21.140,10.72
21.156,12.85
21.171,13.8
21.187,15.14
21.203,17.94
21.218,22.64
21.234,29.22
21.250,37.33
21.265,46.28
21.281,54.96
21.296,61.93
21.312,65.65
21.328,64.96
21.343,59.48
21.359,49.83
21.375,37.44
21.390,24.2
21.406,11.94
21.421,2.2
21.437,-3.97
21.453,-6.0
21.468,-3.88
21.484,1.84
21.500,9.98
21.515,18.96
21.531,27.08
21.546,33.04
21.562,36.26
21.578,36.93
21.593,35.8
21.609,33.71
21.625,31.21
21.640,28.33
21.656,24.7
21.671,19.92
21.687,14.0
21.703,7.69
21.718,2.47
21.734,0.06
21.750,1.85
21.765,8.19
21.781,18.27
21.796,30.2
21.812,41.53
21.828,49.82
21.843,52.98
21.859,49.54
21.875,38.68
21.890,20.5
21.906,-3.74
21.921,-31.45
21.937,-58.99
21.953,-82.46
21.968,-98.73
21.984,-106.36
22.000,-105.97
22.015,-99.88
22.031,-91.06
22.046,-82.21
22.062,-75.03
22.078,-70.1
22.093,-67.07
22.109,-65.12
22.125,-63.15
22.140,-60.0
22.156,-54.52
22.171,-45.96
22.187,-34.3
22.203,-20.61
22.218,-6.86
22.234,4.62
22.250,12.0
22.265,14.52
22.281,12.68
22.296,7.95
22.312,2.1
22.328,-3.27
22.343,-7.0
22.359,-8.37
22.375,-6.95
22.390,-2.57
22.406,4.69
22.421,14.33
22.437,25.43
22.453,36.64
22.468,46.36
22.484,52.99
22.500,55.24
22.515,52.39
22.531,44.51
22.546,32.63
22.562,18.58
22.578,4.81
22.593,-6.2
22.609,-12.52
22.625,-13.29
22.640,-8.93
22.656,-0.97
22.671,8.43
22.687,17.27
22.703,24.15
22.718,28.63
22.734,31.04
22.750,31.99
22.765,31.97
22.781,31.13
22.796,29.55
22.812,27.35
22.828,25.03
22.843,23.36
22.859,23.02
22.875,24.28
22.890,26.74
22.906,29.58
22.921,31.87
22.937,33.09
22.953,33.2
22.968,32.39
22.984,30.58
23.000,27.05
23.015,20.7
23.031,10.58
23.046,-3.3
23.062,-19.59
23.078,-35.72
23.093,-48.8
23.109,-56.64
23.125,-58.57
23.140,-55.62
23.156,-49.92
23.171,-43.88
23.187,-39.28
23.203,-36.93
23.218,-36.74
23.234,-38.11
23.250,-40.34
23.265,-42.77
23.281,-44.74
23.296,-45.37
23.312,-43.77
23.328,-39.27
23.343,-31.93
23.359,-22.84
23.375,-13.89
23.390,-7.04
23.406,-3.62
23.421,-3.72
23.437,-6.16
23.453,-9.08
23.468,-10.69
23.484,-9.82
23.500,-6.21
23.515,-0.18
23.531,7.76
23.546,17.16
23.562,27.59
23.578,38.48
23.593,48.75
23.609,56.81
23.625,60.88
23.640,59.41
23.656,51.71
23.671,38.34
23.687,21.02
23.703,2.3
23.718,-15.07
23.734,-28.73
23.750,-37.14
23.765,-39.73
23.781,-36.87
23.796,-29.7
23.812,-19.8
23.828,-8.96
23.843,1.04
23.859,8.75
23.875,13.23
23.890,14.28
23.906,12.44
23.921,8.9
23.937,5.07
23.953,2.15
23.968,0.71
23.984,0.59
24.000,1.18
24.015,1.84
24.031,2.32
24.046,2.81
24.062,3.76
24.078,5.39
24.093,7.44
24.109,9.15
24.125,9.64
24.140,8.32
24.156,5.21
24.171,0.95
24.187,-3.51
24.203,-7.29
24.218,-9.91
24.234,-11.34
24.250,-11.94
24.265,-12.2
24.281,-12.53
24.296,-13.14
24.312,-14.0
24.328,-15.03
24.343,-16.17
24.359,-17.42
24.375,-18.73
24.390,-19.96
24.406,-20.76
24.421,-20.82
24.437,-19.92
24.453,-18.07
24.468,-15.6
24.484,-12.95
24.500,-10.59
24.515,-8.79
24.531,-7.67
24.546,-7.2
24.562,-7.35
24.578,-8.11
24.593,-9.41
24.609,-11.15
24.625,-13.04
24.640,-14.64
24.656,-15.39
24.671,-14.83
24.687,-12.66
24.703,-8.97
24.718,-4.09
24.734,1.46
24.750,7.13
24.765,12.56
24.781,17.56
24.796,22.03
24.812,25.8
24.828,28.59
24.843,30.06
24.859,30.1
24.875,28.95
24.890,27.17
24.906,25.54
24.921,24.62
24.937,24.53
24.953,24.94
24.968,25.28
24.984,25.12
25.000,24.43
25.015,23.57
25.031,23.18
25.046,23.89
25.062,26.08
25.078,29.92
25.093,35.4
25.109,42.28
25.125,49.99
25.140,57.39
25.156,62.82
25.171,64.45
25.187,61.04
25.203,52.56
25.218,40.43
25.234,27.16
25.250,15.39
25.265,6.96
25.281,2.18
25.296,-0.05
25.312,-1.51
25.328,-3.84
25.343,-7.91
25.359,-13.66
25.375,-20.5
25.390,-27.79
25.406,-35.15
25.421,-42.45
25.437,-49.59
25.453,-56.1
25.468,-61.24
25.484,-64.13
25.500,-64.17
25.515,-61.4
25.531,-56.47
25.546,-50.38
25.562,-44.18
25.578,-38.64
25.593,-34.14
25.609,-30.83
25.625,-28.63
25.640,-27.45
25.656,-27.07
25.671,-27.11
25.687,-27.01
25.703,-26.18
25.718,-24.16
25.734,-20.68
25.750,-15.92
25.765,-10.3
25.781,-4.53
25.796,0.74
25.812,5.1
25.828,8.53
25.843,11.46
25.859,14.48
25.875,18.16
25.890,22.7
25.906,27.95
25.921,33.47
25.937,38.8
25.953,43.62
25.968,47.79
25.984,51.2
26.000,53.6
26.015,54.54
26.031,53.46
26.046,49.94
26.062,43.92
26.078,35.81
26.093,26.35
26.109,16.41
26.125,6.81
26.140,-1.77
26.156,-8.72
26.171,-13.5
26.187,-15.56
26.203,-14.57
26.218,-10.64
26.234,-4.49
26.250,2.66
26.265,9.38
26.281,14.58
26.296,17.76
26.312,19.02
26.328,18.67
26.343,17.05
26.359,14.17
26.375,10.08
26.390,5.08
26.406,-0.14
26.421,-4.59
26.437,-7.51
26.453,-8.87
26.468,-9.55
26.484,-10.94
26.500,-14.33
26.515,-20.19
26.531,-27.94
26.546,-36.26
26.562,-43.64
26.578,-49.01
26.593,-51.94
26.609,-52.63
26.625,-51.54
26.640,-49.13
26.656,-45.71
26.671,-41.52
26.687,-36.92
26.703,-32.34
26.718,-28.14
26.734,-24.42
26.750,-20.9
26.765,-17.15
26.781,-12.85
26.796,-8.1
26.812,-3.47
26.828,0.14
26.843,2.04
26.859,2.06
26.875,0.67
26.890,-1.17
26.906,-2.4
26.921,-2.32
26.937,-0.78
26.953,1.89
26.968,5.0
26.984,7.88
27.000,10.08
27.015,11.53
27.031,12.53
27.046,13.69
27.062,15.76
27.078,19.39
27.093,24.92
27.109,32.29
27.125,41.12
27.140,50.73
27.156,60.35
27.171,69.1
27.187,76.07
27.203,80.23
27.218,80.6
27.234,76.56
27.250,68.03
27.265,55.65
27.281,40.62
27.296,24.43
27.312,8.49
27.328,-6.14
27.343,-18.73
27.359,-28.76
27.375,-35.77
27.390,-39.44
27.406,-39.69
27.421,-36.89
27.437,-31.92
27.453,-25.94
27.468,-20.27
27.484,-15.94
27.500,-13.49
27.515,-12.81
27.531,-13.33
27.546,-14.23
27.562,-14.75
27.578,-14.47
27.593,-13.2
27.609,-11.01
27.625,-7.97
27.640,-4.16
27.656,0.26
27.671,4.86
27.687,8.87
27.703,11.28
27.718,11.15
27.734,8.06
27.750,2.29
27.765,-5.09
27.781,-12.67
27.796,-19.14
27.812,-23.67
27.828,-26.17
27.843,-27.12
27.859,-27.36
27.875,-27.58
27.890,-28.17
27.906,-29.1
27.921,-30.0
27.937,-30.37
27.953,-29.83
27.968,-28.35
27.984,-26.29
28.000,-24.37
28.015,-23.37
28.031,-23.82
28.046,-25.72
28.062,-28.34
28.078,-30.42
28.093,-30.39
28.109,-27.08
28.125,-20.04
28.140,-9.83
28.156,2.14
28.171,14.14
28.187,24.62
28.203,32.77
28.218,38.65
28.234,43.0
28.250,46.76
28.265,50.64
28.281,54.73
28.296,58.46
28.312,60.89
28.328,61.17
28.343,58.97
28.359,54.61
28.375,49.05
28.390,43.4
28.406,38.5
28.421,34.57
28.437,31.19
28.453,27.46
28.468,22.54
28.484,15.96
28.500,7.86
28.515,-1.04
28.531,-9.74
28.546,-17.18
28.562,-22.54
28.578,-25.43
28.593,-25.8
28.609,-23.81
28.625,-19.65
28.640,-13.48
28.656,-5.57
28.671,3.54
28.687,12.87
28.703,21.04
28.718,26.48
28.734,27.9
28.750,24.63
28.765,16.79
28.781,5.4
28.796,-7.78
28.812,-20.12
28.828,-28.21
28.843,-28.48
28.859,-18.51
28.875,1.45
28.890,27.58
28.906,52.98
28.921,69.9
28.937,72.72
28.953,60.29
28.968,36.25
28.984,7.23
29.000,-20.23
29.015,-42.15
29.031,-57.85
29.046,-69.02
29.062,-77.63
29.078,-84.58
29.093,-89.41
29.109,-91.18
29.125,-89.5
29.140,-84.98
29.156,-78.99
29.171,-72.87
29.187,-67.35
29.203,-62.4
29.218,-57.6
29.234,-52.57
29.250,-47.31
29.265,-42.12
29.281,-37.3
29.296,-32.97
29.312,-28.91
29.328,-24.74
29.343,-20.04
29.359,-14.56
29.375,-8.28
29.390,-1.33
29.406,6.13
29.421,13.89
29.437,21.72
29.453,29.44
29.468,36.88
29.484,44.03
29.500,51.04
29.515,58.14
29.531,65.47
29.546,72.78
29.562,79.35
29.578,84.1
29.593,86.02
29.609,84.53
29.625,79.82
29.640,72.8
29.656,64.59
29.671,56.08
29.687,47.63
29.703,39.0
29.718,29.72
29.734,19.55
29.750,8.64
29.765,-2.4
29.781,-12.69
29.796,-21.43
29.812,-28.01
29.828,-32.11
29.843,-33.65
29.859,-32.8
29.875,-29.96
29.890,-25.88
29.906,-21.47
29.921,-17.62
29.937,-14.82
29.953,-13.03
29.968,-11.78
29.984,-10.64
30.000,-9.54
30.015,-8.88
30.031,-9.26
30.046,-10.92
30.062,-13.44
30.078,-15.78
30.093,-16.86
30.109,-16.14
30.125,-14.01
30.140,-11.69
30.156,-10.6
30.171,-11.67
30.187,-14.88
30.203,-19.44
30.218,-24.24
30.234,-28.44
30.250,-31.75
30.265,-34.3
30.281,-36.3
30.296,-37.71
30.312,-38.15
30.328,-37.11
30.343,-34.34
30.359,-30.09
30.375,-25.16
30.390,-20.53
30.406,-16.96
30.421,-14.66
30.437,-13.31
30.453,-12.31
30.468,-11.13
30.484,-9.61
30.500,-7.9
30.515,-6.28
30.531,-4.85
30.546,-3.45
30.562,-1.75
30.578,0.52
30.593,3.37
30.609,6.41
30.625,9.16
30.640,11.2
30.656,12.39
30.671,12.87
30.687,12.86
30.703,12.48
30.718,11.72
30.734,10.58
30.750,9.31
30.765,8.53
30.781,9.05
30.796,11.61
30.812,16.51
30.828,23.44
30.843,31.51
30.859,39.6
30.875,46.68
30.890,52.1
30.906,55.48
30.921,56.66
30.937,55.65
30.953,52.53
30.968,47.63
30.984,41.49
31.000,34.88
31.015,28.53
31.031,23.0
31.046,18.44
31.062,14.62
31.078,11.05
31.093,7.17
31.109,2.53
31.125,-3.03
31.140,-9.38
31.156,-16.05
31.171,-22.23
31.187,-26.93
31.203,-29.27
31.218,-28.8
31.234,-25.79
31.250,-21.19
31.265,-16.27
31.281,-12.25
31.296,-9.93
31.312,-9.43
31.328,-10.34
31.343,-11.95
31.359,-13.52
31.375,-14.55
31.390,-14.97
31.406,-15.01
31.421,-15.15
31.437,-15.79
31.453,-17.01
31.468,-18.45
31.484,-19.44
31.500,-19.3
31.515,-17.7
31.531,-14.86
31.546,-11.51
31.562,-8.64
31.578,-7.11
31.593,-7.3
31.609,-9.04
31.625,-11.7
31.640,-14.31
31.656,-15.84
31.671,-15.4
31.687,-12.48
31.703,-7.13
31.718,-0.13
31.734,7.22
31.750,13.26
31.765,16.49
31.781,16.17
31.796,12.54
31.812,6.83
31.828,0.78
31.843,-4.02
31.859,-6.72
31.875,-7.33
31.890,-6.57
31.906,-5.37
31.921,-4.35
31.937,-3.75
31.953,-3.44
31.968,-3.11
31.984,-2.32
32.000,-0.62
32.015,2.46
32.031,7.13
32.046,13.13
32.062,19.51
32.078,24.86
32.093,27.9
32.109,28.16
32.125,26.41
32.140,24.4
32.156,24.14
32.171,26.88
32.187,32.61
32.203,40.04
32.218,47.33
32.234,52.84
32.250,55.72
32.265,55.97
32.281,54.14
32.296,50.84
32.312,46.41
32.328,40.8
32.343,33.81
32.359,25.36
32.375,15.75
32.390,5.63
32.406,-4.11
32.421,-12.64
32.437,-19.4
32.453,-24.34
32.468,-27.85
32.484,-30.55
32.500,-32.94
32.515,-35.14
32.531,-36.8
32.546,-37.23
32.562,-35.86
32.578,-32.46
32.593,-27.45
32.609,-21.74
32.625,-16.35
32.640,-12.07
32.656,-9.1
32.671,-7.19
32.687,-5.71
32.703,-4.17
32.718,-2.29
32.734,-0.02
32.750,2.61
32.765,5.73
32.781,9.44
32.796,13.71
32.812,17.89
32.828,20.78
32.843,20.81
32.859,16.83
32.875,8.76
32.890,-2.04
32.906,-13.08
32.921,-21.6
32.937,-25.56
32.953,-24.4
32.968,-19.04
32.984,-11.35
33.000,-3.24
33.015,3.93
33.031,9.64
33.046,13.95
33.062,16.98
33.078,18.7
33.093,18.74
33.109,16.7
33.125,12.4
33.140,6.12
33.156,-1.43
33.171,-9.32
33.187,-16.62
33.203,-22.68
33.218,-27.17
33.234,-30.06
33.250,-31.42
33.265,-31.34
33.281,-29.87
33.296,-27.06
33.312,-23.12
33.328,-18.52
33.343,-14.02
33.359,-10.49
33.375,-8.64
33.390,-8.79
33.406,-10.69
33.421,-13.54
33.437,-16.19
33.453,-17.51
33.468,-16.73
33.484,-13.8
33.500,-9.27
33.515,-4.16
33.531,0.5
33.546,4.05
33.562,6.35
33.578,7.8
33.593,8.96
33.609,10.24
33.625,11.74
33.640,13.28
33.656,14.59
33.671,15.58
33.687,16.39
33.703,17.19
33.718,18.05
33.734,18.84
33.750,19.25
33.765,19.12
33.781,18.57
33.796,18.07
33.812,18.21
33.828,19.43
33.843,21.71
33.859,24.67
33.875,27.76
33.890,30.55
33.906,32.88
33.921,34.81
33.937,36.35
33.953,37.27
33.968,37.12
33.984,35.41
34.000,31.91
34.015,26.97
34.031,21.4
34.046,16.25
34.062,12.39
34.078,10.25
34.093,9.77
34.109,10.55
34.125,12.02
34.140,13.64
34.156,14.97
34.171,15.48
34.187,14.65
34.203,11.98
34.218,7.09
34.234,-0.04
34.250,-9.01
34.265,-19.07
34.281,-29.18
34.296,-38.21
34.312,-45.18
34.328,-49.33
34.343,-50.25
34.359,-48.0
34.375,-43.11
34.390,-36.49
34.406,-29.23
34.421,-22.36
34.437,-16.57
34.453,-12.2
34.468,-9.22
34.484,-7.39
34.500,-6.37
34.515,-5.79
34.531,-5.29
34.546,-4.44
34.562,-2.92
34.578,-0.5
34.593,2.67
34.609,6.2
34.625,9.52
34.640,12.11
34.656,13.71
34.671,14.45
34.687,14.69
34.703,14.88
34.718,15.37
34.734,16.26
34.750,17.49
34.765,18.95
34.781,20.56
34.796,22.38
34.812,24.49
34.828,26.87
34.843,29.17
34.859,30.78
34.875,30.94
34.890,29.08
34.906,25.04
34.921,19.26
34.937,12.62
34.953,6.18
34.968,0.85
34.984,-3.01
35.000,-5.48
35.015,-7.04
35.031,-8.17
35.046,-9.15
35.062,-10.02
35.078,-10.6
35.093,-10.76
35.109,-10.54
35.125,-10.31
35.140,-10.61
35.156,-12.02
35.171,-14.87
35.187,-19.08
35.203,-24.14
35.218,-29.27
35.234,-33.53
35.250,-36.07
35.265,-36.41
35.281,-34.49
35.296,-30.81
35.312,-26.39
35.328,-22.45
35.343,-20.17
35.359,-20.22
35.375,-22.56
35.390,-26.39
35.406,-30.54
35.421,-33.84
35.437,-35.57
35.453,-35.69
35.468,-34.57
35.484,-32.78
35.500,-30.66
35.515,-28.31
35.531,-25.65
35.546,-22.65
35.562,-19.49
35.578,-16.63
35.593,-14.58
35.609,-13.63
35.625,-13.62
35.640,-14.01
35.656,-14.05
35.671,-13.19
35.687,-11.25
35.703,-8.53
35.718,-5.62
35.734,-3.02
35.750,-0.95
35.765,0.85
35.781,2.88
35.796,5.66
35.812,9.32
35.828,13.51
35.843,17.48
35.859,20.37
35.875,21.67
35.890,21.47
35.906,20.52
35.921,20.07
35.937,21.41
35.953,25.35
35.968,31.73
35.984,39.35
36.000,46.24
36.015,50.35
36.031,50.27
36.046,45.76
36.062,37.84
36.078,28.21
36.093,18.62
36.109,10.36
36.125,3.84
36.140,-1.04
36.156,-4.75
36.171,-7.97
36.187,-11.58
36.203,-16.37
36.218,-22.33
36.234,-27.98
36.250,-30.38
36.265,-26.32
36.281,-14.21
36.296,4.28
36.312,24.25
36.328,39.37
36.343,44.73
36.359,39.26
36.375,26.06
36.390,10.83
36.406,-1.0
36.421,-6.38
36.437,-5.23
36.453,0.73
36.468,9.62
36.484,20.35
36.500,32.54
36.515,45.45
36.531,57.39
36.546,65.93
36.562,68.92
36.578,65.53
36.593,56.87
36.609,45.64
36.625,34.89
36.640,26.98
36.656,23.05
36.671,23.25
36.687,27.25
36.703,34.39
36.718,43.37
36.734,51.85
36.750,56.43
36.765,53.67
36.781,41.53
36.796,20.6
36.812,-5.68
36.828,-32.17
36.843,-53.87
36.859,-67.38
36.875,-71.6
36.890,-67.41
36.906,-56.87
36.921,-42.61
36.937,-27.51
36.953,-14.42
36.968,-5.7
36.984,-2.57
37.000,-4.45
37.015,-9.24
37.031,-14.09
37.046,-16.53
37.062,-15.41
37.078,-11.09
37.093,-4.96
37.109,1.28
37.125,6.14
37.140,8.5
37.156,7.66
37.171,3.4
37.187,-3.72
37.203,-12.37
37.218,-20.61
37.234,-26.54
37.250,-29.09
37.265,-28.43
37.281,-25.83
37.296,-23.0
37.312,-21.3
37.328,-21.2
37.343,-22.38
37.359,-23.99
37.375,-25.12
37.390,-25.12
37.406,-23.74
37.421,-21.16
37.437,-17.83
37.453,-14.37
37.468,-11.34
37.484,-9.02
37.500,-7.42
37.515,-6.3
37.531,-5.49
37.546,-4.95
37.562,-4.74
37.578,-4.82
37.593,-4.87
37.609,-4.29
37.625,-2.52
37.640,0.6
37.656,4.66
37.671,8.73
37.687,11.74
37.703,12.96
37.718,12.2
37.734,9.79
37.750,6.27
37.765,2.17
37.781,-2.14
37.796,-6.35
37.812,-10.23
37.828,-13.55
37.843,-16.25
37.859,-18.49
37.875,-20.56
37.890,-22.74
37.906,-25.0
37.921,-27.03
37.937,-28.25
37.953,-28.26
37.968,-26.93
37.984,-24.56
38.000,-21.68
38.015,-18.77
38.031,-16.12
38.046,-13.78
38.062,-11.8
38.078,-10.31
38.093,-9.5
38.109,-9.5
38.125,-10.13
38.140,-10.96
38.156,-11.39
38.171,-10.93
38.187,-9.38
38.203,-7.01
38.218,-4.34
38.234,-1.97
38.250,-0.31
38.265,0.49
38.281,0.55
38.296,0.15
38.312,-0.39
38.328,-0.71
38.343,-0.5
38.359,0.51
38.375,2.37
38.390,4.75
38.406,7.0
38.421,8.28
38.437,7.96
38.453,5.89
38.468,2.63
38.484,-0.76
38.500,-3.01
38.515,-3.12
38.531,-0.74
38.546,3.75
38.562,9.39
38.578,15.05
38.593,19.78
38.609,23.2
38.625,25.59
38.640,27.87
38.656,31.33
38.671,37.17
38.687,46.0
38.703,57.35
38.718,69.61
38.734,80.19
38.750,86.6
38.765,87.18
38.781,81.76
38.796,71.61
38.812,58.78
38.828,45.29
38.843,32.32
38.859,20.19
38.875,8.7
38.890,-2.32
38.906,-12.69
38.921,-21.56
38.937,-27.34
38.953,-28.03
38.968,-22.15
38.984,-9.83
39.000,6.31
39.015,21.6
39.031,30.98
39.046,31.09
39.062,22.1
39.078,7.71
39.093,-6.85
39.109,-17.36
39.125,-22.33
39.140,-22.93
39.156,-21.04
39.171,-17.44
39.187,-11.28
39.203,-1.27
39.218,12.61
39.234,28.02
39.250,41.28
39.265,49.36
39.281,51.42
39.296,48.92
39.312,44.41
39.328,39.84
39.343,35.54
39.359,30.66
39.375,24.35
39.390,16.99
39.406,10.13
39.421,5.34
39.437,2.8
39.453,0.6
39.468,-4.41
39.484,-15.02
39.500,-32.04
39.515,-53.69
39.531,-76.43
39.546,-96.49
39.562,-111.38
39.578,-120.42
39.593,-124.35
39.609,-124.3
39.625,-120.96
39.640,-114.65
39.656,-105.89
39.671,-96.05
39.687,-87.32
39.703,-81.84
39.718,-80.46
39.734,-82.06
39.750,-83.86
39.765,-82.63
39.781,-76.11
39.796,-63.93
39.812,-47.68
39.828,-30.06
39.843,-13.75
39.859,-0.61
39.875,8.63
39.890,14.18
39.906,16.64
39.921,16.7
39.937,14.95
39.953,11.87
39.968,7.93
39.984,3.59
40.000,-0.73
40.015,-4.69
40.031,-8.08
40.046,-10.86
40.062,-13.09
40.078,-14.84
40.093,-16.15
40.109,-16.87
40.125,-16.73
40.140,-15.4
40.156,-12.68
40.171,-8.62
40.187,-3.59
40.203,1.81
40.218,6.9
40.234,11.14
40.250,14.29
40.265,16.43
40.281,17.82
40.296,18.76
40.312,19.42
40.328,19.82
40.343,19.89
40.359,19.64
40.375,19.17
40.390,18.72
40.406,18.48
40.421,18.58
40.437,18.93
40.453,19.31
40.468,19.5
40.484,19.26
40.500,18.6
40.515,17.56
40.531,16.38
40.546,15.31
40.562,14.66
40.578,14.64
40.593,15.37
40.609,16.8
40.625,18.72
40.640,20.82
40.656,22.74
40.671,24.17
40.687,24.93
40.703,24.94
40.718,24.15
40.734,22.55
40.750,20.23
40.765,17.32
40.781,14.18
40.796,11.27
40.812,9.08
40.828,7.91
40.843,7.74
40.859,8.25
40.875,8.89
40.890,9.16
40.906,8.71
40.921,7.47
40.937,5.55
40.953,3.2
40.968,0.72
40.984,-1.56
41.000,-3.17
41.015,-3.63
41.031,-2.5
41.046,0.29
41.062,4.51
41.078,9.45
41.093,14.18
41.109,17.81
41.125,19.67
41.140,19.5
41.156,17.44
41.171,13.91
41.187,9.49
41.203,4.87
41.218,0.7
41.234,-2.47
41.250,-4.31
41.265,-4.8
41.281,-4.28
41.296,-3.36
41.312,-2.76
41.328,-3.13
41.343,-4.77
41.359,-7.6
41.375,-11.16
41.390,-14.71
41.406,-17.5
41.421,-18.87
41.437,-18.38
41.453,-15.89
41.468,-11.55
41.484,-5.86
41.500,0.46
41.515,6.52
41.531,11.49
41.546,14.83
41.562,16.3
41.578,16.03
41.593,14.32
41.609,11.5
41.625,7.86
41.640,3.64
41.656,-0.86
41.671,-5.14
41.687,-8.62
41.703,-10.81
41.718,-11.5
41.734,-10.84
41.750,-9.36
41.765,-7.69
41.781,-6.39
41.796,-5.81
41.812,-5.99
41.828,-6.77
41.843,-7.84
41.859,-8.83
41.875,-9.3
41.890,-8.79
41.906,-6.91
41.921,-3.48
41.937,1.34
41.953,7.06
41.968,12.91
41.984,18.06
42.000,21.8
42.015,23.67
42.031,23.54
42.046,21.56
42.062,18.08
42.078,13.58
42.093,8.63
42.109,3.85
42.125,-0.19
42.140,-3.04
42.156,-4.48
42.171,-4.59
42.187,-3.74
42.203,-2.44
42.218,-1.25
42.234,-0.56
42.250,-0.56
42.265,-1.17
42.281,-2.09
42.296,-2.82
42.312,-2.83
42.328,-1.62
42.343,1.08
42.359,5.19
42.375,10.28
42.390,15.63
42.406,20.5
42.421,24.21
42.437,26.34
42.453,26.65
42.468,25.09
42.484,21.74
42.500,16.9
42.515,11.07
42.531,4.98
42.546,-0.53
42.562,-4.7
42.578,-7.05
42.593,-7.56
42.609,-6.55
42.625,-4.59
42.640,-2.34
42.656,-0.38
42.671,0.86
42.687,1.07
42.703,0.2
42.718,-1.54
42.734,-3.61
42.750,-5.25
42.765,-5.61
42.781,-4.11
42.796,-0.7
42.812,4.1
42.828,9.31
42.843,13.82
42.859,16.84
42.875,18.05
42.890,17.54
42.906,15.71
42.921,12.96
42.937,9.67
42.953,6.11
42.968,2.54
42.984,-0.77
43.000,-3.55
43.015,-5.56
43.031,-6.66
43.046,-6.9
43.062,-6.51
43.078,-5.85
43.093,-5.41
43.109,-5.67
43.125,-6.86
43.140,-8.91
43.156,-11.33
43.171,-13.41
43.187,-14.33
43.203,-13.47
43.218,-10.55
43.234,-5.77
43.250,0.29
43.265,6.7
43.281,12.43
43.296,16.55
43.312,18.49
43.328,18.11
43.343,15.66
43.359,11.61
43.375,6.46
43.390,0.75
43.406,-4.98
43.421,-10.09
43.437,-13.86
43.453,-15.64
43.468,-15.1
43.484,-12.42
43.500,-8.29
43.515,-3.77
43.531,0.11
43.546,2.61
43.562,3.43
43.578,2.7
43.593,0.87
43.609,-1.39
43.625,-3.3
43.640,-4.08
43.656,-3.1
43.671,-0.09
43.687,4.69
43.703,10.48
43.718,16.16
43.734,20.58
43.750,22.93
43.765,22.96
43.781,20.95
43.796,17.59
43.812,13.72
43.828,10.0
43.843,6.98
43.859,4.97
43.875,4.11
43.890,4.43
43.906,5.79
43.921,7.9
43.937,10.33
43.953,12.56
43.968,14.01
43.984,14.24
44.000,12.96
44.015,10.12
44.031,5.99
44.046,1.1
44.062,-3.82
44.078,-7.99
44.093,-10.68
44.109,-11.41
44.125,-10.04
44.140,-6.81
44.156,-2.3
44.171,2.75
44.187,7.61
44.203,11.69
44.218,14.59
44.234,16.12
44.250,16.18
44.265,14.79
44.281,12.07
44.296,8.28
44.312,3.95
44.328,-0.32
44.343,-3.9
44.359,-6.44
44.375,-7.96
44.390,-8.86
44.406,-9.71
44.421,-11.01
44.437,-13.02
44.453,-15.68
44.468,-18.77
44.484,-21.92
44.500,-24.79
44.515,-27.01
44.531,-28.17
44.546,-27.75
44.562,-25.32
44.578,-20.76
44.593,-14.47
44.609,-7.39
44.625,-0.82
44.640,3.93
44.656,6.03
44.671,5.33
44.687,2.32
44.703,-2.04
44.718,-6.68
44.734,-10.76
44.750,-13.76
44.765,-15.59
44.781,-16.5
44.796,-17.0
44.812,-17.64
44.828,-18.91
44.843,-20.94
44.859,-23.53
44.875,-26.16
44.890,-28.16
44.906,-28.92
44.921,-28.1
44.937,-25.66
44.953,-21.86
44.968,-17.07
44.984,-11.71
45.000,-6.08
45.015,-0.35
45.031,5.39
45.046,11.06
45.062,16.46
45.078,21.23
45.093,24.87
45.109,26.85
45.125,26.88
45.140,25.04
45.156,21.87
45.171,18.22
45.187,15.09
45.203,13.28
45.218,13.22
45.234,14.87
45.250,17.81
45.265,21.45
45.281,25.09
45.296,28.05
45.312,29.76
45.328,29.7
45.343,27.51
45.359,23.08
45.375,16.58
45.390,8.44
45.406,-0.66
45.421,-9.96
45.437,-18.6
45.453,-25.72
45.468,-30.56
45.484,-32.51
45.500,-31.39
45.515,-27.48
45.531,-21.61
45.546,-14.97
45.562,-8.78
45.578,-4.04
45.593,-1.27
45.609,-0.44
45.625,-1.08
45.640,-2.42
45.656,-3.62
45.671,-3.99
45.687,-3.2
45.703,-1.33
45.718,1.13
45.734,3.49
45.750,5.08
45.765,5.58
45.781,5.19
45.796,4.57
45.812,4.7
45.828,6.5
45.843,10.4
45.859,16.04
45.875,22.24
45.890,27.26
45.906,29.45
45.921,28.0
45.937,23.42
45.953,17.53
45.968,12.91
45.984,11.88
46.000,15.43
46.015,22.81
46.031,31.61
46.046,38.68
46.062,41.26
46.078,38.01
46.093,29.41
46.109,17.62
46.125,5.75
46.140,-3.21
46.156,-7.17
46.171,-5.46
46.187,1.24
46.203,11.21
46.218,22.29
46.234,32.37
46.250,39.74
46.265,43.31
46.281,42.65
46.296,38.01
46.312,30.35
46.328,21.17
46.343,12.24
46.359,5.1
46.375,0.55
46.390,-1.6
46.406,-2.51
46.421,-3.79
46.437,-6.87
46.453,-12.43
46.468,-20.28
46.484,-29.4
46.500,-38.52
46.515,-46.55
46.531,-52.79
46.546,-57.01
46.562,-59.22
46.578,-59.56
46.593,-58.21
46.609,-55.47
46.625,-51.76
46.640,-47.68
46.656,-43.87
46.671,-40.86
46.687,-38.96
46.703,-38.14
46.718,-38.1
46.734,-38.34
46.750,-38.32
46.765,-37.6
46.781,-35.92
46.796,-33.28
46.812,-29.83
46.828,-25.91
46.843,-21.83
46.859,-17.88
46.875,-14.33
46.890,-11.35
46.906,-9.02
46.921,-7.34
46.937,-6.19
46.953,-5.41
46.968,-4.96
46.984,-4.83
47.000,-5.02
47.015,-5.47
47.031,-5.89
47.046,-5.85
47.062,-4.86
47.078,-2.6
47.093,1.0
47.109,5.63
47.125,10.86
47.140,16.26
47.156,21.48
47.171,26.39
47.187,30.94
47.203,35.17
47.218,39.14
47.234,42.95
47.250,46.62
47.265,50.05
47.281,52.93
47.296,54.68
47.312,54.65
47.328,52.28
47.343,47.32
47.359,39.98
47.375,30.82
47.390,20.63
47.406,10.25
47.421,0.41
47.437,-8.24
47.453,-15.19
47.468,-20.12
47.484,-22.97
47.500,-23.99
47.515,-23.83
47.531,-23.38
47.546,-23.53
47.562,-24.86
47.578,-27.4
47.593,-30.52
47.609,-33.17
47.625,-34.18
47.640,-32.8
47.656,-28.91
47.671,-23.12
47.687,-16.5
47.703,-10.14
47.718,-4.81
47.734,-0.74
47.750,2.22
47.765,4.51
47.781,6.51
47.796,8.48
47.812,10.43
47.828,12.1
47.843,13.0
47.859,12.47
47.875,10.02
47.890,5.61
47.906,-0.06
47.921,-5.57
47.937,-9.26
47.953,-9.83
47.968,-7.02
47.984,-1.71
48.000,4.25
48.015,8.86
48.031,10.58
48.046,8.88
48.062,4.36
48.078,-1.56
48.093,-7.01
48.109,-10.29
48.125,-10.26
48.140,-6.76
48.156,-0.58
48.171,6.61
48.187,12.82
48.203,16.34
48.218,16.24
48.234,12.68
48.250,6.69
48.265,-0.18
48.281,-6.49
48.296,-11.23
48.312,-14.07
48.328,-15.28
48.343,-15.46
48.359,-15.24
48.375,-14.93
48.390,-14.51
48.406,-13.58
48.421,-11.72
48.437,-8.69
48.453,-4.65
48.468,-0.08
48.484,4.44
48.500,8.48
48.515,12.01
48.531,15.2
48.546,18.35
48.562,21.54
48.578,24.56
48.593,26.92
48.609,28.07
48.625,27.56
48.640,25.1
48.656,20.6
48.671,14.08
48.687,5.76
48.703,-3.84
48.718,-13.75
48.734,-22.56
48.750,-28.69
48.765,-30.87
48.781,-28.56
48.796,-22.17
48.812,-12.96
48.828,-2.57
48.843,7.38
48.859,15.8
48.875,22.12
48.890,26.26
48.906,28.34
48.921,28.49
48.937,26.94
48.953,24.06
48.968,20.53
48.984,17.22
49.000,14.95
49.015,14.24
49.031,15.0
49.046,16.65
49.062,18.29
49.078,19.03
49.093,18.28
49.109,15.88
49.125,11.96
49.140,6.73
49.156,0.43
49.171,-6.71
49.187,-14.26
49.203,-21.53
49.218,-27.6
49.234,-31.65
49.250,-33.2
49.265,-32.44
49.281,-30.1
49.296,-27.23
49.312,-24.81
49.328,-23.35
49.343,-22.82
49.359,-22.83
49.375,-22.9
49.390,-22.67
49.406,-22.06
49.421,-21.14
49.437,-20.04
49.453,-18.85
49.468,-17.56
49.484,-16.07
49.500,-14.29
49.515,-12.28
49.531,-10.2
49.546,-8.32
49.562,-6.89
49.578,-5.93
49.593,-5.26
49.609,-4.34
49.625,-2.53
49.640,0.76
49.656,5.85
49.671,12.69
49.687,20.85
49.703,29.7
49.718,38.6
49.734,46.91
49.750,54.24
49.765,60.39
49.781,65.44
49.796,69.76
49.812,73.96
49.828,78.74
49.843,84.76
49.859,92.47
49.875,102.02
49.890,113.31
49.906,126.13
49.921,140.26
49.937,155.52
49.953,171.75
49.968,188.67
49.984,205.65
50.000,221.73
50.015,235.61
50.031,245.91
50.046,251.56
50.062,252.07
50.078,247.72
50.093,239.53
50.109,228.98
50.125,217.54
50.140,206.34
50.156,195.95
50.171,186.45
50.187,177.56
50.203,169.0
50.218,160.55
50.234,152.14
50.250,143.74
50.265,135.26
50.281,126.56
50.296,117.44
50.312,107.74
50.328,97.44
50.343,86.68
50.359,75.8
50.375,65.26
50.390,55.63
50.406,47.42
50.421,40.85
50.437,35.66
50.453,31.03
50.468,25.68
50.484,18.18
50.500,7.45
50.515,-6.86
50.531,-24.2
50.546,-43.38
50.562,-62.93
50.578,-81.45
50.593,-97.74
50.609,-110.83
50.625,-119.95
50.640,-124.73
50.656,-125.51
50.671,-123.57
50.687,-120.88
50.703,-119.62
50.718,-121.47
50.734,-127.08
50.750,-136.2
50.765,-148.14
50.781,-162.31
50.796,-178.43
50.812,-196.17
50.828,-214.87
50.843,-233.2
50.859,-249.38
50.875,-261.71
50.890,-269.14
50.906,-271.45
50.921,-269.26
50.937,-263.6
50.953,-255.46
50.968,-245.57
50.984,-234.32
51.000,-221.97
51.015,-208.84
51.031,-195.41
51.046,-182.34
51.062,-170.37
51.078,-160.06
51.093,-151.54
51.109,-144.62
51.125,-138.6
51.140,-132.31
51.156,-123.81
51.171,-110.68
51.187,-90.52
51.203,-62.26
51.218,-27.25
51.234,10.5
51.250,45.27
51.265,71.77
51.281,87.23
51.296,92.35
51.312,90.69
51.328,86.67
51.343,83.53
51.359,82.29
51.375,82.12
51.390,81.64
51.406,80.25
51.421,78.46
51.437,77.24
51.453,77.2
51.468,77.93
51.484,78.24
51.500,76.81
51.515,72.89
51.531,66.59
51.546,58.63
51.562,49.76
51.578,40.22
51.593,29.74
51.609,17.91
51.625,4.76
51.640,-8.88
51.656,-21.49
51.671,-31.46
51.687,-37.76
51.703,-40.37
51.718,-40.21
51.734,-38.56
51.750,-36.5
51.765,-34.56
51.781,-32.8
51.796,-31.24
51.812,-30.15
51.828,-30.16
51.843,-31.81
51.859,-35.16
51.875,-39.44
51.890,-43.21
51.906,-44.87
51.921,-43.38
51.937,-38.66
51.953,-31.65
51.968,-24.04
51.984,-17.61
52.000,-13.75
52.015,-13.05
52.031,-15.22
52.046,-19.35
52.062,-24.3
52.078,-29.11
52.093,-33.2
52.109,-36.41
52.125,-38.71
52.140,-40.03
52.156,-40.2
52.171,-39.14
52.187,-37.22
52.203,-35.32
52.218,-34.53
52.234,-35.63
52.250,-38.54
52.265,-42.32
52.281,-45.58
52.296,-47.14
52.312,-46.62
52.328,-44.36
52.343,-40.98
52.359,-36.81
52.375,-31.7
52.390,-25.16
52.406,-16.92
52.421,-7.29
52.437,2.84
52.453,12.45
52.468,20.81
52.484,27.8
52.500,33.81
52.515,39.4
52.531,44.95
52.546,50.45
52.562,55.49
52.578,59.45
52.593,61.74
52.609,61.87
52.625,59.51
52.640,54.55
52.656,46.99
52.671,37.04
52.687,25.17
52.703,12.05
52.718,-1.38
52.734,-14.1
52.750,-25.23
52.765,-34.16
52.781,-40.7
52.796,-45.11
52.812,-47.98
52.828,-50.05
52.843,-52.03
52.859,-54.26
52.875,-56.76
52.890,-59.2
52.906,-61.13
52.921,-62.17
52.937,-62.15
52.953,-61.08
52.968,-59.03
52.984,-56.03
53.000,-52.05
53.015,-47.12
53.031,-41.45
53.046,-35.43
53.062,-29.55
53.078,-24.17
53.093,-19.37
53.109,-15.03
53.125,-10.97
53.140,-7.21
53.156,-4.08
53.171,-2.1
53.187,-1.68
53.203,-3.07
53.218,-6.1
53.234,-10.35
53.250,-15.29
53.265,-20.45
53.281,-25.55
53.296,-30.47
53.312,-35.23
53.328,-39.77
53.343,-43.94
53.359,-47.45
53.375,-49.98
53.390,-51.27
53.406,-51.2
53.421,-49.73
53.437,-46.84
53.453,-42.37
53.468,-36.3
53.484,-28.79
53.500,-20.44
53.515,-12.09
53.531,-4.59
53.546,1.63
53.562,6.67
53.578,10.98
53.593,14.97
53.609,18.62
53.625,21.47
53.640,22.91
53.656,22.7
53.671,21.19
53.687,19.4
53.703,18.44
53.718,19.0
53.734,21.07
53.750,24.07
53.765,27.16
53.781,29.61
53.796,30.89
53.812,30.6
53.828,28.55
53.843,24.72
53.859,19.57
53.875,14.09
53.890,9.73
53.906,8.09
53.921,10.33
53.937,16.88
53.953,27.46
53.968,41.34
53.984,57.6
54.000,75.25
54.015,93.3
54.031,110.68
54.046,126.49
54.062,140.16
54.078,151.61
54.093,161.05
54.109,168.59
54.125,173.73
54.140,175.33
54.156,171.85
54.171,162.12
54.187,145.91
54.203,124.31
54.218,99.53
54.234,74.13
54.250,50.51
54.265,30.21
54.281,13.64
54.296,-0.11
54.312,-13.31
54.328,-29.19
54.343,-51.35
54.359,-82.63
54.375,-123.85
54.390,-172.87
54.406,-224.54
54.421,-271.8
54.437,-307.74
54.453,-327.75
54.468,-330.98
54.484,-320.24
54.500,-300.64
54.515,-277.44
54.531,-254.18
54.546,-231.98
54.562,-210.05
54.578,-187.12
54.593,-162.9
54.609,-138.77
54.625,-117.55
54.640,-102.12
54.656,-94.26
54.671,-93.77
54.687,-98.64
54.703,-105.69
54.718,-111.48
54.734,-113.1
54.750,-108.45
54.765,-96.41
54.781,-76.84
54.796,-50.73
54.812,-20.2
54.828,11.64
54.843,41.31
54.859,65.61
54.875,82.31
54.890,90.54
54.906,90.77
54.921,84.56
54.937,74.04
54.953,61.67
54.968,49.73
54.984,40.1
55.000,33.88
55.015,31.32
55.031,31.93
55.046,34.78
55.062,38.86
55.078,43.37
55.093,47.71
55.109,51.5
55.125,54.42
55.140,56.22
55.156,56.72
55.171,56.03
55.187,54.61
55.203,53.15
55.218,52.4
55.234,52.8
55.250,54.36
55.265,56.74
55.281,59.52
55.296,62.43
55.312,65.48
55.328,68.64
55.343,71.51
55.359,73.06
55.375,71.71
55.390,65.85
55.406,54.62
55.421,38.39
55.437,18.92
55.453,-1.2
55.468,-19.47
55.484,-34.21
55.500,-44.96
55.515,-52.25
55.531,-57.02
55.546,-60.04
55.562,-61.66
55.578,-62.01
55.593,-61.34
55.609,-60.23
55.625,-59.4
55.640,-59.32
55.656,-59.75
55.671,-59.71
55.687,-57.82
55.703,-52.87
55.718,-44.38
55.734,-32.86
55.750,-19.72
55.765,-6.97
55.781,3.33
55.796,9.58
55.812,11.04
55.828,8.18
55.843,2.49
55.859,-3.83
55.875,-8.55
55.890,-10.05
55.906,-7.72
55.921,-1.91
55.937,6.28
55.953,15.6
55.968,24.95
55.984,33.55
56.000,40.93
56.015,46.78
56.031,50.83
56.046,52.91
56.062,52.98
56.078,51.31
56.093,48.54
56.109,45.69
56.125,43.89
56.140,44.12
56.156,46.81
56.171,51.77
56.187,58.23
56.203,65.19
56.218,71.69
56.234,77.1
56.250,81.13
56.265,83.74
56.281,85.03
56.296,85.03
56.312,83.71
56.328,81.06
56.343,77.11
56.359,72.12
56.375,66.48
56.390,60.74
56.406,55.35
56.421,50.65
56.437,46.66
56.453,43.07
56.468,39.2
56.484,34.18
56.500,27.08
56.515,17.17
56.531,4.2
56.546,-11.48
56.562,-28.69
56.578,-45.71
56.593,-60.57
56.609,-71.68
56.625,-78.3
56.640,-80.58
56.656,-79.46
56.671,-76.12
56.687,-71.56
56.703,-66.4
56.718,-60.94
56.734,-55.35
56.750,-49.86
56.765,-44.81
56.781,-40.42
56.796,-36.74
56.812,-33.57
56.828,-30.53
56.843,-27.3
56.859,-23.67
56.875,-19.66
56.890,-15.52
56.906,-11.83
56.921,-9.36
56.937,-8.88
56.953,-10.81
56.968,-14.9
56.984,-20.08
57.000,-24.67
57.015,-26.86
57.031,-25.32
57.046,-19.6
57.062,-10.19
57.078,1.78
57.093,14.88
57.109,27.87
57.125,39.84
57.140,50.21
57.156,58.71
57.171,65.12
57.187,69.35
57.203,71.36
57.218,71.3
57.234,69.44
57.250,66.33
57.265,62.67
57.281,59.13
57.296,56.24
57.312,54.17
57.328,52.89
57.343,52.06
57.359,51.26
57.375,50.13
57.390,48.55
57.406,46.64
57.421,44.74
57.437,43.26
57.453,42.51
57.468,42.61
57.484,43.33
57.500,44.22
57.515,44.75
57.531,44.6
57.546,43.77
57.562,42.65
57.578,41.78
57.593,41.45
57.609,41.45
57.625,40.91
57.640,38.57
57.656,33.23
57.671,24.34
57.687,12.29
57.703,-1.64
57.718,-15.7
57.734,-28.28
57.750,-38.39
57.765,-45.8
57.781,-50.86
57.796,-54.19
57.812,-56.41
57.828,-57.93
57.843,-58.99
57.859,-59.74
57.875,-60.25
57.890,-60.46
57.906,-60.17
57.921,-58.95
57.937,-56.31
57.953,-51.85
57.968,-45.45
57.984,-37.4
58.000,-28.33
58.015,-19.07
58.031,-10.46
58.046,-3.26
58.062,2.05
58.078,5.28
58.093,6.52
58.109,6.18
58.125,4.87
58.140,3.43
58.156,2.76
58.171,3.71
58.187,6.75
58.203,11.97
58.218,18.92
58.234,26.83
58.250,34.86
58.265,42.25
58.281,48.47
58.296,53.19
58.312,56.12
58.328,56.96
58.343,55.5
58.359,51.83
58.375,46.45
58.390,40.34
58.406,34.62
58.421,30.26
58.437,27.72
58.453,26.91
58.468,27.45
58.484,28.86
58.500,30.8
58.515,33.06
58.531,35.45
58.546,37.71
58.562,39.49
58.578,40.52
58.593,40.74
58.609,40.34
58.625,39.54
58.640,38.37
58.656,36.58
58.671,33.76
58.687,29.72
58.703,24.65
58.718,19.25
58.734,14.3
58.750,10.27
58.765,6.91
58.781,3.29
58.796,-1.74
58.812,-8.84
58.828,-17.74
58.843,-27.21
58.859,-35.57
58.875,-41.48
58.890,-44.49
58.906,-45.12
58.921,-44.5
58.937,-43.75
58.953,-43.5
58.968,-43.7
58.984,-43.83
59.000,-43.22
59.015,-41.4
59.031,-38.21
59.046,-33.67
59.062,-27.87
59.078,-20.86
59.093,-12.76
59.109,-3.9
59.125,5.07
59.140,13.28
59.156,19.81
59.171,24.05
59.187,25.94
59.203,25.96
59.218,24.95
59.234,23.7
59.250,22.73
59.265,22.21
59.281,22.15
59.296,22.62
59.312,23.89
59.328,26.42
59.343,30.64
59.359,36.74
59.375,44.53
59.390,53.46
59.406,62.87
59.421,72.13
59.437,80.69
59.453,88.03
59.468,93.42
59.484,95.9
59.500,94.47
59.515,88.37
59.531,77.49
59.546,62.53
59.562,44.88
59.578,26.26
59.593,8.24
59.609,-8.06
59.625,-22.04
59.640,-33.4
59.656,-41.88
59.671,-47.1
59.687,-48.62
59.703,-46.08
59.718,-39.53
59.734,-29.5
59.750,-16.97
59.765,-3.15
59.781,10.76
59.796,23.67
59.812,34.54
59.828,42.29
59.843,45.91
59.859,44.8
59.875,39.25
59.890,30.7
59.906,21.52
59.921,14.22
59.937,10.5
59.953,10.52
59.968,12.92
59.984,15.46
