timestamp,value
00.000,5.49
00.015,12.3
00.031,19.79
00.046,27.57
00.062,35.3
00.078,42.66
00.093,49.39
00.109,55.26
00.125,60.19
00.140,64.15
00.156,67.28
00.171,69.8
00.187,71.89
00.203,73.75
00.218,75.46
00.234,77.02
00.250,78.37
00.265,79.44
00.281,80.22
00.296,80.83
00.312,81.41
00.328,82.08
00.343,82.78
00.359,83.24
00.375,82.97
00.390,81.46
00.406,78.3
00.421,73.37
00.437,66.9
00.453,59.26
00.468,50.89
00.484,42.06
00.500,32.89
00.515,23.35
00.531,13.4
00.546,3.1
00.562,-7.37
00.578,-17.68
00.593,-27.51
00.609,-36.63
00.625,-44.89
00.640,-52.25
00.656,-58.73
00.671,-64.28
00.687,-68.87
00.703,-72.3
00.718,-74.29
00.734,-74.43
00.750,-72.34
00.765,-67.84
00.781,-61.03
00.796,-52.36
00.812,-42.54
00.828,-32.39
00.843,-22.64
00.859,-13.81
00.875,-6.17
00.890,0.17
00.906,5.22
00.921,9.04
00.937,11.73
00.953,13.4
00.968,14.23
00.984,14.4
01.000,14.07
01.015,13.41
01.031,12.61
01.046,11.77
01.062,10.9
01.078,9.98
01.093,8.95
01.109,7.76
01.125,6.48
01.140,5.22
01.156,4.14
01.171,3.4
01.187,3.02
01.203,2.87
01.218,2.7
01.234,2.26
01.250,1.31
01.265,-0.22
01.281,-2.27
01.296,-4.7
01.312,-7.3
01.328,-9.93
01.343,-12.55
01.359,-15.13
01.375,-17.73
01.390,-20.44
01.406,-23.39
01.421,-26.65
01.437,-30.2
01.453,-33.72
01.468,-36.61
01.484,-38.08
01.500,-37.28
01.515,-33.7
01.531,-27.39
01.546,-18.92
01.562,-9.31
01.578,0.35
01.593,9.2
01.609,16.72
01.625,22.69
01.640,27.1
01.656,29.97
01.671,31.36
01.687,31.41
01.703,30.37
01.718,28.58
01.734,26.47
01.750,24.42
01.765,22.67
01.781,21.37
01.796,20.55
01.812,20.15
01.828,20.09
01.843,20.23
01.859,20.37
01.875,20.35
01.890,20.05
01.906,19.44
01.921,18.55
01.937,17.45
01.953,16.11
01.968,14.49
01.984,12.48
02.000,10.04
02.015,7.24
02.031,4.24
02.046,1.23
02.062,-1.67
02.078,-4.43
02.093,-7.18
02.109,-10.04
02.125,-13.16
02.140,-16.64
02.156,-20.56
02.171,-24.97
02.187,-29.74
02.203,-34.55
02.218,-38.67
02.234,-41.21
02.250,-41.22
02.265,-38.15
02.281,-31.92
02.296,-23.03
02.312,-12.37
02.328,-0.9
02.343,10.48
02.359,21.16
02.375,30.6
02.390,38.44
02.406,44.29
02.421,47.95
02.437,49.42
02.453,49.02
02.468,47.35
02.484,45.16
02.500,43.1
02.515,41.56
02.531,40.65
02.546,40.2
02.562,39.96
02.578,39.72
02.593,39.4
02.609,39.04
02.625,38.7
02.640,38.37
02.656,37.93
02.671,37.22
02.687,36.2
02.703,34.91
02.718,33.59
02.734,32.47
02.750,31.75
02.765,31.41
02.781,31.29
02.796,31.16
02.812,30.84
02.828,30.26
02.843,29.4
02.859,28.31
02.875,26.98
02.890,25.4
02.906,23.6
02.921,21.74
02.937,20.05
02.953,18.73
02.968,17.82
02.984,17.2
03.000,16.6
03.015,15.79
03.031,14.7
03.046,13.41
03.062,12.13
03.078,11.06
03.093,10.29
03.109,9.75
03.125,9.26
03.140,8.63
03.156,7.69
03.171,6.34
03.187,4.61
03.203,2.59
03.218,0.48
03.234,-1.54
03.250,-3.3
03.265,-4.77
03.281,-5.97
03.296,-6.99
03.312,-7.91
03.328,-8.77
03.343,-9.62
03.359,-10.57
03.375,-11.67
03.390,-12.98
03.406,-14.48
03.421,-16.09
03.437,-17.74
03.453,-19.45
03.468,-21.25
03.484,-23.26
03.500,-25.53
03.515,-28.07
03.531,-30.78
03.546,-33.5
03.562,-36.08
03.578,-38.35
03.593,-40.28
03.609,-41.89
03.625,-43.44
03.640,-45.28
03.656,-47.77
03.671,-50.93
03.687,-54.25
03.703,-56.67
03.718,-56.8
03.734,-53.49
03.750,-46.18
03.765,-35.25
03.781,-21.82
03.796,-7.39
03.812,6.56
03.828,18.85
03.843,28.62
03.859,35.36
03.875,38.84
03.890,39.13
03.906,36.78
03.921,32.75
03.937,28.25
03.953,24.32
03.968,21.66
03.984,20.3
04.000,19.84
04.015,19.6
04.031,19.03
04.046,17.84
04.062,16.19
04.078,14.5
04.093,13.18
04.109,12.51
04.125,12.41
04.140,12.47
04.156,12.17
04.171,11.07
04.187,9.02
04.203,6.21
04.218,3.04
04.234,-0.15
04.250,-3.16
04.265,-6.04
04.281,-9.0
04.296,-12.23
04.312,-15.87
04.328,-19.93
04.343,-24.26
04.359,-28.62
04.375,-32.48
04.390,-35.07
04.406,-35.51
04.421,-33.03
04.437,-27.27
04.453,-18.58
04.468,-7.94
04.484,3.34
04.500,13.93
04.515,22.87
04.531,29.75
04.546,34.58
04.562,37.6
04.578,39.13
04.593,39.43
04.609,38.74
04.625,37.41
04.640,35.77
04.656,34.17
04.671,32.85
04.687,31.88
04.703,31.2
04.718,30.72
04.734,30.41
04.750,30.32
04.765,30.59
04.781,31.23
04.796,32.11
04.812,32.95
04.828,33.41
04.843,33.22
04.859,32.33
04.875,30.92
04.890,29.28
04.906,27.69
04.921,26.24
04.937,24.89
04.953,23.52
04.968,22.0
04.984,20.31
05.000,18.49
05.015,16.65
05.031,14.84
05.046,13.1
05.062,11.4
05.078,9.74
05.093,8.13
05.109,6.61
05.125,5.19
05.140,3.88
05.156,2.68
05.171,1.54
05.187,0.5
05.203,-0.45
05.218,-1.28
05.234,-2.06
05.250,-2.9
05.265,-3.89
05.281,-5.03
05.296,-6.25
05.312,-7.47
05.328,-8.56
05.343,-9.57
05.359,-10.57
05.375,-11.64
05.390,-12.81
05.406,-14.01
05.421,-15.12
05.437,-16.11
05.453,-17.11
05.468,-18.35
05.484,-20.17
05.500,-22.73
05.515,-26.0
05.531,-29.72
05.546,-33.53
05.562,-37.11
05.578,-40.27
05.593,-43.01
05.609,-45.45
05.625,-47.87
05.640,-50.53
05.656,-53.68
05.671,-57.49
05.687,-61.83
05.703,-66.24
05.718,-69.92
05.734,-71.84
05.750,-70.97
05.765,-66.65
05.781,-58.77
05.796,-47.82
05.812,-34.78
05.828,-20.83
05.843,-7.2
05.859,5.12
05.875,15.47
05.890,23.49
05.906,29.12
05.921,32.51
05.937,33.98
05.953,33.87
05.968,32.64
05.984,30.72
06.000,28.5
06.015,26.31
06.031,24.4
06.046,22.87
06.062,21.76
06.078,20.99
06.093,20.41
06.109,19.87
06.125,19.17
06.140,18.09
06.156,16.38
06.171,13.86
06.187,10.46
06.203,6.35
06.218,1.79
06.234,-2.84
06.250,-7.17
06.265,-11.05
06.281,-14.45
06.296,-17.61
06.312,-20.82
06.328,-24.33
06.343,-28.11
06.359,-31.83
06.375,-34.8
06.390,-36.13
06.406,-35.0
06.421,-30.85
06.437,-23.67
06.453,-13.96
06.468,-2.63
06.484,9.18
06.500,20.38
06.515,30.06
06.531,37.74
06.546,43.17
06.562,46.5
06.578,48.01
06.593,48.12
06.609,47.23
06.625,45.67
06.640,43.61
06.656,41.15
06.671,38.33
06.687,35.19
06.703,31.89
06.718,28.64
06.734,25.64
06.750,22.97
06.765,20.52
06.781,18.08
06.796,15.34
06.812,12.17
06.828,8.51
06.843,4.53
06.859,0.4
06.875,-3.72
06.890,-7.76
06.906,-11.76
06.921,-15.77
06.937,-19.88
06.953,-24.22
06.968,-28.95
06.984,-34.08
07.000,-39.32
07.015,-43.99
07.031,-47.03
07.046,-47.31
07.062,-43.96
07.078,-36.74
07.093,-26.14
07.109,-13.26
07.125,0.58
07.140,14.1
07.156,26.3
07.171,36.49
07.187,44.3
07.203,49.62
07.218,52.57
07.234,53.44
07.250,52.7
07.265,50.86
07.281,48.38
07.296,45.64
07.312,42.96
07.328,40.48
07.343,38.25
07.359,36.16
07.375,34.03
07.390,31.68
07.406,29.06
07.421,26.31
07.437,23.65
07.453,21.26
07.468,19.07
07.484,16.8
07.500,14.13
07.515,10.84
07.531,7.04
07.546,3.09
07.562,-0.59
07.578,-3.72
07.593,-6.32
07.609,-8.74
07.625,-11.46
07.640,-14.94
07.656,-19.47
07.671,-25.07
07.687,-31.42
07.703,-37.87
07.718,-43.47
07.734,-47.14
07.750,-47.91
07.765,-45.12
07.781,-38.7
07.796,-29.16
07.812,-17.52
07.828,-5.06
07.843,6.93
07.859,17.43
07.875,25.8
07.890,31.76
07.906,35.37
07.921,36.84
07.937,36.51
07.953,34.8
07.968,32.11
07.984,28.78
08.000,25.04
08.015,20.94
08.031,16.42
08.046,11.39
08.062,5.93
08.078,0.34
08.093,-4.92
08.109,-9.49
08.125,-13.34
08.140,-16.87
08.156,-20.89
08.171,-26.26
08.187,-33.55
08.203,-42.74
08.218,-53.18
08.234,-63.92
08.250,-74.17
08.265,-83.62
08.281,-92.62
08.296,-101.92
08.312,-112.25
08.328,-123.94
08.343,-136.77
08.359,-150.23
08.375,-163.78
08.390,-176.84
08.406,-188.82
08.421,-198.94
08.437,-206.54
08.453,-211.37
08.468,-213.87
08.484,-214.98
08.500,-215.38
08.515,-214.75
08.531,-211.42
08.546,-202.94
08.562,-187.37
08.578,-164.6
08.593,-136.89
08.609,-108.26
08.625,-82.91
08.640,-63.52
08.656,-50.12
08.671,-40.13
08.687,-29.43
08.703,-14.07
08.718,8.07
08.734,36.33
08.750,67.41
08.765,96.54
08.781,119.31
08.796,133.31
08.812,138.7
08.828,137.64
08.843,132.82
08.859,126.36
08.875,119.23
08.890,111.84
08.906,104.86
08.921,99.54
08.937,97.46
08.953,99.71
08.968,106.16
08.984,115.44
09.000,125.66
09.015,135.2
09.031,143.37
09.046,150.42
09.062,157.13
09.078,164.28
09.093,172.37
09.109,181.38
09.125,190.76
09.140,199.45
09.156,205.94
09.171,208.53
09.187,205.92
09.203,197.63
09.218,184.1
09.234,166.58
09.250,146.6
09.265,125.64
09.281,105.01
09.296,85.92
09.312,69.72
09.328,57.94
09.343,51.81
09.359,51.91
09.375,57.64
09.390,67.31
09.406,78.6
09.421,89.21
09.437,97.52
09.453,102.85
09.468,105.4
09.484,105.75
09.500,104.51
09.515,101.98
09.531,98.21
09.546,93.2
09.562,87.06
09.578,80.19
09.593,73.2
09.609,66.7
09.625,61.04
09.640,56.38
09.656,52.6
09.671,49.68
09.687,47.78
09.703,47.24
09.718,48.31
09.734,50.93
09.750,54.45
09.765,57.72
09.781,59.49
09.796,58.82
09.812,55.56
09.828,50.54
09.843,45.26
09.859,41.32
09.875,39.69
09.890,40.07
09.906,40.78
09.921,39.22
09.937,32.76
09.953,19.8
09.968,0.55
09.984,-23.05
10.000,-47.92
10.015,-70.98
10.031,-89.97
10.046,-103.84
10.062,-112.51
10.078,-116.45
10.093,-116.31
10.109,-112.78
10.125,-106.73
10.140,-99.24
10.156,-91.35
10.171,-83.9
10.187,-77.46
10.203,-72.65
10.218,-70.63
10.234,-72.91
10.250,-80.46
10.265,-92.78
10.281,-107.28
10.296,-119.82
10.312,-126.39
10.328,-124.7
10.343,-115.25
10.359,-100.87
10.375,-85.22
10.390,-71.08
10.406,-59.49
10.421,-49.97
10.437,-41.37
10.453,-32.99
10.468,-24.83
10.484,-17.34
10.500,-10.79
10.515,-4.95
10.531,0.88
10.546,7.37
10.562,14.86
10.578,22.91
10.593,30.32
10.609,35.66
10.625,38.0
10.640,37.56
10.656,35.98
10.671,35.77
10.687,39.19
10.703,47.18
10.718,58.78
10.734,71.38
10.750,81.88
10.765,88.01
10.781,89.28
10.796,87.14
10.812,84.16
10.828,82.73
10.843,84.0
10.859,87.42
10.875,90.99
10.890,92.35
10.906,89.86
10.921,83.3
10.937,73.93
10.953,63.6
10.968,53.82
10.984,44.86
11.000,35.74
11.015,24.98
11.031,11.38
11.046,-5.26
11.062,-24.19
11.078,-44.08
11.093,-63.53
11.109,-81.1
11.125,-95.33
11.140,-104.99
11.156,-109.81
11.171,-111.45
11.187,-113.64
11.203,-121.09
11.218,-137.09
11.234,-161.46
11.250,-189.81
11.265,-215.13
11.281,-230.84
11.296,-233.56
11.312,-224.14
11.328,-206.47
11.343,-185.14
11.359,-163.26
11.375,-141.84
11.390,-120.66
11.406,-99.61
11.421,-79.46
11.437,-61.49
11.453,-46.57
11.468,-34.39
11.484,-23.48
11.500,-12.04
11.515,1.14
11.531,15.96
11.546,31.07
11.562,44.52
11.578,54.86
11.593,62.18
11.609,68.61
11.625,78.01
11.640,94.4
11.656,120.08
11.671,154.14
11.687,192.16
11.703,227.45
11.718,253.12
11.734,264.44
11.750,260.38
11.765,243.64
11.781,219.32
11.796,192.84
11.812,168.1
11.828,146.56
11.843,127.6
11.859,109.65
11.875,91.6
11.890,73.45
11.906,56.21
11.921,41.24
11.937,29.5
11.953,21.11
11.968,15.53
11.984,12.02
12.000,9.85
12.015,8.37
12.031,6.71
12.046,3.86
12.062,-1.02
12.078,-8.1
12.093,-16.83
12.109,-26.45
12.125,-36.41
12.140,-46.77
12.156,-57.89
12.171,-69.89
12.187,-82.18
12.203,-93.6
12.218,-102.91
12.234,-109.48
12.250,-113.56
12.265,-116.0
12.281,-117.72
12.296,-119.29
12.312,-120.95
12.328,-122.87
12.343,-125.55
12.359,-129.83
12.375,-136.52
12.390,-146.07
12.406,-158.21
12.421,-172.1
12.437,-186.72
12.453,-201.34
12.468,-215.61
12.484,-229.07
12.500,-240.71
12.515,-248.38
12.531,-249.11
12.546,-239.96
12.562,-219.25
12.578,-187.56
12.593,-147.92
12.609,-104.91
12.625,-63.28
12.640,-26.63
12.656,3.36
12.671,26.88
12.687,45.2
12.703,59.9
12.718,72.13
12.734,82.53
12.750,91.47
12.765,99.39
12.781,106.94
12.796,114.84
12.812,123.52
12.828,132.73
12.843,141.48
12.859,148.45
12.875,152.77
12.890,154.61
12.906,155.19
12.921,156.11
12.937,158.5
12.953,162.25
12.968,165.93
12.984,167.57
13.000,165.57
13.015,159.32
13.031,149.2
13.046,136.09
13.062,120.71
13.078,103.36
13.093,83.93
13.109,62.38
13.125,39.04
13.140,14.76
13.156,-9.15
13.171,-31.23
13.187,-49.91
13.203,-63.81
13.218,-71.81
13.234,-73.5
13.250,-69.33
13.265,-60.72
13.281,-49.73
13.296,-38.54
13.312,-29.01
13.328,-22.26
13.343,-18.74
13.359,-18.43
13.375,-21.02
13.390,-26.06
13.406,-32.94
13.421,-41.02
13.437,-49.59
13.453,-58.25
13.468,-66.87
13.484,-75.75
13.500,-85.31
13.515,-95.99
13.531,-108.03
13.546,-121.31
13.562,-135.25
13.578,-148.55
13.593,-159.2
13.609,-164.67
13.625,-162.56
13.640,-151.44
13.656,-131.56
13.671,-105.02
13.687,-75.24
13.703,-45.93
13.718,-20.02
13.734,1.07
13.750,17.31
13.765,29.58
13.781,38.83
13.796,45.75
13.812,50.6
13.828,53.44
13.843,54.37
13.859,53.72
13.875,51.91
13.890,49.27
13.906,45.93
13.921,41.7
13.937,36.34
13.953,29.79
13.968,22.44
13.984,15.22
14.000,9.45
14.015,6.5
14.031,7.26
14.046,11.94
14.062,19.91
14.078,30.16
14.093,41.7
14.109,53.9
14.125,66.51
14.140,79.34
14.156,91.93
14.171,103.43
14.187,112.79
14.203,119.17
14.218,122.43
14.234,123.08
14.250,122.13
14.265,120.58
14.281,119.08
14.296,117.87
14.312,116.93
14.328,116.23
14.343,115.86
14.359,116.02
14.375,116.73
14.390,117.71
14.406,118.47
14.421,118.41
14.437,117.02
14.453,114.09
14.468,109.55
14.484,103.35
14.500,95.25
14.515,84.77
14.531,71.46
14.546,55.25
14.562,36.65
14.578,16.78
14.593,-2.98
14.609,-21.41
14.625,-37.83
14.640,-52.26
14.656,-65.14
14.671,-77.1
14.687,-88.51
14.703,-99.52
14.718,-110.14
14.734,-120.44
14.750,-130.79
14.765,-141.83
14.781,-154.32
14.796,-168.7
14.812,-184.76
14.828,-201.53
14.843,-217.59
14.859,-231.57
14.875,-242.7
14.890,-250.84
14.906,-255.98
14.921,-257.62
14.937,-254.27
14.953,-244.0
14.968,-225.29
14.984,-198.21
15.000,-164.91
15.015,-129.0
15.031,-94.34
15.046,-63.68
15.062,-37.96
15.078,-16.56
15.093,1.75
15.109,17.98
15.125,32.39
15.140,44.74
15.156,54.86
15.171,62.96
15.187,69.73
15.203,75.97
15.218,82.22
15.234,88.42
15.250,94.07
15.265,98.53
15.281,101.36
15.296,102.7
15.312,103.09
15.328,103.4
15.343,104.34
15.359,106.2
15.375,108.8
15.390,111.54
15.406,113.77
15.421,114.98
15.437,114.96
15.453,113.7
15.468,111.31
15.484,107.88
15.500,103.43
15.515,97.94
15.531,91.46
15.546,84.01
15.562,75.56
15.578,66.05
15.593,55.35
15.609,43.54
15.625,31.19
15.640,19.34
15.656,9.36
15.671,2.57
15.687,-0.23
15.703,0.85
15.718,4.94
15.734,10.62
15.750,16.41
15.765,21.12
15.781,24.03
15.796,24.87
15.812,23.71
15.828,20.8
15.843,16.44
15.859,10.91
15.875,4.52
15.890,-2.4
15.906,-9.3
15.921,-15.44
15.937,-19.93
15.953,-21.93
15.968,-20.95
15.984,-16.98
16.000,-10.58
16.015,-2.75
16.031,5.31
16.046,12.54
16.062,18.25
16.078,22.15
16.093,24.36
16.109,25.3
16.125,25.49
16.140,25.39
16.156,25.3
16.171,25.18
16.187,24.92
16.203,24.31
16.218,23.21
16.234,21.6
16.250,19.52
16.265,16.99
16.281,13.95
16.296,10.28
16.312,5.89
16.328,0.89
16.343,-4.47
16.359,-9.88
16.375,-15.21
16.390,-20.67
16.406,-26.76
16.421,-33.89
16.437,-41.94
16.453,-49.98
16.468,-56.31
16.484,-59.08
16.500,-57.07
16.515,-50.42
16.531,-40.67
16.546,-30.33
16.562,-21.93
16.578,-17.24
16.593,-16.81
16.609,-20.04
16.625,-25.66
16.640,-32.3
16.656,-38.93
16.671,-44.95
16.687,-50.15
16.703,-54.5
16.718,-58.03
16.734,-60.87
16.750,-63.2
16.765,-65.26
16.781,-67.19
16.796,-68.82
16.812,-69.41
16.828,-67.77
16.843,-62.6
16.859,-53.03
16.875,-39.1
16.890,-21.88
16.906,-3.25
16.921,14.75
16.937,30.5
16.953,43.35
16.968,53.69
16.984,62.56
17.000,71.17
17.015,80.19
17.031,89.45
17.046,97.92
17.062,104.12
17.078,106.74
17.093,105.16
17.109,99.79
17.125,91.84
17.140,82.95
17.156,74.53
17.171,67.36
17.187,61.43
17.203,56.1
17.218,50.48
17.234,43.8
17.250,35.84
17.265,27.06
17.281,18.56
17.296,11.74
17.312,7.75
17.328,7.08
17.343,9.32
17.359,13.29
17.375,17.55
17.390,20.96
17.406,23.09
17.421,24.19
17.437,24.79
17.453,25.13
17.468,24.8
17.484,22.76
17.500,17.83
17.515,9.27
17.531,-2.72
17.546,-16.96
17.562,-31.82
17.578,-45.85
17.593,-58.33
17.609,-69.4
17.625,-79.77
17.640,-90.35
17.656,-102.04
17.671,-115.58
17.687,-131.39
17.703,-149.31
17.718,-168.09
17.734,-185.21
17.750,-197.3
17.765,-201.18
17.781,-195.12
17.796,-179.64
17.812,-157.42
17.828,-132.23
17.843,-107.59
17.859,-85.75
17.875,-67.46
17.890,-52.49
17.906,-40.35
17.921,-30.79
17.937,-23.69
17.953,-18.85
17.968,-15.69
17.984,-13.39
18.000,-11.26
18.015,-9.07
18.031,-7.22
18.046,-6.41
18.062,-7.22
18.078,-9.6
18.093,-12.69
18.109,-14.99
18.125,-14.95
18.140,-11.58
18.156,-4.77
18.171,4.52
18.187,14.86
18.203,24.79
18.218,33.4
18.234,40.46
18.250,46.25
18.265,51.16
18.281,55.35
18.296,58.65
18.312,60.64
18.328,61.0
18.343,59.64
18.359,56.9
18.375,53.32
18.390,49.51
18.406,45.93
18.421,42.79
18.437,40.16
18.453,37.97
18.468,36.1
18.484,34.44
18.500,32.88
18.515,31.29
18.531,29.61
18.546,27.77
18.562,25.74
18.578,23.51
18.593,21.03
18.609,18.31
18.625,15.34
18.640,12.07
18.656,8.46
18.671,4.52
18.687,0.34
18.703,-3.93
18.718,-8.09
18.734,-11.96
18.750,-15.4
18.765,-18.45
18.781,-21.29
18.796,-24.24
18.812,-27.57
18.828,-31.41
18.843,-35.6
18.859,-39.51
18.875,-42.21
18.890,-42.7
18.906,-40.2
18.921,-34.54
18.937,-26.19
18.953,-16.17
18.968,-5.71
18.984,4.13
19.000,12.68
19.015,19.69
19.031,25.19
19.046,29.36
19.062,32.4
19.078,34.55
19.093,36.01
19.109,36.97
19.125,37.59
19.140,37.92
19.156,37.97
19.171,37.73
19.187,37.31
19.203,36.9
19.218,36.72
19.234,36.9
19.250,37.39
19.265,37.96
19.281,38.32
19.296,38.18
19.312,37.46
19.328,36.18
19.343,34.5
19.359,32.55
19.375,30.31
19.390,27.68
19.406,24.47
19.421,20.57
19.437,15.97
19.453,10.95
19.468,5.82
19.484,0.98
19.500,-3.37
19.515,-7.17
19.531,-10.58
19.546,-13.91
19.562,-17.51
19.578,-21.7
19.593,-26.61
19.609,-32.12
19.625,-37.71
19.640,-42.5
19.656,-45.42
19.671,-45.48
19.687,-42.14
19.703,-35.55
19.718,-26.52
19.734,-16.29
19.750,-6.08
19.765,3.34
19.781,11.72
19.796,19.16
19.812,25.83
19.828,31.71
19.843,36.43
19.859,39.6
19.875,40.91
19.890,40.45
19.906,38.71
19.921,36.45
19.937,34.36
19.953,32.96
19.968,32.34
19.984,32.25
20.000,32.15
20.015,31.4
20.031,29.48
20.046,26.22
20.062,21.91
20.078,17.24
20.093,13.09
20.109,10.21
20.125,8.92
20.140,8.98
20.156,9.79
20.171,10.62
20.187,10.93
20.203,10.58
20.218,9.76
20.234,8.88
20.250,8.31
20.265,8.12
20.281,8.03
20.296,7.31
20.312,5.08
20.328,0.64
20.343,-6.22
20.359,-14.96
20.375,-24.45
20.390,-33.23
20.406,-39.94
20.421,-43.65
20.437,-44.0
20.453,-41.1
20.468,-35.35
20.484,-27.23
20.500,-17.19
20.515,-5.76
20.531,6.45
20.546,18.7
20.562,30.13
20.578,39.89
20.593,47.32
20.609,51.99
20.625,53.82
20.640,53.0
20.656,49.96
20.671,45.24
20.687,39.42
20.703,33.09
20.718,26.8
20.734,20.98
20.750,15.97
20.765,12.03
20.781,9.2
20.796,7.38
20.812,6.26
20.828,5.37
20.843,4.28
20.859,2.69
20.875,0.57
20.890,-1.91
20.906,-4.44
20.921,-6.77
20.937,-8.83
20.953,-10.65
20.968,-12.34
20.984,-13.94
21.000,-15.37
21.015,-16.56
21.031,-17.56
21.046,-18.56
21.062,-19.89
21.078,-21.9
21.093,-24.75
21.109,-28.45
21.125,-32.9
21.140,-37.91
21.156,-43.2
21.171,-48.23
21.187,-52.2
21.203,-54.08
21.218,-52.86
21.234,-47.93
21.250,-39.39
21.265,-28.11
21.281,-15.45
21.296,-2.94
21.312,8.2
21.328,17.16
21.343,23.65
21.359,27.74
21.375,29.74
21.390,30.0
21.406,28.9
21.421,26.74
21.437,23.82
21.453,20.41
21.468,16.9
21.484,13.8
21.500,11.7
21.515,11.03
21.531,11.85
21.546,13.77
21.562,16.04
21.578,17.83
21.593,18.53
21.609,17.87
21.625,15.94
21.640,13.02
21.656,9.34
21.671,5.03
21.687,0.11
21.703,-5.31
21.718,-10.99
21.734,-16.63
21.750,-21.92
21.765,-26.73
21.781,-31.02
21.796,-34.83
21.812,-38.15
21.828,-40.93
21.843,-43.1
21.859,-44.73
21.875,-46.03
21.890,-47.26
21.906,-48.48
21.921,-49.33
21.937,-48.94
21.953,-46.18
21.968,-40.17
21.984,-30.72
22.000,-18.55
22.015,-5.16
22.031,7.76
22.046,18.92
22.062,27.88
22.078,35.02
22.093,41.18
22.109,47.02
22.125,52.65
22.140,57.45
22.156,60.4
22.171,60.55
22.187,57.39
22.203,51.18
22.218,42.84
22.234,33.75
22.250,25.33
22.265,18.64
22.281,14.17
22.296,11.69
22.312,10.49
22.328,9.74
22.343,8.87
22.359,7.74
22.375,6.62
22.390,5.86
22.406,5.63
22.421,5.9
22.437,6.49
22.453,7.26
22.468,8.24
22.484,9.37
22.500,10.3
22.515,10.31
22.531,8.52
22.546,4.34
22.562,-2.13
22.578,-9.98
22.593,-17.95
22.609,-25.03
22.625,-30.94
22.640,-36.1
22.656,-41.11
22.671,-46.12
22.687,-50.55
22.703,-53.18
22.718,-52.76
22.734,-48.66
22.750,-41.25
22.765,-31.76
22.781,-21.73
22.796,-12.45
22.812,-4.62
22.828,1.72
22.843,6.83
22.859,10.97
22.875,14.22
22.890,16.45
22.906,17.56
22.921,17.6
22.937,16.94
22.953,16.1
22.968,15.62
22.984,15.82
23.000,16.64
23.015,17.67
23.031,18.43
23.046,18.54
23.062,17.93
23.078,16.84
23.093,15.7
23.109,14.82
23.125,14.32
23.140,13.99
23.156,13.48
23.171,12.45
23.187,10.78
23.203,8.51
23.218,5.87
23.234,3.02
23.250,0.09
23.265,-2.88
23.281,-5.86
23.296,-8.75
23.312,-11.49
23.328,-14.04
23.343,-16.5
23.359,-19.07
23.375,-22.04
23.390,-25.56
23.406,-29.54
23.421,-33.5
23.437,-36.64
23.453,-37.98
23.468,-36.75
23.484,-32.53
23.500,-25.51
23.515,-16.46
23.531,-6.49
23.546,3.26
23.562,11.86
23.578,18.86
23.593,24.21
23.609,28.07
23.625,30.69
23.640,32.25
23.656,32.81
23.671,32.49
23.687,31.49
23.703,30.12
23.718,28.76
23.734,27.66
23.750,26.87
23.765,26.3
23.781,25.67
23.796,24.75
23.812,23.4
23.828,21.59
23.843,19.38
23.859,16.85
23.875,14.14
23.890,11.39
23.906,8.82
23.921,6.55
23.937,4.59
23.953,2.79
23.968,0.92
23.984,-1.3
24.000,-3.96
24.015,-6.94
24.031,-9.98
24.046,-12.76
24.062,-15.09
24.078,-17.0
24.093,-18.63
24.109,-20.37
24.125,-22.55
24.140,-25.43
24.156,-29.11
24.171,-33.39
24.187,-37.68
24.203,-41.01
24.218,-42.12
24.234,-39.77
24.250,-33.18
24.265,-22.39
24.281,-8.44
24.296,6.81
24.312,21.18
24.328,32.72
24.343,40.34
24.359,43.84
24.375,43.86
24.390,41.42
24.406,37.49
24.421,32.86
24.437,28.08
24.453,23.56
24.468,19.69
24.484,16.69
24.500,14.62
24.515,13.27
24.531,12.21
24.546,10.96
24.562,9.23
24.578,6.95
24.593,4.4
24.609,2.06
24.625,0.45
24.640,-0.03
24.656,0.71
24.671,2.3
24.687,4.04
24.703,5.2
24.718,5.19
24.734,3.9
24.750,1.62
24.765,-1.15
24.781,-4.06
24.796,-7.03
24.812,-10.24
24.828,-13.93
24.843,-18.06
24.859,-22.41
24.875,-26.6
24.890,-30.45
24.906,-34.07
24.921,-37.8
24.937,-41.83
24.953,-45.94
24.968,-49.38
24.984,-51.05
25.000,-49.89
25.015,-45.19
25.031,-36.96
25.046,-25.81
25.062,-12.96
25.078,0.16
25.093,12.11
25.109,21.88
25.125,28.9
25.140,33.2
25.156,35.23
25.171,35.7
25.187,35.36
25.203,34.77
25.218,34.3
25.234,34.07
25.250,34.12
25.265,34.39
25.281,34.77
25.296,35.16
25.312,35.48
25.328,35.69
25.343,35.75
25.359,35.65
25.375,35.37
25.390,34.85
25.406,34.07
25.421,33.02
25.437,31.77
25.453,30.35
25.468,28.86
25.484,27.28
25.500,25.6
25.515,23.77
25.531,21.75
25.546,19.59
25.562,17.38
25.578,15.23
25.593,13.22
25.609,11.37
25.625,9.62
25.640,7.94
25.656,6.26
25.671,4.6
25.687,3.03
25.703,1.64
25.718,0.48
25.734,-0.43
25.750,-1.17
25.765,-1.87
25.781,-2.68
25.796,-3.75
25.812,-5.18
25.828,-6.91
25.843,-8.8
25.859,-10.55
25.875,-11.86
25.890,-12.54
25.906,-12.61
25.921,-12.36
25.937,-12.19
25.953,-12.48
25.968,-13.39
25.984,-14.74
26.000,-16.13
26.015,-17.06
26.031,-17.09
26.046,-15.97
26.062,-13.66
26.078,-10.35
26.093,-6.42
26.109,-2.42
26.125,0.95
26.140,3.09
26.156,3.64
26.171,2.75
26.187,0.96
26.203,-0.98
26.218,-2.64
26.234,-4.16
26.250,-6.29
26.265,-10.1
26.281,-16.37
26.296,-25.16
26.312,-35.72
26.328,-46.82
26.343,-57.27
26.359,-66.39
26.375,-74.13
26.390,-80.81
26.406,-86.77
26.421,-91.92
26.437,-95.69
26.453,-97.09
26.468,-95.17
26.484,-89.32
26.500,-79.58
26.515,-66.64
26.531,-51.64
26.546,-35.88
26.562,-20.45
26.578,-6.19
26.593,6.37
26.609,16.83
26.625,24.84
26.640,30.14
26.656,32.64
26.671,32.71
26.687,31.03
26.703,28.57
26.718,26.25
26.734,24.67
26.750,23.95
26.765,23.83
26.781,23.85
26.796,23.52
26.812,22.69
26.828,21.39
26.843,19.9
26.859,18.53
26.875,17.43
26.890,16.51
26.906,15.44
26.921,13.79
26.937,11.23
26.953,7.79
26.968,3.73
26.984,-0.41
27.000,-4.11
27.015,-7.04
27.031,-9.26
27.046,-11.02
27.062,-12.73
27.078,-14.74
27.093,-17.2
27.109,-20.1
27.125,-23.15
27.140,-25.92
27.156,-27.87
27.171,-28.36
27.187,-26.95
27.203,-23.29
27.218,-17.42
27.234,-9.62
27.250,-0.4
27.265,9.63
27.281,19.85
27.296,29.64
27.312,38.48
27.328,45.85
27.343,51.41
27.359,55.03
27.375,56.9
27.390,57.51
27.406,57.62
27.421,58.11
27.437,59.72
27.453,62.9
27.468,67.7
27.484,73.72
27.500,80.3
27.515,86.79
27.531,92.63
27.546,97.7
27.562,102.45
27.578,107.95
27.593,115.75
27.609,127.11
27.625,142.3
27.640,159.78
27.656,176.25
27.671,187.49
27.687,189.8
27.703,181.4
27.718,163.03
27.734,137.56
27.750,108.65
27.765,79.6
27.781,52.58
27.796,28.56
27.812,7.89
27.828,-9.3
27.843,-22.93
27.859,-33.21
27.875,-40.72
27.890,-46.36
27.906,-51.03
27.921,-55.16
27.937,-58.62
27.953,-60.87
27.968,-61.31
27.984,-59.7
28.000,-56.37
28.015,-52.21
28.031,-48.59
28.046,-46.97
28.062,-48.61
28.078,-54.19
28.093,-63.69
28.109,-76.46
28.125,-91.46
28.140,-107.71
28.156,-124.42
28.171,-141.07
28.187,-157.11
28.203,-171.74
28.218,-183.83
28.234,-192.16
28.250,-195.87
28.265,-194.8
28.281,-189.57
28.296,-181.4
28.312,-171.65
28.328,-161.46
28.343,-151.41
28.359,-141.7
28.375,-132.33
28.390,-123.32
28.406,-114.94
28.421,-107.65
28.437,-101.93
28.453,-98.04
28.468,-95.83
28.484,-94.61
28.500,-93.24
28.515,-90.32
28.531,-84.6
28.546,-75.26
28.562,-62.3
28.578,-46.47
28.593,-29.15
28.609,-11.97
28.625,3.68
28.640,16.83
28.656,27.16
28.671,34.73
28.687,39.88
28.703,42.97
28.718,44.39
28.734,44.55
28.750,43.88
28.765,42.87
28.781,41.89
28.796,41.16
28.812,40.66
28.828,40.19
28.843,39.48
28.859,38.38
28.875,36.92
28.890,35.29
28.906,33.73
28.921,32.36
28.937,31.07
28.953,29.53
28.968,27.35
28.984,24.32
29.000,20.55
29.015,16.4
29.031,12.32
29.046,8.6
29.062,5.24
29.078,1.92
29.093,-1.8
29.109,-6.3
29.125,-11.72
29.140,-17.79
29.156,-23.9
29.171,-29.1
29.187,-32.33
29.203,-32.67
29.218,-29.62
29.234,-23.3
29.250,-14.49
29.265,-4.33
29.281,6.0
29.296,15.58
29.312,23.9
29.328,30.82
29.343,36.34
29.359,40.54
29.375,43.47
29.390,45.24
29.406,46.05
29.421,46.14
29.437,45.72
29.453,44.9
29.468,43.68
29.484,42.05
29.500,40.06
29.515,37.87
29.531,35.67
29.546,33.57
29.562,31.61
29.578,29.66
29.593,27.56
29.609,25.06
29.625,21.97
29.640,18.26
29.656,14.0
29.671,9.41
29.687,4.78
29.703,0.39
29.718,-3.6
29.734,-7.19
29.750,-10.58
29.765,-14.09
29.781,-18.02
29.796,-22.55
29.812,-27.6
29.828,-32.79
29.843,-37.33
29.859,-40.2
29.875,-40.37
29.890,-37.14
29.906,-30.49
29.921,-21.11
29.937,-10.26
29.953,0.7
29.968,10.68
29.984,19.2
30.000,26.23
30.015,32.01
30.031,36.71
30.046,40.28
30.062,42.55
30.078,43.4
30.093,43.07
30.109,42.03
30.125,40.81
30.140,39.73
30.156,38.83
30.171,37.85
30.187,36.49
30.203,34.52
30.218,32.01
30.234,29.25
30.250,26.59
30.265,24.29
30.281,22.46
30.296,20.93
30.312,19.39
30.328,17.39
30.343,14.6
30.359,10.9
30.375,6.46
30.390,1.68
30.406,-2.98
30.421,-7.16
30.437,-10.77
30.453,-13.97
30.468,-17.05
30.484,-20.33
30.500,-23.98
30.515,-28.08
30.531,-32.56
30.546,-37.14
30.562,-41.32
30.578,-44.35
30.593,-45.3
30.609,-43.37
30.625,-38.21
30.640,-30.07
30.656,-19.84
30.671,-8.73
30.687,2.1
30.703,11.86
30.718,20.24
30.734,27.28
30.750,33.17
30.765,37.93
30.781,41.51
30.796,43.76
30.812,44.7
30.828,44.56
30.843,43.72
30.859,42.62
30.875,41.56
30.890,40.62
30.906,39.63
30.921,38.39
30.937,36.66
30.953,34.45
30.968,31.97
30.984,29.51
31.000,27.32
31.015,25.54
31.031,24.02
31.046,22.51
31.062,20.74
31.078,18.53
31.093,15.84
31.109,12.79
31.125,9.47
31.140,5.98
31.156,2.42
31.171,-1.13
31.187,-4.59
31.203,-7.86
31.218,-10.99
31.234,-14.17
31.250,-17.6
31.265,-21.53
31.281,-26.07
31.296,-31.04
31.312,-35.96
31.328,-40.09
31.343,-42.55
31.359,-42.6
31.375,-39.81
31.390,-34.23
31.406,-26.34
31.421,-16.92
31.437,-6.91
31.453,2.91
31.468,11.97
31.484,19.95
31.500,26.7
31.515,32.13
31.531,36.14
31.546,38.65
31.562,39.68
31.578,39.34
31.593,37.9
31.609,35.84
31.625,33.57
31.640,31.45
31.656,29.62
31.671,28.07
31.687,26.7
31.703,25.53
31.718,24.64
31.734,24.11
31.750,23.93
31.765,23.82
31.781,23.33
31.796,21.97
31.812,19.54
31.828,16.16
31.843,12.39
31.859,8.88
31.875,6.07
31.890,4.08
31.906,2.58
31.921,1.11
31.937,-0.76
31.953,-3.22
31.968,-6.19
31.984,-9.36
32.000,-12.37
32.015,-14.9
32.031,-16.72
32.046,-17.78
32.062,-18.18
32.078,-18.25
32.093,-18.58
32.109,-19.75
32.125,-22.19
32.140,-25.69
32.156,-29.45
32.171,-32.2
32.187,-32.81
32.203,-30.68
32.218,-26.12
32.234,-20.14
32.250,-13.97
32.265,-8.61
32.281,-4.53
32.296,-1.73
32.312,0.08
32.328,1.15
32.343,1.66
32.359,1.59
32.375,0.94
32.390,-0.25
32.406,-1.72
32.421,-3.07
32.437,-3.61
32.453,-2.61
32.468,0.43
32.484,5.46
32.500,11.61
32.515,17.47
32.531,21.57
32.546,22.97
32.562,21.63
32.578,18.29
32.593,13.97
32.609,9.43
32.625,4.99
32.640,0.6
32.656,-3.72
32.671,-7.63
32.687,-10.57
32.703,-12.05
32.718,-12.01
32.734,-11.09
32.750,-10.32
32.765,-10.72
32.781,-12.79
32.796,-16.32
32.812,-20.49
32.828,-24.35
32.843,-27.15
32.859,-28.73
32.875,-29.47
32.890,-30.11
32.906,-31.4
32.921,-33.82
32.937,-37.36
32.953,-41.51
32.968,-45.48
32.984,-48.29
33.000,-49.08
33.015,-47.3
33.031,-42.78
33.046,-35.89
33.062,-27.34
33.078,-18.09
33.093,-8.99
33.109,-0.66
33.125,6.65
33.140,12.97
33.156,18.42
33.171,23.09
33.187,26.93
33.203,29.81
33.218,31.64
33.234,32.44
33.250,32.33
33.265,31.54
33.281,30.28
33.296,28.73
33.312,27.04
33.328,25.34
33.343,23.71
33.359,22.16
33.375,20.69
33.390,19.17
33.406,17.45
33.421,15.31
33.437,12.63
33.453,9.34
33.468,5.52
33.484,1.35
33.500,-2.93
33.515,-7.09
33.531,-10.97
33.546,-14.53
33.562,-17.84
33.578,-21.01
33.593,-24.22
33.609,-27.54
33.625,-30.96
33.640,-34.4
33.656,-37.63
33.671,-40.38
33.687,-42.35
33.703,-43.38
33.718,-43.5
33.734,-42.97
33.750,-42.18
33.765,-41.41
33.781,-40.65
33.796,-39.48
33.812,-37.26
33.828,-33.38
33.843,-27.69
33.859,-20.62
33.875,-13.14
33.890,-6.4
33.906,-1.25
33.921,2.09
33.937,4.14
33.953,5.94
33.968,8.59
33.984,12.9
34.000,19.11
34.015,26.88
34.031,35.37
34.046,43.47
34.062,49.99
34.078,53.94
34.093,54.6
34.109,51.78
34.125,45.85
34.140,37.67
34.156,28.49
34.171,19.57
34.187,12.06
34.203,6.68
34.218,3.7
34.234,2.84
34.250,3.49
34.265,4.82
34.281,6.01
34.296,6.48
34.312,5.91
34.328,4.42
34.343,2.34
34.359,0.21
34.375,-1.52
34.390,-2.49
34.406,-2.57
34.421,-1.86
34.437,-0.57
34.453,1.03
34.468,2.66
34.484,4.12
34.500,5.15
34.515,5.48
34.531,4.82
34.546,2.95
34.562,-0.15
34.578,-4.07
34.593,-8.0
34.609,-10.94
34.625,-11.92
34.640,-10.39
34.656,-6.33
34.671,-0.22
34.687,7.19
34.703,15.04
34.718,22.72
34.734,29.79
34.750,35.98
34.765,41.09
34.781,44.91
34.796,47.24
34.812,47.98
34.828,47.2
34.843,45.26
34.859,42.65
34.875,39.83
34.890,37.15
34.906,34.75
34.921,32.55
34.937,30.37
34.953,28.06
34.968,25.54
34.984,22.84
35.000,20.05
35.015,17.22
35.031,14.32
35.046,11.31
35.062,8.06
35.078,4.47
35.093,0.51
35.109,-3.74
35.125,-8.13
35.140,-12.42
35.156,-16.4
35.171,-19.99
35.187,-23.2
35.203,-26.15
35.218,-28.99
35.234,-31.8
35.250,-34.52
35.265,-37.06
35.281,-39.26
35.296,-41.15
35.312,-42.93
35.328,-44.9
35.343,-47.37
35.359,-50.37
35.375,-53.67
35.390,-56.67
35.406,-58.57
35.421,-58.55
35.437,-55.97
35.453,-50.59
35.468,-42.67
35.484,-32.89
35.500,-22.23
35.515,-11.69
35.531,-2.01
35.546,6.38
35.562,13.34
35.578,18.95
35.593,23.24
35.609,26.25
35.625,28.0
35.640,28.63
35.656,28.42
35.671,27.72
35.687,26.84
35.703,26.0
35.718,25.25
35.734,24.52
35.750,23.78
35.765,23.04
35.781,22.38
35.796,21.89
35.812,21.58
35.828,21.32
35.843,20.85
35.859,19.88
35.875,18.21
35.890,15.86
35.906,13.06
35.921,10.14
35.937,7.3
35.953,4.55
35.968,1.68
35.984,-1.58
36.000,-5.35
36.015,-9.53
36.031,-13.81
36.046,-17.85
36.062,-21.49
36.078,-24.7
36.093,-27.62
36.109,-30.42
36.125,-33.21
36.140,-36.07
36.156,-39.08
36.171,-42.24
36.187,-45.45
36.203,-48.31
36.218,-50.05
36.234,-49.82
36.250,-46.91
36.265,-41.13
36.281,-32.89
36.296,-23.06
36.312,-12.71
36.328,-2.79
36.343,6.07
36.359,13.55
36.375,19.55
36.390,24.07
36.406,27.14
36.421,28.9
36.437,29.57
36.453,29.41
36.468,28.64
36.484,27.44
36.500,25.93
36.515,24.19
36.531,22.41
36.546,20.78
36.562,19.43
36.578,18.38
36.593,17.48
36.609,16.5
36.625,15.27
36.640,13.76
36.656,12.03
36.671,10.29
36.687,8.67
36.703,7.17
36.718,5.65
36.734,3.95
36.750,1.85
36.765,-0.77
36.781,-3.91
36.796,-7.49
36.812,-11.3
36.828,-15.1
36.843,-18.67
36.859,-21.86
36.875,-24.61
36.890,-27.04
36.906,-29.34
36.921,-31.78
36.937,-34.52
36.953,-37.65
36.968,-40.92
36.984,-43.8
37.000,-45.44
37.015,-44.91
37.031,-41.44
37.046,-34.78
37.062,-25.33
37.078,-14.12
37.093,-2.55
37.109,8.1
37.125,16.99
37.140,23.92
37.156,29.1
37.171,32.96
37.187,35.82
37.203,37.75
37.218,38.63
37.234,38.4
37.250,37.24
37.265,35.58
37.281,33.96
37.296,32.83
37.312,32.33
37.328,32.35
37.343,32.48
37.359,32.32
37.375,31.55
37.390,30.01
37.406,27.71
37.421,24.72
37.437,21.23
37.453,17.42
37.468,13.51
37.484,9.68
37.500,6.11
37.515,2.88
37.531,-0.05
37.546,-2.75
37.562,-5.4
37.578,-8.07
37.593,-10.83
37.609,-13.66
37.625,-16.53
37.640,-19.4
37.656,-22.29
37.671,-25.35
37.687,-28.76
37.703,-32.72
37.718,-37.27
37.734,-42.18
37.750,-46.82
37.765,-50.26
37.781,-51.51
37.796,-49.8
37.812,-44.96
37.828,-37.36
37.843,-27.91
37.859,-17.66
37.875,-7.59
37.890,1.63
37.906,9.65
37.921,16.31
37.937,21.57
37.953,25.43
37.968,28.0
37.984,29.38
38.000,29.77
38.015,29.4
38.031,28.48
38.046,27.19
38.062,25.68
38.078,24.15
38.093,22.7
38.109,21.47
38.125,20.45
38.140,19.6
38.156,18.79
38.171,17.89
38.187,16.78
38.203,15.43
38.218,13.83
38.234,11.97
38.250,9.82
38.265,7.3
38.281,4.36
38.296,1.05
38.312,-2.54
38.328,-6.21
38.343,-9.76
38.359,-13.04
38.375,-15.96
38.390,-18.55
38.406,-20.84
38.421,-22.96
38.437,-25.09
38.453,-27.52
38.468,-30.53
38.484,-34.25
38.500,-38.51
38.515,-42.72
38.531,-45.96
38.546,-47.19
38.562,-45.66
38.578,-41.12
38.593,-33.9
38.609,-24.8
38.625,-14.85
38.640,-5.01
38.656,3.95
38.671,11.54
38.687,17.61
38.703,22.21
38.718,25.57
38.734,28.0
38.750,29.76
38.765,30.95
38.781,31.53
38.796,31.41
38.812,30.49
38.828,28.94
38.843,27.07
38.859,25.3
38.875,23.95
38.890,23.2
38.906,22.94
38.921,22.95
38.937,22.91
38.953,22.58
38.968,21.89
38.984,20.88
39.000,19.71
39.015,18.66
39.031,17.99
39.046,17.84
39.062,18.16
39.078,18.63
39.093,18.76
39.109,18.07
39.125,16.27
39.140,13.6
39.156,10.84
39.171,9.14
39.187,9.63
39.203,12.92
39.218,18.68
39.234,25.66
39.250,32.07
39.265,36.22
39.281,37.22
39.296,35.4
39.312,32.18
39.328,29.58
39.343,29.49
39.359,33.03
39.375,40.2
39.390,49.86
39.406,60.03
39.421,68.24
39.437,72.2
39.453,70.39
39.468,62.65
39.484,50.41
39.500,36.29
39.515,23.41
39.531,14.34
39.546,10.24
39.562,10.6
39.578,13.79
39.593,18.01
39.609,22.18
39.625,26.11
39.640,30.09
39.656,34.1
39.671,37.38
39.687,38.76
39.703,37.3
39.718,32.95
39.734,26.67
39.750,19.66
39.765,12.5
39.781,4.53
39.796,-5.73
39.812,-19.66
39.828,-37.3
39.843,-56.85
39.859,-75.21
39.875,-89.13
39.890,-96.52
39.906,-97.16
39.921,-92.59
39.937,-85.3
39.953,-77.83
39.968,-72.06
39.984,-68.91
40.000,-68.54
40.015,-70.65
40.031,-74.81
40.046,-80.49
40.062,-86.96
40.078,-93.14
40.093,-97.69
40.109,-99.2
40.125,-96.68
40.140,-89.76
40.156,-78.93
40.171,-65.3
40.187,-50.28
40.203,-35.29
40.218,-21.57
40.234,-10.03
40.250,-1.33
40.265,4.27
40.281,6.98
40.296,7.56
40.312,7.25
40.328,7.48
40.343,9.53
40.359,14.12
40.375,21.24
40.390,30.18
40.406,39.8
40.421,48.9
40.437,56.68
40.453,62.91
40.468,67.94
40.484,72.3
40.500,76.38
40.515,80.1
40.531,82.98
40.546,84.49
40.562,84.3
40.578,82.5
40.593,79.43
40.609,75.39
40.625,70.37
40.640,64.15
40.656,56.54
40.671,47.77
40.687,38.69
40.703,30.44
40.718,24.03
40.734,19.78
40.750,17.18
40.765,15.23
40.781,12.91
40.796,9.7
40.812,5.76
40.828,1.89
40.843,-1.06
40.859,-2.53
40.875,-2.47
40.890,-1.21
40.906,0.74
40.921,2.96
40.937,5.18
40.953,7.24
40.968,8.97
40.984,9.95
41.000,9.71
41.015,7.93
41.031,4.68
41.046,0.57
41.062,-3.4
41.078,-6.37
41.093,-7.89
41.109,-8.37
41.125,-8.82
41.140,-10.21
41.156,-12.88
41.171,-16.27
41.187,-19.1
41.203,-20.15
41.218,-18.98
41.234,-16.23
41.250,-13.3
41.265,-11.6
41.281,-11.85
41.296,-13.93
41.312,-17.29
41.328,-21.46
41.343,-26.4
41.359,-32.37
41.375,-39.41
41.390,-46.99
41.406,-54.13
41.421,-60.04
41.437,-64.96
41.453,-70.32
41.468,-78.17
41.484,-89.98
41.500,-105.56
41.515,-122.72
41.531,-138.17
41.546,-148.92
41.562,-153.68
41.578,-153.4
41.593,-150.5
41.609,-147.52
41.625,-145.74
41.640,-144.84
41.656,-143.34
41.671,-139.75
41.687,-133.5
41.703,-125.22
41.718,-116.22
41.734,-107.67
41.750,-99.96
41.765,-92.54
41.781,-84.44
41.796,-74.88
41.812,-63.81
41.828,-52.0
41.843,-40.68
41.859,-30.94
41.875,-23.24
41.890,-17.28
41.906,-12.3
41.921,-7.51
41.937,-2.6
41.953,2.14
41.968,5.99
41.984,8.21
42.000,8.51
42.015,7.23
42.031,5.23
42.046,3.45
42.062,2.5
42.078,2.4
42.093,2.67
42.109,2.64
42.125,1.75
42.140,-0.14
42.156,-2.74
42.171,-5.47
42.187,-7.45
42.203,-7.67
42.218,-5.16
42.234,0.88
42.250,10.76
42.265,24.25
42.281,40.54
42.296,58.47
42.312,76.69
42.328,93.99
42.343,109.44
42.359,122.45
42.375,132.78
42.390,140.59
42.406,146.37
42.421,150.87
42.437,155.2
42.453,160.62
42.468,168.54
42.484,179.91
42.500,194.74
42.515,211.48
42.531,227.01
42.546,237.29
42.562,238.71
42.578,229.43
42.593,210.15
42.609,183.82
42.625,154.35
42.640,125.21
42.656,98.47
42.671,74.73
42.687,53.74
42.703,35.33
42.718,19.85
42.734,8.0
42.750,0.31
42.765,-3.41
42.781,-4.08
42.796,-3.0
42.812,-1.27
42.828,0.51
42.843,2.21
42.859,3.93
42.875,5.47
42.890,6.39
42.906,6.15
42.921,4.67
42.937,2.55
42.953,0.9
42.968,0.76
42.984,2.29
43.000,4.46
43.015,5.33
43.031,3.1
43.046,-2.92
43.062,-11.9
43.078,-21.94
43.093,-31.17
43.109,-38.68
43.125,-45.0
43.140,-51.62
43.156,-59.94
43.171,-70.41
43.187,-82.09
43.203,-93.18
43.218,-101.9
43.234,-107.36
43.250,-109.9
43.265,-110.75
43.281,-111.15
43.296,-111.86
43.312,-112.93
43.328,-114.17
43.343,-115.87
43.359,-119.01
43.375,-124.96
43.390,-134.35
43.406,-146.14
43.421,-157.65
43.437,-165.92
43.453,-169.39
43.468,-169.06
43.484,-167.97
43.500,-169.27
43.515,-173.97
43.531,-179.79
43.546,-182.09
43.562,-176.11
43.578,-159.5
43.593,-133.44
43.609,-101.94
43.625,-69.93
43.640,-41.21
43.656,-17.52
43.671,1.04
43.687,14.88
43.703,24.0
43.718,27.77
43.734,25.6
43.750,17.61
43.765,5.23
43.781,-8.9
43.796,-21.76
43.812,-30.95
43.828,-35.41
43.843,-35.64
43.859,-33.23
43.875,-30.0
43.890,-27.32
43.906,-25.74
43.921,-25.11
43.937,-25.11
43.953,-25.57
43.968,-26.73
43.984,-29.02
44.000,-32.78
44.015,-37.97
44.031,-44.02
44.046,-49.97
44.062,-54.74
44.078,-57.61
44.093,-58.49
44.109,-57.86
44.125,-56.77
44.140,-56.42
44.156,-57.74
44.171,-61.09
44.187,-66.03
44.203,-71.32
44.218,-75.21
44.234,-75.87
44.250,-71.76
44.265,-62.06
44.281,-46.83
44.296,-27.03
44.312,-4.31
44.328,19.27
44.343,41.7
44.359,61.36
44.375,77.29
44.390,89.21
44.406,97.4
44.421,102.45
44.437,105.05
44.453,105.91
44.468,105.69
44.484,105.07
44.500,104.71
44.515,105.19
44.531,106.94
44.546,110.03
44.562,114.26
44.578,119.19
44.593,124.33
44.609,129.21
44.625,133.42
44.640,136.64
44.656,138.58
44.671,139.04
44.687,137.78
44.703,134.66
44.718,129.57
44.734,122.57
44.750,113.93
44.765,104.16
44.781,93.89
44.796,83.7
44.812,73.94
44.828,64.73
44.843,56.07
44.859,48.27
44.875,42.05
44.890,38.46
44.906,38.5
44.921,42.51
44.937,49.88
44.953,59.11
44.968,68.28
44.984,75.68
45.000,80.2
45.015,81.29
45.031,78.77
45.046,72.49
45.062,62.41
45.078,48.91
45.093,33.16
45.109,17.02
45.125,2.49
45.140,-9.28
45.156,-18.6
45.171,-27.01
45.187,-36.47
45.203,-48.1
45.218,-61.52
45.234,-74.98
45.250,-86.37
45.265,-94.26
45.281,-98.52
45.296,-100.21
45.312,-100.58
45.328,-100.37
45.343,-99.35
45.359,-96.65
45.375,-91.47
45.390,-83.59
45.406,-73.66
45.421,-62.87
45.437,-52.63
45.453,-43.95
45.468,-37.43
45.484,-33.11
45.500,-30.65
45.515,-29.4
45.531,-28.53
45.546,-27.0
45.562,-23.72
45.578,-17.83
45.593,-9.04
45.609,2.11
45.625,14.25
45.640,25.64
45.656,34.7
45.671,40.61
45.687,43.52
45.703,44.27
45.718,43.97
45.734,43.5
45.750,43.27
45.765,43.25
45.781,43.18
45.796,42.78
45.812,41.87
45.828,40.42
45.843,38.53
45.859,36.36
45.875,34.17
45.890,32.27
45.906,30.84
45.921,29.97
45.937,29.53
45.953,29.37
45.968,29.27
45.984,29.05
46.000,28.59
46.015,27.69
46.031,26.17
46.046,23.81
46.062,20.44
46.078,16.11
46.093,10.99
46.109,5.43
46.125,-0.31
46.140,-6.09
46.156,-12.03
46.171,-18.4
46.187,-25.55
46.203,-33.78
46.218,-43.18
46.234,-53.55
46.250,-64.29
46.265,-74.37
46.281,-82.41
46.296,-86.98
46.312,-86.94
46.328,-81.83
46.343,-72.0
46.359,-58.48
46.375,-42.71
46.390,-26.07
46.406,-9.67
46.421,5.8
46.437,19.94
46.453,32.5
46.468,43.28
46.484,52.13
46.500,58.99
46.515,64.03
46.531,67.59
46.546,70.24
46.562,72.62
46.578,75.3
46.593,78.54
46.609,82.32
46.625,86.33
46.640,90.15
46.656,93.46
46.671,96.18
46.687,98.48
46.703,100.6
46.718,102.71
46.734,104.72
46.750,106.3
46.765,106.99
46.781,106.44
46.796,104.56
46.812,101.64
46.828,98.33
46.843,95.37
46.859,93.39
46.875,92.63
46.890,92.97
46.906,93.94
46.921,95.06
46.937,95.93
46.953,96.36
46.968,96.24
46.984,95.31
47.000,93.06
47.015,88.72
47.031,81.68
47.046,71.77
47.062,59.54
47.078,46.07
47.093,32.46
47.109,19.49
47.125,7.25
47.140,-4.58
47.156,-16.33
47.171,-27.96
47.187,-38.93
47.203,-48.54
47.218,-56.34
47.234,-62.25
47.250,-66.22
47.265,-67.65
47.281,-65.17
47.296,-57.22
47.312,-43.18
47.328,-24.51
47.343,-5.03
47.359,10.05
47.375,16.1
47.390,10.95
47.406,-4.3
47.421,-25.78
47.437,-48.67
47.453,-68.95
47.468,-84.53
47.484,-95.21
47.500,-101.76
47.515,-105.06
47.531,-105.59
47.546,-103.46
47.562,-98.8
47.578,-91.98
47.593,-83.67
47.609,-74.68
47.625,-65.67
47.640,-57.06
47.656,-48.94
47.671,-41.34
47.687,-34.26
47.703,-27.72
47.718,-21.86
47.734,-16.78
47.750,-12.65
47.765,-9.56
47.781,-7.4
47.796,-5.86
47.812,-4.43
47.828,-2.65
47.843,-0.24
47.859,2.73
47.875,5.73
47.890,8.11
47.906,9.14
47.921,8.41
47.937,5.84
47.953,1.75
47.968,-3.34
47.984,-8.78
48.000,-14.0
48.015,-18.46
48.031,-21.81
48.046,-23.76
48.062,-24.05
48.078,-22.29
48.093,-17.9
48.109,-10.22
48.125,1.28
48.140,16.59
48.156,34.89
48.171,54.44
48.187,72.86
48.203,87.56
48.218,96.37
48.234,98.03
48.250,92.48
48.265,81.06
48.281,66.52
48.296,52.7
48.312,43.73
48.328,42.72
48.343,50.46
48.359,64.53
48.375,79.65
48.390,89.14
48.406,87.22
48.421,71.08
48.437,42.02
48.453,4.94
48.468,-33.37
48.484,-66.47
48.500,-90.13
48.515,-103.11
48.531,-106.95
48.546,-104.88
48.562,-100.49
48.578,-96.76
48.593,-95.44
48.609,-97.1
48.625,-101.38
48.640,-107.42
48.656,-114.11
48.671,-120.33
48.687,-124.89
48.703,-126.74
48.718,-125.29
48.734,-120.62
48.750,-113.74
48.765,-106.28
48.781,-100.06
48.796,-96.31
48.812,-95.17
48.828,-95.67
48.843,-96.17
48.859,-95.17
48.875,-91.91
48.890,-86.72
48.906,-80.57
48.921,-74.46
48.937,-68.75
48.953,-62.85
48.968,-55.52
48.984,-45.43
49.000,-31.94
49.015,-15.28
49.031,3.53
49.046,23.09
49.062,42.12
49.078,59.74
49.093,75.54
49.109,89.33
49.125,100.97
49.140,110.17
49.156,116.58
49.171,119.85
49.187,119.9
49.203,117.0
49.218,111.91
49.234,105.71
49.250,99.56
49.265,94.37
49.281,90.51
49.296,87.77
49.312,85.55
49.328,83.22
49.343,80.41
49.359,77.17
49.375,73.68
49.390,69.96
49.406,65.65
49.421,59.98
49.437,52.06
49.453,41.19
49.468,27.1
49.484,9.81
49.500,-10.52
49.515,-33.49
49.531,-58.29
49.546,-83.2
49.562,-105.53
49.578,-122.19
49.593,-130.68
49.609,-130.23
49.625,-122.32
49.640,-110.08
49.656,-97.07
49.671,-86.06
49.687,-78.28
49.703,-73.68
49.718,-71.63
49.734,-71.58
49.750,-73.19
49.765,-75.93
49.781,-78.67
49.796,-79.63
49.812,-77.0
49.828,-69.65
49.843,-57.78
49.859,-42.84
49.875,-26.92
49.890,-11.92
49.906,1.0
49.921,11.49
49.937,19.81
49.953,26.29
49.968,31.14
49.984,34.36
50.000,35.93
50.015,36.05
50.031,35.26
50.046,34.18
50.062,33.39
50.078,33.09
50.093,33.12
50.109,33.18
50.125,33.09
50.140,32.97
50.156,33.23
50.171,34.37
50.187,36.61
50.203,39.76
50.218,43.25
50.234,46.23
50.250,47.95
50.265,47.9
50.281,45.9
50.296,42.21
50.312,37.32
50.328,31.95
50.343,26.79
50.359,22.31
50.375,18.61
50.390,15.49
50.406,12.58
50.421,9.51
50.437,6.18
50.453,2.71
50.468,-0.67
50.484,-3.8
50.500,-6.79
50.515,-9.97
50.531,-13.79
50.546,-18.67
50.562,-24.83
50.578,-32.06
50.593,-39.71
50.609,-46.71
50.625,-51.73
50.640,-53.46
50.656,-51.06
50.671,-44.32
50.687,-33.89
50.703,-21.07
50.718,-7.36
50.734,5.87
50.750,17.85
50.765,28.47
50.781,38.08
50.796,47.15
50.812,55.92
50.828,64.23
50.843,71.61
50.859,77.52
50.875,81.66
50.890,84.21
50.906,85.84
50.921,87.56
50.937,90.38
50.953,95.06
50.968,101.73
50.984,109.93
51.000,118.62
51.015,126.4
51.031,131.98
51.046,134.42
51.062,133.45
51.078,129.56
51.093,124.02
51.109,118.47
51.125,114.31
51.140,111.96
51.156,110.3
51.171,107.01
51.187,99.45
51.203,86.01
51.218,67.04
51.234,44.86
51.250,22.81
51.265,3.8
51.281,-10.78
51.296,-21.26
51.312,-28.9
51.328,-34.92
51.343,-39.84
51.359,-43.54
51.375,-45.99
51.390,-47.81
51.406,-50.4
51.421,-55.33
51.437,-63.58
51.453,-74.92
51.468,-88.04
51.484,-101.03
51.500,-112.15
51.515,-120.47
51.531,-125.82
51.546,-128.72
51.562,-129.83
51.578,-129.86
51.593,-129.44
51.609,-129.24
51.625,-129.84
51.640,-131.31
51.656,-132.81
51.671,-132.38
51.687,-127.47
51.703,-115.9
51.718,-97.0
51.734,-72.09
51.750,-44.16
51.765,-16.92
51.781,6.53
51.796,24.36
51.812,36.17
51.828,42.38
51.843,43.83
51.859,41.46
51.875,36.5
51.890,30.43
51.906,24.8
51.921,20.69
51.937,18.11
51.953,15.93
51.968,12.21
51.984,5.14
52.000,-6.23
52.015,-21.6
52.031,-39.31
52.046,-56.87
52.062,-71.58
52.078,-81.44
52.093,-85.72
52.109,-85.4
52.125,-82.86
52.140,-81.02
52.156,-82.17
52.171,-87.0
52.187,-94.36
52.203,-101.87
52.218,-107.2
52.234,-109.14
52.250,-107.9
52.265,-104.85
52.281,-101.68
52.296,-99.55
52.312,-98.76
52.328,-98.75
52.343,-98.3
52.359,-95.91
52.375,-90.09
52.390,-79.73
52.406,-64.54
52.421,-45.34
52.437,-24.07
52.453,-3.41
52.468,13.89
52.484,25.9
52.500,31.92
52.515,32.79
52.531,30.49
52.546,27.56
52.562,26.42
52.578,28.68
52.593,34.88
52.609,44.34
52.625,55.48
52.640,66.3
52.656,75.06
52.671,80.65
52.687,82.86
52.703,82.21
52.718,79.69
52.734,76.38
52.750,73.28
52.765,71.25
52.781,70.93
52.796,72.7
52.812,76.49
52.828,81.52
52.843,86.45
52.859,89.61
52.875,89.48
52.890,85.2
52.906,76.74
52.921,64.75
52.937,50.23
52.953,34.12
52.968,17.1
52.984,-0.22
53.000,-17.22
53.015,-33.14
53.031,-47.25
53.046,-59.01
53.062,-68.32
53.078,-75.55
53.093,-81.27
53.109,-85.97
53.125,-89.68
53.140,-91.83
53.156,-91.35
53.171,-87.0
53.187,-77.74
53.203,-63.25
53.218,-44.15
53.234,-22.05
53.250,0.76
53.265,21.89
53.281,39.29
53.296,51.72
53.312,58.86
53.328,61.15
53.343,59.47
53.359,54.93
53.375,48.51
53.390,41.03
53.406,33.19
53.421,25.5
53.437,18.4
53.453,12.27
53.468,7.49
53.484,4.36
53.500,3.26
53.515,4.48
53.531,8.22
53.546,14.49
53.562,22.88
53.578,32.61
53.593,42.6
53.609,51.64
53.625,58.71
53.640,63.15
53.656,64.71
53.671,63.5
53.687,59.89
53.703,54.3
53.718,47.32
53.734,39.51
53.750,31.42
53.765,23.52
53.781,16.13
53.796,9.35
53.812,3.16
53.828,-2.44
53.843,-7.39
53.859,-11.58
53.875,-14.92
53.890,-17.55
53.906,-19.82
53.921,-22.27
53.937,-25.51
53.953,-29.96
53.968,-35.59
53.984,-41.81
54.000,-47.47
54.015,-51.16
54.031,-51.64
54.046,-48.21
54.062,-40.89
54.078,-30.43
54.093,-17.95
54.109,-4.6
54.125,8.64
54.140,21.15
54.156,32.55
54.171,42.56
54.187,50.98
54.203,57.64
54.218,62.55
54.234,65.89
54.250,68.11
54.265,69.66
54.281,70.98
54.296,72.37
54.312,74.0
54.328,75.91
54.343,78.01
54.359,80.08
54.375,81.71
54.390,82.31
54.406,81.24
54.421,77.98
54.437,72.38
54.453,64.66
54.468,55.32
54.484,44.91
54.500,33.73
54.515,21.99
54.531,9.85
54.546,-2.36
54.562,-14.02
54.578,-24.47
54.593,-33.18
54.609,-39.96
54.625,-44.87
54.640,-48.07
54.656,-49.62
54.671,-49.41
54.687,-47.33
54.703,-43.52
54.718,-38.48
54.734,-33.09
54.750,-28.35
54.765,-25.17
54.781,-24.12
54.796,-25.21
54.812,-27.94
54.828,-31.26
54.843,-33.86
54.859,-34.52
54.875,-32.47
54.890,-27.61
54.906,-20.48
54.921,-11.97
54.937,-2.94
54.953,6.06
54.968,14.77
54.984,23.14
55.000,31.05
55.015,38.29
55.031,44.55
55.046,49.61
55.062,53.37
55.078,55.85
55.093,57.07
55.109,57.03
55.125,55.73
55.140,53.28
55.156,49.94
55.171,46.19
55.187,42.51
55.203,39.29
55.218,36.67
55.234,34.57
55.250,32.73
55.265,30.84
55.281,28.59
55.296,25.81
55.312,22.47
55.328,18.7
55.343,14.72
55.359,10.77
55.375,7.05
55.390,3.56
55.406,0.18
55.421,-3.34
55.437,-7.25
55.453,-11.64
55.468,-16.34
55.484,-20.89
55.500,-24.72
55.515,-27.41
55.531,-28.87
55.546,-29.37
55.562,-29.51
55.578,-29.95
55.593,-31.2
55.609,-33.44
55.625,-36.36
55.640,-39.19
55.656,-40.92
55.671,-40.47
55.687,-37.03
55.703,-30.38
55.718,-20.99
55.734,-9.98
55.750,1.25
55.765,11.38
55.781,19.52
55.796,25.38
55.812,29.1
55.828,31.11
55.843,31.82
55.859,31.49
55.875,30.26
55.890,28.18
55.906,25.29
55.921,21.67
55.937,17.42
55.953,12.72
55.968,7.75
55.984,2.74
56.000,-2.05
56.015,-6.37
56.031,-9.99
56.046,-12.76
56.062,-14.66
56.078,-15.78
56.093,-16.31
56.109,-16.51
56.125,-16.62
56.140,-16.89
56.156,-17.51
56.171,-18.56
56.187,-20.06
56.203,-21.95
56.218,-24.15
56.234,-26.62
56.250,-29.28
56.265,-32.0
56.281,-34.65
56.296,-37.14
56.312,-39.48
56.328,-41.89
56.343,-44.78
56.359,-48.6
56.375,-53.67
56.390,-59.8
56.406,-66.21
56.421,-71.54
56.437,-74.25
56.453,-73.05
56.468,-67.47
56.484,-58.02
56.500,-46.02
56.515,-33.29
56.531,-21.42
56.546,-11.47
56.562,-3.72
56.578,2.14
56.593,6.72
56.609,10.56
56.625,13.93
56.640,16.95
56.656,19.62
56.671,22.05
56.687,24.41
56.703,26.96
56.718,29.89
56.734,33.34
56.750,37.32
56.765,41.71
56.781,46.33
56.796,50.82
56.812,54.55
56.828,56.67
56.843,56.34
56.859,52.96
56.875,46.53
56.890,37.66
56.906,27.47
56.921,17.21
56.937,7.92
56.953,0.16
56.968,-6.06
56.984,-11.07
57.000,-15.29
57.015,-18.98
57.031,-22.17
57.046,-24.74
57.062,-26.52
57.078,-27.6
57.093,-28.33
57.109,-29.32
57.125,-31.21
57.140,-34.43
57.156,-39.07
57.171,-44.73
57.187,-50.69
57.203,-55.93
57.218,-59.38
57.234,-60.01
57.250,-56.99
57.265,-49.96
57.281,-39.12
57.296,-25.31
57.312,-9.86
57.328,5.66
57.343,19.88
57.359,31.85
57.375,41.19
57.390,47.99
57.406,52.59
57.421,55.41
57.437,56.86
57.453,57.37
57.468,57.26
57.484,56.8
57.500,56.07
57.515,54.96
57.531,53.34
57.546,51.13
57.562,48.4
57.578,45.4
57.593,42.44
57.609,39.78
57.625,37.6
57.640,35.96
57.656,34.88
57.671,34.4
57.687,34.45
57.703,34.68
57.718,34.47
57.734,32.9
57.750,29.02
57.765,22.14
57.781,12.11
57.796,-0.57
57.812,-14.93
57.828,-29.8
57.843,-44.17
57.859,-57.34
57.875,-68.95
57.890,-78.89
57.906,-87.14
57.921,-93.72
57.937,-98.67
57.953,-102.1
57.968,-104.18
57.984,-105.01
58.000,-104.42
58.015,-101.96
58.031,-96.87
58.046,-88.43
58.062,-76.34
58.078,-60.91
58.093,-43.22
58.109,-24.86
58.125,-7.5
58.140,7.53
58.156,19.48
58.171,28.27
58.187,34.26
58.203,37.97
58.218,39.91
58.234,40.52
58.250,40.1
58.265,38.96
58.281,37.44
58.296,35.79
58.312,34.25
58.328,32.93
58.343,31.77
58.359,30.64
58.375,29.4
58.390,27.95
58.406,26.33
58.421,24.61
58.437,22.92
58.453,21.3
58.468,19.73
58.484,18.11
58.500,16.35
58.515,14.4
58.531,12.18
58.546,9.66
58.562,6.74
58.578,3.3
58.593,-0.7
58.609,-5.15
58.625,-9.84
58.640,-14.43
58.656,-18.68
58.671,-22.47
58.687,-25.85
58.703,-29.02
58.718,-32.29
58.734,-35.94
58.750,-40.1
58.765,-44.59
58.781,-48.73
58.796,-51.46
58.812,-51.59
58.828,-48.1
58.843,-40.71
58.859,-29.92
58.875,-16.96
58.890,-3.39
58.906,9.42
58.921,20.61
58.937,29.92
58.953,37.49
58.968,43.59
58.984,48.39
59.000,51.89
59.015,54.01
59.031,54.71
59.046,54.2
59.062,53.01
59.078,51.8
59.093,51.15
59.109,51.35
59.125,52.3
59.140,53.59
59.156,54.79
59.171,55.57
59.187,55.94
59.203,56.18
59.218,56.73
59.234,58.14
59.250,60.93
59.265,65.39
59.281,71.26
59.296,77.56
59.312,82.57
59.328,84.26
59.343,81.06
59.359,72.48
59.375,59.29
59.390,43.23
59.406,26.16
59.421,9.34
59.437,-6.87
59.453,-22.86
59.468,-39.21
59.484,-56.24
59.500,-73.79
59.515,-91.46
59.531,-108.67
59.546,-124.82
59.562,-139.02
59.578,-149.93
59.593,-155.86
59.609,-155.14
59.625,-146.75
59.640,-130.87
59.656,-108.99
59.671,-83.56
59.687,-57.38
59.703,-32.83
59.718,-11.42
59.734,6.37
59.750,20.75
59.765,32.32
59.781,41.55
59.796,48.66
59.812,53.64
59.828,56.37
59.843,56.84
59.859,55.26
59.875,52.1
59.890,47.94
59.906,43.39
59.921,38.82
59.937,34.29
59.953,29.65
59.968,24.5
59.984,18.5
