timestamp,value
00.000,39.83
00.015,46.88
00.031,52.21
00.046,56.54
00.062,59.87
00.078,61.33
00.093,59.66
00.109,54.09
00.125,44.95
00.140,33.5
00.156,21.4
00.171,9.84
00.187,-0.99
00.203,-11.79
00.218,-23.56
00.234,-36.88
00.250,-51.43
00.265,-65.95
00.281,-78.65
00.296,-87.78
00.312,-92.19
00.328,-91.57
00.343,-86.43
00.359,-77.91
00.375,-67.33
00.390,-56.01
00.406,-45.04
00.421,-35.33
00.437,-27.66
00.453,-22.61
00.468,-20.31
00.484,-20.14
00.500,-20.67
00.515,-19.99
00.531,-16.36
00.546,-8.86
00.562,2.2
00.578,15.41
00.593,28.93
00.609,41.02
00.625,50.56
00.640,57.15
00.656,60.94
00.671,62.41
00.687,62.24
00.703,61.22
00.718,60.09
00.734,59.21
00.750,58.37
00.765,56.79
00.781,53.38
00.796,47.23
00.812,38.16
00.828,26.85
00.843,14.85
00.859,4.06
00.875,-3.75
00.890,-7.5
00.906,-7.15
00.921,-3.78
00.937,0.41
00.953,2.27
00.968,-1.57
00.984,-13.74
01.000,-34.67
01.015,-61.8
01.031,-89.7
01.046,-111.61
01.062,-121.83
01.078,-117.8
01.093,-100.95
01.109,-75.84
01.125,-48.25
01.140,-23.13
01.156,-3.44
01.171,9.77
01.187,16.66
01.203,17.76
01.218,13.87
01.234,6.34
01.250,-2.69
01.265,-10.38
01.281,-14.04
01.296,-11.96
01.312,-4.1
01.328,7.92
01.343,21.32
01.359,33.15
01.375,41.26
01.390,44.86
01.406,44.47
01.421,41.56
01.437,37.88
01.453,34.89
01.468,33.54
01.484,34.24
01.500,37.01
01.515,41.66
01.531,47.63
01.546,53.81
01.562,58.42
01.578,59.42
01.593,55.27
01.609,45.9
01.625,33.2
01.640,20.58
01.656,11.72
01.671,9.02
01.687,12.62
01.703,20.43
01.718,29.19
01.734,35.85
01.750,38.63
01.765,37.25
01.781,32.48
01.796,25.45
01.812,17.2
01.828,8.73
01.843,1.09
01.859,-4.75
01.875,-8.08
01.890,-8.72
01.906,-6.79
01.921,-2.38
01.937,4.72
01.953,14.75
01.968,27.4
01.984,41.19
02.000,53.62
02.015,62.07
02.031,64.8
02.046,61.61
02.062,53.63
02.078,42.52
02.093,29.59
02.109,15.54
02.125,0.74
02.140,-14.3
02.156,-28.7
02.171,-41.44
02.187,-51.77
02.203,-59.51
02.218,-64.86
02.234,-68.14
02.250,-69.5
02.265,-69.09
02.281,-67.15
02.296,-64.16
02.312,-60.66
02.328,-56.91
02.343,-52.86
02.359,-48.36
02.375,-43.49
02.390,-38.72
02.406,-34.87
02.421,-32.64
02.437,-32.26
02.453,-33.33
02.468,-35.05
02.484,-36.54
02.500,-37.23
02.515,-36.91
02.531,-35.69
02.546,-33.83
02.562,-31.6
02.578,-29.25
02.593,-26.95
02.609,-24.81
02.625,-22.9
02.640,-21.17
02.656,-19.53
02.671,-17.88
02.687,-16.2
02.703,-14.56
02.718,-13.12
02.734,-12.08
02.750,-11.61
02.765,-11.81
02.781,-12.71
02.796,-14.3
02.812,-16.39
02.828,-18.63
02.843,-20.5
02.859,-21.4
02.875,-20.82
02.890,-18.51
02.906,-14.61
02.921,-9.56
02.937,-4.02
02.953,1.4
02.968,6.24
02.984,10.3
03.000,13.53
03.015,15.96
03.031,17.65
03.046,18.66
03.062,19.12
03.078,19.2
03.093,19.09
03.109,18.93
03.125,18.69
03.140,18.19
03.156,17.19
03.171,15.51
03.187,13.18
03.203,10.4
03.218,7.58
03.234,5.06
03.250,3.09
03.265,1.68
03.281,0.67
03.296,-0.21
03.312,-1.19
03.328,-2.41
03.343,-3.9
03.359,-5.58
03.375,-7.28
03.390,-8.8
03.406,-9.9
03.421,-10.3
03.437,-9.73
03.453,-7.99
03.468,-5.0
03.484,-0.81
03.500,4.43
03.515,10.39
03.531,16.67
03.546,22.8
03.562,28.28
03.578,32.65
03.593,35.62
03.609,37.17
03.625,37.62
03.640,37.51
03.656,37.38
03.671,37.5
03.687,37.8
03.703,37.87
03.718,37.28
03.734,35.89
03.750,34.03
03.765,32.47
03.781,32.07
03.796,33.4
03.812,36.35
03.828,40.08
03.843,43.39
03.859,45.15
03.875,44.78
03.890,42.52
03.906,39.3
03.921,36.4
03.937,35.03
03.953,36.0
03.968,39.49
03.984,44.95
04.000,51.05
04.015,55.75
04.031,56.6
04.046,51.46
04.062,39.33
04.078,21.02
04.093,-0.74
04.109,-22.01
04.125,-38.89
04.140,-49.18
04.156,-53.19
04.171,-53.36
04.187,-52.68
04.203,-52.67
04.218,-52.27
04.234,-48.39
04.250,-37.91
04.265,-19.99
04.281,2.72
04.296,24.94
04.312,41.17
04.328,48.31
04.343,46.95
04.359,40.68
04.375,33.99
04.390,29.92
04.406,29.16
04.421,30.42
04.437,31.95
04.453,32.83
04.468,33.35
04.484,34.49
04.500,36.97
04.515,40.64
04.531,44.39
04.546,46.85
04.562,47.06
04.578,45.02
04.593,41.51
04.609,37.33
04.625,32.65
04.640,26.78
04.656,18.61
04.671,7.52
04.687,-5.84
04.703,-19.26
04.718,-29.56
04.734,-33.58
04.750,-29.46
04.765,-17.34
04.781,0.63
04.796,21.09
04.812,40.86
04.828,58.19
04.843,73.4
04.859,88.33
04.875,104.99
04.890,124.08
04.906,144.49
04.921,164.14
04.937,181.53
04.953,197.05
04.968,212.78
04.984,230.8
05.000,251.05
05.015,270.27
05.031,282.97
05.046,283.94
05.062,270.92
05.078,245.71
05.093,213.17
05.109,178.8
05.125,146.28
05.140,116.2
05.156,86.55
05.171,54.24
05.187,17.09
05.203,-24.96
05.218,-69.5
05.234,-112.27
05.250,-148.33
05.265,-173.37
05.281,-184.76
05.296,-182.2
05.312,-167.77
05.328,-145.47
05.343,-120.32
05.359,-97.26
05.375,-79.84
05.390,-69.29
05.406,-64.15
05.421,-60.84
05.437,-55.01
05.453,-42.92
05.468,-22.58
05.484,5.89
05.500,40.57
05.515,78.25
05.531,115.07
05.546,146.95
05.562,170.07
05.578,181.61
05.593,180.38
05.609,167.07
05.625,143.87
05.640,113.48
05.656,78.3
05.671,40.21
05.687,1.07
05.703,-36.33
05.718,-67.97
05.734,-89.3
05.750,-96.89
05.765,-90.1
05.781,-71.69
05.796,-46.97
05.812,-21.56
05.828,0.66
05.843,18.68
05.859,33.69
05.875,47.19
05.890,59.3
05.906,68.18
05.921,71.16
05.937,66.39
05.953,54.12
05.968,36.45
05.984,16.01
06.000,-5.51
06.015,-27.65
06.031,-50.08
06.046,-71.24
06.062,-87.96
06.078,-96.89
06.093,-96.87
06.109,-90.71
06.125,-84.76
06.140,-86.42
06.156,-100.67
06.171,-127.79
06.187,-163.36
06.203,-200.34
06.218,-232.04
06.234,-254.18
06.250,-265.35
06.265,-266.19
06.281,-258.05
06.296,-242.35
06.312,-220.62
06.328,-195.02
06.343,-168.43
06.359,-143.99
06.375,-124.12
06.390,-109.56
06.406,-99.05
06.421,-89.85
06.437,-79.07
06.453,-65.28
06.468,-49.56
06.484,-35.47
06.500,-27.75
06.515,-30.21
06.531,-43.92
06.546,-66.49
06.562,-92.69
06.578,-116.14
06.593,-131.33
06.609,-135.01
06.625,-126.8
06.640,-108.74
06.656,-84.4
06.671,-58.02
06.687,-33.61
06.703,-14.3
06.718,-1.78
06.734,4.01
06.750,4.79
06.765,3.12
06.781,1.2
06.796,-0.14
06.812,-1.78
06.828,-5.8
06.843,-14.09
06.859,-26.89
06.875,-41.92
06.890,-54.89
06.906,-61.13
06.921,-57.84
06.937,-45.61
06.953,-28.36
06.968,-11.51
06.984,0.78
07.000,7.76
07.015,12.26
07.031,18.82
07.046,30.68
07.062,47.52
07.078,65.23
07.093,77.81
07.109,80.39
07.125,71.39
07.140,52.94
07.156,29.32
07.171,4.74
07.187,-18.35
07.203,-39.26
07.218,-58.17
07.234,-74.92
07.250,-88.43
07.265,-97.16
07.281,-100.18
07.296,-98.02
07.312,-92.87
07.328,-87.99
07.343,-86.32
07.359,-89.3
07.375,-96.1
07.390,-103.97
07.406,-109.37
07.421,-109.6
07.437,-103.91
07.453,-93.61
07.468,-81.32
07.484,-69.28
07.500,-57.96
07.515,-45.78
07.531,-30.27
07.546,-10.16
07.562,13.22
07.578,35.9
07.593,53.15
07.609,61.8
07.625,61.7
07.640,55.57
07.656,47.31
07.671,40.12
07.687,35.38
07.703,33.01
07.718,32.6
07.734,34.36
07.750,39.12
07.765,47.36
07.781,58.32
07.796,69.9
07.812,79.37
07.828,84.59
07.843,85.03
07.859,81.72
07.875,76.57
07.890,71.46
07.906,67.71
07.921,65.69
07.937,65.04
07.953,65.19
07.968,65.61
07.984,66.17
08.000,67.03
08.015,68.32
08.031,69.8
08.046,70.7
08.062,69.78
08.078,65.94
08.093,58.72
08.109,48.52
08.125,36.09
08.140,21.74
08.156,4.66
08.171,-17.03
08.187,-45.2
08.203,-80.26
08.218,-120.17
08.234,-160.71
08.250,-196.97
08.265,-225.31
08.281,-244.55
08.296,-255.62
08.312,-260.3
08.328,-259.76
08.343,-254.1
08.359,-243.11
08.375,-227.42
08.390,-209.37
08.406,-192.52
08.421,-180.21
08.437,-173.79
08.453,-171.75
08.468,-170.15
08.484,-164.22
08.500,-150.43
08.515,-127.76
08.531,-98.0
08.546,-64.87
08.562,-32.49
08.578,-4.04
08.593,18.9
08.609,36.26
08.625,48.67
08.640,56.61
08.656,60.18
08.671,59.41
08.687,55.1
08.703,49.38
08.718,45.49
08.734,46.77
08.750,55.35
08.765,71.36
08.781,92.79
08.796,116.47
08.812,139.45
08.828,160.0
08.843,177.54
08.859,191.83
08.875,202.14
08.890,207.39
08.906,207.02
08.921,201.88
08.937,194.11
08.953,185.7
08.968,176.71
08.984,164.47
09.000,144.72
09.015,114.06
09.031,72.31
09.046,22.98
09.062,-28.15
09.078,-75.81
09.093,-117.28
09.109,-152.66
09.125,-183.37
09.140,-210.13
09.156,-231.95
09.171,-246.55
09.187,-252.04
09.203,-248.17
09.218,-236.72
09.234,-220.86
09.250,-203.93
09.265,-188.3
09.281,-174.75
09.296,-162.59
09.312,-150.23
09.328,-135.95
09.343,-118.67
09.359,-98.27
09.375,-75.43
09.390,-51.24
09.406,-26.61
09.421,-1.88
09.437,23.11
09.453,48.73
09.468,74.88
09.484,100.64
09.500,124.15
09.515,143.07
09.531,155.46
09.546,160.61
09.562,159.46
09.578,154.17
09.593,147.38
09.609,141.25
09.625,136.84
09.640,134.14
09.656,132.39
09.671,130.66
09.687,128.22
09.703,124.64
09.718,119.7
09.734,113.24
09.750,105.14
09.765,95.35
09.781,84.05
09.796,71.61
09.812,58.53
09.828,45.27
09.843,32.17
09.859,19.45
09.875,7.3
09.890,-4.0
09.906,-14.0
09.921,-22.12
09.937,-27.74
09.953,-30.34
09.968,-29.62
09.984,-25.58
10.000,-18.56
10.015,-9.31
10.031,1.13
10.046,11.56
10.062,20.9
10.078,28.36
10.093,33.54
10.109,36.42
10.125,37.24
10.140,36.33
10.156,34.08
10.171,30.87
10.187,27.04
10.203,22.98
10.218,19.12
10.234,15.83
10.250,13.44
10.265,12.1
10.281,11.87
10.296,12.67
10.312,14.46
10.328,17.27
10.343,21.19
10.359,26.18
10.375,31.88
10.390,37.43
10.406,41.76
10.421,43.89
10.437,43.55
10.453,41.36
10.468,38.6
10.484,36.68
10.500,36.35
10.515,37.28
10.531,38.2
10.546,37.64
10.562,34.89
10.578,30.7
10.593,27.37
10.609,28.06
10.625,35.72
10.640,51.93
10.656,76.17
10.671,105.79
10.687,136.59
10.703,163.88
10.718,183.58
10.734,193.0
10.750,191.34
10.765,179.52
10.781,159.57
10.796,133.81
10.812,104.12
10.828,71.76
10.843,37.58
10.859,2.8
10.875,-30.24
10.890,-58.04
10.906,-76.7
10.921,-83.36
10.937,-77.55
10.953,-61.89
10.968,-41.53
10.984,-22.58
11.000,-10.15
11.015,-6.75
11.031,-11.78
11.046,-22.15
11.062,-33.67
11.078,-42.65
11.093,-47.03
11.109,-46.79
11.125,-43.52
11.140,-39.55
11.156,-36.96
11.171,-36.89
11.187,-39.36
11.203,-43.35
11.218,-47.36
11.234,-49.92
11.250,-49.98
11.265,-47.08
11.281,-41.29
11.296,-32.94
11.312,-22.45
11.328,-10.04
11.343,4.22
11.359,20.31
11.375,38.01
11.390,56.79
11.406,75.74
11.421,93.79
11.437,110.0
11.453,123.71
11.468,134.59
11.484,142.56
11.500,147.72
11.515,150.27
11.531,150.63
11.546,149.4
11.562,147.34
11.578,145.34
11.593,144.34
11.609,145.23
11.625,148.7
11.640,154.96
11.656,163.52
11.671,173.19
11.687,182.28
11.703,189.06
11.718,192.22
11.734,191.26
11.750,186.59
11.765,179.19
11.781,170.05
11.796,159.53
11.812,147.1
11.828,131.51
11.843,111.48
11.859,86.49
11.875,57.3
11.890,25.84
11.906,-5.38
11.921,-34.48
11.937,-60.87
11.953,-85.65
11.968,-111.13
11.984,-139.86
12.000,-173.39
12.015,-211.16
12.031,-250.05
12.046,-284.8
12.062,-309.35
12.078,-318.79
12.093,-311.2
12.109,-288.44
12.125,-255.56
12.140,-219.02
12.156,-184.52
12.171,-155.74
12.187,-134.2
12.203,-120.17
12.218,-113.6
12.234,-114.52
12.250,-122.59
12.265,-136.44
12.281,-153.32
12.296,-169.39
12.312,-180.77
12.328,-184.53
12.343,-179.5
12.359,-166.45
12.375,-147.7
12.390,-126.41
12.406,-105.64
12.421,-87.73
12.437,-73.65
12.453,-62.86
12.468,-53.44
12.484,-42.64
12.500,-27.74
12.515,-7.03
12.531,19.41
12.546,49.73
12.562,80.77
12.578,109.13
12.593,132.19
12.609,148.88
12.625,159.53
12.640,165.34
12.656,167.52
12.671,166.78
12.687,163.24
12.703,156.69
12.718,146.98
12.734,134.23
12.750,118.9
12.765,101.7
12.781,83.57
12.796,65.62
12.812,49.08
12.828,35.04
12.843,24.25
12.859,17.0
12.875,13.12
12.890,12.11
12.906,13.37
12.921,16.28
12.937,20.26
12.953,24.78
12.968,29.35
12.984,33.64
13.000,37.62
13.015,41.65
13.031,46.33
13.046,52.27
13.062,59.66
13.078,68.09
13.093,76.59
13.109,83.87
13.125,88.86
13.140,90.97
13.156,90.18
13.171,86.83
13.187,81.28
13.203,73.68
13.218,63.98
13.234,52.13
13.250,38.23
13.265,22.65
13.281,5.94
13.296,-11.29
13.312,-28.46
13.328,-44.95
13.343,-60.14
13.359,-73.33
13.375,-83.89
13.390,-91.46
13.406,-96.11
13.421,-98.48
13.437,-99.64
13.453,-100.79
13.468,-102.87
13.484,-106.39
13.500,-111.33
13.515,-117.35
13.531,-124.04
13.546,-131.22
13.562,-138.93
13.578,-147.34
13.593,-156.42
13.609,-165.85
13.625,-174.95
13.640,-182.81
13.656,-188.53
13.671,-191.21
13.687,-189.92
13.703,-183.67
13.718,-171.72
13.734,-154.0
13.750,-131.66
13.765,-107.05
13.781,-83.17
13.796,-62.6
13.812,-46.55
13.828,-34.54
13.843,-24.89
13.859,-15.77
13.875,-6.09
13.890,4.18
13.906,14.37
13.921,23.81
13.937,32.19
13.953,39.6
13.968,46.07
13.984,51.31
14.000,54.67
14.015,55.65
14.031,54.23
14.046,51.13
14.062,47.47
14.078,44.3
14.093,42.12
14.109,40.7
14.125,39.22
14.140,36.77
14.156,32.71
14.171,27.07
14.187,20.44
14.203,13.88
14.218,8.52
14.234,5.19
14.250,4.19
14.265,5.17
14.281,7.29
14.296,9.5
14.312,10.91
14.328,11.08
14.343,10.12
14.359,8.58
14.375,7.2
14.390,6.63
14.406,7.22
14.421,8.92
14.437,11.44
14.453,14.36
14.468,17.31
14.484,19.96
14.500,22.1
14.515,23.58
14.531,24.32
14.546,24.35
14.562,23.77
14.578,22.74
14.593,21.43
14.609,19.93
14.625,18.17
14.640,15.96
14.656,13.0
14.671,8.98
14.687,3.74
14.703,-2.73
14.718,-10.13
14.734,-18.07
14.750,-26.07
14.765,-33.68
14.781,-40.54
14.796,-46.31
14.812,-50.62
14.828,-53.06
14.843,-53.25
14.859,-50.95
14.875,-46.21
14.890,-39.42
14.906,-31.12
14.921,-22.02
14.937,-12.71
14.953,-3.65
14.968,4.75
14.984,12.09
15.000,17.95
15.015,21.89
15.031,23.63
15.046,23.22
15.062,21.1
15.078,18.08
15.093,15.14
15.109,13.04
15.125,12.16
15.140,12.34
15.156,13.02
15.171,13.54
15.187,13.4
15.203,12.46
15.218,10.86
15.234,8.88
15.250,6.69
15.265,4.31
15.281,1.56
15.296,-1.8
15.312,-5.91
15.328,-10.83
15.343,-16.55
15.359,-23.0
15.375,-30.04
15.390,-37.41
15.406,-44.57
15.421,-50.69
15.437,-54.78
15.453,-55.89
15.468,-53.53
15.484,-47.76
15.500,-39.27
15.515,-29.12
15.531,-18.47
15.546,-8.25
15.562,0.98
15.578,9.01
15.593,15.9
15.609,21.79
15.625,26.81
15.640,31.04
15.656,34.52
15.671,37.3
15.687,39.43
15.703,40.99
15.718,41.97
15.734,42.4
15.750,42.25
15.765,41.54
15.781,40.33
15.796,38.72
15.812,36.81
15.828,34.65
15.843,32.2
15.859,29.4
15.875,26.24
15.890,22.76
15.906,19.12
15.921,15.48
15.937,11.89
15.953,8.33
15.968,4.56
15.984,0.31
16.000,-4.62
16.015,-10.19
16.031,-16.01
16.046,-21.39
16.062,-25.43
16.078,-27.27
16.093,-26.36
16.109,-22.61
16.125,-16.39
16.140,-8.43
16.156,0.43
16.171,9.38
16.187,17.81
16.203,25.27
16.218,31.45
16.234,36.18
16.250,39.38
16.265,41.19
16.281,41.84
16.296,41.63
16.312,40.75
16.328,39.28
16.343,37.17
16.359,34.4
16.375,31.15
16.390,27.73
16.406,24.59
16.421,22.07
16.437,20.23
16.453,18.9
16.468,17.76
16.484,16.49
16.500,14.94
16.515,13.19
16.531,11.33
16.546,9.48
16.562,7.63
16.578,5.67
16.593,3.39
16.609,0.59
16.625,-2.94
16.640,-7.42
16.656,-12.93
16.671,-19.41
16.687,-26.43
16.703,-33.25
16.718,-38.83
16.734,-42.13
16.750,-42.39
16.765,-39.37
16.781,-33.43
16.796,-25.43
16.812,-16.51
16.828,-7.74
16.843,0.08
16.859,6.53
16.875,11.58
16.890,15.34
16.906,18.02
16.921,19.78
16.937,20.72
16.953,20.89
16.968,20.39
16.984,19.29
17.000,17.73
17.015,15.83
17.031,13.66
17.046,11.32
17.062,8.85
17.078,6.32
17.093,3.74
17.109,1.08
17.125,-1.73
17.140,-4.79
17.156,-8.14
17.171,-11.8
17.187,-15.69
17.203,-19.72
17.218,-23.84
17.234,-27.98
17.250,-32.15
17.265,-36.41
17.281,-40.82
17.296,-45.47
17.312,-50.37
17.328,-55.36
17.343,-60.03
17.359,-63.69
17.375,-65.41
17.390,-64.32
17.406,-59.85
17.421,-51.99
17.437,-41.33
17.453,-28.96
17.468,-16.16
17.484,-4.16
17.500,6.19
17.515,14.5
17.531,20.83
17.546,25.44
17.562,28.66
17.578,30.71
17.593,31.72
17.609,31.75
17.625,30.91
17.640,29.42
17.656,27.64
17.671,25.9
17.687,24.45
17.703,23.38
17.718,22.58
17.734,21.85
17.750,21.01
17.765,19.93
17.781,18.56
17.796,16.95
17.812,15.12
17.828,13.09
17.843,10.87
17.859,8.47
17.875,5.9
17.890,3.18
17.906,0.29
17.921,-2.87
17.937,-6.39
17.953,-10.4
17.968,-14.84
17.984,-19.37
18.000,-23.39
18.015,-26.09
18.031,-26.68
18.046,-24.69
18.062,-20.11
18.078,-13.47
18.093,-5.68
18.109,2.27
18.125,9.54
18.140,15.64
18.156,20.42
18.171,24.05
18.187,26.74
18.203,28.68
18.218,29.97
18.234,30.62
18.250,30.59
18.265,29.93
18.281,28.74
18.296,27.19
18.312,25.46
18.328,23.73
18.343,22.07
18.359,20.51
18.375,19.0
18.390,17.47
18.406,15.84
18.421,14.06
18.437,12.14
18.453,10.13
18.468,8.04
18.484,5.93
18.500,3.78
18.515,1.58
18.531,-0.76
18.546,-3.39
18.562,-6.48
18.578,-10.16
18.593,-14.34
18.609,-18.66
18.625,-22.4
18.640,-24.73
18.656,-24.87
18.671,-22.42
18.687,-17.48
18.703,-10.65
18.718,-2.79
18.734,5.23
18.750,12.74
18.765,19.41
18.781,25.21
18.796,30.22
18.812,34.54
18.828,38.08
18.843,40.55
18.859,41.55
18.875,40.79
18.890,38.19
18.906,34.05
18.921,28.93
18.937,23.54
18.953,18.56
18.968,14.39
18.984,11.14
19.000,8.72
19.015,6.88
19.031,5.38
19.046,4.01
19.062,2.65
19.078,1.25
19.093,-0.2
19.109,-1.67
19.125,-3.12
19.140,-4.57
19.156,-6.07
19.171,-7.8
19.187,-10.01
19.203,-13.05
19.218,-17.2
19.234,-22.59
19.250,-28.98
19.265,-35.71
19.281,-41.68
19.296,-45.67
19.312,-46.7
19.328,-44.37
19.343,-39.01
19.359,-31.59
19.375,-23.39
19.390,-15.6
19.406,-8.96
19.421,-3.72
19.437,0.28
19.453,3.34
19.468,5.75
19.484,7.59
19.500,8.85
19.515,9.5
19.531,9.6
19.546,9.32
19.562,8.83
19.578,8.24
19.593,7.56
19.609,6.72
19.625,5.68
19.640,4.46
19.656,3.17
19.671,1.95
19.687,0.9
19.703,0.05
19.718,-0.73
19.734,-1.59
19.750,-2.74
19.765,-4.35
19.781,-6.49
19.796,-9.09
19.812,-11.98
19.828,-14.94
19.843,-17.79
19.859,-20.5
19.875,-23.08
19.890,-25.52
19.906,-27.63
19.921,-28.98
19.937,-29.02
19.953,-27.26
19.968,-23.5
19.984,-18.0
20.000,-11.41
20.015,-4.59
20.031,1.62
20.046,6.66
20.062,10.29
20.078,12.56
20.093,13.73
20.109,14.09
20.125,13.88
20.140,13.3
20.156,12.51
20.171,11.62
20.187,10.73
20.203,9.92
20.218,9.15
20.234,8.36
20.250,7.47
20.265,6.48
20.281,5.52
20.296,4.82
20.312,4.6
20.328,4.94
20.343,5.71
20.359,6.58
20.375,7.17
20.390,7.18
20.406,6.5
20.421,5.22
20.437,3.52
20.453,1.62
20.468,-0.4
20.484,-2.54
20.500,-4.87
20.515,-7.34
20.531,-9.78
20.546,-11.81
20.562,-12.91
20.578,-12.54
20.593,-10.29
20.609,-6.05
20.625,-0.08
20.640,6.95
20.656,14.18
20.671,20.73
20.687,25.95
20.703,29.54
20.718,31.55
20.734,32.25
20.750,31.93
20.765,30.84
20.781,29.08
20.796,26.76
20.812,23.99
20.828,20.97
20.843,17.97
20.859,15.22
20.875,12.86
20.890,10.91
20.906,9.34
20.921,8.1
20.937,7.2
20.953,6.67
20.968,6.43
20.984,6.27
21.000,5.85
21.015,4.84
21.031,3.05
21.046,0.55
21.062,-2.36
21.078,-5.21
21.093,-7.62
21.109,-9.41
21.125,-10.65
21.140,-11.6
21.156,-12.59
21.171,-13.9
21.187,-15.6
21.203,-17.59
21.218,-19.51
21.234,-20.86
21.250,-21.18
21.265,-20.05
21.281,-17.34
21.296,-13.19
21.312,-8.0
21.328,-2.28
21.343,3.42
21.359,8.62
21.375,13.03
21.390,16.5
21.406,19.06
21.421,20.88
21.437,22.15
21.453,23.09
21.468,23.8
21.484,24.27
21.500,24.42
21.515,24.15
21.531,23.51
21.546,22.63
21.562,21.72
21.578,21.05
21.593,20.78
21.609,20.95
21.625,21.53
21.640,22.37
21.656,23.26
21.671,24.0
21.687,24.39
21.703,24.33
21.718,23.87
21.734,23.18
21.750,22.41
21.765,21.64
21.781,20.79
21.796,19.66
21.812,17.99
21.828,15.66
21.843,12.64
21.859,9.13
21.875,5.34
21.890,1.52
21.906,-2.1
21.921,-5.23
21.937,-7.54
21.953,-8.74
21.968,-8.68
21.984,-7.45
22.000,-5.45
22.015,-3.23
22.031,-1.28
22.046,0.13
22.062,1.02
22.078,1.6
22.093,2.08
22.109,2.54
22.125,2.93
22.140,3.14
22.156,3.09
22.171,2.89
22.187,2.69
22.203,2.71
22.218,3.02
22.234,3.6
22.250,4.31
22.265,4.95
22.281,5.38
22.296,5.48
22.312,5.28
22.328,4.81
22.343,4.16
22.359,3.42
22.375,2.59
22.390,1.68
22.406,0.64
22.421,-0.51
22.437,-1.71
22.453,-2.79
22.468,-3.6
22.484,-4.09
22.500,-4.37
22.515,-4.75
22.531,-5.6
22.546,-7.2
22.562,-9.53
22.578,-12.26
22.593,-14.79
22.609,-16.45
22.625,-16.77
22.640,-15.6
22.656,-13.14
22.671,-9.83
22.687,-6.14
22.703,-2.4
22.718,1.22
22.734,4.75
22.750,8.28
22.765,11.86
22.781,15.49
22.796,19.05
22.812,22.35
22.828,25.16
22.843,27.22
22.859,28.33
22.875,28.37
22.890,27.33
22.906,25.37
22.921,22.77
22.937,19.85
22.953,16.96
22.968,14.37
22.984,12.24
23.000,10.56
23.015,9.23
23.031,8.05
23.046,6.79
23.062,5.33
23.078,3.59
23.093,1.66
23.109,-0.29
23.125,-2.08
23.140,-3.53
23.156,-4.51
23.171,-5.02
23.187,-5.2
23.203,-5.43
23.218,-6.27
23.234,-8.23
23.250,-11.57
23.265,-16.05
23.281,-20.86
23.296,-24.86
23.312,-26.96
23.328,-26.55
23.343,-23.63
23.359,-18.78
23.375,-12.77
23.390,-6.25
23.406,0.35
23.421,6.77
23.437,12.62
23.453,17.27
23.468,19.94
23.484,20.09
23.500,17.67
23.515,13.37
23.531,8.33
23.546,3.78
23.562,0.66
23.578,-0.72
23.593,-0.52
23.609,0.82
23.625,2.8
23.640,4.89
23.656,6.5
23.671,6.97
23.687,5.63
23.703,2.1
23.718,-3.54
23.734,-10.66
23.750,-18.23
23.765,-25.15
23.781,-30.52
23.796,-33.85
23.812,-35.07
23.828,-34.42
23.843,-32.38
23.859,-29.54
23.875,-26.5
23.890,-23.79
23.906,-21.84
23.921,-20.82
23.937,-20.73
23.953,-21.44
23.968,-22.78
23.984,-24.61
24.000,-26.85
24.015,-29.33
24.031,-31.82
24.046,-33.94
24.062,-35.22
24.078,-35.22
24.093,-33.72
24.109,-30.72
24.125,-26.52
24.140,-21.57
24.156,-16.37
24.171,-11.28
24.187,-6.59
24.203,-2.42
24.218,1.19
24.234,4.24
24.250,6.75
24.265,8.74
24.281,10.27
24.296,11.35
24.312,12.03
24.328,12.35
24.343,12.4
24.359,12.29
24.375,12.15
24.390,12.06
24.406,12.09
24.421,12.25
24.437,12.55
24.453,12.99
24.468,13.52
24.484,14.03
24.500,14.29
24.515,14.06
24.531,13.12
24.546,11.45
24.562,9.23
24.578,6.78
24.593,4.48
24.609,2.49
24.625,0.81
24.640,-0.75
24.656,-2.45
24.671,-4.41
24.687,-6.61
24.703,-8.97
24.718,-11.34
24.734,-13.61
24.750,-15.67
24.765,-17.37
24.781,-18.48
24.796,-18.76
24.812,-18.03
24.828,-16.19
24.843,-13.36
24.859,-9.77
24.875,-5.7
24.890,-1.51
24.906,2.53
24.921,6.18
24.937,9.24
24.953,11.68
24.968,13.55
24.984,15.0
25.000,16.19
25.015,17.27
25.031,18.3
25.046,19.34
25.062,20.39
25.078,21.47
25.093,22.57
25.109,23.62
25.125,24.57
25.140,25.36
25.156,25.97
25.171,26.43
25.187,26.79
25.203,26.99
25.218,26.93
25.234,26.38
25.250,25.13
25.265,23.05
25.281,20.19
25.296,16.71
25.312,12.87
25.328,8.98
25.343,5.24
25.359,1.81
25.375,-1.25
25.390,-3.97
25.406,-6.43
25.421,-8.76
25.437,-11.01
25.453,-13.18
25.468,-15.08
25.484,-16.46
25.500,-17.09
25.515,-16.78
25.531,-15.57
25.546,-13.64
25.562,-11.21
25.578,-8.57
25.593,-5.97
25.609,-3.74
25.625,-2.17
25.640,-1.58
25.656,-2.11
25.671,-3.7
25.687,-6.03
25.703,-8.63
25.718,-11.0
25.734,-12.73
25.750,-13.59
25.765,-13.48
25.781,-12.46
25.796,-10.67
25.812,-8.36
25.828,-5.78
25.843,-3.17
25.859,-0.73
25.875,1.49
25.890,3.42
25.906,4.98
25.921,5.98
25.937,6.15
25.953,5.2
25.968,3.07
25.984,-0.07
26.000,-3.79
26.015,-7.58
26.031,-11.01
26.046,-13.92
26.062,-16.4
26.078,-18.67
26.093,-20.95
26.109,-23.32
26.125,-25.73
26.140,-28.06
26.156,-30.18
26.171,-31.95
26.187,-33.17
26.203,-33.55
26.218,-32.67
26.234,-30.15
26.250,-25.81
26.265,-19.8
26.281,-12.61
26.296,-4.89
26.312,2.71
26.328,9.76
26.343,16.04
26.359,21.5
26.375,26.15
26.390,29.95
26.406,32.82
26.421,34.68
26.437,35.51
26.453,35.45
26.468,34.75
26.484,33.71
26.500,32.6
26.515,31.55
26.531,30.58
26.546,29.61
26.562,28.56
26.578,27.33
26.593,25.89
26.609,24.26
26.625,22.4
26.640,20.34
26.656,18.17
26.671,16.08
26.687,14.34
26.703,13.19
26.718,12.74
26.734,12.83
26.750,13.13
26.765,13.21
26.781,12.69
26.796,11.44
26.812,9.56
26.828,7.36
26.843,5.26
26.859,3.62
26.875,2.7
26.890,2.6
26.906,3.22
26.921,4.4
26.937,5.9
26.953,7.57
26.968,9.29
26.984,11.17
27.000,13.33
27.015,15.89
27.031,18.8
27.046,21.7
27.062,24.0
27.078,24.98
27.093,24.13
27.109,21.29
27.125,16.85
27.140,11.52
27.156,6.13
27.171,1.35
27.187,-2.42
27.203,-5.01
27.218,-6.39
27.234,-6.45
27.250,-5.05
27.265,-2.05
27.281,2.47
27.296,8.15
27.312,14.3
27.328,20.0
27.343,24.26
27.359,26.24
27.375,25.41
27.390,21.7
27.406,15.5
27.421,7.52
27.437,-1.37
27.453,-10.38
27.468,-18.95
27.484,-26.71
27.500,-33.4
27.515,-38.79
27.531,-42.63
27.546,-44.73
27.562,-45.02
27.578,-43.66
27.593,-40.97
27.609,-37.36
27.625,-33.19
27.640,-28.75
27.656,-24.22
27.671,-19.77
27.687,-15.58
27.703,-11.82
27.718,-8.64
27.734,-6.06
27.750,-3.95
27.765,-2.08
27.781,-0.2
27.796,1.84
27.812,4.04
27.828,6.24
27.843,8.18
27.859,9.63
27.875,10.5
27.890,10.87
27.906,10.93
27.921,10.9
27.937,10.93
27.953,11.06
27.968,11.25
27.984,11.4
28.000,11.39
28.015,11.15
28.031,10.62
28.046,9.85
28.062,9.02
28.078,8.44
28.093,8.48
28.109,9.3
28.125,10.79
28.140,12.39
28.156,13.36
28.171,12.98
28.187,10.88
28.203,7.12
28.218,2.08
28.234,-3.73
28.250,-9.96
28.265,-16.43
28.281,-23.07
28.296,-29.74
28.312,-36.18
28.328,-41.98
28.343,-46.7
28.359,-50.07
28.375,-52.02
28.390,-52.65
28.406,-52.2
28.421,-50.95
28.437,-49.19
28.453,-47.11
28.468,-44.8
28.484,-42.31
28.500,-39.69
28.515,-36.99
28.531,-34.34
28.546,-31.87
28.562,-29.62
28.578,-27.58
28.593,-25.56
28.609,-23.39
28.625,-20.91
28.640,-18.1
28.656,-15.1
28.671,-12.11
28.687,-9.32
28.703,-6.83
28.718,-4.63
28.734,-2.59
28.750,-0.6
28.765,1.41
28.781,3.36
28.796,5.11
28.812,6.5
28.828,7.46
28.843,8.04
28.859,8.39
28.875,8.7
28.890,9.06
28.906,9.45
28.921,9.7
28.937,9.64
28.953,9.16
28.968,8.29
28.984,7.17
29.000,5.96
29.015,4.71
29.031,3.41
29.046,1.97
29.062,0.42
29.078,-1.09
29.093,-2.22
29.109,-2.66
29.125,-2.23
29.140,-1.0
29.156,0.73
29.171,2.63
29.187,4.44
29.203,6.1
29.218,7.72
29.234,9.36
29.250,11.03
29.265,12.61
29.281,13.95
29.296,14.93
29.312,15.55
29.328,15.85
29.343,15.94
29.359,15.88
29.375,15.65
29.390,15.24
29.406,14.67
29.421,14.0
29.437,13.36
29.453,12.88
29.468,12.64
29.484,12.63
29.500,12.69
29.515,12.54
29.531,11.88
29.546,10.47
29.562,8.2
29.578,5.11
29.593,1.4
29.609,-2.66
29.625,-6.75
29.640,-10.6
29.656,-13.96
29.671,-16.64
29.687,-18.55
29.703,-19.68
29.718,-20.17
29.734,-20.2
29.750,-19.96
29.765,-19.53
29.781,-18.78
29.796,-17.47
29.812,-15.34
29.828,-12.29
29.843,-8.47
29.859,-4.27
29.875,-0.25
29.890,3.12
29.906,5.54
29.921,6.97
29.937,7.59
29.953,7.64
29.968,7.36
29.984,6.9
30.000,6.38
30.015,5.87
30.031,5.49
30.046,5.29
30.062,5.23
30.078,5.19
30.093,4.97
30.109,4.41
30.125,3.56
30.140,2.65
30.156,2.04
30.171,2.06
30.187,2.87
30.203,4.33
30.218,6.12
30.234,7.84
30.250,9.17
30.265,10.0
30.281,10.38
30.296,10.48
30.312,10.42
30.328,10.25
30.343,9.93
30.359,9.4
30.375,8.68
30.390,7.88
30.406,7.18
30.421,6.75
30.437,6.69
30.453,6.94
30.468,7.35
30.484,7.73
30.500,7.91
30.515,7.82
30.531,7.44
30.546,6.86
30.562,6.16
30.578,5.46
30.593,4.85
30.609,4.39
30.625,4.11
30.640,3.93
30.656,3.75
30.671,3.44
30.687,2.94
30.703,2.28
30.718,1.52
30.734,0.74
30.750,-0.01
30.765,-0.72
30.781,-1.4
30.796,-1.97
30.812,-2.28
30.828,-2.12
30.843,-1.36
30.859,0.02
30.875,1.78
30.890,3.59
30.906,5.04
30.921,5.88
30.937,6.08
30.953,5.8
30.968,5.26
30.984,4.61
31.000,3.81
31.015,2.65
31.031,0.91
31.046,-1.56
31.062,-4.67
31.078,-8.15
31.093,-11.65
31.109,-14.94
31.125,-17.91
31.140,-20.66
31.156,-23.33
31.171,-26.01
31.187,-28.66
31.203,-31.11
31.218,-33.09
31.234,-34.24
31.250,-34.25
31.265,-32.89
31.281,-30.08
31.296,-25.97
31.312,-20.87
31.328,-15.23
31.343,-9.46
31.359,-3.92
31.375,1.2
31.390,5.78
31.406,9.72
31.421,12.9
31.437,15.17
31.453,16.5
31.468,16.98
31.484,16.78
31.500,16.11
31.515,15.09
31.531,13.79
31.546,12.23
31.562,10.43
31.578,8.49
31.593,6.55
31.609,4.77
31.625,3.25
31.640,2.01
31.656,0.96
31.671,-0.03
31.687,-1.11
31.703,-2.38
31.718,-3.82
31.734,-5.29
31.750,-6.56
31.765,-7.41
31.781,-7.73
31.796,-7.6
31.812,-7.29
31.828,-7.13
31.843,-7.42
31.859,-8.32
31.875,-9.78
31.890,-11.6
31.906,-13.44
31.921,-14.86
31.937,-15.43
31.953,-14.81
31.968,-12.84
31.984,-9.57
32.000,-5.29
32.015,-0.47
32.031,4.4
32.046,8.92
32.062,12.9
32.078,16.29
32.093,19.15
32.109,21.5
32.125,23.32
32.140,24.48
32.156,24.91
32.171,24.6
32.187,23.68
32.203,22.34
32.218,20.75
32.234,19.06
32.250,17.3
32.265,15.48
32.281,13.61
32.296,11.72
32.312,9.93
32.328,8.34
32.343,6.96
32.359,5.75
32.375,4.54
32.390,3.08
32.406,1.19
32.421,-1.26
32.437,-4.19
32.453,-7.36
32.468,-10.45
32.484,-13.18
32.500,-15.39
32.515,-17.12
32.531,-18.54
32.546,-19.82
32.562,-21.11
32.578,-22.45
32.593,-23.86
32.609,-25.34
32.625,-26.91
32.640,-28.47
32.656,-29.79
32.671,-30.46
32.687,-29.97
32.703,-27.96
32.718,-24.42
32.734,-19.68
32.750,-14.4
32.765,-9.24
32.781,-4.7
32.796,-0.98
32.812,2.0
32.828,4.42
32.843,6.44
32.859,8.13
32.875,9.5
32.890,10.53
32.906,11.26
32.921,11.84
32.937,12.35
32.953,12.86
32.968,13.35
32.984,13.74
33.000,13.93
33.015,13.91
33.031,13.76
33.046,13.61
33.062,13.61
33.078,13.82
33.093,14.22
33.109,14.7
33.125,15.13
33.140,15.43
33.156,15.6
33.171,15.68
33.187,15.72
33.203,15.75
33.218,15.65
33.234,15.31
33.250,14.59
33.265,13.4
33.281,11.74
33.296,9.66
33.312,7.28
33.328,4.68
33.343,1.97
33.359,-0.81
33.375,-3.64
33.390,-6.56
33.406,-9.66
33.421,-12.94
33.437,-16.24
33.453,-19.2
33.468,-21.26
33.484,-21.92
33.500,-20.89
33.515,-18.22
33.531,-14.37
33.546,-9.96
33.562,-5.58
33.578,-1.57
33.593,1.96
33.609,5.12
33.625,8.02
33.640,10.68
33.656,13.01
33.671,14.9
33.687,16.22
33.703,16.99
33.718,17.33
33.734,17.41
33.750,17.37
33.765,17.29
33.781,17.15
33.796,16.94
33.812,16.63
33.828,16.26
33.843,15.88
33.859,15.57
33.875,15.34
33.890,15.18
33.906,15.03
33.921,14.83
33.937,14.56
33.953,14.26
33.968,13.96
33.984,13.7
34.000,13.39
34.015,12.89
34.031,12.03
34.046,10.66
34.062,8.73
34.078,6.32
34.093,3.58
34.109,0.68
34.125,-2.21
34.140,-5.03
34.156,-7.79
34.171,-10.58
34.187,-13.54
34.203,-16.81
34.218,-20.4
34.234,-24.22
34.250,-27.98
34.265,-31.25
34.281,-33.57
34.296,-34.52
34.312,-33.87
34.328,-31.65
34.343,-28.08
34.359,-23.59
34.375,-18.67
34.390,-13.79
34.406,-9.31
34.421,-5.43
34.437,-2.2
34.453,0.51
34.468,2.84
34.484,4.98
34.500,7.05
34.515,9.07
34.531,11.0
34.546,12.74
34.562,14.15
34.578,15.12
34.593,15.57
34.609,15.52
34.625,15.07
34.640,14.34
34.656,13.52
34.671,12.82
34.687,12.38
34.703,12.26
34.718,12.39
34.734,12.58
34.750,12.56
34.765,12.13
34.781,11.21
34.796,9.93
34.812,8.54
34.828,7.33
34.843,6.45
34.859,5.86
34.875,5.36
34.890,4.7
34.906,3.73
34.921,2.47
34.937,1.07
34.953,-0.28
34.968,-1.46
34.984,-2.46
35.000,-3.35
35.015,-4.28
35.031,-5.41
35.046,-6.82
35.062,-8.51
35.078,-10.35
35.093,-12.07
35.109,-13.36
35.125,-13.97
35.140,-13.74
35.156,-12.75
35.171,-11.19
35.187,-9.32
35.203,-7.35
35.218,-5.36
35.234,-3.38
35.250,-1.37
35.265,0.66
35.281,2.68
35.296,4.63
35.312,6.45
35.328,8.15
35.343,9.73
35.359,11.18
35.375,12.44
35.390,13.44
35.406,14.04
35.421,14.12
35.437,13.57
35.453,12.37
35.468,10.63
35.484,8.55
35.500,6.34
35.515,4.19
35.531,2.18
35.546,0.25
35.562,-1.78
35.578,-4.08
35.593,-6.75
35.609,-9.74
35.625,-12.84
35.640,-15.71
35.656,-18.07
35.671,-19.73
35.687,-20.76
35.703,-21.35
35.718,-21.8
35.734,-22.32
35.750,-22.95
35.765,-23.6
35.781,-24.09
35.796,-24.35
35.812,-24.4
35.828,-24.41
35.843,-24.51
35.859,-24.86
35.875,-25.46
35.890,-26.2
35.906,-26.88
35.921,-27.19
35.937,-26.83
35.953,-25.55
35.968,-23.22
35.984,-19.86
36.000,-15.6
36.015,-10.66
36.031,-5.29
36.046,0.21
36.062,5.58
36.078,10.54
36.093,14.91
36.109,18.62
36.125,21.7
36.140,24.23
36.156,26.26
36.171,27.74
36.187,28.61
36.203,28.81
36.218,28.42
36.234,27.59
36.250,26.52
36.265,25.35
36.281,24.12
36.296,22.78
36.312,21.24
36.328,19.49
36.343,17.67
36.359,15.96
36.375,14.5
36.390,13.17
36.406,11.53
36.421,8.87
36.437,4.45
36.453,-2.16
36.468,-10.83
36.484,-20.85
36.500,-31.11
36.515,-40.43
36.531,-47.88
36.546,-52.89
36.562,-55.2
36.578,-54.84
36.593,-51.98
36.609,-47.01
36.625,-40.57
36.640,-33.48
36.656,-26.66
36.671,-20.83
36.687,-16.44
36.703,-13.48
36.718,-11.66
36.734,-10.51
36.750,-9.58
36.765,-8.6
36.781,-7.48
36.796,-6.31
36.812,-5.26
36.828,-4.49
36.843,-4.06
36.859,-3.98
36.875,-4.18
36.890,-4.57
36.906,-5.01
36.921,-5.25
36.937,-5.01
36.953,-3.97
36.968,-1.95
36.984,1.01
37.000,4.58
37.015,8.3
37.031,11.7
37.046,14.43
37.062,16.41
37.078,17.74
37.093,18.59
37.109,19.14
37.125,19.48
37.140,19.64
37.156,19.61
37.171,19.38
37.187,18.94
37.203,18.21
37.218,17.14
37.234,15.68
37.250,13.95
37.265,12.16
37.281,10.65
37.296,9.65
37.312,9.25
37.328,9.33
37.343,9.64
37.359,9.95
37.375,10.11
37.390,10.11
37.406,9.96
37.421,9.67
37.437,9.25
37.453,8.66
37.468,7.85
37.484,6.83
37.500,5.61
37.515,4.2
37.531,2.66
37.546,1.02
37.562,-0.61
37.578,-2.13
37.593,-3.45
37.609,-4.6
37.625,-5.7
37.640,-6.91
37.656,-8.3
37.671,-9.82
37.687,-11.39
37.703,-12.91
37.718,-14.38
37.734,-15.9
37.750,-17.58
37.765,-19.51
37.781,-21.68
37.796,-23.97
37.812,-26.25
37.828,-28.35
37.843,-30.1
37.859,-31.29
37.875,-31.62
37.890,-30.84
37.906,-28.85
37.921,-25.78
37.937,-22.02
37.953,-18.07
37.968,-14.37
37.984,-11.13
38.000,-8.33
38.015,-5.81
38.031,-3.41
38.046,-1.1
38.062,1.06
38.078,2.95
38.093,4.53
38.109,5.83
38.125,6.98
38.140,8.06
38.156,9.09
38.171,10.01
38.187,10.71
38.203,11.15
38.218,11.41
38.234,11.58
38.250,11.86
38.265,12.31
38.281,12.89
38.296,13.44
38.312,13.74
38.328,13.58
38.343,12.89
38.359,11.73
38.375,10.27
38.390,8.71
38.406,7.24
38.421,5.93
38.437,4.8
38.453,3.81
38.468,2.9
38.484,2.02
38.500,1.13
38.515,0.23
38.531,-0.64
38.546,-1.44
38.562,-2.12
38.578,-2.68
38.593,-3.17
38.609,-3.68
38.625,-4.29
38.640,-4.97
38.656,-5.63
38.671,-6.18
38.687,-6.61
38.703,-7.05
38.718,-7.81
38.734,-9.15
38.750,-11.2
38.765,-13.79
38.781,-16.5
38.796,-18.76
38.812,-20.05
38.828,-19.99
38.843,-18.52
38.859,-15.78
38.875,-12.13
38.890,-8.02
38.906,-3.95
38.921,-0.35
38.937,2.5
38.953,4.53
38.968,5.86
38.984,6.73
39.000,7.38
39.015,7.97
39.031,8.52
39.046,8.96
39.062,9.21
39.078,9.2
39.093,8.94
39.109,8.48
39.125,7.85
39.140,7.13
39.156,6.35
39.171,5.57
39.187,4.87
39.203,4.3
39.218,3.91
39.234,3.69
39.250,3.6
39.265,3.55
39.281,3.48
39.296,3.37
39.312,3.28
39.328,3.28
39.343,3.45
39.359,3.76
39.375,4.09
39.390,4.33
39.406,4.33
39.421,4.06
39.437,3.5
39.453,2.69
39.468,1.61
39.484,0.33
39.500,-1.09
39.515,-2.51
39.531,-3.76
39.546,-4.75
39.562,-5.48
39.578,-6.05
39.593,-6.54
39.609,-6.99
39.625,-7.32
39.640,-7.4
39.656,-7.2
39.671,-6.85
39.687,-6.63
39.703,-6.79
39.718,-7.49
39.734,-8.61
39.750,-9.82
39.765,-10.69
39.781,-10.8
39.796,-9.94
39.812,-8.07
39.828,-5.43
39.843,-2.35
39.859,0.78
39.875,3.63
39.890,5.99
39.906,7.77
39.921,9.0
39.937,9.72
39.953,10.04
39.968,10.06
39.984,9.94
40.000,9.85
40.015,9.94
40.031,10.28
40.046,10.81
40.062,11.38
40.078,11.8
40.093,11.97
40.109,11.93
40.125,11.79
40.140,11.69
40.156,11.7
40.171,11.8
40.187,11.91
40.203,11.95
40.218,11.92
40.234,11.83
40.250,11.71
40.265,11.58
40.281,11.44
40.296,11.33
40.312,11.27
40.328,11.33
40.343,11.53
40.359,11.84
40.375,12.22
40.390,12.58
40.406,12.89
40.421,13.17
40.437,13.49
40.453,13.91
40.468,14.4
40.484,14.89
40.500,15.26
40.515,15.4
40.531,15.37
40.546,15.3
40.562,15.43
40.578,15.96
40.593,16.86
40.609,17.92
40.625,18.7
40.640,18.77
40.656,17.84
40.671,15.95
40.687,13.49
40.703,11.03
40.718,9.2
40.734,8.42
40.750,8.79
40.765,10.1
40.781,11.92
40.796,13.77
40.812,15.3
40.828,16.35
40.843,16.94
40.859,17.25
40.875,17.54
40.890,18.13
40.906,19.28
40.921,21.15
40.937,23.68
40.953,26.62
40.968,29.51
40.984,31.85
41.000,33.28
41.015,33.71
41.031,33.32
41.046,32.5
41.062,31.66
41.078,31.08
41.093,30.86
41.109,30.93
41.125,31.11
41.140,31.24
41.156,31.13
41.171,30.67
41.187,29.77
41.203,28.37
41.218,26.56
41.234,24.47
41.250,22.39
41.265,20.57
41.281,19.14
41.296,18.03
41.312,17.02
41.328,15.77
41.343,14.05
41.359,11.77
41.375,9.07
41.390,6.25
41.406,3.69
41.421,1.63
41.437,0.16
41.453,-0.84
41.468,-1.62
41.484,-2.46
41.500,-3.53
41.515,-4.92
41.531,-6.55
41.546,-8.33
41.562,-10.14
41.578,-11.93
41.593,-13.61
41.609,-15.11
41.625,-16.28
41.640,-16.97
41.656,-17.1
41.671,-16.67
41.687,-15.77
41.703,-14.59
41.718,-13.27
41.734,-11.96
41.750,-10.79
41.765,-9.8
41.781,-9.05
41.796,-8.52
41.812,-8.18
41.828,-7.99
41.843,-7.93
41.859,-8.06
41.875,-8.49
41.890,-9.3
41.906,-10.46
41.921,-11.79
41.937,-13.0
41.953,-13.83
41.968,-14.09
41.984,-13.77
42.000,-12.97
42.015,-11.86
42.031,-10.56
42.046,-9.19
42.062,-7.81
42.078,-6.49
42.093,-5.31
42.109,-4.33
42.125,-3.58
42.140,-3.06
42.156,-2.75
42.171,-2.6
42.187,-2.59
42.203,-2.67
42.218,-2.87
42.234,-3.18
42.250,-3.66
42.265,-4.36
42.281,-5.31
42.296,-6.45
42.312,-7.7
42.328,-8.95
42.343,-10.12
42.359,-11.23
42.375,-12.38
42.390,-13.59
42.406,-14.87
42.421,-16.07
42.437,-16.92
42.453,-17.22
42.468,-16.83
42.484,-15.85
42.500,-14.49
42.515,-13.1
42.531,-11.92
42.546,-11.08
42.562,-10.48
42.578,-9.9
42.593,-9.17
42.609,-8.24
42.625,-7.32
42.640,-6.62
42.656,-6.31
42.671,-6.32
42.687,-6.33
42.703,-5.94
42.718,-4.91
42.734,-3.36
42.750,-1.68
42.765,-0.39
42.781,0.15
42.796,-0.09
42.812,-0.82
42.828,-1.63
42.843,-2.21
42.859,-2.49
42.875,-2.64
42.890,-2.89
42.906,-3.43
42.921,-4.3
42.937,-5.43
42.953,-6.64
42.968,-7.81
42.984,-8.88
43.000,-9.91
43.015,-10.98
43.031,-12.16
43.046,-13.53
43.062,-15.07
43.078,-16.78
43.093,-18.61
43.109,-20.49
43.125,-22.35
43.140,-24.08
43.156,-25.48
43.171,-26.32
43.187,-26.45
43.203,-25.77
43.218,-24.4
43.234,-22.58
43.250,-20.63
43.265,-18.91
43.281,-17.63
43.296,-16.96
43.312,-16.91
43.328,-17.39
43.343,-18.24
43.359,-19.3
43.375,-20.38
43.390,-21.39
43.406,-22.29
43.421,-23.06
43.437,-23.74
43.453,-24.31
43.468,-24.74
43.484,-24.98
43.500,-25.03
43.515,-24.88
43.531,-24.58
43.546,-24.12
43.562,-23.46
43.578,-22.57
43.593,-21.48
43.609,-20.35
43.625,-19.39
43.640,-18.89
43.656,-18.98
43.671,-19.62
43.687,-20.56
43.703,-21.42
43.718,-21.88
43.734,-21.78
43.750,-21.17
43.765,-20.23
43.781,-19.21
43.796,-18.31
43.812,-17.66
43.828,-17.33
43.843,-17.37
43.859,-17.75
43.875,-18.32
43.890,-18.79
43.906,-18.73
43.921,-17.7
43.937,-15.38
43.953,-11.73
43.968,-6.99
43.984,-1.65
44.000,3.74
44.015,8.75
44.031,13.2
44.046,17.12
44.062,20.68
44.078,24.01
44.093,27.02
44.109,29.41
44.125,30.68
44.140,30.3
44.156,27.92
44.171,23.55
44.187,17.56
44.203,10.65
44.218,3.6
44.234,-2.89
44.250,-8.4
44.265,-12.71
44.281,-15.83
44.296,-17.8
44.312,-18.72
44.328,-18.75
44.343,-18.2
44.359,-17.4
44.375,-16.78
44.390,-16.6
44.406,-16.97
44.421,-17.79
44.437,-18.84
44.453,-19.91
44.468,-20.86
44.484,-21.63
44.500,-22.19
44.515,-22.53
44.531,-22.63
44.546,-22.47
44.562,-22.15
44.578,-21.76
44.593,-21.52
44.609,-21.58
44.625,-22.01
44.640,-22.72
44.656,-23.4
44.671,-23.63
44.687,-22.98
44.703,-21.16
44.718,-18.1
44.734,-14.0
44.750,-9.19
44.765,-4.07
44.781,0.97
44.796,5.63
44.812,9.68
44.828,12.99
44.843,15.53
44.859,17.41
44.875,18.79
44.890,19.91
44.906,20.91
44.921,21.86
44.937,22.75
44.953,23.51
44.968,24.11
44.984,24.48
45.000,24.62
45.015,24.52
45.031,24.21
45.046,23.77
45.062,23.26
45.078,22.78
45.093,22.3
45.109,21.76
45.125,20.97
45.140,19.81
45.156,18.26
45.171,16.42
45.187,14.53
45.203,12.79
45.218,11.28
45.234,9.98
45.250,8.72
45.265,7.35
45.281,5.79
45.296,4.06
45.312,2.25
45.328,0.47
45.343,-1.25
45.359,-2.94
45.375,-4.68
45.390,-6.55
45.406,-8.63
45.421,-10.92
45.437,-13.32
45.453,-15.63
45.468,-17.47
45.484,-18.41
45.500,-18.04
45.515,-16.08
45.531,-12.52
45.546,-7.61
45.562,-1.87
45.578,4.08
45.593,9.6
45.609,14.21
45.625,17.6
45.640,19.74
45.656,20.79
45.671,21.04
45.687,20.78
45.703,20.22
45.718,19.49
45.734,18.63
45.750,17.68
45.765,16.71
45.781,15.8
45.796,15.02
45.812,14.41
45.828,13.96
45.843,13.62
45.859,13.32
45.875,13.03
45.890,12.73
45.906,12.45
45.921,12.2
45.937,11.95
45.953,11.68
45.968,11.32
45.984,10.84
46.000,10.2
46.015,9.43
46.031,8.6
46.046,7.84
46.062,7.18
46.078,6.6
46.093,5.95
46.109,5.11
46.125,3.96
46.140,2.45
46.156,0.66
46.171,-1.28
46.187,-3.24
46.203,-5.09
46.218,-6.76
46.234,-8.26
46.250,-9.65
46.265,-11.09
46.281,-12.78
46.296,-14.83
46.312,-17.18
46.328,-19.51
46.343,-21.26
46.359,-21.84
46.375,-20.83
46.390,-18.2
46.406,-14.27
46.421,-9.63
46.437,-4.85
46.453,-0.32
46.468,3.8
46.484,7.56
46.500,10.99
46.515,14.02
46.531,16.47
46.546,18.06
46.562,18.65
46.578,18.29
46.593,17.17
46.609,15.61
46.625,13.9
46.640,12.2
46.656,10.64
46.671,9.34
46.687,8.42
46.703,8.02
46.718,8.21
46.734,8.92
46.750,9.88
46.765,10.75
46.781,11.18
46.796,10.97
46.812,10.11
46.828,8.79
46.843,7.26
46.859,5.83
46.875,4.72
46.890,4.03
46.906,3.71
46.921,3.61
46.937,3.53
46.953,3.27
46.968,2.71
46.984,1.82
47.000,0.64
47.015,-0.69
47.031,-2.03
47.046,-3.23
47.062,-4.19
47.078,-4.83
47.093,-5.14
47.109,-5.17
47.125,-5.05
47.140,-4.95
47.156,-5.03
47.171,-5.38
47.187,-5.95
47.203,-6.51
47.218,-6.66
47.234,-5.96
47.250,-4.06
47.265,-0.86
47.281,3.46
47.296,8.48
47.312,13.68
47.328,18.56
47.343,22.83
47.359,26.36
47.375,29.25
47.390,31.61
47.406,33.61
47.421,35.36
47.437,36.93
47.453,38.36
47.468,39.64
47.484,40.86
47.500,42.01
47.515,43.09
47.531,43.99
47.546,44.51
47.562,44.5
47.578,43.94
47.593,42.98
47.609,41.89
47.625,40.97
47.640,40.34
47.656,39.97
47.671,39.75
47.687,39.59
47.703,39.57
47.718,39.91
47.734,40.81
47.750,42.32
47.765,44.25
47.781,46.21
47.796,47.78
47.812,48.74
47.828,49.04
47.843,48.79
47.859,48.15
47.875,47.23
47.890,46.02
47.906,44.5
47.921,42.65
47.937,40.55
47.953,38.29
47.968,35.88
47.984,33.23
48.000,30.14
48.015,26.44
48.031,22.09
48.046,17.24
48.062,12.1
48.078,6.89
48.093,1.64
48.109,-3.77
48.125,-9.49
48.140,-15.59
48.156,-21.93
48.171,-28.15
48.187,-33.82
48.203,-38.56
48.218,-42.09
48.234,-44.31
48.250,-45.23
48.265,-44.98
48.281,-43.82
48.296,-42.12
48.312,-40.23
48.328,-38.48
48.343,-37.06
48.359,-36.01
48.375,-35.19
48.390,-34.43
48.406,-33.51
48.421,-32.27
48.437,-30.62
48.453,-28.51
48.468,-25.99
48.484,-23.12
48.500,-20.02
48.515,-16.8
48.531,-13.61
48.546,-10.58
48.562,-7.83
48.578,-5.41
48.593,-3.32
48.609,-1.48
48.625,0.22
48.640,1.8
48.656,3.17
48.671,4.12
48.687,4.46
48.703,4.17
48.718,3.43
48.734,2.59
48.750,2.01
48.765,1.84
48.781,1.97
48.796,2.08
48.812,1.84
48.828,1.03
48.843,-0.32
48.859,-2.03
48.875,-3.86
48.890,-5.55
48.906,-6.95
48.921,-8.03
48.937,-8.81
48.953,-9.37
48.968,-9.83
48.984,-10.33
49.000,-10.94
49.015,-11.61
49.031,-12.19
49.046,-12.48
49.062,-12.37
49.078,-11.83
49.093,-10.96
49.109,-9.9
49.125,-8.68
49.140,-7.29
49.156,-5.62
49.171,-3.63
49.187,-1.45
49.203,0.66
49.218,2.35
49.234,3.34
49.250,3.52
49.265,2.97
49.281,1.92
49.296,0.62
49.312,-0.65
49.328,-1.61
49.343,-2.03
49.359,-1.76
49.375,-0.8
49.390,0.63
49.406,2.21
49.421,3.63
49.437,4.69
49.453,5.44
49.468,6.11
49.484,6.91
49.500,7.89
49.515,8.95
49.531,9.84
49.546,10.39
49.562,10.62
49.578,10.68
49.593,10.8
49.609,11.09
49.625,11.44
49.640,11.63
49.656,11.41
49.671,10.68
49.687,9.58
49.703,8.38
49.718,7.37
49.734,6.7
49.750,6.32
49.765,6.03
49.781,5.71
49.796,5.34
49.812,5.06
49.828,5.07
49.843,5.45
49.859,6.09
49.875,6.72
49.890,7.02
49.906,6.81
49.921,6.1
49.937,5.04
49.953,3.76
49.968,2.35
49.984,0.77
50.000,-1.06
50.015,-3.14
50.031,-5.41
50.046,-7.71
50.062,-9.93
50.078,-12.01
50.093,-13.95
50.109,-15.76
50.125,-17.4
50.140,-18.79
50.156,-19.86
50.171,-20.58
50.187,-21.04
50.203,-21.35
50.218,-21.61
50.234,-21.82
50.250,-21.81
50.265,-21.4
50.281,-20.39
50.296,-18.74
50.312,-16.6
50.328,-14.25
50.343,-12.02
50.359,-10.15
50.375,-8.74
50.390,-7.79
50.406,-7.2
50.421,-6.85
50.437,-6.63
50.453,-6.45
50.468,-6.24
50.484,-5.98
50.500,-5.71
50.515,-5.49
50.531,-5.4
50.546,-5.46
50.562,-5.59
50.578,-5.61
50.593,-5.34
50.609,-4.65
50.625,-3.53
50.640,-2.05
50.656,-0.36
50.671,1.4
50.687,3.15
50.703,4.85
50.718,6.45
50.734,7.9
50.750,9.1
50.765,9.94
50.781,10.4
50.796,10.58
50.812,10.64
50.828,10.81
50.843,11.2
50.859,11.91
50.875,12.89
50.890,14.04
50.906,15.22
50.921,16.22
50.937,16.8
50.953,16.63
50.968,15.4
50.984,12.86
51.000,9.02
51.015,4.15
51.031,-1.25
51.046,-6.57
51.062,-11.28
51.078,-15.17
51.093,-18.25
51.109,-20.73
51.125,-22.85
51.140,-24.7
51.156,-26.22
51.171,-27.26
51.187,-27.62
51.203,-27.26
51.218,-26.22
51.234,-24.6
51.250,-22.48
51.265,-19.95
51.281,-17.15
51.296,-14.38
51.312,-12.02
51.328,-10.46
51.343,-9.99
51.359,-10.61
51.375,-12.1
51.390,-14.1
51.406,-16.33
51.421,-18.63
51.437,-20.99
51.453,-23.41
51.468,-25.86
51.484,-28.19
51.500,-30.21
51.515,-31.68
51.531,-32.45
51.546,-32.5
51.562,-31.85
51.578,-30.67
51.593,-29.19
51.609,-27.73
51.625,-26.56
51.640,-25.93
51.656,-25.89
51.671,-26.35
51.687,-27.13
51.703,-28.03
51.718,-28.97
51.734,-30.02
51.750,-31.36
51.765,-33.14
51.781,-35.41
51.796,-37.95
51.812,-40.27
51.828,-41.76
51.843,-41.83
51.859,-40.16
51.875,-36.77
51.890,-31.99
51.906,-26.4
51.921,-20.64
51.937,-15.27
51.953,-10.65
51.968,-6.95
51.984,-4.18
52.000,-2.25
52.015,-1.03
52.031,-0.34
52.046,-0.07
52.062,-0.14
52.078,-0.48
52.093,-1.06
52.109,-1.81
52.125,-2.63
52.140,-3.4
52.156,-4.06
52.171,-4.6
52.187,-5.1
52.203,-5.69
52.218,-6.48
52.234,-7.48
52.250,-8.66
52.265,-9.91
52.281,-11.13
52.296,-12.27
52.312,-13.32
52.328,-14.33
52.343,-15.38
52.359,-16.59
52.375,-18.1
52.390,-19.98
52.406,-22.1
52.421,-24.07
52.437,-25.24
52.453,-24.85
52.468,-22.32
52.484,-17.48
52.500,-10.63
52.515,-2.53
52.531,5.9
52.546,13.84
52.562,20.74
52.578,26.41
52.593,30.92
52.609,34.49
52.625,37.29
52.640,39.4
52.656,40.78
52.671,41.3
52.687,40.89
52.703,39.59
52.718,37.6
52.734,35.19
52.750,32.63
52.765,30.07
52.781,27.51
52.796,24.9
52.812,22.2
52.828,19.45
52.843,16.8
52.859,14.37
52.875,12.22
52.890,10.31
52.906,8.5
52.921,6.64
52.937,4.56
52.953,2.17
52.968,-0.62
52.984,-3.89
53.000,-7.66
53.015,-11.86
53.031,-16.23
53.046,-20.26
53.062,-23.21
53.078,-24.33
53.093,-23.15
53.109,-19.64
53.125,-14.29
53.140,-7.96
53.156,-1.55
53.171,4.3
53.187,9.3
53.203,13.54
53.218,17.23
53.234,20.54
53.250,23.51
53.265,26.06
53.281,28.09
53.296,29.57
53.312,30.53
53.328,30.98
53.343,30.93
53.359,30.36
53.375,29.3
53.390,27.83
53.406,26.17
53.421,24.5
53.437,23.0
53.453,21.73
53.468,20.64
53.484,19.63
53.500,18.6
53.515,17.49
53.531,16.2
53.546,14.59
53.562,12.51
53.578,9.82
53.593,6.5
53.609,2.62
53.625,-1.62
53.640,-6.03
53.656,-10.35
53.671,-14.35
53.687,-17.65
53.703,-19.8
53.718,-20.31
53.734,-18.79
53.750,-15.19
53.765,-9.85
53.781,-3.4
53.796,3.39
53.812,9.76
53.828,15.18
53.843,19.35
53.859,22.24
53.875,24.02
53.890,24.96
53.906,25.31
53.921,25.19
53.937,24.57
53.953,23.36
53.968,21.47
53.984,18.94
54.000,15.94
54.015,12.72
54.031,9.47
54.046,6.24
54.062,3.0
54.078,-0.3
54.093,-3.59
54.109,-6.68
54.125,-9.27
54.140,-11.16
54.156,-12.27
54.171,-12.72
54.187,-12.79
54.203,-12.82
54.218,-13.13
54.234,-13.9
54.250,-15.22
54.265,-17.08
54.281,-19.48
54.296,-22.38
54.312,-25.69
54.328,-29.1
54.343,-32.09
54.359,-33.94
54.375,-33.92
54.390,-31.58
54.406,-26.91
54.421,-20.4
54.437,-12.85
54.453,-5.1
54.468,2.14
54.484,8.49
54.500,13.82
54.515,18.1
54.531,21.36
54.546,23.63
54.562,24.95
54.578,25.41
54.593,25.15
54.609,24.28
54.625,22.95
54.640,21.25
54.656,19.24
54.671,16.94
54.687,14.37
54.703,11.58
54.718,8.66
54.734,5.74
54.750,2.91
54.765,0.26
54.781,-2.18
54.796,-4.47
54.812,-6.71
54.828,-8.98
54.843,-11.33
54.859,-13.76
54.875,-16.23
54.890,-18.72
54.906,-21.23
54.921,-23.83
54.937,-26.57
54.953,-29.44
54.968,-32.3
54.984,-34.88
55.000,-36.68
55.015,-37.17
55.031,-35.88
55.046,-32.57
55.062,-27.34
55.078,-20.66
55.093,-13.24
55.109,-5.84
55.125,0.88
55.140,6.58
55.156,11.12
55.171,14.61
55.187,17.19
55.203,18.98
55.218,20.06
55.234,20.48
55.250,20.35
55.265,19.85
55.281,19.21
55.296,18.61
55.312,18.13
55.328,17.74
55.343,17.3
55.359,16.69
55.375,15.91
55.390,14.99
55.406,14.04
55.421,13.16
55.437,12.35
55.453,11.5
55.468,10.45
55.484,9.01
55.500,7.07
55.515,4.64
55.531,1.86
55.546,-1.03
55.562,-3.78
55.578,-6.23
55.593,-8.35
55.609,-10.31
55.625,-12.32
55.640,-14.61
55.656,-17.31
55.671,-20.36
55.687,-23.55
55.703,-26.48
55.718,-28.65
55.734,-29.47
55.750,-28.42
55.765,-25.2
55.781,-19.83
55.796,-12.75
55.812,-4.7
55.828,3.46
55.843,10.97
55.859,17.36
55.875,22.53
55.890,26.63
55.906,29.89
55.921,32.5
55.937,34.48
55.953,35.76
55.968,36.31
55.984,36.23
56.000,35.76
56.015,35.19
56.031,34.68
56.046,34.26
56.062,33.82
56.078,33.25
56.093,32.52
56.109,31.81
56.125,31.3
56.140,31.13
56.156,31.23
56.171,31.32
56.187,31.06
56.203,30.21
56.218,28.73
56.234,26.8
56.250,24.7
56.265,22.7
56.281,20.96
56.296,19.5
56.312,18.22
56.328,16.99
56.343,15.59
56.359,13.82
56.375,11.54
56.390,8.74
56.406,5.56
56.421,2.25
56.437,-0.91
56.453,-3.82
56.468,-6.53
56.484,-9.22
56.500,-12.06
56.515,-15.1
56.531,-18.18
56.546,-21.11
56.562,-23.69
56.578,-25.91
56.593,-27.98
56.609,-30.24
56.625,-32.96
56.640,-36.13
56.656,-39.39
56.671,-42.05
56.687,-43.39
56.703,-42.81
56.718,-40.05
56.734,-35.23
56.750,-28.83
56.765,-21.46
56.781,-13.76
56.796,-6.28
56.812,0.54
56.828,6.4
56.843,11.13
56.859,14.7
56.875,17.19
56.890,18.78
56.906,19.62
56.921,19.82
56.937,19.47
56.953,18.69
56.968,17.68
56.984,16.76
57.000,16.27
57.015,16.49
57.031,17.47
57.046,19.06
57.062,20.93
57.078,22.77
57.093,24.47
57.109,26.14
57.125,28.03
57.140,30.34
57.156,33.09
57.171,36.07
57.187,38.93
57.203,41.38
57.218,43.33
57.234,44.95
57.250,46.56
57.265,48.54
57.281,51.23
57.296,54.81
57.312,59.38
57.328,64.97
57.343,71.57
57.359,79.15
57.375,87.58
57.390,96.65
57.406,106.09
57.421,115.69
57.437,125.36
57.453,135.18
57.468,145.26
57.484,155.47
57.500,165.25
57.515,173.52
57.531,178.79
57.546,179.53
57.562,174.49
57.578,162.93
57.593,144.69
57.609,120.14
57.625,90.13
57.640,55.79
57.656,18.39
57.671,-20.94
57.687,-61.4
57.703,-102.51
57.718,-143.82
57.734,-184.54
57.750,-223.23
57.765,-257.91
57.781,-286.49
57.796,-307.35
57.812,-319.85
57.828,-324.29
57.843,-321.65
57.859,-313.04
57.875,-299.52
57.890,-281.95
57.906,-261.25
57.921,-238.45
57.937,-214.72
57.953,-191.11
57.968,-168.36
57.984,-146.81
58.000,-126.43
58.015,-107.1
58.031,-88.77
58.046,-71.54
58.062,-55.7
58.078,-41.53
58.093,-29.21
58.109,-18.74
58.125,-9.96
58.140,-2.64
58.156,3.47
58.171,8.54
58.187,12.72
58.203,16.14
58.218,18.95
58.234,21.33
58.250,23.47
58.265,25.44
58.281,27.28
58.296,28.91
58.312,30.27
58.328,31.35
58.343,32.22
58.359,33.03
58.375,33.94
58.390,35.03
58.406,36.24
58.421,37.41
58.437,38.31
58.453,38.76
58.468,38.68
58.484,38.1
58.500,37.07
58.515,35.72
58.531,34.1
58.546,32.28
58.562,30.28
58.578,28.13
58.593,25.79
58.609,23.23
58.625,20.49
58.640,17.66
58.656,15.01
58.671,12.9
58.687,11.74
58.703,11.83
58.718,13.22
58.734,15.79
58.750,19.2
58.765,23.06
58.781,26.98
58.796,30.66
58.812,33.87
58.828,36.49
58.843,38.48
58.859,39.88
58.875,40.79
58.890,41.29
58.906,41.48
58.921,41.46
58.937,41.35
58.953,41.33
58.968,41.56
58.984,42.19
59.000,43.22
59.015,44.53
59.031,45.92
59.046,47.22
59.062,48.34
59.078,49.34
59.093,50.32
59.109,51.35
59.125,52.45
59.140,53.51
59.156,54.38
59.171,54.88
59.187,54.9
59.203,54.36
59.218,53.23
59.234,51.46
59.250,49.05
59.265,45.96
59.281,42.09
59.296,37.37
59.312,31.66
59.328,24.94
59.343,17.23
59.359,8.66
59.375,-0.62
59.390,-10.4
59.406,-20.47
59.421,-30.55
59.437,-40.32
59.453,-49.47
59.468,-57.81
59.484,-65.32
59.500,-72.1
59.515,-78.32
59.531,-83.99
59.546,-88.89
59.562,-92.58
59.578,-94.49
59.593,-94.13
59.609,-91.27
59.625,-85.94
59.640,-78.5
59.656,-69.54
59.671,-59.84
59.687,-50.18
59.703,-41.22
59.718,-33.38
59.734,-26.81
59.750,-21.4
59.765,-17.0
59.781,-13.46
59.796,-10.69
59.812,-8.62
59.828,-7.1
59.843,-5.84
59.859,-4.52
59.875,-2.9
59.890,-0.95
59.906,1.18
59.921,3.24
59.937,5.09
59.953,6.78
59.968,8.48
59.984,10.37
