timestamp,value
00.000,-29.94
00.015,-36.44
00.031,-43.03
00.046,-49.15
00.062,-54.26
00.078,-57.93
00.093,-59.93
00.109,-60.15
00.125,-58.6
00.140,-55.35
00.156,-50.57
00.171,-44.51
00.187,-37.64
00.203,-30.53
00.218,-23.74
00.234,-17.73
00.250,-12.69
00.265,-8.54
00.281,-5.11
00.296,-2.21
00.312,0.16
00.328,1.96
00.343,3.12
00.359,3.69
00.375,3.87
00.390,3.89
00.406,3.86
00.421,3.73
00.437,3.27
00.453,2.24
00.468,0.52
00.484,-1.83
00.500,-4.63
00.515,-7.61
00.531,-10.52
00.546,-13.09
00.562,-14.96
00.578,-15.74
00.593,-15.11
00.609,-12.91
00.625,-9.25
00.640,-4.53
00.656,0.72
00.671,6.03
00.687,11.03
00.703,15.57
00.718,19.59
00.734,23.03
00.750,25.83
00.765,27.92
00.781,29.28
00.796,29.96
00.812,30.06
00.828,29.65
00.843,28.74
00.859,27.24
00.875,25.07
00.890,22.27
00.906,19.05
00.921,15.81
00.937,12.95
00.953,10.73
00.968,9.18
00.984,8.14
01.000,7.34
01.015,6.57
01.031,5.76
01.046,4.91
01.062,4.1
01.078,3.31
01.093,2.44
01.109,1.33
01.125,-0.12
01.140,-1.92
01.156,-4.0
01.171,-6.21
01.187,-8.4
01.203,-10.38
01.218,-11.95
01.234,-12.87
01.250,-12.92
01.265,-11.91
01.281,-9.78
01.296,-6.51
01.312,-2.22
01.328,2.87
01.343,8.48
01.359,14.26
01.375,19.84
01.390,24.85
01.406,28.98
01.421,32.02
01.437,33.88
01.453,34.58
01.468,34.26
01.484,33.18
01.500,31.63
01.515,30.0
01.531,28.61
01.546,27.7
01.562,27.36
01.578,27.47
01.593,27.79
01.609,28.01
01.625,27.93
01.640,27.48
01.656,26.86
01.671,26.4
01.687,26.52
01.703,27.52
01.718,29.49
01.734,32.27
01.750,35.47
01.765,38.72
01.781,41.66
01.796,44.13
01.812,46.1
01.828,47.62
01.843,48.71
01.859,49.2
01.875,48.78
01.890,46.97
01.906,43.37
01.921,37.77
01.937,30.32
01.953,21.54
01.968,12.19
01.984,3.03
02.000,-5.27
02.015,-12.3
02.031,-17.86
02.046,-22.01
02.062,-25.14
02.078,-27.94
02.093,-31.4
02.109,-36.52
02.125,-44.07
02.140,-54.24
02.156,-66.52
02.171,-79.76
02.187,-92.51
02.203,-103.34
02.218,-111.28
02.234,-115.86
02.250,-117.1
02.265,-115.32
02.281,-110.88
02.296,-104.07
02.312,-95.11
02.328,-84.35
02.343,-72.35
02.359,-59.97
02.375,-48.17
02.390,-37.83
02.406,-29.44
02.421,-23.01
02.437,-18.23
02.453,-14.57
02.468,-11.59
02.484,-9.04
02.500,-6.78
02.515,-4.8
02.531,-3.05
02.546,-1.39
02.562,0.35
02.578,2.37
02.593,4.75
02.609,7.52
02.625,10.58
02.640,13.91
02.656,17.51
02.671,21.45
02.687,25.81
02.703,30.53
02.718,35.39
02.734,40.0
02.750,43.97
02.765,47.06
02.781,49.28
02.796,50.87
02.812,52.2
02.828,53.58
02.843,55.16
02.859,56.87
02.875,58.45
02.890,59.59
02.906,59.96
02.921,59.45
02.937,58.05
02.953,55.94
02.968,53.31
02.984,50.29
03.000,46.9
03.015,43.03
03.031,38.55
03.046,33.42
03.062,27.81
03.078,22.07
03.093,16.61
03.109,11.76
03.125,7.7
03.140,4.47
03.156,2.07
03.171,0.48
03.187,-0.28
03.203,-0.26
03.218,0.33
03.234,1.17
03.250,1.84
03.265,2.01
03.281,1.6
03.296,0.82
03.312,0.1
03.328,-0.1
03.343,0.4
03.359,1.47
03.375,2.72
03.390,3.77
03.406,4.46
03.421,5.03
03.437,5.97
03.453,7.86
03.468,10.98
03.484,15.15
03.500,19.68
03.515,23.5
03.531,25.45
03.546,24.58
03.562,20.44
03.578,13.15
03.593,3.49
03.609,-7.4
03.625,-18.26
03.640,-28.07
03.656,-36.22
03.671,-42.53
03.687,-47.05
03.703,-49.86
03.718,-51.03
03.734,-50.6
03.750,-48.68
03.765,-45.56
03.781,-41.66
03.796,-37.47
03.812,-33.45
03.828,-29.92
03.843,-27.0
03.859,-24.67
03.875,-22.8
03.890,-21.14
03.906,-19.44
03.921,-17.41
03.937,-14.86
03.953,-11.66
03.968,-7.81
03.984,-3.43
04.000,1.29
04.015,6.01
04.031,10.31
04.046,13.8
04.062,16.22
04.078,17.53
04.093,17.93
04.109,17.74
04.125,17.16
04.140,16.21
04.156,14.66
04.171,12.28
04.187,8.98
04.203,4.96
04.218,0.72
04.234,-3.12
04.250,-6.07
04.265,-7.88
04.281,-8.61
04.296,-8.55
04.312,-8.11
04.328,-7.71
04.343,-7.74
04.359,-8.55
04.375,-10.32
04.390,-13.07
04.406,-16.64
04.421,-20.61
04.437,-24.54
04.453,-27.99
04.468,-30.7
04.484,-32.68
04.500,-34.1
04.515,-35.24
04.531,-36.27
04.546,-37.18
04.562,-37.71
04.578,-37.52
04.593,-36.23
04.609,-33.69
04.625,-29.95
04.640,-25.3
04.656,-20.13
04.671,-14.87
04.687,-9.89
04.703,-5.44
04.718,-1.73
04.734,1.18
04.750,3.3
04.765,4.73
04.781,5.66
04.796,6.32
04.812,6.91
04.828,7.61
04.843,8.52
04.859,9.61
04.875,10.79
04.890,11.82
04.906,12.4
04.921,12.32
04.937,11.52
04.953,10.24
04.968,9.0
04.984,8.33
05.000,8.54
05.015,9.51
05.031,10.67
05.046,11.28
05.062,10.84
05.078,9.26
05.093,6.98
05.109,4.65
05.125,2.76
05.140,1.49
05.156,0.71
05.171,0.2
05.187,-0.06
05.203,0.13
05.218,1.04
05.234,2.86
05.250,5.46
05.265,8.44
05.281,11.31
05.296,13.74
05.312,15.64
05.328,17.13
05.343,18.36
05.359,19.39
05.375,20.1
05.390,20.32
05.406,19.95
05.421,19.12
05.437,18.1
05.453,17.22
05.468,16.66
05.484,16.41
05.500,16.19
05.515,15.68
05.531,14.6
05.546,12.9
05.562,10.73
05.578,8.38
05.593,6.07
05.609,3.87
05.625,1.69
05.640,-0.71
05.656,-3.53
05.671,-6.83
05.687,-10.45
05.703,-14.01
05.718,-17.01
05.734,-18.98
05.750,-19.67
05.765,-19.13
05.781,-17.81
05.796,-16.39
05.812,-15.58
05.828,-15.81
05.843,-17.04
05.859,-18.71
05.875,-20.01
05.890,-20.27
05.906,-19.19
05.921,-16.98
05.937,-14.16
05.953,-11.35
05.968,-8.87
05.984,-6.93
06.000,-5.5
06.015,-4.59
06.031,-4.3
06.046,-4.71
06.062,-5.8
06.078,-7.52
06.093,-9.97
06.109,-13.62
06.125,-19.24
06.140,-27.35
06.156,-37.66
06.171,-48.64
06.187,-57.89
06.203,-62.93
06.218,-62.22
06.234,-55.73
06.250,-44.79
06.265,-31.41
06.281,-17.5
06.296,-4.37
06.312,7.19
06.328,16.64
06.343,23.42
06.359,27.14
06.375,27.79
06.390,26.05
06.406,23.14
06.421,20.47
06.437,19.1
06.453,19.42
06.468,21.27
06.484,23.92
06.500,26.45
06.515,28.0
06.531,28.04
06.546,26.48
06.562,23.87
06.578,21.23
06.593,19.74
06.609,20.41
06.625,23.59
06.640,28.87
06.656,35.2
06.671,41.28
06.687,46.0
06.703,48.72
06.718,49.33
06.734,47.99
06.750,44.91
06.765,40.08
06.781,33.46
06.796,25.12
06.812,15.57
06.828,5.79
06.843,-2.91
06.859,-9.25
06.875,-12.48
06.890,-12.48
06.906,-9.87
06.921,-5.52
06.937,-0.31
06.953,5.18
06.968,10.49
06.984,15.1
07.000,18.21
07.015,18.87
07.031,16.44
07.046,10.9
07.062,3.12
07.078,-5.37
07.093,-12.9
07.109,-18.17
07.125,-20.56
07.140,-20.03
07.156,-16.91
07.171,-11.56
07.187,-4.35
07.203,4.32
07.218,13.89
07.234,23.63
07.250,32.75
07.265,40.62
07.281,46.85
07.296,51.34
07.312,54.18
07.328,55.48
07.343,55.25
07.359,53.36
07.375,49.69
07.390,44.2
07.406,37.09
07.421,28.93
07.437,20.46
07.453,12.56
07.468,6.04
07.484,1.54
07.500,-0.51
07.515,-0.03
07.531,2.69
07.546,6.99
07.562,11.78
07.578,15.73
07.593,17.62
07.609,16.54
07.625,12.18
07.640,4.8
07.656,-4.89
07.671,-16.03
07.687,-27.62
07.703,-38.69
07.718,-48.22
07.734,-55.26
07.750,-59.12
07.765,-59.58
07.781,-57.02
07.796,-52.27
07.812,-46.31
07.828,-39.81
07.843,-32.98
07.859,-25.63
07.875,-17.58
07.890,-8.99
07.906,-0.56
07.921,6.64
07.937,11.61
07.953,13.77
07.968,13.19
07.984,10.49
08.000,6.62
08.015,2.53
08.031,-0.98
08.046,-3.39
08.062,-4.51
08.078,-4.39
08.093,-3.38
08.109,-1.98
08.125,-0.75
08.140,-0.14
08.156,-0.39
08.171,-1.45
08.187,-3.16
08.203,-5.4
08.218,-8.23
08.234,-11.96
08.250,-17.01
08.265,-23.72
08.281,-32.08
08.296,-41.7
08.312,-51.78
08.328,-61.26
08.343,-69.1
08.359,-74.36
08.375,-76.49
08.390,-75.29
08.406,-71.04
08.421,-64.36
08.437,-56.13
08.453,-47.3
08.468,-38.64
08.484,-30.71
08.500,-23.8
08.515,-18.1
08.531,-13.78
08.546,-11.01
08.562,-9.92
08.578,-10.45
08.593,-12.27
08.609,-14.72
08.625,-17.09
08.640,-18.71
08.656,-19.21
08.671,-18.44
08.687,-16.45
08.703,-13.4
08.718,-9.53
08.734,-5.19
08.750,-0.92
08.765,2.71
08.781,5.29
08.796,6.73
08.812,7.28
08.828,7.46
08.843,7.78
08.859,8.5
08.875,9.61
08.890,10.8
08.906,11.62
08.921,11.72
08.937,10.86
08.953,9.04
08.968,6.57
08.984,3.98
09.000,2.01
09.015,1.4
09.031,2.63
09.046,5.84
09.062,10.73
09.078,16.69
09.093,22.93
09.109,28.72
09.125,33.43
09.140,36.75
09.156,38.64
09.171,39.35
09.187,39.39
09.203,39.31
09.218,39.48
09.234,39.92
09.250,40.23
09.265,39.8
09.281,38.1
09.296,35.01
09.312,30.95
09.328,26.81
09.343,23.64
09.359,22.26
09.375,22.99
09.390,25.57
09.406,29.11
09.421,32.24
09.437,33.34
09.453,30.8
09.468,23.68
09.484,12.2
09.500,-2.08
09.515,-16.48
09.531,-28.14
09.546,-34.99
09.562,-36.41
09.578,-33.3
09.593,-27.38
09.609,-20.25
09.625,-12.85
09.640,-5.3
09.656,2.68
09.671,11.25
09.687,20.22
09.703,29.19
09.718,37.74
09.734,45.59
09.750,52.54
09.765,58.39
09.781,63.07
09.796,66.87
09.812,70.51
09.828,74.86
09.843,80.5
09.859,87.17
09.875,93.77
09.890,98.74
09.906,100.85
09.921,99.67
09.937,95.56
09.953,89.16
09.968,80.77
09.984,70.17
10.000,56.89
10.015,40.89
10.031,22.89
10.046,4.38
10.062,-12.97
10.078,-28.08
10.093,-40.72
10.109,-51.39
10.125,-60.75
10.140,-69.09
10.156,-76.1
10.171,-81.19
10.187,-83.91
10.203,-84.33
10.218,-83.18
10.234,-81.5
10.250,-80.23
10.265,-79.83
10.281,-80.16
10.296,-80.62
10.312,-80.38
10.328,-78.68
10.343,-74.99
10.359,-69.08
10.375,-61.03
10.390,-51.37
10.406,-40.99
10.421,-31.08
10.437,-22.87
10.453,-17.26
10.468,-14.61
10.484,-14.63
10.500,-16.57
10.515,-19.58
10.531,-22.99
10.546,-26.49
10.562,-29.95
10.578,-33.23
10.593,-35.99
10.609,-37.76
10.625,-38.07
10.640,-36.8
10.656,-34.22
10.671,-30.94
10.687,-27.64
10.703,-24.77
10.718,-22.47
10.734,-20.58
10.750,-18.88
10.765,-17.28
10.781,-15.96
10.796,-15.28
10.812,-15.59
10.828,-17.06
10.843,-19.41
10.859,-22.05
10.875,-24.15
10.890,-25.0
10.906,-24.28
10.921,-22.23
10.937,-19.52
10.953,-16.95
10.968,-15.16
10.984,-14.31
11.000,-14.11
11.015,-14.05
11.031,-13.55
11.046,-12.21
11.062,-9.76
11.078,-6.04
11.093,-1.04
11.109,4.97
11.125,11.29
11.140,16.87
11.156,20.67
11.171,22.22
11.187,21.87
11.203,20.74
11.218,20.09
11.234,20.6
11.250,22.03
11.265,23.46
11.281,23.92
11.296,23.12
11.312,21.6
11.328,20.32
11.343,20.01
11.359,20.65
11.375,21.49
11.390,21.53
11.406,20.12
11.421,17.22
11.437,13.38
11.453,9.35
11.468,5.65
11.484,2.45
11.500,-0.48
11.515,-3.61
11.531,-7.41
11.546,-12.16
11.562,-17.77
11.578,-23.8
11.593,-29.58
11.609,-34.55
11.625,-38.46
11.640,-41.49
11.656,-44.06
11.671,-46.46
11.687,-48.47
11.703,-49.31
11.718,-47.97
11.734,-43.69
11.750,-36.49
11.765,-27.29
11.781,-17.59
11.796,-8.94
11.812,-2.28
11.828,2.21
11.843,5.0
11.859,6.79
11.875,8.11
11.890,9.08
11.906,9.52
11.921,9.12
11.937,7.79
11.953,5.72
11.968,3.39
11.984,1.34
12.015,-0.49
12.031,-0.25
12.046,0.42
12.062,1.28
12.078,2.23
12.093,3.34
12.109,4.83
12.125,6.81
12.140,9.2
12.156,11.7
12.171,13.94
12.187,15.65
12.203,16.74
12.218,17.23
12.234,17.11
12.250,16.21
12.265,14.18
12.281,10.7
12.296,5.71
12.312,-0.32
12.328,-6.34
12.343,-11.06
12.359,-13.26
12.375,-12.22
12.390,-7.94
12.406,-1.12
12.421,7.21
12.437,15.93
12.453,24.21
12.468,31.57
12.484,37.86
12.500,43.14
12.515,47.5
12.531,51.06
12.546,53.89
12.562,56.09
12.578,57.77
12.593,59.05
12.609,60.02
12.625,60.72
12.640,61.11
12.656,61.02
12.671,60.2
12.687,58.36
12.703,55.27
12.718,50.79
12.734,44.99
12.750,38.16
12.765,30.8
12.781,23.67
12.796,17.6
12.812,13.44
12.828,11.79
12.843,12.85
12.859,16.35
12.875,21.52
12.890,27.28
12.906,32.46
12.921,36.04
12.937,37.34
12.953,36.14
12.968,32.67
12.984,27.48
13.000,21.3
13.015,14.78
13.031,8.35
13.046,2.12
13.062,-3.91
13.078,-9.84
13.093,-15.55
13.109,-20.81
13.125,-25.33
13.140,-28.96
13.156,-31.82
13.171,-34.27
13.187,-36.66
13.203,-39.09
13.218,-41.26
13.234,-42.56
13.250,-42.26
13.265,-39.95
13.281,-35.62
13.296,-29.71
13.312,-22.95
13.328,-16.07
13.343,-9.61
13.359,-3.89
13.375,0.94
13.390,4.79
13.406,7.51
13.421,8.97
13.437,9.06
13.453,7.79
13.468,5.32
13.484,1.92
13.500,-2.03
13.515,-6.18
13.531,-10.22
13.546,-13.95
13.562,-17.25
13.578,-20.08
13.593,-22.42
13.609,-24.26
13.625,-25.65
13.640,-26.7
13.656,-27.61
13.671,-28.66
13.687,-30.06
13.703,-31.83
13.718,-33.71
13.734,-35.21
13.750,-35.75
13.765,-34.93
13.781,-32.64
13.796,-29.04
13.812,-24.49
13.828,-19.32
13.843,-13.73
13.859,-7.82
13.875,-1.72
13.890,4.31
13.906,9.87
13.921,14.57
13.937,18.27
13.953,21.19
13.968,23.93
13.984,27.25
14.000,31.69
14.015,37.32
14.031,43.59
14.046,49.48
14.062,53.86
14.078,55.84
14.093,55.02
14.109,51.57
14.125,45.98
14.140,38.86
14.156,30.72
14.171,21.97
14.187,12.96
14.203,4.08
14.218,-4.3
14.234,-11.95
14.250,-18.86
14.265,-25.23
14.281,-31.21
14.296,-36.65
14.312,-40.9
14.328,-42.94
14.343,-41.77
14.359,-36.76
14.375,-28.02
14.390,-16.32
14.406,-2.88
14.421,11.08
14.437,24.55
14.453,36.93
14.468,47.95
14.484,57.64
14.500,66.12
14.515,73.56
14.531,79.88
14.546,84.67
14.562,87.21
14.578,86.64
14.593,82.38
14.609,74.49
14.625,63.85
14.640,51.87
14.656,40.1
14.671,29.71
14.687,21.25
14.703,14.66
14.718,9.52
14.734,5.23
14.750,1.17
14.765,-3.31
14.781,-8.91
14.796,-16.22
14.812,-25.59
14.828,-36.95
14.843,-49.87
14.859,-63.64
14.875,-77.44
14.890,-90.47
14.906,-101.88
14.921,-110.82
14.937,-116.47
14.953,-118.28
14.968,-116.17
14.984,-110.55
15.000,-102.32
15.015,-92.52
15.031,-82.07
15.046,-71.61
15.062,-61.37
15.078,-51.26
15.093,-41.07
15.109,-30.6
15.125,-19.78
15.140,-8.8
15.156,1.99
15.171,12.14
15.187,21.24
15.203,29.15
15.218,35.96
15.234,41.86
15.250,46.85
15.265,50.6
15.281,52.42
15.296,51.6
15.312,47.73
15.328,41.04
15.343,32.39
15.359,23.0
15.375,14.13
15.390,6.64
15.406,0.91
15.421,-3.13
15.437,-5.78
15.453,-7.39
15.468,-8.15
15.484,-8.09
15.500,-7.08
15.515,-4.95
15.531,-1.66
15.546,2.63
15.562,7.51
15.578,12.43
15.593,16.92
15.609,20.75
15.625,23.98
15.640,26.95
15.656,30.25
15.671,34.53
15.687,40.25
15.703,47.43
15.718,55.29
15.734,62.29
15.750,66.42
15.765,65.99
15.781,60.35
15.796,50.43
15.812,38.46
15.828,27.25
15.843,19.16
15.859,15.32
15.875,15.46
15.890,18.33
15.906,22.42
15.921,26.47
15.937,29.81
15.953,32.16
15.968,33.41
15.984,33.48
16.000,32.31
16.015,30.08
16.031,27.27
16.046,24.61
16.062,22.79
16.078,22.23
16.093,22.89
16.109,24.36
16.125,26.21
16.140,28.29
16.156,30.95
16.171,34.78
16.187,40.24
16.203,47.28
16.218,55.28
16.234,63.26
16.250,70.26
16.265,75.66
16.281,79.13
16.296,80.39
16.312,78.97
16.328,74.17
16.343,65.35
16.359,52.49
16.375,36.43
16.390,18.94
16.406,2.08
16.421,-12.5
16.437,-24.23
16.453,-33.73
16.468,-42.31
16.484,-51.35
16.500,-61.51
16.515,-72.56
16.531,-83.7
16.546,-94.11
16.562,-103.52
16.578,-112.33
16.593,-121.26
16.609,-130.69
16.625,-140.24
16.640,-148.68
16.656,-154.38
16.671,-155.96
16.687,-152.97
16.703,-146.05
16.718,-136.65
16.734,-126.45
16.750,-116.76
16.765,-108.09
16.781,-100.18
16.796,-92.31
16.812,-83.74
16.828,-74.16
16.843,-63.8
16.859,-53.38
16.875,-43.72
16.890,-35.51
16.906,-29.01
16.921,-24.16
16.937,-20.62
16.953,-18.0
16.968,-15.93
16.984,-14.06
17.000,-11.96
17.015,-9.19
17.031,-5.42
17.046,-0.71
17.062,4.48
17.078,9.44
17.093,13.52
17.109,16.46
17.125,18.47
17.140,20.07
17.156,21.71
17.171,23.53
17.187,25.25
17.203,26.37
17.218,26.44
17.234,25.36
17.250,23.34
17.265,20.84
17.281,18.29
17.296,15.89
17.312,13.64
17.328,11.38
17.343,8.99
17.359,6.49
17.375,4.03
17.390,1.86
17.406,0.21
17.421,-0.79
17.437,-1.18
17.453,-1.11
17.468,-0.84
17.484,-0.62
17.500,-0.77
17.515,-1.5
17.531,-2.91
17.546,-4.88
17.562,-7.09
17.578,-9.08
17.593,-10.45
17.609,-10.99
17.625,-10.77
17.640,-10.16
17.656,-9.64
17.671,-9.73
17.687,-10.8
17.703,-12.98
17.718,-16.07
17.734,-19.57
17.750,-22.7
17.765,-24.61
17.781,-24.57
17.796,-22.27
17.812,-17.9
17.828,-12.19
17.843,-6.15
17.859,-0.73
17.875,3.44
17.890,6.25
17.906,8.09
17.921,9.6
17.937,11.36
17.953,13.73
17.968,16.64
17.984,19.79
18.000,22.71
18.015,24.99
18.031,26.35
18.046,26.65
18.062,25.9
18.078,24.26
18.093,22.1
18.109,19.98
18.125,18.55
18.140,18.41
18.156,19.88
18.171,22.89
18.187,27.0
18.203,31.55
18.218,35.85
18.234,39.49
18.250,42.38
18.265,44.85
18.281,47.53
18.296,51.12
18.312,56.18
18.328,62.87
18.343,70.9
18.359,79.55
18.375,87.95
18.390,95.34
18.406,101.34
18.421,105.92
18.437,109.26
18.453,111.55
18.468,112.89
18.484,113.23
18.500,112.6
18.515,111.11
18.531,108.98
18.546,106.42
18.562,103.47
18.578,99.91
18.593,95.33
18.609,89.37
18.625,81.82
18.640,72.69
18.656,62.05
18.671,49.83
18.687,35.79
18.703,19.55
18.718,0.84
18.734,-20.41
18.750,-44.02
18.765,-69.75
18.781,-97.5
18.796,-127.26
18.812,-158.87
18.828,-191.45
18.843,-223.07
18.859,-250.75
18.875,-271.04
18.890,-281.03
18.906,-279.27
18.921,-266.35
18.937,-244.71
18.953,-217.78
18.968,-188.96
18.984,-160.75
19.000,-134.48
19.015,-110.5
19.031,-88.79
19.046,-69.33
19.062,-52.22
19.078,-37.54
19.093,-25.12
19.109,-14.41
19.125,-4.77
19.140,4.29
19.156,12.78
19.171,20.32
19.187,26.4
19.203,30.66
19.218,33.2
19.234,34.43
19.250,34.95
19.265,35.3
19.281,35.76
19.296,36.29
19.312,36.57
19.328,36.13
19.343,34.55
19.359,31.7
19.375,27.84
19.390,23.6
19.406,19.83
19.421,17.27
19.437,16.22
19.453,16.52
19.468,17.59
19.484,18.75
19.500,19.52
19.515,19.7
19.531,19.43
19.546,19.01
19.562,18.87
19.578,19.39
19.593,20.88
19.609,23.5
19.625,27.19
19.640,31.76
19.656,36.91
19.671,42.28
19.687,47.6
19.703,52.61
19.718,57.08
19.734,60.76
19.750,63.38
19.765,64.73
19.781,64.75
19.796,63.58
19.812,61.6
19.828,59.25
19.843,57.03
19.859,55.33
19.875,54.37
19.890,54.18
19.906,54.55
19.921,55.17
19.937,55.54
19.953,55.12
19.968,53.31
19.984,49.58
20.000,43.57
20.015,35.32
20.031,25.34
20.046,14.54
20.062,4.1
20.078,-4.92
20.093,-11.89
20.109,-16.87
20.125,-20.58
20.140,-24.13
20.156,-28.71
20.171,-35.14
20.187,-43.66
20.203,-53.86
20.218,-64.79
20.234,-75.21
20.250,-83.85
20.265,-89.63
20.281,-91.69
20.296,-89.49
20.312,-82.83
20.328,-71.98
20.343,-57.75
20.359,-41.35
20.375,-24.23
20.390,-7.67
20.406,7.49
20.421,20.96
20.437,32.86
20.453,43.44
20.468,52.92
20.484,61.39
20.500,68.9
20.515,75.61
20.531,81.92
20.546,88.26
20.562,94.99
20.578,102.22
20.593,109.77
20.609,117.27
20.625,124.41
20.640,130.99
20.656,136.95
20.671,142.26
20.687,146.67
20.703,149.65
20.718,150.35
20.734,147.84
20.750,141.45
20.765,131.01
20.781,117.02
20.796,100.54
20.812,82.84
20.828,65.09
20.843,48.04
20.859,32.07
20.875,17.13
20.890,2.91
20.906,-11.1
20.921,-25.49
20.937,-40.72
20.953,-56.95
20.968,-73.97
20.984,-91.13
21.000,-107.57
21.015,-122.39
21.031,-134.9
21.046,-144.73
21.062,-151.85
21.078,-156.5
21.093,-159.04
21.109,-159.85
21.125,-159.12
21.140,-156.81
21.156,-152.7
21.171,-146.49
21.187,-138.06
21.203,-127.71
21.218,-116.06
21.234,-103.9
21.250,-91.89
21.265,-80.39
21.281,-69.45
21.296,-59.09
21.312,-49.46
21.328,-40.91
21.343,-33.84
21.359,-28.43
21.375,-24.45
21.390,-21.27
21.406,-18.15
21.421,-14.52
21.437,-10.36
21.453,-6.12
21.468,-2.59
21.484,-0.43
21.500,0.1
21.515,-0.71
21.531,-2.14
21.546,-3.41
21.562,-3.97
21.578,-3.77
21.593,-3.19
21.609,-2.9
21.625,-3.47
21.640,-5.12
21.656,-7.56
21.671,-10.05
21.687,-11.66
21.703,-11.62
21.718,-9.64
21.734,-6.0
21.750,-1.35
21.765,3.65
21.781,8.65
21.796,13.74
21.812,19.23
21.828,25.3
21.843,31.73
21.859,37.75
21.875,42.27
21.890,44.13
21.906,42.41
21.921,36.64
21.937,26.9
21.953,13.92
21.968,-1.03
21.984,-16.26
22.000,-30.04
22.015,-41.02
22.031,-48.54
22.046,-52.64
22.062,-53.88
22.078,-52.98
22.093,-50.54
22.109,-47.05
22.125,-42.91
22.140,-38.63
22.156,-34.69
22.171,-31.44
22.187,-28.84
22.203,-26.44
22.218,-23.61
22.234,-19.83
22.250,-15.03
22.265,-9.62
22.281,-4.43
22.296,-0.31
22.312,2.18
22.328,2.94
22.343,2.35
22.359,1.11
22.375,0.03
22.390,-0.19
22.406,0.91
22.421,3.46
22.437,7.27
22.453,11.86
22.468,16.6
22.484,20.91
22.500,24.41
22.515,27.06
22.531,29.08
22.546,30.86
22.562,32.66
22.578,34.46
22.593,35.94
22.609,36.61
22.625,36.15
22.640,34.5
22.656,32.03
22.671,29.31
22.687,26.98
22.703,25.36
22.718,24.53
22.734,24.25
22.750,24.2
22.765,24.1
22.781,23.75
22.796,23.04
22.812,21.87
22.828,20.26
22.843,18.29
22.859,16.24
22.875,14.44
22.890,13.19
22.906,12.61
22.921,12.61
22.937,13.04
22.953,13.82
22.968,15.01
22.984,16.77
23.000,19.2
23.015,22.22
23.031,25.48
23.046,28.53
23.062,30.98
23.078,32.61
23.093,33.42
23.109,33.52
23.125,33.03
23.140,32.09
23.156,30.9
23.171,29.69
23.187,28.77
23.203,28.4
23.218,28.64
23.234,29.38
23.250,30.38
23.265,31.41
23.281,32.35
23.296,33.22
23.312,34.09
23.328,35.0
23.343,35.88
23.359,36.56
23.375,36.87
23.390,36.67
23.406,35.82
23.421,34.32
23.437,32.26
23.453,29.79
23.468,27.14
23.484,24.52
23.500,22.06
23.515,19.8
23.531,17.68
23.546,15.61
23.562,13.53
23.578,11.45
23.593,9.38
23.609,7.34
23.625,5.26
23.640,3.09
23.656,0.8
23.671,-1.54
23.687,-3.86
23.703,-6.17
23.718,-8.53
23.734,-11.07
23.750,-13.77
23.765,-16.4
23.781,-18.55
23.796,-19.74
23.812,-19.66
23.828,-18.28
23.843,-15.86
23.859,-12.86
23.875,-9.74
23.890,-6.85
23.906,-4.45
23.921,-2.74
23.937,-1.84
23.953,-1.85
23.968,-2.74
23.984,-4.35
24.000,-6.42
24.015,-8.7
24.031,-10.95
24.046,-13.01
24.062,-14.75
24.078,-16.02
24.093,-16.72
24.109,-16.69
24.125,-15.89
24.140,-14.38
24.156,-12.34
24.171,-9.96
24.187,-7.46
24.203,-4.97
24.218,-2.59
24.234,-0.39
24.250,1.52
24.265,2.95
24.281,3.72
24.296,3.73
24.312,2.95
24.328,1.42
24.343,-0.77
24.359,-3.53
24.375,-6.75
24.390,-10.23
24.406,-13.56
24.421,-16.25
24.437,-17.75
24.453,-17.68
24.468,-15.98
24.484,-12.99
24.500,-9.35
24.515,-5.75
24.531,-2.67
24.546,-0.28
24.562,1.53
24.578,3.01
24.593,4.29
24.609,5.33
24.625,5.96
24.640,6.06
24.656,5.7
24.671,5.08
24.687,4.55
24.703,4.27
24.718,4.25
24.734,4.29
24.750,4.19
24.765,3.79
24.781,3.08
24.796,2.14
24.812,1.02
24.828,-0.29
24.843,-1.82
24.859,-3.6
24.875,-5.6
24.890,-7.7
24.906,-9.77
24.921,-11.66
24.937,-13.26
24.953,-14.54
24.968,-15.52
24.984,-16.27
25.000,-16.88
25.015,-17.47
25.031,-18.04
25.046,-18.47
25.062,-18.48
25.078,-17.72
25.093,-15.89
25.109,-12.89
25.125,-8.89
25.140,-4.25
25.156,0.56
25.171,5.13
25.187,9.26
25.203,12.82
25.218,15.77
25.234,17.97
25.250,19.22
25.265,19.36
25.281,18.37
25.296,16.49
25.312,14.04
25.328,11.38
25.343,8.69
25.359,6.01
25.375,3.33
25.390,0.74
25.406,-1.57
25.421,-3.36
25.437,-4.47
25.453,-4.94
25.468,-5.04
25.484,-5.09
25.500,-5.4
25.515,-6.11
25.531,-7.21
25.546,-8.6
25.562,-10.12
25.578,-11.56
25.593,-12.71
25.609,-13.41
25.625,-13.63
25.640,-13.51
25.656,-13.36
25.671,-13.42
25.687,-13.81
25.703,-14.38
25.718,-14.71
25.734,-14.39
25.750,-13.12
25.765,-10.84
25.781,-7.8
25.796,-4.33
25.812,-0.81
25.828,2.49
25.843,5.34
25.859,7.64
25.875,9.3
25.890,10.34
25.906,10.85
25.921,10.99
25.937,10.92
25.953,10.72
25.968,10.37
25.984,9.76
26.000,8.8
26.015,7.49
26.031,5.99
26.046,4.6
26.062,3.63
26.078,3.3
26.093,3.63
26.109,4.46
26.125,5.47
26.140,6.32
26.156,6.8
26.171,6.88
26.187,6.66
26.203,6.35
26.218,6.11
26.234,6.04
26.250,6.15
26.265,6.42
26.281,6.74
26.296,7.06
26.312,7.35
26.328,7.6
26.343,7.78
26.359,7.83
26.375,7.61
26.390,7.05
26.406,6.09
26.421,4.81
26.437,3.37
26.453,1.95
26.468,0.71
26.484,-0.3
26.500,-1.16
26.515,-2.0
26.531,-2.95
26.546,-3.98
26.562,-4.95
26.578,-5.6
26.593,-5.7
26.609,-5.2
26.625,-4.26
26.640,-3.22
26.656,-2.46
26.671,-2.21
26.687,-2.41
26.703,-2.84
26.718,-3.2
26.734,-3.37
26.750,-3.42
26.765,-3.56
26.781,-3.95
26.796,-4.67
26.812,-5.58
26.828,-6.53
26.843,-7.38
26.859,-8.07
26.875,-8.73
26.890,-9.5
26.906,-10.55
26.921,-11.98
26.937,-13.78
26.953,-15.82
26.968,-17.85
26.984,-19.62
27.000,-20.9
27.015,-21.63
27.031,-21.93
27.046,-21.92
27.062,-21.71
27.078,-21.31
27.093,-20.64
27.109,-19.62
27.125,-18.22
27.140,-16.41
27.156,-14.15
27.171,-11.31
27.187,-7.71
27.203,-3.2
27.218,2.17
27.234,8.07
27.250,14.0
27.265,19.33
27.281,23.54
27.296,26.23
27.312,27.22
27.328,26.51
27.343,24.23
27.359,20.63
27.375,15.99
27.390,10.7
27.406,5.2
27.421,-0.01
27.437,-4.45
27.453,-7.75
27.468,-9.76
27.484,-10.52
27.500,-10.28
27.515,-9.36
27.531,-8.05
27.546,-6.49
27.562,-4.71
27.578,-2.73
27.593,-0.65
27.609,1.27
27.625,2.73
27.640,3.44
27.656,3.29
27.671,2.37
27.687,0.94
27.703,-0.68
27.718,-2.25
27.734,-3.69
27.750,-5.05
27.765,-6.47
27.781,-8.0
27.796,-9.56
27.812,-10.88
27.828,-11.55
27.843,-11.2
27.859,-9.64
27.875,-7.01
27.890,-3.71
27.906,-0.24
27.921,2.98
27.937,5.77
27.953,8.16
27.968,10.16
27.984,11.71
28.000,12.51
28.015,12.24
28.031,10.7
28.046,8.03
28.062,4.74
28.078,1.54
28.093,-0.99
28.109,-2.67
28.125,-3.75
28.140,-4.8
28.156,-6.3
28.171,-8.48
28.187,-11.13
28.203,-13.81
28.218,-16.04
28.234,-17.53
28.250,-18.28
28.265,-18.52
28.281,-18.45
28.296,-18.21
28.312,-17.77
28.328,-17.02
28.343,-15.83
28.359,-14.2
28.375,-12.22
28.390,-10.04
28.406,-7.87
28.421,-5.86
28.437,-4.18
28.453,-2.95
28.468,-2.31
28.484,-2.35
28.500,-3.12
28.515,-4.51
28.531,-6.27
28.546,-7.94
28.562,-8.91
28.578,-8.61
28.593,-6.64
28.609,-2.96
28.625,2.05
28.640,7.7
28.656,13.22
28.671,17.98
28.687,21.67
28.703,24.35
28.718,26.29
28.734,27.75
28.750,28.89
28.765,29.65
28.781,29.97
28.796,29.77
28.812,29.17
28.828,28.33
28.843,27.52
28.859,26.86
28.875,26.41
28.890,26.07
28.906,25.76
28.921,25.45
28.937,25.19
28.953,25.01
28.968,24.85
28.984,24.5
29.000,23.65
29.015,22.07
29.031,19.71
29.046,16.74
29.062,13.53
29.078,10.5
29.093,8.06
29.109,6.41
29.125,5.48
29.140,5.0
29.156,4.47
29.171,3.4
29.187,1.42
29.203,-1.52
29.218,-5.09
29.234,-8.65
29.250,-11.47
29.265,-13.03
29.281,-13.07
29.296,-11.69
29.312,-9.14
29.328,-5.7
29.343,-1.62
29.359,2.75
29.375,6.96
29.390,10.44
29.406,12.66
29.421,13.37
29.437,12.76
29.453,11.32
29.468,9.67
29.484,8.26
29.500,7.16
29.515,6.18
29.531,5.02
29.546,3.55
29.562,1.87
29.578,0.21
29.593,-1.22
29.609,-2.41
29.625,-3.57
29.640,-4.99
29.656,-6.94
29.671,-9.46
29.687,-12.44
29.703,-15.58
29.718,-18.54
29.734,-21.03
29.750,-22.86
29.765,-23.88
29.781,-24.05
29.796,-23.35
29.812,-21.87
29.828,-19.82
29.843,-17.52
29.859,-15.35
29.875,-13.55
29.890,-12.2
29.906,-11.17
29.921,-10.27
29.937,-9.36
29.953,-8.41
29.968,-7.48
29.984,-6.67
30.000,-5.97
30.015,-5.32
30.031,-4.67
30.046,-4.13
30.062,-3.87
30.078,-4.07
30.093,-4.72
30.109,-5.57
30.125,-6.19
30.140,-6.22
30.156,-5.55
30.171,-4.36
30.187,-3.06
30.203,-1.96
30.218,-1.16
30.234,-0.51
30.250,0.21
30.265,1.12
30.281,2.07
30.296,2.68
30.312,2.52
30.328,1.36
30.343,-0.76
30.359,-3.47
30.375,-6.33
30.390,-8.9
30.406,-11.0
30.421,-12.64
30.437,-14.0
30.453,-15.31
30.468,-16.67
30.484,-18.02
30.500,-19.19
30.515,-20.06
30.531,-20.55
30.546,-20.81
30.562,-21.0
30.578,-21.31
30.593,-21.83
30.609,-22.56
30.625,-23.46
30.640,-24.57
30.656,-26.05
30.671,-28.13
30.687,-31.03
30.703,-34.73
30.718,-38.91
30.734,-42.94
30.750,-46.1
30.765,-47.75
30.781,-47.54
30.796,-45.54
30.812,-42.11
30.828,-37.75
30.843,-32.9
30.859,-27.8
30.875,-22.59
30.890,-17.39
30.906,-12.45
30.921,-8.12
30.937,-4.71
30.953,-2.34
30.968,-0.8
30.984,0.38
31.000,1.7
31.015,3.42
31.031,5.5
31.046,7.63
31.062,9.45
31.078,10.75
31.093,11.63
31.109,12.37
31.125,13.17
31.140,14.07
31.156,14.79
31.171,14.94
31.187,14.26
31.203,12.78
31.218,10.89
31.234,9.14
31.250,8.01
31.265,7.6
31.281,7.68
31.296,7.7
31.312,7.13
31.328,5.71
31.343,3.57
31.359,1.27
31.375,-0.46
31.390,-1.0
31.406,-0.06
31.421,2.27
31.437,5.59
31.453,9.46
31.468,13.56
31.484,17.76
31.500,22.01
31.515,26.21
31.531,30.11
31.546,33.4
31.562,35.9
31.578,37.72
31.593,39.26
31.609,41.01
31.625,43.18
31.640,45.61
31.656,47.79
31.671,49.16
31.687,49.43
31.703,48.84
31.718,48.02
31.734,47.64
31.750,48.08
31.765,49.02
31.781,49.7
31.796,49.18
31.812,46.96
31.828,43.3
31.843,39.21
31.859,36.07
31.875,34.98
31.890,36.36
31.906,39.7
31.921,43.96
31.937,47.97
31.953,50.93
31.968,52.56
31.984,52.89
32.000,52.01
32.015,49.79
32.031,45.88
32.046,39.97
32.062,32.12
32.078,22.93
32.093,13.47
32.109,5.01
32.125,-1.53
32.140,-5.95
32.156,-8.82
32.171,-11.2
32.187,-14.13
32.203,-18.05
32.218,-22.63
32.234,-26.92
32.250,-29.81
32.265,-30.53
32.281,-28.82
32.296,-24.84
32.312,-18.85
32.328,-10.93
32.343,-1.04
32.359,10.85
32.375,24.5
32.390,39.22
32.406,54.11
32.421,68.24
32.437,81.01
32.453,92.16
32.468,101.71
32.484,109.83
32.500,116.59
32.515,121.83
32.531,125.18
32.546,126.0
32.562,123.67
32.578,117.7
32.593,107.87
32.609,94.3
32.625,77.43
32.640,57.91
32.656,36.66
32.671,14.77
32.687,-6.58
32.703,-26.43
32.718,-44.43
32.734,-61.12
32.750,-77.76
32.765,-95.84
32.781,-116.37
32.796,-139.28
32.812,-163.37
32.828,-186.68
32.843,-207.09
32.859,-222.85
32.875,-232.76
32.890,-236.19
32.906,-232.99
32.921,-223.5
32.937,-208.59
32.953,-189.73
32.968,-168.75
32.984,-147.54
33.000,-127.65
33.015,-110.03
33.031,-95.01
33.046,-82.46
33.062,-72.05
33.078,-63.33
33.093,-55.93
33.109,-49.56
33.125,-43.99
33.140,-39.12
33.156,-34.89
33.171,-31.31
33.187,-28.4
33.203,-26.18
33.218,-24.54
33.234,-23.32
33.250,-22.25
33.265,-21.06
33.281,-19.57
33.296,-17.71
33.312,-15.55
33.328,-13.16
33.343,-10.5
33.359,-7.28
33.375,-3.16
33.390,2.18
33.406,8.75
33.421,16.23
33.437,24.07
33.453,31.69
33.468,38.73
33.484,45.07
33.500,50.76
33.515,55.86
33.531,60.35
33.546,64.16
33.562,67.24
33.578,69.76
33.593,72.02
33.609,74.4
33.625,77.16
33.640,80.37
33.656,83.93
33.671,87.69
33.687,91.51
33.703,95.32
33.718,99.2
33.734,103.22
33.750,107.49
33.765,112.05
33.781,116.78
33.796,121.49
33.812,125.86
33.828,129.55
33.843,132.26
33.859,133.79
33.875,134.13
33.890,133.39
33.906,131.86
33.921,129.88
33.937,127.82
33.953,125.97
33.968,124.54
33.984,123.63
34.000,123.18
34.015,123.13
34.031,123.31
34.046,123.49
34.062,123.34
34.078,122.56
34.093,120.9
34.109,118.33
34.125,115.04
34.140,111.22
34.156,107.0
34.171,102.18
34.187,96.25
34.203,88.55
34.218,78.63
34.234,66.42
34.250,52.31
34.265,36.96
34.281,20.99
34.296,4.68
34.312,-12.04
34.328,-29.45
34.343,-47.64
34.359,-66.25
34.375,-84.29
34.390,-100.41
34.406,-113.31
34.421,-122.19
34.437,-126.97
34.453,-128.29
34.468,-127.21
34.484,-124.87
34.500,-122.18
34.515,-119.8
34.531,-118.1
34.546,-117.31
34.562,-117.51
34.578,-118.58
34.593,-120.13
34.609,-121.49
34.625,-121.8
34.640,-120.32
34.656,-116.64
34.671,-110.88
34.687,-103.58
34.703,-95.5
34.718,-87.34
34.734,-79.51
34.750,-72.11
34.765,-65.08
34.781,-58.4
34.796,-52.18
34.812,-46.62
34.828,-41.86
34.843,-37.88
34.859,-34.46
34.875,-31.3
34.890,-28.17
34.906,-24.98
34.921,-21.74
34.937,-18.52
34.953,-15.29
34.968,-12.04
34.984,-8.72
35.000,-5.36
35.015,-2.13
35.031,0.74
35.046,2.96
35.062,4.31
35.078,4.66
35.093,4.01
35.109,2.39
35.125,-0.1
35.140,-3.35
35.156,-7.29
35.171,-11.88
35.187,-17.04
35.203,-22.57
35.218,-28.12
35.234,-33.11
35.250,-36.89
35.265,-38.84
35.281,-38.61
35.296,-36.25
35.312,-32.16
35.328,-27.05
35.343,-21.69
35.359,-16.72
35.375,-12.57
35.390,-9.38
35.406,-7.14
35.421,-5.69
35.437,-4.87
35.453,-4.46
35.468,-4.24
35.484,-3.98
35.500,-3.55
35.515,-2.97
35.531,-2.42
35.546,-2.26
35.562,-2.94
35.578,-4.83
35.593,-8.08
35.609,-12.55
35.625,-17.82
35.640,-23.24
35.656,-28.2
35.671,-32.26
35.687,-35.31
35.703,-37.65
35.718,-39.83
35.734,-42.56
35.750,-46.4
35.765,-51.52
35.781,-57.6
35.796,-63.84
35.812,-69.26
35.828,-73.11
35.843,-75.08
35.859,-75.31
35.875,-74.21
35.890,-72.18
35.906,-69.44
35.921,-66.06
35.937,-62.12
35.953,-57.84
35.968,-53.59
35.984,-49.66
36.000,-46.12
36.015,-42.83
36.031,-39.57
36.046,-36.28
36.062,-33.12
36.078,-30.33
36.093,-28.06
36.109,-26.21
36.125,-24.48
36.140,-22.55
36.156,-20.29
36.171,-17.89
36.187,-15.75
36.203,-14.34
36.218,-13.91
36.234,-14.43
36.250,-15.5
36.265,-16.39
36.281,-16.24
36.296,-14.33
36.312,-10.3
36.328,-4.37
36.343,2.6
36.359,9.31
36.375,14.55
36.390,17.59
36.406,18.59
36.421,18.55
36.437,18.84
36.453,20.79
36.468,25.07
36.484,31.63
36.500,39.74
36.515,48.35
36.531,56.43
36.546,63.14
36.562,67.94
36.578,70.66
36.593,71.42
36.609,70.66
36.625,69.09
36.640,67.52
36.656,66.64
36.671,66.82
36.687,68.01
36.703,69.63
36.718,70.7
36.734,69.9
36.750,65.92
36.765,57.85
36.781,45.59
36.796,30.02
36.812,12.91
36.828,-3.67
36.843,-17.98
36.859,-29.15
36.875,-37.25
36.890,-43.05
36.906,-47.41
36.921,-50.9
36.937,-53.74
36.953,-55.87
36.968,-57.22
36.984,-57.77
37.000,-57.41
37.015,-55.73
37.031,-52.02
37.046,-45.52
37.062,-35.97
37.078,-23.94
37.093,-10.81
37.109,1.67
37.125,12.08
37.140,19.9
37.156,25.59
37.171,30.1
37.187,34.29
37.203,38.43
37.218,42.26
37.234,45.37
37.250,47.78
37.265,50.16
37.281,53.57
37.296,58.87
37.312,66.24
37.328,74.98
37.343,83.9
37.359,91.86
37.375,98.24
37.390,103.04
37.406,106.57
37.421,109.11
37.437,110.44
37.453,109.85
37.468,106.37
37.484,99.14
37.500,87.85
37.515,72.84
37.531,55.06
37.546,35.9
37.562,16.92
37.578,-0.38
37.593,-14.69
37.609,-25.01
37.625,-30.76
37.640,-31.78
37.656,-28.39
37.671,-21.25
37.687,-11.3
37.703,0.42
37.718,12.99
37.734,25.76
37.750,38.43
37.765,51.03
37.781,63.83
37.796,77.04
37.812,90.56
37.828,103.76
37.843,115.48
37.859,124.37
37.875,129.38
37.890,130.12
37.906,126.95
37.921,120.71
37.937,111.99
37.953,100.9
37.968,86.96
37.984,69.61
38.000,48.81
38.015,25.41
38.031,1.01
38.046,-22.67
38.062,-44.33
38.078,-63.5
38.093,-80.48
38.109,-96.04
38.125,-111.25
38.140,-127.13
38.156,-144.51
38.171,-163.58
38.187,-183.84
38.203,-204.01
38.218,-222.48
38.234,-237.73
38.250,-248.89
38.265,-255.92
38.281,-259.28
38.296,-259.59
38.312,-257.13
38.328,-251.8
38.343,-243.24
38.359,-231.1
38.375,-215.22
38.390,-195.72
38.406,-173.05
38.421,-147.99
38.437,-121.76
38.453,-95.82
38.468,-71.56
38.484,-49.93
38.500,-31.37
38.515,-15.75
38.531,-2.73
38.546,8.06
38.562,17.03
38.578,24.57
38.593,31.15
38.609,37.23
38.625,43.05
38.640,48.44
38.656,52.81
38.671,55.55
38.687,56.3
38.703,55.34
38.718,53.39
38.734,51.33
38.750,49.66
38.765,48.31
38.781,46.71
38.796,44.08
38.812,39.84
38.828,33.81
38.843,26.23
38.859,17.76
38.875,9.37
38.890,2.22
38.906,-2.56
38.921,-4.09
38.937,-2.07
38.953,3.19
38.968,10.7
38.984,19.15
39.000,27.3
39.015,34.27
39.031,39.72
39.046,43.66
39.062,46.35
39.078,47.97
39.093,48.55
39.109,47.98
39.125,46.21
39.140,43.36
39.156,39.78
39.171,35.97
39.187,32.34
39.203,29.11
39.218,26.24
39.234,23.57
39.250,20.98
39.265,18.47
39.281,16.19
39.296,14.28
39.312,12.7
39.328,11.15
39.343,9.21
39.359,6.49
39.375,2.9
39.390,-1.24
39.406,-5.29
39.421,-8.58
39.437,-10.68
39.453,-11.58
39.468,-11.76
39.484,-11.92
39.500,-12.76
39.515,-14.7
39.531,-17.73
39.546,-21.42
39.562,-24.96
39.578,-27.4
39.593,-27.85
39.609,-25.73
39.625,-20.93
39.640,-13.86
39.656,-5.39
39.671,3.52
39.687,11.97
39.703,19.4
39.718,25.57
39.734,30.45
39.750,34.15
39.765,36.81
39.781,38.52
39.796,39.45
39.812,39.78
39.828,39.73
39.843,39.44
39.859,39.03
39.875,38.5
39.890,37.79
39.906,36.86
39.921,35.67
39.937,34.25
39.953,32.68
39.968,31.02
39.984,29.34
40.000,27.66
40.015,26.01
40.031,24.35
40.046,22.62
40.062,20.7
40.078,18.45
40.093,15.78
40.109,12.69
40.125,9.33
40.140,5.89
40.156,2.54
40.171,-0.7
40.187,-3.89
40.203,-7.19
40.218,-10.61
40.234,-13.99
40.250,-16.97
40.265,-19.05
40.281,-19.76
40.296,-18.73
40.312,-15.85
40.328,-11.27
40.343,-5.44
40.359,1.07
40.375,7.57
40.390,13.44
40.406,18.2
40.421,21.61
40.437,23.73
40.453,24.75
40.468,24.97
40.484,24.66
40.500,23.99
40.515,23.07
40.531,21.98
40.546,20.84
40.562,19.82
40.578,19.11
40.593,18.79
40.609,18.75
40.625,18.72
40.640,18.38
40.656,17.52
40.671,16.13
40.687,14.42
40.703,12.65
40.718,11.0
40.734,9.5
40.750,8.03
40.765,6.46
40.781,4.75
40.796,3.01
40.812,1.44
40.828,0.22
40.843,-0.68
40.859,-1.54
40.875,-2.67
40.890,-4.3
40.906,-6.38
40.921,-8.5
40.937,-10.01
40.953,-10.3
40.968,-8.98
40.984,-6.07
41.000,-1.94
41.015,2.92
41.031,7.99
41.046,12.87
41.062,17.35
41.078,21.27
41.093,24.47
41.109,26.81
41.125,28.14
41.140,28.45
41.156,27.92
41.171,26.84
41.187,25.57
41.203,24.36
41.218,23.34
41.234,22.47
41.250,21.67
41.265,20.86
41.281,20.04
41.296,19.22
41.312,18.38
41.328,17.45
41.343,16.28
41.359,14.71
41.375,12.66
41.390,10.18
41.406,7.44
41.421,4.68
41.437,2.14
41.453,-0.07
41.468,-1.98
41.484,-3.83
41.500,-5.97
41.515,-8.79
41.531,-12.42
41.546,-16.78
41.562,-21.43
41.578,-25.75
41.593,-29.1
41.609,-31.0
41.625,-31.28
41.640,-30.13
41.656,-28.03
41.671,-25.62
41.687,-23.48
41.703,-22.02
41.718,-21.37
41.734,-21.42
41.750,-21.92
41.765,-22.65
41.781,-23.53
41.796,-24.56
41.812,-25.73
41.828,-26.94
41.843,-27.86
41.859,-28.1
41.875,-27.33
41.890,-25.46
41.906,-22.68
41.921,-19.3
41.937,-15.6
41.953,-11.7
41.968,-7.55
41.984,-3.16
42.000,1.31
42.015,5.46
42.031,8.89
42.046,11.31
42.062,12.76
42.078,13.55
42.093,14.06
42.109,14.54
42.125,14.98
42.140,15.13
42.156,14.71
42.171,13.56
42.187,11.79
42.203,9.72
42.218,7.77
42.234,6.34
42.250,5.7
42.265,6.03
42.281,7.36
42.296,9.69
42.312,12.96
42.328,16.99
42.343,21.51
42.359,26.08
42.375,30.23
42.390,33.55
42.406,35.82
42.421,37.03
42.437,37.39
42.453,37.2
42.468,36.78
42.484,36.41
42.500,36.31
42.515,36.61
42.531,37.36
42.546,38.54
42.562,40.07
42.578,41.85
42.593,43.78
42.609,45.73
42.625,47.54
42.640,48.97
42.656,49.7
42.671,49.48
42.687,48.21
42.703,46.06
42.718,43.39
42.734,40.6
42.750,37.92
42.765,35.29
42.781,32.43
42.796,28.96
42.812,24.65
42.828,19.45
42.843,13.55
42.859,7.19
42.875,0.61
42.890,-6.05
42.906,-12.66
42.921,-19.07
42.937,-25.06
42.953,-30.35
42.968,-34.69
42.984,-37.93
43.000,-40.07
43.015,-41.28
43.031,-41.83
43.046,-42.03
43.062,-42.17
43.078,-42.46
43.093,-42.95
43.109,-43.61
43.125,-44.34
43.140,-45.03
43.156,-45.61
43.171,-46.0
43.187,-46.11
43.203,-45.75
43.218,-44.73
43.234,-42.9
43.250,-40.31
43.265,-37.22
43.281,-34.02
43.296,-31.02
43.312,-28.24
43.328,-25.46
43.343,-22.29
43.359,-18.46
43.375,-14.09
43.390,-9.67
43.406,-5.86
43.421,-3.18
43.437,-1.74
43.453,-1.32
43.468,-1.45
43.484,-1.84
43.500,-2.41
43.515,-3.33
43.531,-4.68
43.546,-6.28
43.562,-7.61
43.578,-8.0
43.593,-6.9
43.609,-4.18
43.625,-0.12
43.640,4.76
43.656,9.93
43.671,15.09
43.687,20.18
43.703,25.26
43.718,30.33
43.734,35.26
43.750,39.81
43.765,43.73
43.781,46.94
43.796,49.55
43.812,51.9
43.828,54.41
43.843,57.49
43.859,61.38
43.875,66.13
43.890,71.52
43.906,77.06
43.921,82.21
43.937,86.5
43.953,89.7
43.968,91.96
43.984,93.63
44.000,95.15
44.015,96.76
44.031,98.4
44.046,99.59
44.062,99.7
44.078,97.99
44.093,93.95
44.109,87.3
44.125,78.1
44.140,66.78
44.156,54.09
44.171,41.07
44.187,29.01
44.203,19.15
44.218,12.3
44.234,8.58
44.250,7.28
44.265,7.13
44.281,6.77
44.296,5.32
44.312,2.61
44.328,-0.84
44.343,-4.24
44.359,-7.07
44.375,-9.25
44.390,-11.17
44.406,-13.39
44.421,-16.23
44.437,-19.59
44.453,-23.04
44.468,-26.08
44.484,-28.49
44.500,-30.4
44.515,-32.25
44.531,-34.48
44.546,-37.29
44.562,-40.58
44.578,-43.94
44.593,-46.99
44.609,-49.48
44.625,-51.42
44.640,-53.0
44.656,-54.45
44.671,-55.84
44.687,-57.08
44.703,-57.94
44.718,-58.22
44.734,-57.85
44.750,-57.01
44.765,-56.06
44.781,-55.47
44.796,-55.59
44.812,-56.52
44.828,-57.95
44.843,-59.24
44.859,-59.64
44.875,-58.56
44.890,-55.82
44.906,-51.7
44.921,-46.78
44.937,-41.66
44.953,-36.72
44.968,-32.07
44.984,-27.63
45.000,-23.3
45.015,-19.15
45.031,-15.42
45.046,-12.42
45.062,-10.36
45.078,-9.26
45.093,-8.88
45.109,-8.91
45.125,-8.96
45.140,-8.78
45.156,-8.24
45.171,-7.34
45.187,-6.13
45.203,-4.73
45.218,-3.24
45.234,-1.78
45.250,-0.54
45.265,0.28
45.281,0.47
45.296,-0.04
45.312,-1.25
45.328,-3.02
45.343,-5.15
45.359,-7.39
45.375,-9.5
45.390,-11.3
45.406,-12.7
45.421,-13.77
45.437,-14.63
45.453,-15.47
45.468,-16.41
45.484,-17.49
45.500,-18.59
45.515,-19.55
45.531,-20.19
45.546,-20.32
45.562,-19.8
45.578,-18.48
45.593,-16.24
45.609,-13.04
45.625,-8.96
45.640,-4.18
45.656,0.96
45.671,6.17
45.687,11.25
45.703,16.14
45.718,20.88
45.734,25.58
45.750,30.25
45.765,34.85
45.781,39.17
45.796,43.02
45.812,46.27
45.828,48.85
45.843,50.82
45.859,52.31
45.875,53.44
45.890,54.25
45.906,54.68
45.921,54.53
45.937,53.62
45.953,51.82
45.968,49.14
45.984,45.71
46.000,41.77
46.015,37.54
46.031,33.15
46.046,28.63
46.062,24.01
46.078,19.34
46.093,14.72
46.109,10.29
46.125,6.11
46.140,2.2
46.156,-1.53
46.171,-5.12
46.187,-8.45
46.203,-11.24
46.218,-13.15
46.234,-13.93
46.250,-13.64
46.265,-12.6
46.281,-11.38
46.296,-10.55
46.312,-10.45
46.328,-11.12
46.343,-12.3
46.359,-13.63
46.375,-14.81
46.390,-15.74
46.406,-16.57
46.421,-17.55
46.437,-18.96
46.453,-20.96
46.468,-23.57
46.484,-26.62
46.500,-29.84
46.515,-32.84
46.531,-35.25
46.546,-36.68
46.562,-36.9
46.578,-35.84
46.593,-33.62
46.609,-30.54
46.625,-26.93
46.640,-23.13
46.656,-19.46
46.671,-16.19
46.687,-13.61
46.703,-11.95
46.718,-11.38
46.734,-11.84
46.750,-13.08
46.765,-14.63
46.781,-15.94
46.796,-16.54
46.812,-16.12
46.828,-14.67
46.843,-12.33
46.859,-9.38
46.875,-6.09
46.890,-2.7
46.906,0.57
46.921,3.47
46.937,5.74
46.953,7.11
46.968,7.45
46.984,6.83
47.000,5.5
47.015,3.8
47.031,2.01
47.046,0.3
47.062,-1.2
47.078,-2.37
47.093,-3.09
47.109,-3.35
47.125,-3.45
47.140,-4.02
47.156,-5.87
47.171,-9.67
47.187,-15.56
47.203,-22.99
47.218,-30.93
47.234,-38.13
47.250,-43.57
47.265,-46.71
47.281,-47.56
47.296,-46.66
47.312,-44.87
47.328,-43.21
47.343,-42.49
47.359,-43.09
47.375,-44.66
47.390,-46.29
47.406,-46.79
47.421,-45.27
47.437,-41.43
47.453,-35.72
47.468,-28.96
47.484,-21.97
47.500,-15.15
47.515,-8.55
47.531,-2.03
47.546,4.45
47.562,10.66
47.578,16.28
47.593,21.07
47.609,25.07
47.625,28.57
47.640,31.99
47.656,35.55
47.671,39.22
47.687,42.71
47.703,45.73
47.718,48.15
47.734,50.09
47.750,51.81
47.765,53.55
47.781,55.35
47.796,57.06
47.812,58.45
47.828,59.29
47.843,59.49
47.859,59.12
47.875,58.28
47.890,57.0
47.906,55.21
47.921,52.76
47.937,49.5
47.953,45.45
47.968,40.78
47.984,35.76
48.000,30.72
48.015,25.9
48.031,21.41
48.046,17.21
48.062,13.13
48.078,8.85
48.093,3.96
48.109,-1.94
48.125,-9.23
48.140,-17.97
48.156,-27.92
48.171,-38.48
48.187,-48.86
48.203,-58.32
48.218,-66.31
48.234,-72.58
48.250,-77.11
48.265,-80.03
48.281,-81.49
48.296,-81.66
48.312,-80.69
48.328,-78.75
48.343,-76.06
48.359,-72.87
48.375,-69.45
48.390,-66.0
48.406,-62.6
48.421,-59.22
48.437,-55.84
48.453,-52.44
48.468,-49.13
48.484,-46.17
48.500,-43.82
48.515,-42.25
48.531,-41.35
48.546,-40.8
48.562,-40.09
48.578,-38.69
48.593,-36.17
48.609,-32.24
48.625,-26.78
48.640,-19.87
48.656,-11.85
48.671,-3.27
48.687,5.2
48.703,12.97
48.718,19.69
48.734,25.35
48.750,30.17
48.765,34.39
48.781,38.08
48.796,41.09
48.812,43.21
48.828,44.38
48.843,44.83
48.859,45.04
48.875,45.44
48.890,46.25
48.906,47.23
48.921,47.94
48.937,47.87
48.953,46.82
48.968,44.92
48.984,42.57
49.000,40.18
49.015,37.97
49.031,36.01
49.046,34.17
49.062,32.41
49.078,30.7
49.093,29.01
49.109,27.28
49.125,25.33
49.140,22.98
49.156,20.18
49.171,17.01
49.187,13.69
49.203,10.45
49.218,7.48
49.234,5.03
49.250,3.34
49.265,2.71
49.281,3.36
49.296,5.22
49.312,7.91
49.328,10.73
49.343,13.02
49.359,14.36
49.375,14.71
49.390,14.39
49.406,13.86
49.421,13.46
49.437,13.29
49.453,13.28
49.468,13.28
49.484,13.23
49.500,13.27
49.515,13.64
49.531,14.56
49.546,16.12
49.562,18.2
49.578,20.5
49.593,22.62
49.609,24.28
49.625,25.33
49.640,25.86
49.656,26.08
49.671,26.18
49.687,26.23
49.703,26.19
49.718,25.93
49.734,25.36
49.750,24.5
49.765,23.42
49.781,22.3
49.796,21.26
49.812,20.33
49.828,19.47
49.843,18.58
49.859,17.51
49.875,16.18
49.890,14.6
49.906,12.82
49.921,10.93
49.937,8.94
49.953,6.77
49.968,4.32
49.984,1.57
50.000,-1.26
50.015,-3.64
50.031,-4.85
50.046,-4.25
50.062,-1.52
50.078,3.11
50.093,8.92
50.109,14.98
50.125,20.37
50.140,24.4
50.156,26.64
50.171,26.84
50.187,24.81
50.203,20.5
50.218,13.99
50.234,5.73
50.250,-3.56
50.265,-13.0
50.281,-21.76
50.296,-29.26
50.312,-35.32
50.328,-40.07
50.343,-43.89
50.359,-47.22
50.375,-50.5
50.390,-54.08
50.406,-58.24
50.421,-63.14
50.437,-68.73
50.453,-74.74
50.468,-80.65
50.484,-85.73
50.500,-89.29
50.515,-90.77
50.531,-90.03
50.546,-87.29
50.562,-83.03
50.578,-77.77
50.593,-71.79
50.609,-65.14
50.625,-57.73
50.640,-49.54
50.656,-40.78
50.671,-31.95
50.687,-23.69
50.703,-16.57
50.718,-10.93
50.734,-6.77
50.750,-3.83
50.765,-1.75
50.781,-0.21
50.796,0.98
50.812,1.89
50.828,2.55
50.843,3.07
50.859,3.66
50.875,4.54
50.890,5.88
50.906,7.67
50.921,9.71
50.937,11.59
50.953,12.89
50.968,13.34
50.984,12.92
51.000,11.88
51.015,10.63
51.031,9.51
51.046,8.62
51.062,7.82
51.078,6.76
51.093,5.24
51.109,3.32
51.125,1.36
51.140,-0.18
51.156,-0.94
51.171,-0.91
51.187,-0.4
51.203,0.2
51.218,0.63
51.234,1.01
51.250,1.77
51.265,3.45
51.281,6.39
51.296,10.46
51.312,15.14
51.328,19.67
51.343,23.41
51.359,26.08
51.375,27.85
51.390,29.08
51.406,30.13
51.421,31.09
51.437,31.79
51.453,31.97
51.468,31.52
51.484,30.53
51.500,29.26
51.515,27.89
51.531,26.37
51.546,24.34
51.562,21.46
51.578,17.52
51.593,12.74
51.609,7.72
51.625,3.27
51.640,0.09
51.656,-1.49
51.671,-1.62
51.687,-0.87
51.703,-0.06
51.718,0.01
51.734,-1.22
51.750,-3.85
51.765,-7.62
51.781,-11.93
51.796,-16.11
51.812,-19.57
51.828,-21.87
51.843,-22.71
51.859,-21.89
51.875,-19.25
51.890,-14.67
51.906,-8.26
51.921,-0.31
51.937,8.62
51.953,17.81
51.968,26.62
51.984,34.66
52.000,41.8
52.015,48.21
52.031,54.18
52.046,59.86
52.062,65.19
52.078,69.84
52.093,73.25
52.109,74.9
52.125,74.41
52.140,71.75
52.156,67.22
52.171,61.38
52.187,54.9
52.203,48.41
52.218,42.42
52.234,37.22
52.250,32.97
52.265,29.61
52.281,26.96
52.296,24.69
52.312,22.33
52.328,19.36
52.343,15.31
52.359,9.95
52.375,3.24
52.390,-4.69
52.406,-13.72
52.421,-23.79
52.437,-34.89
52.453,-46.89
52.468,-59.41
52.484,-71.73
52.500,-82.8
52.515,-91.57
52.531,-97.18
52.546,-99.25
52.562,-97.87
52.578,-93.54
52.593,-87.0
52.609,-79.07
52.625,-70.51
52.640,-61.89
52.656,-53.62
52.671,-45.84
52.687,-38.52
52.703,-31.58
52.718,-24.97
52.734,-18.79
52.750,-13.39
52.765,-9.31
52.781,-7.15
52.796,-7.32
52.812,-9.88
52.828,-14.43
52.843,-20.28
52.859,-26.59
52.875,-32.6
52.890,-37.7
52.906,-41.47
52.921,-43.6
52.937,-43.82
52.953,-42.02
52.968,-38.31
52.984,-32.96
53.000,-26.32
53.015,-18.72
53.031,-10.42
53.046,-1.82
53.062,6.39
53.078,13.24
53.093,17.73
53.109,19.25
53.125,17.94
53.140,14.73
53.156,11.0
53.171,8.02
53.187,6.46
53.203,6.24
53.218,6.74
53.234,7.27
53.250,7.39
53.265,7.14
53.281,6.8
53.296,6.66
53.312,6.81
53.328,7.07
53.343,7.18
53.359,6.97
53.375,6.58
53.390,6.38
53.406,6.79
53.421,8.04
53.437,10.0
53.453,12.23
53.468,14.15
53.484,15.33
53.500,15.63
53.515,15.27
53.531,14.68
53.546,14.25
53.562,14.18
53.578,14.39
53.593,14.58
53.609,14.44
53.625,13.8
53.640,12.69
53.656,11.4
53.671,10.27
53.687,9.52
53.703,9.09
53.718,8.71
53.734,7.97
53.750,6.63
53.765,4.75
53.781,2.7
53.796,0.99
53.812,-0.02
53.828,-0.27
53.843,-0.06
53.859,0.08
53.875,-0.29
53.890,-1.28
53.906,-2.65
53.921,-3.92
53.937,-4.6
53.953,-4.49
53.968,-3.68
53.984,-2.53
54.000,-1.37
54.015,-0.37
54.031,0.57
54.046,1.62
54.062,2.9
54.078,4.28
54.093,5.38
54.109,5.76
54.125,5.16
54.140,3.63
54.156,1.59
54.171,-0.44
54.187,-1.98
54.203,-2.87
54.218,-3.22
54.234,-3.34
54.250,-3.52
54.265,-3.87
54.281,-4.32
54.296,-4.71
54.312,-4.87
54.328,-4.77
54.343,-4.5
54.359,-4.17
54.375,-3.83
54.390,-3.35
54.406,-2.46
54.421,-0.91
54.437,1.48
54.453,4.66
54.468,8.37
54.484,12.19
54.500,15.68
54.515,18.47
54.531,20.37
54.546,21.36
54.562,21.57
54.578,21.15
54.593,20.27
54.609,19.03
54.625,17.47
54.640,15.67
54.656,13.73
54.671,11.73
54.687,9.67
54.703,7.47
54.718,4.95
54.734,1.94
54.750,-1.57
54.765,-5.34
54.781,-8.92
54.796,-11.77
54.812,-13.45
54.828,-13.8
54.843,-12.93
54.859,-11.18
54.875,-8.97
54.890,-6.7
54.906,-4.63
54.921,-2.86
54.937,-1.39
54.953,-0.21
54.968,0.69
54.984,1.34
55.000,1.82
55.015,2.35
55.031,3.25
55.046,4.91
55.062,7.64
55.078,11.54
55.093,16.45
55.109,21.99
55.125,27.55
55.140,32.47
55.156,36.06
55.171,37.77
55.187,37.2
55.203,34.16
55.218,28.8
55.234,21.63
55.250,13.51
55.265,5.56
55.281,-1.11
55.296,-5.62
55.312,-7.52
55.328,-6.97
55.343,-4.62
55.359,-1.41
55.375,1.65
55.390,3.84
55.406,4.77
55.421,4.38
55.437,2.88
55.453,0.52
55.468,-2.53
55.484,-6.21
55.500,-10.45
55.515,-15.11
55.531,-19.8
55.546,-23.93
55.562,-26.91
55.578,-28.28
55.593,-28.02
55.609,-26.49
55.625,-24.37
55.640,-22.43
55.656,-21.21
55.671,-20.85
55.687,-21.15
55.703,-21.61
55.718,-21.68
55.734,-20.91
55.750,-19.04
55.765,-16.06
55.781,-12.18
55.796,-7.79
55.812,-3.27
55.828,0.98
55.843,4.65
55.859,7.57
55.875,9.71
55.890,11.2
55.906,12.32
55.921,13.32
55.937,14.37
55.953,15.44
55.968,16.32
55.984,16.66
56.000,16.24
56.015,15.05
56.031,13.36
56.046,11.65
56.062,10.43
56.078,10.02
56.093,10.5
56.109,11.74
56.125,13.45
56.140,15.28
56.156,16.93
56.171,18.12
56.187,18.68
56.203,18.54
56.218,17.76
56.234,16.44
56.250,14.73
56.265,12.71
56.281,10.41
56.296,7.84
56.312,5.1
56.328,2.38
56.343,-0.04
56.359,-1.89
56.375,-3.0
56.390,-3.32
56.406,-2.9
56.421,-1.8
56.437,0.01
56.453,2.65
56.468,6.25
56.484,10.82
56.500,16.14
56.515,21.8
56.531,27.29
56.546,32.2
56.562,36.37
56.578,39.9
56.593,43.06
56.609,46.16
56.625,49.39
56.640,52.77
56.656,56.18
56.671,59.46
56.687,62.43
56.703,64.92
56.718,66.62
56.734,67.15
56.750,66.09
56.765,63.18
56.781,58.55
56.796,52.69
56.812,46.34
56.828,40.18
56.843,34.51
56.859,29.13
56.875,23.48
56.890,17.01
56.906,9.44
56.921,0.96
56.937,-7.98
56.953,-16.83
56.968,-25.22
56.984,-32.98
57.000,-40.02
57.015,-46.26
57.031,-51.54
57.046,-55.79
57.062,-59.0
57.078,-61.26
57.093,-62.64
57.109,-63.07
57.125,-62.39
57.140,-60.45
57.156,-57.25
57.171,-53.01
57.187,-48.14
57.203,-42.98
57.218,-37.72
57.234,-32.29
57.250,-26.48
57.265,-20.08
57.281,-13.09
57.296,-5.62
57.312,2.06
57.328,9.69
57.343,17.01
57.359,23.78
57.375,29.73
57.390,34.63
57.406,38.38
57.421,41.11
57.437,43.19
57.453,45.11
57.468,47.26
57.484,49.78
57.500,52.45
57.515,54.77
57.531,56.23
57.546,56.42
57.562,55.29
57.578,53.06
57.593,50.1
57.609,46.71
57.625,43.04
57.640,39.01
57.656,34.4
57.671,29.03
57.687,22.77
57.703,15.68
57.718,7.97
57.734,-0.09
57.750,-8.33
57.765,-16.64
57.781,-25.09
57.796,-33.77
57.812,-42.71
57.828,-51.83
57.843,-60.88
57.859,-69.41
57.875,-76.86
57.890,-82.63
57.906,-86.22
57.921,-87.35
57.937,-86.0
57.953,-82.39
57.968,-76.95
57.984,-70.15
58.000,-62.51
58.015,-54.52
58.031,-46.61
58.046,-39.2
58.062,-32.57
58.078,-26.83
58.093,-21.92
58.109,-17.66
58.125,-13.87
58.140,-10.44
58.156,-7.38
58.171,-4.78
58.187,-2.71
58.203,-1.21
58.218,-0.24
58.234,0.22
58.250,0.2
58.265,-0.29
58.281,-1.15
58.296,-2.24
58.312,-3.34
58.328,-4.32
58.343,-5.19
58.359,-6.14
58.375,-7.39
58.390,-9.05
58.406,-11.0
58.421,-12.76
58.437,-13.69
58.453,-13.19
58.468,-10.98
58.484,-7.26
58.500,-2.67
58.515,2.0
58.531,6.0
58.546,8.91
58.562,10.63
58.578,11.29
58.593,11.04
58.609,10.08
58.625,8.57
58.640,6.75
58.656,4.97
58.671,3.57
58.687,2.66
58.703,2.1
58.718,1.49
58.734,0.42
58.750,-1.2
58.765,-3.07
58.781,-4.56
58.796,-5.01
58.812,-4.03
58.828,-1.67
58.843,1.59
58.859,5.09
58.875,8.22
58.890,10.66
58.906,12.28
58.921,13.1
58.937,13.15
58.953,12.37
58.968,10.71
58.984,8.21
59.000,5.07
59.015,1.59
59.031,-1.9
59.046,-5.18
59.062,-8.17
59.078,-10.88
59.093,-13.36
59.109,-15.6
59.125,-17.55
59.140,-19.15
59.156,-20.4
59.171,-21.34
59.187,-22.05
59.203,-22.5
59.218,-22.59
59.234,-22.11
59.250,-20.88
59.265,-18.84
59.281,-16.1
59.296,-12.95
59.312,-9.73
59.328,-6.79
59.343,-4.33
59.359,-2.34
59.375,-0.71
59.390,0.74
59.406,2.21
59.421,3.75
59.437,5.42
59.453,7.24
59.468,9.12
59.484,10.78
59.500,11.74
59.515,11.36
59.531,9.13
59.546,4.92
59.562,-0.74
59.578,-6.76
59.593,-11.81
59.609,-14.77
59.625,-15.13
59.640,-13.07
59.656,-9.26
59.671,-4.56
59.687,0.32
59.703,4.85
59.718,8.68
59.734,11.52
59.750,13.15
59.765,13.42
59.781,12.34
59.796,10.08
59.812,6.99
59.828,3.42
59.843,-0.31
59.859,-3.93
59.875,-7.19
59.890,-9.83
59.906,-11.62
59.921,-12.45
59.937,-12.42
59.953,-11.82
59.968,-11.06
59.984,-10.55
