timestamp,value
00.000,8.77
00.015,9.14
00.031,9.19
00.046,8.85
00.062,8.12
00.078,7.22
00.093,6.48
00.109,6.23
00.125,6.59
00.140,7.37
00.156,8.23
00.171,8.84
00.187,9.06
00.203,9.02
00.218,8.99
00.234,9.19
00.250,9.61
00.265,10.01
00.281,9.99
00.296,9.24
00.312,7.71
00.328,5.74
00.343,3.94
00.359,2.91
00.375,2.99
00.390,4.08
00.406,5.71
00.421,7.25
00.437,8.36
00.453,9.11
00.468,10.0
00.484,11.83
00.500,15.08
00.515,19.81
00.531,25.41
00.546,30.89
00.562,35.17
00.578,37.49
00.593,37.29
00.609,34.04
00.625,27.13
00.640,16.19
00.656,1.54
00.671,-15.29
00.687,-31.67
00.703,-44.69
00.718,-52.33
00.734,-54.24
00.750,-51.91
00.765,-47.61
00.781,-43.29
00.796,-39.76
00.812,-36.85
00.828,-34.1
00.843,-31.67
00.859,-30.5
00.875,-31.87
00.890,-36.44
00.906,-43.77
00.921,-52.41
00.937,-60.6
00.953,-67.1
00.968,-71.42
00.984,-73.59
01.000,-73.76
01.015,-71.92
01.031,-68.12
01.046,-62.7
01.062,-56.46
01.078,-50.19
01.093,-44.17
01.109,-37.89
01.125,-30.29
01.140,-20.47
01.156,-8.35
01.171,5.01
01.187,17.94
01.203,28.9
01.218,37.16
01.234,42.96
01.250,46.96
01.265,49.63
01.281,50.98
01.296,50.8
01.312,49.13
01.328,46.62
01.343,44.3
01.359,43.2
01.375,43.79
01.390,45.84
01.406,48.54
01.421,50.96
01.437,52.45
01.453,52.81
01.468,52.18
01.484,50.89
01.500,49.27
01.515,47.58
01.531,46.05
01.546,44.83
01.562,44.05
01.578,43.71
01.593,43.62
01.609,43.47
01.625,42.83
01.640,41.38
01.656,38.92
01.671,35.55
01.687,31.63
01.703,27.72
01.718,24.38
01.734,21.97
01.750,20.57
01.765,19.98
01.781,19.88
01.796,20.0
01.812,20.18
01.828,20.4
01.843,20.72
01.859,21.11
01.875,21.5
01.890,21.7
01.906,21.53
01.921,20.83
01.937,19.63
01.953,18.09
01.968,16.64
01.984,15.79
02.000,16.13
02.015,18.07
02.031,21.71
02.046,26.74
02.062,32.73
02.078,39.24
02.093,46.01
02.109,53.15
02.125,60.91
02.140,69.63
02.156,79.48
02.171,90.3
02.187,101.47
02.203,112.23
02.218,121.81
02.234,129.86
02.250,136.61
02.265,142.94
02.281,150.28
02.296,160.17
02.312,173.74
02.328,191.01
02.343,210.5
02.359,229.05
02.375,242.48
02.390,246.7
02.406,239.18
02.421,219.95
02.437,191.68
02.453,158.61
02.468,124.95
02.484,93.34
02.500,64.32
02.515,36.73
02.531,8.84
02.546,-20.49
02.562,-51.25
02.578,-82.47
02.593,-112.94
02.609,-141.7
02.625,-168.5
02.640,-193.56
02.656,-217.16
02.671,-239.11
02.687,-258.67
02.703,-274.47
02.718,-284.88
02.734,-288.64
02.750,-285.24
02.765,-275.27
02.781,-260.29
02.796,-242.35
02.812,-223.51
02.828,-205.39
02.843,-189.13
02.859,-175.35
02.875,-164.39
02.890,-156.13
02.906,-150.1
02.921,-145.27
02.937,-140.21
02.953,-133.38
02.968,-123.65
02.984,-110.68
03.000,-94.98
03.015,-77.77
03.031,-60.49
03.046,-44.5
03.062,-30.71
03.078,-19.52
03.093,-10.94
03.109,-4.64
03.125,-0.14
03.140,3.01
03.156,5.22
03.171,6.83
03.187,8.01
03.203,8.79
03.218,9.15
03.234,9.04
03.250,8.52
03.265,7.91
03.281,7.72
03.296,8.6
03.312,11.02
03.328,15.1
03.343,20.52
03.359,26.52
03.375,32.04
03.390,36.11
03.406,37.94
03.421,37.04
03.437,33.29
03.453,26.93
03.468,18.57
03.484,9.22
03.500,0.02
03.515,-8.07
03.531,-14.49
03.546,-19.38
03.562,-23.36
03.578,-27.16
03.593,-31.14
03.609,-35.11
03.625,-38.3
03.640,-39.78
03.656,-38.75
03.671,-34.67
03.687,-27.36
03.703,-16.79
03.718,-3.28
03.734,12.48
03.750,29.35
03.765,45.94
03.781,60.89
03.796,73.24
03.812,82.55
03.828,88.61
03.843,91.21
03.859,89.94
03.875,84.49
03.890,75.16
03.906,63.11
03.921,50.26
03.937,38.59
03.953,29.42
03.968,22.94
03.984,18.47
04.000,14.82
04.015,10.95
04.031,6.06
04.046,-0.47
04.062,-9.29
04.078,-21.09
04.093,-36.19
04.109,-54.33
04.125,-74.41
04.140,-94.94
04.156,-114.49
04.171,-132.12
04.187,-147.55
04.203,-160.79
04.218,-171.85
04.234,-180.45
04.250,-186.24
04.265,-189.09
04.281,-189.67
04.296,-189.54
04.312,-191.01
04.328,-196.52
04.343,-207.74
04.359,-225.08
04.375,-247.5
04.390,-272.84
04.406,-298.68
04.421,-323.2
04.437,-345.56
04.453,-365.73
04.468,-383.74
04.484,-398.93
04.500,-409.71
04.515,-413.8
04.531,-409.16
04.546,-394.78
04.562,-371.32
04.578,-340.87
04.593,-306.18
04.609,-269.79
04.625,-233.35
04.640,-197.6
04.656,-162.72
04.671,-128.93
04.687,-96.69
04.703,-66.61
04.718,-39.07
04.734,-13.89
04.750,9.64
04.765,32.58
04.781,55.62
04.796,78.86
04.812,101.81
04.828,123.65
04.843,143.95
04.859,162.87
04.875,181.3
04.890,200.5
04.906,221.64
04.921,244.99
04.937,269.6
04.953,293.15
04.968,312.5
04.984,324.61
05.000,327.57
05.015,321.13
05.031,306.79
05.046,287.19
05.062,265.12
05.078,242.75
05.093,220.98
05.109,199.66
05.125,178.1
05.140,155.64
05.156,132.1
05.171,107.99
05.187,84.3
05.203,62.2
05.218,42.66
05.234,26.23
05.250,12.93
05.265,2.39
05.281,-6.02
05.296,-12.93
05.312,-18.94
05.328,-24.55
05.343,-30.42
05.359,-37.36
05.375,-46.14
05.390,-57.11
05.406,-69.47
05.421,-81.05
05.437,-88.53
05.453,-88.37
05.468,-78.04
05.484,-56.88
05.500,-26.35
05.515,10.52
05.531,50.03
05.546,88.78
05.562,124.06
05.578,154.11
05.593,177.87
05.609,194.78
05.625,204.95
05.640,209.06
05.656,208.32
05.671,204.23
05.687,198.24
05.703,191.43
05.718,184.35
05.734,177.1
05.750,169.44
05.765,161.06
05.781,151.69
05.796,141.34
05.812,130.27
05.828,119.04
05.843,108.18
05.859,98.2
05.875,89.39
05.890,81.67
05.906,74.82
05.921,68.44
05.937,62.17
05.953,55.82
05.968,49.42
05.984,43.05
06.000,36.89
06.015,30.99
06.031,25.23
06.046,19.53
06.062,13.75
06.078,7.78
06.093,1.7
06.109,-4.29
06.125,-9.85
06.140,-14.46
06.156,-17.47
06.171,-18.34
06.187,-16.64
06.203,-12.37
06.218,-5.99
06.234,1.79
06.250,10.12
06.265,18.33
06.281,26.09
06.296,33.38
06.312,40.33
06.328,47.05
06.343,53.33
06.359,58.71
06.375,62.58
06.390,64.36
06.406,63.73
06.421,60.67
06.437,55.47
06.453,48.57
06.468,40.48
06.484,31.71
06.500,22.73
06.515,13.99
06.531,5.79
06.546,-1.78
06.562,-8.9
06.578,-16.02
06.593,-23.64
06.609,-32.07
06.625,-41.12
06.640,-50.07
06.656,-57.86
06.671,-63.44
06.687,-66.24
06.703,-66.36
06.718,-64.51
06.734,-61.75
06.750,-59.12
06.765,-57.31
06.781,-56.67
06.796,-57.25
06.812,-58.97
06.828,-61.57
06.843,-64.52
06.859,-66.94
06.875,-67.69
06.890,-65.64
06.906,-60.08
06.921,-51.07
06.937,-39.36
06.953,-26.27
06.968,-13.23
06.984,-1.29
07.000,8.99
07.015,17.48
07.031,24.27
07.046,29.41
07.062,32.91
07.078,34.8
07.093,35.29
07.109,34.79
07.125,33.88
07.140,33.12
07.156,32.77
07.171,32.85
07.187,33.11
07.203,33.23
07.218,32.98
07.234,32.3
07.250,31.18
07.265,29.74
07.281,28.06
07.296,26.22
07.312,24.28
07.328,22.31
07.343,20.32
07.359,18.27
07.375,16.07
07.390,13.68
07.406,11.12
07.421,8.42
07.437,5.58
07.453,2.44
07.468,-1.31
07.484,-5.94
07.500,-11.58
07.515,-18.03
07.531,-24.79
07.546,-31.15
07.562,-36.28
07.578,-39.41
07.593,-39.96
07.609,-37.65
07.625,-32.65
07.640,-25.59
07.656,-17.4
07.671,-9.15
07.687,-1.65
07.703,4.68
07.718,9.8
07.734,13.82
07.750,16.79
07.765,18.56
07.781,18.94
07.796,17.97
07.812,16.08
07.828,13.96
07.843,12.37
07.859,11.75
07.875,12.05
07.890,12.73
07.906,13.06
07.921,12.49
07.937,10.88
07.953,8.53
07.968,5.98
07.984,3.76
08.000,2.19
08.015,1.28
08.031,0.81
08.046,0.39
08.062,-0.38
08.078,-1.71
08.093,-3.67
08.109,-6.08
08.125,-8.6
08.140,-10.91
08.156,-12.79
08.171,-14.24
08.187,-15.52
08.203,-17.0
08.218,-19.1
08.234,-21.98
08.250,-25.44
08.265,-28.76
08.281,-30.93
08.296,-30.81
08.312,-27.57
08.328,-20.9
08.343,-11.15
08.359,0.76
08.375,13.73
08.390,26.8
08.406,39.42
08.421,51.41
08.437,62.97
08.453,74.41
08.468,85.96
08.484,97.79
08.500,109.9
08.515,122.26
08.531,134.88
08.546,147.81
08.562,161.24
08.578,175.4
08.593,190.39
08.609,205.96
08.625,221.52
08.640,236.17
08.656,248.92
08.671,259.03
08.687,266.05
08.703,269.94
08.718,270.86
08.734,269.08
08.750,264.78
08.765,258.1
08.781,248.88
08.796,236.68
08.812,220.8
08.828,200.48
08.843,175.47
08.859,146.46
08.875,115.3
08.890,84.53
08.906,56.61
08.921,32.88
08.937,13.13
08.953,-4.28
08.968,-21.62
08.984,-40.93
09.000,-63.4
09.015,-89.27
09.031,-118.22
09.046,-149.77
09.062,-183.6
09.078,-219.4
09.093,-256.48
09.109,-293.48
09.125,-328.16
09.140,-357.65
09.156,-379.01
09.171,-389.83
09.187,-388.83
09.203,-376.19
09.218,-353.47
09.234,-323.26
09.250,-288.76
09.265,-253.13
09.281,-219.14
09.296,-188.86
09.312,-163.47
09.328,-143.22
09.343,-127.61
09.359,-115.65
09.375,-106.13
09.390,-98.01
09.406,-90.56
09.421,-83.47
09.437,-76.66
09.453,-70.32
09.468,-64.54
09.484,-59.32
09.500,-54.57
09.515,-50.05
09.531,-45.55
09.546,-40.99
09.562,-36.4
09.578,-31.91
09.593,-27.76
09.609,-24.09
09.625,-20.92
09.640,-18.19
09.656,-15.71
09.671,-13.2
09.687,-10.32
09.703,-6.62
09.718,-1.71
09.734,4.65
09.750,12.48
09.765,21.53
09.781,31.29
09.796,41.18
09.812,50.53
09.828,58.65
09.843,64.85
09.859,68.37
09.875,68.41
09.890,64.41
09.906,56.2
09.921,44.18
09.937,29.45
09.953,13.55
09.968,-1.77
09.984,-14.99
10.000,-25.03
10.015,-31.48
10.031,-34.48
10.046,-34.64
10.062,-32.82
10.078,-29.93
10.093,-26.8
10.109,-24.12
10.125,-22.44
10.140,-22.2
10.156,-23.76
10.171,-27.2
10.187,-32.33
10.203,-38.49
10.218,-44.76
10.234,-50.17
10.250,-54.11
10.265,-56.51
10.281,-57.92
10.296,-59.16
10.312,-61.0
10.328,-63.81
10.343,-67.4
10.359,-71.04
10.375,-73.75
10.390,-74.38
10.406,-71.86
10.421,-65.48
10.437,-55.14
10.453,-41.55
10.468,-26.24
10.484,-11.17
10.500,1.79
10.515,11.48
10.531,17.75
10.546,21.37
10.562,23.56
10.578,25.39
10.593,27.4
10.609,29.47
10.625,31.05
10.640,31.57
10.656,30.72
10.671,28.62
10.687,25.68
10.703,22.49
10.718,19.53
10.734,17.09
10.750,15.17
10.765,13.63
10.781,12.32
10.796,11.15
10.812,9.97
10.828,8.61
10.843,6.71
10.859,3.94
10.875,0.07
10.890,-4.89
10.906,-10.6
10.921,-16.57
10.937,-22.35
10.953,-27.76
10.968,-32.92
10.984,-38.1
11.000,-43.34
11.015,-48.2
11.031,-51.87
11.046,-53.34
11.062,-51.84
11.078,-47.2
11.093,-39.86
11.109,-30.68
11.125,-20.66
11.140,-10.66
11.156,-1.27
11.171,7.22
11.187,14.6
11.203,20.81
11.218,25.83
11.234,29.67
11.250,32.36
11.265,33.87
11.281,34.07
11.296,32.9
11.312,30.35
11.328,26.72
11.343,22.47
11.359,18.09
11.375,13.92
11.390,9.97
11.406,5.92
11.421,1.32
11.437,-4.29
11.453,-11.22
11.468,-19.5
11.484,-28.86
11.500,-38.86
11.515,-48.85
11.531,-58.2
11.546,-66.53
11.562,-73.78
11.578,-80.33
11.593,-86.99
11.609,-94.63
11.625,-103.82
11.640,-114.58
11.656,-126.11
11.671,-136.95
11.687,-145.47
11.703,-150.2
11.718,-150.46
11.734,-146.55
11.750,-139.64
11.765,-131.4
11.781,-123.5
11.796,-117.09
11.812,-112.61
11.828,-110.01
11.843,-108.98
11.859,-109.26
11.875,-110.82
11.890,-113.66
11.906,-117.56
11.921,-121.88
11.937,-125.43
11.953,-126.75
11.968,-124.4
11.984,-117.37
12.000,-105.29
12.015,-88.45
12.031,-67.54
12.046,-43.44
12.062,-17.03
12.078,10.89
12.093,39.43
12.109,67.38
12.125,93.2
12.140,115.19
12.156,131.84
12.171,142.28
12.187,146.37
12.203,144.72
12.218,138.28
12.234,127.97
12.250,114.56
12.265,98.73
12.281,81.55
12.296,64.61
12.312,49.98
12.328,39.75
12.343,35.42
12.359,37.45
12.375,45.02
12.390,56.46
12.406,69.79
12.421,83.3
12.437,95.88
12.453,107.07
12.468,116.84
12.484,125.39
12.500,132.96
12.515,139.63
12.531,145.43
12.546,150.28
12.562,154.2
12.578,157.28
12.593,159.76
12.609,161.97
12.625,164.18
12.640,166.53
12.656,168.97
12.671,171.28
12.687,173.17
12.703,174.51
12.718,175.28
12.734,175.47
12.750,174.96
12.765,173.35
12.781,170.15
12.796,165.05
12.812,158.28
12.828,150.63
12.843,143.19
12.859,136.84
12.875,131.8
12.890,127.74
12.906,124.09
12.921,120.65
12.937,117.68
12.953,115.67
12.968,114.67
12.984,113.8
13.000,111.37
13.015,105.57
13.031,95.23
13.046,80.29
13.062,61.85
13.078,41.69
13.093,21.85
13.109,4.37
13.125,-8.88
13.140,-16.37
13.156,-17.33
13.171,-12.27
13.187,-3.12
13.203,7.15
13.218,15.57
13.234,20.3
13.250,21.25
13.265,20.01
13.281,18.94
13.296,20.01
13.312,23.8
13.328,29.39
13.343,34.74
13.359,37.53
13.375,35.97
13.390,29.09
13.406,16.71
13.421,-0.93
13.437,-23.27
13.453,-49.23
13.468,-76.98
13.484,-103.74
13.500,-126.28
13.515,-141.78
13.531,-149.18
13.546,-149.8
13.562,-146.76
13.578,-143.26
13.593,-140.79
13.609,-138.45
13.625,-133.89
13.640,-125.43
13.656,-113.77
13.671,-102.47
13.687,-96.25
13.703,-98.74
13.718,-110.45
13.734,-128.55
13.750,-148.31
13.765,-165.22
13.781,-176.5
13.796,-181.23
13.812,-179.59
13.828,-171.88
13.843,-158.1
13.859,-138.59
13.875,-114.46
13.890,-87.85
13.906,-61.3
13.921,-37.24
13.937,-17.19
13.953,-1.6
13.968,9.97
13.984,18.48
14.000,24.94
14.015,30.11
14.031,34.31
14.046,37.59
14.062,39.72
14.078,40.55
14.093,40.11
14.109,38.81
14.125,37.34
14.140,36.4
14.156,36.51
14.171,37.65
14.187,39.32
14.203,40.65
14.218,40.72
14.234,38.86
14.250,34.88
14.265,29.14
14.281,22.52
14.296,16.24
14.312,11.45
14.328,8.88
14.343,8.62
14.359,10.15
14.375,12.6
14.390,15.1
14.406,17.16
14.421,18.63
14.437,19.67
14.453,20.47
14.468,21.03
14.484,21.21
14.500,20.89
14.515,20.08
14.531,18.95
14.546,17.84
14.562,16.99
14.578,16.5
14.593,16.34
14.609,16.35
14.625,16.32
14.640,16.07
14.656,15.39
14.671,14.16
14.687,12.32
14.703,9.87
14.718,6.91
14.734,3.67
14.750,0.35
14.765,-2.83
14.781,-5.83
14.796,-8.7
14.812,-11.67
14.828,-15.05
14.843,-19.16
14.859,-24.17
14.875,-30.02
14.890,-36.23
14.906,-42.01
14.921,-46.34
14.937,-48.32
14.953,-47.39
14.968,-43.6
14.984,-37.52
15.000,-30.0
15.015,-21.93
15.031,-13.93
15.046,-6.3
15.062,0.89
15.078,7.64
15.093,13.9
15.109,19.47
15.125,24.07
15.140,27.54
15.156,29.82
15.171,31.06
15.187,31.6
15.203,31.83
15.218,31.98
15.234,32.22
15.250,32.47
15.265,32.6
15.281,32.41
15.296,31.82
15.312,30.8
15.328,29.41
15.343,27.69
15.359,25.58
15.375,22.96
15.390,19.72
15.406,15.84
15.421,11.5
15.437,7.08
15.453,3.08
15.468,-0.13
15.484,-2.39
15.500,-3.88
15.515,-5.06
15.531,-6.48
15.546,-8.51
15.562,-11.17
15.578,-14.03
15.593,-16.33
15.609,-17.14
15.625,-15.65
15.640,-11.21
15.656,-3.53
15.671,7.25
15.687,20.55
15.703,35.31
15.718,50.23
15.734,63.95
15.750,75.51
15.765,84.43
15.781,90.83
15.796,95.22
15.812,98.13
15.828,99.98
15.843,101.01
15.859,101.24
15.875,100.51
15.890,98.6
15.906,95.24
15.921,90.26
15.937,83.76
15.953,76.21
15.968,68.23
15.984,60.3
16.000,52.29
16.015,43.41
16.031,32.48
16.046,18.43
16.062,0.82
16.078,-19.83
16.093,-42.09
16.109,-63.83
16.125,-82.7
16.140,-96.79
16.156,-104.95
16.171,-107.38
16.187,-105.52
16.203,-101.77
16.218,-98.51
16.234,-97.27
16.250,-98.07
16.265,-99.54
16.281,-99.65
16.296,-96.55
16.312,-89.34
16.328,-78.17
16.343,-64.04
16.359,-48.28
16.375,-32.34
16.390,-17.52
16.406,-4.84
16.421,5.05
16.437,12.08
16.453,16.67
16.468,19.56
16.484,21.54
16.500,23.18
16.515,24.71
16.531,26.15
16.546,27.49
16.562,28.68
16.578,29.79
16.593,30.8
16.609,31.61
16.625,32.2
16.640,32.63
16.656,33.15
16.671,34.06
16.687,35.62
16.703,37.83
16.718,40.55
16.734,43.4
16.750,45.92
16.765,47.72
16.781,48.53
16.796,48.24
16.812,47.01
16.828,45.18
16.843,43.4
16.859,42.43
16.875,43.03
16.890,45.61
16.906,50.12
16.921,55.91
16.937,61.95
16.953,67.28
16.968,71.34
16.984,74.31
17.000,77.03
17.015,80.6
17.031,85.73
17.046,92.43
17.062,99.88
17.078,106.8
17.093,112.07
17.109,115.16
17.125,116.39
17.140,116.71
17.156,117.26
17.171,118.88
17.187,121.89
17.203,125.82
17.218,129.55
17.234,131.5
17.250,130.02
17.265,124.01
17.281,113.41
17.296,99.63
17.312,85.45
17.328,74.45
17.343,69.56
17.359,71.7
17.375,78.85
17.390,86.08
17.406,87.13
17.421,76.54
17.437,51.84
17.453,14.48
17.468,-30.9
17.484,-78.39
17.500,-122.87
17.515,-161.37
17.531,-193.11
17.546,-218.68
17.562,-239.07
17.578,-255.07
17.593,-267.28
17.609,-276.24
17.625,-282.5
17.640,-286.18
17.656,-286.75
17.671,-282.94
17.687,-273.36
17.703,-257.21
17.718,-234.88
17.734,-208.1
17.750,-179.44
17.765,-151.67
17.781,-127.11
17.796,-107.19
17.812,-92.34
17.828,-81.9
17.843,-74.5
17.859,-68.45
17.875,-62.35
17.890,-55.45
17.906,-47.82
17.921,-40.06
17.937,-32.84
17.953,-26.53
17.968,-20.89
17.984,-15.37
18.000,-9.35
18.015,-2.54
18.031,4.86
18.046,12.17
18.062,18.61
18.078,23.51
18.093,26.57
18.109,27.97
18.125,28.15
18.140,27.77
18.156,27.44
18.171,27.63
18.187,28.56
18.203,30.21
18.218,32.33
18.234,34.57
18.250,36.6
18.265,38.15
18.281,39.07
18.296,39.32
18.312,38.97
18.328,38.27
18.343,37.68
18.359,37.76
18.375,38.95
18.390,41.17
18.406,43.51
18.421,44.34
18.437,41.79
18.453,34.51
18.468,22.49
18.484,7.26
18.500,-8.42
18.515,-21.53
18.531,-29.61
18.546,-31.63
18.562,-27.92
18.578,-19.86
18.593,-9.21
18.609,2.46
18.625,14.01
18.640,24.71
18.656,34.05
18.671,41.74
18.687,47.62
18.703,51.85
18.718,54.76
18.734,56.83
18.750,58.49
18.765,59.82
18.781,60.59
18.796,60.34
18.812,58.71
18.828,55.63
18.843,51.38
18.859,46.37
18.875,40.95
18.890,35.13
18.906,28.43
18.921,20.04
18.937,9.1
18.953,-4.89
18.968,-21.62
18.984,-39.93
19.000,-57.96
19.015,-73.73
19.031,-85.64
19.046,-92.98
19.062,-95.82
19.078,-94.7
19.093,-90.18
19.109,-82.54
19.125,-72.03
19.140,-59.11
19.156,-44.89
19.171,-30.93
19.187,-18.89
19.203,-9.87
19.218,-4.01
19.234,-0.59
19.250,1.54
19.265,3.52
19.281,6.08
19.296,9.31
19.312,12.66
19.328,15.07
19.343,15.18
19.359,11.74
19.375,4.11
19.390,-7.24
19.406,-20.81
19.421,-34.46
19.437,-46.3
19.453,-55.37
19.468,-61.67
19.484,-65.66
19.500,-67.54
19.515,-66.95
19.531,-63.31
19.546,-56.63
19.562,-48.04
19.578,-39.7
19.593,-33.89
19.609,-31.89
19.625,-33.41
19.640,-36.69
19.656,-39.58
19.671,-40.34
19.687,-38.34
19.703,-33.91
19.718,-27.81
19.734,-20.66
19.750,-12.74
19.765,-4.08
19.781,5.33
19.796,15.29
19.812,25.39
19.828,35.18
19.843,44.33
19.859,52.74
19.875,60.61
19.890,68.26
19.906,75.88
19.921,83.42
19.937,90.48
19.953,96.54
19.968,101.15
19.984,104.17
20.000,105.64
20.015,105.46
20.031,103.05
20.046,97.12
20.062,86.16
20.078,68.94
20.093,45.32
20.109,16.59
20.125,-14.69
20.140,-45.27
20.156,-72.1
20.171,-92.87
20.187,-106.45
20.203,-112.72
20.218,-112.38
20.234,-106.85
20.250,-98.17
20.265,-88.79
20.281,-81.13
20.296,-76.76
20.312,-75.67
20.328,-76.02
20.343,-74.76
20.359,-68.85
20.375,-56.67
20.390,-38.77
20.406,-17.59
20.421,3.75
20.437,22.8
20.453,38.66
20.468,51.8
20.484,63.5
20.500,75.39
20.515,88.85
20.531,104.65
20.546,122.39
20.562,140.05
20.578,153.85
20.593,159.42
20.609,153.47
20.625,135.48
20.640,108.03
20.656,75.74
20.671,43.45
20.687,14.85
20.703,-7.87
20.718,-23.39
20.734,-30.56
20.750,-28.72
20.765,-18.75
20.781,-4.03
20.796,9.9
20.812,17.34
20.828,14.99
20.843,3.63
20.859,-12.54
20.875,-28.28
20.890,-39.98
20.906,-47.21
20.921,-52.17
20.937,-57.72
20.953,-65.37
20.968,-74.54
20.984,-83.49
21.000,-90.88
21.015,-97.06
21.031,-103.91
21.046,-113.34
21.062,-125.76
21.078,-139.28
21.093,-150.49
21.109,-156.11
21.125,-154.62
21.140,-146.68
21.156,-134.47
21.171,-120.37
21.187,-105.77
21.203,-90.95
21.218,-75.63
21.234,-59.86
21.250,-44.65
21.265,-31.86
21.281,-23.57
21.296,-21.23
21.312,-25.1
21.328,-34.14
21.343,-46.26
21.359,-58.8
21.375,-69.25
21.390,-75.81
21.406,-77.69
21.421,-75.09
21.437,-68.81
21.453,-59.97
21.468,-49.56
21.484,-38.35
21.500,-26.91
21.515,-15.67
21.531,-5.1
21.546,4.43
21.562,12.63
21.578,19.45
21.593,25.03
21.609,29.72
21.625,33.83
21.640,37.59
21.656,41.0
21.671,43.75
21.687,45.46
21.703,45.73
21.718,44.44
21.734,41.71
21.750,38.07
21.765,34.14
21.781,30.5
21.796,27.47
21.812,25.01
21.828,22.88
21.843,20.87
21.859,19.19
21.875,18.53
21.890,19.89
21.906,24.18
21.921,31.59
21.937,41.38
21.953,52.04
21.968,61.8
21.984,69.36
22.000,74.24
22.015,76.8
22.031,77.79
22.046,77.85
22.062,77.1
22.078,75.24
22.093,71.91
22.109,67.11
22.125,61.46
22.140,55.99
22.156,51.75
22.171,49.31
22.187,48.56
22.203,48.72
22.218,48.76
22.234,47.86
22.250,45.74
22.265,42.61
22.281,39.0
22.296,35.37
22.312,31.91
22.328,28.63
22.343,25.32
22.359,21.9
22.375,18.43
22.390,15.02
22.406,11.81
22.421,8.84
22.437,5.98
22.453,3.01
22.468,-0.34
22.484,-4.38
22.500,-9.22
22.515,-14.82
22.531,-20.96
22.546,-27.28
22.562,-33.43
22.578,-39.22
22.593,-44.49
22.609,-49.02
22.625,-52.42
22.640,-53.98
22.656,-53.02
22.671,-49.08
22.687,-42.2
22.703,-32.95
22.718,-22.25
22.734,-11.05
22.750,-0.13
22.765,9.99
22.781,19.03
22.796,26.81
22.812,33.16
22.828,37.97
22.843,41.25
22.859,43.09
22.875,43.72
22.890,43.45
22.906,42.59
22.921,41.48
22.937,40.36
22.953,39.36
22.968,38.51
22.984,37.7
23.000,36.93
23.015,36.21
23.031,35.67
23.046,35.36
23.062,35.25
23.078,35.06
23.093,34.38
23.109,32.91
23.125,30.51
23.140,27.36
23.156,23.82
23.171,20.37
23.187,17.32
23.203,14.84
23.218,12.85
23.234,11.11
23.250,9.33
23.265,7.18
23.281,4.36
23.296,0.72
23.312,-3.66
23.328,-8.37
23.343,-12.71
23.359,-15.71
23.375,-16.48
23.390,-14.46
23.406,-9.76
23.421,-3.11
23.437,4.27
23.453,11.12
23.468,16.5
23.484,20.01
23.500,21.67
23.515,21.83
23.531,20.8
23.546,18.79
23.562,15.92
23.578,12.34
23.593,8.21
23.609,3.84
23.625,-0.54
23.640,-4.85
23.656,-9.11
23.671,-13.43
23.687,-17.75
23.703,-21.74
23.718,-24.78
23.734,-26.15
23.750,-25.31
23.765,-22.2
23.781,-17.39
23.796,-11.95
23.812,-7.15
23.828,-3.93
23.843,-2.68
23.859,-3.18
23.875,-4.89
23.890,-7.26
23.906,-9.99
23.921,-13.03
23.937,-16.31
23.953,-19.73
23.968,-22.98
23.984,-25.72
24.000,-27.79
24.015,-29.31
24.031,-30.74
24.046,-32.58
24.062,-35.3
24.078,-39.04
24.093,-43.68
24.109,-48.77
24.125,-53.65
24.140,-57.55
24.156,-59.56
24.171,-58.94
24.187,-55.24
24.203,-48.58
24.218,-39.54
24.234,-29.07
24.250,-18.21
24.265,-7.78
24.281,1.85
24.296,10.71
24.312,18.95
24.328,26.73
24.343,33.85
24.359,39.91
24.375,44.41
24.390,47.05
24.406,47.89
24.421,47.35
24.437,46.07
24.453,44.6
24.468,43.26
24.484,42.04
24.500,40.74
24.515,39.24
24.531,37.51
24.546,35.64
24.562,33.76
24.578,32.0
24.593,30.32
24.609,28.65
24.625,26.85
24.640,24.8
24.656,22.4
24.671,19.52
24.687,16.17
24.703,12.43
24.718,8.48
24.734,4.53
24.750,0.77
24.765,-2.77
24.781,-6.1
24.796,-9.32
24.812,-12.55
24.828,-15.87
24.843,-19.43
24.859,-23.41
24.875,-27.91
24.890,-32.69
24.906,-37.2
24.921,-40.52
24.937,-41.64
24.953,-39.96
24.968,-35.39
24.984,-28.55
25.000,-20.44
25.015,-12.05
25.031,-4.03
25.046,3.34
25.062,10.0
25.078,15.96
25.093,21.09
25.109,25.2
25.125,28.16
25.140,29.98
25.156,30.89
25.171,31.22
25.187,31.32
25.203,31.42
25.218,31.65
25.234,32.03
25.250,32.59
25.265,33.31
25.281,34.12
25.296,34.92
25.312,35.56
25.328,35.84
25.343,35.56
25.359,34.55
25.375,32.68
25.390,29.94
25.406,26.47
25.421,22.48
25.437,18.27
25.453,14.05
25.468,9.96
25.484,6.01
25.500,2.09
25.515,-1.87
25.531,-5.84
25.546,-9.7
25.562,-13.27
25.578,-16.47
25.593,-19.4
25.609,-22.33
25.625,-25.6
25.640,-29.36
25.656,-33.46
25.671,-37.39
25.687,-40.33
25.703,-41.55
25.718,-40.52
25.734,-37.2
25.750,-31.94
25.765,-25.33
25.781,-18.0
25.796,-10.44
25.812,-2.93
25.828,4.37
25.843,11.28
25.859,17.55
25.875,22.86
25.890,26.93
25.906,29.62
25.921,31.11
25.937,31.82
25.953,32.24
25.968,32.84
25.984,33.77
26.000,35.0
26.015,36.19
26.031,36.94
26.046,36.92
26.062,35.97
26.078,34.1
26.093,31.58
26.109,28.71
26.125,25.77
26.140,23.02
26.156,20.5
26.171,18.16
26.187,15.89
26.203,13.56
26.218,11.16
26.234,8.72
26.250,6.25
26.265,3.69
26.281,0.94
26.296,-2.11
26.312,-5.56
26.328,-9.41
26.343,-13.65
26.359,-18.23
26.375,-23.04
26.390,-27.99
26.406,-32.89
26.421,-37.44
26.437,-41.13
26.453,-43.39
26.468,-43.61
26.484,-41.44
26.500,-36.87
26.515,-30.3
26.531,-22.45
26.546,-14.13
26.562,-6.05
26.578,1.42
26.593,8.17
26.609,14.23
26.625,19.55
26.640,23.93
26.656,27.1
26.671,28.92
26.687,29.52
26.703,29.27
26.718,28.65
26.734,28.02
26.750,27.56
26.765,27.22
26.781,26.8
26.796,26.12
26.812,25.12
26.828,23.85
26.843,22.42
26.859,20.92
26.875,19.38
26.890,17.78
26.906,16.03
26.921,13.98
26.937,11.48
26.953,8.46
26.968,4.98
26.984,1.3
27.000,-2.31
27.015,-5.66
27.031,-8.78
27.046,-11.93
27.062,-15.45
27.078,-19.64
27.093,-24.55
27.109,-29.99
27.125,-35.48
27.140,-40.37
27.156,-44.05
27.171,-45.96
27.187,-45.75
27.203,-43.33
27.218,-38.89
27.234,-32.85
27.250,-25.75
27.265,-18.13
27.281,-10.41
27.296,-2.87
27.312,4.25
27.328,10.72
27.343,16.27
27.359,20.62
27.375,23.52
27.390,24.95
27.406,25.05
27.421,24.23
27.437,23.02
27.453,21.89
27.468,21.12
27.484,20.74
27.500,20.51
27.515,20.13
27.531,19.38
27.546,18.23
27.562,16.88
27.578,15.57
27.593,14.49
27.609,13.57
27.625,12.48
27.640,10.83
27.656,8.29
27.671,4.9
27.687,1.0
27.703,-2.9
27.718,-6.45
27.734,-9.61
27.750,-12.71
27.765,-16.2
27.781,-20.42
27.796,-25.36
27.812,-30.64
27.828,-35.69
27.843,-39.95
27.859,-42.99
27.875,-44.52
27.890,-44.32
27.906,-42.21
27.921,-38.15
27.937,-32.31
27.953,-25.14
27.968,-17.28
27.984,-9.36
28.000,-1.84
28.015,5.14
28.031,11.54
28.046,17.36
28.062,22.43
28.078,26.49
28.093,29.31
28.109,30.84
28.125,31.29
28.140,31.06
28.156,30.54
28.171,29.93
28.187,29.21
28.203,28.21
28.218,26.78
28.234,24.93
28.250,22.82
28.265,20.68
28.281,18.68
28.296,16.89
28.312,15.2
28.328,13.42
28.343,11.39
28.359,8.95
28.375,5.99
28.390,2.48
28.406,-1.51
28.421,-5.79
28.437,-10.07
28.453,-14.02
28.468,-17.49
28.484,-20.51
28.500,-23.43
28.515,-26.69
28.531,-30.56
28.546,-34.91
28.562,-39.14
28.578,-42.38
28.593,-43.71
28.609,-42.53
28.625,-38.72
28.640,-32.65
28.656,-24.94
28.671,-16.38
28.687,-7.69
28.703,0.53
28.718,7.83
28.734,13.98
28.750,18.93
28.765,22.76
28.781,25.63
28.796,27.62
28.812,28.84
28.828,29.29
28.843,29.09
28.859,28.41
28.875,27.36
28.890,25.97
28.906,24.12
28.921,21.66
28.937,18.6
28.953,15.19
28.968,11.87
28.984,9.05
29.000,6.96
29.015,5.46
29.031,4.18
29.046,2.7
29.062,0.83
29.078,-1.37
29.093,-3.63
29.109,-5.74
29.125,-7.6
29.140,-9.31
29.156,-11.07
29.171,-13.12
29.187,-15.6
29.203,-18.59
29.218,-22.08
29.234,-25.92
29.250,-29.79
29.265,-33.19
29.281,-35.52
29.296,-36.16
29.312,-34.7
29.328,-31.11
29.343,-25.81
29.359,-19.47
29.375,-12.85
29.390,-6.54
29.406,-0.86
29.421,4.05
29.437,8.24
29.453,11.74
29.468,14.59
29.484,16.84
29.500,18.57
29.515,19.99
29.531,21.3
29.546,22.65
29.562,24.03
29.578,25.29
29.593,26.21
29.609,26.65
29.625,26.58
29.640,26.12
29.656,25.39
29.671,24.43
29.687,23.13
29.703,21.27
29.718,18.73
29.734,15.5
29.750,11.85
29.765,8.13
29.781,4.65
29.796,1.54
29.812,-1.29
29.828,-4.02
29.843,-6.88
29.859,-10.08
29.875,-13.84
29.890,-18.34
29.906,-23.61
29.921,-29.43
29.937,-35.25
29.953,-40.09
29.968,-42.87
29.984,-42.75
30.000,-39.42
30.015,-33.32
30.031,-25.41
30.046,-16.94
30.062,-8.92
30.078,-2.02
30.093,3.62
30.109,8.14
30.125,11.76
30.140,14.59
30.156,16.7
30.171,18.06
30.187,18.68
30.203,18.72
30.218,18.38
30.234,17.9
30.250,17.5
30.265,17.22
30.281,16.97
30.296,16.61
30.312,15.88
30.328,14.63
30.343,12.78
30.359,10.38
30.375,7.56
30.390,4.58
30.406,1.64
30.421,-1.04
30.437,-3.31
30.453,-5.13
30.468,-6.45
30.484,-7.35
30.500,-7.95
30.515,-8.5
30.531,-9.24
30.546,-10.56
30.562,-12.77
30.578,-16.07
30.593,-20.33
30.609,-24.96
30.625,-28.99
30.640,-31.23
30.656,-30.65
30.671,-26.69
30.687,-19.49
30.703,-9.88
30.718,0.95
30.734,11.7
30.750,21.42
30.765,29.52
30.781,35.83
30.796,40.39
30.812,43.35
30.828,44.89
30.843,45.22
30.859,44.67
30.875,43.54
30.890,42.24
30.906,40.99
30.921,39.94
30.937,39.06
30.953,38.18
30.968,37.18
30.984,35.95
31.000,34.41
31.015,32.45
31.031,29.96
31.046,26.88
31.062,23.27
31.078,19.28
31.093,15.08
31.109,10.76
31.125,6.26
31.140,1.42
31.156,-4.01
31.171,-10.13
31.187,-16.97
31.203,-24.39
31.218,-32.16
31.234,-39.99
31.250,-47.36
31.265,-53.55
31.281,-57.65
31.296,-58.85
31.312,-56.65
31.328,-51.18
31.343,-43.15
31.359,-33.67
31.375,-24.01
31.390,-15.17
31.406,-7.81
31.421,-2.16
31.437,1.86
31.453,4.41
31.468,5.74
31.484,6.04
31.500,5.53
31.515,4.41
31.531,2.95
31.546,1.37
31.562,-0.08
31.578,-1.26
31.593,-2.13
31.609,-2.73
31.625,-3.17
31.640,-3.51
31.656,-3.83
31.671,-4.17
31.687,-4.63
31.703,-5.31
31.718,-6.25
31.734,-7.49
31.750,-8.98
31.765,-10.73
31.781,-12.67
31.796,-14.84
31.812,-17.22
31.828,-19.87
31.843,-22.86
31.859,-26.21
31.875,-29.87
31.890,-33.61
31.906,-36.97
31.921,-39.35
31.937,-40.18
31.953,-39.05
31.968,-35.93
31.984,-31.08
32.000,-25.0
32.015,-18.21
32.031,-11.2
32.046,-4.34
32.062,2.08
32.078,7.74
32.093,12.46
32.109,16.17
32.125,18.96
32.140,21.01
32.156,22.46
32.171,23.33
32.187,23.51
32.203,22.95
32.218,21.66
32.234,19.91
32.250,18.05
32.265,16.4
32.281,15.1
32.296,13.98
32.312,12.79
32.328,11.22
32.343,9.17
32.359,6.72
32.375,4.15
32.390,1.7
32.406,-0.5
32.421,-2.47
32.437,-4.43
32.453,-6.61
32.468,-9.25
32.484,-12.51
32.500,-16.44
32.515,-20.97
32.531,-25.92
32.546,-30.89
32.562,-35.33
32.578,-38.58
32.593,-40.04
32.609,-39.26
32.625,-36.16
32.640,-30.99
32.656,-24.3
32.671,-16.78
32.687,-9.1
32.703,-1.7
32.718,5.22
32.734,11.63
32.750,17.57
32.765,23.04
32.781,27.91
32.796,31.96
32.812,34.98
32.828,36.9
32.843,37.82
32.859,38.03
32.875,37.88
32.890,37.62
32.906,37.4
32.921,37.16
32.937,36.78
32.953,36.18
32.968,35.37
32.984,34.5
33.000,33.78
33.015,33.37
33.031,33.24
33.046,33.24
33.062,33.08
33.078,32.54
33.093,31.47
33.109,29.87
33.125,27.87
33.140,25.74
33.156,23.73
33.171,21.98
33.187,20.56
33.203,19.34
33.218,18.22
33.234,17.05
33.250,15.73
33.265,14.22
33.281,12.58
33.296,10.89
33.312,9.23
33.328,7.68
33.343,6.22
33.359,4.85
33.375,3.47
33.390,1.98
33.406,0.28
33.421,-1.67
33.437,-3.79
33.453,-5.85
33.468,-7.58
33.484,-8.71
33.500,-8.98
33.515,-8.3
33.531,-6.73
33.546,-4.54
33.562,-2.13
33.578,-0.02
33.593,1.28
33.609,1.38
33.625,0.01
33.640,-2.89
33.656,-7.17
33.671,-12.49
33.687,-18.4
33.703,-24.41
33.718,-30.09
33.734,-35.16
33.750,-39.46
33.765,-43.09
33.781,-46.23
33.796,-49.19
33.812,-52.28
33.828,-55.78
33.843,-59.73
33.859,-63.89
33.875,-67.61
33.890,-70.0
33.906,-70.2
33.921,-67.65
33.937,-62.32
33.953,-54.74
33.968,-45.74
33.984,-36.26
34.000,-27.05
34.015,-18.51
34.031,-10.81
34.046,-4.01
34.062,1.83
34.078,6.63
34.093,10.22
34.109,12.61
34.125,13.92
34.140,14.47
34.156,14.61
34.171,14.65
34.187,14.69
34.203,14.72
34.218,14.68
34.234,14.47
34.250,14.18
34.265,13.9
34.281,13.61
34.296,13.17
34.312,12.32
34.328,10.81
34.343,8.51
34.359,5.57
34.375,2.2
34.390,-1.31
34.406,-4.78
34.421,-8.13
34.437,-11.46
34.453,-14.87
34.468,-18.54
34.484,-22.61
34.500,-27.08
34.515,-31.79
34.531,-36.21
34.546,-39.53
34.562,-40.9
34.578,-39.63
34.593,-35.53
34.609,-28.94
34.625,-20.69
34.640,-11.74
34.656,-3.06
34.671,4.73
34.687,11.31
34.703,16.6
34.718,20.7
34.734,23.72
34.750,25.82
34.765,27.13
34.781,27.82
34.796,28.06
34.812,28.05
34.828,27.86
34.843,27.43
34.859,26.6
34.875,25.08
34.890,22.73
34.906,19.52
34.921,15.76
34.937,11.84
34.953,8.24
34.968,5.26
34.984,2.93
35.000,1.06
35.015,-0.74
35.031,-2.87
35.046,-5.64
35.062,-9.19
35.078,-13.56
35.093,-18.65
35.109,-24.27
35.125,-30.05
35.140,-35.45
35.156,-39.73
35.171,-42.05
35.187,-41.78
35.203,-38.62
35.218,-32.85
35.234,-25.22
35.250,-16.65
35.265,-7.99
35.281,0.23
35.296,7.78
35.312,14.56
35.328,20.39
35.343,24.95
35.359,27.91
35.375,29.1
35.390,28.71
35.406,27.26
35.421,25.39
35.437,23.61
35.453,22.15
35.468,20.96
35.484,19.81
35.500,18.53
35.515,17.07
35.531,15.42
35.546,13.6
35.562,11.54
35.578,9.16
35.593,6.42
35.609,3.41
35.625,0.37
35.640,-2.47
35.656,-5.01
35.671,-7.36
35.687,-9.82
35.703,-12.8
35.718,-16.57
35.734,-21.22
35.750,-26.49
35.765,-31.83
35.781,-36.53
35.796,-39.72
35.812,-40.66
35.828,-38.9
35.843,-34.41
35.859,-27.62
35.875,-19.35
35.890,-10.57
35.906,-2.17
35.921,5.16
35.937,11.09
35.953,15.52
35.968,18.63
35.984,20.75
36.000,22.17
36.015,23.16
36.031,23.85
36.046,24.33
36.062,24.58
36.078,24.63
36.093,24.49
36.109,24.16
36.125,23.64
36.140,22.83
36.156,21.68
36.171,20.14
36.187,18.23
36.203,16.03
36.218,13.65
36.234,11.08
36.250,8.27
36.265,5.19
36.281,1.84
36.296,-1.72
36.312,-5.38
36.328,-9.12
36.343,-12.97
36.359,-17.03
36.375,-21.4
36.390,-26.1
36.406,-30.98
36.421,-35.74
36.437,-39.88
36.453,-42.87
36.468,-44.18
36.484,-43.43
36.500,-40.42
36.515,-35.25
36.531,-28.23
36.546,-19.87
36.562,-10.77
36.578,-1.52
36.593,7.34
36.609,15.36
36.625,22.13
36.640,27.33
36.656,30.72
36.671,32.29
36.687,32.26
36.703,31.09
36.718,29.41
36.734,27.8
36.750,26.61
36.765,25.94
36.781,25.55
36.796,25.14
36.812,24.41
36.828,23.2
36.843,21.44
36.859,19.13
36.875,16.24
36.890,12.73
36.906,8.68
36.921,4.3
36.937,-0.04
36.953,-3.93
36.968,-7.02
36.984,-9.2
37.000,-10.5
37.015,-11.27
37.031,-12.06
37.046,-13.44
37.062,-15.96
37.078,-19.81
37.093,-24.61
37.109,-29.51
37.125,-33.35
37.140,-34.96
37.156,-33.61
37.171,-29.27
37.187,-22.52
37.203,-14.38
37.218,-5.94
37.234,1.97
37.250,8.81
37.265,14.42
37.281,18.85
37.296,22.24
37.312,24.79
37.328,26.72
37.343,28.29
37.359,29.76
37.375,31.4
37.390,33.29
37.406,35.35
37.421,37.35
37.437,38.92
37.453,39.82
37.468,40.01
37.484,39.63
37.500,38.99
37.515,38.38
37.531,37.92
37.546,37.52
37.562,36.95
37.578,35.98
37.593,34.53
37.609,32.72
37.625,30.8
37.640,29.03
37.656,27.58
37.671,26.4
37.687,25.32
37.703,24.13
37.718,22.66
37.734,20.94
37.750,19.19
37.765,17.6
37.781,16.37
37.796,15.6
37.812,15.21
37.828,15.0
37.843,14.72
37.859,14.14
37.875,13.17
37.890,11.79
37.906,10.1
37.921,8.21
37.937,6.26
37.953,4.38
37.968,2.69
37.984,1.31
38.000,0.29
38.015,-0.39
38.031,-0.86
38.046,-1.28
38.062,-1.82
38.078,-2.6
38.093,-3.65
38.109,-4.94
38.125,-6.37
38.140,-7.91
38.156,-9.46
38.171,-10.97
38.187,-12.32
38.203,-13.46
38.218,-14.4
38.234,-15.35
38.250,-16.6
38.265,-18.47
38.281,-21.16
38.296,-24.6
38.312,-28.5
38.328,-32.39
38.343,-35.88
38.359,-38.85
38.375,-41.4
38.390,-43.86
38.406,-46.64
38.421,-49.98
38.437,-53.89
38.453,-58.0
38.468,-61.61
38.484,-63.92
38.500,-64.14
38.515,-61.72
38.531,-56.49
38.546,-48.69
38.562,-38.84
38.578,-27.68
38.593,-16.06
38.609,-4.84
38.625,5.16
38.640,13.16
38.656,18.6
38.671,21.19
38.687,21.05
38.703,18.75
38.718,15.14
38.734,11.19
38.750,7.71
38.765,5.2
38.781,3.75
38.796,3.12
38.812,2.86
38.828,2.58
38.843,2.06
38.859,1.28
38.875,0.37
38.890,-0.43
38.906,-1.0
38.921,-1.35
38.937,-1.61
38.953,-2.03
38.968,-2.76
38.984,-3.92
39.000,-5.49
39.015,-7.47
39.031,-9.82
39.046,-12.73
39.062,-16.38
39.078,-20.88
39.093,-26.18
39.109,-32.0
39.125,-37.89
39.140,-43.37
39.156,-48.07
39.171,-51.58
39.187,-53.57
39.203,-53.58
39.218,-51.19
39.234,-46.2
39.250,-38.83
39.265,-29.76
39.281,-20.0
39.296,-10.55
39.312,-2.09
39.328,5.1
39.343,11.09
39.359,16.03
39.375,19.94
39.390,22.74
39.406,24.33
39.421,24.77
39.437,24.41
39.453,23.69
39.468,23.04
39.484,22.72
39.500,22.72
39.515,22.82
39.531,22.78
39.546,22.39
39.562,21.53
39.578,20.16
39.593,18.32
39.609,16.1
39.625,13.61
39.640,10.94
39.656,8.06
39.671,4.91
39.687,1.36
39.703,-2.57
39.718,-6.75
39.734,-10.9
39.750,-14.87
39.765,-18.63
39.781,-22.42
39.796,-26.63
39.812,-31.39
39.828,-36.49
39.843,-41.24
39.859,-44.69
39.875,-45.91
39.890,-44.41
39.906,-40.21
39.921,-33.77
39.937,-25.85
39.953,-17.25
39.968,-8.65
39.984,-0.57
40.000,6.61
40.015,12.71
40.031,17.62
40.046,21.41
40.062,24.27
40.078,26.41
40.093,27.97
40.109,29.06
40.125,29.71
40.140,29.96
40.156,29.87
40.171,29.5
40.187,28.87
40.203,27.98
40.218,26.79
40.234,25.3
40.250,23.53
40.265,21.45
40.281,19.04
40.296,16.16
40.312,12.67
40.328,8.59
40.343,4.13
40.359,-0.39
40.375,-4.53
40.390,-8.04
40.406,-10.97
40.421,-13.71
40.437,-16.81
40.453,-20.84
40.468,-26.03
40.484,-32.13
40.500,-38.4
40.515,-43.66
40.531,-46.66
40.546,-46.51
40.562,-42.84
40.578,-36.02
40.593,-26.98
40.609,-16.92
40.625,-7.03
40.640,1.86
40.656,9.33
40.671,15.33
40.687,19.93
40.703,23.31
40.718,25.5
40.734,26.56
40.750,26.65
40.765,26.07
40.781,25.24
40.796,24.57
40.812,24.28
40.828,24.37
40.843,24.71
40.859,25.07
40.875,25.31
40.890,25.4
40.906,25.32
40.921,25.0
40.937,24.25
40.953,22.77
40.968,20.35
40.984,16.93
41.000,12.64
41.015,7.88
41.031,3.16
41.046,-1.05
41.062,-4.44
41.078,-7.05
41.093,-9.24
41.109,-11.57
41.125,-14.53
41.140,-18.32
41.156,-22.52
41.171,-26.17
41.187,-28.11
41.203,-27.3
41.218,-23.26
41.234,-16.24
41.250,-7.06
41.265,3.2
41.281,13.56
41.296,23.45
41.312,32.66
41.328,41.21
41.343,49.18
41.359,56.45
41.375,62.74
41.390,67.71
41.406,71.22
41.421,73.45
41.437,74.97
41.453,76.57
41.468,78.92
41.484,82.28
41.500,86.4
41.515,90.64
41.531,94.25
41.546,96.71
41.562,97.84
41.578,97.74
41.593,96.67
41.609,94.81
41.625,92.31
41.640,89.19
41.656,85.51
41.671,81.19
41.687,75.89
41.703,69.11
41.718,60.35
41.734,49.6
41.750,37.53
41.765,25.59
41.781,15.48
41.796,8.57
41.812,5.36
41.828,5.31
41.843,7.09
41.859,9.25
41.875,10.7
41.890,11.14
41.906,11.08
41.921,11.51
41.937,13.32
41.953,16.92
41.968,21.83
41.984,26.8
42.000,30.23
42.015,30.68
42.031,27.47
42.046,20.87
42.062,11.92
42.078,1.87
42.093,-8.25
42.109,-17.91
42.125,-27.05
42.140,-35.8
42.156,-44.18
42.171,-52.0
42.187,-58.97
42.203,-64.96
42.218,-70.22
42.234,-75.41
42.250,-81.28
42.265,-88.38
42.281,-96.67
42.296,-105.53
42.312,-113.95
42.328,-120.99
42.343,-126.19
42.359,-129.7
42.375,-132.16
42.390,-134.34
42.406,-136.88
42.421,-139.98
42.437,-143.45
42.453,-146.73
42.468,-149.0
42.484,-149.24
42.500,-146.38
42.515,-139.61
42.531,-128.62
42.546,-113.83
42.562,-96.27
42.578,-77.38
42.593,-58.55
42.609,-40.78
42.625,-24.55
42.640,-9.97
42.656,3.01
42.671,14.4
42.687,24.16
42.703,32.26
42.718,38.81
42.734,44.11
42.750,48.62
42.765,52.82
42.781,57.11
42.796,61.69
42.812,66.51
42.828,71.27
42.843,75.44
42.859,78.45
42.875,79.81
42.890,79.23
42.906,76.74
42.921,72.49
42.937,66.74
42.953,59.77
42.968,51.87
42.984,43.51
43.000,35.36
43.015,28.16
43.031,22.51
43.046,18.57
43.062,15.87
43.078,13.54
43.093,10.6
43.109,6.41
43.125,1.02
43.140,-4.78
43.156,-9.8
43.171,-12.86
43.187,-13.28
43.203,-11.05
43.218,-6.89
43.234,-1.87
43.250,2.95
43.265,6.88
43.281,9.7
43.296,11.54
43.312,12.58
43.328,12.85
43.343,12.22
43.359,10.58
43.375,8.06
43.390,5.03
43.406,2.08
43.421,-0.31
43.437,-1.89
43.453,-2.79
43.468,-3.16
43.484,-3.16
43.500,-2.76
43.515,-1.91
43.531,-0.77
43.546,0.18
43.562,0.29
43.578,-0.94
43.593,-3.56
43.609,-7.08
43.625,-10.7
43.640,-13.75
43.656,-15.88
43.671,-17.36
43.687,-18.73
43.703,-20.5
43.718,-22.74
43.734,-25.01
43.750,-26.3
43.765,-25.39
43.781,-21.24
43.796,-13.33
43.812,-2.12
43.828,10.92
43.843,23.52
43.859,33.16
43.875,37.8
43.890,36.62
43.906,30.23
43.921,20.43
43.937,9.5
43.953,-0.75
43.968,-9.48
43.984,-16.88
44.000,-23.67
44.015,-30.27
44.031,-36.17
44.046,-39.96
44.062,-39.9
44.078,-34.76
44.093,-24.68
44.109,-11.37
44.125,2.41
44.140,13.81
44.156,20.94
44.171,23.64
44.187,23.45
44.203,22.8
44.218,24.08
44.234,28.49
44.250,35.71
44.265,44.03
44.281,51.04
44.296,54.29
44.312,51.79
44.328,42.54
44.343,27.21
44.359,8.78
44.375,-7.32
44.390,-13.92
44.406,-4.46
44.421,24.19
44.437,69.62
44.453,123.69
44.468,175.35
44.484,214.68
44.500,236.31
44.515,240.63
44.531,232.07
44.546,215.76
44.562,194.98
44.578,170.58
44.593,142.39
44.609,111.29
44.625,79.95
44.640,52.12
44.656,30.77
44.671,16.76
44.687,8.48
44.703,2.66
44.718,-4.41
44.734,-15.74
44.750,-33.1
44.765,-56.76
44.781,-85.34
44.796,-115.87
44.812,-144.52
44.828,-167.88
44.843,-184.26
44.859,-194.38
44.875,-200.79
44.890,-206.31
44.906,-212.51
44.921,-219.12
44.937,-224.73
44.953,-228.1
44.968,-229.17
44.984,-228.63
45.000,-227.19
45.015,-224.47
45.031,-218.94
45.046,-209.04
45.062,-194.48
45.078,-177.13
45.093,-160.48
45.109,-147.98
45.125,-141.42
45.140,-140.14
45.156,-142.01
45.171,-144.93
45.187,-148.38
45.203,-153.39
45.218,-161.33
45.234,-172.2
45.250,-183.89
45.265,-192.83
45.281,-196.04
45.296,-193.03
45.312,-186.14
45.328,-179.29
45.343,-175.5
45.359,-175.04
45.375,-175.14
45.390,-171.39
45.406,-159.8
45.421,-138.52
45.437,-108.08
45.453,-70.52
45.468,-28.5
45.484,15.17
45.500,57.17
45.515,93.25
45.531,118.58
45.546,129.02
45.562,122.81
45.578,101.59
45.593,70.09
45.609,34.68
45.625,1.54
45.640,-24.76
45.656,-41.66
45.671,-48.03
45.687,-43.64
45.703,-28.93
45.718,-5.32
45.734,24.34
45.750,55.78
45.765,84.2
45.781,105.77
45.796,118.84
45.812,124.58
45.828,126.18
45.843,127.32
45.859,130.56
45.875,136.47
45.890,143.81
45.906,150.57
45.921,155.29
45.937,157.7
45.953,158.71
45.968,159.63
45.984,161.37
46.000,164.02
46.015,167.07
46.031,169.87
46.046,172.13
46.062,173.96
46.078,175.63
46.093,177.25
46.109,178.49
46.125,178.8
46.140,177.58
46.156,174.55
46.171,169.9
46.187,164.38
46.203,159.03
46.218,154.69
46.234,151.33
46.250,147.59
46.265,140.86
46.281,128.07
46.296,106.95
46.312,77.29
46.328,41.29
46.343,3.09
46.359,-32.54
46.375,-61.34
46.390,-80.17
46.406,-86.99
46.421,-80.63
46.437,-60.73
46.453,-28.17
46.468,14.53
46.484,63.23
46.500,112.98
46.515,159.15
46.531,198.52
46.546,229.44
46.562,251.2
46.578,263.03
46.593,263.6
46.609,251.26
46.625,225.04
46.640,185.83
46.656,137.0
46.671,83.76
46.687,31.96
46.703,-13.7
46.718,-50.52
46.734,-77.92
46.750,-96.35
46.765,-106.01
46.781,-106.27
46.796,-96.25
46.812,-76.25
46.828,-49.09
46.843,-20.43
46.859,2.44
46.875,12.98
46.890,7.68
46.906,-12.64
46.921,-43.32
46.937,-77.53
46.953,-108.5
46.968,-131.16
46.984,-142.84
47.000,-143.07
47.015,-133.07
47.031,-115.22
47.046,-92.65
47.062,-69.15
47.078,-48.64
47.093,-34.27
47.109,-27.38
47.125,-26.63
47.140,-27.95
47.156,-25.53
47.171,-13.99
47.187,9.34
47.203,42.59
47.218,79.24
47.234,109.81
47.250,125.02
47.265,118.86
47.281,90.55
47.296,44.69
47.312,-10.64
47.328,-66.48
47.343,-115.69
47.359,-154.49
47.375,-182.89
47.390,-203.74
47.406,-221.38
47.421,-239.94
47.437,-261.73
47.453,-286.31
47.468,-310.18
47.484,-327.76
47.500,-333.14
47.515,-322.59
47.531,-296.32
47.546,-258.77
47.562,-217.28
47.578,-179.36
47.593,-150.18
47.609,-131.05
47.625,-119.81
47.640,-112.32
47.656,-104.66
47.671,-94.35
47.687,-80.56
47.703,-63.4
47.718,-43.11
47.734,-19.87
47.750,5.94
47.765,32.94
47.781,58.53
47.796,79.18
47.812,91.16
47.828,91.81
47.843,80.47
47.859,59.08
47.875,31.8
47.890,4.11
47.906,-18.75
47.921,-33.12
47.937,-37.69
47.953,-33.3
47.968,-22.07
47.984,-6.3
48.000,12.22
48.015,32.23
48.031,52.43
48.046,71.14
48.062,86.2
48.078,95.55
48.093,98.0
48.109,93.92
48.125,85.09
48.140,74.22
48.156,63.87
48.171,55.52
48.187,49.36
48.203,44.55
48.218,39.89
48.234,34.58
48.250,28.92
48.265,24.01
48.281,21.46
48.296,22.63
48.312,27.92
48.328,36.59
48.343,46.94
48.359,56.8
48.375,64.31
48.390,68.53
48.406,69.39
48.421,67.57
48.437,63.97
48.453,59.4
48.468,54.69
48.484,50.9
48.500,49.29
48.515,51.19
48.531,57.29
48.546,67.15
48.562,79.07
48.578,90.56
48.593,99.05
48.609,102.83
48.625,101.28
48.640,94.77
48.656,84.34
48.671,71.39
48.687,57.74
48.703,45.72
48.718,38.0
48.734,36.65
48.750,42.22
48.765,52.91
48.781,64.85
48.796,73.33
48.812,74.5
48.828,66.62
48.843,50.42
48.859,28.53
48.875,4.38
48.890,-18.57
48.906,-37.26
48.921,-48.89
48.937,-51.12
48.953,-42.57
48.968,-23.6
48.984,3.33
49.000,34.01
49.015,63.68
49.031,88.38
49.046,105.81
49.062,115.5
49.078,118.21
49.093,115.28
49.109,108.17
49.125,98.4
49.140,87.55
49.156,77.12
49.171,68.34
49.187,61.72
49.203,57.01
49.218,53.24
49.234,49.19
49.250,43.8
49.265,36.7
49.281,28.37
49.296,20.05
49.312,13.49
49.328,10.58
49.343,12.97
49.359,21.53
49.375,36.19
49.390,55.42
49.406,76.22
49.421,94.23
49.437,104.6
49.453,103.3
49.468,88.69
49.484,62.47
49.500,29.36
49.515,-4.32
49.531,-32.9
49.546,-53.22
49.562,-65.3
49.578,-71.62
49.593,-75.47
49.609,-79.36
49.625,-84.29
49.640,-89.96
49.656,-95.39
49.671,-99.73
49.687,-102.51
49.703,-103.44
49.718,-102.16
49.734,-98.16
49.750,-91.16
49.765,-81.41
49.781,-70.17
49.796,-59.44
49.812,-51.58
49.828,-48.49
49.843,-51.12
49.859,-59.13
49.875,-71.25
49.890,-85.8
49.906,-101.13
49.921,-116.04
49.937,-129.77
49.953,-141.96
49.968,-152.5
49.984,-161.35
50.000,-168.39
50.015,-173.4
50.031,-176.0
50.046,-175.79
50.062,-172.6
50.078,-166.49
50.093,-157.93
50.109,-147.63
50.125,-136.29
50.140,-124.32
50.156,-111.67
50.171,-97.84
50.187,-82.01
50.203,-63.4
50.218,-41.45
50.234,-16.19
50.250,11.65
50.265,40.77
50.281,69.45
50.296,96.07
50.312,119.37
50.328,138.68
50.343,153.91
50.359,165.45
50.375,174.0
50.390,180.43
50.406,185.64
50.421,190.31
50.437,194.66
50.453,198.37
50.468,200.71
50.484,200.84
50.500,198.34
50.515,193.37
50.531,186.59
50.546,178.8
50.562,170.36
50.578,160.9
50.593,149.47
50.609,134.86
50.625,116.31
50.640,93.96
50.656,69.13
50.671,44.28
50.687,22.5
50.703,6.73
50.718,-0.95
50.734,-0.06
50.750,8.05
50.765,20.52
50.781,33.77
50.796,44.36
50.812,49.94
50.828,49.7
50.843,44.37
50.859,35.76
50.875,25.98
50.890,16.9
50.906,9.57
50.921,4.18
50.937,0.01
50.953,-4.11
50.968,-9.54
50.984,-17.21
51.000,-27.21
51.015,-38.62
51.031,-49.67
51.046,-58.46
51.062,-63.75
51.078,-65.83
51.093,-66.78
51.109,-70.14
51.125,-79.8
51.140,-98.48
51.156,-126.46
51.171,-161.07
51.187,-197.2
51.203,-228.69
51.218,-250.05
51.234,-257.76
51.250,-250.85
51.265,-230.65
51.281,-199.98
51.296,-162.42
51.312,-121.66
51.328,-81.38
51.343,-45.01
51.359,-15.44
51.375,5.44
51.390,17.4
51.406,21.86
51.421,21.54
51.437,19.52
51.453,18.26
51.468,18.88
51.484,20.98
51.500,23.18
51.515,23.69
51.531,21.21
51.546,15.34
51.562,6.72
51.578,-3.3
51.593,-13.1
51.609,-21.31
51.625,-27.08
51.640,-30.13
51.656,-30.61
51.671,-28.93
51.687,-25.61
51.703,-21.21
51.718,-16.31
51.734,-11.56
51.750,-7.55
51.765,-4.85
51.781,-3.86
51.796,-4.7
51.812,-7.09
51.828,-10.33
51.843,-13.45
51.859,-15.36
51.875,-15.1
51.890,-12.09
51.906,-6.24
51.921,2.09
51.937,12.22
51.953,23.35
51.968,34.72
51.984,45.67
52.000,55.8
52.015,64.76
52.031,72.42
52.046,78.71
52.062,83.76
52.078,87.82
52.093,91.17
52.109,94.13
52.125,96.98
52.140,99.84
52.156,102.5
52.171,104.52
52.187,105.27
52.203,104.19
52.218,101.22
52.234,96.95
52.250,92.42
52.265,88.56
52.281,85.51
52.296,82.21
52.312,76.71
52.328,66.99
52.343,51.81
52.359,31.34
52.375,7.24
52.390,-17.94
52.406,-41.31
52.421,-60.25
52.437,-72.92
52.453,-78.58
52.468,-77.83
52.484,-72.7
52.500,-66.08
52.515,-60.99
52.531,-59.52
52.546,-62.18
52.562,-67.76
52.578,-74.03
52.593,-78.81
52.609,-80.94
52.625,-80.75
52.640,-79.73
52.656,-79.8
52.671,-82.47
52.687,-88.16
52.703,-96.09
52.718,-104.54
52.734,-111.45
52.750,-114.99
52.765,-114.05
52.781,-108.35
52.796,-98.29
52.812,-84.85
52.828,-69.32
52.843,-53.21
52.859,-38.15
52.875,-25.62
52.890,-16.58
52.906,-11.37
52.921,-9.53
52.937,-9.94
52.953,-11.09
52.968,-11.46
52.984,-9.75
53.000,-5.19
53.015,2.38
53.031,12.6
53.046,24.79
53.062,38.35
53.078,53.07
53.093,69.0
53.109,85.98
53.125,102.84
53.140,117.07
53.156,125.28
53.171,124.45
53.187,113.28
53.203,93.11
53.218,67.78
53.234,42.45
53.250,22.1
53.265,10.15
53.281,7.74
53.296,13.71
53.312,24.99
53.328,37.13
53.343,45.17
53.359,44.87
53.375,33.89
53.390,12.72
53.406,-15.24
53.421,-44.8
53.437,-70.58
53.453,-88.7
53.468,-97.62
53.484,-97.98
53.500,-91.79
53.515,-81.59
53.531,-69.81
53.546,-58.68
53.562,-50.37
53.578,-46.93
53.593,-49.91
53.609,-59.69
53.625,-74.92
53.640,-92.55
53.656,-108.55
53.671,-119.09
53.687,-121.67
53.703,-115.89
53.718,-103.19
53.734,-86.12
53.750,-67.25
53.765,-48.4
53.781,-30.6
53.796,-14.22
53.812,0.43
53.828,12.92
53.843,22.66
53.859,29.2
53.875,32.46
53.890,32.93
53.906,31.54
53.921,29.41
53.937,27.52
53.953,26.51
53.968,26.52
53.984,27.24
54.000,28.15
54.015,28.77
54.031,28.84
54.046,28.45
54.062,27.91
54.078,27.46
54.093,27.08
54.109,26.39
54.125,24.76
54.140,21.62
54.156,16.75
54.171,10.4
54.187,3.24
54.203,-3.89
54.218,-10.43
54.234,-16.24
54.250,-21.58
54.265,-26.94
54.281,-32.77
54.296,-39.26
54.312,-46.27
54.328,-53.38
54.343,-59.92
54.359,-65.0
54.375,-67.6
54.390,-66.65
54.406,-61.39
54.421,-51.63
54.437,-38.04
54.453,-22.01
54.468,-5.29
54.484,10.57
54.500,24.54
54.515,36.3
54.531,46.0
54.546,53.93
54.562,60.34
54.578,65.3
54.593,68.92
54.609,71.29
54.625,72.74
54.640,73.55
54.656,73.93
54.671,73.94
54.687,73.45
54.703,72.36
54.718,70.71
54.734,68.64
54.750,66.33
54.765,63.88
54.781,61.13
54.796,57.78
54.812,53.5
54.828,48.1
54.843,41.66
54.859,34.56
54.875,27.25
54.890,20.18
54.906,13.6
54.921,7.58
54.937,1.92
54.953,-3.72
54.968,-9.75
54.984,-16.46
55.000,-23.88
55.015,-31.61
55.031,-38.84
55.046,-44.45
55.062,-47.35
55.078,-46.84
55.093,-42.78
55.109,-35.69
55.125,-26.51
55.140,-16.32
55.156,-6.04
55.171,3.71
55.187,12.66
55.203,20.71
55.218,27.79
55.234,33.79
55.250,38.56
55.265,42.02
55.281,44.3
55.296,45.72
55.312,46.68
55.328,47.5
55.343,48.25
55.359,48.73
55.375,48.59
55.390,47.58
55.406,45.75
55.421,43.47
55.437,41.24
55.453,39.34
55.468,37.7
55.484,35.8
55.500,32.9
55.515,28.43
55.531,22.21
55.546,14.55
55.562,6.12
55.578,-2.28
55.593,-9.98
55.609,-16.64
55.625,-22.25
55.640,-27.13
55.656,-31.65
55.671,-36.15
55.687,-40.73
55.703,-45.12
55.718,-48.71
55.734,-50.64
55.750,-50.09
55.765,-46.58
55.781,-40.17
55.796,-31.37
55.812,-21.06
55.828,-9.94
55.843,1.55
55.859,13.31
55.875,25.28
55.890,37.23
55.906,48.61
55.921,58.62
55.937,66.59
55.953,72.26
55.968,75.83
55.984,77.93
56.000,79.3
56.015,80.55
56.031,82.13
56.046,84.21
56.062,86.62
56.078,88.63
56.093,88.96
56.109,85.83
56.125,77.57
56.140,63.22
56.156,43.16
56.171,19.26
56.187,-5.69
56.203,-28.88
56.218,-48.29
56.234,-63.15
56.250,-73.84
56.265,-81.23
56.281,-86.18
56.296,-89.28
56.312,-90.84
56.328,-91.18
56.343,-90.74
56.359,-89.94
56.375,-89.01
56.390,-87.9
56.406,-86.1
56.421,-83.07
56.437,-78.37
56.453,-71.93
56.468,-64.13
56.484,-55.58
56.500,-46.91
56.515,-38.44
56.531,-30.08
56.546,-21.18
56.562,-10.91
56.578,1.33
56.593,15.4
56.609,30.21
56.625,43.95
56.640,54.6
56.656,60.76
56.671,62.06
56.687,59.33
56.703,54.12
56.718,48.18
56.734,42.88
56.750,38.92
56.765,36.44
56.781,35.13
56.796,34.57
56.812,34.31
56.828,34.02
56.843,33.4
56.859,32.22
56.875,30.33
56.890,27.68
56.906,24.43
56.921,20.83
56.937,17.21
56.953,13.74
56.968,10.34
56.984,6.65
57.000,2.13
57.015,-3.71
57.031,-11.07
57.046,-19.71
57.062,-29.02
57.078,-38.05
57.093,-45.76
57.109,-51.22
57.125,-53.63
57.140,-52.58
57.156,-47.99
57.171,-40.19
57.187,-29.86
57.203,-17.98
57.218,-5.66
57.234,6.07
57.250,16.38
57.265,24.78
57.281,31.11
57.296,35.45
57.312,38.01
57.328,39.06
57.343,38.89
57.359,37.79
57.375,36.15
57.390,34.39
57.406,33.01
57.421,32.32
57.437,32.53
57.453,33.48
57.468,34.82
57.484,36.02
57.500,36.54
57.515,36.0
57.531,34.23
57.546,31.39
57.562,27.84
57.578,24.07
57.593,20.44
57.609,17.17
57.625,14.26
57.640,11.46
57.656,8.48
57.671,5.05
57.687,1.05
57.703,-3.49
57.718,-8.53
57.734,-13.89
57.750,-19.34
57.765,-24.43
57.781,-28.5
57.796,-30.76
57.812,-30.61
57.828,-27.84
57.843,-22.73
57.859,-16.06
57.875,-8.72
57.890,-1.38
57.906,5.61
57.921,12.16
57.937,18.29
57.953,23.93
57.968,28.77
57.984,32.49
58.000,34.71
58.015,35.24
58.031,34.03
58.046,31.32
58.062,27.5
58.078,23.18
58.093,18.98
58.109,15.41
58.125,12.66
58.140,10.52
58.156,8.53
58.171,6.15
58.187,3.03
58.203,-0.84
58.218,-5.15
58.234,-9.54
58.250,-13.66
58.265,-17.29
58.281,-20.45
58.296,-23.22
58.312,-25.79
58.328,-28.39
58.343,-31.31
58.359,-34.85
58.375,-39.22
58.390,-44.38
58.406,-49.84
58.421,-54.69
58.437,-57.81
58.453,-58.21
58.468,-55.4
58.484,-49.59
58.500,-41.59
58.515,-32.41
58.531,-22.99
58.546,-13.96
58.562,-5.57
58.578,2.05
58.593,8.9
58.609,14.88
58.625,19.94
58.640,24.07
58.656,27.29
58.671,29.65
58.687,31.11
58.703,31.69
58.718,31.42
58.734,30.46
58.750,29.08
58.765,27.51
58.781,25.92
58.796,24.4
58.812,22.98
58.828,21.61
58.843,20.27
58.859,18.81
58.875,17.1
58.890,15.0
58.906,12.44
58.921,9.5
58.937,6.27
58.953,2.88
58.968,-0.61
58.984,-4.15
59.000,-7.82
59.015,-11.67
59.031,-15.71
59.046,-19.83
59.062,-23.71
59.078,-26.78
59.093,-28.21
59.109,-27.16
59.125,-23.02
59.140,-15.85
59.156,-6.47
59.171,3.71
59.187,13.14
59.203,20.76
59.218,26.22
59.234,29.8
59.250,32.06
59.265,33.3
59.281,33.3
59.296,31.56
59.312,27.67
59.328,21.77
59.343,14.68
59.359,7.54
59.375,1.45
59.390,-2.98
59.406,-5.57
59.421,-6.49
59.437,-5.9
59.453,-4.01
59.468,-1.1
59.484,2.31
59.500,5.46
59.515,7.54
59.531,7.96
59.546,6.56
59.562,3.59
59.578,-0.45
59.593,-5.1
59.609,-10.01
59.625,-14.93
59.640,-19.78
59.656,-24.48
59.671,-29.05
59.687,-33.51
59.703,-37.82
59.718,-41.71
59.734,-44.71
59.750,-46.14
59.765,-45.35
59.781,-42.06
59.796,-36.37
59.812,-28.83
59.828,-20.12
59.843,-10.88
59.859,-1.57
59.875,7.6
59.890,16.53
59.906,25.19
59.921,33.54
59.937,41.51
59.953,48.98
59.968,55.77
59.984,61.66
