timestamp,value
00.000,-167.09
00.015,-170.35
00.031,-170.73
00.046,-168.31
00.062,-163.55
00.078,-157.62
00.093,-152.47
00.109,-150.23
00.125,-152.32
00.140,-158.57
00.156,-166.95
00.171,-174.04
00.187,-176.07
00.203,-170.04
00.218,-154.57
00.234,-129.99
00.250,-98.08
00.265,-61.44
00.281,-22.76
00.296,15.77
00.312,52.79
00.328,87.83
00.343,120.98
00.359,152.25
00.375,180.94
00.390,205.19
00.406,222.02
00.421,228.21
00.437,221.28
00.453,200.54
00.468,167.59
00.484,126.07
00.500,80.8
00.515,36.46
00.531,-3.54
00.546,-37.78
00.562,-66.76
00.578,-92.25
00.593,-116.19
00.609,-139.71
00.625,-162.66
00.640,-183.77
00.656,-201.24
00.671,-213.61
00.687,-220.23
00.703,-221.56
00.718,-219.11
00.734,-215.02
00.750,-211.77
00.765,-211.61
00.781,-215.99
00.796,-225.03
00.812,-237.34
00.828,-250.47
00.843,-261.8
00.859,-269.67
00.875,-274.02
00.890,-276.17
00.906,-277.91
00.921,-280.22
00.937,-282.47
00.953,-282.35
00.968,-276.83
00.984,-263.35
01.000,-240.89
01.015,-210.4
01.031,-174.5
01.046,-136.59
01.062,-99.86
01.078,-66.59
01.093,-37.86
01.109,-13.85
01.125,5.78
01.140,21.48
01.156,33.76
01.171,43.19
01.187,50.59
01.203,56.9
01.218,62.96
01.234,69.18
01.250,75.33
01.265,80.69
01.281,84.38
01.296,85.88
01.312,85.31
01.328,83.48
01.343,81.55
01.359,80.5
01.375,80.74
01.390,81.92
01.406,83.1
01.421,83.07
01.437,80.9
01.453,76.26
01.468,69.51
01.484,61.51
01.500,53.26
01.515,45.51
01.531,38.53
01.546,32.18
01.562,26.2
01.578,20.5
01.593,15.54
01.609,12.32
01.625,12.12
01.640,16.02
01.656,24.42
01.671,36.89
01.687,52.25
01.703,69.12
01.718,86.28
01.734,103.03
01.750,119.14
01.765,134.51
01.781,148.86
01.796,161.61
01.812,171.96
01.828,179.33
01.843,183.62
01.859,185.34
01.875,185.49
01.890,185.12
01.906,185.09
01.921,185.75
01.937,186.99
01.953,188.33
01.968,189.1
01.984,188.52
02.000,185.88
02.015,180.66
02.031,172.63
02.046,161.97
02.062,149.24
02.078,135.29
02.093,121.06
02.109,107.43
02.125,94.99
02.140,83.89
02.156,73.81
02.171,64.02
02.187,53.44
02.203,41.09
02.218,26.43
02.234,9.78
02.250,-7.53
02.265,-23.42
02.281,-35.65
02.296,-42.47
02.312,-43.23
02.328,-38.5
02.343,-29.87
02.359,-19.56
02.375,-9.78
02.390,-2.3
02.406,1.87
02.421,2.63
02.437,0.68
02.453,-2.69
02.468,-5.94
02.484,-7.67
02.500,-7.05
02.515,-4.17
02.531,-0.15
02.546,3.08
02.562,3.31
02.578,-1.33
02.593,-11.87
02.609,-28.22
02.625,-49.35
02.640,-73.75
02.656,-99.98
02.671,-126.98
02.687,-154.03
02.703,-180.59
02.718,-205.77
02.734,-228.29
02.750,-246.51
02.765,-258.87
02.781,-264.45
02.796,-263.11
02.812,-255.56
02.828,-242.92
02.843,-226.33
02.859,-206.61
02.875,-184.28
02.890,-159.82
02.906,-134.05
02.921,-108.24
02.937,-83.81
02.953,-62.03
02.968,-43.53
02.984,-28.14
03.000,-15.13
03.015,-3.42
03.031,7.96
03.046,19.72
03.062,32.12
03.078,44.98
03.093,57.66
03.109,69.18
03.125,78.5
03.140,84.94
03.156,88.53
03.171,89.94
03.187,90.05
03.203,89.22
03.218,86.69
03.234,80.7
03.250,69.21
03.265,51.14
03.281,27.29
03.296,0.49
03.312,-25.17
03.328,-45.82
03.343,-59.22
03.359,-65.4
03.375,-66.39
03.390,-65.06
03.406,-63.5
03.421,-62.01
03.437,-58.92
03.453,-51.47
03.468,-37.34
03.484,-15.92
03.500,11.1
03.515,40.06
03.531,66.43
03.546,86.16
03.562,96.92
03.578,98.53
03.593,92.85
03.609,83.07
03.625,72.8
03.640,65.14
03.656,62.0
03.671,63.69
03.687,68.9
03.703,75.2
03.718,79.61
03.734,79.38
03.750,72.62
03.765,58.73
03.781,38.48
03.796,13.79
03.812,-12.88
03.828,-39.31
03.843,-63.86
03.859,-85.48
03.875,-103.11
03.890,-115.34
03.906,-120.51
03.921,-117.37
03.937,-105.75
03.953,-86.71
03.968,-62.26
03.984,-34.7
04.000,-6.39
04.015,20.18
04.031,41.92
04.046,55.2
04.062,56.67
04.078,44.69
04.093,20.62
04.109,-11.09
04.125,-44.23
04.140,-73.16
04.156,-94.85
04.171,-109.7
04.187,-120.89
04.203,-132.55
04.218,-147.93
04.234,-168.18
04.250,-192.13
04.265,-216.74
04.281,-238.16
04.296,-252.62
04.312,-257.3
04.328,-251.06
04.343,-234.61
04.359,-210.5
04.375,-182.45
04.390,-154.55
04.406,-130.15
04.421,-111.21
04.437,-98.25
04.453,-90.57
04.468,-86.84
04.484,-85.51
04.500,-85.04
04.515,-83.77
04.531,-80.03
04.546,-72.3
04.562,-59.73
04.578,-42.56
04.593,-22.22
04.609,-0.96
04.625,18.93
04.640,35.75
04.656,48.82
04.671,58.42
04.687,65.29
04.703,70.16
04.718,73.36
04.734,74.99
04.750,75.13
04.765,74.19
04.781,72.87
04.796,72.05
04.812,72.39
04.828,74.08
04.843,76.82
04.859,80.03
04.875,83.08
04.890,85.56
04.906,87.35
04.921,88.59
04.937,89.57
04.953,90.57
04.968,91.8
04.984,93.31
05.000,95.06
05.015,96.94
05.031,98.76
05.046,100.4
05.062,101.85
05.078,103.3
05.093,105.0
05.109,107.28
05.125,110.38
05.140,114.41
05.156,119.34
05.171,124.98
05.187,131.1
05.203,137.46
05.218,143.81
05.234,150.02
05.250,156.13
05.265,162.44
05.281,169.43
05.296,177.41
05.312,186.35
05.328,195.63
05.343,204.17
05.359,210.82
05.375,214.84
05.390,216.19
05.406,215.58
05.421,214.16
05.437,212.99
05.453,212.56
05.468,212.6
05.484,211.99
05.500,209.08
05.515,202.19
05.531,190.06
05.546,172.21
05.562,149.0
05.578,121.44
05.593,90.86
05.609,58.42
05.625,24.71
05.640,-10.35
05.656,-47.38
05.671,-87.16
05.687,-130.0
05.703,-175.27
05.718,-221.14
05.734,-264.67
05.750,-302.39
05.765,-331.15
05.781,-348.99
05.796,-355.87
05.812,-353.62
05.828,-345.32
05.843,-334.18
05.859,-322.51
05.875,-311.05
05.890,-299.05
05.906,-284.95
05.921,-267.4
05.937,-246.13
05.953,-222.4
05.968,-198.71
05.984,-177.98
06.000,-162.64
06.015,-153.75
06.031,-150.7
06.046,-151.52
06.062,-153.59
06.078,-154.45
06.093,-152.37
06.109,-146.5
06.125,-136.7
06.140,-123.21
06.156,-106.47
06.171,-87.23
06.187,-66.69
06.203,-46.42
06.218,-28.08
06.234,-12.97
06.250,-1.68
06.265,6.05
06.281,10.97
06.296,13.88
06.312,15.14
06.328,14.47
06.343,11.21
06.359,4.89
06.375,-4.23
06.390,-14.68
06.406,-23.85
06.421,-28.73
06.437,-26.82
06.453,-17.06
06.468,-0.21
06.484,21.44
06.500,44.84
06.515,67.01
06.531,85.88
06.546,100.4
06.562,110.44
06.578,116.39
06.593,118.79
06.609,118.18
06.625,115.14
06.640,110.3
06.656,104.37
06.671,98.08
06.687,92.0
06.703,86.53
06.718,81.79
06.734,77.65
06.750,73.8
06.765,69.82
06.781,65.35
06.796,60.13
06.812,54.06
06.828,47.16
06.843,39.61
06.859,31.62
06.875,23.41
06.890,15.2
06.906,7.23
06.921,-0.21
06.937,-6.83
06.953,-12.5
06.968,-17.56
06.984,-22.76
07.000,-28.95
07.015,-36.6
07.031,-45.22
07.046,-53.15
07.062,-57.99
07.078,-57.38
07.093,-49.93
07.109,-35.81
07.125,-16.64
07.140,5.13
07.156,26.99
07.171,47.08
07.187,64.41
07.203,78.68
07.218,89.9
07.234,98.05
07.250,103.03
07.265,104.71
07.281,103.13
07.296,98.71
07.312,92.29
07.328,85.05
07.343,78.22
07.359,72.87
07.375,69.64
07.390,68.64
07.406,69.56
07.421,71.73
07.437,74.34
07.453,76.64
07.468,78.02
07.484,78.11
07.500,76.88
07.515,74.54
07.531,71.53
07.546,68.25
07.562,65.04
07.578,62.07
07.593,59.4
07.609,57.23
07.625,56.12
07.640,57.18
07.656,61.83
07.671,71.36
07.687,86.24
07.703,105.62
07.718,127.2
07.734,147.68
07.750,163.63
07.765,172.55
07.781,173.57
07.796,167.62
07.812,157.08
07.828,145.06
07.843,134.44
07.859,127.13
07.875,123.43
07.890,121.79
07.906,119.06
07.921,111.27
07.937,94.87
07.953,68.15
07.968,32.12
07.984,-9.61
08.000,-51.81
08.015,-89.44
08.031,-118.95
08.046,-138.97
08.062,-149.91
08.078,-152.91
08.093,-148.79
08.109,-137.88
08.125,-120.31
08.140,-96.68
08.156,-68.57
08.171,-38.4
08.187,-9.17
08.203,15.95
08.218,33.74
08.234,41.11
08.250,35.51
08.265,15.92
08.281,-16.18
08.296,-56.28
08.312,-97.34
08.328,-131.56
08.343,-152.64
08.359,-157.76
08.375,-148.33
08.390,-128.96
08.406,-105.37
08.421,-82.13
08.437,-61.29
08.453,-42.42
08.468,-23.73
08.484,-3.57
08.500,18.65
08.515,42.38
08.531,66.59
08.546,90.46
08.562,113.7
08.578,136.04
08.593,156.56
08.609,173.28
08.625,183.49
08.640,184.71
08.656,175.73
08.671,157.1
08.687,130.82
08.703,99.59
08.718,65.83
08.734,31.09
08.750,-3.98
08.765,-39.3
08.781,-74.85
08.796,-110.37
08.812,-145.23
08.828,-178.57
08.843,-209.5
08.859,-237.16
08.875,-260.86
08.890,-279.92
08.906,-293.6
08.921,-300.94
08.937,-300.68
08.953,-291.41
08.968,-271.83
08.984,-241.48
09.000,-201.28
09.015,-153.89
09.031,-103.39
09.046,-54.4
09.062,-10.86
09.078,24.97
09.093,52.82
09.109,74.03
09.125,90.45
09.140,103.62
09.156,114.22
09.171,122.38
09.187,128.13
09.203,131.99
09.218,135.03
09.234,138.5
09.250,143.34
09.265,149.67
09.281,156.87
09.296,163.82
09.312,169.5
09.328,173.46
09.343,175.97
09.359,177.92
09.375,180.34
09.390,183.9
09.406,188.5
09.421,193.21
09.437,196.39
09.453,196.06
09.468,190.37
09.484,177.93
09.500,158.16
09.515,131.37
09.531,98.66
09.546,61.74
09.562,22.48
09.578,-17.54
09.593,-57.37
09.609,-96.79
09.625,-135.78
09.640,-173.57
09.656,-207.71
09.671,-233.77
09.687,-246.16
09.703,-239.68
09.718,-211.57
09.734,-162.84
09.750,-98.64
09.765,-27.43
09.781,40.87
09.796,96.96
09.812,134.16
09.828,149.69
09.843,144.9
09.859,124.52
09.875,94.86
09.890,61.76
09.906,28.99
09.921,-2.23
09.937,-32.52
09.953,-62.74
09.968,-92.7
09.984,-120.52
10.000,-143.13
10.015,-157.35
10.031,-160.88
10.046,-153.16
10.062,-135.47
10.078,-111.09
10.093,-84.85
10.109,-62.55
10.125,-49.92
10.140,-51.24
10.156,-68.3
10.171,-99.84
10.187,-141.9
10.203,-188.64
10.218,-233.62
10.234,-270.97
10.250,-296.4
10.265,-307.98
10.281,-306.27
10.296,-294.32
10.312,-276.8
10.328,-258.89
10.343,-244.88
10.359,-236.67
10.375,-233.05
10.390,-229.94
10.406,-221.72
10.421,-203.41
10.437,-172.93
10.453,-132.21
10.468,-86.91
10.484,-44.44
10.500,-11.19
10.515,9.67
10.531,19.06
10.546,20.87
10.562,20.0
10.578,20.26
10.593,23.54
10.609,30.06
10.625,39.14
10.640,50.0
10.656,61.8
10.671,73.33
10.687,82.71
10.703,87.74
10.718,86.59
10.734,78.77
10.750,65.54
10.765,49.44
10.781,33.51
10.796,20.2
10.812,10.82
10.828,5.48
10.843,3.45
10.859,3.64
10.875,4.98
10.890,6.62
10.906,7.95
10.921,8.74
10.937,9.05
10.953,9.05
10.968,8.86
10.984,8.37
11.000,7.12
11.015,4.58
11.031,0.27
11.046,-5.97
11.062,-13.77
11.078,-22.18
11.093,-29.67
11.109,-34.34
11.125,-34.3
11.140,-28.28
11.156,-16.0
11.171,1.52
11.187,22.27
11.203,43.87
11.218,64.33
11.234,82.53
11.250,98.36
11.265,112.31
11.281,124.94
11.296,136.51
11.312,146.88
11.328,155.68
11.343,162.6
11.359,167.58
11.375,170.92
11.390,173.16
11.406,174.95
11.421,176.94
11.437,179.58
11.453,183.09
11.468,187.35
11.484,192.1
11.500,196.88
11.515,201.3
11.531,205.1
11.546,208.09
11.562,210.18
11.578,211.27
11.593,211.2
11.609,209.69
11.625,206.45
11.640,201.13
11.656,193.46
11.671,183.33
11.687,171.06
11.703,157.58
11.718,144.47
11.734,133.71
11.750,126.98
11.765,124.71
11.781,125.49
11.796,126.04
11.812,122.01
11.828,109.36
11.843,85.66
11.859,50.9
11.875,7.38
11.890,-41.13
11.906,-90.65
11.921,-137.79
11.937,-180.14
11.953,-216.13
11.968,-244.75
11.984,-265.26
12.000,-277.37
12.015,-281.34
12.031,-278.25
12.046,-269.79
12.062,-257.87
12.078,-244.04
12.093,-229.24
12.109,-213.73
12.125,-197.42
12.140,-180.3
12.156,-162.71
12.171,-145.48
12.187,-129.53
12.203,-115.64
12.218,-104.08
12.234,-94.71
12.250,-87.08
12.265,-80.75
12.281,-75.54
12.296,-71.5
12.312,-68.91
12.328,-68.03
12.343,-69.02
12.359,-71.81
12.375,-76.19
12.390,-81.77
12.406,-88.21
12.421,-95.19
12.437,-102.31
12.453,-109.05
12.468,-114.74
12.484,-118.78
12.500,-120.75
12.515,-120.42
12.531,-117.49
12.546,-111.48
12.562,-101.74
12.578,-88.03
12.593,-71.3
12.609,-53.97
12.625,-39.55
12.640,-31.45
12.656,-31.61
12.671,-39.66
12.687,-53.17
12.703,-68.75
12.718,-83.35
12.734,-95.01
12.750,-102.8
12.765,-106.2
12.781,-104.54
12.796,-97.1
12.812,-83.66
12.828,-65.19
12.843,-44.09
12.859,-23.62
12.875,-6.9
12.890,4.15
12.906,9.41
12.921,10.3
12.937,9.05
12.953,7.74
12.968,7.71
12.984,9.33
13.000,12.43
13.015,16.59
13.031,21.39
13.046,26.23
13.062,30.3
13.078,32.58
13.093,32.21
13.109,29.12
13.125,24.36
13.140,19.95
13.156,18.34
13.171,21.46
13.187,30.06
13.203,43.56
13.218,60.35
13.234,78.44
13.250,96.0
13.265,111.66
13.281,124.57
13.296,134.3
13.312,140.75
13.328,144.2
13.343,145.27
13.359,144.88
13.375,144.02
13.390,143.47
13.406,143.58
13.421,144.23
13.437,144.97
13.453,145.28
13.468,144.77
13.484,143.16
13.500,140.23
13.515,135.68
13.531,129.14
13.546,120.28
13.562,109.05
13.578,95.76
13.593,81.06
13.609,65.75
13.625,50.53
13.640,35.85
13.656,21.93
13.671,8.83
13.687,-3.39
13.703,-14.55
13.718,-24.3
13.734,-32.02
13.750,-36.97
13.765,-38.44
13.781,-36.05
13.796,-30.0
13.812,-21.12
13.828,-10.75
13.843,-0.26
13.859,9.31
13.875,17.55
13.890,24.49
13.906,30.46
13.921,35.64
13.937,39.93
13.953,43.05
13.968,44.77
13.984,45.08
14.000,44.32
14.015,43.02
14.031,41.71
14.046,40.7
14.062,40.0
14.078,39.36
14.093,38.42
14.109,36.91
14.125,34.76
14.140,32.05
14.156,28.94
14.171,25.58
14.187,22.05
14.203,18.31
14.218,14.3
14.234,9.89
14.250,4.89
14.265,-0.83
14.281,-7.37
14.296,-14.6
14.312,-22.05
14.328,-28.9
14.343,-34.11
14.359,-36.65
14.375,-35.82
14.390,-31.46
14.406,-23.98
14.421,-14.28
14.437,-3.43
14.453,7.48
14.468,17.62
14.484,26.43
14.500,33.61
14.515,39.04
14.531,42.7
14.546,44.6
14.562,44.81
14.578,43.55
14.593,41.19
14.609,38.35
14.625,35.7
14.640,33.73
14.656,32.53
14.671,31.7
14.687,30.52
14.703,28.28
14.718,24.64
14.734,19.76
14.750,14.36
14.765,9.33
14.781,5.43
14.796,3.04
14.812,2.04
14.828,1.93
14.843,2.08
14.859,2.01
14.875,1.54
14.890,0.89
14.906,0.6
14.921,1.25
14.937,3.24
14.953,6.65
14.968,11.19
14.984,16.48
15.000,22.13
15.015,28.06
15.031,34.48
15.046,41.89
15.062,50.87
15.078,61.88
15.093,75.06
15.109,90.11
15.125,106.3
15.140,122.52
15.156,137.51
15.171,150.15
15.187,159.75
15.203,166.15
15.218,169.77
15.234,171.31
15.250,171.66
15.265,171.48
15.281,171.05
15.296,170.18
15.312,168.3
15.328,164.78
15.343,159.21
15.359,151.69
15.375,142.78
15.390,133.12
15.406,123.04
15.421,112.21
15.437,99.88
15.453,85.34
15.468,68.36
15.484,49.52
15.500,29.96
15.515,10.95
15.531,-6.65
15.546,-22.36
15.562,-36.02
15.578,-47.4
15.593,-56.05
15.609,-61.48
15.625,-63.39
15.640,-61.76
15.656,-56.66
15.671,-47.88
15.687,-34.81
15.703,-17.05
15.718,4.66
15.734,27.72
15.750,47.96
15.765,60.9
15.781,63.53
15.796,55.52
15.812,39.24
15.828,18.55
15.843,-2.93
15.859,-23.1
15.875,-41.47
15.890,-58.43
15.906,-74.2
15.921,-88.35
15.937,-99.98
15.953,-108.43
15.968,-113.72
15.984,-116.58
16.000,-117.95
16.015,-118.4
16.031,-117.99
16.046,-116.34
16.062,-113.01
16.078,-107.95
16.093,-101.7
16.109,-95.3
16.125,-89.92
16.140,-86.43
16.156,-85.13
16.171,-85.71
16.187,-87.58
16.203,-90.12
16.218,-93.02
16.234,-96.18
16.250,-99.47
16.265,-102.46
16.281,-104.3
16.296,-104.08
16.312,-101.14
16.328,-95.47
16.343,-87.61
16.359,-78.33
16.375,-68.22
16.390,-57.42
16.406,-45.75
16.421,-33.11
16.437,-19.86
16.453,-6.93
16.468,4.48
16.484,13.29
16.500,19.05
16.515,21.94
16.531,22.7
16.546,22.26
16.562,21.3
16.578,20.22
16.593,19.09
16.609,17.82
16.625,16.34
16.640,14.66
16.656,12.93
16.671,11.28
16.687,9.85
16.703,8.61
16.718,7.43
16.734,6.12
16.750,4.5
16.765,2.58
16.781,0.53
16.796,-1.37
16.812,-2.89
16.828,-3.91
16.843,-4.49
16.859,-4.82
16.875,-5.09
16.890,-5.55
16.906,-6.36
16.921,-7.63
16.937,-9.28
16.953,-11.1
16.968,-12.76
16.984,-13.92
17.000,-14.44
17.015,-14.49
17.031,-14.48
17.046,-14.71
17.062,-15.19
17.078,-15.57
17.093,-15.35
17.109,-14.17
17.125,-12.07
17.140,-9.32
17.156,-6.16
17.171,-2.59
17.187,1.78
17.203,7.33
17.218,14.1
17.234,21.47
17.250,28.33
17.265,33.47
17.281,36.12
17.296,36.2
17.312,34.26
17.328,31.14
17.343,27.58
17.359,23.89
17.375,20.01
17.390,15.71
17.406,10.79
17.421,5.28
17.437,-0.54
17.453,-6.26
17.468,-11.54
17.484,-16.28
17.500,-20.53
17.515,-24.43
17.531,-28.09
17.546,-31.46
17.562,-34.49
17.578,-37.28
17.593,-40.13
17.609,-43.42
17.625,-47.35
17.640,-51.55
17.656,-54.93
17.671,-55.99
17.687,-53.38
17.703,-46.45
17.718,-35.62
17.734,-22.24
17.750,-8.04
17.765,5.49
17.781,17.56
17.796,28.17
17.812,37.79
17.828,47.05
17.843,56.33
17.859,65.73
17.875,75.11
17.890,84.23
17.906,92.84
17.921,100.78
17.937,108.0
17.953,114.61
17.968,120.91
17.984,127.36
18.000,134.41
18.015,142.17
18.031,150.07
18.046,156.75
18.062,160.36
18.078,159.1
18.093,152.02
18.109,139.5
18.125,123.14
18.140,105.25
18.156,88.02
18.171,72.68
18.187,59.23
18.203,46.6
18.218,33.22
18.234,17.76
18.250,-0.34
18.265,-20.68
18.281,-42.01
18.296,-62.39
18.312,-79.72
18.328,-92.04
18.343,-98.02
18.359,-97.34
18.375,-90.71
18.390,-79.76
18.406,-66.57
18.421,-53.2
18.437,-41.31
18.453,-31.91
18.468,-25.49
18.484,-22.07
18.500,-21.4
18.515,-23.02
18.531,-26.28
18.546,-30.41
18.562,-34.81
18.578,-39.16
18.593,-43.54
18.609,-48.27
18.625,-53.55
18.640,-59.09
18.656,-63.98
18.671,-66.87
18.687,-66.42
18.703,-61.86
18.718,-53.27
18.734,-41.65
18.750,-28.55
18.765,-15.59
18.781,-3.99
18.796,5.75
18.812,13.8
18.828,20.73
18.843,26.96
18.859,32.41
18.875,36.26
18.890,37.14
18.906,33.6
18.921,24.73
18.937,10.73
18.953,-6.8
18.968,-24.91
18.984,-39.88
19.000,-48.02
19.015,-46.79
19.031,-35.8
19.046,-17.26
19.062,4.34
19.078,23.33
19.093,34.63
19.109,35.18
19.125,24.81
19.140,5.86
19.156,-17.98
19.171,-43.11
19.187,-66.96
19.203,-88.28
19.218,-106.67
19.234,-122.01
19.250,-134.13
19.265,-142.83
19.281,-148.23
19.296,-150.92
19.312,-151.83
19.328,-151.81
19.343,-151.19
19.359,-149.73
19.375,-146.8
19.390,-142.02
19.406,-135.7
19.421,-129.03
19.437,-123.78
19.453,-121.65
19.468,-123.49
19.484,-128.95
19.500,-136.48
19.515,-143.85
19.531,-148.99
19.546,-150.63
19.562,-148.61
19.578,-143.73
19.593,-137.07
19.609,-129.33
19.625,-120.42
19.640,-109.58
19.656,-95.81
19.671,-78.62
19.687,-58.35
19.703,-36.25
19.718,-14.03
19.734,6.59
19.750,24.31
19.765,38.44
19.781,48.73
19.796,55.33
19.812,58.53
19.828,58.81
19.843,56.71
19.859,52.85
19.875,47.82
19.890,42.08
19.906,35.9
19.921,29.38
19.937,22.57
19.953,15.48
19.968,8.21
19.984,0.85
20.000,-6.52
20.015,-13.93
20.031,-21.48
20.046,-29.33
20.062,-37.57
20.078,-46.18
20.093,-55.07
20.109,-64.05
20.125,-73.02
20.140,-81.87
20.156,-90.46
20.171,-98.54
20.187,-105.82
20.203,-112.06
20.218,-117.36
20.234,-122.09
20.250,-126.71
20.265,-131.39
20.281,-135.66
20.296,-138.37
20.312,-137.98
20.328,-133.09
20.343,-122.97
20.359,-107.83
20.375,-88.77
20.390,-67.38
20.406,-45.32
20.421,-23.98
20.437,-4.27
20.453,13.27
20.468,28.46
20.484,41.21
20.500,51.49
20.515,59.33
20.531,64.88
20.546,68.51
20.562,70.71
20.578,72.01
20.593,72.76
20.609,73.15
20.625,73.03
20.640,72.16
20.656,70.23
20.671,67.01
20.687,62.4
20.703,56.44
20.718,49.32
20.734,41.4
20.750,33.19
20.765,25.19
20.781,17.69
20.796,10.66
20.812,3.79
20.828,-3.4
20.843,-11.27
20.859,-19.96
20.875,-29.34
20.890,-39.03
20.906,-48.39
20.921,-56.49
20.937,-62.12
20.953,-63.98
20.968,-60.95
20.984,-52.56
21.000,-39.16
21.015,-21.95
21.031,-2.7
21.046,16.78
21.062,35.01
21.078,51.01
21.093,64.28
21.109,74.71
21.125,82.32
21.140,87.2
21.156,89.46
21.171,89.2
21.187,86.69
21.203,82.38
21.218,76.88
21.234,70.87
21.250,65.05
21.265,59.85
21.281,55.43
21.296,51.66
21.312,48.23
21.328,44.8
21.343,40.99
21.359,36.51
21.375,31.11
21.390,24.73
21.406,17.42
21.421,9.46
21.437,1.2
21.453,-7.02
21.468,-15.05
21.484,-22.97
21.500,-31.03
21.515,-39.42
21.531,-48.1
21.546,-56.67
21.562,-64.26
21.578,-69.69
21.593,-71.68
21.609,-69.14
21.625,-61.49
21.640,-48.86
21.656,-32.11
21.671,-12.67
21.687,7.82
21.703,27.9
21.718,46.5
21.734,62.97
21.750,76.95
21.765,88.24
21.781,96.59
21.796,101.88
21.812,104.23
21.828,104.11
21.843,102.29
21.859,99.58
21.875,96.57
21.890,93.5
21.906,90.29
21.921,86.81
21.937,82.98
21.953,78.99
21.968,75.12
21.984,71.54
22.000,68.18
22.015,64.77
22.031,60.88
22.046,56.19
22.062,50.6
22.078,44.29
22.093,37.6
22.109,30.97
22.125,24.73
22.140,19.03
22.156,13.82
22.171,8.78
22.187,3.54
22.203,-2.2
22.218,-8.44
22.234,-14.8
22.250,-20.56
22.265,-24.76
22.281,-26.46
22.296,-24.94
22.312,-19.92
22.328,-11.69
22.343,-1.03
22.359,10.88
22.375,22.78
22.390,33.61
22.406,42.65
22.421,49.58
22.437,54.44
22.453,57.34
22.468,58.44
22.484,57.86
22.500,55.72
22.515,52.31
22.531,48.06
22.546,43.42
22.562,38.79
22.578,34.46
22.593,30.54
22.609,27.12
22.625,24.23
22.640,21.91
22.656,20.15
22.671,18.8
22.687,17.58
22.703,16.11
22.718,14.04
22.734,11.2
22.750,7.6
22.765,3.43
22.781,-1.05
22.796,-5.56
22.812,-10.01
22.828,-14.41
22.843,-18.98
22.859,-23.99
22.875,-29.63
22.890,-35.82
22.906,-42.06
22.921,-47.39
22.937,-50.56
22.953,-50.38
22.968,-46.02
22.984,-37.36
23.000,-25.02
23.015,-10.21
23.031,5.56
23.046,20.89
23.062,34.64
23.078,46.09
23.093,54.96
23.109,61.18
23.125,64.92
23.140,66.46
23.156,66.14
23.171,64.36
23.187,61.53
23.203,58.01
23.218,54.07
23.234,49.88
23.250,45.6
23.265,41.37
23.281,37.4
23.296,33.92
23.312,31.05
23.328,28.73
23.343,26.75
23.359,24.71
23.375,22.25
23.390,19.14
23.406,15.28
23.421,10.77
23.437,5.73
23.453,0.28
23.468,-5.46
23.484,-11.38
23.500,-17.4
23.515,-23.49
23.531,-29.67
23.546,-36.01
23.562,-42.42
23.578,-48.51
23.593,-53.52
23.609,-56.36
23.625,-55.95
23.640,-51.63
23.656,-43.4
23.671,-32.04
23.687,-18.93
23.703,-5.56
23.718,6.8
23.734,17.36
23.750,25.86
23.765,32.35
23.781,37.02
23.796,40.01
23.812,41.44
23.828,41.41
23.843,40.2
23.859,38.19
23.875,35.81
23.890,33.43
23.906,31.12
23.921,28.74
23.937,26.05
23.953,22.94
23.968,19.53
23.984,16.22
24.000,13.42
24.015,11.29
24.031,9.69
24.046,8.15
24.062,6.11
24.078,3.28
24.093,-0.28
24.109,-4.21
24.125,-8.0
24.140,-11.35
24.156,-14.33
24.171,-17.29
24.187,-20.74
24.203,-25.05
24.218,-30.29
24.234,-36.13
24.250,-41.86
24.265,-46.53
24.281,-49.11
24.296,-48.7
24.312,-44.71
24.328,-37.07
24.343,-26.33
24.359,-13.58
24.375,-0.28
24.390,12.16
24.406,22.67
24.421,30.7
24.437,36.25
24.453,39.68
24.468,41.47
24.484,42.02
24.500,41.68
24.515,40.75
24.531,39.47
24.546,38.14
24.562,36.97
24.578,36.05
24.593,35.35
24.609,34.75
24.625,34.16
24.640,33.64
24.656,33.37
24.671,33.54
24.687,34.31
24.703,35.59
24.718,37.09
24.734,38.38
24.750,39.05
24.765,38.84
24.781,37.77
24.796,36.06
24.812,34.06
24.828,32.15
24.843,30.61
24.859,29.58
24.875,29.15
24.890,29.22
24.906,29.68
24.921,30.32
24.937,30.87
24.953,31.06
24.968,30.65
24.984,29.47
25.000,27.44
25.015,24.77
25.031,21.78
25.046,18.95
25.062,16.73
25.078,15.36
25.093,14.8
25.109,14.72
25.125,14.63
25.140,13.98
25.156,12.49
25.171,9.99
25.187,6.55
25.203,2.35
25.218,-2.4
25.234,-7.41
25.250,-12.47
25.265,-17.3
25.281,-21.72
25.296,-25.6
25.312,-28.96
25.328,-31.93
25.343,-34.72
25.359,-37.59
25.375,-40.66
25.390,-43.92
25.406,-47.2
25.421,-50.22
25.437,-52.75
25.453,-54.74
25.468,-56.32
25.484,-57.8
25.500,-59.58
25.515,-61.97
25.531,-65.06
25.546,-68.64
25.562,-72.15
25.578,-74.71
25.593,-75.31
25.609,-73.04
25.625,-67.43
25.640,-58.6
25.656,-47.25
25.671,-34.51
25.687,-21.62
25.703,-9.74
25.718,0.3
25.734,8.02
25.750,13.26
25.765,16.17
25.781,17.13
25.796,16.72
25.812,15.47
25.828,13.84
25.843,12.03
25.859,10.11
25.875,8.04
25.890,5.89
25.906,3.77
25.921,1.78
25.937,-0.01
25.953,-1.71
25.968,-3.5
25.984,-5.54
26.000,-7.83
26.015,-10.22
26.031,-12.44
26.046,-14.3
26.062,-15.8
26.078,-17.11
26.093,-18.55
26.109,-20.44
26.125,-23.01
26.140,-26.33
26.156,-30.39
26.171,-34.94
26.187,-39.57
26.203,-43.65
26.218,-46.45
26.234,-47.17
26.250,-45.23
26.265,-40.38
26.281,-32.89
26.296,-23.44
26.312,-13.02
26.328,-2.73
26.343,6.43
26.359,13.75
26.375,18.94
26.390,22.09
26.406,23.53
26.421,23.68
26.437,22.85
26.453,21.23
26.468,18.94
26.484,16.13
26.500,13.09
26.515,10.2
26.531,7.78
26.546,5.93
26.562,4.4
26.578,2.79
26.593,0.71
26.609,-1.98
26.625,-5.14
26.640,-8.39
26.656,-11.33
26.671,-13.76
26.687,-15.73
26.703,-17.51
26.718,-19.5
26.734,-22.05
26.750,-25.3
26.765,-29.28
26.781,-33.83
26.796,-38.58
26.812,-42.92
26.828,-46.09
26.843,-47.23
26.859,-45.67
26.875,-41.14
26.890,-33.83
26.906,-24.44
26.921,-14.0
26.937,-3.62
26.953,5.79
26.968,13.61
26.984,19.59
27.000,23.73
27.015,26.2
27.031,27.28
27.046,27.23
27.062,26.37
27.078,24.93
27.093,23.1
27.109,20.96
27.125,18.6
27.140,16.06
27.156,13.42
27.171,10.75
27.187,8.17
27.203,5.74
27.218,3.54
27.234,1.57
27.250,-0.24
27.265,-2.0
27.281,-3.88
27.296,-6.05
27.312,-8.65
27.328,-11.81
27.343,-15.63
27.359,-20.14
27.375,-25.32
27.390,-31.04
27.406,-36.89
27.421,-42.24
27.437,-46.21
27.453,-47.89
27.468,-46.54
27.484,-41.87
27.500,-34.12
27.515,-24.0
27.531,-12.56
27.546,-0.9
27.562,10.0
27.578,19.42
27.593,26.96
27.609,32.49
27.625,36.09
27.640,37.98
27.656,38.48
27.671,37.8
27.687,36.15
27.703,33.67
27.718,30.53
27.734,26.98
27.750,23.3
27.765,19.76
27.781,16.49
27.796,13.49
27.812,10.6
27.828,7.71
27.843,4.67
27.859,1.5
27.875,-1.76
27.890,-5.01
27.906,-8.2
27.921,-11.33
27.937,-14.5
27.953,-17.9
27.968,-21.77
27.984,-26.33
28.000,-31.69
28.015,-37.69
28.031,-43.77
28.046,-48.99
28.062,-52.18
28.078,-52.26
28.093,-48.54
28.109,-41.01
28.125,-30.38
28.140,-17.9
28.156,-5.04
28.171,7.0
28.187,17.49
28.203,26.24
28.218,33.41
28.234,39.24
28.250,43.79
28.265,46.98
28.281,48.56
28.296,48.36
28.312,46.5
28.328,43.36
28.343,39.57
28.359,35.74
28.375,32.29
28.390,29.36
28.406,26.86
28.421,24.58
28.437,22.29
28.453,19.87
28.468,17.24
28.484,14.34
28.500,11.07
28.515,7.34
28.531,3.15
28.546,-1.41
28.562,-6.15
28.578,-10.91
28.593,-15.59
28.609,-20.33
28.625,-25.41
28.640,-31.01
28.656,-37.1
28.671,-43.16
28.687,-48.25
28.703,-51.18
28.718,-50.82
28.734,-46.51
28.750,-38.33
28.765,-27.04
28.781,-13.92
28.796,-0.46
28.812,12.14
28.828,23.01
28.843,31.76
28.859,38.34
28.875,42.88
28.890,45.54
28.906,46.5
28.921,45.99
28.937,44.25
28.953,41.6
28.968,38.36
28.984,34.83
29.000,31.23
29.015,27.7
29.031,24.27
29.046,20.96
29.062,17.76
29.078,14.66
29.093,11.7
29.109,8.96
29.125,6.48
29.140,4.32
29.156,2.36
29.171,0.39
29.187,-1.87
29.203,-4.74
29.218,-8.46
29.234,-13.11
29.250,-18.58
29.265,-24.46
29.281,-30.02
29.296,-34.3
29.312,-36.2
29.328,-34.8
29.343,-29.67
29.359,-21.11
29.375,-10.08
29.390,2.01
29.406,13.72
29.421,24.0
29.437,32.3
29.453,38.57
29.468,43.03
29.484,45.92
29.500,47.4
29.515,47.57
29.531,46.53
29.546,44.52
29.562,41.89
29.578,39.04
29.593,36.25
29.609,33.66
29.625,31.26
29.640,28.98
29.656,26.72
29.671,24.39
29.687,21.91
29.703,19.24
29.718,16.39
29.734,13.38
29.750,10.3
29.765,7.28
29.781,4.4
29.796,1.67
29.812,-1.01
29.828,-3.85
29.843,-7.11
29.859,-11.0
29.875,-15.5
29.890,-20.29
29.906,-24.71
29.921,-27.85
29.937,-28.84
29.953,-27.13
29.968,-22.64
29.984,-15.82
30.000,-7.48
30.015,1.41
30.031,9.92
30.046,17.35
30.062,23.22
30.078,27.37
30.093,29.78
30.109,30.63
30.125,30.14
30.140,28.55
30.156,26.14
30.171,23.16
30.187,19.94
30.203,16.75
30.218,13.87
30.234,11.47
30.250,9.62
30.265,8.22
30.281,7.09
30.296,5.97
30.312,4.59
30.328,2.71
30.343,0.1
30.359,-3.29
30.375,-7.34
30.390,-11.74
30.406,-16.09
30.421,-20.08
30.437,-23.58
30.453,-26.74
30.468,-29.85
30.484,-33.24
30.500,-37.09
30.515,-41.29
30.531,-45.4
30.546,-48.69
30.562,-50.39
30.578,-49.75
30.593,-46.3
30.609,-39.92
30.625,-30.84
30.640,-19.67
30.656,-7.2
30.671,5.67
30.687,18.08
30.703,29.37
30.718,39.1
30.734,47.1
30.750,53.4
30.765,58.17
30.781,61.66
30.796,64.21
30.812,66.21
30.828,68.18
30.843,70.68
30.859,74.16
30.875,78.77
30.890,84.23
30.906,90.0
30.921,95.34
30.937,99.74
30.953,103.07
30.968,105.65
30.984,108.09
31.000,110.92
31.015,114.35
31.031,118.03
31.046,121.16
31.062,122.53
31.078,120.92
31.093,115.36
31.109,105.44
31.125,91.51
31.140,74.64
31.156,56.33
31.171,37.91
31.187,20.1
31.203,2.84
31.218,-14.42
31.234,-32.1
31.250,-49.93
31.265,-66.69
31.281,-80.51
31.296,-89.49
31.312,-92.5
31.328,-89.48
31.343,-81.42
31.359,-69.9
31.375,-56.52
31.390,-42.67
31.406,-29.4
31.421,-17.54
31.437,-7.85
31.453,-0.99
31.468,2.66
31.484,3.17
31.500,1.16
31.515,-2.23
31.531,-5.65
31.546,-7.81
31.562,-7.76
31.578,-5.11
31.593,-0.03
31.609,6.7
31.625,13.87
31.640,20.0
31.656,23.77
31.671,24.28
31.687,21.37
31.703,15.64
31.718,8.13
31.734,0.07
31.750,-7.55
31.765,-14.03
31.781,-19.04
31.796,-22.37
31.812,-23.85
31.828,-23.34
31.843,-20.91
31.859,-16.9
31.875,-11.93
31.890,-6.74
31.906,-1.91
31.921,2.31
31.937,6.08
31.953,9.96
31.968,14.7
31.984,21.01
32.000,29.29
32.015,39.47
32.031,50.92
32.046,62.56
32.062,73.14
32.078,81.62
32.093,87.55
32.109,91.17
32.125,93.37
32.140,95.19
32.156,97.44
32.171,100.25
32.187,103.04
32.203,104.73
32.218,104.1
32.234,100.15
32.250,92.35
32.265,80.96
32.281,66.97
32.296,52.03
32.312,38.06
32.328,26.92
32.343,19.77
32.359,16.82
32.375,17.12
32.390,18.85
32.406,19.73
32.421,17.66
32.437,11.15
32.453,-0.35
32.468,-16.34
32.484,-35.45
32.500,-55.6
32.515,-74.47
32.531,-89.87
32.546,-100.18
32.562,-104.63
32.578,-103.44
32.593,-97.74
32.609,-89.44
32.625,-80.76
32.640,-73.82
32.656,-70.1
32.671,-70.02
32.687,-72.74
32.703,-76.32
32.718,-78.31
32.734,-76.61
32.750,-70.4
32.765,-60.75
32.781,-50.45
32.796,-43.26
32.812,-42.51
32.828,-49.84
32.843,-64.56
32.859,-83.8
32.875,-103.53
32.890,-119.84
32.906,-130.01
32.921,-133.04
32.937,-129.48
32.953,-120.89
32.968,-109.26
32.984,-96.66
33.000,-84.96
33.015,-75.89
33.031,-70.91
33.046,-70.93
33.062,-76.14
33.078,-85.7
33.093,-97.86
33.109,-110.18
33.125,-120.18
33.140,-125.82
33.156,-126.12
33.171,-121.35
33.187,-112.93
33.203,-102.88
33.218,-93.18
33.234,-85.13
33.250,-79.04
33.265,-74.34
33.281,-69.94
33.296,-64.95
33.312,-59.15
33.328,-53.43
33.343,-49.76
33.359,-50.7
33.375,-58.46
33.390,-74.02
33.406,-96.35
33.421,-122.45
33.437,-147.98
33.453,-168.4
33.468,-180.16
33.484,-181.38
33.500,-172.07
33.515,-153.6
33.531,-128.11
33.546,-97.98
33.562,-65.49
33.578,-32.8
33.593,-1.75
33.609,26.34
33.625,50.87
33.640,72.15
33.656,91.29
33.671,109.63
33.687,128.09
33.703,146.5
33.718,163.21
33.734,175.5
33.750,180.46
33.765,176.18
33.781,162.68
33.796,142.05
33.812,117.83
33.828,93.87
33.843,73.19
33.859,57.34
33.875,46.55
33.890,40.2
33.906,37.38
33.921,37.37
33.937,39.62
33.953,43.89
33.968,50.03
33.984,57.9
34.000,67.0
34.015,76.14
34.031,83.31
34.046,86.01
34.062,82.0
34.078,70.29
34.093,51.67
34.109,28.58
34.125,4.28
34.140,-18.06
34.156,-36.07
34.171,-48.41
34.187,-54.82
34.203,-55.97
34.218,-53.4
34.234,-49.22
34.250,-45.56
34.265,-43.77
34.281,-43.93
34.296,-44.74
34.312,-44.11
34.328,-39.97
34.343,-30.82
34.359,-16.07
34.375,4.12
34.390,28.84
34.406,56.36
34.421,83.94
34.437,107.9
34.453,124.43
34.468,130.72
34.484,125.9
34.500,111.35
34.515,90.26
34.531,66.61
34.546,44.09
34.562,25.32
34.578,11.42
34.593,1.99
34.609,-4.53
34.625,-10.36
34.640,-17.48
34.656,-26.84
34.671,-38.08
34.687,-49.59
34.703,-59.39
34.718,-66.15
34.734,-70.04
34.750,-72.71
34.765,-76.65
34.781,-83.95
34.796,-95.37
34.812,-110.18
34.828,-126.68
34.843,-143.0
34.859,-157.75
34.875,-170.17
34.890,-179.87
34.906,-186.56
34.921,-189.99
34.937,-190.31
34.953,-188.32
34.968,-185.61
34.984,-183.99
35.000,-184.92
35.015,-188.73
35.031,-194.55
35.046,-200.55
35.062,-204.86
35.078,-206.06
35.093,-203.66
35.109,-197.96
35.125,-189.98
35.140,-181.05
35.156,-172.53
35.171,-165.64
35.187,-161.24
35.203,-159.65
35.218,-160.5
35.234,-162.8
35.250,-165.15
35.265,-166.21
35.281,-165.17
35.296,-161.91
35.312,-156.88
35.328,-150.7
35.343,-143.58
35.359,-135.09
35.375,-124.23
35.390,-109.87
35.406,-91.28
35.421,-68.5
35.437,-42.48
35.453,-14.8
35.468,12.73
35.484,38.5
35.500,61.39
35.515,80.85
35.531,96.78
35.546,109.35
35.562,118.82
35.578,125.36
35.593,129.14
35.609,130.41
35.625,129.63
35.640,127.43
35.656,124.58
35.671,121.6
35.687,118.69
35.703,115.68
35.718,112.16
35.734,107.81
35.750,102.47
35.765,96.19
35.781,89.08
35.796,81.18
35.812,72.38
35.828,62.58
35.843,51.83
35.859,40.36
35.875,28.59
35.890,16.98
35.906,5.86
35.921,-4.57
35.937,-14.3
35.953,-23.52
35.968,-32.55
35.984,-41.8
36.000,-51.57
36.015,-61.58
36.031,-70.85
36.046,-77.71
36.062,-80.2
36.078,-76.79
36.093,-66.92
36.109,-51.26
36.125,-31.47
36.140,-9.66
36.156,12.3
36.171,33.05
36.187,51.91
36.203,68.62
36.218,83.22
36.234,95.91
36.250,107.07
36.265,117.14
36.281,126.6
36.296,135.8
36.312,144.84
36.328,153.62
36.343,161.95
36.359,169.77
36.375,177.2
36.390,184.47
36.406,191.72
36.421,198.88
36.437,205.63
36.453,211.54
36.468,216.29
36.484,219.82
36.500,222.29
36.515,224.15
36.531,225.81
36.546,227.62
36.562,229.58
36.578,231.16
36.593,231.22
36.609,228.13
36.625,220.18
36.640,206.25
36.656,186.57
36.671,163.06
36.687,139.25
36.703,119.31
36.718,106.98
36.734,104.28
36.750,110.95
36.765,124.44
36.781,140.76
36.796,155.75
36.812,166.13
36.828,170.18
36.843,167.71
36.859,159.81
36.875,148.39
36.890,135.85
36.906,124.57
36.921,116.38
36.937,111.7
36.953,108.99
36.968,104.79
36.984,94.62
37.000,74.58
37.015,43.0
37.031,1.2
37.046,-46.79
37.062,-95.57
37.078,-139.88
37.093,-175.91
37.109,-201.72
37.125,-217.3
37.140,-223.93
37.156,-223.74
37.171,-218.97
37.187,-211.46
37.203,-202.04
37.218,-190.32
37.234,-175.18
37.250,-155.67
37.265,-132.26
37.281,-107.45
37.296,-85.48
37.312,-71.03
37.328,-67.56
37.343,-75.99
37.359,-94.4
37.375,-118.66
37.390,-143.81
37.406,-165.51
37.421,-180.89
37.437,-188.88
37.453,-189.8
37.468,-184.79
37.484,-175.21
37.500,-162.23
37.515,-146.81
37.531,-129.62
37.546,-111.32
37.562,-92.73
37.578,-74.91
37.593,-58.95
37.609,-45.7
37.625,-35.36
37.640,-27.46
37.656,-21.07
37.671,-15.31
37.687,-9.78
37.703,-4.68
37.718,-0.54
37.734,2.22
37.750,3.73
37.765,4.65
37.781,5.74
37.796,7.37
37.812,9.15
37.828,9.99
37.843,8.65
37.859,4.31
37.875,-2.95
37.890,-12.21
37.906,-22.07
37.921,-31.26
37.937,-39.04
37.953,-45.13
37.968,-49.59
37.984,-52.43
38.000,-53.62
38.015,-53.28
38.031,-51.85
38.046,-50.09
38.062,-48.71
38.078,-47.89
38.093,-46.88
38.109,-44.28
38.125,-38.53
38.140,-28.63
38.156,-14.64
38.171,2.37
38.187,20.82
38.203,39.09
38.218,56.05
38.234,71.03
38.250,83.58
38.265,93.35
38.281,99.92
38.296,102.93
38.312,102.32
38.328,98.44
38.343,91.94
38.359,83.68
38.375,74.47
38.390,64.86
38.406,55.17
38.421,45.55
38.437,36.2
38.453,27.47
38.468,19.92
38.484,14.1
38.500,10.36
38.515,8.69
38.531,8.66
38.546,9.58
38.562,10.7
38.578,11.38
38.593,11.27
38.609,10.24
38.625,8.3
38.640,5.54
38.656,2.05
38.671,-2.11
38.687,-6.83
38.703,-12.11
38.718,-18.01
38.734,-24.6
38.750,-32.01
38.765,-40.04
38.781,-48.04
38.796,-54.78
38.812,-58.66
38.828,-58.05
38.843,-51.91
38.859,-40.15
38.875,-23.72
38.890,-4.47
38.906,15.44
38.921,34.13
38.937,50.3
38.953,63.43
38.968,73.53
38.984,80.84
39.000,85.67
39.015,88.26
39.031,88.83
39.046,87.71
39.062,85.42
39.078,82.53
39.093,79.6
39.109,76.94
39.125,74.53
39.140,72.17
39.156,69.61
39.171,66.75
39.187,63.69
39.203,60.62
39.218,57.62
39.234,54.52
39.250,50.93
39.265,46.32
39.281,40.27
39.296,32.69
39.312,23.96
39.328,14.77
39.343,6.03
39.359,-1.53
39.375,-7.45
39.390,-11.68
39.406,-14.57
39.421,-16.68
39.437,-18.7
39.453,-21.23
39.468,-24.61
39.484,-28.78
39.500,-33.11
39.515,-36.44
39.531,-37.24
39.546,-34.08
39.562,-26.05
39.578,-13.26
39.593,3.27
39.609,21.78
39.625,40.34
39.640,57.39
39.656,71.97
39.671,83.77
39.687,92.89
39.703,99.47
39.718,103.56
39.734,105.07
39.750,103.99
39.765,100.54
39.781,95.24
39.796,88.83
39.812,82.11
39.828,75.63
39.843,69.65
39.859,64.2
39.875,59.22
39.890,54.78
39.906,51.05
39.921,48.26
39.937,46.47
39.953,45.53
39.968,45.11
39.984,44.84
40.000,44.47
40.015,43.91
40.031,43.25
40.046,42.62
40.062,42.18
40.078,42.02
40.093,42.1
40.109,42.35
40.125,42.56
40.140,42.42
40.156,41.51
40.171,39.44
40.187,35.85
40.203,30.68
40.218,24.24
40.234,17.43
40.250,11.76
40.265,9.09
40.281,11.15
40.296,18.92
40.312,32.21
40.328,49.48
40.343,68.31
40.359,85.97
40.375,100.25
40.390,109.98
40.406,115.07
40.421,116.48
40.437,115.92
40.453,115.54
40.468,117.49
40.484,123.38
40.500,133.55
40.515,146.63
40.531,159.57
40.546,168.41
40.562,169.55
40.578,161.09
40.593,143.56
40.609,119.71
40.625,93.51
40.640,68.71
40.656,47.63
40.671,30.75
40.687,16.86
40.703,3.77
40.718,-10.92
40.734,-29.2
40.750,-52.21
40.765,-80.07
40.781,-111.92
40.796,-146.15
40.812,-180.77
40.828,-213.84
40.843,-243.83
40.859,-269.84
40.875,-291.45
40.890,-308.49
40.906,-320.77
40.921,-328.02
40.937,-329.96
40.953,-326.36
40.968,-316.99
40.984,-301.42
41.000,-278.88
41.015,-248.52
41.031,-210.19
41.046,-165.21
41.062,-116.91
41.078,-70.27
41.093,-30.73
41.109,-2.48
41.125,12.91
41.140,16.88
41.156,13.28
41.171,6.79
41.187,1.52
41.203,0.15
41.218,3.7
41.234,11.98
41.250,24.13
41.265,39.07
41.281,55.72
41.296,73.24
41.312,91.14
41.328,109.41
41.343,128.33
41.359,147.88
41.375,167.11
41.390,183.63
41.406,193.98
41.421,194.46
41.437,182.62
41.453,158.09
41.468,123.03
41.484,81.44
41.500,38.13
41.515,-2.43
41.531,-36.95
41.546,-63.64
41.562,-82.28
41.578,-94.02
41.593,-101.01
41.609,-105.91
41.625,-111.12
41.640,-118.05
41.656,-126.65
41.671,-135.29
41.687,-141.28
41.703,-141.66
41.718,-134.13
41.734,-117.81
41.750,-93.42
41.765,-63.14
41.781,-30.03
41.796,2.68
41.812,32.18
41.828,56.5
41.843,74.63
41.859,86.39
41.875,92.28
41.890,93.13
41.906,89.96
41.921,83.86
41.937,75.84
41.953,66.76
41.968,57.32
41.984,47.89
42.000,38.73
42.015,30.24
42.031,23.09
42.046,18.26
42.062,16.74
42.078,18.83
42.093,23.54
42.109,28.61
42.125,31.13
42.140,28.6
42.156,20.11
42.171,6.62
42.187,-9.3
42.203,-24.54
42.218,-36.56
42.234,-44.12
42.250,-47.28
42.265,-47.11
42.281,-45.07
42.296,-42.66
42.312,-41.33
42.328,-42.27
42.343,-46.22
42.359,-53.07
42.375,-61.81
42.390,-70.64
42.406,-77.64
42.421,-81.35
42.437,-81.27
42.453,-77.68
42.468,-71.3
42.484,-62.83
42.500,-52.77
42.515,-41.71
42.531,-30.6
42.546,-20.94
42.562,-14.35
42.578,-11.95
42.593,-13.69
42.609,-18.33
42.625,-23.88
42.640,-28.42
42.656,-30.76
42.671,-30.61
42.687,-28.36
42.703,-24.65
42.718,-20.01
42.734,-14.86
42.750,-9.7
42.765,-5.16
42.781,-1.98
42.796,-0.72
42.812,-1.38
42.828,-3.32
42.843,-5.36
42.859,-6.27
42.875,-5.23
42.890,-2.17
42.906,2.12
42.921,6.31
42.937,8.76
42.953,7.96
42.968,2.72
42.984,-7.51
43.000,-22.19
43.015,-39.48
43.031,-56.25
43.046,-68.76
43.062,-73.82
43.078,-70.07
43.093,-58.54
43.109,-42.48
43.125,-26.1
43.140,-12.96
43.156,-4.86
43.171,-1.49
43.187,-1.05
43.203,-1.25
43.218,-0.19
43.234,3.18
43.250,9.11
43.265,17.03
43.281,25.87
43.296,34.06
43.312,39.9
43.328,41.95
43.343,39.55
43.359,32.87
43.375,22.91
43.390,11.12
43.406,-1.14
43.421,-12.81
43.437,-23.38
43.453,-32.8
43.468,-41.35
43.484,-49.3
43.500,-56.47
43.515,-61.84
43.531,-63.66
43.546,-59.97
43.562,-49.78
43.578,-34.1
43.593,-16.23
43.609,-0.97
43.625,7.02
43.640,4.96
43.656,-7.01
43.671,-26.01
43.687,-47.54
43.703,-66.91
43.718,-80.4
43.734,-85.87
43.750,-82.77
43.765,-71.96
43.781,-55.29
43.796,-35.19
43.812,-14.28
43.828,5.16
43.843,21.57
43.859,34.25
43.875,43.45
43.890,50.23
43.906,56.14
43.921,62.82
43.937,71.41
43.953,82.01
43.968,93.37
43.984,103.21
44.000,108.79
44.015,108.03
44.031,100.14
44.046,85.9
44.062,67.3
44.078,46.87
44.093,27.03
44.109,9.61
44.125,-4.54
44.140,-15.67
44.156,-25.21
44.171,-35.43
44.187,-48.75
44.203,-66.92
44.218,-90.26
44.234,-117.28
44.250,-145.03
44.265,-169.99
44.281,-189.16
44.296,-200.96
44.312,-205.75
44.328,-205.57
44.343,-203.29
44.359,-201.48
44.375,-201.27
44.390,-201.94
44.406,-201.23
44.421,-196.29
44.437,-185.01
44.453,-167.02
44.468,-143.82
44.484,-118.1
44.500,-92.61
44.515,-69.16
44.531,-48.44
44.546,-30.26
44.562,-14.21
44.578,-0.11
44.593,11.84
44.609,21.42
44.625,28.63
44.640,33.93
44.656,38.03
44.671,41.52
44.687,44.62
44.703,47.12
44.718,48.57
44.734,48.64
44.750,47.39
44.765,45.3
44.781,43.05
44.796,41.22
44.812,39.94
44.828,38.92
44.843,37.54
44.859,35.15
44.875,31.37
44.890,26.2
44.906,19.99
44.921,13.16
44.937,6.08
44.953,-1.18
44.968,-8.83
44.984,-17.2
45.000,-26.48
45.015,-36.4
45.031,-46.04
45.046,-53.89
45.062,-58.16
45.078,-57.31
45.093,-50.64
45.109,-38.57
45.125,-22.62
45.140,-4.94
45.156,12.45
45.171,28.11
45.187,41.51
45.203,52.79
45.218,62.38
45.234,70.57
45.250,77.32
45.265,82.42
45.281,85.57
45.296,86.75
45.312,86.09
45.328,83.98
45.343,80.91
45.359,77.37
45.375,73.84
45.390,70.67
45.406,68.18
45.421,66.36
45.437,65.02
45.453,63.66
45.468,61.63
45.484,58.31
45.500,53.29
45.515,46.41
45.531,37.9
45.546,28.27
45.562,18.11
45.578,8.06
45.593,-1.51
45.609,-10.57
45.625,-19.44
45.640,-28.55
45.656,-38.3
45.671,-48.64
45.687,-58.9
45.703,-67.81
45.718,-73.65
45.734,-74.79
45.750,-70.23
45.765,-59.9
45.781,-44.84
45.796,-26.83
45.812,-8.0
45.828,9.81
45.843,25.3
45.859,37.88
45.875,47.43
45.890,54.09
45.906,58.12
45.921,59.74
45.937,59.31
45.953,57.31
45.968,54.31
45.984,50.86
46.000,47.35
46.015,44.06
46.031,41.12
46.046,38.71
46.062,36.97
46.078,36.06
46.093,36.01
46.109,36.68
46.125,37.7
46.140,38.69
46.156,39.31
46.171,39.37
46.187,38.99
46.203,38.47
46.218,38.26
46.234,38.74
46.250,40.08
46.265,42.08
46.281,44.02
46.296,44.88
46.312,43.57
46.328,39.53
46.343,33.16
46.359,26.0
46.375,20.46
46.390,19.16
46.406,24.13
46.421,36.07
46.437,54.06
46.453,75.73
46.468,98.02
46.484,118.1
46.500,134.04
46.515,145.11
46.531,151.65
46.546,154.56
46.562,154.74
46.578,152.82
46.593,149.13
46.609,143.97
46.625,137.96
46.640,132.2
46.656,128.07
46.671,126.98
46.687,129.73
46.703,136.23
46.718,145.33
46.734,155.05
46.750,163.06
46.765,167.14
46.781,165.57
46.796,157.37
46.812,142.57
46.828,122.32
46.843,98.9
46.859,75.23
46.875,53.93
46.890,36.15
46.906,20.84
46.921,5.06
46.937,-14.8
46.953,-41.43
46.968,-75.41
46.984,-115.0
47.000,-156.87
47.015,-197.3
47.031,-232.95
47.046,-261.16
47.062,-279.69
47.078,-286.85
47.093,-281.8
47.109,-265.23
47.125,-239.67
47.140,-209.12
47.156,-178.02
47.171,-150.03
47.187,-127.15
47.203,-109.58
47.218,-96.2
47.234,-85.34
47.250,-75.54
47.265,-66.03
47.281,-56.73
47.296,-48.14
47.312,-40.91
47.328,-35.37
47.343,-31.34
47.359,-27.99
47.375,-24.06
47.390,-18.2
47.406,-9.52
47.421,2.07
47.437,15.77
47.453,30.09
47.468,43.39
47.484,54.4
47.500,62.56
47.515,68.12
47.531,71.7
47.546,73.95
47.562,75.21
47.578,75.41
47.593,74.24
47.609,71.37
47.625,66.67
47.640,60.24
47.656,52.4
47.671,43.78
47.687,35.39
47.703,28.63
47.718,24.91
47.734,25.1
47.750,28.87
47.765,34.53
47.781,39.57
47.796,41.58
47.812,39.41
47.828,33.63
47.843,26.17
47.859,19.41
47.875,15.05
47.890,13.54
47.906,14.25
47.921,16.12
47.937,18.39
47.953,20.93
47.968,24.01
47.984,27.82
48.000,32.07
48.015,35.95
48.031,38.42
48.046,38.65
48.062,36.36
48.078,31.75
48.093,25.45
48.109,18.02
48.125,9.87
48.140,1.05
48.156,-8.59
48.171,-19.11
48.187,-30.27
48.203,-41.45
48.218,-51.76
48.234,-60.31
48.250,-66.63
48.265,-70.86
48.281,-73.76
48.296,-76.44
48.312,-79.88
48.328,-84.55
48.343,-90.2
48.359,-95.88
48.375,-100.11
48.390,-101.32
48.406,-98.16
48.421,-89.94
48.437,-76.83
48.453,-59.86
48.468,-40.71
48.484,-21.24
48.500,-3.1
48.515,12.62
48.531,25.36
48.546,35.03
48.562,41.78
48.578,45.88
48.593,47.67
48.609,47.59
48.625,46.26
48.640,44.26
48.656,42.08
48.671,39.9
48.687,37.63
48.703,35.04
48.718,31.86
48.734,27.97
48.750,23.47
48.765,18.63
48.781,13.81
48.796,9.31
48.812,5.24
48.828,1.47
48.843,-2.28
48.859,-6.37
48.875,-11.0
48.890,-16.05
48.906,-21.07
48.921,-25.44
48.937,-28.61
48.953,-30.4
48.968,-31.2
48.984,-31.79
49.000,-33.2
49.015,-36.27
49.031,-41.34
49.046,-48.02
49.062,-55.14
49.078,-60.96
49.093,-63.6
49.109,-61.64
49.125,-54.42
49.140,-42.4
49.156,-26.82
49.171,-9.4
49.187,8.14
49.203,24.47
49.218,38.72
49.234,50.46
49.250,59.56
49.265,66.02
49.281,69.97
49.296,71.67
49.312,71.48
49.328,69.91
49.343,67.52
49.359,64.82
49.375,62.21
49.390,59.9
49.406,57.91
49.421,56.21
49.437,54.77
49.453,53.66
49.468,52.93
49.484,52.61
49.500,52.51
49.515,52.28
49.531,51.51
49.546,49.99
49.562,47.84
49.578,45.41
49.593,43.23
49.609,41.66
49.625,40.81
49.640,40.34
49.656,39.69
49.671,38.14
49.687,35.17
49.703,30.65
49.718,24.9
49.734,18.59
49.750,12.48
49.765,7.16
49.781,2.81
49.796,-0.7
49.812,-3.74
49.828,-6.52
49.843,-9.0
49.859,-10.95
49.875,-12.11
49.890,-12.41
49.906,-12.02
49.921,-11.37
49.937,-10.86
49.953,-10.76
49.968,-11.19
49.984,-12.08
50.000,-13.39
50.015,-15.13
50.031,-17.35
50.046,-20.1
50.062,-23.29
50.078,-26.69
50.093,-29.92
50.109,-32.6
50.125,-34.44
50.140,-35.37
50.156,-35.6
50.171,-35.57
50.187,-35.8
50.203,-36.8
50.218,-38.9
50.234,-42.1
50.250,-46.18
50.265,-50.62
50.281,-54.84
50.296,-58.22
50.312,-60.33
50.328,-60.98
50.343,-60.38
50.359,-59.14
50.375,-58.19
50.390,-58.69
50.406,-61.52
50.421,-67.05
50.437,-74.78
50.453,-83.29
50.468,-90.55
50.484,-94.45
50.500,-93.31
50.515,-86.44
50.531,-74.27
50.546,-58.17
50.562,-40.07
50.578,-21.93
50.593,-5.38
50.609,8.49
50.625,19.13
50.640,26.49
50.656,30.85
50.671,32.66
50.687,32.64
50.703,31.53
50.718,30.1
50.734,28.95
50.750,28.35
50.765,28.21
50.781,28.24
50.796,28.09
50.812,27.58
50.828,26.82
50.843,26.09
50.859,25.72
50.875,25.92
50.890,26.62
50.906,27.54
50.921,28.33
50.937,28.74
50.953,28.65
50.968,28.15
50.984,27.38
51.000,26.47
51.015,25.37
51.031,23.79
51.046,21.26
51.062,17.26
51.078,11.45
51.093,3.84
51.109,-5.02
51.125,-14.2
51.140,-22.47
51.156,-28.77
51.171,-32.39
51.187,-33.1
51.203,-31.08
51.218,-26.78
51.234,-20.78
51.250,-13.58
51.265,-5.68
51.281,2.51
51.296,10.55
51.312,18.01
51.328,24.51
51.343,29.69
51.359,33.32
51.375,35.28
51.390,35.71
51.406,34.96
51.421,33.57
51.437,32.12
51.453,30.99
51.468,30.27
51.484,29.69
51.500,28.89
51.515,27.63
51.531,25.86
51.546,23.84
51.562,21.84
51.578,20.06
51.593,18.51
51.609,16.99
51.625,15.15
51.640,12.66
51.656,9.21
51.671,4.49
51.687,-1.64
51.703,-9.02
51.718,-17.03
51.734,-24.56
51.750,-30.2
51.765,-32.67
51.781,-31.12
51.796,-25.5
51.812,-16.39
51.828,-4.88
51.843,7.75
51.859,20.35
51.875,31.94
51.890,41.81
51.906,49.46
51.921,54.66
51.937,57.29
51.953,57.47
51.968,55.43
51.984,51.56
52.000,46.41
52.015,40.56
52.031,34.62
52.046,29.06
52.062,24.24
52.078,20.25
52.093,17.0
52.109,14.25
52.125,11.72
52.140,9.18
52.156,6.54
52.171,3.82
52.187,1.14
52.203,-1.45
52.218,-3.99
52.234,-6.62
52.250,-9.55
52.265,-12.99
52.281,-17.07
52.296,-22.0
52.312,-27.99
52.328,-35.09
52.343,-43.02
52.359,-50.83
52.375,-57.04
52.390,-59.9
52.406,-58.09
52.421,-51.19
52.437,-40.02
52.453,-26.23
52.468,-11.79
52.484,1.73
52.500,13.5
52.515,23.47
52.531,31.93
52.546,39.19
52.562,45.32
52.578,50.34
52.593,54.34
52.609,57.56
52.625,60.18
52.640,61.99
52.656,62.34
52.671,60.24
52.687,54.87
52.703,46.17
52.718,35.02
52.734,23.08
52.750,12.15
52.765,3.55
52.781,-2.26
52.796,-5.57
52.812,-7.15
52.828,-7.81
52.843,-8.15
52.859,-8.69
52.875,-9.98
52.890,-12.63
52.906,-17.28
52.921,-24.21
52.937,-33.13
52.953,-43.0
52.968,-52.19
52.984,-58.8
53.000,-61.29
53.015,-58.91
53.031,-51.9
53.046,-41.36
53.062,-28.81
53.078,-15.76
53.093,-3.37
53.109,7.68
53.125,17.05
53.140,24.47
53.156,29.74
53.171,32.67
53.187,33.07
53.203,30.84
53.218,25.99
53.234,18.53
53.250,8.59
53.265,-3.52
53.281,-17.27
53.296,-31.91
53.312,-46.65
53.328,-60.95
53.343,-74.56
53.359,-87.47
53.375,-99.65
53.390,-110.87
53.406,-120.64
53.421,-128.41
53.437,-133.79
53.453,-136.79
53.468,-137.81
53.484,-137.52
53.500,-136.54
53.515,-135.32
53.531,-134.09
53.546,-132.92
53.562,-131.68
53.578,-130.04
53.593,-127.35
53.609,-122.63
53.625,-114.79
53.640,-102.99
53.656,-87.02
53.671,-67.59
53.687,-46.14
53.703,-24.53
53.718,-4.43
53.734,13.03
53.750,27.46
53.765,39.04
53.781,48.24
53.796,55.47
53.812,60.96
53.828,64.78
53.843,66.93
53.859,67.52
53.875,66.82
53.890,65.21
53.906,63.1
53.921,60.77
53.937,58.36
53.953,55.82
53.968,53.01
53.984,49.78
54.000,46.0
54.015,41.64
54.031,36.79
54.046,31.58
54.062,26.22
54.078,20.83
54.093,15.48
54.109,10.11
54.125,4.59
54.140,-1.23
54.156,-7.4
54.171,-13.92
54.187,-20.63
54.203,-27.27
54.218,-33.3
54.234,-37.92
54.250,-40.07
54.265,-38.73
54.281,-33.21
54.296,-23.53
54.312,-10.54
54.328,4.28
54.343,19.23
54.359,32.89
54.375,44.43
54.390,53.63
54.406,60.65
54.421,65.72
54.437,68.96
54.453,70.41
54.468,70.16
54.484,68.51
54.500,65.9
54.515,62.87
54.531,59.83
54.546,56.96
54.562,54.22
54.578,51.48
54.593,48.65
54.609,45.74
54.625,42.8
54.640,39.84
54.656,36.79
54.671,33.44
54.687,29.64
54.703,25.24
54.718,20.23
54.734,14.76
54.750,9.02
54.765,3.24
54.781,-2.42
54.796,-7.87
54.812,-13.22
54.828,-18.69
54.843,-24.44
54.859,-30.4
54.875,-35.98
54.890,-40.14
54.906,-41.63
54.921,-39.4
54.937,-33.04
54.953,-22.91
54.968,-10.08
54.984,4.03
55.000,18.06
55.015,30.94
55.031,42.04
55.046,51.03
55.062,57.83
55.078,62.49
55.093,65.13
55.109,66.01
55.125,65.53
55.140,64.16
55.156,62.44
55.171,60.74
55.187,59.31
55.203,58.15
55.218,57.06
55.234,55.82
55.250,54.35
55.265,52.74
55.281,51.21
55.296,50.0
55.312,49.11
55.328,48.26
55.343,46.97
55.359,44.79
55.375,41.56
55.390,37.56
55.406,33.41
55.421,29.84
55.437,27.34
55.453,26.08
55.468,25.77
55.484,25.88
55.500,25.77
55.515,24.97
55.531,23.37
55.546,21.44
55.562,20.19
55.578,20.97
55.593,25.19
55.609,33.76
55.625,46.67
55.640,62.82
55.656,80.17
55.671,96.18
55.687,108.57
55.703,115.82
55.718,117.39
55.734,113.66
55.750,105.67
55.765,94.81
55.781,82.61
55.796,70.66
55.812,60.39
55.828,52.86
55.843,48.55
55.859,47.18
55.875,47.84
55.890,49.22
55.906,49.97
55.921,49.01
55.937,45.56
55.953,39.15
55.968,29.58
55.984,17.01
56.000,1.95
56.015,-14.6
56.031,-31.37
56.046,-47.08
56.062,-60.72
56.078,-71.77
56.093,-80.21
56.109,-86.28
56.125,-90.36
56.140,-92.85
56.156,-94.15
56.171,-94.8
56.187,-95.54
56.203,-97.14
56.218,-100.16
56.234,-104.64
56.250,-109.75
56.265,-113.97
56.281,-115.41
56.296,-112.4
56.312,-104.13
56.328,-90.89
56.343,-73.95
56.359,-55.07
56.375,-35.91
56.390,-17.55
56.406,-0.46
56.421,15.3
56.437,29.74
56.453,42.79
56.468,54.16
56.484,63.54
56.500,70.72
56.515,75.55
56.531,78.03
56.546,78.18
56.562,76.15
56.578,72.25
56.593,67.04
56.609,61.21
56.625,55.51
56.640,50.45
56.656,46.23
56.671,42.8
56.687,39.94
56.703,37.38
56.718,34.92
56.734,32.37
56.750,29.58
56.765,26.52
56.781,23.27
56.796,20.03
56.812,17.1
56.828,14.71
56.843,12.95
56.859,11.78
56.875,11.0
56.890,10.39
56.906,9.9
56.921,9.64
56.937,9.93
56.953,11.25
56.968,14.01
56.984,18.39
57.000,24.15
57.015,30.54
57.031,36.52
57.046,41.13
57.062,43.91
57.078,45.04
57.093,45.3
57.109,45.61
57.125,46.71
57.140,48.87
57.156,51.89
57.171,55.18
57.187,57.95
57.203,59.4
57.218,58.87
57.234,56.05
57.250,51.24
57.265,45.4
57.281,40.06
57.296,36.87
57.312,37.01
57.328,40.77
57.343,47.29
57.359,54.95
57.375,61.76
57.390,66.12
57.406,67.25
57.421,65.46
57.437,61.89
57.453,57.93
57.468,54.36
57.484,50.52
57.500,44.25
57.515,32.6
57.531,12.9
57.546,-15.9
57.562,-52.42
57.578,-93.02
57.593,-132.7
57.609,-166.63
57.625,-191.59
57.640,-206.81
57.656,-214.02
57.671,-216.49
57.687,-217.77
57.703,-220.42
57.718,-225.3
57.734,-231.56
57.750,-237.27
57.765,-240.21
57.781,-238.74
57.796,-232.2
57.812,-220.94
57.828,-205.99
57.843,-188.9
57.859,-171.42
57.875,-155.32
57.890,-142.01
57.906,-132.37
57.921,-126.45
57.937,-123.55
57.953,-122.38
57.968,-121.4
57.984,-119.17
58.000,-114.69
58.015,-107.67
58.031,-98.52
58.046,-88.32
58.062,-78.38
58.078,-69.94
58.093,-63.74
58.109,-59.96
58.125,-58.29
58.140,-58.22
58.156,-59.34
58.171,-61.37
58.187,-64.28
58.203,-68.08
58.218,-72.7
58.234,-77.84
58.250,-82.94
58.265,-87.09
58.281,-89.21
58.296,-88.27
58.312,-83.58
58.328,-75.09
58.343,-63.53
58.359,-50.15
58.375,-36.41
58.390,-23.5
58.406,-12.1
58.421,-2.31
58.437,6.06
58.453,13.21
58.468,19.17
58.484,23.78
58.500,26.98
58.515,28.84
58.531,29.69
58.546,29.99
58.562,30.16
58.578,30.44
58.593,30.87
58.609,31.38
58.625,31.87
58.640,32.35
58.656,32.79
58.671,33.18
58.687,33.33
58.703,32.92
58.718,31.59
58.734,29.07
58.750,25.38
58.765,20.8
58.781,15.78
58.796,10.75
58.812,6.04
58.828,1.7
58.843,-2.42
58.859,-6.68
58.875,-11.43
58.890,-16.84
58.906,-22.83
58.921,-28.88
58.937,-34.14
58.953,-37.52
58.968,-37.89
58.984,-34.41
59.000,-26.78
59.015,-15.28
59.031,-0.66
59.046,15.98
59.062,33.45
59.078,50.64
59.093,66.6
59.109,80.54
59.125,91.94
59.140,100.51
59.156,106.22
59.171,109.31
59.187,110.24
59.203,109.59
59.218,107.9
59.234,105.53
59.250,102.53
59.265,98.71
59.281,93.79
59.296,87.55
59.312,80.06
59.328,71.64
59.343,62.82
59.359,54.02
59.375,45.4
59.390,36.77
59.406,27.75
59.421,18.1
59.437,7.79
59.453,-2.86
59.468,-13.41
59.484,-23.49
59.500,-33.02
59.515,-42.18
59.531,-51.27
59.546,-60.41
59.562,-69.23
59.578,-76.77
59.593,-81.59
59.609,-82.07
59.625,-76.97
59.640,-65.85
59.656,-49.3
59.671,-28.83
59.687,-6.45
59.703,15.96
59.718,37.07
59.734,56.34
59.750,73.88
59.765,89.98
59.781,104.92
59.796,118.64
59.812,130.91
59.828,141.54
59.843,150.63
59.859,158.62
59.875,166.28
59.890,174.47
59.906,183.77
59.921,194.31
59.937,205.55
59.953,216.43
59.968,225.55
59.984,231.64
