timestamp,value
00.000,-106.52
00.015,-94.55
00.031,-77.21
00.046,-56.42
00.062,-34.43
00.078,-13.04
00.093,6.72
00.109,24.62
00.125,40.91
00.140,55.8
00.156,69.24
00.171,80.91
00.187,90.46
00.203,97.74
00.218,102.9
00.234,106.41
00.250,108.79
00.265,110.51
00.281,111.8
00.296,112.74
00.312,113.35
00.328,113.71
00.343,113.97
00.359,114.38
00.375,115.08
00.390,116.1
00.406,117.27
00.421,118.27
00.437,118.73
00.453,118.24
00.468,116.46
00.484,113.21
00.500,108.44
00.515,102.3
00.531,95.03
00.546,86.96
00.562,78.27
00.578,69.06
00.593,59.26
00.609,48.78
00.625,37.6
00.640,25.88
00.656,13.92
00.671,2.15
00.687,-9.04
00.703,-19.37
00.718,-28.76
00.734,-37.36
00.750,-45.5
00.765,-53.65
00.781,-62.29
00.796,-71.67
00.812,-81.64
00.828,-91.45
00.843,-99.86
00.859,-105.32
00.875,-106.47
00.890,-102.55
00.906,-93.66
00.921,-80.69
00.937,-65.03
00.953,-48.14
00.968,-31.18
00.984,-14.91
01.000,0.34
01.015,14.42
01.031,27.3
01.046,38.96
01.062,49.35
01.078,58.47
01.093,66.23
01.109,72.56
01.125,77.39
01.140,80.76
01.156,82.86
01.171,84.04
01.187,84.67
01.203,85.05
01.218,85.3
01.234,85.3
01.250,84.89
01.265,83.87
01.281,82.19
01.296,79.88
01.312,77.09
01.328,73.98
01.343,70.71
01.359,67.42
01.375,64.19
01.390,61.0
01.406,57.69
01.421,54.02
01.437,49.73
01.453,44.61
01.468,38.62
01.484,31.84
01.500,24.5
01.515,16.91
01.531,9.45
01.546,2.48
01.562,-3.73
01.578,-9.23
01.593,-14.33
01.609,-19.64
01.625,-25.74
01.640,-32.78
01.656,-40.25
01.671,-46.8
01.687,-50.63
01.703,-49.94
01.718,-43.65
01.734,-31.75
01.750,-15.33
01.765,3.85
01.781,23.96
01.796,43.52
01.812,61.79
01.828,78.68
01.843,94.49
01.859,109.71
01.875,124.75
01.890,139.82
01.906,154.84
01.921,169.55
01.937,183.52
01.953,196.41
01.968,208.1
01.984,218.75
02.000,228.74
02.015,238.27
02.031,247.12
02.046,254.38
02.062,258.67
02.078,258.39
02.093,252.36
02.109,240.11
02.125,222.13
02.140,199.91
02.156,175.85
02.171,153.0
02.187,134.51
02.203,122.82
02.218,118.65
02.234,120.59
02.250,125.14
02.265,128.01
02.281,125.61
02.296,116.39
02.312,101.28
02.328,83.27
02.343,66.43
02.359,54.75
02.375,51.16
02.390,56.64
02.406,69.89
02.421,87.25
02.437,103.47
02.453,113.13
02.468,112.25
02.484,99.64
02.500,77.0
02.515,48.12
02.531,17.27
02.546,-12.17
02.562,-38.4
02.578,-61.13
02.593,-81.04
02.609,-99.43
02.625,-117.98
02.640,-138.62
02.656,-162.9
02.671,-191.12
02.687,-221.53
02.703,-250.41
02.718,-273.07
02.734,-285.66
02.750,-287.02
02.765,-279.58
02.781,-268.68
02.796,-260.53
02.812,-259.55
02.828,-266.32
02.843,-277.11
02.859,-285.19
02.875,-283.68
02.890,-268.4
02.906,-239.72
02.921,-202.44
02.937,-163.9
02.953,-131.39
02.968,-109.88
02.984,-101.02
03.000,-103.34
03.015,-113.09
03.031,-125.26
03.046,-134.51
03.062,-136.18
03.078,-127.62
03.093,-109.27
03.109,-85.22
03.125,-62.12
03.140,-46.93
03.156,-44.11
03.171,-53.8
03.187,-72.07
03.203,-92.91
03.218,-111.31
03.234,-125.41
03.250,-136.91
03.265,-149.84
03.281,-168.24
03.296,-194.39
03.312,-228.01
03.328,-266.71
03.343,-306.9
03.359,-344.76
03.375,-376.64
03.390,-399.16
03.406,-409.32
03.421,-404.89
03.437,-385.03
03.453,-350.91
03.468,-305.66
03.484,-253.72
03.500,-199.53
03.515,-146.18
03.531,-94.75
03.546,-44.59
03.562,5.13
03.578,53.84
03.593,98.62
03.609,134.85
03.625,158.29
03.640,167.53
03.656,165.24
03.671,157.26
03.687,149.74
03.703,146.01
03.718,144.9
03.734,141.64
03.750,130.74
03.765,109.18
03.781,78.15
03.796,42.3
03.812,7.42
03.828,-22.13
03.843,-44.73
03.859,-61.04
03.875,-72.64
03.890,-80.57
03.906,-84.83
03.921,-84.72
03.937,-79.82
03.953,-70.7
03.968,-59.16
03.984,-47.61
04.000,-38.24
04.015,-32.19
04.031,-29.21
04.046,-27.97
04.062,-26.9
04.078,-25.03
04.093,-22.53
04.109,-20.58
04.125,-20.76
04.140,-24.2
04.156,-31.17
04.171,-40.96
04.187,-52.44
04.203,-64.57
04.218,-76.61
04.234,-88.03
04.250,-97.97
04.265,-105.04
04.281,-107.44
04.296,-103.5
04.312,-92.42
04.328,-74.73
04.343,-52.17
04.359,-27.16
04.375,-2.01
04.390,21.65
04.406,43.08
04.421,62.25
04.437,79.47
04.453,95.05
04.468,109.12
04.484,121.63
04.500,132.63
04.515,142.32
04.531,151.2
04.546,159.86
04.562,168.76
04.578,177.87
04.593,186.54
04.609,193.57
04.625,197.6
04.640,197.69
04.656,193.67
04.671,186.31
04.687,177.04
04.703,167.62
04.718,159.63
04.734,154.14
04.750,151.52
04.765,151.18
04.781,151.61
04.796,150.36
04.812,144.55
04.828,131.52
04.843,109.77
04.859,79.54
04.875,42.96
04.890,3.52
04.906,-35.0
04.921,-69.47
04.937,-98.08
04.953,-120.38
04.968,-136.99
04.984,-148.99
05.000,-157.63
05.015,-164.1
05.031,-169.41
05.046,-174.27
05.062,-178.71
05.078,-181.92
05.093,-182.23
05.109,-177.71
05.125,-166.8
05.140,-149.1
05.156,-125.61
05.171,-98.44
05.187,-70.14
05.203,-42.94
05.218,-18.18
05.234,3.76
05.250,23.26
05.265,40.98
05.281,57.51
05.296,73.05
05.312,87.4
05.328,100.05
05.343,110.43
05.359,118.18
05.375,123.31
05.390,126.27
05.406,127.65
05.421,128.07
05.437,127.92
05.453,127.42
05.468,126.67
05.484,125.76
05.500,124.81
05.515,123.82
05.531,122.63
05.546,120.9
05.562,118.27
05.578,114.51
05.593,109.7
05.609,104.12
05.625,98.16
05.640,92.11
05.656,85.96
05.671,79.46
05.687,72.22
05.703,63.9
05.718,54.37
05.734,43.82
05.750,32.72
05.765,21.63
05.781,11.09
05.796,1.33
05.812,-7.74
05.828,-16.52
05.843,-25.66
05.859,-35.84
05.875,-47.54
05.890,-60.76
05.906,-74.76
05.921,-87.99
05.937,-98.33
05.953,-103.63
05.968,-102.3
05.984,-93.9
06.000,-79.23
06.015,-60.07
06.031,-38.48
06.046,-16.27
06.062,5.48
06.078,26.32
06.093,46.15
06.109,64.96
06.125,82.44
06.140,98.13
06.156,111.54
06.171,122.34
06.187,130.55
06.203,136.54
06.218,140.84
06.234,144.02
06.250,146.39
06.265,147.85
06.281,147.96
06.296,146.06
06.312,141.53
06.328,134.08
06.343,123.91
06.359,111.65
06.375,98.21
06.390,84.53
06.406,71.35
06.421,59.12
06.437,48.08
06.453,38.29
06.468,29.82
06.484,22.71
06.500,16.91
06.515,12.18
06.531,8.05
06.546,3.91
06.562,-0.81
06.578,-6.46
06.593,-13.04
06.609,-20.2
06.625,-27.45
06.640,-34.34
06.656,-40.65
06.671,-46.48
06.687,-52.17
06.703,-58.13
06.718,-64.78
06.734,-72.41
06.750,-81.02
06.765,-90.32
06.781,-99.58
06.796,-107.58
06.812,-112.86
06.828,-113.96
06.843,-109.93
06.859,-100.61
06.875,-86.75
06.890,-69.71
06.906,-51.16
06.921,-32.54
06.937,-14.84
06.953,1.46
06.968,16.26
06.984,29.59
07.000,41.57
07.015,52.23
07.031,61.55
07.046,69.42
07.062,75.71
07.078,80.37
07.093,83.36
07.109,84.83
07.125,84.99
07.140,84.19
07.156,82.82
07.171,81.26
07.187,79.8
07.203,78.62
07.218,77.73
07.234,76.95
07.250,75.99
07.265,74.49
07.281,72.15
07.296,68.75
07.312,64.27
07.328,58.83
07.343,52.72
07.359,46.32
07.375,39.94
07.390,33.79
07.406,27.82
07.421,21.85
07.437,15.63
07.453,9.04
07.468,2.17
07.484,-4.74
07.500,-11.45
07.515,-17.87
07.531,-24.15
07.546,-30.71
07.562,-38.0
07.578,-46.37
07.593,-55.9
07.609,-66.19
07.625,-76.34
07.640,-85.03
07.656,-90.77
07.671,-92.32
07.687,-89.07
07.703,-81.22
07.718,-69.73
07.734,-56.03
07.750,-41.56
07.765,-27.46
07.781,-14.38
07.796,-2.65
07.812,7.65
07.828,16.49
07.843,23.82
07.859,29.6
07.875,33.85
07.890,36.74
07.906,38.51
07.921,39.45
07.937,39.87
07.953,39.94
07.968,39.79
07.984,39.46
08.000,38.98
08.015,38.4
08.031,37.81
08.046,37.29
08.062,36.86
08.078,36.44
08.093,35.84
08.109,34.82
08.125,33.19
08.140,30.91
08.156,28.16
08.171,25.27
08.187,22.62
08.203,20.47
08.218,18.84
08.234,17.45
08.250,15.87
08.265,13.62
08.281,10.44
08.296,6.38
08.312,1.79
08.328,-2.86
08.343,-7.21
08.359,-11.23
08.375,-15.21
08.390,-19.71
08.406,-25.27
08.421,-32.16
08.437,-40.21
08.453,-48.78
08.468,-56.87
08.484,-63.31
08.500,-66.92
08.515,-66.86
08.531,-62.75
08.546,-54.88
08.562,-44.13
08.578,-31.72
08.593,-18.93
08.609,-6.73
08.625,4.35
08.640,14.15
08.656,22.75
08.671,30.2
08.687,36.47
08.703,41.42
08.718,44.96
08.734,47.04
08.750,47.79
08.765,47.45
08.781,46.26
08.796,44.48
08.812,42.34
08.828,40.02
08.843,37.69
08.859,35.47
08.875,33.45
08.890,31.65
08.906,29.96
08.921,28.17
08.937,26.02
08.953,23.27
08.968,19.87
08.984,15.93
09.000,11.76
09.015,7.68
09.031,3.88
09.046,0.37
09.062,-3.0
09.078,-6.46
09.093,-10.14
09.109,-14.0
09.125,-17.84
09.140,-21.4
09.156,-24.5
09.171,-27.14
09.187,-29.45
09.203,-31.69
09.218,-34.15
09.234,-37.02
09.250,-40.31
09.265,-43.76
09.281,-46.74
09.296,-48.39
09.312,-47.67
09.328,-43.71
09.343,-35.96
09.359,-24.33
09.375,-9.22
09.390,8.7
09.406,28.59
09.421,49.61
09.437,70.95
09.453,91.95
09.468,112.07
09.484,131.03
09.500,148.82
09.515,165.63
09.531,181.68
09.546,196.99
09.562,211.29
09.578,224.04
09.593,234.57
09.609,242.35
09.625,247.24
09.640,249.49
09.656,249.74
09.671,248.75
09.687,247.1
09.703,244.91
09.718,241.83
09.734,237.2
09.750,230.49
09.765,221.61
09.781,211.0
09.796,199.27
09.812,186.76
09.828,173.18
09.843,157.61
09.859,138.92
09.875,116.31
09.890,89.63
09.906,59.3
09.921,25.96
09.937,-9.64
09.953,-46.25
09.968,-81.52
09.984,-111.75
10.000,-132.57
10.015,-140.64
10.031,-135.58
10.046,-121.1
10.062,-104.34
10.078,-93.4
10.093,-94.25
10.109,-108.38
10.125,-132.33
10.140,-159.41
10.156,-182.68
10.171,-197.27
10.187,-201.31
10.203,-195.0
10.218,-179.08
10.234,-154.07
10.250,-120.69
10.265,-81.23
10.281,-40.56
10.296,-5.69
10.312,16.17
10.328,20.24
10.343,6.0
10.359,-22.63
10.375,-58.98
10.390,-95.91
10.406,-127.63
10.421,-150.31
10.437,-161.65
10.453,-160.19
10.468,-145.1
10.484,-116.52
10.500,-76.02
10.515,-26.78
10.531,26.81
10.546,79.84
10.562,127.58
10.578,165.95
10.593,191.92
10.609,203.74
10.625,201.14
10.640,185.37
10.656,158.79
10.671,124.16
10.687,83.94
10.703,40.18
10.718,-5.04
10.734,-48.97
10.750,-88.19
10.765,-119.51
10.781,-141.67
10.796,-156.6
10.812,-169.28
10.828,-185.82
10.843,-210.76
10.859,-244.72
10.875,-283.79
10.890,-320.81
10.906,-347.82
10.921,-358.57
10.937,-350.28
10.953,-324.11
10.968,-284.69
10.984,-239.01
11.000,-194.72
11.015,-158.47
11.031,-134.16
11.046,-121.91
11.062,-118.14
11.078,-117.03
11.093,-112.59
11.109,-101.11
11.125,-82.66
11.140,-61.26
11.156,-43.32
11.171,-35.24
11.187,-40.78
11.203,-59.5
11.218,-86.87
11.234,-115.9
11.250,-139.76
11.265,-153.82
11.281,-156.61
11.296,-149.27
11.312,-134.39
11.328,-114.63
11.343,-92.32
11.359,-69.42
11.375,-47.86
11.390,-29.5
11.406,-15.78
11.421,-7.13
11.437,-2.68
11.453,-0.56
11.468,1.38
11.484,4.73
11.500,9.97
11.515,16.41
11.531,22.66
11.546,27.25
11.562,29.29
11.578,28.67
11.593,26.03
11.609,22.29
11.625,18.18
11.640,13.93
11.656,9.23
11.671,3.55
11.687,-3.26
11.703,-10.63
11.718,-17.13
11.734,-20.87
11.750,-20.27
11.765,-14.69
11.781,-4.81
11.796,7.63
11.812,20.52
11.828,32.14
11.843,41.58
11.859,48.91
11.875,54.72
11.890,59.73
11.906,64.38
11.921,68.68
11.937,72.38
11.953,75.14
11.968,76.74
11.984,77.13
12.000,76.53
12.015,75.29
12.031,73.85
12.046,72.7
12.062,72.25
12.078,72.86
12.093,74.68
12.109,77.65
12.125,81.41
12.140,85.33
12.156,88.63
12.171,90.66
12.187,91.08
12.203,89.99
12.218,88.02
12.234,86.08
12.250,85.09
12.265,85.69
12.281,88.06
12.296,91.79
12.312,96.02
12.328,99.63
12.343,101.52
12.359,100.72
12.375,96.56
12.390,88.57
12.406,76.58
12.421,60.8
12.437,41.99
12.453,21.49
12.468,1.14
12.484,-17.12
12.500,-31.69
12.515,-41.76
12.531,-47.44
12.546,-49.66
12.562,-49.86
12.578,-49.57
12.593,-50.13
12.609,-52.38
12.625,-56.67
12.640,-62.81
12.656,-70.18
12.671,-77.85
12.687,-84.76
12.703,-89.92
12.718,-92.59
12.734,-92.35
12.750,-89.14
12.765,-83.29
12.781,-75.44
12.796,-66.34
12.812,-56.8
12.828,-47.42
12.843,-38.6
12.859,-30.49
12.875,-23.18
12.890,-16.78
12.906,-11.54
12.921,-7.99
12.937,-6.77
12.953,-8.61
12.968,-14.11
12.984,-23.52
13.000,-36.56
13.015,-52.39
13.031,-69.74
13.046,-87.16
13.062,-103.44
13.078,-117.89
13.093,-130.48
13.109,-141.71
13.125,-152.28
13.140,-162.56
13.156,-172.34
13.171,-180.63
13.187,-185.94
13.203,-186.75
13.218,-182.03
13.234,-171.62
13.250,-156.27
13.265,-137.34
13.281,-116.4
13.296,-94.86
13.312,-73.67
13.328,-53.41
13.343,-34.39
13.359,-16.82
13.375,-1.02
13.390,12.57
13.406,23.4
13.421,30.98
13.437,35.12
13.453,36.14
13.468,34.87
13.484,32.47
13.500,30.07
13.515,28.31
13.531,27.24
13.546,26.47
13.562,25.56
13.578,24.41
13.593,23.23
13.609,22.29
13.625,21.55
13.640,20.45
13.656,18.1
13.671,13.69
13.687,7.02
13.703,-1.35
13.718,-10.28
13.734,-18.57
13.750,-25.53
13.765,-31.24
13.781,-36.48
13.796,-42.42
13.812,-50.1
13.828,-60.15
13.843,-72.62
13.859,-86.99
13.875,-102.36
13.890,-117.5
13.906,-130.99
13.921,-141.24
13.937,-146.56
13.953,-145.43
13.968,-136.83
13.984,-120.87
14.000,-99.03
14.015,-74.1
14.031,-49.48
14.046,-28.3
14.062,-12.46
14.078,-2.17
14.093,3.95
14.109,8.39
14.125,13.89
14.140,22.76
14.156,36.37
14.171,54.95
14.187,77.52
14.203,101.95
14.218,125.0
14.234,142.61
14.250,150.56
14.265,145.77
14.281,127.49
14.296,98.16
14.312,62.74
14.328,26.92
14.343,-5.41
14.359,-33.79
14.375,-60.98
14.390,-90.56
14.406,-123.74
14.421,-157.4
14.437,-184.62
14.453,-197.76
14.468,-192.14
14.484,-168.51
14.500,-132.67
14.515,-92.91
14.531,-56.66
14.546,-28.17
14.562,-8.2
14.578,4.83
14.593,13.15
14.609,18.68
14.625,22.83
14.640,26.93
14.656,32.48
14.671,41.04
14.687,53.79
14.703,70.96
14.718,91.61
14.734,113.86
14.750,135.43
14.765,154.34
14.781,169.54
14.796,181.11
14.812,190.05
14.828,197.71
14.843,205.0
14.859,211.96
14.875,217.72
14.890,220.93
14.906,220.33
14.921,215.33
14.937,206.22
14.953,194.06
14.968,180.26
14.984,166.2
15.000,152.94
15.015,141.07
15.031,130.59
15.046,120.87
15.062,110.84
15.078,99.19
15.093,84.84
15.109,67.38
15.125,47.38
15.140,26.34
15.156,6.28
15.171,-10.76
15.187,-23.28
15.203,-30.62
15.218,-32.97
15.234,-31.4
15.250,-27.64
15.265,-23.8
15.281,-21.86
15.296,-23.17
15.312,-27.95
15.328,-35.18
15.343,-42.74
15.359,-48.27
15.375,-49.78
15.390,-46.37
15.406,-38.31
15.421,-26.8
15.437,-13.39
15.453,0.61
15.468,14.47
15.484,28.14
15.500,41.96
15.515,56.35
15.531,71.47
15.546,87.04
15.562,102.37
15.578,116.6
15.593,128.94
15.609,138.81
15.625,145.91
15.640,150.06
15.656,151.18
15.671,149.34
15.687,144.87
15.703,138.54
15.718,131.47
15.734,124.89
15.750,119.73
15.765,116.24
15.781,113.81
15.796,111.26
15.812,107.19
15.828,100.51
15.843,90.78
15.859,78.33
15.875,63.94
15.890,48.59
15.906,33.12
15.921,18.04
15.937,3.51
15.953,-10.63
15.968,-24.77
15.984,-39.3
16.000,-54.34
16.015,-69.5
16.031,-83.68
16.046,-95.23
16.062,-102.33
16.078,-103.47
16.093,-97.93
16.109,-85.89
16.125,-68.36
16.140,-46.86
16.156,-23.15
16.171,1.12
16.187,24.51
16.203,45.97
16.218,64.83
16.234,80.82
16.250,93.95
16.265,104.44
16.281,112.56
16.296,118.64
16.312,123.06
16.328,126.23
16.343,128.63
16.359,130.76
16.375,132.98
16.390,135.42
16.406,137.87
16.421,139.81
16.437,140.42
16.453,138.8
16.468,134.08
16.484,125.61
16.500,113.14
16.515,96.94
16.531,77.9
16.546,57.49
16.562,37.54
16.578,19.77
16.593,5.31
16.609,-5.76
16.625,-14.39
16.640,-22.18
16.656,-30.71
16.671,-41.0
16.687,-52.99
16.703,-65.69
16.718,-77.49
16.734,-86.64
16.750,-91.69
16.765,-91.73
16.781,-86.62
16.796,-76.91
16.812,-63.79
16.828,-48.8
16.843,-33.47
16.859,-18.96
16.875,-5.81
16.890,6.14
16.906,17.54
16.921,29.26
16.937,42.04
16.953,56.2
16.968,71.58
16.984,87.79
17.000,104.4
17.015,121.25
17.031,138.38
17.046,155.73
17.062,172.59
17.078,187.48
17.093,198.3
17.109,202.96
17.125,200.15
17.140,189.88
17.156,173.38
17.171,152.5
17.187,128.95
17.203,103.73
17.218,77.15
17.234,49.26
17.250,20.48
17.265,-8.23
17.281,-35.54
17.296,-60.34
17.312,-82.36
17.328,-102.42
17.343,-122.12
17.359,-143.26
17.375,-167.08
17.390,-193.89
17.406,-223.05
17.421,-253.27
17.437,-283.05
17.453,-311.01
17.468,-335.89
17.484,-356.54
17.500,-371.88
17.515,-381.04
17.531,-383.58
17.546,-379.67
17.562,-370.07
17.578,-355.98
17.593,-338.66
17.609,-319.16
17.625,-298.22
17.640,-276.25
17.656,-253.49
17.671,-230.19
17.687,-206.65
17.703,-183.36
17.718,-160.89
17.734,-139.83
17.750,-120.61
17.765,-103.45
17.781,-88.23
17.796,-74.66
17.812,-62.36
17.828,-51.04
17.843,-40.48
17.859,-30.48
17.875,-20.78
17.890,-11.1
17.906,-1.38
17.921,8.02
17.937,16.16
17.953,21.73
17.968,23.5
17.984,20.78
18.000,13.71
18.015,3.3
18.031,-8.98
18.046,-21.57
18.062,-33.2
18.078,-43.05
18.093,-50.68
18.109,-56.01
18.125,-59.3
18.140,-61.16
18.156,-62.56
18.171,-64.63
18.187,-68.27
18.203,-73.79
18.218,-80.67
18.234,-87.58
18.250,-92.7
18.265,-94.3
18.281,-91.15
18.296,-82.88
18.312,-70.05
18.328,-54.05
18.343,-36.75
18.359,-20.09
18.375,-5.58
18.390,6.02
18.406,14.85
18.421,21.67
18.437,27.54
18.453,33.35
18.468,39.54
18.484,46.08
18.500,52.7
18.515,59.12
18.531,65.17
18.546,70.73
18.562,75.6
18.578,79.44
18.593,81.92
18.609,82.92
18.625,82.74
18.640,82.02
18.656,81.41
18.671,81.34
18.687,81.81
18.703,82.57
18.718,83.32
18.734,84.02
18.750,84.87
18.765,86.19
18.781,88.12
18.796,90.39
18.812,92.47
18.828,93.68
18.843,93.52
18.859,91.82
18.875,88.7
18.890,84.49
18.906,79.55
18.921,74.14
18.937,68.39
18.953,62.4
18.968,56.25
18.984,50.18
19.000,44.57
19.015,40.01
19.031,37.26
19.046,37.14
19.062,40.39
19.078,47.54
19.093,58.77
19.109,73.71
19.125,91.33
19.140,109.84
19.156,126.84
19.171,139.84
19.187,146.8
19.203,146.73
19.218,139.91
19.234,127.64
19.250,111.63
19.265,93.47
19.281,74.35
19.296,55.04
19.312,36.28
19.328,18.95
19.343,4.1
19.359,-7.35
19.375,-14.82
19.390,-18.23
19.406,-17.73
19.421,-13.39
19.437,-5.07
19.453,7.34
19.468,23.45
19.484,41.99
19.500,60.82
19.515,77.44
19.531,89.79
19.546,96.91
19.562,99.12
19.578,97.65
19.593,93.97
19.609,89.16
19.625,83.67
19.640,77.48
19.656,70.43
19.671,62.45
19.687,53.6
19.703,43.92
19.718,33.22
19.734,21.12
19.750,7.15
19.765,-9.02
19.781,-27.33
19.796,-47.24
19.812,-67.7
19.828,-87.25
19.843,-104.24
19.859,-117.21
19.875,-125.16
19.890,-127.84
19.906,-125.83
19.921,-120.34
19.937,-112.86
19.953,-104.83
19.968,-97.33
19.984,-90.97
20.000,-85.98
20.015,-82.37
20.031,-80.1
20.046,-79.14
20.062,-79.48
20.078,-80.95
20.093,-83.28
20.109,-86.02
20.125,-88.65
20.140,-90.72
20.156,-91.84
20.171,-91.73
20.187,-90.09
20.203,-86.61
20.218,-81.13
20.234,-73.77
20.250,-65.11
20.265,-56.06
20.281,-47.57
20.296,-40.24
20.312,-34.1
20.328,-28.69
20.343,-23.42
20.359,-17.98
20.375,-12.52
20.390,-7.56
20.406,-3.58
20.421,-0.74
20.437,1.23
20.453,2.8
20.468,4.32
20.484,5.75
20.500,6.61
20.515,6.15
20.531,3.58
20.546,-1.62
20.562,-9.57
20.578,-19.81
20.593,-31.24
20.609,-42.23
20.625,-50.81
20.640,-55.24
20.656,-54.43
20.671,-48.3
20.687,-37.78
20.703,-24.48
20.718,-10.15
20.734,3.73
20.750,16.16
20.765,26.61
20.781,34.87
20.796,40.95
20.812,44.95
20.828,47.22
20.843,48.18
20.859,48.35
20.875,48.17
20.890,47.8
20.906,47.16
20.921,45.93
20.937,43.84
20.953,40.86
20.968,37.4
20.984,34.25
21.000,32.25
21.015,32.0
21.031,33.49
21.046,36.14
21.062,39.04
21.078,41.39
21.093,42.72
21.109,43.0
21.125,42.49
21.140,41.49
21.156,40.19
21.171,38.69
21.187,37.1
21.203,35.66
21.218,34.6
21.234,34.14
21.250,34.12
21.265,34.01
21.281,32.84
21.296,29.47
21.312,22.78
21.328,12.18
21.343,-2.14
21.359,-19.01
21.375,-36.44
21.390,-52.1
21.406,-63.88
21.421,-70.57
21.437,-72.1
21.453,-69.37
21.468,-63.85
21.484,-56.93
21.500,-49.55
21.515,-42.15
21.531,-34.77
21.546,-27.4
21.562,-20.18
21.578,-13.37
21.593,-7.35
21.609,-2.39
21.625,1.31
21.640,3.64
21.656,4.6
21.671,4.31
21.687,3.03
21.703,1.15
21.718,-0.9
21.734,-2.74
21.750,-4.23
21.765,-5.38
21.781,-6.37
21.796,-7.37
21.812,-8.56
21.828,-10.04
21.843,-11.85
21.859,-13.9
21.875,-16.01
21.890,-17.92
21.906,-19.51
21.921,-21.07
21.937,-23.3
21.953,-26.99
21.968,-32.53
21.984,-39.38
22.000,-46.11
22.015,-50.94
22.031,-52.62
22.046,-51.1
22.062,-47.57
22.078,-43.97
22.093,-42.13
22.109,-43.16
22.125,-47.21
22.140,-53.7
22.156,-61.66
22.171,-69.95
22.187,-77.34
22.203,-82.46
22.218,-83.89
22.234,-80.37
22.250,-71.2
22.265,-56.54
22.281,-37.47
22.296,-15.9
22.312,5.89
22.328,25.8
22.343,42.41
22.359,55.34
22.375,65.13
22.390,72.85
22.406,79.48
22.421,85.55
22.437,90.93
22.453,95.14
22.468,97.75
22.484,98.7
22.500,98.46
22.515,97.86
22.531,97.7
22.546,98.51
22.562,100.41
22.578,103.09
22.593,106.03
22.609,108.78
22.625,111.09
22.640,112.93
22.656,114.45
22.671,115.81
22.687,117.19
22.703,118.76
22.718,120.64
22.734,122.93
22.750,125.63
22.765,128.51
22.781,131.09
22.796,132.66
22.812,132.51
22.828,130.13
22.843,125.46
22.859,118.82
22.875,110.81
22.890,102.08
22.906,93.03
22.921,83.96
22.937,75.08
22.953,66.83
22.968,59.88
22.984,55.18
23.000,53.7
23.015,56.31
23.031,63.51
23.046,75.23
23.062,90.65
23.078,108.23
23.093,125.91
23.109,141.55
23.125,153.39
23.140,160.35
23.156,161.94
23.171,158.16
23.187,149.31
23.203,136.06
23.218,119.59
23.234,101.41
23.250,83.14
23.265,66.04
23.281,50.61
23.296,36.63
23.312,23.38
23.328,10.02
23.343,-4.05
23.359,-19.08
23.375,-34.82
23.390,-50.37
23.406,-64.18
23.421,-74.44
23.437,-79.78
23.453,-80.05
23.468,-76.66
23.484,-72.23
23.500,-69.39
23.515,-69.83
23.531,-73.64
23.546,-79.67
23.562,-86.21
23.578,-91.64
23.593,-94.71
23.609,-94.57
23.625,-90.77
23.640,-83.46
23.656,-73.64
23.671,-63.07
23.687,-53.67
23.703,-46.67
23.718,-41.87
23.734,-37.66
23.750,-31.81
23.765,-22.66
23.781,-10.05
23.796,4.49
23.812,18.44
23.828,29.29
23.843,35.58
23.859,37.19
23.875,35.18
23.890,31.18
23.906,26.76
23.921,23.12
23.937,21.03
23.953,21.1
23.968,23.84
23.984,29.65
24.000,38.5
24.015,49.57
24.031,61.18
24.046,70.91
24.062,76.2
24.078,74.86
24.093,65.78
24.109,49.11
24.125,26.32
24.140,-0.03
24.156,-26.89
24.171,-51.19
24.187,-70.44
24.203,-83.26
24.218,-89.56
24.234,-90.55
24.250,-88.33
24.265,-85.29
24.281,-83.49
24.296,-84.27
24.312,-88.06
24.328,-94.61
24.343,-103.35
24.359,-113.8
24.375,-125.62
24.390,-138.52
24.406,-151.94
24.421,-164.83
24.437,-175.72
24.453,-183.0
24.468,-185.45
24.484,-182.56
24.500,-174.63
24.515,-162.46
24.531,-147.02
24.546,-129.09
24.562,-109.18
24.578,-87.72
24.593,-65.22
24.609,-42.42
24.625,-20.27
24.640,0.32
24.656,18.66
24.671,34.4
24.687,47.5
24.703,58.17
24.718,66.78
24.734,73.91
24.750,80.23
24.765,86.37
24.781,92.52
24.796,98.22
24.812,102.21
24.828,102.71
24.843,98.09
24.859,87.41
24.875,70.91
24.890,49.93
24.906,26.43
24.921,2.39
24.937,-20.62
24.953,-41.6
24.968,-59.89
24.984,-74.9
25.000,-86.01
25.015,-92.6
25.031,-94.3
25.046,-91.18
25.062,-83.8
25.078,-73.15
25.093,-60.51
25.109,-47.24
25.125,-34.6
25.140,-23.52
25.156,-14.34
25.171,-6.55
25.187,1.1
25.203,10.34
25.218,22.64
25.234,38.57
25.250,57.38
25.265,77.17
25.281,95.58
25.296,110.58
25.312,121.04
25.328,126.68
25.343,127.67
25.359,124.13
25.375,115.8
25.390,102.28
25.406,83.51
25.421,60.22
25.437,34.08
25.453,7.24
25.468,-18.24
25.484,-40.53
25.500,-57.71
25.515,-67.36
25.531,-66.58
25.546,-53.18
25.562,-27.57
25.578,5.89
25.593,39.03
25.609,62.31
25.625,68.52
25.640,55.69
25.656,27.67
25.671,-7.89
25.687,-43.13
25.703,-72.97
25.718,-95.96
25.734,-113.18
25.750,-126.21
25.765,-135.91
25.781,-142.49
25.796,-146.45
25.812,-149.38
25.828,-153.74
25.843,-162.0
25.859,-175.59
25.875,-194.52
25.890,-217.67
25.906,-243.22
25.921,-268.79
25.937,-291.03
25.953,-305.51
25.968,-307.22
25.984,-291.84
26.000,-257.37
26.015,-205.21
26.031,-140.26
26.046,-69.89
26.062,-2.12
26.078,56.25
26.093,101.16
26.109,131.93
26.125,151.04
26.140,163.04
26.156,172.9
26.171,184.2
26.187,197.79
26.203,211.54
26.218,221.55
26.234,224.04
26.250,217.38
26.265,202.96
26.281,184.59
26.296,166.97
26.312,153.73
26.328,146.31
26.343,143.7
26.359,143.23
26.375,141.89
26.390,137.4
26.406,128.67
26.421,115.68
26.437,98.96
26.453,79.12
26.468,56.69
26.484,32.32
26.500,6.96
26.515,-18.1
26.531,-41.49
26.546,-62.27
26.562,-80.24
26.578,-95.92
26.593,-109.96
26.609,-122.28
26.625,-131.56
26.640,-135.63
26.656,-132.5
26.671,-121.76
26.687,-105.38
26.703,-87.43
26.718,-72.8
26.734,-65.4
26.750,-66.88
26.765,-76.35
26.781,-90.99
26.796,-107.19
26.812,-121.42
26.828,-130.72
26.843,-132.77
26.859,-126.2
26.875,-111.06
26.890,-89.36
26.906,-64.84
26.921,-41.99
26.937,-24.48
26.953,-13.89
26.968,-9.71
26.984,-10.25
27.000,-14.21
27.015,-21.58
27.031,-33.41
27.046,-50.73
27.062,-73.22
27.078,-98.82
27.093,-124.29
27.109,-146.48
27.125,-163.36
27.140,-174.42
27.156,-180.21
27.171,-181.58
27.187,-179.12
27.203,-173.07
27.218,-163.69
27.234,-151.55
27.250,-137.74
27.265,-123.7
27.281,-110.88
27.296,-100.38
27.312,-92.72
27.328,-87.78
27.343,-84.9
27.359,-83.18
27.375,-81.68
27.390,-79.7
27.406,-76.96
27.421,-73.63
27.437,-70.22
27.453,-67.34
27.468,-65.57
27.484,-65.26
27.500,-66.49
27.515,-68.99
27.531,-72.14
27.546,-74.83
27.562,-75.63
27.578,-72.98
27.593,-65.59
27.609,-52.9
27.625,-35.23
27.640,-13.83
27.656,9.5
27.671,32.86
27.687,54.77
27.703,74.3
27.718,91.15
27.734,105.37
27.750,117.11
27.765,126.46
27.781,133.38
27.796,137.91
27.812,140.3
27.828,141.08
27.843,141.01
27.859,140.78
27.875,140.81
27.890,141.08
27.906,141.26
27.921,140.97
27.937,139.97
27.953,138.3
27.968,136.16
27.984,133.74
28.000,131.05
28.015,128.05
28.031,124.68
28.046,121.03
28.062,117.35
28.078,113.82
28.093,110.52
28.109,107.3
28.125,103.9
28.140,100.08
28.156,95.74
28.171,90.97
28.187,85.99
28.203,81.1
28.218,76.66
28.234,72.97
28.250,70.21
28.265,68.35
28.281,67.08
28.296,65.93
28.312,64.42
28.328,62.29
28.343,59.61
28.359,56.61
28.375,53.6
28.390,50.78
28.406,48.19
28.421,45.82
28.437,43.65
28.453,41.69
28.468,39.88
28.484,38.09
28.500,36.08
28.515,33.62
28.531,30.63
28.546,27.24
28.562,23.71
28.578,20.29
28.593,17.11
28.609,14.19
28.625,11.59
28.640,9.34
28.656,7.59
28.671,6.45
28.687,5.91
28.703,5.76
28.718,5.69
28.734,5.33
28.750,4.45
28.765,2.86
28.781,0.51
28.796,-2.52
28.812,-6.11
28.828,-10.07
28.843,-14.25
28.859,-18.53
28.875,-22.94
28.890,-27.6
28.906,-32.67
28.921,-38.31
28.937,-44.51
28.953,-51.16
28.968,-58.1
28.984,-65.13
29.000,-72.15
29.015,-79.11
29.031,-85.98
29.046,-92.78
29.062,-99.47
29.078,-105.84
29.093,-111.47
29.109,-115.62
29.125,-117.46
29.140,-116.26
29.156,-111.65
29.171,-103.63
29.187,-92.43
29.203,-78.27
29.218,-61.09
29.234,-40.72
29.250,-17.14
29.265,9.12
29.281,36.77
29.296,63.96
29.312,88.58
29.328,108.79
29.343,123.32
29.359,131.68
29.375,134.03
29.390,131.21
29.406,124.6
29.421,115.93
29.437,106.93
29.453,98.98
29.468,92.84
29.484,88.51
29.500,85.46
29.515,82.78
29.531,79.59
29.546,75.09
29.562,68.75
29.578,60.29
29.593,49.71
29.609,37.26
29.625,23.35
29.640,8.54
29.656,-6.61
29.671,-21.47
29.687,-35.57
29.703,-48.57
29.718,-60.4
29.734,-71.33
29.750,-81.89
29.765,-92.68
29.781,-104.23
29.796,-116.82
29.812,-130.41
29.828,-144.72
29.843,-159.26
29.859,-173.14
29.875,-185.03
29.890,-193.13
29.906,-195.5
29.921,-190.57
29.937,-177.81
29.953,-157.99
29.968,-133.15
29.984,-106.01
30.000,-79.13
30.015,-54.32
30.031,-32.32
30.046,-12.94
30.062,4.49
30.078,20.55
30.093,35.38
30.109,48.7
30.125,59.93
30.140,68.62
30.156,74.62
30.171,78.22
30.187,80.02
30.203,80.67
30.218,80.59
30.234,79.99
30.250,78.87
30.265,77.28
30.281,75.45
30.296,73.78
30.312,72.62
30.328,72.09
30.343,71.87
30.359,71.3
30.375,69.64
30.390,66.4
30.406,61.51
30.421,55.38
30.437,48.6
30.453,41.69
30.468,34.92
30.484,28.16
30.500,21.1
30.515,13.28
30.531,4.3
30.546,-6.17
30.562,-18.26
30.578,-31.78
30.593,-45.97
30.609,-59.45
30.625,-70.34
30.640,-76.61
30.656,-76.76
30.671,-70.29
30.687,-57.98
30.703,-41.66
30.718,-23.66
30.734,-6.17
30.750,9.28
30.765,22.02
30.781,32.12
30.796,40.02
30.812,46.25
30.828,51.11
30.843,54.58
30.859,56.45
30.875,56.5
30.890,54.78
30.906,51.73
30.921,48.09
30.937,44.63
30.953,41.8
30.968,39.6
30.984,37.59
31.000,35.23
31.015,32.19
31.031,28.57
31.046,24.8
31.062,21.33
31.078,18.25
31.093,15.16
31.109,11.3
31.125,5.95
31.140,-1.21
31.156,-9.86
31.171,-19.22
31.187,-28.33
31.203,-36.51
31.218,-43.56
31.234,-49.72
31.250,-55.47
31.265,-61.35
31.281,-67.73
31.296,-74.81
31.312,-82.46
31.328,-90.14
31.343,-96.71
31.359,-100.58
31.375,-99.96
31.390,-93.43
31.406,-80.53
31.421,-61.99
31.437,-39.62
31.453,-15.64
31.468,7.87
31.484,29.63
31.500,49.19
31.515,66.77
31.531,82.8
31.546,97.62
31.562,111.28
31.578,123.56
31.593,134.22
31.609,143.1
31.625,150.34
31.640,156.34
31.656,161.66
31.671,166.82
31.687,172.14
31.703,177.59
31.718,182.9
31.734,187.89
31.750,192.56
31.765,197.28
31.781,202.52
31.796,208.55
31.812,215.07
31.828,220.99
31.843,224.53
31.859,223.56
31.875,216.17
31.890,201.25
31.906,178.78
31.921,149.96
31.937,116.79
31.953,81.65
31.968,46.68
31.984,13.49
32.000,-16.92
32.015,-44.07
32.031,-67.83
32.046,-88.46
32.062,-106.49
32.078,-122.56
32.093,-136.94
32.109,-149.18
32.125,-158.05
32.140,-162.08
32.156,-160.37
32.171,-153.33
32.187,-142.63
32.203,-130.39
32.218,-118.11
32.234,-106.01
32.250,-93.36
32.265,-79.48
32.281,-64.87
32.296,-51.52
32.312,-42.29
32.328,-39.43
32.343,-43.47
32.359,-52.94
32.375,-65.09
32.390,-77.08
32.406,-87.08
32.421,-94.45
32.437,-99.36
32.453,-102.12
32.468,-102.64
32.484,-100.53
32.500,-95.45
32.515,-87.55
32.531,-77.66
32.546,-67.14
32.562,-57.4
32.578,-49.56
32.593,-44.06
32.609,-40.61
32.625,-38.32
32.640,-36.16
32.656,-33.27
32.671,-29.35
32.687,-24.79
32.703,-20.39
32.718,-17.12
32.734,-15.6
32.750,-15.82
32.765,-17.14
32.781,-18.54
32.796,-19.12
32.812,-18.53
32.828,-17.2
32.843,-16.24
32.859,-17.05
32.875,-20.84
32.890,-28.16
32.906,-38.74
32.921,-51.39
32.937,-64.25
32.953,-74.96
32.968,-81.0
32.984,-80.08
33.000,-70.58
33.015,-51.96
33.031,-24.7
33.046,9.91
33.062,50.36
33.078,95.46
33.093,144.38
33.109,196.14
33.125,248.74
33.140,298.62
33.156,340.69
33.171,369.58
33.187,381.19
33.203,374.06
33.218,349.95
33.234,313.4
33.250,270.58
33.265,227.84
33.281,190.5
33.296,161.64
33.312,141.67
33.328,128.31
33.343,117.49
33.359,104.74
33.375,86.79
33.390,62.6
33.406,33.41
33.421,2.01
33.437,-28.52
33.453,-55.69
33.468,-78.1
33.484,-95.37
33.500,-107.79
33.515,-116.22
33.531,-121.98
33.546,-126.8
33.562,-132.44
33.578,-140.2
33.593,-150.48
33.609,-162.71
33.625,-175.56
33.640,-187.2
33.656,-195.79
33.671,-199.73
33.687,-198.18
33.703,-191.44
33.718,-181.22
33.734,-170.47
33.750,-162.64
33.765,-160.77
33.781,-166.27
33.796,-178.52
33.812,-195.03
33.828,-212.32
33.843,-227.04
33.859,-236.88
33.875,-240.76
33.890,-238.52
33.906,-230.29
33.921,-216.01
33.937,-195.41
33.953,-168.39
33.968,-135.53
33.984,-98.32
34.000,-59.06
34.015,-20.33
34.031,15.75
34.046,47.9
34.062,75.84
34.078,100.07
34.093,121.5
34.109,141.06
34.125,159.48
34.140,177.13
34.156,194.04
34.171,209.74
34.187,223.31
34.203,233.46
34.218,238.81
34.234,238.28
34.250,231.59
34.265,219.6
34.281,204.26
34.296,188.24
34.312,174.2
34.328,164.16
34.343,159.11
34.359,159.08
34.375,163.46
34.390,171.32
34.406,181.6
34.421,192.76
34.437,202.63
34.453,208.31
34.468,206.84
34.484,196.23
34.500,176.43
34.515,149.73
34.531,120.19
34.546,92.21
34.562,69.16
34.578,52.44
34.593,41.45
34.609,34.07
34.625,27.67
34.640,19.71
34.656,8.36
34.671,-7.06
34.687,-25.83
34.703,-45.91
34.718,-64.46
34.734,-78.87
34.750,-87.83
34.765,-91.76
34.781,-92.48
34.796,-92.2
34.812,-92.4
34.828,-93.32
34.843,-94.2
34.859,-93.92
34.875,-91.52
34.890,-86.34
34.906,-77.76
34.921,-65.12
34.937,-48.01
34.953,-26.89
34.968,-3.47
34.984,19.65
35.000,40.07
35.015,56.75
35.031,70.35
35.046,82.65
35.062,94.89
35.078,106.4
35.093,114.26
35.109,114.16
35.125,102.32
35.140,77.08
35.156,39.58
35.171,-6.75
35.187,-57.27
35.203,-107.22
35.218,-152.46
35.234,-189.84
35.250,-217.68
35.265,-236.05
35.281,-246.85
35.296,-253.17
35.312,-258.05
35.328,-263.19
35.343,-268.32
35.359,-271.73
35.375,-271.59
35.390,-267.47
35.406,-260.8
35.421,-254.34
35.437,-250.79
35.453,-251.56
35.468,-256.37
35.484,-263.63
35.500,-271.51
35.515,-278.58
35.531,-284.06
35.546,-287.36
35.562,-287.39
35.578,-282.37
35.593,-270.19
35.609,-249.33
35.625,-219.67
35.640,-182.9
35.656,-142.09
35.671,-100.79
35.687,-61.95
35.703,-27.25
35.718,3.09
35.734,30.08
35.750,55.45
35.765,81.1
35.781,108.56
35.796,138.42
35.812,169.79
35.828,200.09
35.843,225.5
35.859,242.13
35.875,247.52
35.890,241.74
35.906,227.54
35.921,209.4
35.937,192.03
35.953,179.01
35.968,172.07
35.984,171.3
36.000,175.56
36.015,182.96
36.031,191.0
36.046,196.86
36.062,197.77
36.078,191.9
36.093,179.12
36.109,161.27
36.125,141.56
36.140,123.3
36.156,108.63
36.171,97.79
36.187,89.27
36.203,80.67
36.218,69.75
36.234,55.34
36.250,37.78
36.265,18.63
36.281,-0.04
36.296,-16.56
36.312,-30.49
36.328,-42.97
36.343,-56.33
36.359,-73.22
36.375,-95.59
36.390,-123.8
36.406,-156.52
36.421,-191.18
36.437,-224.73
36.453,-254.3
36.468,-277.47
36.484,-292.19
36.500,-296.76
36.515,-290.11
36.531,-272.42
36.546,-245.66
36.562,-213.63
36.578,-181.28
36.593,-153.35
36.609,-133.0
36.625,-120.9
36.640,-115.17
36.656,-112.38
36.671,-108.91
36.687,-102.2
36.703,-91.43
36.718,-77.35
36.734,-61.57
36.750,-45.68
36.765,-30.63
36.781,-16.57
36.796,-3.09
36.812,10.25
36.828,23.55
36.843,36.4
36.859,48.09
36.875,57.95
36.890,65.63
36.906,71.15
36.921,74.82
36.937,77.01
36.953,78.04
36.968,78.12
36.984,77.38
37.000,75.97
37.015,74.12
37.031,72.1
37.046,70.2
37.062,68.69
37.078,67.69
37.093,67.08
37.109,66.42
37.125,65.07
37.140,62.35
37.156,57.79
37.171,51.42
37.187,43.76
37.203,35.64
37.218,27.78
37.234,20.57
37.250,13.94
37.265,7.51
37.281,0.75
37.296,-6.78
37.312,-15.42
37.328,-25.41
37.343,-36.77
37.359,-49.16
37.375,-61.66
37.390,-72.7
37.406,-80.34
37.421,-82.8
37.437,-79.1
37.453,-69.35
37.468,-54.7
37.484,-36.95
37.500,-17.89
37.515,1.05
37.531,19.06
37.546,35.67
37.562,50.65
37.578,63.61
37.593,74.09
37.609,81.6
37.625,85.86
37.640,86.97
37.656,85.47
37.671,82.27
37.687,78.43
37.703,74.93
37.718,72.4
37.734,71.07
37.750,70.78
37.765,71.23
37.781,72.17
37.796,73.53
37.812,75.39
37.828,77.8
37.843,80.71
37.859,83.86
37.875,86.91
37.890,89.51
37.906,91.44
37.921,92.59
37.937,92.93
37.953,92.4
37.968,90.89
37.984,88.25
38.000,84.43
38.015,79.5
38.031,73.71
38.046,67.39
38.062,60.84
38.078,54.26
38.093,47.71
38.109,41.2
38.125,34.71
38.140,28.21
38.156,21.64
38.171,14.86
38.187,7.66
38.203,-0.05
38.218,-8.04
38.234,-15.6
38.250,-21.53
38.265,-24.39
38.281,-22.86
38.296,-16.06
38.312,-3.75
38.328,13.6
38.343,34.96
38.359,58.86
38.375,83.66
38.390,107.76
38.406,129.99
38.421,149.69
38.437,166.91
38.453,182.14
38.468,196.08
38.484,209.32
38.500,222.0
38.515,233.66
38.531,243.08
38.546,248.35
38.562,247.14
38.578,237.32
38.593,217.74
38.609,188.9
38.625,153.26
38.640,114.77
38.656,77.84
38.671,46.13
38.687,21.84
38.703,5.61
38.718,-2.78
38.734,-3.62
38.750,3.11
38.765,17.59
38.781,39.29
38.796,66.41
38.812,95.74
38.828,123.29
38.843,145.3
38.859,159.27
38.875,164.35
38.890,161.18
38.906,151.51
38.921,137.74
38.937,122.63
38.953,108.84
38.968,98.28
38.984,91.41
39.000,86.79
39.015,81.31
39.031,71.35
39.046,54.24
39.062,29.54
39.078,-0.68
39.093,-32.74
39.109,-62.96
39.125,-88.9
39.140,-109.63
39.156,-125.04
39.171,-134.59
39.187,-136.48
39.203,-128.13
39.218,-107.62
39.234,-75.62
39.250,-36.55
39.265,2.04
39.281,31.67
39.296,45.93
39.312,42.73
39.328,24.77
39.343,-1.91
39.359,-30.51
39.375,-55.75
39.390,-75.16
39.406,-88.96
39.421,-99.18
39.437,-108.42
39.453,-118.82
39.468,-131.35
39.484,-145.56
39.500,-159.61
39.515,-170.76
39.531,-176.18
39.546,-173.96
39.562,-163.79
39.578,-147.02
39.593,-125.98
39.609,-102.98
39.625,-79.35
39.640,-54.99
39.656,-28.63
39.671,1.26
39.687,35.25
39.703,71.94
39.718,107.6
39.734,136.94
39.750,154.54
39.765,156.55
39.781,141.89
39.796,112.4
39.812,72.2
39.828,26.44
39.843,-19.74
39.859,-62.12
39.875,-97.75
39.890,-125.39
39.906,-145.48
39.921,-159.95
39.937,-171.43
39.953,-182.34
39.968,-193.99
39.984,-206.51
40.000,-219.06
40.015,-230.51
40.031,-239.73
40.046,-245.38
40.062,-245.58
40.078,-237.88
40.093,-220.01
40.109,-191.01
40.125,-152.26
40.140,-107.48
40.156,-61.63
40.171,-19.29
40.187,16.98
40.203,47.18
40.218,73.26
40.234,97.99
40.250,123.73
40.265,151.59
40.281,181.14
40.296,210.39
40.312,235.91
40.328,253.33
40.343,258.23
40.359,247.53
40.375,220.9
40.390,181.69
40.406,136.41
40.421,93.05
40.437,58.55
40.453,36.48
40.468,26.1
40.484,23.07
40.500,21.43
40.515,16.06
40.531,4.42
40.546,-13.11
40.562,-34.06
40.578,-55.56
40.593,-75.79
40.609,-94.81
40.625,-114.12
40.640,-135.7
40.656,-160.75
40.671,-189.02
40.687,-219.0
40.703,-248.66
40.718,-276.42
40.734,-301.85
40.750,-325.42
40.765,-347.66
40.781,-368.13
40.796,-384.71
40.812,-394.01
40.828,-392.67
40.843,-379.01
40.859,-354.19
40.875,-322.23
40.890,-288.66
40.906,-258.69
40.921,-235.61
40.937,-220.11
40.953,-210.79
40.968,-205.27
40.984,-201.23
41.000,-196.91
41.015,-191.0
41.031,-182.35
41.046,-169.79
41.062,-152.38
41.078,-129.79
41.093,-102.61
41.109,-72.38
41.125,-41.23
41.140,-11.35
41.156,15.59
41.171,38.71
41.187,58.01
41.203,74.2
41.218,88.28
41.234,101.15
41.250,113.22
41.265,124.3
41.281,133.76
41.296,140.93
41.312,145.48
41.328,147.63
41.343,148.04
41.359,147.54
41.375,146.72
41.390,145.86
41.406,144.94
41.421,143.82
41.437,142.47
41.453,140.87
41.468,138.92
41.484,136.26
41.500,132.42
41.515,127.01
41.531,120.05
41.546,112.05
41.562,103.83
41.578,96.17
41.593,89.49
41.609,83.62
41.625,78.07
41.640,72.27
41.656,65.9
41.671,59.06
41.687,52.15
41.703,45.64
41.718,39.94
41.734,35.21
41.750,31.37
41.765,28.11
41.781,24.94
41.796,21.18
41.812,16.08
41.828,9.08
41.843,0.09
41.859,-10.13
41.875,-19.97
41.890,-27.14
41.906,-29.35
41.921,-24.97
41.937,-13.67
41.953,3.43
41.968,24.27
41.984,46.58
42.000,68.78
42.015,90.4
42.031,111.93
42.046,134.23
42.062,157.76
42.078,182.08
42.093,205.88
42.109,227.53
42.125,245.9
42.140,260.87
42.156,273.47
42.171,285.44
42.187,298.49
42.203,313.65
42.218,330.81
42.234,348.57
42.250,364.51
42.265,375.64
42.281,379.0
42.296,372.34
42.312,354.83
42.328,327.52
42.343,293.47
42.359,257.11
42.375,223.03
42.390,194.38
42.406,171.92
42.421,153.88
42.437,137.0
42.453,118.08
42.468,95.16
42.484,67.92
42.500,37.15
42.515,3.72
42.531,-32.14
42.546,-70.67
42.562,-111.79
42.578,-154.26
42.593,-195.57
42.609,-232.8
42.625,-264.07
42.640,-289.61
42.656,-311.69
42.671,-333.62
42.687,-358.2
42.703,-386.41
42.718,-416.89
42.734,-446.26
42.750,-469.93
42.765,-483.21
42.781,-482.36
42.796,-465.63
42.812,-433.89
42.828,-390.72
42.843,-341.58
42.859,-292.36
42.875,-247.74
42.890,-210.05
42.906,-179.23
42.921,-153.72
42.937,-131.73
42.953,-112.12
42.968,-94.5
42.984,-78.71
43.000,-64.29
43.015,-50.28
43.031,-35.6
43.046,-19.65
43.062,-2.66
43.078,14.44
43.093,30.6
43.109,45.24
43.125,58.74
43.140,72.17
43.156,86.71
43.171,102.98
43.187,120.59
43.203,138.18
43.218,153.91
43.234,166.17
43.250,174.04
43.265,177.51
43.281,177.23
43.296,174.06
43.312,168.74
43.328,161.61
43.343,152.66
43.359,141.74
43.375,128.87
43.390,114.48
43.406,99.64
43.421,86.0
43.437,75.54
43.453,70.14
43.468,71.14
43.484,78.67
43.500,91.36
43.515,106.19
43.531,118.76
43.546,124.06
43.562,117.67
43.578,96.92
43.593,61.93
43.609,15.87
43.625,-35.39
43.640,-84.48
43.656,-124.14
43.671,-148.83
43.687,-155.91
43.703,-146.03
43.718,-122.86
43.734,-92.04
43.750,-59.94
43.765,-32.3
43.781,-13.17
43.796,-4.13
43.812,-3.95
43.828,-8.85
43.843,-13.41
43.859,-12.35
43.875,-2.45
43.890,15.89
43.906,38.52
43.921,58.93
43.937,70.79
43.953,70.43
43.968,57.96
43.984,36.8
44.000,12.0
44.015,-11.74
44.031,-30.98
44.046,-43.51
44.062,-47.77
44.078,-42.4
44.093,-26.7
44.109,-1.27
44.125,31.57
44.140,68.39
44.156,105.76
44.171,141.34
44.187,173.99
44.203,202.97
44.218,226.8
44.234,242.74
44.250,247.38
44.265,238.03
44.281,214.1
44.296,177.41
44.312,131.54
44.328,80.54
44.343,27.93
44.359,-23.62
44.375,-72.07
44.390,-115.62
44.406,-152.79
44.421,-182.78
44.437,-205.94
44.453,-223.68
44.468,-238.21
44.484,-251.57
44.500,-264.82
44.515,-277.28
44.531,-286.16
44.546,-286.89
44.562,-273.99
44.578,-242.97
44.593,-192.44
44.609,-125.95
44.625,-52.02
44.640,17.71
44.656,72.0
44.671,103.56
44.687,111.16
44.703,99.51
44.718,77.12
44.734,53.18
44.750,34.7
44.765,25.14
44.781,24.21
44.796,29.18
44.812,36.37
44.828,42.71
44.843,46.55
44.859,47.87
44.875,47.85
44.890,48.13
44.906,49.91
44.921,53.21
44.937,56.51
44.953,56.96
44.968,51.08
44.984,35.75
45.000,9.29
45.015,-27.75
45.031,-72.45
45.046,-120.06
45.062,-165.31
45.078,-203.76
45.093,-232.71
45.109,-251.49
45.125,-260.99
45.140,-262.98
45.156,-259.53
45.171,-252.59
45.187,-243.83
45.203,-234.52
45.218,-225.41
45.234,-216.71
45.250,-208.3
45.265,-199.92
45.281,-191.64
45.296,-183.94
45.312,-177.57
45.328,-173.11
45.343,-170.48
45.359,-168.62
45.375,-165.55
45.390,-158.92
45.406,-146.68
45.421,-127.71
45.437,-102.29
45.453,-71.98
45.468,-39.33
45.484,-7.19
45.500,21.89
45.515,46.23
45.531,65.23
45.546,79.43
45.562,90.16
45.578,99.13
45.593,107.96
45.609,117.85
45.625,129.4
45.640,142.7
45.656,157.46
45.671,173.24
45.687,189.62
45.703,206.27
45.718,223.02
45.734,239.82
45.750,256.67
45.765,273.41
45.781,289.53
45.796,304.05
45.812,315.54
45.828,322.5
45.843,323.81
45.859,319.31
45.875,310.1
45.890,298.46
45.906,287.24
45.921,278.82
45.937,274.2
45.953,272.45
45.968,270.97
45.984,266.62
46.000,257.06
46.015,241.8
46.031,222.5
46.046,202.24
46.062,184.38
46.078,171.22
46.093,163.11
46.109,158.25
46.125,153.25
46.140,144.28
46.156,128.22
46.171,103.51
46.187,70.52
46.203,31.28
46.218,-11.18
46.234,-53.7
46.250,-93.77
46.265,-129.86
46.281,-161.47
46.296,-188.87
46.312,-212.88
46.328,-234.33
46.343,-253.52
46.359,-269.77
46.375,-281.38
46.390,-286.24
46.406,-283.04
46.421,-272.51
46.437,-257.65
46.453,-243.01
46.468,-233.0
46.484,-230.27
46.500,-234.94
46.515,-245.07
46.531,-257.88
46.546,-270.83
46.562,-282.06
46.578,-289.82
46.593,-291.82
46.609,-285.13
46.625,-266.97
46.640,-236.17
46.656,-194.2
46.671,-145.33
46.687,-95.54
46.703,-50.87
46.718,-15.72
46.734,7.96
46.750,20.6
46.765,24.14
46.781,21.03
46.796,13.48
46.812,3.11
46.828,-9.08
46.843,-22.46
46.859,-36.58
46.875,-50.97
46.890,-65.11
46.906,-78.35
46.921,-90.06
46.937,-99.77
46.953,-107.36
46.968,-113.31
46.984,-118.52
47.000,-124.06
47.015,-130.64
47.031,-138.11
47.046,-145.18
47.062,-149.66
47.078,-148.97
47.093,-141.08
47.109,-125.25
47.125,-102.32
47.140,-74.55
47.156,-44.78
47.171,-15.41
47.187,12.41
47.203,39.15
47.218,66.61
47.234,96.95
47.250,131.53
47.265,170.09
47.281,210.25
47.296,248.03
47.312,278.83
47.328,298.77
47.343,305.75
47.359,300.06
47.375,284.23
47.390,262.23
47.406,238.52
47.421,216.93
47.437,199.94
47.453,188.3
47.468,180.85
47.484,174.98
47.500,167.24
47.515,154.37
47.531,134.32
47.546,106.93
47.562,73.99
47.578,38.65
47.593,4.49
47.609,-25.57
47.625,-49.85
47.640,-68.07
47.656,-80.87
47.671,-89.33
47.687,-94.48
47.703,-97.18
47.718,-98.09
47.734,-97.84
47.750,-97.06
47.765,-96.33
47.781,-95.91
47.796,-95.7
47.812,-95.14
47.828,-93.58
47.843,-90.63
47.859,-86.55
47.875,-82.31
47.890,-79.39
47.906,-79.21
47.921,-82.57
47.937,-89.4
47.953,-98.79
47.968,-109.36
47.984,-119.71
48.000,-128.64
48.015,-135.23
48.031,-138.68
48.046,-138.28
48.062,-133.38
48.078,-123.65
48.093,-109.31
48.109,-91.36
48.125,-71.45
48.140,-51.61
48.156,-33.69
48.171,-18.9
48.187,-7.45
48.203,1.38
48.218,8.88
48.234,16.38
48.250,24.8
48.265,34.37
48.281,44.78
48.296,55.38
48.312,65.56
48.328,74.86
48.343,83.03
48.359,89.93
48.375,95.42
48.390,99.4
48.406,101.87
48.421,103.18
48.437,103.94
48.453,105.03
48.468,107.26
48.484,111.12
48.500,116.55
48.515,122.91
48.531,129.3
48.546,134.87
48.562,139.15
48.578,142.21
48.593,144.57
48.609,146.91
48.625,149.67
48.640,152.89
48.656,156.17
48.671,158.93
48.687,160.93
48.703,162.53
48.718,164.82
48.734,169.16
48.750,176.64
48.765,187.53
48.781,201.09
48.796,215.75
48.812,229.54
48.828,240.45
48.843,246.67
48.859,246.59
48.875,238.94
48.890,223.13
48.906,199.71
48.921,170.67
48.937,139.2
48.953,108.82
48.968,82.38
48.984,61.19
49.000,44.95
49.015,32.36
49.031,22.1
49.046,13.77
49.062,8.09
49.078,6.53
49.093,10.58
49.109,20.93
49.125,36.96
49.140,56.73
49.156,77.22
49.171,94.82
49.187,105.95
49.203,107.68
49.218,98.31
49.234,77.74
49.250,47.64
49.265,11.12
49.281,-27.9
49.296,-65.4
49.312,-98.05
49.328,-123.8
49.343,-142.06
49.359,-153.63
49.375,-160.31
49.390,-164.28
49.406,-167.2
49.421,-169.61
49.437,-170.72
49.453,-169.03
49.468,-163.42
49.484,-154.35
49.500,-144.31
49.515,-137.35
49.531,-137.48
49.546,-146.83
49.562,-164.29
49.578,-185.56
49.593,-204.58
49.609,-215.66
49.625,-215.45
49.640,-203.7
49.656,-182.69
49.671,-155.69
49.687,-125.53
49.703,-93.84
49.718,-61.52
49.734,-29.6
49.750,-0.1
49.765,24.05
49.781,40.02
49.796,46.44
49.812,44.38
49.828,37.23
49.843,29.63
49.859,25.74
49.875,28.07
49.890,36.93
49.906,51.02
49.921,68.37
49.937,87.26
49.953,106.67
49.968,126.15
49.984,145.48
50.000,164.33
50.015,182.24
50.031,198.81
50.046,214.04
50.062,228.44
50.078,242.73
50.093,257.17
50.109,270.85
50.125,281.37
50.140,285.2
50.156,278.76
50.171,259.66
50.187,227.84
50.203,185.61
50.218,137.0
50.234,86.3
50.250,36.67
50.265,-10.67
50.281,-56.42
50.296,-102.27
50.312,-149.68
50.328,-198.71
50.343,-247.51
50.359,-292.69
50.375,-330.36
50.390,-357.38
50.406,-372.39
50.421,-376.05
50.437,-370.55
50.453,-358.83
50.468,-343.62
50.484,-326.98
50.500,-310.03
50.515,-292.93
50.531,-275.02
50.546,-255.09
50.562,-231.97
50.578,-205.2
50.593,-175.72
50.609,-145.96
50.625,-119.24
50.640,-98.6
50.656,-85.68
50.671,-80.23
50.687,-80.36
50.703,-83.36
50.718,-86.56
50.734,-87.86
50.750,-85.97
50.765,-80.26
50.781,-70.73
50.796,-58.0
50.812,-43.33
50.828,-28.42
50.843,-15.03
50.859,-4.49
50.875,2.65
50.890,6.77
50.906,8.91
50.921,10.24
50.937,11.69
50.953,13.55
50.968,15.51
50.984,16.92
51.000,17.17
51.015,15.97
51.031,13.51
51.046,10.39
51.062,7.23
51.078,4.4
51.093,1.83
51.109,-1.01
51.125,-4.92
51.140,-10.64
51.156,-18.48
51.171,-28.12
51.187,-38.5
51.203,-47.86
51.218,-54.17
51.234,-55.6
51.250,-51.14
51.265,-40.85
51.281,-25.92
51.296,-8.27
51.312,10.02
51.328,27.29
51.343,42.66
51.359,56.06
51.375,67.9
51.390,78.77
51.406,89.01
51.421,98.59
51.437,107.21
51.453,114.33
51.468,119.5
51.484,122.45
51.500,123.24
51.515,122.22
51.531,119.96
51.546,117.07
51.562,114.17
51.578,111.65
51.593,109.75
51.609,108.5
51.625,107.72
51.640,107.12
51.656,106.25
51.671,104.61
51.687,101.74
51.703,97.39
51.718,91.61
51.734,84.75
51.750,77.43
51.765,70.26
51.781,63.67
51.796,57.7
51.812,52.01
51.828,46.02
51.843,39.16
51.859,31.05
51.875,21.69
51.890,11.39
51.906,0.61
51.921,-10.2
51.937,-20.84
51.953,-31.37
51.968,-42.04
51.984,-53.14
52.000,-64.65
52.015,-76.1
52.031,-86.48
52.046,-94.32
52.062,-98.13
52.078,-96.78
52.093,-89.92
52.109,-78.15
52.125,-62.8
52.140,-45.56
52.156,-27.93
52.171,-10.9
52.187,5.16
52.203,20.28
52.218,34.6
52.234,48.03
52.250,60.23
52.265,70.7
52.281,78.96
52.296,84.77
52.312,88.23
52.328,89.59
52.343,89.22
52.359,87.47
52.375,84.6
52.390,80.94
52.406,76.86
52.421,72.92
52.437,69.64
52.453,67.36
52.468,66.05
52.484,65.19
52.500,64.02
52.515,61.68
52.531,57.62
52.546,51.71
52.562,44.33
52.578,36.19
52.593,28.08
52.609,20.58
52.625,13.89
52.640,7.8
52.656,1.9
52.671,-4.23
52.687,-10.78
52.703,-17.64
52.718,-24.59
52.734,-31.48
52.750,-38.4
52.765,-45.69
52.781,-53.78
52.796,-62.92
52.812,-73.05
52.828,-83.58
52.843,-93.48
52.859,-101.37
52.875,-105.68
52.890,-105.05
52.906,-98.75
52.921,-86.92
52.937,-70.63
52.953,-51.59
52.968,-31.63
52.984,-12.2
53.000,5.91
53.015,22.55
53.031,37.89
53.046,52.2
53.062,65.53
53.078,77.75
53.093,88.54
53.109,97.59
53.125,104.66
53.140,109.74
53.156,113.02
53.171,114.88
53.187,115.83
53.203,116.39
53.218,117.0
53.234,117.89
53.250,119.14
53.265,120.62
53.281,122.1
53.296,123.21
53.312,123.44
53.328,122.2
53.343,118.97
53.359,113.41
53.375,105.51
53.390,95.39
53.406,83.23
53.421,68.95
53.437,52.33
53.453,33.13
53.468,11.44
53.484,-12.03
53.500,-36.02
53.515,-59.06
53.531,-79.89
53.546,-97.87
53.562,-113.18
53.578,-126.54
53.593,-138.99
53.609,-151.45
53.625,-164.37
53.640,-177.45
53.656,-189.58
53.671,-198.98
53.687,-203.76
53.703,-202.51
53.718,-194.81
53.734,-181.48
53.750,-164.25
53.765,-145.19
53.781,-126.06
53.796,-108.05
53.812,-91.65
53.828,-76.98
53.843,-64.0
53.859,-52.68
53.875,-42.92
53.890,-34.54
53.906,-27.22
53.921,-20.66
53.937,-14.69
53.953,-9.31
53.968,-4.65
53.984,-0.84
54.000,2.2
54.015,4.74
54.031,7.19
54.046,9.91
54.062,13.07
54.078,16.55
54.093,20.02
54.109,23.07
54.125,25.31
54.140,26.49
54.156,26.55
54.171,25.6
54.187,23.88
54.203,21.63
54.218,19.05
54.234,16.17
54.250,12.88
54.265,9.01
54.281,4.44
54.296,-0.81
54.312,-6.57
54.328,-12.57
54.343,-18.68
54.359,-24.95
54.375,-31.72
54.390,-39.52
54.406,-48.82
54.421,-59.81
54.437,-72.05
54.453,-84.36
54.468,-94.92
54.484,-101.75
54.500,-103.2
54.515,-98.5
54.531,-87.97
54.546,-72.92
54.562,-55.17
54.578,-36.52
54.593,-18.35
54.609,-1.45
54.625,13.92
54.640,27.8
54.656,40.29
54.671,51.46
54.687,61.28
54.703,69.69
54.718,76.63
54.734,82.08
54.750,85.98
54.765,88.31
54.781,89.0
54.796,88.1
54.812,85.76
54.828,82.36
54.843,78.51
54.859,74.85
54.875,71.86
54.890,69.68
54.906,67.99
54.921,66.11
54.937,63.37
54.953,59.26
54.968,53.73
54.984,47.13
55.000,40.05
55.015,33.06
55.031,26.49
55.046,20.34
55.062,14.34
55.078,8.11
55.093,1.37
55.109,-5.93
55.125,-13.57
55.140,-21.15
55.156,-28.27
55.171,-34.65
55.187,-40.28
55.203,-45.47
55.218,-50.74
55.234,-56.75
55.250,-63.93
55.265,-72.23
55.281,-80.92
55.296,-88.49
55.312,-93.08
55.328,-92.88
55.343,-86.82
55.359,-74.95
55.375,-58.46
55.390,-39.32
55.406,-19.65
55.421,-1.17
55.437,15.19
55.453,29.18
55.468,41.04
55.484,51.12
55.500,59.67
55.515,66.83
55.531,72.61
55.546,77.02
55.562,80.13
55.578,82.06
55.593,82.93
55.609,82.86
55.625,81.93
55.640,80.29
55.656,78.19
55.671,76.0
55.687,74.12
55.703,72.84
55.718,72.15
55.734,71.68
55.750,70.81
55.765,68.87
55.781,65.39
55.796,60.31
55.812,53.98
55.828,47.01
55.843,40.08
55.859,33.72
55.875,28.13
55.890,23.22
55.906,18.65
55.921,13.92
55.937,8.61
55.953,2.49
55.968,-4.42
55.984,-11.8
56.000,-19.21
56.015,-26.25
56.031,-32.79
56.046,-39.02
56.062,-45.34
56.078,-52.15
56.093,-59.46
56.109,-66.73
56.125,-72.82
56.140,-76.31
56.156,-75.95
56.171,-71.05
56.187,-61.78
56.203,-49.05
56.218,-34.24
56.234,-18.8
56.250,-3.95
56.265,9.53
56.281,21.27
56.296,31.22
56.312,39.49
56.328,46.2
56.343,51.37
56.359,54.98
56.375,57.06
56.390,57.74
56.406,57.34
56.421,56.35
56.437,55.27
56.453,54.44
56.468,53.96
56.484,53.71
56.500,53.47
56.515,53.11
56.531,52.58
56.546,51.93
56.562,51.14
56.578,50.07
56.593,48.5
56.609,46.17
56.625,42.94
56.640,38.85
56.656,34.06
56.671,28.84
56.687,23.43
56.703,18.01
56.718,12.68
56.734,7.42
56.750,2.16
56.765,-3.31
56.781,-9.19
56.796,-15.66
56.812,-22.79
56.828,-30.49
56.843,-38.56
56.859,-46.73
56.875,-54.57
56.890,-61.5
56.906,-66.72
56.921,-69.3
56.937,-68.39
56.953,-63.53
56.968,-54.84
56.984,-43.16
57.000,-29.77
57.015,-16.18
57.031,-3.75
57.046,6.54
57.062,14.25
57.078,19.45
57.093,22.68
57.109,24.8
57.125,26.77
57.140,29.47
57.156,33.46
57.171,38.85
57.187,45.27
57.203,52.07
57.218,58.42
57.234,63.57
57.250,66.98
57.265,68.36
57.281,67.71
57.296,65.25
57.312,61.3
57.328,56.21
57.343,50.23
57.359,43.48
57.375,36.06
57.390,28.11
57.406,19.88
57.421,11.76
57.437,4.18
57.453,-2.55
57.468,-8.37
57.484,-13.45
57.500,-18.05
57.515,-22.46
57.531,-26.79
57.546,-31.04
57.562,-35.18
57.578,-39.26
57.593,-43.45
57.609,-48.04
57.625,-53.33
57.640,-59.47
57.656,-66.44
57.671,-73.92
57.687,-81.36
57.703,-87.88
57.718,-92.47
57.734,-94.09
57.750,-91.95
57.765,-85.77
57.781,-75.87
57.796,-63.2
57.812,-48.99
57.828,-34.43
57.843,-20.4
57.859,-7.43
57.875,4.29
57.890,14.64
57.906,23.53
57.921,30.77
57.937,36.19
57.953,39.72
57.968,41.36
57.984,41.28
58.000,39.71
58.015,37.01
58.031,33.57
58.046,29.86
58.062,26.28
58.078,23.11
58.093,20.44
58.109,18.16
58.125,16.06
58.140,13.85
58.156,11.34
58.171,8.35
58.187,4.73
58.203,0.36
58.218,-4.84
58.234,-10.9
58.250,-17.74
58.265,-25.17
58.281,-33.01
58.296,-41.13
58.312,-49.54
58.328,-58.26
58.343,-67.27
58.359,-76.45
58.375,-85.58
58.390,-94.44
58.406,-102.88
58.421,-110.94
58.437,-118.72
58.453,-126.34
58.468,-133.77
58.484,-140.72
58.500,-146.65
58.515,-150.9
58.531,-152.84
58.546,-152.14
58.562,-148.82
58.578,-143.27
58.593,-136.06
58.609,-127.55
58.625,-117.7
58.640,-105.92
58.656,-91.28
58.671,-72.99
58.687,-50.95
58.703,-26.14
58.718,-0.53
58.734,23.42
58.750,43.62
58.765,58.9
58.781,69.28
58.796,75.71
58.812,79.62
58.828,82.48
58.843,85.56
58.859,89.78
58.875,95.59
58.890,102.84
58.906,110.6
58.921,117.3
58.937,121.09
58.953,120.58
58.968,115.43
58.984,106.7
59.000,96.53
59.015,87.39
59.031,81.21
59.046,78.68
59.062,79.13
59.078,80.93
59.093,82.12
59.109,81.23
59.125,77.66
59.140,71.86
59.156,64.96
59.171,58.4
59.187,53.46
59.203,50.98
59.218,51.19
59.234,53.73
59.250,57.65
59.265,61.57
59.281,63.92
59.296,63.32
59.312,59.09
59.328,51.5
59.343,41.94
59.359,32.58
59.375,25.76
59.390,23.3
59.406,25.81
59.421,32.5
59.437,41.37
59.453,49.89
59.468,55.79
59.484,57.69
59.500,55.3
59.515,49.32
59.531,40.95
59.546,31.4
59.562,21.59
59.578,11.98
59.593,2.66
59.609,-6.44
59.625,-15.34
59.640,-23.88
59.656,-31.74
59.671,-38.6
59.687,-44.42
59.703,-49.52
59.718,-54.54
59.734,-60.18
59.750,-66.82
59.765,-74.36
59.781,-82.23
59.796,-89.7
59.812,-96.11
59.828,-101.14
59.843,-104.69
59.859,-106.7
59.875,-106.97
59.890,-105.13
59.906,-100.87
59.921,-94.23
59.937,-85.7
59.953,-76.28
59.968,-67.04
59.984,-58.92
