timestamp,value
00.000,15.37
00.015,14.98
00.031,14.87
00.046,14.9
00.062,14.83
00.078,14.49
00.093,13.88
00.109,13.13
00.125,12.44
00.140,11.84
00.156,11.25
00.171,10.45
00.187,9.27
00.203,7.66
00.218,5.74
00.234,3.65
00.250,1.51
00.265,-0.65
00.281,-2.88
00.296,-5.2
00.312,-7.61
00.328,-10.01
00.343,-12.22
00.359,-14.07
00.375,-15.52
00.390,-16.76
00.406,-18.08
00.421,-19.91
00.437,-22.46
00.453,-25.65
00.468,-29.05
00.484,-31.89
00.500,-33.39
00.515,-32.98
00.531,-30.62
00.546,-26.59
00.562,-21.55
00.578,-16.13
00.593,-10.78
00.609,-5.81
00.625,-1.27
00.640,2.85
00.656,6.61
00.671,9.98
00.687,12.97
00.703,15.56
00.718,17.7
00.734,19.32
00.750,20.4
00.765,20.94
00.781,21.03
00.796,20.83
00.812,20.52
00.828,20.26
00.843,20.07
00.859,19.95
00.875,19.83
00.890,19.66
00.906,19.4
00.921,18.94
00.937,18.2
00.953,17.06
00.968,15.48
00.984,13.48
01.000,11.16
01.015,8.69
01.031,6.14
01.046,3.56
01.062,0.9
01.078,-1.86
01.093,-4.68
01.109,-7.45
01.125,-10.11
01.140,-12.63
01.156,-14.99
01.171,-17.31
01.187,-19.65
01.203,-22.12
01.218,-24.74
01.234,-27.45
01.250,-30.06
01.265,-32.23
01.281,-33.47
01.296,-33.26
01.312,-31.2
01.328,-27.17
01.343,-21.44
01.359,-14.58
01.375,-7.34
01.390,-0.43
01.406,5.73
01.421,11.02
01.437,15.59
01.453,19.75
01.468,23.76
01.484,27.7
01.500,31.55
01.515,35.21
01.531,38.61
01.546,41.8
01.562,44.87
01.578,47.9
01.593,50.9
01.609,53.89
01.625,56.91
01.640,60.09
01.656,63.68
01.671,67.92
01.687,73.01
01.703,78.98
01.718,85.77
01.734,93.15
01.750,100.97
01.765,108.96
01.781,116.84
01.796,124.24
01.812,130.76
01.828,136.09
01.843,140.06
01.859,142.69
01.875,144.14
01.890,144.62
01.906,144.28
01.921,143.22
01.937,141.45
01.953,139.0
01.968,135.86
01.984,131.99
02.000,127.32
02.015,121.74
02.031,115.16
02.046,107.68
02.062,99.73
02.078,92.08
02.093,85.75
02.109,81.75
02.125,80.72
02.140,82.84
02.156,87.68
02.171,94.54
02.187,102.64
02.203,111.37
02.218,120.37
02.234,129.3
02.250,137.81
02.265,145.49
02.281,152.15
02.296,157.98
02.312,163.6
02.328,169.71
02.343,176.59
02.359,183.73
02.375,189.66
02.390,192.42
02.406,190.12
02.421,181.62
02.437,166.9
02.453,146.97
02.468,123.54
02.484,98.46
02.500,73.37
02.515,49.46
02.531,27.48
02.546,7.76
02.562,-9.6
02.578,-24.68
02.593,-37.67
02.609,-48.83
02.625,-58.46
02.640,-66.78
02.656,-73.9
02.671,-79.82
02.687,-84.5
02.703,-88.05
02.718,-90.82
02.734,-93.45
02.750,-96.66
02.765,-101.08
02.781,-107.05
02.796,-114.58
02.812,-123.37
02.828,-133.06
02.843,-143.41
02.859,-154.48
02.875,-166.65
02.890,-180.66
02.906,-197.42
02.921,-217.63
02.937,-241.2
02.953,-266.77
02.968,-291.62
02.984,-312.22
03.000,-325.28
03.015,-328.84
03.031,-322.91
03.046,-309.29
03.062,-290.65
03.078,-269.37
03.093,-246.92
03.109,-223.81
03.125,-200.07
03.140,-175.97
03.156,-152.17
03.171,-129.49
03.187,-108.54
03.203,-89.42
03.218,-71.81
03.234,-55.27
03.250,-39.61
03.265,-24.76
03.281,-10.88
03.296,1.8
03.312,12.86
03.328,21.46
03.343,26.13
03.359,25.06
03.375,16.66
03.390,0.37
03.406,-22.67
03.421,-49.78
03.437,-77.45
03.453,-102.43
03.468,-122.73
03.484,-137.93
03.500,-148.82
03.515,-156.6
03.531,-162.22
03.546,-166.0
03.562,-167.83
03.578,-167.41
03.593,-164.57
03.609,-159.35
03.625,-151.79
03.640,-141.99
03.656,-130.08
03.671,-116.37
03.687,-101.58
03.703,-86.77
03.718,-73.1
03.734,-61.55
03.750,-52.7
03.765,-46.48
03.781,-42.35
03.796,-39.47
03.812,-36.96
03.828,-34.23
03.843,-31.11
03.859,-27.77
03.875,-24.55
03.890,-21.68
03.906,-19.14
03.921,-16.63
03.937,-13.72
03.953,-10.14
03.968,-5.9
03.984,-1.36
04.000,2.87
04.015,6.17
04.031,8.11
04.046,8.62
04.062,7.94
04.078,6.59
04.093,5.12
04.109,3.9
04.125,2.93
04.140,1.88
04.156,0.05
04.171,-3.33
04.187,-8.83
04.203,-16.6
04.218,-26.2
04.234,-36.62
04.250,-46.4
04.265,-53.97
04.281,-57.94
04.296,-57.39
04.312,-52.09
04.328,-42.59
04.343,-30.09
04.359,-16.17
04.375,-2.43
04.390,9.92
04.406,20.17
04.421,28.28
04.437,34.64
04.453,39.87
04.468,44.5
04.484,48.98
04.500,53.5
04.515,58.13
04.531,62.78
04.546,67.18
04.562,70.88
04.578,73.39
04.593,74.3
04.609,73.46
04.625,71.07
04.640,67.54
04.656,63.31
04.671,58.5
04.687,52.93
04.703,46.14
04.718,37.73
04.734,27.49
04.750,15.69
04.765,2.94
04.781,-9.95
04.796,-22.23
04.812,-33.41
04.828,-43.49
04.843,-52.9
04.859,-62.4
04.875,-72.64
04.890,-83.66
04.906,-94.68
04.921,-104.06
04.937,-109.93
04.953,-110.93
04.968,-106.81
04.984,-98.42
05.000,-87.25
05.015,-74.66
05.031,-61.44
05.046,-47.93
05.062,-34.48
05.078,-21.82
05.093,-11.03
05.109,-3.06
05.125,1.82
05.140,4.15
05.156,4.85
05.171,4.6
05.187,3.36
05.203,0.5
05.218,-4.52
05.234,-11.4
05.250,-18.78
05.265,-24.66
05.281,-27.37
05.296,-26.27
05.312,-21.99
05.328,-15.93
05.343,-9.48
05.359,-3.37
05.375,2.36
05.390,8.07
05.406,13.89
05.421,19.6
05.437,24.58
05.453,28.26
05.468,30.38
05.484,31.06
05.500,30.52
05.515,28.62
05.531,24.69
05.546,17.71
05.562,6.88
05.578,-7.68
05.593,-24.68
05.609,-41.86
05.625,-56.59
05.640,-66.85
05.656,-71.93
05.671,-72.53
05.687,-70.32
05.703,-67.06
05.718,-63.68
05.734,-60.08
05.750,-55.27
05.765,-48.13
05.781,-38.0
05.796,-25.05
05.812,-10.19
05.828,5.39
05.843,20.5
05.859,34.35
05.875,46.42
05.890,56.49
05.906,64.44
05.921,70.44
05.937,74.91
05.953,78.66
05.968,82.71
05.984,87.89
06.000,94.4
06.015,101.31
06.031,106.63
06.046,107.73
06.062,102.24
06.078,88.93
06.093,68.28
06.109,42.38
06.125,14.21
06.140,-13.31
06.156,-38.07
06.171,-58.94
06.187,-75.56
06.203,-87.93
06.218,-96.09
06.234,-100.2
06.250,-100.64
06.265,-98.32
06.281,-94.55
06.296,-90.82
06.312,-88.4
06.328,-88.1
06.343,-90.19
06.359,-94.38
06.375,-99.87
06.390,-105.33
06.406,-109.01
06.421,-108.98
06.437,-103.66
06.453,-92.33
06.468,-75.43
06.484,-54.56
06.500,-31.89
06.515,-9.69
06.531,10.34
06.546,27.2
06.562,40.59
06.578,50.56
06.593,57.37
06.609,61.4
06.625,63.28
06.640,63.92
06.656,64.37
06.671,65.7
06.687,68.62
06.703,73.39
06.718,79.84
06.734,87.39
06.750,95.38
06.765,103.13
06.781,110.11
06.796,115.91
06.812,120.23
06.828,122.92
06.843,123.97
06.859,123.52
06.875,121.76
06.890,118.96
06.906,115.34
06.921,111.13
06.937,106.48
06.953,101.57
06.968,96.51
06.984,91.4
07.000,86.22
07.015,80.87
07.031,75.1
07.046,68.65
07.062,61.37
07.078,53.21
07.093,44.25
07.109,34.65
07.125,24.53
07.140,13.92
07.156,2.89
07.171,-8.29
07.187,-18.87
07.203,-27.54
07.218,-32.74
07.234,-32.99
07.250,-27.45
07.265,-16.21
07.281,-0.3
07.296,18.59
07.312,38.67
07.328,58.33
07.343,76.49
07.359,92.53
07.375,106.21
07.390,117.5
07.406,126.57
07.421,133.8
07.437,139.72
07.453,144.98
07.468,150.13
07.484,155.47
07.500,160.96
07.515,166.3
07.531,171.13
07.546,175.28
07.562,178.96
07.578,182.57
07.593,186.45
07.609,190.46
07.625,193.88
07.640,195.51
07.656,194.03
07.671,188.45
07.687,178.39
07.703,164.28
07.718,147.24
07.734,128.93
07.750,111.14
07.765,95.21
07.781,81.45
07.796,68.74
07.812,54.59
07.828,35.72
07.843,9.27
07.859,-26.14
07.875,-69.52
07.890,-117.55
07.906,-165.31
07.921,-207.61
07.937,-240.26
07.953,-260.92
07.968,-269.23
07.984,-266.34
08.000,-254.14
08.015,-234.64
08.031,-209.64
08.046,-180.86
08.062,-150.04
08.078,-119.05
08.093,-89.6
08.109,-62.92
08.125,-39.41
08.140,-18.72
08.156,-0.07
08.171,17.14
08.187,32.97
08.203,46.87
08.218,57.92
08.234,65.19
08.250,68.14
08.265,66.79
08.281,61.58
08.296,53.27
08.312,42.84
08.328,31.3
08.343,19.76
08.359,9.14
08.375,-0.1
08.390,-8.27
08.406,-16.45
08.421,-26.19
08.437,-38.78
08.453,-54.46
08.468,-71.98
08.484,-88.94
08.500,-102.57
08.515,-110.94
08.531,-113.61
08.546,-111.58
08.562,-106.58
08.578,-100.19
08.593,-93.16
08.609,-85.42
08.625,-76.6
08.640,-66.77
08.656,-56.78
08.671,-48.11
08.687,-42.26
08.703,-40.08
08.718,-41.38
08.734,-45.15
08.750,-50.06
08.765,-54.96
08.781,-59.26
08.796,-62.73
08.812,-65.23
08.828,-66.37
08.843,-65.48
08.859,-61.87
08.875,-55.24
08.890,-45.88
08.906,-34.53
08.921,-22.02
08.937,-8.95
08.953,4.47
08.968,18.18
08.984,32.02
09.000,45.5
09.015,57.87
09.031,68.26
09.046,76.05
09.062,81.02
09.078,83.4
09.093,83.66
09.109,82.46
09.125,80.47
09.140,78.23
09.156,76.24
09.171,74.77
09.187,73.93
09.203,73.68
09.218,73.81
09.234,74.08
09.250,74.19
09.265,73.92
09.281,73.13
09.296,71.7
09.312,69.43
09.328,65.98
09.343,60.76
09.359,53.08
09.375,42.36
09.390,28.41
09.406,11.65
09.421,-6.92
09.437,-25.84
09.453,-43.56
09.468,-58.66
09.484,-70.13
09.500,-77.6
09.515,-81.27
09.531,-81.94
09.546,-80.73
09.562,-78.89
09.578,-77.53
09.593,-77.43
09.609,-79.05
09.625,-82.62
09.640,-88.28
09.656,-95.98
09.671,-105.39
09.687,-115.49
09.703,-124.54
09.718,-130.29
09.734,-130.65
09.750,-124.51
09.765,-112.19
09.781,-95.45
09.796,-76.76
09.812,-58.49
09.828,-42.05
09.843,-27.79
09.859,-15.38
09.875,-4.4
09.890,5.12
09.906,12.73
09.921,18.03
09.937,21.0
09.953,22.29
09.968,23.01
09.984,24.28
10.000,26.76
10.015,30.46
10.031,34.89
10.046,39.32
10.062,43.22
10.078,46.33
10.093,48.68
10.109,50.45
10.125,51.78
10.140,52.68
10.156,53.05
10.171,52.77
10.187,51.76
10.203,50.13
10.218,48.13
10.234,46.11
10.250,44.32
10.265,42.85
10.281,41.6
10.296,40.35
10.312,38.85
10.328,36.86
10.343,34.22
10.359,30.8
10.375,26.62
10.390,21.81
10.406,16.64
10.421,11.51
10.437,6.67
10.453,2.15
10.468,-2.35
10.484,-7.44
10.500,-13.7
10.515,-21.5
10.531,-30.76
10.546,-40.84
10.562,-50.67
10.578,-58.93
10.593,-64.36
10.609,-66.11
10.625,-63.86
10.640,-57.91
10.656,-49.17
10.671,-38.71
10.687,-27.64
10.703,-16.73
10.718,-6.43
10.734,3.2
10.750,12.25
10.765,20.81
10.781,28.94
10.796,36.53
10.812,43.47
10.828,49.62
10.843,54.95
10.859,59.45
10.875,63.22
10.890,66.39
10.906,69.08
10.921,71.42
10.937,73.44
10.953,75.22
10.968,76.79
10.984,78.15
11.000,79.24
11.015,79.89
11.031,79.85
11.046,78.8
11.062,76.56
11.078,73.0
11.093,68.29
11.109,62.69
11.125,56.52
11.140,50.11
11.156,43.66
11.171,37.25
11.187,30.85
11.203,24.45
11.218,17.94
11.234,11.36
11.250,4.78
11.265,-1.65
11.281,-7.77
11.296,-13.43
11.312,-18.63
11.328,-23.49
11.343,-28.2
11.359,-32.94
11.375,-37.63
11.390,-41.87
11.406,-44.87
11.421,-45.62
11.437,-43.21
11.453,-37.04
11.468,-27.18
11.484,-14.36
11.500,0.19
11.515,15.15
11.531,29.38
11.546,42.14
11.562,53.18
11.578,62.46
11.593,69.95
11.609,75.57
11.625,79.16
11.640,80.64
11.656,80.16
11.671,78.16
11.687,75.29
11.703,72.25
11.718,69.53
11.734,67.32
11.750,65.46
11.765,63.64
11.781,61.57
11.796,59.07
11.812,56.19
11.828,52.98
11.843,49.39
11.859,45.1
11.875,39.68
11.890,32.65
11.906,23.84
11.921,13.52
11.937,2.3
11.953,-8.98
11.968,-19.59
11.984,-29.05
12.000,-37.36
12.015,-44.73
12.031,-51.51
12.046,-57.97
12.062,-64.15
12.078,-69.95
12.093,-75.17
12.109,-79.67
12.125,-83.38
12.140,-86.45
12.156,-89.08
12.171,-91.59
12.187,-94.3
12.203,-97.44
12.218,-101.06
12.234,-104.83
12.250,-108.04
12.265,-109.67
12.281,-108.72
12.296,-104.51
12.312,-97.02
12.328,-86.92
12.343,-75.21
12.359,-63.05
12.375,-51.24
12.390,-40.21
12.406,-30.09
12.421,-20.84
12.437,-12.43
12.453,-4.93
12.468,1.55
12.484,6.95
12.500,11.28
12.515,14.66
12.531,17.28
12.546,19.35
12.562,20.99
12.578,22.36
12.593,23.57
12.609,24.68
12.625,25.83
12.640,27.08
12.656,28.56
12.671,30.25
12.687,32.03
12.703,33.61
12.718,34.69
12.734,35.02
12.750,34.52
12.765,33.34
12.781,31.64
12.796,29.64
12.812,27.45
12.828,25.11
12.843,22.62
12.859,20.03
12.875,17.37
12.890,14.65
12.906,11.89
12.921,8.97
12.937,5.81
12.953,2.36
12.968,-1.34
12.984,-5.21
13.000,-9.19
13.015,-13.27
13.031,-17.51
13.046,-21.87
13.062,-26.33
13.078,-30.83
13.093,-35.31
13.109,-39.82
13.125,-44.53
13.140,-49.64
13.156,-55.17
13.171,-60.86
13.187,-65.99
13.203,-69.52
13.218,-70.31
13.234,-67.53
13.250,-60.94
13.265,-51.04
13.281,-38.94
13.296,-25.98
13.312,-13.49
13.328,-2.29
13.343,7.29
13.359,15.36
13.375,22.21
13.390,28.02
13.406,32.78
13.421,36.36
13.437,38.65
13.453,39.77
13.468,40.14
13.484,40.29
13.500,40.65
13.515,41.36
13.531,42.25
13.546,43.03
13.562,43.49
13.578,43.64
13.593,43.67
13.609,43.75
13.625,43.87
13.640,43.81
13.656,43.26
13.671,41.98
13.687,39.92
13.703,37.28
13.718,34.36
13.734,31.4
13.750,28.58
13.765,25.99
13.781,23.65
13.796,21.65
13.812,19.94
13.828,18.4
13.843,16.87
13.859,15.14
13.875,13.02
13.890,10.43
13.906,7.4
13.921,4.03
13.937,0.45
13.953,-3.27
13.968,-7.11
13.984,-11.07
14.000,-15.12
14.015,-19.22
14.031,-23.26
14.046,-27.17
14.062,-30.94
14.078,-34.65
14.093,-38.35
14.109,-41.93
14.125,-44.99
14.140,-46.78
14.156,-46.45
14.171,-43.29
14.187,-37.07
14.203,-28.19
14.218,-17.53
14.234,-6.17
14.250,4.95
14.265,15.27
14.281,24.59
14.296,32.96
14.312,40.53
14.328,47.32
14.343,53.34
14.359,58.53
14.375,62.99
14.390,66.88
14.406,70.47
14.421,73.97
14.437,77.51
14.453,81.07
14.468,84.55
14.484,87.94
14.500,91.34
14.515,94.99
14.531,99.07
14.546,103.66
14.562,108.57
14.578,113.46
14.593,117.94
14.609,121.74
14.625,124.81
14.640,127.27
14.656,129.3
14.671,130.86
14.687,131.68
14.703,131.09
14.718,128.3
14.734,122.57
14.750,113.46
14.765,101.16
14.781,86.46
14.796,70.69
14.812,55.31
14.828,41.49
14.843,29.73
14.859,19.54
14.875,9.63
14.890,-1.82
14.906,-16.44
14.921,-35.09
14.937,-57.44
14.953,-81.96
14.968,-106.38
14.984,-128.36
15.000,-146.21
15.015,-159.19
15.031,-167.44
15.046,-171.51
15.062,-171.94
15.078,-169.0
15.093,-162.63
15.109,-152.82
15.125,-139.74
15.140,-123.96
15.156,-106.27
15.171,-87.58
15.187,-68.6
15.203,-49.79
15.218,-31.47
15.234,-13.89
15.250,2.63
15.265,17.65
15.281,30.64
15.296,41.18
15.312,49.02
15.328,54.29
15.343,57.38
15.359,58.79
15.375,58.94
15.390,57.98
15.406,55.79
15.421,52.18
15.437,47.2
15.453,41.35
15.468,35.62
15.484,31.21
15.500,29.0
15.515,29.07
15.531,30.54
15.546,31.72
15.562,30.7
15.578,25.89
15.593,16.43
15.609,2.3
15.625,-15.82
15.640,-36.67
15.656,-58.42
15.671,-78.9
15.687,-95.88
15.703,-107.62
15.718,-113.53
15.734,-114.51
15.750,-112.78
15.765,-111.04
15.781,-111.49
15.796,-114.98
15.812,-120.87
15.828,-127.54
15.843,-133.25
15.859,-136.81
15.875,-137.93
15.890,-137.04
15.906,-134.81
15.921,-131.84
15.937,-128.33
15.953,-124.14
15.968,-118.85
15.984,-111.98
16.000,-103.26
16.015,-92.63
16.031,-80.36
16.046,-67.01
16.062,-53.26
16.078,-39.83
16.093,-27.28
16.109,-16.0
16.125,-6.23
16.140,1.89
16.156,8.27
16.171,12.93
16.187,16.03
16.203,17.97
16.218,19.25
16.234,20.39
16.250,21.69
16.265,23.21
16.281,24.79
16.296,26.18
16.312,27.22
16.328,27.88
16.343,28.32
16.359,28.71
16.375,29.19
16.390,29.75
16.406,30.25
16.421,30.45
16.437,30.11
16.453,29.12
16.468,27.44
16.484,25.28
16.500,22.83
16.515,20.27
16.531,17.67
16.546,14.98
16.562,12.05
16.578,8.75
16.593,5.1
16.609,1.17
16.625,-2.85
16.640,-6.81
16.656,-10.57
16.671,-14.05
16.687,-17.26
16.703,-20.36
16.718,-23.54
16.734,-27.1
16.750,-31.31
16.765,-36.25
16.781,-41.74
16.796,-47.17
16.812,-51.58
16.828,-53.85
16.843,-52.96
16.859,-48.4
16.875,-40.28
16.890,-29.43
16.906,-17.09
16.921,-4.59
16.937,6.96
16.953,16.99
16.968,25.38
16.984,32.31
17.000,38.03
17.015,42.73
17.031,46.54
17.046,49.61
17.062,52.19
17.078,54.54
17.093,56.96
17.109,59.53
17.125,62.21
17.140,64.85
17.156,67.3
17.171,69.47
17.187,71.45
17.203,73.35
17.218,75.25
17.234,77.26
17.250,79.32
17.265,81.32
17.281,83.13
17.296,84.54
17.312,85.37
17.328,85.53
17.343,85.08
17.359,84.16
17.375,82.91
17.390,81.28
17.406,79.0
17.421,75.55
17.437,70.42
17.453,63.39
17.468,54.55
17.484,44.42
17.500,33.63
17.515,22.83
17.531,12.47
17.546,2.9
17.562,-5.71
17.578,-13.26
17.593,-19.75
17.609,-25.34
17.625,-30.3
17.640,-34.98
17.656,-39.58
17.671,-44.01
17.687,-47.75
17.703,-49.98
17.718,-49.81
17.734,-46.54
17.750,-40.05
17.765,-30.82
17.781,-19.84
17.796,-8.3
17.812,2.69
17.828,12.35
17.843,20.31
17.859,26.46
17.875,30.83
17.890,33.51
17.906,34.53
17.921,34.0
17.937,32.13
17.953,29.39
17.968,26.35
17.984,23.61
18.000,21.64
18.015,20.69
18.031,20.7
18.046,21.42
18.062,22.56
18.078,23.92
18.093,25.5
18.109,27.49
18.125,30.16
18.140,33.61
18.156,37.68
18.171,41.95
18.187,45.91
18.203,49.1
18.218,51.24
18.234,52.21
18.250,51.97
18.265,50.41
18.281,47.21
18.296,41.96
18.312,34.18
18.328,23.51
18.343,9.95
18.359,-6.11
18.375,-23.84
18.390,-42.04
18.406,-59.36
18.421,-74.59
18.437,-86.9
18.453,-96.01
18.468,-102.18
18.484,-106.1
18.500,-108.73
18.515,-111.15
18.531,-114.26
18.546,-118.39
18.562,-123.13
18.578,-127.19
18.593,-128.85
18.609,-126.65
18.625,-120.28
18.640,-110.93
18.656,-101.17
18.671,-94.02
18.687,-91.71
18.703,-94.97
18.718,-102.74
18.734,-112.8
18.750,-122.74
18.765,-130.64
18.781,-135.5
18.796,-136.93
18.812,-134.86
18.828,-129.31
18.843,-120.43
18.859,-108.72
18.875,-95.16
18.890,-81.2
18.906,-68.13
18.921,-56.69
18.937,-46.63
18.953,-36.9
18.968,-26.12
18.984,-13.32
19.000,1.6
19.015,17.79
19.031,33.81
19.046,48.35
19.062,60.62
19.078,70.57
19.093,78.59
19.109,85.25
19.125,90.85
19.140,95.45
19.156,98.94
19.171,101.2
19.187,102.3
19.203,102.34
19.218,101.53
19.234,100.06
19.250,98.13
19.265,95.91
19.281,93.57
19.296,91.07
19.312,88.33
19.328,85.23
19.343,81.81
19.359,78.42
19.375,75.66
19.390,74.18
19.406,74.46
19.421,76.59
19.437,80.32
19.453,85.08
19.468,90.2
19.484,94.85
19.500,98.02
19.515,98.7
19.531,96.12
19.546,90.17
19.562,81.59
19.578,71.72
19.593,61.96
19.609,53.3
19.625,46.02
19.640,39.98
19.656,35.01
19.671,31.3
19.687,29.37
19.703,29.71
19.718,32.26
19.734,36.37
19.750,40.87
19.765,44.64
19.781,46.98
19.796,47.75
19.812,47.14
19.828,45.51
19.843,43.22
19.859,40.5
19.875,37.66
19.890,34.92
19.906,32.48
19.921,30.49
19.937,29.13
19.953,28.44
19.968,28.35
19.984,28.62
20.000,28.78
20.015,28.32
20.031,26.77
20.046,23.87
20.062,19.65
20.078,14.3
20.093,8.03
20.109,1.02
20.125,-6.53
20.140,-14.23
20.156,-21.36
20.171,-26.96
20.187,-30.11
20.203,-30.25
20.218,-27.44
20.234,-22.3
20.250,-15.75
20.265,-8.67
20.281,-1.73
20.296,4.73
20.312,10.53
20.328,15.5
20.343,19.51
20.359,22.34
20.375,23.96
20.390,24.47
20.406,24.11
20.421,23.14
20.437,21.73
20.453,19.97
20.468,17.91
20.484,15.63
20.500,13.27
20.515,11.1
20.531,9.33
20.546,8.09
20.562,7.32
20.578,6.79
20.593,6.16
20.609,5.15
20.625,3.61
20.640,1.46
20.656,-1.22
20.671,-4.33
20.687,-7.75
20.703,-11.32
20.718,-14.92
20.734,-18.43
20.750,-21.77
20.765,-24.96
20.781,-28.06
20.796,-31.21
20.812,-34.5
20.828,-37.99
20.843,-41.65
20.859,-45.5
20.875,-49.61
20.890,-54.14
20.906,-59.26
20.921,-64.92
20.937,-70.7
20.953,-75.77
20.968,-79.06
20.984,-79.57
21.000,-76.83
21.015,-70.96
21.031,-62.66
21.046,-52.99
21.062,-43.0
21.078,-33.5
21.093,-25.0
21.109,-17.8
21.125,-12.01
21.140,-7.66
21.156,-4.64
21.171,-2.74
21.187,-1.73
21.203,-1.38
21.218,-1.51
21.234,-1.9
21.250,-2.34
21.265,-2.57
21.281,-2.42
21.296,-1.84
21.312,-1.01
21.328,-0.25
21.343,0.17
21.359,0.1
21.375,-0.41
21.390,-1.2
21.406,-2.15
21.421,-3.28
21.437,-4.72
21.453,-6.61
21.468,-8.95
21.484,-11.58
21.500,-14.21
21.515,-16.58
21.531,-18.53
21.546,-20.11
21.562,-21.53
21.578,-22.98
21.593,-24.59
21.609,-26.39
21.625,-28.33
21.640,-30.43
21.656,-32.82
21.671,-35.72
21.687,-39.35
21.703,-43.7
21.718,-48.29
21.734,-52.23
21.750,-54.4
21.765,-53.8
21.781,-49.88
21.796,-42.76
21.812,-33.21
21.828,-22.42
21.843,-11.66
21.859,-1.83
21.875,6.56
21.890,13.46
21.906,19.06
21.921,23.6
21.937,27.24
21.953,29.95
21.968,31.71
21.984,32.54
22.000,32.61
22.015,32.18
22.031,31.55
22.046,30.92
22.062,30.41
22.078,30.04
22.093,29.84
22.109,29.85
22.125,30.14
22.140,30.67
22.156,31.34
22.171,31.88
22.187,31.99
22.203,31.44
22.218,30.18
22.234,28.37
22.250,26.31
22.265,24.3
22.281,22.52
22.296,21.03
22.312,19.78
22.328,18.69
22.343,17.73
22.359,16.87
22.375,16.1
22.390,15.39
22.406,14.67
22.421,13.87
22.437,13.03
22.453,12.21
22.468,11.52
22.484,11.02
22.500,10.66
22.515,10.35
22.531,10.0
22.546,9.55
22.562,8.97
22.578,8.3
22.593,7.61
22.609,6.83
22.625,5.94
22.640,4.87
22.656,3.6
22.671,2.17
22.687,0.68
22.703,-0.81
22.718,-2.18
22.734,-3.42
22.750,-4.55
22.765,-5.54
22.781,-6.43
22.796,-7.24
22.812,-8.04
22.828,-9.01
22.843,-10.32
22.859,-12.05
22.875,-14.21
22.890,-16.71
22.906,-19.41
22.921,-22.26
22.937,-25.21
22.953,-28.16
22.968,-31.0
22.984,-33.61
23.000,-35.96
23.015,-38.26
23.031,-40.86
23.046,-44.12
23.062,-48.16
23.078,-52.7
23.093,-57.18
23.109,-60.99
23.125,-63.75
23.140,-65.46
23.156,-66.48
23.171,-67.3
23.187,-68.46
23.203,-70.36
23.218,-73.16
23.234,-76.83
23.250,-80.88
23.265,-84.45
23.281,-86.37
23.296,-85.45
23.312,-80.86
23.328,-72.49
23.343,-61.05
23.359,-47.79
23.375,-34.17
23.390,-21.37
23.406,-10.07
23.421,-0.49
23.437,7.4
23.453,13.69
23.468,18.4
23.484,21.51
23.500,23.11
23.515,23.45
23.531,23.03
23.546,22.38
23.562,21.89
23.578,21.78
23.593,21.96
23.609,22.14
23.625,22.09
23.640,21.69
23.656,21.02
23.671,20.33
23.687,19.78
23.703,19.34
23.718,18.73
23.734,17.51
23.750,15.19
23.765,11.5
23.781,6.54
23.796,0.75
23.812,-5.24
23.828,-10.81
23.843,-15.72
23.859,-20.07
23.875,-24.27
23.890,-28.83
23.906,-34.12
23.921,-40.21
23.937,-46.95
23.953,-53.92
23.968,-60.54
23.984,-66.1
24.000,-69.81
24.015,-70.89
24.031,-68.81
24.046,-63.48
24.062,-55.36
24.078,-45.4
24.093,-34.67
24.109,-24.21
24.125,-14.68
24.140,-6.33
24.156,0.89
24.171,7.11
24.187,12.43
24.203,16.79
24.218,20.06
24.234,22.17
24.250,23.18
24.265,23.38
24.281,23.16
24.296,22.96
24.312,23.03
24.328,23.38
24.343,23.78
24.359,24.01
24.375,23.9
24.390,23.48
24.406,22.9
24.421,22.25
24.437,21.45
24.453,20.21
24.468,18.19
24.484,15.14
24.500,11.07
24.515,6.25
24.531,1.1
24.546,-4.0
24.562,-8.76
24.578,-13.12
24.593,-17.13
24.609,-20.98
24.625,-24.92
24.640,-29.27
24.656,-34.34
24.671,-40.26
24.687,-46.82
24.703,-53.34
24.718,-58.75
24.734,-61.82
24.750,-61.53
24.765,-57.4
24.781,-49.73
24.796,-39.42
24.812,-27.75
24.828,-15.94
24.843,-4.88
24.859,5.0
24.875,13.63
24.890,21.17
24.906,27.68
24.921,33.16
24.937,37.51
24.953,40.61
24.968,42.52
24.984,43.42
25.000,43.61
25.015,43.42
25.031,43.13
25.046,42.86
25.062,42.61
25.078,42.25
25.093,41.6
25.109,40.51
25.125,38.89
25.140,36.78
25.156,34.33
25.171,31.68
25.187,28.85
25.203,25.75
25.218,22.1
25.234,17.68
25.250,12.39
25.265,6.37
25.281,-0.01
25.296,-6.3
25.312,-12.12
25.328,-17.37
25.343,-22.1
25.359,-26.62
25.375,-31.23
25.390,-36.26
25.406,-41.9
25.421,-48.17
25.437,-54.83
25.453,-61.25
25.468,-66.44
25.484,-69.22
25.500,-68.61
25.515,-64.11
25.531,-55.97
25.546,-45.13
25.562,-32.94
25.578,-20.68
25.593,-9.28
25.609,0.86
25.625,9.73
25.640,17.51
25.656,24.35
25.671,30.27
25.687,35.14
25.703,38.85
25.718,41.36
25.734,42.84
25.750,43.6
25.765,44.01
25.781,44.32
25.796,44.6
25.812,44.73
25.828,44.53
25.843,43.9
25.859,42.93
25.875,41.83
25.890,40.85
25.906,39.96
25.921,38.86
25.937,37.0
25.953,33.92
25.968,29.43
25.984,23.83
26.000,17.74
26.015,11.85
26.031,6.64
26.046,2.11
26.062,-2.06
26.078,-6.45
26.093,-11.56
26.109,-17.69
26.125,-24.83
26.140,-32.74
26.156,-41.02
26.171,-49.08
26.187,-56.13
26.203,-61.14
26.218,-63.14
26.234,-61.35
26.250,-55.58
26.265,-46.36
26.281,-34.73
26.296,-22.05
26.312,-9.51
26.328,2.08
26.343,12.42
26.359,21.46
26.375,29.24
26.390,35.7
26.406,40.65
26.421,43.93
26.437,45.56
26.453,45.87
26.468,45.41
26.484,44.77
26.500,44.36
26.515,44.28
26.531,44.39
26.546,44.36
26.562,43.92
26.578,42.91
26.593,41.3
26.609,39.15
26.625,36.52
26.640,33.45
26.656,29.98
26.671,26.13
26.687,21.93
26.703,17.4
26.718,12.55
26.734,7.41
26.750,2.03
26.765,-3.46
26.781,-8.88
26.796,-14.02
26.812,-18.73
26.828,-23.02
26.843,-27.06
26.859,-31.18
26.875,-35.8
26.890,-41.18
26.906,-47.31
26.921,-53.78
26.937,-59.72
26.953,-63.99
26.968,-65.45
26.984,-63.29
27.000,-57.28
27.015,-47.87
27.031,-36.04
27.046,-23.0
27.062,-9.9
27.078,2.47
27.093,13.67
27.109,23.6
27.125,32.33
27.140,39.93
27.156,46.37
27.171,51.59
27.187,55.52
27.203,58.17
27.218,59.7
27.234,60.32
27.250,60.27
27.265,59.74
27.281,58.88
27.296,57.77
27.312,56.54
27.328,55.28
27.343,54.11
27.359,53.1
27.375,52.19
27.390,51.17
27.406,49.79
27.421,47.72
27.437,44.79
27.453,41.02
27.468,36.56
27.484,31.75
27.500,26.95
27.515,22.4
27.531,18.18
27.546,14.22
27.562,10.24
27.578,5.99
27.593,1.29
27.609,-3.89
27.625,-9.37
27.640,-14.81
27.656,-19.89
27.671,-24.39
27.687,-28.27
27.703,-31.8
27.718,-35.41
27.734,-39.64
27.750,-44.88
27.765,-51.22
27.781,-58.3
27.796,-65.4
27.812,-71.46
27.828,-75.38
27.843,-76.31
27.859,-73.77
27.875,-67.8
27.890,-58.91
27.906,-47.96
27.921,-35.87
27.937,-23.53
27.953,-11.54
27.968,-0.24
27.984,10.23
28.000,19.88
28.015,28.67
28.031,36.49
28.046,43.14
28.062,48.43
28.078,52.28
28.093,54.83
28.109,56.33
28.125,57.05
28.140,57.2
28.156,56.88
28.171,56.11
28.187,54.95
28.203,53.62
28.218,52.38
28.234,51.47
28.250,50.87
28.265,50.26
28.281,49.23
28.296,47.42
28.312,44.76
28.328,41.46
28.343,37.92
28.359,34.53
28.375,31.44
28.390,28.58
28.406,25.63
28.421,22.33
28.437,18.49
28.453,14.21
28.468,9.74
28.484,5.41
28.500,1.49
28.515,-1.98
28.531,-5.13
28.546,-8.25
28.562,-11.54
28.578,-15.15
28.593,-19.02
28.609,-23.02
28.625,-27.0
28.640,-30.92
28.656,-34.85
28.671,-38.95
28.687,-43.44
28.703,-48.5
28.718,-54.24
28.734,-60.57
28.750,-67.1
28.765,-73.07
28.781,-77.46
28.796,-79.25
28.812,-77.69
28.828,-72.63
28.843,-64.54
28.859,-54.39
28.875,-43.24
28.890,-31.99
28.906,-21.22
28.921,-11.13
28.937,-1.7
28.953,7.06
28.968,15.13
28.984,22.34
29.000,28.51
29.015,33.47
29.031,37.2
29.046,39.79
29.062,41.36
29.078,42.15
29.093,42.32
29.109,42.06
29.125,41.54
29.140,40.93
29.156,40.36
29.171,39.97
29.187,39.8
29.203,39.73
29.218,39.57
29.234,39.04
29.250,38.0
29.265,36.41
29.281,34.34
29.296,31.97
29.312,29.42
29.328,26.72
29.343,23.83
29.359,20.68
29.375,17.26
29.390,13.64
29.406,9.96
29.421,6.27
29.437,2.6
29.453,-1.1
29.468,-4.89
29.484,-8.79
29.500,-12.77
29.515,-16.85
29.531,-20.96
29.546,-25.04
29.562,-28.98
29.578,-32.61
29.593,-35.84
29.609,-38.7
29.625,-41.29
29.640,-43.94
29.656,-47.03
29.671,-50.84
29.687,-55.46
29.703,-60.69
29.718,-65.97
29.734,-70.5
29.750,-73.37
29.765,-73.69
29.781,-70.94
29.796,-65.13
29.812,-56.74
29.828,-46.67
29.843,-35.97
29.859,-25.52
29.875,-15.86
29.890,-7.15
29.906,0.74
29.921,8.03
29.937,14.82
29.953,21.01
29.968,26.31
29.984,30.39
30.000,33.1
30.015,34.53
30.031,35.06
30.046,35.18
30.062,35.24
30.078,35.36
30.093,35.43
30.109,35.24
30.125,34.69
30.140,33.89
30.156,33.08
30.171,32.45
30.187,31.99
30.203,31.42
30.218,30.42
30.234,28.75
30.250,26.46
30.265,23.81
30.281,21.17
30.296,18.77
30.312,16.59
30.328,14.45
30.343,12.09
30.359,9.37
30.375,6.37
30.390,3.3
30.406,0.39
30.421,-2.2
30.437,-4.48
30.453,-6.69
30.468,-9.11
30.484,-11.95
30.500,-15.27
30.515,-18.96
30.531,-22.8
30.546,-26.62
30.562,-30.31
30.578,-33.91
30.593,-37.6
30.609,-41.57
30.625,-45.94
30.640,-50.75
30.656,-55.89
30.671,-60.99
30.687,-65.45
30.703,-68.48
30.718,-69.28
30.734,-67.25
30.750,-62.17
30.765,-54.38
30.781,-44.64
30.796,-34.01
30.812,-23.5
30.828,-13.89
30.843,-5.6
30.859,1.3
30.875,7.01
30.890,11.82
30.906,15.96
30.921,19.53
30.937,22.51
30.953,24.89
30.968,26.72
30.984,28.15
31.000,29.44
31.015,30.79
31.031,32.33
31.046,33.95
31.062,35.4
31.078,36.43
31.093,36.87
31.109,36.7
31.125,36.07
31.140,35.14
31.156,33.91
31.171,32.37
31.187,30.4
31.203,27.91
31.218,24.89
31.234,21.52
31.250,18.03
31.265,14.65
31.281,11.59
31.296,8.88
31.312,6.44
31.328,4.15
31.343,1.78
31.359,-0.88
31.375,-3.96
31.390,-7.45
31.406,-11.21
31.421,-14.94
31.437,-18.4
31.453,-21.46
31.468,-24.25
31.484,-27.12
31.500,-30.53
31.515,-34.88
31.531,-40.33
31.546,-46.65
31.562,-53.25
31.578,-59.27
31.593,-63.7
31.609,-65.64
31.625,-64.53
31.640,-60.22
31.656,-53.14
31.671,-44.12
31.687,-34.17
31.703,-24.25
31.718,-15.0
31.734,-6.75
31.750,0.45
31.765,6.68
31.781,12.01
31.796,16.41
31.812,19.82
31.828,22.21
31.843,23.73
31.859,24.64
31.875,25.27
31.890,25.87
31.906,26.57
31.921,27.26
31.937,27.73
31.953,27.74
31.968,27.21
31.984,26.21
32.000,24.95
32.015,23.71
32.031,22.67
32.046,21.83
32.062,21.0
32.078,19.92
32.093,18.38
32.109,16.34
32.125,13.86
32.140,11.08
32.156,8.14
32.171,5.08
32.187,1.91
32.203,-1.36
32.218,-4.66
32.234,-7.92
32.250,-11.1
32.265,-14.28
32.281,-17.58
32.296,-21.07
32.312,-24.78
32.328,-28.55
32.343,-32.25
32.359,-35.75
32.375,-39.06
32.390,-42.38
32.406,-45.93
32.421,-49.96
32.437,-54.59
32.453,-59.7
32.468,-64.9
32.484,-69.43
32.500,-72.36
32.515,-72.75
32.531,-70.04
32.546,-64.21
32.562,-55.83
32.578,-45.88
32.593,-35.43
32.609,-25.31
32.625,-15.97
32.640,-7.54
32.656,0.11
32.671,7.1
32.687,13.5
32.703,19.36
32.718,24.59
32.734,29.15
32.750,32.99
32.765,36.12
32.781,38.6
32.796,40.59
32.812,42.24
32.828,43.57
32.843,44.53
32.859,45.0
32.875,44.97
32.890,44.56
32.906,44.04
32.921,43.63
32.937,43.38
32.953,43.13
32.968,42.51
32.984,41.23
33.000,39.13
33.015,36.27
33.031,32.89
33.046,29.26
33.062,25.55
33.078,21.85
33.093,18.1
33.109,14.24
33.125,10.19
33.140,5.84
33.156,1.11
33.171,-3.98
33.187,-9.36
33.203,-14.95
33.218,-20.54
33.234,-26.0
33.250,-31.21
33.265,-36.15
33.281,-40.94
33.296,-45.79
33.312,-50.99
33.328,-56.77
33.343,-63.24
33.359,-70.13
33.375,-76.78
33.390,-82.13
33.406,-85.0
33.421,-84.38
33.437,-79.77
33.453,-71.36
33.468,-60.01
33.484,-46.99
33.500,-33.53
33.515,-20.65
33.531,-8.85
33.546,1.71
33.562,11.18
33.578,19.72
33.593,27.44
33.609,34.33
33.625,40.29
33.640,45.26
33.656,49.19
33.671,52.14
33.687,54.28
33.703,55.78
33.718,56.88
33.734,57.8
33.750,58.69
33.765,59.63
33.781,60.59
33.796,61.5
33.812,62.16
33.828,62.47
33.843,62.23
33.859,61.34
33.875,59.66
33.890,57.13
33.906,53.75
33.921,49.6
33.937,44.88
33.953,39.84
33.968,34.79
33.984,29.97
34.000,25.53
34.015,21.49
34.031,17.7
34.046,13.96
34.062,10.0
34.078,5.63
34.093,0.8
34.109,-4.35
34.125,-9.55
34.140,-14.44
34.156,-18.73
34.171,-22.41
34.187,-25.68
34.203,-29.0
34.218,-32.86
34.234,-37.63
34.250,-43.48
34.265,-50.18
34.281,-57.13
34.296,-63.36
34.312,-67.71
34.328,-69.05
34.343,-66.61
34.359,-60.21
34.375,-50.32
34.390,-38.0
34.406,-24.52
34.421,-11.07
34.437,1.47
34.453,12.59
34.468,22.1
34.484,29.98
34.500,36.28
34.515,41.06
34.531,44.4
34.546,46.43
34.562,47.37
34.578,47.54
34.593,47.29
34.609,46.95
34.625,46.73
34.640,46.65
34.656,46.63
34.671,46.5
34.687,46.12
34.703,45.41
34.718,44.38
34.734,43.1
34.750,41.53
34.765,39.59
34.781,37.08
34.796,33.85
34.812,29.91
34.828,25.47
34.843,20.87
34.859,16.37
34.875,12.06
34.890,7.85
34.906,3.5
34.921,-1.22
34.937,-6.35
34.953,-11.7
34.968,-16.94
34.984,-21.7
35.000,-25.79
35.015,-29.21
35.031,-32.13
35.046,-34.88
35.062,-37.9
35.078,-41.52
35.093,-46.01
35.109,-51.36
35.125,-57.13
35.140,-62.51
35.156,-66.37
35.171,-67.61
35.187,-65.47
35.203,-59.76
35.218,-50.9
35.234,-39.84
35.250,-27.77
35.265,-15.83
35.281,-4.87
35.296,4.58
35.312,12.34
35.328,18.44
35.343,23.04
35.359,26.4
35.375,28.79
35.390,30.43
35.406,31.5
35.421,32.19
35.437,32.67
35.453,33.16
35.468,33.76
35.484,34.53
35.500,35.42
35.515,36.3
35.531,36.97
35.546,37.28
35.562,37.1
35.578,36.37
35.593,35.08
35.609,33.21
35.625,30.8
35.640,27.89
35.656,24.55
35.671,20.85
35.687,16.89
35.703,12.69
35.718,8.26
35.734,3.62
35.750,-1.21
35.765,-6.17
35.781,-11.13
35.796,-16.0
35.812,-20.67
35.828,-25.06
35.843,-29.21
35.859,-33.27
35.875,-37.52
35.890,-42.29
35.906,-47.72
35.921,-53.5
35.937,-58.88
35.953,-62.66
35.968,-63.55
35.984,-60.7
36.000,-54.03
36.015,-44.3
36.031,-32.81
36.046,-20.96
36.062,-9.78
36.078,0.17
36.093,8.77
36.109,16.13
36.125,22.33
36.140,27.34
36.156,31.13
36.171,33.73
36.187,35.34
36.203,36.23
36.218,36.67
36.234,36.86
36.250,36.91
36.265,36.79
36.281,36.49
36.296,35.99
36.312,35.29
36.328,34.46
36.343,33.51
36.359,32.43
36.375,31.17
36.390,29.69
36.406,27.95
36.421,25.92
36.437,23.63
36.453,21.04
36.468,18.1
36.484,14.76
36.500,11.0
36.515,6.87
36.531,2.43
36.546,-2.23
36.562,-7.04
36.578,-11.9
36.593,-16.77
36.609,-21.65
36.625,-26.55
36.640,-31.64
36.656,-37.09
36.671,-43.1
36.687,-49.72
36.703,-56.68
36.718,-63.23
36.734,-68.33
36.750,-70.78
36.765,-69.64
36.781,-64.6
36.796,-56.08
36.812,-45.14
36.828,-33.12
36.843,-21.22
36.859,-10.24
36.875,-0.57
36.890,7.76
36.906,14.77
36.921,20.51
36.937,25.0
36.953,28.38
36.968,30.87
36.984,32.84
37.000,34.58
37.015,36.24
37.031,37.85
37.046,39.33
37.062,40.62
37.078,41.73
37.093,42.79
37.109,43.89
37.125,45.08
37.140,46.2
37.156,46.96
37.171,47.02
37.187,46.13
37.203,44.13
37.218,41.19
37.234,37.62
37.250,33.8
37.265,30.03
37.281,26.42
37.296,22.81
37.312,18.96
37.328,14.64
37.343,9.73
37.359,4.38
37.375,-1.16
37.390,-6.65
37.406,-11.92
37.421,-16.94
37.437,-21.81
37.453,-26.69
37.468,-31.78
37.484,-37.32
37.500,-43.47
37.515,-50.2
37.531,-57.1
37.546,-63.28
37.562,-67.49
37.578,-68.52
37.593,-65.59
37.609,-58.77
37.625,-48.86
37.640,-37.2
37.656,-25.12
37.671,-13.48
37.687,-2.64
37.703,7.42
37.718,16.77
37.734,25.38
37.750,33.06
37.765,39.61
37.781,45.03
37.796,49.51
37.812,53.35
37.828,56.84
37.843,60.01
37.859,62.76
37.875,64.89
37.890,66.26
37.906,66.95
37.921,67.32
37.937,67.82
37.953,68.94
37.968,71.04
37.984,74.18
38.000,78.14
38.015,82.43
38.031,86.35
38.046,89.27
38.062,90.81
38.078,90.85
38.093,89.58
38.109,87.3
38.125,84.3
38.140,80.69
38.156,76.49
38.171,71.67
38.187,66.36
38.203,60.86
38.218,55.53
38.234,50.7
38.250,46.56
38.265,43.12
38.281,40.38
38.296,38.5
38.312,37.89
38.328,39.16
38.343,43.0
38.359,49.96
38.375,60.34
38.390,74.11
38.406,90.94
38.421,110.22
38.437,131.04
38.453,152.03
38.468,171.53
38.484,187.78
38.500,199.46
38.515,205.93
38.531,207.28
38.546,203.84
38.562,195.69
38.578,182.33
38.593,163.01
38.609,137.37
38.625,106.22
38.640,71.71
38.656,36.88
38.671,4.47
38.687,-23.95
38.703,-48.41
38.718,-70.15
38.734,-90.77
38.750,-111.2
38.765,-131.41
38.781,-150.43
38.796,-166.92
38.812,-179.7
38.828,-188.12
38.843,-192.14
38.859,-192.27
38.875,-189.45
38.890,-184.83
38.906,-179.67
38.921,-175.08
38.937,-171.86
38.953,-170.27
38.968,-170.11
38.984,-170.9
39.000,-172.05
39.015,-173.19
39.031,-174.08
39.046,-174.7
39.062,-174.93
39.078,-174.68
39.093,-173.79
39.109,-172.19
39.125,-170.0
39.140,-167.42
39.156,-164.75
39.171,-162.06
39.187,-159.23
39.203,-155.76
39.218,-150.91
39.234,-143.84
39.250,-133.79
39.265,-120.31
39.281,-103.45
39.296,-83.8
39.312,-62.4
39.328,-40.51
39.343,-19.21
39.359,0.72
39.375,18.87
39.390,35.02
39.406,48.98
39.421,60.51
39.437,69.33
39.453,75.38
39.468,78.83
39.484,80.09
39.500,79.69
39.515,78.11
39.531,75.7
39.546,72.7
39.562,69.27
39.578,65.6
39.593,61.8
39.609,57.95
39.625,54.09
39.640,50.28
39.656,46.71
39.671,43.57
39.687,40.94
39.703,38.6
39.718,36.03
39.734,32.51
39.750,27.43
39.765,20.57
39.781,12.18
39.796,2.89
39.812,-6.56
39.828,-15.56
39.843,-23.85
39.859,-31.39
39.875,-38.35
39.890,-44.91
39.906,-51.34
39.921,-57.87
39.937,-64.74
39.953,-72.01
39.968,-79.38
39.984,-86.04
40.000,-90.77
40.015,-92.27
40.031,-89.55
40.046,-82.44
40.062,-71.82
40.078,-59.39
40.093,-47.1
40.109,-36.52
40.125,-28.29
40.140,-22.13
40.156,-17.19
40.171,-12.59
40.187,-7.86
40.203,-3.04
40.218,1.66
40.234,6.16
40.250,10.71
40.265,15.8
40.281,21.81
40.296,28.75
40.312,36.25
40.328,43.73
40.343,50.74
40.359,57.19
40.375,63.31
40.390,69.42
40.406,75.57
40.421,81.37
40.437,86.11
40.453,89.08
40.468,89.99
40.484,89.07
40.500,87.05
40.515,84.68
40.531,82.37
40.546,79.98
40.562,76.89
40.578,72.23
40.593,65.26
40.609,55.56
40.625,43.11
40.640,28.35
40.656,12.11
40.671,-4.45
40.687,-20.09
40.703,-33.93
40.718,-45.82
40.734,-56.49
40.750,-67.14
40.765,-78.69
40.781,-91.1
40.796,-103.07
40.812,-112.46
40.828,-117.19
40.843,-116.18
40.859,-109.66
40.875,-99.09
40.890,-86.43
40.906,-73.46
40.921,-61.46
40.937,-51.28
40.953,-43.55
40.968,-38.8
40.984,-37.43
41.000,-39.31
41.015,-43.63
41.031,-48.86
41.046,-53.11
41.062,-54.71
41.078,-52.66
41.093,-46.94
41.109,-38.38
41.125,-28.33
41.140,-18.14
41.156,-8.81
41.171,-0.86
41.187,5.59
41.203,10.51
41.218,13.84
41.234,15.41
41.250,15.03
41.265,12.59
41.281,8.22
41.296,2.16
41.312,-5.28
41.328,-13.8
41.343,-23.2
41.359,-33.25
41.375,-43.56
41.390,-53.63
41.406,-62.84
41.421,-70.72
41.437,-77.15
41.453,-82.42
41.468,-87.19
41.484,-92.35
41.500,-98.65
41.515,-106.51
41.531,-115.79
41.546,-125.67
41.562,-134.67
41.578,-140.96
41.593,-142.73
41.609,-138.67
41.625,-128.47
41.640,-112.82
41.656,-93.31
41.671,-71.92
41.687,-50.54
41.703,-30.62
41.718,-13.05
41.734,1.83
41.750,14.04
41.765,23.84
41.781,31.61
41.796,37.79
41.812,42.77
41.828,46.91
41.843,50.45
41.859,53.51
41.875,56.19
41.890,58.49
41.906,60.45
41.921,62.06
41.937,63.4
41.953,64.53
41.968,65.55
41.984,66.47
42.000,67.2
42.015,67.46
42.031,66.83
42.046,64.91
42.062,61.56
42.078,56.92
42.093,51.5
42.109,45.92
42.125,40.73
42.140,36.09
42.156,31.73
42.171,27.08
42.187,21.56
42.203,14.89
42.218,7.16
42.234,-1.15
42.250,-9.41
42.265,-17.12
42.281,-24.05
42.296,-30.29
42.312,-36.2
42.328,-42.3
42.343,-49.13
42.359,-57.14
42.375,-66.4
42.390,-76.42
42.406,-85.91
42.421,-93.03
42.437,-95.78
42.453,-92.61
42.468,-83.05
42.484,-67.87
42.500,-48.82
42.515,-28.09
42.531,-7.63
42.546,11.19
42.562,27.68
42.578,41.64
42.593,53.07
42.609,62.04
42.625,68.69
42.640,73.36
42.656,76.53
42.671,78.75
42.687,80.49
42.703,81.97
42.718,83.15
42.734,83.89
42.750,84.01
42.765,83.51
42.781,82.62
42.796,81.7
42.812,81.15
42.828,81.22
42.843,81.82
42.859,82.52
42.875,82.64
42.890,81.5
42.906,78.69
42.921,74.3
42.937,68.83
42.953,63.03
42.968,57.51
42.984,52.53
43.000,47.96
43.015,43.34
43.031,38.26
43.046,32.49
43.062,26.12
43.078,19.43
43.093,12.82
43.109,6.56
43.125,0.8
43.140,-4.51
43.156,-9.6
43.171,-14.84
43.187,-20.63
43.203,-27.14
43.218,-34.17
43.234,-40.88
43.250,-45.89
43.265,-47.53
43.281,-44.41
43.296,-35.85
43.312,-22.17
43.328,-4.59
43.343,15.18
43.359,35.42
43.375,54.75
43.390,72.3
43.406,87.73
43.421,101.0
43.437,112.3
43.453,121.88
43.468,130.05
43.484,137.11
43.500,143.4
43.515,149.25
43.531,154.94
43.546,160.79
43.562,167.03
43.578,173.81
43.593,181.06
43.609,188.51
43.625,195.71
43.640,202.08
43.656,207.04
43.671,209.97
43.687,210.23
43.703,207.17
43.718,200.16
43.734,188.72
43.750,172.66
43.765,152.2
43.781,128.02
43.796,101.17
43.812,72.89
43.828,44.41
43.843,16.7
43.859,-9.57
43.875,-34.1
43.890,-56.85
43.906,-78.01
43.921,-97.81
43.937,-116.54
43.953,-134.47
43.968,-151.75
43.984,-168.29
44.000,-183.58
44.015,-196.6
44.031,-205.95
44.046,-210.27
44.062,-208.63
44.078,-201.05
44.093,-188.58
44.109,-173.02
44.125,-156.49
44.140,-140.75
44.156,-126.78
44.171,-114.76
44.187,-104.15
44.203,-94.12
44.218,-83.91
44.234,-73.04
44.250,-61.37
44.265,-49.06
44.281,-36.37
44.296,-23.63
44.312,-11.1
44.328,0.99
44.343,12.49
44.359,23.28
44.375,33.31
44.390,42.62
44.406,51.22
44.421,59.17
44.437,66.47
44.453,73.1
44.468,79.01
44.484,84.14
44.500,88.32
44.515,91.23
44.531,92.43
44.546,91.39
44.562,87.79
44.578,81.67
44.593,73.63
44.609,64.63
44.625,55.73
44.640,47.58
44.656,40.18
44.671,32.86
44.687,24.56
44.703,14.21
44.718,1.12
44.734,-14.82
44.750,-32.99
44.765,-52.09
44.781,-70.07
44.796,-84.5
44.812,-92.97
44.828,-93.9
44.843,-87.28
44.859,-75.05
44.875,-60.88
44.890,-49.14
44.906,-43.52
44.921,-45.72
44.937,-54.8
44.953,-67.56
44.968,-79.8
44.984,-87.84
45.000,-89.82
45.015,-86.13
45.031,-78.86
45.046,-70.75
45.062,-64.13
45.078,-60.27
45.093,-59.23
45.109,-60.19
45.125,-61.82
45.140,-62.58
45.156,-61.15
45.171,-56.7
45.187,-49.32
45.203,-40.36
45.218,-32.44
45.234,-28.83
45.250,-32.63
45.265,-45.66
45.281,-67.75
45.296,-96.74
45.312,-128.98
45.328,-160.53
45.343,-188.08
45.359,-209.67
45.375,-224.74
45.390,-233.91
45.406,-238.37
45.421,-239.49
45.437,-238.58
45.453,-236.74
45.468,-235.0
45.484,-234.07
45.500,-234.15
45.515,-234.69
45.531,-234.3
45.546,-230.88
45.562,-222.25
45.578,-206.7
45.593,-183.6
45.609,-153.7
45.625,-118.85
45.640,-81.5
45.656,-44.09
45.671,-8.63
45.687,23.49
45.703,51.39
45.718,74.61
45.734,93.08
45.750,107.04
45.765,117.12
45.781,124.11
45.796,128.89
45.812,132.16
45.828,134.41
45.843,135.93
45.859,136.98
45.875,137.9
45.890,138.97
45.906,140.37
45.921,141.93
45.937,143.21
45.953,143.61
45.968,142.7
45.984,140.36
46.000,136.84
46.015,132.48
46.031,127.34
46.046,121.15
46.062,113.42
46.078,103.92
46.093,93.02
46.109,81.77
46.125,71.5
46.140,63.29
46.156,57.51
46.171,53.83
46.187,51.47
46.203,49.68
46.218,47.99
46.234,46.26
46.250,44.39
46.265,42.16
46.281,39.22
46.296,35.51
46.312,31.48
46.328,28.26
46.343,27.25
46.359,29.72
46.375,36.2
46.390,46.23
46.406,58.56
46.421,71.41
46.437,83.21
46.453,92.87
46.468,100.03
46.484,104.82
46.500,107.57
46.515,108.53
46.531,107.75
46.546,105.2
46.562,100.88
46.578,95.0
46.593,87.94
46.609,80.19
46.625,72.19
46.640,64.21
46.656,56.37
46.671,48.73
46.687,41.33
46.703,34.26
46.718,27.64
46.734,21.61
46.750,16.26
46.765,11.68
46.781,7.86
46.796,4.79
46.812,2.3
46.828,0.17
46.843,-1.84
46.859,-4.02
46.875,-6.49
46.890,-9.3
46.906,-12.39
46.921,-15.69
46.937,-19.14
46.953,-22.7
46.968,-26.43
46.984,-30.36
47.000,-34.7
47.015,-39.63
47.031,-45.18
47.046,-51.11
47.062,-56.8
47.078,-61.18
47.093,-63.07
47.109,-61.45
47.125,-55.8
47.140,-46.31
47.156,-33.82
47.171,-19.53
47.187,-4.77
47.203,9.37
47.218,22.09
47.234,32.86
47.250,41.39
47.265,47.58
47.281,51.46
47.296,53.23
47.312,53.31
47.328,52.25
47.343,50.66
47.359,49.1
47.375,47.93
47.390,47.28
47.406,47.1
47.421,47.13
47.437,47.07
47.453,46.69
47.468,45.83
47.484,44.48
47.500,42.68
47.515,40.37
47.531,37.45
47.546,33.77
47.562,29.2
47.578,23.84
47.593,17.94
47.609,11.93
47.625,6.21
47.640,1.06
47.656,-3.55
47.671,-7.78
47.687,-11.91
47.703,-16.23
47.718,-20.93
47.734,-26.21
47.750,-32.11
47.765,-38.47
47.781,-44.71
47.796,-49.92
47.812,-52.91
47.828,-52.61
47.843,-48.41
47.859,-40.45
47.875,-29.56
47.890,-17.07
47.906,-4.29
47.921,7.72
47.937,18.39
47.953,27.47
47.968,34.85
47.984,40.41
48.000,43.99
48.015,45.55
48.031,45.27
48.046,43.64
48.062,41.34
48.078,39.06
48.093,37.25
48.109,36.03
48.125,35.24
48.140,34.6
48.156,33.88
48.171,32.95
48.187,31.83
48.203,30.59
48.218,29.24
48.234,27.71
48.250,25.82
48.265,23.26
48.281,19.83
48.296,15.41
48.312,10.12
48.328,4.26
48.343,-1.76
48.359,-7.55
48.375,-12.85
48.390,-17.62
48.406,-22.09
48.421,-26.57
48.437,-31.45
48.453,-36.93
48.468,-43.01
48.484,-49.4
48.500,-55.59
48.515,-60.79
48.531,-64.08
48.546,-64.52
48.562,-61.38
48.578,-54.47
48.593,-44.17
48.609,-31.56
48.625,-18.03
48.640,-5.02
48.656,6.39
48.671,15.75
48.687,23.11
48.703,28.9
48.718,33.51
48.734,37.14
48.750,39.72
48.765,41.15
48.781,41.46
48.796,40.93
48.812,40.04
48.828,39.28
48.843,38.96
48.859,39.03
48.875,39.16
48.890,38.95
48.906,38.08
48.921,36.46
48.937,34.21
48.953,31.54
48.968,28.63
48.984,25.59
49.000,22.41
49.015,19.01
49.031,15.34
49.046,11.29
49.062,6.82
49.078,1.95
49.093,-3.2
49.109,-8.38
49.125,-13.33
49.140,-17.79
49.156,-21.76
49.171,-25.41
49.187,-29.13
49.203,-33.35
49.218,-38.35
49.234,-44.17
49.250,-50.36
49.265,-56.2
49.281,-60.64
49.296,-62.68
49.312,-61.52
49.328,-56.85
49.343,-48.91
49.359,-38.41
49.375,-26.47
49.390,-14.19
49.406,-2.52
49.421,7.97
49.437,17.1
49.453,24.87
49.468,31.36
49.484,36.63
49.500,40.68
49.515,43.48
49.531,45.15
49.546,45.87
49.562,45.92
49.578,45.59
49.593,45.09
49.609,44.61
49.625,44.21
49.640,44.02
49.656,44.08
49.671,44.37
49.687,44.77
49.703,45.05
49.718,44.97
49.734,44.32
49.750,43.06
49.765,41.29
49.781,39.23
49.796,37.15
49.812,35.31
49.828,33.85
49.843,32.75
49.859,31.86
49.875,30.97
49.890,29.85
49.906,28.39
49.921,26.6
49.937,24.64
49.953,22.73
49.968,21.08
49.984,19.75
50.000,18.66
50.015,17.61
50.031,16.44
50.046,15.02
50.062,13.43
50.078,11.82
50.093,10.38
50.109,9.21
50.125,8.24
50.140,7.28
50.156,6.11
50.171,4.63
50.187,2.89
50.203,1.08
50.218,-0.56
50.234,-1.92
50.250,-2.94
50.265,-3.72
50.281,-4.41
50.296,-5.09
50.312,-5.86
50.328,-6.74
50.343,-7.72
50.359,-8.75
50.375,-9.79
50.390,-10.78
50.406,-11.8
50.421,-13.02
50.437,-14.6
50.453,-16.69
50.468,-19.26
50.484,-22.15
50.500,-25.09
50.515,-27.85
50.531,-30.36
50.546,-32.72
50.562,-35.17
50.578,-37.88
50.593,-40.93
50.609,-44.23
50.625,-47.58
50.640,-50.72
50.656,-53.54
50.671,-55.97
50.687,-58.07
50.703,-60.02
50.718,-62.05
50.734,-64.47
50.750,-67.58
50.765,-71.54
50.781,-76.19
50.796,-80.92
50.812,-84.71
50.828,-86.33
50.843,-84.71
50.859,-79.34
50.875,-70.48
50.890,-59.07
50.906,-46.41
50.921,-33.86
50.937,-22.46
50.953,-12.77
50.968,-5.0
50.984,0.93
51.000,5.16
51.015,7.88
51.031,9.26
51.046,9.62
51.062,9.36
51.078,9.0
51.093,8.99
51.109,9.56
51.125,10.68
51.140,12.05
51.156,13.29
51.171,14.05
51.187,14.32
51.203,14.27
51.218,14.22
51.234,14.39
51.250,14.78
51.265,15.17
51.281,15.19
51.296,14.53
51.312,13.08
51.328,10.98
51.343,8.55
51.359,6.14
51.375,3.98
51.390,2.05
51.406,0.04
51.421,-2.38
51.437,-5.49
51.453,-9.34
51.468,-13.67
51.484,-18.15
51.500,-22.41
51.515,-26.3
51.531,-29.84
51.546,-33.24
51.562,-36.74
51.578,-40.49
51.593,-44.66
51.609,-49.28
51.625,-54.3
51.640,-59.44
51.656,-64.1
51.671,-67.38
51.687,-68.33
51.703,-66.26
51.718,-61.03
51.734,-53.17
51.750,-43.63
51.765,-33.54
51.781,-23.84
51.796,-15.11
51.812,-7.56
51.828,-1.22
51.843,3.95
51.859,8.02
51.875,10.98
51.890,12.99
51.906,14.19
51.921,14.83
51.937,15.2
51.953,15.56
51.968,16.01
51.984,16.55
52.000,17.06
52.015,17.36
52.031,17.34
52.046,16.94
52.062,16.23
52.078,15.35
52.093,14.44
52.109,13.5
52.125,12.44
52.140,11.03
52.156,8.98
52.171,6.11
52.187,2.38
52.203,-2.07
52.218,-6.92
52.234,-11.81
52.250,-16.47
52.265,-20.79
52.281,-24.83
52.296,-28.83
52.312,-33.03
52.328,-37.71
52.343,-43.05
52.359,-48.99
52.375,-55.15
52.390,-60.75
52.406,-64.72
52.421,-65.99
52.437,-63.86
52.453,-58.19
52.468,-49.51
52.484,-38.92
52.500,-27.62
52.515,-16.7
52.531,-6.92
52.546,1.4
52.562,8.24
52.578,13.7
52.593,17.94
52.609,21.09
52.625,23.23
52.640,24.47
52.656,24.96
52.671,24.92
52.687,24.58
52.703,24.17
52.718,23.81
52.734,23.57
52.750,23.41
52.765,23.25
52.781,23.02
52.796,22.62
52.812,21.94
52.828,20.93
52.843,19.57
52.859,17.89
52.875,15.95
52.890,13.83
52.906,11.49
52.921,8.85
52.937,5.83
52.953,2.46
52.968,-1.06
52.984,-4.46
53.000,-7.48
53.015,-10.04
53.031,-12.32
53.046,-14.65
53.062,-17.44
53.078,-20.97
53.093,-25.32
53.109,-30.3
53.125,-35.39
53.140,-39.8
53.156,-42.48
53.171,-42.28
53.187,-38.14
53.203,-29.53
53.218,-16.63
53.234,-0.43
53.250,17.56
53.265,35.63
53.281,52.38
53.296,67.01
53.312,79.41
53.328,90.0
53.343,99.53
53.359,108.71
53.375,118.02
53.390,127.66
53.406,137.59
53.421,147.73
53.437,158.1
53.453,168.85
53.468,180.2
53.484,192.32
53.500,205.26
53.515,218.91
53.531,233.05
53.546,247.35
53.562,261.12
53.578,273.16
53.593,281.63
53.609,284.28
53.625,278.9
53.640,264.13
53.656,239.87
53.671,207.48
53.687,169.43
53.703,128.62
53.718,87.67
53.734,48.47
53.750,12.07
53.765,-21.22
53.781,-51.3
53.796,-78.15
53.812,-101.65
53.828,-121.68
53.843,-138.24
53.859,-151.68
53.875,-162.62
53.890,-171.87
53.906,-180.25
53.921,-188.24
53.937,-195.8
53.953,-202.33
53.968,-206.84
53.984,-208.26
54.000,-205.94
54.015,-199.81
54.031,-190.55
54.046,-179.43
54.062,-167.91
54.078,-157.27
54.093,-148.34
54.109,-141.22
54.125,-135.46
54.140,-130.18
54.156,-124.36
54.171,-117.19
54.187,-108.31
54.203,-97.86
54.218,-86.45
54.234,-74.89
54.250,-63.86
54.265,-53.76
54.281,-44.63
54.296,-36.31
54.312,-28.64
54.328,-21.56
54.343,-15.07
54.359,-9.09
54.375,-3.53
54.390,1.74
54.406,6.62
54.421,10.75
54.437,13.59
54.453,14.66
54.468,13.77
54.484,11.21
54.500,7.66
54.515,3.83
54.531,0.32
54.546,-2.72
54.562,-5.48
54.578,-8.42
54.593,-11.94
54.609,-16.3
54.625,-21.48
54.640,-27.19
54.656,-33.11
54.671,-38.9
54.687,-44.53
54.703,-50.17
54.718,-56.17
54.734,-62.89
54.750,-70.54
54.765,-79.03
54.781,-87.82
54.796,-95.93
54.812,-101.91
54.828,-104.19
54.843,-101.45
54.859,-93.11
54.875,-79.6
54.890,-62.25
54.906,-42.95
54.921,-23.6
54.937,-5.58
54.953,10.41
54.968,24.24
54.984,36.07
55.000,46.05
55.015,54.2
55.031,60.54
55.046,65.19
55.062,68.41
55.078,70.6
55.093,72.13
55.109,73.27
55.125,74.12
55.140,74.64
55.156,74.76
55.171,74.53
55.187,74.06
55.203,73.53
55.218,73.07
55.234,72.58
55.250,71.8
55.265,70.35
55.281,67.81
55.296,63.91
55.312,58.61
55.328,52.15
55.343,44.94
55.359,37.48
55.375,30.19
55.390,23.29
55.406,16.78
55.421,10.44
55.437,3.92
55.453,-3.03
55.468,-10.5
55.484,-18.34
55.500,-26.14
55.515,-33.46
55.531,-39.97
55.546,-45.57
55.562,-50.37
55.578,-54.69
55.593,-58.9
55.609,-63.39
55.625,-68.55
55.640,-74.61
55.656,-81.54
55.671,-88.71
55.687,-94.89
55.703,-98.31
55.718,-97.13
55.734,-90.17
55.750,-77.32
55.765,-59.72
55.781,-39.33
55.796,-18.38
55.812,1.4
55.828,19.06
55.843,34.44
55.859,47.78
55.875,59.43
55.890,69.51
55.906,77.97
55.921,84.76
55.937,89.92
55.953,93.85
55.968,97.13
55.984,100.32
56.000,103.84
56.015,107.74
56.031,111.78
56.046,115.45
56.062,118.27
56.078,119.84
56.093,120.0
56.109,118.76
56.125,116.22
56.140,112.61
56.156,108.26
56.171,103.54
56.187,98.8
56.203,94.13
56.218,89.18
56.234,83.14
56.250,74.96
56.265,63.69
56.281,48.94
56.296,30.96
56.312,10.59
56.328,-10.95
56.343,-32.4
56.359,-52.53
56.375,-70.18
56.390,-84.34
56.406,-94.24
56.421,-99.63
56.437,-101.05
56.453,-99.91
56.468,-98.23
56.484,-98.2
56.500,-101.66
56.515,-109.52
56.531,-121.5
56.546,-136.07
56.562,-150.61
56.578,-161.94
56.593,-166.95
56.609,-163.3
56.625,-150.16
56.640,-128.5
56.656,-100.95
56.671,-71.21
56.687,-43.08
56.703,-19.57
56.718,-2.42
56.734,7.94
56.750,12.2
56.765,11.69
56.781,8.22
56.796,3.92
56.812,1.21
56.828,2.52
56.843,9.77
56.859,23.53
56.875,42.45
56.890,63.22
56.906,81.27
56.921,92.25
56.937,93.37
56.953,84.47
56.968,68.0
56.984,48.17
57.000,29.35
57.015,14.78
57.031,5.75
57.046,1.72
57.062,1.05
57.078,2.02
57.093,3.48
57.109,5.03
57.125,6.75
57.140,8.7
57.156,10.65
57.171,12.07
57.187,12.36
57.203,11.07
57.218,8.15
57.234,3.83
57.250,-1.56
57.265,-7.78
57.281,-14.69
57.296,-22.05
57.312,-29.38
57.328,-35.93
57.343,-40.92
57.359,-43.95
57.375,-45.41
57.390,-46.54
57.406,-49.1
57.421,-54.74
57.437,-64.22
57.453,-76.97
57.468,-91.03
57.484,-103.52
57.500,-111.42
57.515,-112.48
57.531,-105.73
57.546,-91.69
57.562,-71.99
57.578,-48.84
57.593,-24.48
57.609,-0.78
57.625,20.98
57.640,40.1
57.656,56.34
57.671,69.78
57.687,80.71
57.703,89.42
57.718,96.2
57.734,101.33
57.750,105.08
57.765,107.79
57.781,109.75
57.796,111.1
57.812,111.65
57.828,110.91
57.843,108.17
57.859,102.81
57.875,94.63
57.890,84.0
57.906,71.88
57.921,59.37
57.937,47.3
57.953,35.92
57.968,24.8
57.984,13.11
58.000,0.02
58.015,-14.81
58.031,-31.11
58.046,-48.05
58.062,-64.55
58.078,-79.63
58.093,-92.56
58.109,-102.98
58.125,-110.85
58.140,-116.37
58.156,-119.94
58.171,-122.13
58.187,-123.48
58.203,-124.38
58.218,-124.95
58.234,-125.08
58.250,-124.57
58.265,-123.32
58.281,-121.43
58.296,-119.24
58.312,-117.29
58.328,-116.22
58.343,-116.69
58.359,-119.12
58.375,-123.47
58.390,-128.99
58.406,-134.21
58.421,-137.11
58.437,-135.68
58.453,-128.44
58.468,-114.92
58.484,-95.87
58.500,-73.03
58.515,-48.57
58.531,-24.66
58.546,-2.92
58.562,15.72
58.578,31.05
58.593,43.37
58.609,53.35
58.625,61.7
58.640,69.01
58.656,75.7
58.671,81.97
58.687,87.81
58.703,93.21
58.718,98.16
58.734,102.79
58.750,107.29
58.765,111.83
58.781,116.45
58.796,121.03
58.812,125.26
58.828,128.79
58.843,131.25
58.859,132.41
58.875,132.17
58.890,130.56
58.906,127.69
58.921,123.7
58.937,118.75
58.953,112.99
58.968,106.6
58.984,99.85
59.000,92.85
59.015,85.68
59.031,78.2
59.046,70.06
59.062,60.83
59.078,50.12
59.093,37.62
59.109,23.34
59.125,7.52
59.140,-9.37
59.156,-26.66
59.171,-43.64
59.187,-59.65
59.203,-74.21
59.218,-87.14
59.234,-98.66
59.250,-109.28
59.265,-119.76
59.281,-130.66
59.296,-141.93
59.312,-152.64
59.328,-161.08
59.343,-165.01
59.359,-162.47
59.375,-152.39
59.390,-134.88
59.406,-111.3
59.421,-83.81
59.437,-54.57
59.453,-25.38
59.468,2.66
59.484,29.01
59.500,53.4
59.515,75.54
59.531,95.12
59.546,111.71
59.562,125.07
59.578,135.28
59.593,142.74
59.609,148.06
59.625,151.87
59.640,154.54
59.656,156.13
59.671,156.51
59.687,155.35
59.703,152.43
59.718,147.68
59.734,141.0
59.750,132.25
59.765,121.04
59.781,106.7
59.796,88.46
59.812,65.88
59.828,39.2
59.843,9.67
59.859,-20.43
59.875,-48.33
59.890,-71.39
59.906,-87.67
59.921,-96.57
59.937,-98.75
59.953,-95.79
59.968,-89.64
59.984,-82.1
