timestamp,value
00.000,2.17
00.015,2.56
00.031,3.06
00.046,3.29
00.062,2.94
00.078,1.96
00.093,0.56
00.109,-0.96
00.125,-2.22
00.140,-3.01
00.156,-3.31
00.171,-3.31
00.187,-3.29
00.203,-3.51
00.218,-4.08
00.234,-4.95
00.250,-5.98
00.265,-6.99
00.281,-7.83
00.296,-8.41
00.312,-8.59
00.328,-8.25
00.343,-7.23
00.359,-5.48
00.375,-3.11
00.390,-0.41
00.406,2.26
00.421,4.56
00.437,6.28
00.453,7.36
00.468,7.88
00.484,7.98
00.500,7.78
00.515,7.35
00.531,6.78
00.546,6.14
00.562,5.49
00.578,4.88
00.593,4.28
00.609,3.6
00.625,2.81
00.640,1.88
00.656,0.83
00.671,-0.28
00.687,-1.44
00.703,-2.58
00.718,-3.69
00.734,-4.75
00.750,-5.72
00.765,-6.53
00.781,-7.13
00.796,-7.5
00.812,-7.68
00.828,-7.81
00.843,-8.09
00.859,-8.65
00.875,-9.57
00.890,-10.73
00.906,-11.8
00.921,-12.36
00.937,-12.05
00.953,-10.71
00.968,-8.45
00.984,-5.63
01.000,-2.66
01.015,0.08
01.031,2.42
01.046,4.3
01.062,5.75
01.078,6.83
01.093,7.56
01.109,7.98
01.125,8.14
01.140,8.14
01.156,8.07
01.171,8.1
01.187,8.24
01.203,8.52
01.218,8.92
01.234,9.32
01.250,9.66
01.265,9.8
01.281,9.62
01.296,9.05
01.312,8.18
01.328,7.16
01.343,6.21
01.359,5.55
01.375,5.21
01.390,5.07
01.406,4.91
01.421,4.43
01.437,3.5
01.453,2.14
01.468,0.55
01.484,-1.04
01.500,-2.51
01.515,-3.93
01.531,-5.54
01.546,-7.58
01.562,-10.21
01.578,-13.3
01.593,-16.52
01.609,-19.31
01.625,-21.12
01.640,-21.49
01.656,-20.12
01.671,-16.94
01.687,-12.08
01.703,-5.97
01.718,0.81
01.734,7.43
01.750,13.07
01.765,17.09
01.781,19.22
01.796,19.65
01.812,18.88
01.828,17.52
01.843,16.03
01.859,14.63
01.875,13.3
01.890,11.95
01.906,10.59
01.921,9.31
01.937,8.23
01.953,7.33
01.968,6.43
01.984,5.24
02.000,3.52
02.015,1.21
02.031,-1.54
02.046,-4.41
02.062,-7.14
02.078,-9.47
02.093,-11.33
02.109,-12.71
02.125,-13.72
02.140,-14.53
02.156,-15.26
02.171,-16.04
02.187,-16.81
02.203,-17.41
02.218,-17.56
02.234,-17.09
02.250,-15.96
02.265,-14.34
02.281,-12.44
02.296,-10.33
02.312,-7.9
02.328,-4.93
02.343,-1.32
02.359,2.72
02.375,6.78
02.390,10.42
02.406,13.38
02.421,15.76
02.437,17.97
02.453,20.54
02.468,23.99
02.484,28.64
02.500,34.54
02.515,41.53
02.531,49.19
02.546,56.97
02.562,64.22
02.578,70.38
02.593,75.09
02.609,78.2
02.625,79.66
02.640,79.5
02.656,77.67
02.671,74.24
02.687,69.44
02.703,63.68
02.718,57.49
02.734,51.39
02.750,45.81
02.765,41.03
02.781,37.19
02.796,34.23
02.812,31.86
02.828,29.57
02.843,26.67
02.859,22.55
02.875,16.84
02.890,9.44
02.906,0.53
02.921,-9.71
02.937,-21.07
02.953,-33.29
02.968,-45.79
02.984,-57.67
03.000,-67.72
03.015,-74.83
03.031,-78.27
03.046,-77.91
03.062,-74.26
03.078,-68.27
03.093,-61.05
03.109,-53.67
03.125,-47.04
03.140,-41.86
03.156,-38.43
03.171,-36.69
03.187,-36.04
03.203,-35.57
03.218,-34.39
03.234,-31.9
03.250,-28.1
03.265,-23.51
03.281,-18.93
03.296,-15.1
03.312,-12.44
03.328,-10.86
03.343,-9.9
03.359,-9.03
03.375,-7.85
03.390,-6.23
03.406,-4.27
03.421,-2.11
03.437,0.1
03.453,2.25
03.468,4.2
03.484,5.79
03.500,6.77
03.515,7.0
03.531,6.51
03.546,5.64
03.562,5.0
03.578,5.21
03.593,6.6
03.609,9.05
03.625,11.9
03.640,14.23
03.656,15.22
03.671,14.53
03.687,12.46
03.703,9.91
03.718,7.94
03.734,7.42
03.750,8.73
03.765,11.68
03.781,15.62
03.796,19.62
03.812,22.48
03.828,22.92
03.843,19.74
03.859,12.21
03.875,0.61
03.890,-13.58
03.906,-27.89
03.921,-39.51
03.937,-46.27
03.953,-47.38
03.968,-43.52
03.984,-36.48
04.000,-28.28
04.015,-20.62
04.031,-14.51
04.046,-10.37
04.062,-8.22
04.078,-7.95
04.093,-9.27
04.109,-11.69
04.125,-14.63
04.140,-17.53
04.156,-20.09
04.171,-22.3
04.187,-24.39
04.203,-26.48
04.218,-28.51
04.234,-30.21
04.250,-31.21
04.265,-31.4
04.281,-30.9
04.296,-30.14
04.312,-29.57
04.328,-29.47
04.343,-29.83
04.359,-30.35
04.375,-30.62
04.390,-30.22
04.406,-28.76
04.421,-25.87
04.437,-21.27
04.453,-14.88
04.468,-7.08
04.484,1.18
04.500,8.66
04.515,14.06
04.531,16.63
04.546,16.3
04.562,13.77
04.578,10.18
04.593,6.63
04.609,4.01
04.625,2.83
04.640,3.35
04.656,5.59
04.671,9.39
04.687,14.3
04.703,19.61
04.718,24.47
04.734,28.05
04.750,29.86
04.765,29.85
04.781,28.43
04.796,26.23
04.812,23.87
04.828,21.85
04.843,20.38
04.859,19.51
04.875,19.2
04.890,19.38
04.906,19.93
04.921,20.64
04.937,21.2
04.953,21.24
04.968,20.46
04.984,18.73
05.000,16.21
05.015,13.35
05.031,10.86
05.046,9.55
05.062,10.05
05.078,12.71
05.093,17.49
05.109,23.91
05.125,31.06
05.140,37.89
05.156,43.26
05.171,46.28
05.187,46.37
05.203,43.31
05.218,37.34
05.234,29.13
05.250,19.72
05.265,10.26
05.281,1.73
05.296,-5.41
05.312,-11.26
05.328,-16.23
05.343,-20.63
05.359,-24.38
05.375,-26.95
05.390,-27.82
05.406,-26.88
05.421,-24.65
05.437,-22.1
05.453,-20.07
05.468,-18.88
05.484,-18.2
05.500,-17.45
05.515,-16.34
05.531,-15.13
05.546,-14.44
05.562,-14.89
05.578,-16.68
05.593,-19.5
05.609,-22.82
05.625,-26.23
05.640,-29.64
05.656,-33.23
05.671,-37.16
05.687,-41.25
05.703,-44.92
05.718,-47.27
05.734,-47.41
05.750,-44.75
05.765,-39.34
05.781,-31.83
05.796,-23.34
05.812,-15.12
05.828,-8.18
05.843,-3.01
05.859,0.46
05.875,2.7
05.890,4.33
05.906,5.88
05.921,7.57
05.937,9.33
05.953,10.75
05.968,11.26
05.984,10.22
06.000,7.24
06.015,2.3
06.031,-4.06
06.046,-10.8
06.062,-16.59
06.078,-20.32
06.093,-21.4
06.109,-20.01
06.125,-17.07
06.140,-13.82
06.156,-11.39
06.171,-10.5
06.187,-11.17
06.203,-13.01
06.218,-15.38
06.234,-17.71
06.250,-19.62
06.265,-20.97
06.281,-21.67
06.296,-21.64
06.312,-20.84
06.328,-19.23
06.343,-16.9
06.359,-14.04
06.375,-10.98
06.390,-8.1
06.406,-5.79
06.421,-4.33
06.437,-3.8
06.453,-4.07
06.468,-4.78
06.484,-5.48
06.500,-5.79
06.515,-5.59
06.531,-5.01
06.546,-4.33
06.562,-3.8
06.578,-3.45
06.593,-3.19
06.609,-2.82
06.625,-2.21
06.640,-1.4
06.656,-0.52
06.671,0.23
06.687,0.8
06.703,1.2
06.718,1.56
06.734,1.95
06.750,2.38
06.765,2.81
06.781,3.15
06.796,3.4
06.812,3.54
06.828,3.57
06.843,3.39
06.859,2.94
06.875,2.17
06.890,1.13
06.906,-0.01
06.921,-1.08
06.937,-1.96
06.953,-2.66
06.968,-3.25
06.984,-3.81
07.000,-4.26
07.015,-4.41
07.031,-4.04
07.046,-3.05
07.062,-1.55
07.078,0.17
07.093,1.78
07.109,3.06
07.125,4.06
07.140,4.93
07.156,5.95
07.171,7.28
07.187,8.96
07.203,10.88
07.218,12.85
07.234,14.72
07.250,16.45
07.265,18.05
07.281,19.53
07.296,20.82
07.312,21.75
07.328,22.18
07.343,22.04
07.359,21.47
07.375,20.68
07.390,19.94
07.406,19.45
07.421,19.19
07.437,19.02
07.453,18.69
07.468,18.06
07.484,17.04
07.500,15.67
07.515,13.99
07.531,12.06
07.546,9.99
07.562,7.89
07.578,5.94
07.593,4.26
07.609,2.89
07.625,1.84
07.640,1.1
07.656,0.72
07.671,0.83
07.687,1.59
07.703,3.09
07.718,5.23
07.734,7.76
07.750,10.27
07.765,12.4
07.781,13.91
07.796,14.8
07.812,15.17
07.828,15.23
07.843,15.18
07.859,15.16
07.875,15.24
07.890,15.34
07.906,15.38
07.921,15.18
07.937,14.61
07.953,13.56
07.968,12.04
07.984,10.12
08.000,7.93
08.015,5.57
08.031,3.08
08.046,0.53
08.062,-2.05
08.078,-4.5
08.093,-6.64
08.109,-8.27
08.125,-9.26
08.140,-9.62
08.156,-9.48
08.171,-9.06
08.187,-8.57
08.203,-8.23
08.218,-8.11
08.234,-8.3
08.250,-8.76
08.265,-9.42
08.281,-10.16
08.296,-10.82
08.312,-11.21
08.328,-11.1
08.343,-10.33
08.359,-8.79
08.375,-6.58
08.390,-3.96
08.406,-1.31
08.421,0.94
08.437,2.54
08.453,3.41
08.468,3.65
08.484,3.51
08.500,3.23
08.515,2.88
08.531,2.47
08.546,1.97
08.562,1.38
08.578,0.82
08.593,0.47
08.609,0.47
08.625,0.91
08.640,1.71
08.656,2.67
08.671,3.59
08.687,4.31
08.703,4.75
08.718,4.99
08.734,5.12
08.750,5.22
08.765,5.31
08.781,5.41
08.796,5.49
08.812,5.58
08.828,5.7
08.843,5.87
08.859,6.07
08.875,6.27
08.890,6.37
08.906,6.3
08.921,6.03
08.937,5.54
08.953,4.9
08.968,4.19
08.984,3.52
09.000,3.07
09.015,2.96
09.031,3.3
09.046,4.07
09.062,5.17
09.078,6.43
09.093,7.64
09.109,8.62
09.125,9.24
09.140,9.49
09.156,9.4
09.171,9.07
09.187,8.57
09.203,7.94
09.218,7.12
09.234,6.06
09.250,4.73
09.265,3.15
09.281,1.49
09.296,-0.06
09.312,-1.31
09.328,-2.17
09.343,-2.64
09.359,-2.86
09.375,-2.95
09.390,-3.02
09.406,-3.1
09.421,-3.16
09.437,-3.22
09.453,-3.26
09.468,-3.36
09.484,-3.61
09.500,-4.07
09.515,-4.74
09.531,-5.55
09.546,-6.38
09.562,-7.17
09.578,-7.92
09.593,-8.71
09.609,-9.61
09.625,-10.64
09.640,-11.63
09.656,-12.28
09.671,-12.21
09.687,-11.19
09.703,-9.16
09.718,-6.37
09.734,-3.19
09.750,-0.08
09.765,2.63
09.781,4.78
09.796,6.34
09.812,7.34
09.828,7.89
09.843,8.08
09.859,7.99
09.875,7.71
09.890,7.38
09.906,7.1
09.921,7.03
09.937,7.3
09.953,7.97
09.968,9.04
09.984,10.39
10.000,11.76
10.015,12.84
10.031,13.32
10.046,13.04
10.062,12.08
10.078,10.7
10.093,9.26
10.109,8.13
10.125,7.49
10.140,7.37
10.156,7.6
10.171,7.96
10.187,8.24
10.203,8.3
10.218,8.13
10.234,7.79
10.250,7.41
10.265,7.0
10.281,6.6
10.296,6.18
10.312,5.7
10.328,5.11
10.343,4.44
10.359,3.7
10.375,2.92
10.390,2.15
10.406,1.4
10.421,0.66
10.437,-0.07
10.453,-0.8
10.468,-1.53
10.484,-2.21
10.500,-2.8
10.515,-3.25
10.531,-3.55
10.546,-3.76
10.562,-3.95
10.578,-4.24
10.593,-4.67
10.609,-5.21
10.625,-5.76
10.640,-6.18
10.656,-6.43
10.671,-6.53
10.687,-6.63
10.703,-6.87
10.718,-7.35
10.734,-8.05
10.750,-8.88
10.765,-9.71
10.781,-10.37
10.796,-10.78
10.812,-10.94
10.828,-10.96
10.843,-10.97
10.859,-11.09
10.875,-11.41
10.890,-11.93
10.906,-12.59
10.921,-13.3
10.937,-13.92
10.953,-14.31
10.968,-14.33
10.984,-13.79
11.000,-12.58
11.015,-10.71
11.031,-8.36
11.046,-5.87
11.062,-3.64
11.078,-1.97
11.093,-1.01
11.109,-0.64
11.125,-0.64
11.140,-0.77
11.156,-0.87
11.171,-0.88
11.187,-0.82
11.203,-0.78
11.218,-0.76
11.234,-0.77
11.250,-0.73
11.265,-0.64
11.281,-0.52
11.296,-0.39
11.312,-0.29
11.328,-0.23
11.343,-0.25
11.359,-0.29
11.375,-0.33
11.390,-0.37
11.406,-0.43
11.421,-0.61
11.437,-0.95
11.453,-1.5
11.468,-2.19
11.484,-2.95
11.500,-3.69
11.515,-4.35
11.531,-4.93
11.546,-5.48
11.562,-6.04
11.578,-6.57
11.593,-6.97
11.609,-7.01
11.625,-6.54
11.640,-5.47
11.656,-3.85
11.671,-1.9
11.687,0.04
11.703,1.61
11.718,2.59
11.734,2.9
11.750,2.69
11.765,2.23
11.781,1.73
11.796,1.32
11.812,1.0
11.828,0.72
11.843,0.46
11.859,0.31
11.875,0.36
11.890,0.7
11.906,1.24
11.921,1.76
11.937,2.05
11.953,1.89
11.968,1.37
11.984,0.6
12.000,-0.15
12.015,-0.69
12.031,-0.9
12.046,-0.82
12.062,-0.55
12.078,-0.16
12.093,0.23
12.109,0.55
12.125,0.72
12.140,0.69
12.156,0.37
12.171,-0.23
12.187,-1.06
12.203,-1.96
12.218,-2.61
12.234,-2.74
12.250,-2.14
12.265,-0.83
12.281,0.9
12.296,2.59
12.312,3.76
12.328,4.18
12.343,3.81
12.359,2.93
12.375,1.86
12.390,0.86
12.406,0.02
12.421,-0.69
12.437,-1.31
12.453,-1.85
12.468,-2.15
12.484,-2.11
12.500,-1.63
12.515,-0.82
12.531,0.16
12.546,1.1
12.562,1.91
12.578,2.56
12.593,3.09
12.609,3.52
12.625,3.79
12.640,3.81
12.656,3.39
12.671,2.46
12.687,1.09
12.703,-0.57
12.718,-2.24
12.734,-3.61
12.750,-4.45
12.765,-4.64
12.781,-4.25
12.796,-3.44
12.812,-2.42
12.828,-1.31
12.843,-0.12
12.859,1.2
12.875,2.72
12.890,4.41
12.906,6.14
12.921,7.72
12.937,8.97
12.953,9.81
12.968,10.24
12.984,10.32
13.000,10.23
13.015,10.06
13.031,9.92
13.046,9.83
13.062,9.81
13.078,9.86
13.093,9.94
13.109,9.99
13.125,9.88
13.140,9.55
13.156,8.89
13.171,7.94
13.187,6.76
13.203,5.5
13.218,4.21
13.234,2.93
13.250,1.66
13.265,0.41
13.281,-0.74
13.296,-1.63
13.312,-2.15
13.328,-2.29
13.343,-2.21
13.359,-2.13
13.375,-2.23
13.390,-2.53
13.406,-2.87
13.421,-3.02
13.437,-2.74
13.453,-1.9
13.468,-0.46
13.484,1.5
13.500,3.84
13.515,6.33
13.531,8.68
13.546,10.56
13.562,11.67
13.578,11.87
13.593,11.24
13.609,10.01
13.625,8.53
13.640,7.09
13.656,5.9
13.671,5.05
13.687,4.58
13.703,4.51
13.718,4.81
13.734,5.37
13.750,5.95
13.765,6.29
13.781,6.16
13.796,5.55
13.812,4.63
13.828,3.71
13.843,2.98
13.859,2.49
13.875,2.08
13.890,1.57
13.906,0.87
13.921,0.02
13.937,-0.81
13.953,-1.49
13.968,-2.03
13.984,-2.6
14.000,-3.38
14.015,-4.46
14.031,-5.7
14.046,-6.8
14.062,-7.42
14.078,-7.29
14.093,-6.37
14.109,-4.78
14.125,-2.75
14.140,-0.49
14.156,1.88
14.171,4.31
14.187,6.74
14.203,9.01
14.218,10.85
14.234,11.94
14.250,12.1
14.265,11.4
14.281,10.15
14.296,8.77
14.312,7.61
14.328,6.79
14.343,6.21
14.359,5.65
14.375,4.92
14.390,4.03
14.406,3.03
14.421,2.07
14.437,1.15
14.453,0.22
14.468,-0.84
14.484,-2.09
14.500,-3.5
14.515,-4.95
14.531,-6.25
14.546,-7.24
14.562,-7.82
14.578,-8.04
14.593,-8.0
14.609,-7.86
14.625,-7.75
14.640,-7.8
14.656,-8.08
14.671,-8.61
14.687,-9.38
14.703,-10.18
14.718,-10.72
14.734,-10.62
14.750,-9.59
14.765,-7.57
14.781,-4.82
14.796,-1.86
14.812,0.81
14.828,2.78
14.843,4.01
14.859,4.71
14.875,5.16
14.890,5.59
14.906,6.03
14.921,6.42
14.937,6.67
14.953,6.76
14.968,6.73
14.984,6.63
15.000,6.4
15.015,5.96
15.031,5.17
15.046,3.98
15.062,2.49
15.078,0.86
15.093,-0.74
15.109,-2.2
15.125,-3.5
15.140,-4.7
15.156,-5.88
15.171,-7.06
15.187,-8.23
15.203,-9.3
15.218,-10.17
15.234,-10.72
15.250,-10.93
15.265,-10.85
15.281,-10.6
15.296,-10.35
15.312,-10.19
15.328,-10.08
15.343,-9.83
15.359,-9.16
15.375,-7.86
15.390,-5.85
15.406,-3.26
15.421,-0.4
15.437,2.35
15.453,4.63
15.468,6.2
15.484,6.98
15.500,7.08
15.515,6.7
15.531,6.12
15.546,5.54
15.562,5.04
15.578,4.64
15.593,4.3
15.609,3.98
15.625,3.69
15.640,3.5
15.656,3.44
15.671,3.45
15.687,3.4
15.703,3.12
15.718,2.53
15.734,1.69
15.750,0.78
15.765,-0.04
15.781,-0.71
15.796,-1.41
15.812,-2.36
15.828,-3.75
15.843,-5.55
15.859,-7.42
15.875,-9.0
15.890,-9.94
15.906,-10.16
15.921,-9.87
15.937,-9.36
15.953,-8.9
15.968,-8.58
15.984,-8.24
16.000,-7.62
16.015,-6.52
16.031,-4.86
16.046,-2.72
16.062,-0.32
16.078,2.09
16.093,4.26
16.109,5.96
16.125,6.98
16.140,7.22
16.156,6.63
16.171,5.34
16.187,3.62
16.203,1.85
16.218,0.39
16.234,-0.55
16.250,-0.87
16.265,-0.69
16.281,-0.22
16.296,0.3
16.312,0.71
16.328,0.93
16.343,0.95
16.359,0.78
16.375,0.44
16.390,-0.09
16.406,-0.79
16.421,-1.64
16.437,-2.58
16.453,-3.48
16.468,-4.29
16.484,-4.98
16.500,-5.52
16.515,-5.97
16.531,-6.36
16.546,-6.71
16.562,-7.02
16.578,-7.36
16.593,-7.8
16.609,-8.39
16.625,-9.16
16.640,-9.97
16.656,-10.6
16.671,-10.74
16.687,-10.07
16.703,-8.43
16.718,-5.9
16.734,-2.8
16.750,0.39
16.765,3.15
16.781,5.12
16.796,6.19
16.812,6.46
16.828,6.23
16.843,5.78
16.859,5.32
16.875,4.92
16.890,4.57
16.906,4.24
16.921,3.96
16.937,3.76
16.953,3.66
16.968,3.66
16.984,3.71
17.000,3.74
17.015,3.72
17.031,3.65
17.046,3.55
17.062,3.36
17.078,2.97
17.093,2.25
17.109,1.1
17.125,-0.46
17.140,-2.3
17.156,-4.18
17.171,-5.88
17.187,-7.25
17.203,-8.24
17.218,-8.88
17.234,-9.29
17.250,-9.6
17.265,-9.96
17.281,-10.47
17.296,-11.21
17.312,-12.13
17.328,-13.09
17.343,-13.8
17.359,-13.98
17.375,-13.39
17.390,-11.93
17.406,-9.68
17.421,-6.85
17.437,-3.74
17.453,-0.71
17.468,1.93
17.484,3.96
17.500,5.32
17.515,5.98
17.531,6.03
17.546,5.6
17.562,4.82
17.578,3.82
17.593,2.81
17.609,1.92
17.625,1.27
17.640,0.9
17.656,0.71
17.671,0.57
17.687,0.4
17.703,0.16
17.718,-0.15
17.734,-0.43
17.750,-0.7
17.765,-0.99
17.781,-1.31
17.796,-1.69
17.812,-2.11
17.828,-2.5
17.843,-2.79
17.859,-2.94
17.875,-2.86
17.890,-2.53
17.906,-2.03
17.921,-1.52
17.937,-1.26
17.953,-1.47
17.968,-2.16
17.984,-3.07
18.000,-3.74
18.015,-3.67
18.031,-2.55
18.046,-0.45
18.062,2.27
18.078,5.04
18.093,7.36
18.109,8.93
18.125,9.69
18.140,9.71
18.156,9.12
18.171,8.02
18.187,6.49
18.203,4.65
18.218,2.77
18.234,1.23
18.250,0.42
18.265,0.56
18.281,1.6
18.296,3.18
18.312,4.82
18.328,6.1
18.343,6.86
18.359,7.17
18.375,7.26
18.390,7.33
18.406,7.31
18.421,6.99
18.437,6.09
18.453,4.49
18.468,2.34
18.484,0.03
18.500,-2.02
18.515,-3.46
18.531,-4.18
18.546,-4.35
18.562,-4.23
18.578,-4.07
18.593,-4.04
18.609,-4.18
18.625,-4.43
18.640,-4.69
18.656,-4.81
18.671,-4.61
18.687,-3.91
18.703,-2.57
18.718,-0.61
18.734,1.81
18.750,4.36
18.765,6.65
18.781,8.4
18.796,9.44
18.812,9.75
18.828,9.42
18.843,8.53
18.859,7.2
18.875,5.56
18.890,3.8
18.906,2.14
18.921,0.77
18.937,-0.18
18.953,-0.66
18.968,-0.72
18.984,-0.39
19.000,0.21
19.015,1.01
19.031,1.88
19.046,2.6
19.062,3.0
19.078,2.89
19.093,2.25
19.109,1.19
19.125,-0.02
19.140,-1.13
19.156,-1.96
19.171,-2.45
19.187,-2.66
19.203,-2.71
19.218,-2.75
19.234,-2.88
19.250,-3.16
19.265,-3.62
19.281,-4.23
19.296,-4.93
19.312,-5.55
19.328,-5.87
19.343,-5.61
19.359,-4.57
19.375,-2.75
19.390,-0.33
19.406,2.3
19.421,4.74
19.437,6.72
19.453,8.1
19.468,8.93
19.484,9.31
19.500,9.32
19.515,8.94
19.531,8.15
19.546,6.96
19.562,5.5
19.578,4.03
19.593,2.82
19.609,2.03
19.625,1.65
19.640,1.53
19.656,1.45
19.671,1.27
19.687,0.92
19.703,0.44
19.718,-0.07
19.734,-0.55
19.750,-1.03
19.765,-1.58
19.781,-2.23
19.796,-2.98
19.812,-3.77
19.828,-4.46
19.843,-4.93
19.859,-5.15
19.875,-5.16
19.890,-5.09
19.906,-5.05
19.921,-5.15
19.937,-5.36
19.953,-5.58
19.968,-5.69
19.984,-5.55
20.000,-5.11
20.015,-4.35
20.031,-3.29
20.046,-1.98
20.062,-0.55
20.078,0.88
20.093,2.12
20.109,3.04
20.125,3.6
20.140,3.82
20.156,3.77
20.171,3.54
20.187,3.16
20.203,2.66
20.218,2.1
20.234,1.63
20.250,1.36
20.265,1.37
20.281,1.61
20.296,1.9
20.312,2.09
20.328,2.12
20.343,2.02
20.359,1.87
20.375,1.69
20.390,1.4
20.406,0.88
20.421,0.04
20.437,-1.09
20.453,-2.35
20.468,-3.58
20.484,-4.61
20.500,-5.44
20.515,-6.16
20.531,-6.88
20.546,-7.66
20.562,-8.49
20.578,-9.31
20.593,-10.04
20.609,-10.58
20.625,-10.89
20.640,-10.84
20.656,-10.32
20.671,-9.13
20.687,-7.18
20.703,-4.56
20.718,-1.58
20.734,1.36
20.750,3.85
20.765,5.66
20.781,6.79
20.796,7.37
20.812,7.57
20.828,7.5
20.843,7.27
20.859,6.91
20.875,6.55
20.890,6.38
20.906,6.61
20.921,7.38
20.937,8.74
20.953,10.62
20.968,12.78
20.984,14.95
21.000,16.73
21.015,17.74
21.031,17.79
21.046,16.89
21.062,15.28
21.078,13.27
21.093,11.1
21.109,8.82
21.125,6.37
21.140,3.69
21.156,0.85
21.171,-1.92
21.187,-4.28
21.203,-6.07
21.218,-7.41
21.234,-8.67
21.250,-10.23
21.265,-12.23
21.281,-14.33
21.296,-15.94
21.312,-16.4
21.328,-15.36
21.343,-12.93
21.359,-9.57
21.375,-5.95
21.390,-2.62
21.406,0.12
21.421,2.26
21.437,4.02
21.453,5.65
21.468,7.28
21.484,8.91
21.500,10.42
21.515,11.6
21.531,12.28
21.546,12.5
21.562,12.45
21.578,12.41
21.593,12.58
21.609,12.89
21.625,13.0
21.640,12.38
21.656,10.66
21.671,7.77
21.687,4.1
21.703,0.29
21.718,-3.0
21.734,-5.45
21.750,-7.14
21.765,-8.49
21.781,-9.85
21.796,-11.2
21.812,-11.98
21.828,-11.38
21.843,-8.8
21.859,-4.27
21.875,1.52
21.890,7.59
21.906,13.23
21.921,18.37
21.937,23.51
21.953,29.24
21.968,35.7
21.984,42.43
22.000,48.66
22.015,53.93
22.031,58.53
22.046,63.44
22.062,69.81
22.078,78.17
22.093,88.02
22.109,97.95
22.125,106.36
22.140,112.19
22.156,115.5
22.171,117.4
22.187,119.5
22.203,122.98
22.218,128.13
22.234,134.29
22.250,140.58
22.265,146.74
22.281,153.76
22.296,163.54
22.312,177.91
22.328,197.36
22.343,220.52
22.359,244.48
22.375,266.0
22.390,282.69
22.406,293.5
22.421,298.54
22.437,298.23
22.453,292.87
22.468,282.43
22.484,267.03
22.500,247.43
22.515,225.13
22.531,202.13
22.546,180.24
22.562,160.82
22.578,144.64
22.593,132.02
22.609,122.87
22.625,116.7
22.640,112.36
22.656,108.11
22.671,101.99
22.687,92.35
22.703,78.46
22.718,60.67
22.734,40.35
22.750,19.35
22.765,-0.58
22.781,-18.29
22.796,-33.46
22.812,-46.5
22.828,-58.4
22.843,-70.34
22.859,-83.43
22.875,-98.28
22.890,-114.64
22.906,-131.02
22.921,-144.89
22.937,-153.27
22.953,-153.76
22.968,-145.67
22.984,-130.55
23.000,-111.89
23.015,-93.98
23.031,-80.46
23.046,-73.21
23.062,-71.88
23.078,-74.56
23.093,-78.86
23.109,-83.03
23.125,-86.53
23.140,-90.03
23.156,-94.89
23.171,-102.45
23.187,-113.3
23.203,-126.95
23.218,-141.96
23.234,-156.34
23.250,-168.33
23.265,-176.82
23.281,-181.57
23.296,-183.0
23.312,-181.8
23.328,-178.67
23.343,-174.29
23.359,-169.61
23.375,-165.88
23.390,-164.58
23.406,-166.89
23.421,-173.26
23.437,-183.1
23.453,-194.72
23.468,-205.75
23.484,-213.5
23.500,-215.59
23.515,-210.36
23.531,-197.32
23.546,-177.41
23.562,-152.92
23.578,-126.93
23.593,-102.53
23.609,-81.88
23.625,-65.61
23.640,-52.88
23.656,-41.81
23.671,-30.47
23.687,-17.78
23.703,-4.15
23.718,8.47
23.734,17.28
23.750,19.76
23.765,14.93
23.781,3.92
23.796,-10.39
23.812,-24.55
23.828,-35.96
23.843,-43.77
23.859,-48.85
23.875,-52.81
23.890,-56.96
23.906,-61.58
23.921,-66.05
23.937,-69.64
23.953,-72.26
23.968,-74.78
23.984,-78.54
24.000,-84.57
24.015,-92.95
24.031,-102.73
24.046,-112.38
24.062,-120.49
24.078,-126.35
24.093,-130.13
24.109,-132.7
24.125,-135.1
24.140,-138.03
24.156,-141.53
24.171,-144.91
24.187,-146.96
24.203,-146.31
24.218,-142.0
24.234,-133.85
24.250,-122.71
24.265,-110.22
24.281,-98.22
24.296,-88.06
24.312,-80.19
24.328,-74.19
24.343,-69.23
24.359,-64.61
24.375,-60.07
24.390,-55.69
24.406,-51.63
24.421,-47.85
24.437,-44.13
24.453,-40.29
24.468,-36.46
24.484,-33.06
24.500,-30.5
24.515,-28.9
24.531,-27.86
24.546,-26.69
24.562,-24.83
24.578,-22.14
24.593,-19.03
24.609,-16.19
24.625,-14.22
24.640,-13.28
24.656,-13.07
24.671,-12.99
24.687,-12.54
24.703,-11.52
24.718,-10.06
24.734,-8.53
24.750,-7.28
24.765,-6.49
24.781,-6.11
24.796,-5.99
24.812,-5.86
24.828,-5.35
24.843,-3.89
24.859,-0.65
24.875,5.31
24.890,14.61
24.906,27.19
24.921,41.96
24.937,57.04
24.953,70.28
24.968,80.01
24.984,85.56
25.000,87.41
25.015,86.7
25.031,84.7
25.046,82.31
25.062,79.79
25.078,76.98
25.093,73.64
25.109,69.74
25.125,65.67
25.140,62.2
25.156,60.36
25.171,61.18
25.187,65.45
25.203,73.42
25.218,84.61
25.234,97.98
25.250,112.1
25.265,125.62
25.281,137.62
25.296,147.7
25.312,155.99
25.328,162.91
25.343,168.84
25.359,173.82
25.375,177.35
25.390,178.08
25.406,173.93
25.421,162.37
25.437,141.32
25.453,110.16
25.468,70.65
25.484,26.99
25.500,-14.95
25.515,-49.12
25.531,-71.03
25.546,-78.76
25.562,-73.15
25.578,-57.25
25.593,-35.32
25.609,-12.0
25.625,8.32
25.640,22.21
25.656,27.74
25.671,25.05
25.687,16.39
25.703,5.4
25.718,-4.15
25.734,-9.68
25.750,-10.37
25.765,-7.05
25.781,-1.37
25.796,4.94
25.812,10.54
25.828,14.41
25.843,15.89
25.859,14.68
25.875,11.18
25.890,6.64
25.906,2.77
25.921,1.07
25.937,2.07
25.953,4.97
25.968,8.01
25.984,9.39
26.000,8.11
26.015,4.43
26.031,-0.29
26.046,-4.21
26.062,-5.75
26.078,-4.23
26.093,0.01
26.109,5.83
26.125,11.79
26.140,16.88
26.156,20.87
26.171,24.33
26.187,28.11
26.203,32.67
26.218,37.7
26.234,42.11
26.250,44.59
26.265,44.17
26.281,40.63
26.296,34.61
26.312,27.27
26.328,19.84
26.343,13.33
26.359,8.41
26.375,5.33
26.390,4.06
26.406,4.17
26.421,4.97
26.437,5.56
26.453,5.07
26.468,2.86
26.484,-1.31
26.500,-7.14
26.515,-13.9
26.531,-20.56
26.546,-26.01
26.562,-29.38
26.578,-30.16
26.593,-28.45
26.609,-24.99
26.625,-21.0
26.640,-17.84
26.656,-16.51
26.671,-17.27
26.687,-19.38
26.703,-21.5
26.718,-22.04
26.734,-19.86
26.750,-14.61
26.765,-6.8
26.781,2.37
26.796,11.41
26.812,18.71
26.828,22.89
26.843,22.92
26.859,18.45
26.875,10.01
26.890,-0.77
26.906,-11.36
26.921,-18.82
26.937,-20.52
26.953,-15.07
26.968,-2.92
26.984,13.55
27.000,30.62
27.015,44.36
27.031,51.94
27.046,52.62
27.062,47.69
27.078,39.71
27.093,31.22
27.109,23.66
27.125,17.08
27.140,10.84
27.156,4.65
27.171,-0.87
27.187,-4.38
27.203,-5.02
27.218,-3.46
27.234,-2.08
27.250,-4.02
27.265,-11.64
27.281,-25.48
27.296,-44.22
27.312,-65.69
27.328,-87.75
27.343,-108.64
27.359,-126.67
27.375,-139.84
27.390,-146.24
27.406,-145.09
27.421,-137.67
27.437,-127.11
27.453,-117.04
27.468,-109.44
27.484,-103.55
27.500,-96.39
27.515,-84.7
27.531,-67.25
27.546,-45.78
27.562,-24.57
27.578,-8.45
27.593,-0.93
27.609,-2.83
27.625,-12.13
27.640,-24.7
27.656,-35.34
27.671,-39.52
27.687,-34.79
27.703,-21.78
27.718,-4.08
27.734,13.03
27.750,24.54
27.765,27.28
27.781,20.86
27.796,7.57
27.812,-8.44
27.828,-22.33
27.843,-30.26
27.859,-30.68
27.875,-25.03
27.890,-17.03
27.906,-10.84
27.921,-8.79
27.937,-10.06
27.953,-11.55
27.968,-9.98
27.984,-4.41
28.000,3.0
28.015,8.39
28.031,8.66
28.046,3.35
28.062,-5.45
28.078,-14.5
28.093,-21.18
28.109,-24.29
28.125,-23.72
28.140,-19.84
28.156,-12.97
28.171,-3.66
28.187,7.12
28.203,18.07
28.218,28.08
28.234,36.65
28.250,43.85
28.265,49.75
28.281,53.52
28.296,53.33
28.312,46.9
28.328,32.83
28.343,11.86
28.359,-12.92
28.375,-36.73
28.390,-54.6
28.406,-62.98
28.421,-60.95
28.437,-50.7
28.453,-36.88
28.468,-25.0
28.484,-19.43
28.500,-21.84
28.515,-30.73
28.531,-42.25
28.546,-52.15
28.562,-57.75
28.578,-59.27
28.593,-59.38
28.609,-61.77
28.625,-68.78
28.640,-79.43
28.656,-89.21
28.671,-91.45
28.687,-79.86
28.703,-50.9
28.718,-4.95
28.734,53.91
28.750,119.15
28.765,183.42
28.781,239.75
28.796,282.55
28.812,308.29
28.828,315.86
28.843,306.9
28.859,285.38
28.875,256.91
28.890,227.57
28.906,202.92
28.921,186.95
28.937,181.18
28.953,184.21
28.968,191.93
28.984,198.58
29.000,198.72
29.015,189.33
29.031,170.87
29.046,146.95
29.062,122.47
29.078,101.3
29.093,84.93
29.109,72.12
29.125,59.63
29.140,43.75
29.156,21.51
29.171,-8.21
29.187,-43.98
29.203,-81.97
29.218,-116.81
29.234,-143.41
29.250,-158.96
29.265,-163.95
29.281,-161.65
29.296,-156.12
29.312,-150.08
29.328,-143.74
29.343,-135.66
29.359,-124.48
29.375,-110.72
29.390,-96.9
29.406,-86.16
29.421,-80.3
29.437,-78.72
29.453,-78.9
29.468,-78.22
29.484,-75.55
29.500,-71.77
29.515,-68.98
29.531,-69.13
29.546,-73.13
29.562,-80.67
29.578,-90.83
29.593,-102.6
29.609,-115.02
29.625,-127.04
29.640,-137.16
29.656,-143.53
29.671,-144.52
29.687,-139.37
29.703,-128.62
29.718,-113.93
29.734,-97.42
29.750,-80.84
29.765,-65.24
29.781,-51.04
29.796,-38.44
29.812,-27.78
29.828,-19.64
29.843,-14.53
29.859,-12.53
29.875,-13.03
29.890,-14.87
29.906,-16.73
29.921,-17.68
29.937,-17.55
29.953,-16.87
29.968,-16.47
29.984,-16.88
30.000,-18.04
30.015,-19.21
30.031,-19.35
30.046,-17.66
30.062,-14.14
30.078,-9.77
30.093,-6.19
30.109,-5.16
30.125,-7.9
30.140,-14.61
30.156,-24.36
30.171,-35.43
30.187,-45.67
30.203,-52.95
30.218,-55.46
30.234,-51.91
30.250,-41.86
30.265,-26.1
30.281,-6.76
30.296,13.0
30.312,29.74
30.328,40.65
30.343,44.37
30.359,41.15
30.375,32.55
30.390,20.78
30.406,8.14
30.421,-3.2
30.437,-11.36
30.453,-14.72
30.468,-12.29
30.484,-3.96
30.500,9.24
30.515,25.34
30.531,41.98
30.546,57.08
30.562,69.24
30.578,77.84
30.593,82.77
30.609,84.19
30.625,82.44
30.640,77.91
30.656,71.09
30.671,62.74
30.687,53.75
30.703,45.16
30.718,37.89
30.734,32.52
30.750,29.2
30.765,27.59
30.781,27.03
30.796,26.83
30.812,26.5
30.828,25.84
30.843,24.8
30.859,23.27
30.875,20.86
30.890,16.96
30.906,11.01
30.921,2.89
30.937,-6.91
30.953,-17.23
30.968,-26.69
30.984,-34.0
31.000,-38.37
31.015,-39.6
31.031,-38.12
31.046,-34.76
31.062,-30.71
31.078,-27.26
31.093,-25.47
31.109,-25.84
31.125,-27.98
31.140,-30.58
31.156,-31.97
31.171,-30.67
31.187,-26.05
31.203,-18.58
31.218,-9.55
31.234,-0.47
31.250,7.45
31.265,13.62
31.281,18.07
31.296,21.39
31.312,24.55
31.328,28.74
31.343,34.77
31.359,42.55
31.375,50.8
31.390,57.34
31.406,60.18
31.421,58.66
31.437,54.03
31.453,48.92
31.468,45.88
31.484,45.93
31.500,48.01
31.515,49.79
31.531,49.09
31.546,45.21
31.562,39.11
31.578,32.5
31.593,26.62
31.609,21.5
31.625,16.15
31.640,9.58
31.656,1.64
31.671,-6.78
31.687,-14.34
31.703,-20.02
31.718,-23.79
31.734,-26.53
31.750,-29.52
31.765,-33.8
31.781,-39.65
31.796,-46.44
31.812,-52.92
31.828,-57.54
31.843,-58.89
31.859,-56.05
31.875,-48.78
31.890,-37.57
31.906,-23.57
31.921,-8.37
31.937,6.37
31.953,19.11
31.968,28.76
31.984,34.91
32.000,37.78
32.015,38.22
32.031,37.3
32.046,35.96
32.062,34.59
32.078,32.96
32.093,30.4
32.109,26.17
32.125,19.92
32.140,11.86
32.156,2.74
32.171,-6.4
32.187,-14.53
32.203,-20.81
32.218,-24.64
32.234,-25.74
32.250,-24.18
32.265,-20.57
32.281,-16.2
32.296,-12.82
32.312,-12.25
32.328,-15.71
32.343,-23.27
32.359,-33.66
32.375,-44.68
32.390,-54.03
32.406,-60.27
32.421,-63.42
32.437,-64.79
32.453,-66.27
32.468,-69.11
32.484,-73.23
32.500,-77.1
32.515,-78.37
32.531,-75.03
32.546,-66.31
32.562,-53.1
32.578,-37.53
32.593,-22.22
32.609,-9.48
32.625,-0.67
32.640,4.15
32.656,6.38
32.671,8.75
32.687,15.07
32.703,29.32
32.718,54.42
32.734,90.78
32.750,135.36
32.765,182.12
32.781,223.62
32.796,253.3
32.812,267.54
32.828,266.37
32.843,252.64
32.859,230.19
32.875,201.99
32.890,169.26
32.906,131.71
32.921,88.85
32.937,41.34
32.953,-8.41
32.968,-56.35
32.984,-98.05
33.000,-130.16
33.015,-151.42
33.031,-162.89
33.046,-167.39
33.062,-168.19
33.078,-167.79
33.093,-167.14
33.109,-165.74
33.125,-162.42
33.140,-156.22
33.156,-147.01
33.171,-135.46
33.187,-122.57
33.203,-109.19
33.218,-95.83
33.234,-82.76
33.250,-70.31
33.265,-58.96
33.281,-49.22
33.296,-41.53
33.312,-35.92
33.328,-32.05
33.343,-29.2
33.359,-26.41
33.375,-22.61
33.390,-16.86
33.406,-8.62
33.421,1.94
33.437,13.87
33.453,25.79
33.468,36.42
33.484,45.18
33.500,52.3
33.515,58.44
33.531,63.89
33.546,68.08
33.562,69.73
33.578,67.57
33.593,61.31
33.609,51.78
33.625,40.8
33.640,30.76
33.656,24.3
33.671,23.97
33.687,31.96
33.703,48.98
33.718,73.13
33.734,99.6
33.750,121.65
33.765,133.21
33.781,131.66
33.796,119.04
33.812,100.76
33.828,82.37
33.843,66.4
33.859,51.28
33.875,33.05
33.890,8.81
33.906,-20.57
33.921,-50.07
33.937,-72.83
33.953,-83.46
33.968,-80.37
33.984,-66.1
34.000,-45.73
34.015,-24.58
34.031,-6.72
34.046,5.46
34.062,10.82
34.078,8.97
34.093,0.36
34.109,-13.2
34.125,-28.28
34.140,-40.38
34.156,-44.8
34.171,-38.16
34.187,-19.36
34.203,10.11
34.218,46.51
34.234,84.75
34.250,119.49
34.265,146.16
34.281,161.4
34.296,163.66
34.312,153.13
34.328,131.98
34.343,104.59
34.359,77.16
34.375,55.99
34.390,45.28
34.406,45.21
34.421,51.78
34.437,58.94
34.453,61.6
34.468,58.19
34.484,50.92
34.500,43.62
34.515,38.66
34.531,35.04
34.546,28.82
34.562,15.62
34.578,-6.54
34.593,-35.99
34.609,-68.19
34.625,-97.9
34.640,-121.31
34.656,-136.88
34.671,-144.9
34.687,-146.57
34.703,-143.3
34.718,-136.39
34.734,-126.9
34.750,-115.56
34.765,-102.87
34.781,-89.49
34.796,-76.35
34.812,-64.63
34.828,-55.38
34.843,-48.98
34.859,-44.68
34.875,-40.96
34.890,-36.33
34.906,-30.18
34.921,-23.25
34.937,-17.19
34.953,-13.61
34.968,-13.17
34.984,-15.29
35.000,-18.62
35.015,-21.94
35.031,-24.86
35.046,-27.78
35.062,-31.3
35.078,-35.41
35.093,-39.28
35.109,-41.47
35.125,-40.66
35.140,-36.3
35.156,-28.76
35.171,-19.08
35.187,-8.51
35.203,1.95
35.218,11.82
35.234,21.03
35.250,29.79
35.265,38.28
35.281,46.4
35.296,53.74
35.312,59.42
35.328,62.38
35.343,61.63
35.359,56.62
35.375,47.49
35.390,34.99
35.406,20.49
35.421,5.55
35.437,-8.19
35.453,-19.47
35.468,-27.58
35.484,-32.48
35.500,-34.69
35.515,-35.12
35.531,-34.83
35.546,-34.84
35.562,-35.94
35.578,-38.42
35.593,-42.04
35.609,-45.97
35.625,-49.05
35.640,-50.09
35.656,-48.35
35.671,-43.77
35.687,-36.96
35.703,-28.99
35.718,-20.97
35.734,-13.78
35.750,-7.91
35.765,-3.43
35.781,-0.28
35.796,1.7
35.812,2.59
35.828,2.47
35.843,1.41
35.859,-0.49
35.875,-3.14
35.890,-6.41
35.906,-10.04
35.921,-13.62
35.937,-16.55
35.953,-18.01
35.968,-17.31
35.984,-14.13
36.000,-8.87
36.015,-2.55
36.031,3.59
36.046,8.64
36.062,12.42
36.078,15.41
36.093,18.36
36.109,21.64
36.125,24.99
36.140,27.61
36.156,28.56
36.171,27.33
36.187,24.1
36.203,19.71
36.218,15.28
36.234,11.82
36.250,9.85
36.265,9.39
36.281,9.98
36.296,10.97
36.312,11.7
36.328,11.76
36.343,11.06
36.359,9.76
36.375,8.06
36.390,6.11
36.406,3.93
36.421,1.67
36.437,-0.45
36.453,-1.96
36.468,-2.32
36.484,-1.14
36.500,1.61
36.515,5.56
36.531,10.02
36.546,14.17
36.562,17.39
36.578,19.31
36.593,19.91
36.609,19.48
36.625,18.5
36.640,17.53
36.656,16.92
36.671,16.84
36.687,17.12
36.703,17.52
36.718,17.79
36.734,17.87
36.750,17.87
36.765,17.88
36.781,17.9
36.796,17.72
36.812,17.05
36.828,15.73
36.843,13.85
36.859,11.8
36.875,10.09
36.890,9.2
36.906,9.32
36.921,10.42
36.937,12.23
36.953,14.33
36.968,16.26
36.984,17.64
37.000,18.3
37.015,18.25
37.031,17.69
37.046,16.87
37.062,16.04
37.078,15.29
37.093,14.62
37.109,13.92
37.125,13.13
37.140,12.19
37.156,11.07
37.171,9.73
37.187,8.09
37.203,6.02
37.218,3.53
37.234,0.61
37.250,-2.59
37.265,-5.96
37.281,-9.45
37.296,-13.13
37.312,-17.18
37.328,-21.68
37.343,-26.52
37.359,-31.26
37.375,-35.26
37.390,-37.78
37.406,-38.33
37.421,-36.7
37.437,-33.01
37.453,-27.68
37.468,-21.25
37.484,-14.37
37.500,-7.64
37.515,-1.66
37.531,3.15
37.546,6.54
37.562,8.48
37.578,9.2
37.593,9.08
37.609,8.53
37.625,8.05
37.640,8.03
37.656,8.68
37.671,9.94
37.687,11.46
37.703,12.68
37.718,13.09
37.734,12.41
37.750,10.73
37.765,8.41
37.781,5.91
37.796,3.53
37.812,1.32
37.828,-0.89
37.843,-3.42
37.859,-6.54
37.875,-10.35
37.890,-14.71
37.906,-19.26
37.921,-23.56
37.937,-27.12
37.953,-29.44
37.968,-30.19
37.984,-29.19
38.000,-26.42
38.015,-22.07
38.031,-16.45
38.046,-10.06
38.062,-3.55
38.078,2.38
38.093,7.15
38.109,10.37
38.125,11.99
38.140,12.22
38.156,11.46
38.171,10.2
38.187,8.81
38.203,7.61
38.218,6.79
38.234,6.42
38.250,6.46
38.265,6.73
38.281,7.0
38.296,6.99
38.312,6.57
38.328,5.71
38.343,4.55
38.359,3.22
38.375,1.76
38.390,0.06
38.406,-2.08
38.421,-4.82
38.437,-8.21
38.453,-11.98
38.468,-15.6
38.484,-18.38
38.500,-19.62
38.515,-18.87
38.531,-16.04
38.546,-11.46
38.562,-5.71
38.578,0.44
38.593,6.36
38.609,11.6
38.625,15.92
38.640,19.22
38.656,21.4
38.671,22.42
38.687,22.26
38.703,21.14
38.718,19.45
38.734,17.72
38.750,16.43
38.765,15.84
38.781,15.9
38.796,16.23
38.812,16.41
38.828,16.01
38.843,14.86
38.859,13.06
38.875,10.89
38.890,8.65
38.906,6.51
38.921,4.46
38.937,2.29
38.953,-0.26
38.968,-3.35
38.984,-6.91
39.000,-10.57
39.015,-13.74
39.031,-15.77
39.046,-16.14
39.062,-14.63
39.078,-11.28
39.093,-6.42
39.109,-0.6
39.125,5.53
39.140,11.3
39.156,16.14
39.171,19.57
39.187,21.35
39.203,21.45
39.218,20.06
39.234,17.59
39.250,14.52
39.265,11.34
39.281,8.47
39.296,6.21
39.312,4.73
39.328,4.04
39.343,4.0
39.359,4.36
39.375,4.86
39.390,5.21
39.406,5.26
39.421,4.94
39.437,4.29
39.453,3.37
39.468,2.23
39.484,0.87
39.500,-0.75
39.515,-2.62
39.531,-4.69
39.546,-6.7
39.562,-8.31
39.578,-9.11
39.593,-8.64
39.609,-6.72
39.625,-3.33
39.640,1.19
39.656,6.36
39.671,11.64
39.687,16.63
39.703,21.11
39.718,24.98
39.734,28.25
39.750,30.82
39.765,32.59
39.781,33.45
39.796,33.44
39.812,32.77
39.828,31.8
39.843,30.98
39.859,30.61
39.875,30.79
39.890,31.32
39.906,31.88
39.921,32.13
39.937,31.84
39.953,30.95
39.968,29.5
39.984,27.67
40.000,25.61
40.015,23.47
40.031,21.37
40.046,19.4
40.062,17.56
40.078,15.88
40.093,14.28
40.109,12.65
40.125,10.79
40.140,8.47
40.156,5.48
40.171,1.76
40.187,-2.53
40.203,-6.9
40.218,-10.68
40.234,-13.18
40.250,-13.98
40.265,-13.02
40.281,-10.66
40.296,-7.44
40.312,-3.85
40.328,-0.16
40.343,3.61
40.359,7.49
40.375,11.4
40.390,15.02
40.406,17.89
40.421,19.59
40.437,19.99
40.453,19.25
40.468,17.84
40.484,16.28
40.500,14.95
40.515,13.98
40.531,13.31
40.546,12.73
40.562,12.04
40.578,11.12
40.593,9.96
40.609,8.67
40.625,7.46
40.640,6.55
40.656,6.09
40.671,6.16
40.687,6.74
40.703,7.72
40.718,8.91
40.734,9.99
40.750,10.64
40.765,10.55
40.781,9.52
40.796,7.55
40.812,4.9
40.828,1.93
40.843,-1.0
40.859,-3.66
40.875,-5.95
40.890,-7.88
40.906,-9.44
40.921,-10.58
40.937,-11.24
40.953,-11.28
40.968,-10.6
40.984,-9.07
41.000,-6.5
41.015,-2.77
41.031,2.13
41.046,7.95
41.062,14.21
41.078,20.26
41.093,25.56
41.109,29.82
41.125,33.08
41.140,35.69
41.156,37.99
41.171,40.16
41.187,42.17
41.203,43.78
41.218,44.82
41.234,45.35
41.250,45.62
41.265,46.03
41.281,46.89
41.296,48.14
41.312,49.39
41.328,50.05
41.343,49.62
41.359,47.92
41.375,45.21
41.390,41.97
41.406,38.72
41.421,35.86
41.437,33.46
41.453,31.37
41.468,29.32
41.484,27.03
41.500,24.23
41.515,20.7
41.531,16.3
41.546,10.95
41.562,4.79
41.578,-1.82
41.593,-8.37
41.609,-14.31
41.625,-19.34
41.640,-23.4
41.656,-26.78
41.671,-29.78
41.687,-32.61
41.703,-35.15
41.718,-37.01
41.734,-37.71
41.750,-36.9
41.765,-34.61
41.781,-31.18
41.796,-27.23
41.812,-23.33
41.828,-19.91
41.843,-17.13
41.859,-14.93
41.875,-13.15
41.890,-11.59
41.906,-10.16
41.921,-8.77
41.937,-7.28
41.953,-5.43
41.968,-2.83
41.984,0.77
42.000,5.31
42.015,10.26
42.031,14.89
42.046,18.41
42.062,20.47
42.078,21.19
42.093,21.13
42.109,20.97
42.125,21.13
42.140,21.65
42.156,22.19
42.171,22.31
42.187,21.67
42.203,20.16
42.218,17.85
42.234,14.9
42.250,11.52
42.265,7.9
42.281,4.26
42.296,0.78
42.312,-2.43
42.328,-5.29
42.343,-7.88
42.359,-10.29
42.375,-12.61
42.390,-14.83
42.406,-16.75
42.421,-17.98
42.437,-18.09
42.453,-16.8
42.468,-14.09
42.484,-10.3
42.500,-5.99
42.515,-1.76
42.531,1.9
42.546,4.72
42.562,6.76
42.578,8.19
42.593,9.23
42.609,10.09
42.625,10.86
42.640,11.56
42.656,12.2
42.671,12.76
42.687,13.19
42.703,13.5
42.718,13.59
42.734,13.25
42.750,12.21
42.765,10.26
42.781,7.4
42.796,3.98
42.812,0.68
42.828,-1.78
42.843,-2.86
42.859,-2.48
42.875,-0.94
42.890,1.23
42.906,3.57
42.921,5.84
42.937,8.03
42.953,10.09
42.968,11.77
42.984,12.59
43.000,12.05
43.015,9.96
43.031,6.69
43.046,2.99
43.062,-0.27
43.078,-2.52
43.093,-3.77
43.109,-4.43
43.125,-5.1
43.140,-6.12
43.156,-7.47
43.171,-8.81
43.187,-9.84
43.203,-10.42
43.218,-10.64
43.234,-10.65
43.250,-10.4
43.265,-9.53
43.281,-7.52
43.296,-3.91
43.312,1.31
43.328,7.54
43.343,13.67
43.359,18.52
43.375,21.15
43.390,21.3
43.406,19.37
43.421,16.26
43.437,12.93
43.453,10.06
43.468,7.91
43.484,6.39
43.500,5.17
43.515,3.82
43.531,1.91
43.546,-0.87
43.562,-4.62
43.578,-8.97
43.593,-13.2
43.609,-16.3
43.625,-17.44
43.640,-16.33
43.656,-13.46
43.671,-9.9
43.687,-6.88
43.703,-5.27
43.718,-5.28
43.734,-6.56
43.750,-8.41
43.765,-10.23
43.781,-11.6
43.796,-12.36
43.812,-12.41
43.828,-11.61
43.843,-9.8
43.859,-6.85
43.875,-2.82
43.890,2.03
43.906,7.11
43.921,11.71
43.937,15.06
43.953,16.61
43.968,16.19
43.984,14.14
44.000,11.31
44.015,8.82
44.031,7.78
44.046,8.91
44.062,12.34
44.078,17.5
44.093,23.42
44.109,29.0
44.125,33.36
44.140,35.97
44.156,36.6
44.171,35.24
44.187,31.95
44.203,26.8
44.218,20.03
44.234,12.14
44.250,3.99
44.265,-3.33
44.281,-8.77
44.296,-11.63
44.312,-11.81
44.328,-9.81
44.343,-6.57
44.359,-3.15
44.375,-0.45
44.390,0.97
44.406,0.98
44.421,-0.32
44.437,-2.54
44.453,-5.15
44.468,-7.47
44.484,-8.79
44.500,-8.47
44.515,-6.17
44.531,-2.02
44.546,3.31
44.562,8.82
44.578,13.39
44.593,16.18
44.609,16.91
44.625,15.97
44.640,14.19
44.656,12.53
44.671,11.68
44.687,11.93
44.703,13.17
44.718,14.97
44.734,16.91
44.750,18.62
44.765,19.91
44.781,20.77
44.796,21.28
44.812,21.47
44.828,21.34
44.843,20.76
44.859,19.53
44.875,17.44
44.890,14.27
44.906,9.87
44.921,4.12
44.937,-2.87
44.953,-10.81
44.968,-19.12
44.984,-26.98
45.000,-33.56
45.015,-38.3
45.031,-41.2
45.046,-42.78
45.062,-43.8
45.078,-44.84
45.093,-45.94
45.109,-46.64
45.125,-46.29
45.140,-44.46
45.156,-41.22
45.171,-37.11
45.187,-32.77
45.203,-28.66
45.218,-24.96
45.234,-21.54
45.250,-18.34
45.265,-15.41
45.281,-12.95
45.296,-11.1
45.312,-9.83
45.328,-8.87
45.343,-7.92
45.359,-6.8
45.375,-5.57
45.390,-4.49
45.406,-3.88
45.421,-4.0
45.437,-4.84
45.453,-6.21
45.468,-7.8
45.484,-9.38
45.500,-10.83
45.515,-12.22
45.531,-13.62
45.546,-14.96
45.562,-15.92
45.578,-15.96
45.593,-14.55
45.609,-11.47
45.625,-7.0
45.640,-1.88
45.656,2.97
45.671,6.81
45.687,9.45
45.703,11.29
45.718,13.14
45.734,15.81
45.750,19.85
45.765,25.3
45.781,31.77
45.796,38.57
45.812,44.85
45.828,49.78
45.843,52.62
45.859,52.9
45.875,50.78
45.890,47.3
45.906,44.5
45.921,44.99
45.937,50.98
45.953,63.19
45.968,80.35
45.984,99.32
46.000,116.34
46.015,128.31
46.031,133.71
46.046,132.74
46.062,126.55
46.078,116.34
46.093,102.74
46.109,85.96
46.125,66.36
46.140,44.92
46.156,23.4
46.171,3.92
46.187,-11.78
46.203,-22.9
46.218,-29.93
46.234,-34.39
46.250,-38.15
46.265,-42.59
46.281,-47.95
46.296,-53.15
46.312,-56.4
46.328,-56.15
46.343,-52.08
46.359,-45.59
46.375,-39.36
46.390,-36.38
46.406,-38.82
46.421,-47.32
46.437,-60.89
46.453,-77.37
46.468,-94.15
46.484,-108.71
46.500,-119.05
46.515,-123.92
46.531,-122.86
46.546,-116.32
46.562,-105.5
46.578,-92.0
46.593,-77.53
46.609,-63.58
46.625,-51.16
46.640,-40.82
46.656,-32.7
46.671,-26.61
46.687,-22.11
46.703,-18.69
46.718,-15.78
46.734,-13.04
46.750,-10.45
46.765,-8.26
46.781,-6.93
46.796,-6.87
46.812,-8.27
46.828,-11.02
46.843,-14.74
46.859,-18.94
46.875,-23.12
46.890,-26.93
46.906,-30.12
46.921,-32.57
46.937,-34.22
46.953,-35.0
46.968,-34.92
46.984,-34.04
47.000,-32.51
47.015,-30.53
47.031,-28.3
47.046,-25.92
47.062,-23.46
47.078,-20.97
47.093,-18.48
47.109,-15.99
47.125,-13.4
47.140,-10.45
47.156,-6.72
47.171,-1.85
47.187,4.23
47.203,11.0
47.218,17.39
47.234,22.04
47.250,23.82
47.265,22.26
47.281,17.81
47.296,11.64
47.312,5.13
47.328,-0.58
47.343,-4.95
47.359,-8.05
47.375,-10.29
47.390,-12.09
47.406,-13.7
47.421,-15.14
47.437,-16.34
47.453,-17.2
47.468,-17.54
47.484,-17.06
47.500,-15.32
47.515,-11.89
47.531,-6.62
47.546,0.28
47.562,8.16
47.578,16.14
47.593,23.34
47.609,29.12
47.625,33.16
47.640,35.39
47.656,35.89
47.671,34.85
47.687,32.53
47.703,29.26
47.718,25.45
47.734,21.47
47.750,17.6
47.765,13.93
47.781,10.37
47.796,6.81
47.812,3.15
47.828,-0.52
47.843,-3.99
47.859,-6.99
47.875,-9.31
47.890,-10.91
47.906,-11.94
47.921,-12.7
47.937,-13.44
47.953,-14.3
47.968,-15.23
47.984,-16.08
48.000,-16.7
48.015,-17.0
48.031,-17.01
48.046,-16.75
48.062,-16.17
48.078,-15.16
48.093,-13.64
48.109,-11.58
48.125,-9.15
48.140,-6.54
48.156,-3.95
48.171,-1.5
48.187,0.75
48.203,2.74
48.218,4.29
48.234,5.13
48.250,5.03
48.265,3.97
48.281,2.2
48.296,0.21
48.312,-1.5
48.328,-2.63
48.343,-3.2
48.359,-3.4
48.375,-3.48
48.390,-3.42
48.406,-3.02
48.421,-1.97
48.437,-0.1
48.453,2.4
48.468,5.0
48.484,7.06
48.500,8.08
48.515,8.01
48.531,7.21
48.546,6.32
48.562,5.98
48.578,6.55
48.593,8.1
48.609,10.37
48.625,12.93
48.640,15.2
48.656,16.53
48.671,16.26
48.687,14.02
48.703,9.9
48.718,4.66
48.734,-0.49
48.750,-4.19
48.765,-5.47
48.781,-4.06
48.796,-0.44
48.812,4.44
48.828,9.58
48.843,14.22
48.859,17.97
48.875,20.68
48.890,22.24
48.906,22.6
48.921,21.77
48.937,20.0
48.953,17.81
48.968,15.88
48.984,14.84
49.000,15.05
49.015,16.5
49.031,18.83
49.046,21.47
49.062,23.97
49.078,26.02
49.093,27.63
49.109,28.95
49.125,30.2
49.140,31.49
49.156,32.83
49.171,34.02
49.187,34.7
49.203,34.4
49.218,32.63
49.234,29.01
49.250,23.5
49.265,16.5
49.281,8.76
49.296,1.23
49.312,-5.32
49.328,-10.57
49.343,-14.63
49.359,-17.92
49.375,-20.82
49.390,-23.38
49.406,-25.32
49.421,-26.19
49.437,-25.63
49.453,-23.67
49.468,-20.64
49.484,-17.0
49.500,-13.17
49.515,-9.32
49.531,-5.46
49.546,-1.58
49.562,2.23
49.578,5.74
49.593,8.58
49.609,10.25
49.625,10.27
49.640,8.21
49.656,3.82
49.671,-2.75
49.687,-10.86
49.703,-19.38
49.718,-26.97
49.734,-32.54
49.750,-35.59
49.765,-36.29
49.781,-35.41
49.796,-33.79
49.812,-32.02
49.828,-30.25
49.843,-28.32
49.859,-26.01
49.875,-23.25
49.890,-20.17
49.906,-16.99
49.921,-13.92
49.937,-11.03
49.953,-8.39
49.968,-6.14
49.984,-4.5
50.000,-3.69
50.015,-3.8
50.031,-4.63
50.046,-5.66
50.062,-6.23
50.078,-5.66
50.093,-3.49
50.109,0.34
50.125,5.6
50.140,11.7
50.156,17.91
50.171,23.48
50.187,27.82
50.203,30.61
50.218,31.87
50.234,32.01
50.250,31.56
50.265,31.12
50.281,31.09
50.296,31.6
50.312,32.57
50.328,33.7
50.343,34.78
50.359,35.66
50.375,36.44
50.390,37.23
50.406,38.08
50.421,38.86
50.437,39.16
50.453,38.46
50.468,36.21
50.484,32.2
50.500,26.55
50.515,19.85
50.531,12.95
50.546,6.74
50.562,1.82
50.578,-1.66
50.593,-4.02
50.609,-5.86
50.625,-7.76
50.640,-10.04
50.656,-12.68
50.671,-15.44
50.687,-18.08
50.703,-20.49
50.718,-22.74
50.734,-25.01
50.750,-27.42
50.765,-29.92
50.781,-32.42
50.796,-34.73
50.812,-36.68
50.828,-38.11
50.843,-38.81
50.859,-38.53
50.875,-37.14
50.890,-34.69
50.906,-31.42
50.921,-27.7
50.937,-23.76
50.953,-19.68
50.968,-15.35
50.984,-10.69
51.000,-5.88
51.015,-1.28
51.031,2.6
51.046,5.35
51.062,6.91
51.078,7.61
51.093,7.93
51.109,8.38
51.125,9.26
51.140,10.56
51.156,12.04
51.171,13.27
51.187,13.8
51.203,13.27
51.218,11.58
51.234,8.85
51.250,5.5
51.265,2.06
51.281,-1.0
51.296,-3.4
51.312,-5.11
51.328,-6.25
51.343,-6.98
51.359,-7.39
51.375,-7.51
51.390,-7.4
51.406,-7.26
51.421,-7.43
51.437,-8.33
51.453,-10.28
51.468,-13.37
51.484,-17.32
51.500,-21.59
51.515,-25.45
51.531,-28.18
51.546,-29.34
51.562,-28.78
51.578,-26.6
51.593,-23.15
51.609,-18.82
51.625,-14.0
51.640,-9.03
51.656,-4.21
51.671,0.2
51.687,3.91
51.703,6.74
51.718,8.71
51.734,9.96
51.750,10.82
51.765,11.65
51.781,12.68
51.796,13.96
51.812,15.4
51.828,16.88
51.843,18.28
51.859,19.6
51.875,20.81
51.890,21.9
51.906,22.8
51.921,23.44
51.937,23.83
51.953,24.08
51.968,24.3
51.984,24.59
52.000,24.88
52.015,24.96
52.031,24.65
52.046,23.85
52.062,22.65
52.078,21.32
52.093,20.15
52.109,19.36
52.125,18.99
52.140,18.96
52.156,19.08
52.171,19.19
52.187,19.04
52.203,18.34
52.218,16.89
52.234,14.51
52.250,11.33
52.265,7.76
52.281,4.42
52.296,1.97
52.312,0.75
52.328,0.72
52.343,1.47
52.359,2.39
52.375,2.93
52.390,2.86
52.406,2.29
52.421,1.54
52.437,1.06
52.453,1.19
52.468,2.07
52.484,3.57
52.500,5.36
52.515,7.02
52.531,8.22
52.546,8.75
52.562,8.62
52.578,7.95
52.593,6.85
52.609,5.45
52.625,3.79
52.640,1.98
52.656,0.15
52.671,-1.54
52.687,-3.0
52.703,-4.22
52.718,-5.26
52.734,-6.14
52.750,-6.71
52.765,-6.74
52.781,-6.05
52.796,-4.7
52.812,-3.17
52.828,-2.18
52.843,-2.49
52.859,-4.55
52.875,-8.4
52.890,-13.58
52.906,-19.35
52.921,-24.98
52.937,-29.84
52.953,-33.66
52.968,-36.3
52.984,-37.84
53.000,-38.41
53.015,-38.12
53.031,-37.13
53.046,-35.6
53.062,-33.79
53.078,-31.97
53.093,-30.47
53.109,-29.52
53.125,-29.15
53.140,-29.11
53.156,-28.89
53.171,-27.85
53.187,-25.45
53.203,-21.45
53.218,-16.07
53.234,-9.99
53.250,-4.06
53.265,0.96
53.281,4.61
53.296,6.9
53.312,8.1
53.328,8.59
53.343,8.65
53.359,8.39
53.375,7.75
53.390,6.73
53.406,5.42
53.421,4.02
53.437,2.85
53.453,2.07
53.468,1.73
53.484,1.74
53.500,1.84
53.515,1.75
53.531,1.22
53.546,0.12
53.562,-1.6
53.578,-3.77
53.593,-6.17
53.609,-8.44
53.625,-10.24
53.640,-11.41
53.656,-11.93
53.671,-12.01
53.687,-11.89
53.703,-11.78
53.718,-11.68
53.734,-11.45
53.750,-10.9
53.765,-9.95
53.781,-8.69
53.796,-7.31
53.812,-5.97
53.828,-4.77
53.843,-3.64
53.859,-2.48
53.875,-1.25
53.890,0.04
53.906,1.3
53.921,2.45
53.937,3.46
53.953,4.31
53.968,4.98
53.984,5.44
54.000,5.7
54.015,5.9
54.031,6.3
54.046,7.21
54.062,8.77
54.078,10.89
54.093,13.2
54.109,15.25
54.125,16.73
54.140,17.56
54.156,17.94
54.171,18.13
54.187,18.36
54.203,18.68
54.218,18.94
54.234,18.93
54.250,18.51
54.265,17.74
54.281,16.81
54.296,16.0
54.312,15.57
54.328,15.62
54.343,16.08
54.359,16.68
54.375,17.07
54.390,16.86
54.406,15.8
54.421,13.7
54.437,10.55
54.453,6.43
54.468,1.64
54.484,-3.35
54.500,-7.82
54.515,-11.02
54.531,-12.28
54.546,-11.3
54.562,-8.3
54.578,-3.93
54.593,0.96
54.609,5.63
54.625,9.64
54.640,12.84
54.656,15.19
54.671,16.57
54.687,16.62
54.703,14.92
54.718,11.23
54.734,5.71
54.750,-0.96
54.765,-7.82
54.781,-13.85
54.796,-18.42
54.812,-21.37
54.828,-22.93
54.843,-23.5
54.859,-23.41
54.875,-22.71
54.890,-21.35
54.906,-19.26
54.921,-16.63
54.937,-13.84
54.953,-11.4
54.968,-9.73
54.984,-8.98
55.000,-9.05
55.015,-9.63
55.031,-10.5
55.046,-11.51
55.062,-12.68
55.078,-14.06
55.093,-15.56
55.109,-16.86
55.125,-17.51
55.140,-17.01
55.156,-15.1
55.171,-11.95
55.187,-8.08
55.203,-4.22
55.218,-1.07
55.234,0.97
55.250,1.91
55.265,2.11
55.281,2.11
55.296,2.33
55.312,2.97
55.328,3.86
55.343,4.62
55.359,4.84
55.375,4.35
55.390,3.24
55.406,1.91
55.421,0.84
55.437,0.39
55.453,0.65
55.468,1.45
55.484,2.4
55.500,3.24
55.515,3.82
55.531,4.17
55.546,4.36
55.562,4.34
55.578,3.94
55.593,2.98
55.609,1.35
55.625,-0.88
55.640,-3.36
55.656,-5.66
55.671,-7.46
55.687,-8.61
55.703,-9.28
55.718,-9.71
55.734,-10.15
55.750,-10.68
55.765,-11.28
55.781,-11.89
55.796,-12.57
55.812,-13.47
55.828,-14.81
55.843,-16.72
55.859,-19.05
55.875,-21.36
55.890,-23.02
55.906,-23.4
55.921,-22.12
55.937,-19.15
55.953,-14.85
55.968,-9.78
55.984,-4.52
56.000,0.51
56.015,5.08
56.031,9.11
56.046,12.52
56.062,15.12
56.078,16.65
56.093,16.92
56.109,15.96
56.125,14.04
56.140,11.69
56.156,9.43
56.171,7.64
56.187,6.45
56.203,5.77
56.218,5.49
56.234,5.57
56.250,6.1
56.265,7.11
56.281,8.57
56.296,10.26
56.312,11.85
56.328,13.03
56.343,13.61
56.359,13.61
56.375,13.17
56.390,12.47
56.406,11.61
56.421,10.59
56.437,9.36
56.453,7.89
56.468,6.23
56.484,4.48
56.500,2.84
56.515,1.41
56.531,0.32
56.546,-0.44
56.562,-0.85
56.578,-0.97
56.593,-0.73
56.609,0.05
56.625,1.68
56.640,4.61
56.656,9.23
56.671,15.83
56.687,24.36
56.703,34.48
56.718,45.48
56.734,56.42
56.750,66.31
56.765,74.17
56.781,79.26
56.796,81.11
56.812,79.62
56.828,75.01
56.843,67.77
56.859,58.62
56.875,48.33
56.890,37.76
56.906,27.59
56.921,18.3
56.937,9.94
56.953,2.28
56.968,-5.15
56.984,-12.71
57.000,-20.39
57.015,-27.73
57.031,-33.85
57.046,-37.87
57.062,-39.21
57.078,-37.86
57.093,-34.3
57.109,-29.41
57.125,-24.13
57.140,-19.26
57.156,-15.33
57.171,-12.5
57.187,-10.61
57.203,-9.19
57.218,-7.63
57.234,-5.41
57.250,-2.25
57.265,1.71
57.281,6.05
57.296,10.37
57.312,14.73
57.328,19.67
57.343,26.04
57.359,34.42
57.375,44.54
57.390,55.07
57.406,63.88
57.421,68.67
57.437,67.71
57.453,60.51
57.468,47.89
57.484,31.79
57.500,14.69
57.515,-1.09
57.531,-13.77
57.546,-22.52
57.562,-27.48
57.578,-29.71
57.593,-30.7
57.609,-31.86
57.625,-34.14
57.640,-37.86
57.656,-42.9
57.671,-49.03
57.687,-56.14
57.703,-64.16
57.718,-72.86
57.734,-81.57
57.750,-89.09
57.765,-94.0
57.781,-95.25
57.796,-92.47
57.812,-86.27
57.828,-77.95
57.843,-69.02
57.859,-60.73
57.875,-53.8
57.890,-48.32
57.906,-44.02
57.921,-40.48
57.937,-37.37
57.953,-34.58
57.968,-32.05
57.984,-29.71
58.000,-27.35
58.015,-24.69
58.031,-21.51
58.046,-17.8
58.062,-13.83
58.078,-10.07
58.093,-7.02
58.109,-4.99
58.125,-4.06
58.140,-4.11
58.156,-4.88
58.171,-6.0
58.187,-7.1
58.203,-7.78
58.218,-7.71
58.234,-6.89
58.250,-5.51
58.265,-4.03
58.281,-2.81
58.296,-2.02
58.312,-1.49
58.328,-0.89
58.359,1.21
58.375,2.5
58.390,3.46
58.406,3.86
58.421,3.66
58.437,3.0
58.453,2.16
58.468,1.34
58.484,0.75
58.500,0.5
58.515,0.7
58.531,1.4
58.546,2.56
58.562,4.02
58.578,5.48
58.593,6.63
58.609,7.24
58.625,7.26
58.640,6.89
58.656,6.47
58.671,6.34
58.687,6.7
58.703,7.54
58.718,8.64
58.734,9.73
58.750,10.63
58.765,11.32
58.781,12.05
58.796,13.08
58.812,14.6
58.828,16.6
58.843,18.8
58.859,20.89
58.875,22.66
58.890,24.1
58.906,25.41
58.921,26.89
58.937,28.64
58.953,30.48
58.968,31.85
58.984,32.04
59.000,30.45
59.015,26.87
59.031,21.59
59.046,15.4
59.062,9.37
59.078,4.56
59.093,1.8
59.109,1.41
59.125,3.19
59.140,6.39
59.156,9.91
59.171,12.57
59.187,13.41
59.203,12.0
59.218,8.47
59.234,3.38
59.250,-2.53
59.265,-8.69
59.281,-14.74
59.296,-20.62
59.312,-26.31
59.328,-31.66
59.343,-36.41
59.359,-40.14
59.375,-42.38
59.390,-42.84
59.406,-41.43
59.421,-38.3
59.437,-33.88
59.453,-28.71
59.468,-23.36
59.484,-18.33
59.500,-13.93
59.515,-10.39
59.531,-8.0
59.546,-7.09
59.562,-7.87
59.578,-10.25
59.593,-13.63
59.609,-17.04
59.625,-19.49
59.640,-20.34
59.656,-19.68
59.671,-18.09
59.687,-16.32
59.703,-14.79
59.718,-13.4
59.734,-11.64
59.750,-9.04
59.765,-5.56
59.781,-1.59
59.796,2.16
59.812,5.04
59.828,6.76
59.843,7.32
59.859,6.9
59.875,5.64
59.890,3.64
59.906,0.97
59.921,-2.07
59.937,-4.95
59.953,-7.0
59.968,-7.66
59.984,-6.78
