timestamp,value
00.000,-37.28
00.015,-52.07
00.031,-64.12
00.046,-72.58
00.062,-78.15
00.078,-82.61
00.093,-87.91
00.109,-95.41
00.125,-105.34
00.140,-116.73
00.156,-127.58
00.171,-135.4
00.187,-137.69
00.203,-132.7
00.218,-119.86
00.234,-99.98
00.250,-74.91
00.265,-46.88
00.281,-17.88
00.296,10.86
00.312,38.75
00.328,65.46
00.343,90.43
00.359,112.71
00.375,131.11
00.390,144.41
00.406,151.68
00.421,152.26
00.437,146.0
00.453,133.46
00.468,116.27
00.484,97.14
00.500,79.36
00.515,65.94
00.531,58.5
00.546,56.82
00.562,58.91
00.578,61.92
00.593,63.17
00.609,61.02
00.625,55.05
00.640,45.84
00.656,34.36
00.671,21.64
00.687,8.59
00.703,-3.97
00.718,-15.2
00.734,-24.36
00.750,-31.0
00.765,-34.94
00.781,-36.51
00.796,-36.44
00.812,-35.62
00.828,-34.92
00.843,-34.93
00.859,-35.81
00.875,-37.36
00.890,-39.3
00.906,-41.39
00.921,-43.62
00.937,-46.17
00.953,-49.24
00.968,-52.87
00.984,-56.82
01.000,-60.64
01.015,-63.83
01.031,-66.06
01.046,-67.26
01.062,-67.64
01.078,-67.53
01.093,-67.27
01.109,-67.12
01.125,-67.16
01.140,-67.34
01.156,-67.47
01.171,-67.28
01.187,-66.47
01.203,-64.86
01.218,-62.4
01.234,-59.23
01.250,-55.69
01.265,-52.13
01.281,-48.81
01.296,-45.87
01.312,-43.34
01.328,-41.24
01.343,-39.72
01.359,-39.06
01.375,-39.57
01.390,-41.46
01.406,-44.68
01.421,-48.92
01.437,-53.63
01.453,-58.28
01.468,-62.53
01.484,-66.4
01.500,-70.35
01.515,-75.14
01.531,-81.66
01.546,-90.49
01.562,-101.49
01.578,-113.42
01.593,-123.9
01.609,-129.93
01.625,-128.64
01.640,-118.36
01.656,-99.23
01.671,-73.33
01.687,-44.01
01.703,-14.96
01.718,10.81
01.734,31.52
01.750,46.63
01.765,56.47
01.781,61.76
01.796,63.27
01.812,61.78
01.828,58.1
01.843,53.17
01.859,47.92
01.875,43.18
01.890,39.46
01.906,36.89
01.921,35.28
01.937,34.33
01.953,33.8
01.968,33.72
01.984,34.26
02.000,35.62
02.015,37.75
02.031,40.29
02.046,42.57
02.062,43.91
02.078,43.78
02.093,42.02
02.109,38.85
02.125,34.73
02.140,30.09
02.156,25.2
02.171,20.02
02.187,14.3
02.203,7.68
02.218,-0.06
02.234,-8.77
02.250,-17.71
02.265,-25.56
02.281,-30.55
02.296,-30.95
02.312,-25.55
02.328,-14.13
02.343,2.48
02.359,22.7
02.375,44.6
02.390,66.45
02.406,86.88
02.421,104.94
02.437,120.02
02.453,131.83
02.468,140.56
02.484,146.85
02.500,151.84
02.515,156.74
02.531,162.44
02.546,169.12
02.562,176.29
02.578,183.17
02.593,189.17
02.609,194.24
02.625,198.85
02.640,203.68
02.656,209.25
02.671,215.66
02.687,222.54
02.703,229.21
02.718,234.74
02.734,238.07
02.750,238.23
02.765,234.57
02.781,227.07
02.796,216.54
02.812,204.33
02.828,191.76
02.843,179.34
02.859,166.35
02.875,151.05
02.890,131.56
02.906,106.84
02.921,77.38
02.937,45.14
02.953,12.7
02.968,-17.68
02.984,-44.81
03.000,-68.47
03.015,-88.9
03.031,-105.96
03.046,-118.78
03.062,-125.91
03.078,-126.07
03.093,-119.06
03.109,-106.31
03.125,-90.87
03.140,-76.74
03.156,-67.76
03.171,-66.47
03.187,-73.33
03.203,-86.7
03.218,-103.42
03.234,-119.91
03.250,-133.17
03.265,-141.44
03.281,-144.21
03.296,-141.84
03.312,-135.08
03.328,-124.63
03.343,-111.24
03.359,-95.74
03.375,-79.31
03.390,-63.3
03.406,-49.3
03.421,-38.96
03.437,-33.89
03.453,-35.32
03.468,-43.7
03.484,-58.17
03.500,-76.63
03.515,-96.1
03.531,-113.63
03.546,-127.1
03.562,-135.52
03.578,-138.75
03.593,-136.95
03.609,-130.29
03.625,-119.0
03.640,-103.83
03.656,-86.31
03.671,-68.61
03.687,-52.81
03.703,-40.24
03.718,-31.08
03.734,-24.7
03.750,-20.32
03.765,-17.66
03.781,-16.97
03.796,-18.79
03.812,-23.44
03.828,-30.68
03.843,-39.7
03.859,-49.42
03.875,-58.87
03.890,-67.53
03.906,-75.31
03.921,-82.59
03.937,-89.84
03.953,-97.53
03.968,-105.88
03.984,-114.98
04.000,-124.75
04.015,-135.09
04.031,-145.92
04.046,-157.17
04.062,-168.74
04.078,-180.5
04.093,-192.25
04.109,-203.73
04.125,-214.49
04.140,-223.78
04.156,-230.44
04.171,-232.93
04.187,-229.52
04.203,-218.88
04.218,-200.49
04.234,-175.07
04.250,-144.39
04.265,-111.02
04.281,-77.55
04.296,-46.1
04.312,-18.0
04.328,6.24
04.343,26.67
04.359,43.58
04.375,57.29
04.390,68.04
04.406,75.99
04.421,81.31
04.437,84.3
04.453,85.35
04.468,85.01
04.484,83.89
04.500,82.61
04.515,81.7
04.531,81.46
04.546,81.93
04.562,82.83
04.578,83.74
04.593,84.19
04.609,83.78
04.625,82.33
04.640,79.87
04.656,76.51
04.671,72.39
04.687,67.6
04.703,62.22
04.718,56.26
04.734,49.74
04.750,42.54
04.765,34.38
04.781,24.84
04.796,13.5
04.812,0.35
04.828,-13.83
04.843,-27.33
04.859,-37.77
04.875,-42.73
04.890,-40.6
04.906,-31.2
04.921,-15.86
04.937,3.02
04.953,22.85
04.968,41.58
04.984,58.14
05.000,72.28
05.015,84.19
05.031,93.98
05.046,101.5
05.062,106.46
05.078,108.66
05.093,108.33
05.109,106.1
05.125,102.83
05.140,99.33
05.156,96.21
05.171,93.66
05.187,91.67
05.203,90.06
05.218,88.65
05.234,87.29
05.250,85.78
05.265,83.92
05.281,81.43
05.296,78.09
05.312,73.84
05.328,68.75
05.343,63.02
05.359,56.77
05.375,50.08
05.390,42.87
05.406,35.12
05.421,26.91
05.437,18.54
05.453,10.44
05.468,2.99
05.484,-3.65
05.500,-9.67
05.515,-15.55
05.531,-21.94
05.546,-29.41
05.562,-38.29
05.578,-48.41
05.593,-59.04
05.609,-68.82
05.625,-75.99
05.640,-78.81
05.656,-76.05
05.671,-67.4
05.687,-53.66
05.703,-36.48
05.718,-17.86
05.734,0.42
05.750,17.15
05.765,31.78
05.781,44.26
05.796,54.63
05.812,62.88
05.828,68.96
05.843,72.86
05.859,74.81
05.875,75.3
05.890,74.9
05.906,74.06
05.921,72.93
05.937,71.37
05.953,69.23
05.968,66.54
05.984,63.63
06.000,61.08
06.015,59.37
06.031,58.57
06.046,58.24
06.062,57.6
06.078,55.84
06.093,52.51
06.109,47.63
06.125,41.62
06.140,35.07
06.156,28.41
06.171,21.87
06.187,15.47
06.203,9.22
06.218,3.17
06.234,-2.45
06.250,-7.41
06.265,-11.58
06.281,-15.03
06.296,-18.04
06.312,-21.06
06.328,-24.68
06.343,-29.41
06.359,-35.72
06.375,-43.81
06.390,-53.46
06.406,-63.93
06.421,-73.82
06.437,-81.38
06.453,-84.8
06.468,-82.85
06.484,-75.25
06.500,-62.88
06.515,-47.44
06.531,-30.98
06.546,-15.25
06.562,-1.36
06.578,10.31
06.593,19.86
06.609,27.55
06.625,33.56
06.640,37.97
06.656,40.83
06.671,42.36
06.687,42.97
06.703,43.14
06.718,43.24
06.734,43.39
06.750,43.46
06.765,43.14
06.781,42.21
06.796,40.64
06.812,38.67
06.828,36.7
06.843,35.15
06.859,34.28
06.875,34.1
06.890,34.44
06.906,35.03
06.921,35.58
06.937,35.89
06.953,35.82
06.968,35.29
06.984,34.2
07.000,32.4
07.015,29.82
07.031,26.46
07.046,22.47
07.062,18.18
07.078,14.02
07.093,10.33
07.109,7.24
07.125,4.5
07.140,1.68
07.156,-1.81
07.171,-6.5
07.187,-12.63
07.203,-20.09
07.218,-28.3
07.234,-36.25
07.250,-42.61
07.265,-45.93
07.281,-45.03
07.296,-39.32
07.312,-28.93
07.328,-14.72
07.343,2.01
07.359,19.79
07.375,37.3
07.390,53.48
07.406,67.62
07.421,79.37
07.437,88.81
07.453,96.49
07.468,103.31
07.484,110.28
07.500,118.07
07.515,126.83
07.531,136.15
07.546,145.29
07.562,153.59
07.578,160.84
07.593,167.42
07.609,174.22
07.625,182.24
07.640,192.33
07.656,204.83
07.671,219.28
07.687,234.23
07.703,247.26
07.718,255.37
07.734,255.85
07.750,247.17
07.765,229.71
07.781,205.72
07.796,178.45
07.812,150.93
07.828,124.87
07.843,100.35
07.859,76.45
07.875,52.14
07.890,27.18
07.906,2.25
07.921,-21.53
07.937,-43.29
07.953,-63.01
07.968,-81.51
07.984,-100.22
08.000,-120.53
08.015,-143.37
08.031,-168.75
08.046,-195.44
08.062,-220.96
08.078,-241.74
08.093,-253.97
08.109,-254.81
08.125,-243.45
08.140,-221.75
08.156,-193.75
08.171,-164.43
08.187,-138.03
08.203,-117.01
08.218,-101.76
08.234,-91.13
08.250,-83.29
08.265,-76.47
08.281,-69.14
08.296,-59.91
08.312,-47.5
08.328,-31.33
08.343,-12.37
08.359,6.44
08.375,20.72
08.390,26.34
08.406,21.45
08.421,7.71
08.437,-9.94
08.453,-25.2
08.468,-32.92
08.484,-31.11
08.500,-21.36
08.515,-7.74
08.531,5.06
08.546,13.46
08.562,15.71
08.578,11.57
08.593,1.62
08.609,-13.41
08.625,-32.76
08.640,-55.47
08.656,-80.11
08.671,-104.82
08.687,-127.58
08.703,-146.67
08.718,-161.1
08.734,-170.77
08.750,-176.33
08.765,-178.81
08.781,-179.25
08.796,-178.45
08.812,-176.94
08.828,-174.93
08.843,-172.39
08.859,-169.07
08.875,-164.43
08.890,-157.81
08.906,-148.6
08.921,-136.54
08.937,-121.86
08.953,-105.23
08.968,-87.49
08.984,-69.46
09.000,-51.77
09.015,-34.97
09.031,-19.62
09.046,-6.33
09.062,4.32
09.078,12.06
09.093,17.05
09.109,20.04
09.125,22.02
09.140,24.03
09.156,26.71
09.171,30.22
09.187,34.31
09.203,38.47
09.218,42.2
09.234,45.18
09.250,47.3
09.265,48.67
09.281,49.46
09.296,49.75
09.312,49.48
09.328,48.41
09.343,46.29
09.359,42.93
09.375,38.36
09.390,32.83
09.406,26.74
09.421,20.5
09.437,14.46
09.453,8.84
09.468,3.72
09.484,-0.95
09.500,-5.4
09.515,-10.01
09.531,-15.28
09.546,-21.7
09.562,-29.48
09.578,-38.21
09.593,-46.83
09.609,-53.69
09.625,-57.05
09.640,-55.68
09.656,-49.26
09.671,-38.53
09.687,-25.0
09.703,-10.5
09.718,3.43
09.734,15.72
09.750,25.86
09.765,33.68
09.781,39.2
09.796,42.54
09.812,43.94
09.828,43.83
09.843,42.8
09.859,41.45
09.875,40.25
09.890,39.44
09.906,39.01
09.921,38.81
09.937,38.66
09.953,38.47
09.968,38.22
09.984,37.92
10.000,37.57
10.015,37.1
10.031,36.41
10.046,35.4
10.062,33.98
10.078,32.07
10.093,29.6
10.109,26.54
10.125,22.85
10.140,18.58
10.156,13.79
10.171,8.58
10.187,3.08
10.203,-2.59
10.218,-8.37
10.234,-14.27
10.250,-20.38
10.265,-26.9
10.281,-34.04
10.296,-42.0
10.312,-50.66
10.328,-59.54
10.343,-67.65
10.359,-73.66
10.375,-76.22
10.390,-74.31
10.406,-67.65
10.421,-56.77
10.437,-42.91
10.453,-27.59
10.468,-12.29
10.484,1.87
10.500,14.23
10.515,24.52
10.531,32.69
10.546,38.81
10.562,42.97
10.578,45.34
10.593,46.15
10.609,45.72
10.625,44.42
10.640,42.69
10.656,40.9
10.671,39.37
10.687,38.3
10.703,37.75
10.718,37.68
10.734,37.9
10.750,38.22
10.765,38.34
10.781,38.04
10.796,37.06
10.812,35.28
10.828,32.66
10.843,29.29
10.859,25.34
10.875,20.95
10.890,16.19
10.906,11.08
10.921,5.62
10.937,-0.08
10.953,-5.78
10.968,-11.18
10.984,-16.04
11.000,-20.29
11.015,-24.17
11.031,-28.13
11.046,-32.72
11.062,-38.45
11.078,-45.63
11.093,-54.19
11.109,-63.57
11.125,-72.77
11.140,-80.35
11.156,-84.8
11.171,-84.86
11.187,-79.97
11.203,-70.39
11.218,-57.18
11.234,-41.9
11.250,-26.18
11.265,-11.36
11.281,1.7
11.296,12.67
11.312,21.61
11.328,28.74
11.343,34.31
11.359,38.49
11.375,41.43
11.390,43.32
11.406,44.43
11.421,45.08
11.437,45.54
11.453,45.96
11.468,46.39
11.484,46.79
11.500,47.14
11.515,47.41
11.531,47.59
11.546,47.61
11.562,47.36
11.578,46.69
11.593,45.54
11.609,43.89
11.625,41.8
11.640,39.27
11.656,36.22
11.671,32.51
11.687,28.02
11.703,22.79
11.718,17.02
11.734,11.08
11.750,5.36
11.765,0.22
11.781,-4.13
11.796,-7.7
11.812,-10.66
11.828,-13.37
11.843,-16.31
11.859,-19.95
11.875,-24.67
11.890,-30.56
11.906,-37.24
11.921,-43.75
11.937,-48.68
11.953,-50.45
11.968,-47.72
11.984,-39.86
12.000,-27.1
12.015,-10.46
12.031,8.55
12.046,28.49
12.062,48.14
12.078,66.66
12.093,83.48
12.109,98.22
12.125,110.61
12.140,120.66
12.156,128.7
12.171,135.43
12.187,141.78
12.203,148.72
12.218,157.04
12.234,167.13
12.250,178.84
12.265,191.21
12.281,202.53
12.296,210.62
12.312,213.43
12.328,209.85
12.343,200.17
12.359,185.98
12.375,169.39
12.390,152.08
12.406,134.61
12.421,116.44
12.437,96.67
12.453,74.95
12.468,51.89
12.484,28.87
12.500,7.22
12.515,-12.52
12.531,-30.8
12.546,-48.72
12.562,-67.21
12.578,-86.54
12.593,-106.15
12.609,-124.98
12.625,-142.06
12.640,-156.92
12.656,-169.72
12.671,-181.0
12.687,-191.18
12.703,-200.17
12.718,-207.05
12.734,-210.24
12.750,-207.91
12.765,-198.76
12.781,-182.54
12.796,-160.41
12.812,-134.67
12.828,-108.05
12.843,-83.01
12.859,-61.06
12.875,-42.71
12.890,-27.74
12.906,-15.63
12.921,-5.89
12.937,1.7
12.953,7.33
12.968,11.24
12.984,13.89
13.000,15.97
13.015,18.19
13.031,21.09
13.046,24.87
13.062,29.44
13.078,34.38
13.093,39.15
13.109,43.16
13.125,45.93
13.140,47.12
13.156,46.58
13.171,44.44
13.187,40.97
13.203,36.58
13.218,31.62
13.234,26.29
13.250,20.74
13.265,15.12
13.281,9.61
13.296,4.42
13.312,-0.59
13.328,-6.1
13.343,-13.35
13.359,-23.73
13.375,-38.13
13.390,-56.27
13.406,-76.65
13.421,-96.91
13.437,-114.72
13.453,-128.45
13.468,-137.38
13.484,-141.39
13.500,-140.4
13.515,-134.1
13.531,-122.43
13.546,-106.18
13.562,-87.31
13.578,-68.5
13.593,-52.02
13.609,-38.7
13.625,-27.66
13.640,-17.02
13.656,-5.19
13.671,8.08
13.687,21.53
13.703,33.22
13.718,41.75
13.734,47.04
13.750,50.32
13.765,53.38
13.781,57.65
13.796,63.67
13.812,71.12
13.828,79.31
13.843,87.66
13.859,95.82
13.875,103.62
13.890,110.85
13.906,117.2
13.921,122.22
13.937,125.51
13.953,126.93
13.968,126.63
13.984,124.98
14.000,122.33
14.015,118.9
14.031,114.67
14.046,109.51
14.062,103.29
14.078,95.98
14.093,87.6
14.109,78.22
14.125,67.84
14.140,56.49
14.156,44.41
14.171,32.08
14.187,20.26
14.203,9.79
14.218,1.39
14.234,-4.48
14.250,-7.69
14.265,-8.36
14.281,-6.82
14.296,-3.51
14.312,1.13
14.328,6.7
14.343,12.95
14.359,19.88
14.375,27.68
14.390,36.61
14.406,46.74
14.421,57.86
14.437,69.33
14.453,80.25
14.468,89.66
14.484,96.79
14.500,101.29
14.515,103.33
14.531,103.47
14.546,102.3
14.562,100.02
14.578,96.07
14.593,89.19
14.609,77.76
14.625,60.65
14.640,37.79
14.656,10.53
14.671,-18.76
14.687,-47.43
14.703,-73.3
14.718,-95.3
14.734,-113.32
14.750,-127.76
14.765,-139.13
14.781,-147.62
14.796,-153.34
14.812,-156.56
14.828,-157.98
14.843,-158.72
14.859,-160.15
14.875,-163.46
14.890,-169.25
14.906,-177.46
14.921,-187.17
14.937,-196.64
14.953,-203.45
14.968,-204.79
14.984,-198.07
15.000,-181.62
15.015,-155.45
15.031,-121.42
15.046,-82.92
15.062,-43.86
15.078,-7.58
15.093,23.91
15.109,49.93
15.125,70.71
15.140,86.53
15.156,97.4
15.171,103.04
15.187,103.27
15.203,98.43
15.218,89.48
15.234,77.77
15.250,64.68
15.265,51.36
15.281,38.67
15.296,27.24
15.312,17.54
15.328,9.84
15.343,4.08
15.359,-0.19
15.375,-3.75
15.390,-7.26
15.406,-11.14
15.421,-15.6
15.437,-21.02
15.453,-28.38
15.468,-39.35
15.484,-55.73
15.500,-78.49
15.515,-106.87
15.531,-137.99
15.546,-167.67
15.562,-191.8
15.578,-207.79
15.593,-215.29
15.609,-215.77
15.625,-211.33
15.640,-203.45
15.656,-192.44
15.671,-177.79
15.687,-158.88
15.703,-135.46
15.718,-107.82
15.734,-76.72
15.750,-43.22
15.765,-8.9
15.781,24.07
15.796,53.03
15.812,75.5
15.828,89.97
15.843,96.5
15.859,96.6
15.875,92.43
15.890,85.96
15.906,78.41
15.921,70.36
15.937,62.31
15.953,54.84
15.968,48.49
15.984,43.15
16.000,37.71
16.015,30.49
16.031,20.18
16.046,6.9
16.062,-7.5
16.078,-19.91
16.093,-27.25
16.109,-27.69
16.125,-21.29
16.140,-9.76
16.156,4.09
16.171,17.05
16.187,25.74
16.203,26.88
16.218,17.75
16.234,-2.83
16.250,-33.47
16.265,-69.98
16.281,-106.19
16.296,-135.71
16.312,-154.11
16.328,-160.0
16.343,-155.0
16.359,-142.44
16.375,-125.84
16.390,-107.82
16.406,-89.97
16.421,-73.21
16.437,-58.42
16.453,-46.51
16.468,-38.11
16.484,-33.26
16.500,-31.2
16.515,-30.53
16.531,-29.71
16.546,-27.43
16.562,-22.97
16.578,-16.39
16.593,-8.51
16.609,-0.82
16.625,4.9
16.640,7.08
16.656,4.9
16.671,-1.45
16.687,-10.79
16.703,-21.38
16.718,-31.58
16.734,-40.38
16.750,-47.57
16.765,-53.66
16.781,-59.51
16.796,-65.88
16.812,-73.27
16.828,-81.76
16.843,-91.09
16.859,-100.63
16.875,-109.38
16.890,-115.98
16.906,-118.78
16.921,-116.12
16.937,-106.59
16.953,-89.59
16.968,-65.54
16.984,-35.95
17.000,-3.18
17.015,29.97
17.031,60.56
17.046,85.85
17.062,103.57
17.078,112.5
17.093,112.79
17.109,106.25
17.125,95.99
17.140,85.54
17.156,77.78
17.171,74.04
17.187,73.92
17.203,75.89
17.218,78.26
17.234,79.89
17.250,80.51
17.265,80.3
17.281,79.29
17.296,77.1
17.312,72.9
17.328,66.05
17.343,56.44
17.359,44.78
17.375,32.33
17.390,20.44
17.406,10.09
17.421,1.5
17.437,-5.79
17.453,-12.66
17.468,-20.04
17.484,-28.69
17.500,-38.93
17.515,-50.71
17.531,-63.47
17.546,-76.1
17.562,-87.03
17.578,-94.44
17.593,-96.75
17.609,-93.12
17.625,-83.85
17.640,-70.29
17.656,-54.48
17.671,-38.5
17.687,-24.0
17.703,-11.98
17.718,-2.86
17.734,3.21
17.750,6.24
17.765,6.41
17.781,4.21
17.796,0.54
17.812,-3.39
17.828,-6.21
17.843,-6.84
17.859,-4.75
17.875,-0.06
17.890,6.58
17.906,14.26
17.921,22.26
17.937,30.27
17.953,38.46
17.968,47.27
17.984,57.03
18.000,67.61
18.015,78.34
18.031,88.09
18.046,95.79
18.062,100.8
18.078,103.09
18.093,103.15
18.109,101.66
18.125,99.1
18.140,95.57
18.156,90.78
18.171,84.17
18.187,75.2
18.203,63.6
18.218,49.61
18.234,34.19
18.250,19.06
18.265,6.45
18.281,-1.4
18.296,-2.86
18.312,2.55
18.328,14.11
18.343,30.07
18.359,48.21
18.375,66.47
18.390,83.26
18.406,97.6
18.421,109.02
18.437,117.44
18.453,123.04
18.468,126.15
18.484,127.2
18.500,126.63
18.515,124.81
18.531,122.01
18.546,118.4
18.562,114.18
18.578,109.72
18.593,105.51
18.609,102.18
18.625,100.35
18.640,100.39
18.656,102.35
18.671,105.88
18.687,110.16
18.703,114.01
18.718,116.02
18.734,114.85
18.750,109.54
18.765,99.93
18.781,86.85
18.796,71.97
18.812,57.33
18.828,44.79
18.843,35.48
18.859,29.51
18.875,26.18
18.890,24.31
18.906,22.78
18.921,20.97
18.937,18.82
18.953,16.72
18.968,15.19
18.984,14.53
19.000,14.74
19.015,15.61
19.031,17.02
19.046,19.1
19.062,22.22
19.078,26.62
19.093,32.09
19.109,37.87
19.125,42.84
19.140,45.98
19.156,46.79
19.171,45.5
19.187,43.02
19.203,40.57
19.218,39.41
19.234,40.56
19.250,44.73
19.265,52.02
19.281,61.88
19.296,72.88
19.312,82.89
19.328,89.57
19.343,91.06
19.359,86.67
19.375,77.26
19.390,64.98
19.406,52.48
19.421,41.99
19.437,34.32
19.453,28.62
19.468,22.76
19.484,14.29
19.500,1.63
19.515,-15.34
19.531,-35.3
19.546,-55.99
19.562,-74.94
19.578,-90.23
19.593,-100.92
19.609,-107.46
19.625,-111.93
19.640,-117.74
19.656,-128.74
19.671,-147.76
19.687,-175.12
19.703,-207.73
19.718,-239.8
19.734,-264.6
19.750,-276.73
19.765,-273.79
19.781,-256.54
19.796,-227.87
19.812,-191.43
19.828,-150.64
19.843,-108.52
19.859,-67.91
19.875,-31.52
19.890,-1.59
19.906,20.73
19.921,35.73
19.937,45.06
19.953,51.14
19.968,56.4
19.984,62.8
20.000,71.38
20.015,82.27
20.031,94.55
20.046,106.57
20.062,116.4
20.078,122.62
20.093,124.94
20.109,124.34
20.125,122.48
20.140,120.62
20.156,118.71
20.171,115.12
20.187,107.29
20.203,92.96
20.218,71.23
20.234,42.96
20.250,10.27
20.265,-24.28
20.281,-58.47
20.296,-90.75
20.312,-120.21
20.328,-146.22
20.343,-168.43
20.359,-186.76
20.375,-201.56
20.390,-213.56
20.406,-223.38
20.421,-231.13
20.437,-236.02
20.453,-236.64
20.468,-231.57
20.484,-220.12
20.500,-202.76
20.515,-180.91
20.531,-156.36
20.546,-130.57
20.562,-104.49
20.578,-78.64
20.593,-53.54
20.609,-29.97
20.625,-8.89
20.640,8.89
20.656,23.06
20.671,34.03
20.687,42.69
20.703,50.09
20.718,57.03
20.734,63.83
20.750,70.4
20.765,76.28
20.781,80.85
20.796,83.51
20.812,83.8
20.828,81.56
20.843,76.94
20.859,70.36
20.875,62.32
20.890,53.37
20.906,43.99
20.921,34.61
20.937,25.65
20.953,17.38
20.968,9.87
20.984,2.76
21.000,-4.58
21.015,-12.73
21.031,-21.74
21.046,-30.66
21.062,-37.64
21.078,-40.4
21.093,-37.07
21.109,-26.91
21.125,-10.65
21.140,9.74
21.156,31.75
21.171,53.09
21.187,72.17
21.203,88.16
21.218,100.91
21.234,110.5
21.250,117.14
21.265,121.13
21.281,122.97
21.296,123.44
21.312,123.4
21.328,123.63
21.343,124.39
21.359,125.35
21.375,125.68
21.390,124.31
21.406,120.4
21.421,113.42
21.437,103.21
21.453,89.82
21.468,73.59
21.484,55.21
21.500,35.87
21.515,17.04
21.531,0.01
21.546,-14.65
21.562,-27.51
21.578,-39.96
21.593,-53.45
21.609,-68.55
21.625,-84.51
21.640,-99.56
21.656,-111.85
21.671,-120.56
21.687,-126.4
21.703,-131.26
21.718,-137.2
21.734,-145.36
21.750,-155.47
21.765,-166.15
21.781,-175.76
21.796,-183.18
21.812,-187.98
21.828,-189.96
21.843,-188.49
21.859,-182.18
21.875,-169.42
21.890,-149.41
21.906,-123.26
21.921,-94.21
21.937,-66.77
21.953,-45.1
21.968,-31.5
21.984,-25.67
22.000,-25.12
22.015,-26.44
22.031,-26.67
22.046,-24.11
22.062,-18.54
22.078,-10.77
22.093,-1.91
22.109,7.18
22.125,16.18
22.140,25.23
22.156,34.57
22.171,44.16
22.187,53.54
22.203,61.66
22.218,67.33
22.234,69.53
22.250,67.8
22.265,62.47
22.281,54.44
22.296,44.91
22.312,34.98
22.328,25.43
22.343,16.58
22.359,8.34
22.375,0.3
22.390,-8.13
22.406,-17.47
22.421,-28.0
22.437,-39.25
22.453,-49.87
22.468,-57.55
22.484,-59.61
22.500,-53.75
22.515,-38.93
22.531,-16.06
22.546,12.13
22.562,41.56
22.578,67.87
22.593,87.28
22.609,97.43
22.625,97.63
22.640,88.85
22.656,73.4
22.671,54.29
22.687,34.64
22.703,16.98
22.718,2.96
22.734,-6.64
22.750,-11.7
22.765,-12.48
22.781,-9.55
22.796,-4.15
22.812,1.61
22.828,4.86
22.843,2.72
22.859,-6.69
22.875,-23.37
22.890,-45.25
22.906,-68.9
22.921,-90.73
22.937,-108.14
22.953,-120.13
22.968,-127.1
22.984,-130.28
23.000,-130.92
23.015,-129.94
23.031,-127.85
23.046,-124.96
23.062,-121.62
23.078,-118.33
23.093,-115.74
23.109,-114.43
23.125,-114.63
23.140,-115.88
23.156,-116.86
23.171,-115.49
23.187,-109.53
23.203,-97.29
23.218,-78.39
23.234,-54.06
23.250,-26.71
23.265,0.89
23.281,26.57
23.296,49.32
23.312,69.28
23.328,87.17
23.343,103.61
23.359,118.59
23.375,131.49
23.390,141.31
23.406,147.15
23.421,148.55
23.437,145.56
23.453,138.73
23.468,128.93
23.484,117.27
23.500,104.91
23.515,92.96
23.531,82.41
23.546,73.98
23.562,68.06
23.578,64.68
23.593,63.55
23.609,64.1
23.625,65.58
23.640,67.2
23.656,68.26
23.671,68.22
23.687,66.89
23.703,64.4
23.718,61.13
23.734,57.7
23.750,54.7
23.765,52.6
23.781,51.58
23.796,51.6
23.812,52.42
23.828,53.81
23.843,55.69
23.859,58.15
23.875,61.38
23.890,65.43
23.906,70.03
23.921,74.56
23.937,78.11
23.953,79.87
23.968,79.4
23.984,76.84
24.000,72.83
24.015,68.22
24.031,63.67
24.046,59.5
24.062,55.66
24.078,51.86
24.093,47.77
24.109,43.18
24.125,38.02
24.140,32.38
24.156,26.5
24.171,20.83
24.187,15.91
24.203,12.23
24.218,10.0
24.234,8.91
24.250,8.21
24.265,6.89
24.281,4.11
24.296,-0.56
24.312,-6.94
24.328,-14.42
24.343,-22.3
24.359,-30.07
24.375,-37.53
24.390,-44.77
24.406,-51.94
24.421,-59.06
24.437,-65.98
24.453,-72.44
24.468,-78.21
24.484,-83.3
24.500,-87.93
24.515,-92.52
24.531,-97.63
24.546,-103.87
24.562,-111.76
24.578,-121.53
24.593,-132.83
24.609,-144.47
24.625,-154.4
24.640,-160.02
24.656,-158.9
24.671,-149.57
24.687,-132.21
24.703,-108.76
24.718,-82.46
24.734,-56.95
24.750,-35.14
24.765,-18.72
24.781,-7.87
24.796,-1.77
24.812,0.87
24.828,1.28
24.843,0.36
24.859,-1.38
24.875,-3.62
24.890,-6.16
24.906,-8.89
24.921,-11.76
24.937,-14.79
24.953,-17.97
24.968,-21.16
24.984,-24.02
25.000,-26.07
25.015,-26.84
25.031,-26.09
25.046,-23.89
25.062,-20.69
25.078,-17.09
25.093,-13.65
25.109,-10.73
25.125,-8.37
25.140,-6.47
25.156,-4.9
25.171,-3.69
25.187,-3.19
25.203,-4.05
25.218,-7.02
25.234,-12.66
25.250,-20.84
25.265,-30.43
25.281,-39.29
25.296,-44.7
25.312,-44.16
25.328,-36.13
25.343,-20.61
25.359,0.96
25.375,26.3
25.390,53.18
25.406,79.99
25.421,106.01
25.437,131.06
25.453,155.05
25.468,177.62
25.484,198.06
25.500,215.65
25.515,230.07
25.531,241.63
25.546,251.3
25.562,260.57
25.578,271.01
25.593,283.83
25.609,299.2
25.625,315.64
25.640,329.97
25.656,337.72
25.671,334.46
25.687,317.42
25.703,286.67
25.718,245.42
25.734,199.07
25.750,153.44
25.765,112.89
25.781,79.1
25.796,50.98
25.812,25.73
25.828,0.34
25.843,-27.14
25.859,-57.13
25.875,-88.74
25.890,-120.45
25.906,-150.62
25.921,-177.7
25.937,-200.23
25.953,-216.77
25.968,-226.17
25.984,-228.21
26.000,-224.12
26.015,-216.51
26.031,-208.69
26.046,-203.52
26.062,-202.36
26.078,-204.77
26.093,-209.01
26.109,-213.01
26.125,-215.17
26.140,-214.75
26.156,-211.62
26.171,-205.86
26.187,-197.51
26.203,-186.57
26.218,-173.28
26.234,-158.51
26.250,-143.7
26.265,-130.51
26.281,-120.2
26.296,-112.98
26.312,-107.86
26.328,-102.98
26.343,-96.32
26.359,-86.48
26.375,-72.97
26.390,-56.15
26.406,-36.78
26.421,-15.59
26.437,6.69
26.453,29.14
26.468,50.48
26.484,69.26
26.500,84.37
26.515,95.69
26.531,104.18
26.546,111.37
26.562,118.39
26.578,125.17
26.593,130.38
26.609,132.07
26.625,128.71
26.640,119.98
26.656,106.77
26.671,90.85
26.687,74.2
26.703,58.7
26.718,45.91
26.734,36.91
26.750,31.96
26.765,30.09
26.781,29.06
26.796,25.97
26.812,18.28
26.828,4.9
26.843,-13.41
26.859,-34.49
26.875,-55.78
26.890,-75.3
26.906,-91.99
26.921,-105.49
26.937,-115.46
26.953,-121.23
26.968,-121.89
26.984,-116.81
27.000,-106.22
27.015,-91.42
27.031,-74.58
27.046,-58.27
27.062,-44.68
27.078,-35.18
27.093,-30.02
27.109,-28.65
27.125,-30.1
27.140,-33.51
27.156,-38.44
27.171,-44.85
27.187,-52.9
27.203,-62.76
27.218,-74.41
27.234,-87.71
27.250,-102.2
27.265,-116.8
27.281,-129.5
27.296,-137.4
27.312,-137.2
27.328,-126.37
27.343,-104.26
27.359,-72.58
27.375,-34.96
27.390,4.27
27.406,41.47
27.421,74.59
27.437,103.06
27.453,127.16
27.468,147.22
27.484,163.24
27.500,174.97
27.515,182.27
27.531,185.44
27.546,185.29
27.562,183.12
27.578,180.51
27.593,179.12
27.609,180.14
27.625,183.86
27.640,189.09
27.656,193.31
27.671,193.41
27.687,186.74
27.703,172.1
27.718,150.01
27.734,122.22
27.750,91.05
27.765,58.91
27.781,28.25
27.796,1.69
27.812,-18.2
27.828,-29.76
27.843,-33.31
27.859,-31.82
27.875,-30.35
27.890,-34.51
27.906,-48.28
27.921,-72.38
27.937,-104.05
27.953,-138.01
27.968,-168.27
27.984,-189.81
28.000,-199.49
28.015,-196.17
28.031,-180.36
28.046,-153.68
28.062,-118.6
28.078,-78.22
28.093,-36.06
28.109,4.27
28.125,39.63
28.140,67.84
28.156,88.02
28.171,100.54
28.187,106.7
28.203,108.24
28.218,106.8
28.234,103.69
28.250,99.65
28.265,94.94
28.281,89.4
28.296,82.66
28.312,74.37
28.328,64.63
28.343,54.16
28.359,44.46
28.375,37.49
28.390,34.96
28.406,37.57
28.421,44.41
28.437,52.9
28.453,59.48
28.468,60.7
28.484,54.26
28.500,39.66
28.515,18.04
28.531,-8.4
28.546,-37.27
28.562,-66.55
28.578,-94.84
28.593,-121.28
28.609,-145.15
28.625,-165.67
28.640,-181.72
28.656,-191.8
28.671,-194.24
28.687,-187.61
28.703,-171.35
28.718,-146.24
28.734,-114.59
28.750,-79.87
28.765,-45.75
28.781,-15.23
28.796,10.07
28.812,29.84
28.828,44.63
28.843,55.2
28.859,62.03
28.875,65.5
28.890,66.11
28.906,64.9
28.921,63.27
28.937,62.57
28.953,63.54
28.968,65.99
28.984,68.92
29.000,71.1
29.015,71.65
29.031,70.47
29.046,68.24
29.062,66.12
29.078,65.27
29.093,66.29
29.109,68.89
29.125,71.68
29.140,72.42
29.156,68.76
29.171,59.35
29.187,44.74
29.203,27.64
29.218,12.07
29.234,1.73
29.250,-1.67
29.265,0.94
29.281,6.58
29.296,11.63
29.312,13.35
29.328,10.64
29.343,3.81
29.359,-6.01
29.375,-17.36
29.390,-28.53
29.406,-37.23
29.421,-40.53
29.437,-35.43
29.453,-20.02
29.468,5.25
29.484,37.11
29.500,70.12
29.515,98.25
29.531,116.72
29.546,123.18
29.562,117.99
29.578,103.49
29.593,82.83
29.609,59.01
29.625,34.36
29.640,10.69
29.656,-10.46
29.671,-27.59
29.687,-39.34
29.703,-44.91
29.718,-44.38
29.734,-38.78
29.750,-29.75
29.765,-19.11
29.781,-8.4
29.796,1.19
29.812,8.81
29.828,13.76
29.843,15.42
29.859,13.49
29.875,8.4
29.890,1.58
29.906,-4.58
29.921,-7.48
29.937,-5.24
29.953,2.33
29.968,13.53
29.984,25.39
30.000,34.82
30.015,39.83
30.031,40.13
30.046,36.92
30.062,32.01
30.078,26.92
30.093,22.36
30.109,18.11
30.125,13.54
30.140,8.04
30.156,1.41
30.171,-6.15
30.187,-14.14
30.203,-21.91
30.218,-28.84
30.234,-34.39
30.250,-38.15
30.265,-39.94
30.281,-39.81
30.296,-38.03
30.312,-34.98
30.328,-31.1
30.343,-26.83
30.359,-22.7
30.375,-19.3
30.390,-17.32
30.406,-17.31
30.421,-19.48
30.437,-23.54
30.453,-28.68
30.468,-33.87
30.484,-38.23
30.500,-41.31
30.515,-43.31
30.531,-44.89
30.546,-46.93
30.562,-50.17
30.578,-54.98
30.593,-61.27
30.609,-68.51
30.625,-75.93
30.640,-82.76
30.656,-88.45
30.671,-92.86
30.687,-96.29
30.703,-99.5
30.718,-103.53
30.734,-109.51
30.750,-118.23
30.765,-129.64
30.781,-142.32
30.796,-153.28
30.812,-158.42
30.828,-153.55
30.843,-135.99
30.859,-105.79
30.875,-66.22
30.890,-22.94
30.906,17.71
30.921,50.72
30.937,73.73
30.953,87.28
30.968,93.92
30.984,96.83
31.000,98.53
31.015,100.24
31.031,101.98
31.046,103.07
31.062,102.67
31.078,100.24
31.093,95.63
31.109,89.02
31.125,80.82
31.140,71.65
31.156,62.33
31.171,53.86
31.187,47.41
31.203,44.1
31.218,44.69
31.234,49.38
31.250,57.6
31.265,68.24
31.281,79.91
31.296,91.42
31.312,101.97
31.328,111.24
31.343,119.06
31.359,124.98
31.375,128.15
31.390,127.52
31.406,122.35
31.421,112.84
31.437,100.24
31.453,86.52
31.468,73.7
31.484,63.11
31.500,55.2
31.515,49.72
31.531,46.19
31.546,44.27
31.562,43.83
31.578,44.51
31.593,45.47
31.609,45.28
31.625,42.39
31.640,35.88
31.656,26.04
31.671,14.27
31.687,2.4
31.703,-8.26
31.718,-17.56
31.734,-26.5
31.750,-36.52
31.765,-48.52
31.781,-62.22
31.796,-76.03
31.812,-87.81
31.828,-95.75
31.843,-99.14
31.859,-98.47
31.875,-94.96
31.890,-90.06
31.906,-84.98
31.921,-80.62
31.937,-77.63
31.953,-76.63
31.968,-78.19
31.984,-82.71
32.000,-90.31
32.015,-100.61
32.031,-112.67
32.046,-125.27
32.062,-137.31
32.078,-148.15
32.093,-157.93
32.109,-167.35
32.125,-177.14
32.140,-187.42
32.156,-197.26
32.171,-204.75
32.187,-207.58
32.203,-204.0
32.218,-193.54
32.234,-177.18
32.250,-156.93
32.265,-134.97
32.281,-112.95
32.296,-91.62
32.312,-71.13
32.328,-51.45
32.343,-32.83
32.359,-15.81
32.375,-1.13
32.390,10.64
32.406,19.34
32.421,25.13
32.437,28.5
32.453,29.94
32.468,29.93
32.484,28.86
32.500,27.12
32.515,25.02
32.531,22.76
32.546,20.39
32.562,17.8
32.578,14.79
32.593,11.12
32.609,6.69
32.625,1.44
32.640,-4.56
32.656,-11.24
32.671,-18.61
32.687,-26.82
32.703,-36.24
32.718,-47.29
32.734,-60.27
32.750,-75.01
32.765,-90.55
32.781,-105.17
32.796,-116.61
32.812,-122.75
32.828,-122.26
32.843,-115.11
32.859,-102.58
32.875,-86.97
32.890,-70.84
32.906,-56.43
32.921,-45.27
32.937,-38.14
32.953,-35.23
32.968,-36.45
32.984,-41.49
33.000,-49.96
33.015,-61.11
33.031,-73.94
33.046,-87.14
33.062,-99.34
33.078,-109.36
33.093,-116.29
33.109,-119.61
33.125,-119.16
33.140,-115.01
33.156,-107.44
33.171,-97.02
33.187,-84.54
33.203,-71.15
33.218,-58.06
33.234,-46.42
33.250,-37.07
33.265,-30.5
33.281,-26.84
33.296,-25.88
33.312,-27.24
33.328,-30.35
33.343,-34.66
33.359,-39.74
33.375,-45.53
33.390,-52.29
33.406,-60.34
33.421,-69.48
33.437,-78.62
33.453,-85.76
33.468,-88.51
33.484,-84.9
33.500,-74.28
33.515,-57.36
33.531,-35.9
33.546,-11.87
33.562,13.26
33.578,38.62
33.593,63.64
33.609,87.51
33.625,108.98
33.640,126.53
33.656,139.02
33.671,146.14
33.687,148.65
33.703,148.02
33.718,145.86
33.734,143.4
33.750,141.24
33.765,139.42
33.781,137.79
33.796,136.22
33.812,134.73
33.828,133.39
33.843,132.14
33.859,130.63
33.875,128.25
33.890,124.3
33.906,118.24
33.921,109.95
33.937,99.83
33.953,88.71
33.968,77.5
33.984,66.89
34.000,56.99
34.015,47.38
34.031,37.22
34.046,25.62
34.062,12.06
34.078,-3.33
34.093,-19.58
34.109,-34.93
34.125,-47.03
34.140,-53.5
34.156,-52.51
34.171,-43.39
34.187,-26.86
34.203,-4.93
34.218,19.66
34.234,44.12
34.250,66.3
34.265,84.9
34.281,99.46
34.296,110.01
34.312,116.75
34.328,119.98
34.343,120.13
34.359,117.84
34.375,114.05
34.390,109.73
34.406,105.69
34.421,102.34
34.437,99.58
34.453,97.04
34.468,94.33
34.484,91.31
34.500,88.09
34.515,84.96
34.531,82.12
34.546,79.48
34.562,76.71
34.578,73.36
34.593,69.09
34.609,63.87
34.625,57.97
34.640,51.75
34.656,45.5
34.671,39.26
34.687,32.86
34.703,25.93
34.718,18.09
34.734,9.01
34.750,-1.54
34.765,-13.52
34.781,-26.51
34.796,-39.44
34.812,-50.58
34.828,-57.92
34.843,-59.62
34.859,-54.74
34.875,-43.51
34.890,-27.37
34.906,-8.45
34.921,11.1
34.937,29.66
34.953,46.33
34.968,60.8
34.984,73.07
35.000,83.08
35.015,90.68
35.031,95.73
35.046,98.26
35.062,98.61
35.078,97.43
35.093,95.48
35.109,93.37
35.125,91.35
35.140,89.27
35.156,86.79
35.171,83.58
35.187,79.68
35.203,75.5
35.218,71.68
35.234,68.73
35.250,66.82
35.265,65.59
35.281,64.36
35.296,62.4
35.312,59.26
35.328,54.94
35.343,49.82
35.359,44.53
35.375,39.66
35.390,35.63
35.406,32.59
35.421,30.39
35.437,28.61
35.453,26.71
35.468,24.06
35.484,20.23
35.500,15.17
35.515,9.37
35.531,4.0
35.546,0.65
35.562,1.1
35.578,6.81
35.593,18.45
35.609,35.73
35.625,57.36
35.640,81.44
35.656,105.94
35.671,129.25
35.687,150.45
35.703,169.4
35.718,186.56
35.734,202.63
35.750,218.16
35.765,233.31
35.781,247.77
35.796,260.86
35.812,271.81
35.828,280.07
35.843,285.45
35.859,288.1
35.875,288.39
35.890,286.68
35.906,283.31
35.921,278.53
35.937,272.62
35.953,265.84
35.968,258.31
35.984,249.78
36.000,239.63
36.015,226.9
36.031,210.79
36.046,190.92
36.062,167.67
36.078,142.0
36.093,115.13
36.109,88.21
36.125,61.94
36.140,36.75
36.156,12.85
36.171,-9.56
36.187,-30.27
36.203,-49.27
36.218,-67.05
36.234,-84.75
36.250,-103.92
36.265,-125.81
36.281,-150.5
36.296,-176.45
36.312,-200.67
36.328,-219.65
36.343,-230.53
36.359,-231.98
36.375,-224.41
36.390,-209.57
36.406,-190.09
36.421,-169.05
36.437,-149.78
36.453,-135.66
36.468,-129.41
36.484,-132.25
36.500,-143.04
36.515,-158.36
36.531,-173.5
36.546,-184.15
36.562,-187.92
36.578,-184.92
36.593,-177.2
36.609,-167.44
36.625,-157.89
36.640,-149.68
36.656,-143.16
36.671,-138.26
36.687,-134.9
36.703,-132.79
36.718,-130.97
36.734,-127.59
36.750,-120.24
36.765,-106.89
36.781,-87.09
36.796,-62.58
36.812,-37.02
36.828,-14.78
36.843,0.67
36.859,7.83
36.875,7.3
36.890,1.01
36.906,-9.12
36.921,-21.96
36.937,-37.15
36.953,-54.05
36.968,-70.6
36.984,-82.9
37.000,-86.1
37.015,-76.38
37.031,-53.09
37.046,-19.66
37.062,17.21
37.078,49.9
37.093,72.57
37.109,82.92
37.125,82.57
37.140,75.83
37.156,67.71
37.171,62.12
37.187,60.51
37.203,61.49
37.218,61.36
37.234,55.38
37.250,39.67
37.265,13.02
37.281,-22.27
37.296,-61.0
37.312,-96.94
37.328,-125.03
37.343,-142.84
37.359,-150.64
37.375,-150.3
37.390,-144.07
37.406,-133.81
37.421,-121.06
37.437,-107.5
37.453,-95.12
37.468,-85.82
37.484,-80.82
37.500,-80.2
37.515,-83.04
37.531,-87.84
37.546,-93.16
37.562,-98.01
37.578,-101.89
37.593,-104.65
37.609,-106.5
37.625,-108.06
37.640,-110.29
37.656,-114.26
37.671,-120.8
37.687,-129.94
37.703,-140.49
37.718,-149.87
37.734,-154.53
37.750,-150.89
37.765,-136.53
37.781,-111.16
37.796,-76.98
37.812,-38.06
37.828,0.97
37.843,36.27
37.859,65.63
37.875,88.55
37.890,105.45
37.906,116.91
37.921,123.2
37.937,124.36
37.953,120.71
37.968,113.29
37.984,103.89
38.000,94.53
38.015,86.85
38.031,81.68
38.046,79.0
38.062,78.42
38.078,79.42
38.093,81.63
38.109,84.54
38.125,87.28
38.140,88.51
38.156,86.64
38.171,80.39
38.187,69.21
38.203,53.52
38.218,34.48
38.234,13.65
38.250,-7.35
38.265,-27.04
38.281,-44.19
38.296,-57.84
38.312,-67.55
38.328,-73.53
38.343,-76.71
38.359,-78.55
38.375,-80.54
38.390,-83.76
38.406,-88.36
38.421,-93.46
38.437,-97.25
38.453,-97.46
38.468,-92.07
38.484,-80.0
38.500,-61.58
38.515,-38.6
38.531,-13.78
38.546,10.05
38.562,30.71
38.578,47.17
38.593,59.44
38.609,68.05
38.625,73.48
38.640,75.78
38.656,74.68
38.671,70.16
38.687,63.03
38.703,55.12
38.718,48.9
38.734,46.65
38.750,49.44
38.765,56.66
38.781,66.12
38.796,74.88
38.812,80.39
38.828,81.33
38.843,77.87
38.859,71.31
38.875,63.25
38.890,54.91
38.906,46.77
38.921,38.58
38.937,29.81
38.953,20.07
38.968,9.45
38.984,-1.46
39.000,-11.71
39.015,-20.42
39.031,-27.17
39.046,-32.05
39.062,-35.6
39.078,-38.3
39.093,-40.43
39.109,-42.18
39.125,-43.97
39.140,-46.71
39.156,-51.66
39.171,-59.68
39.187,-70.35
39.203,-81.49
39.218,-89.61
39.234,-91.28
39.250,-84.66
39.265,-70.5
39.281,-51.87
39.296,-32.91
39.312,-17.23
39.328,-6.87
39.343,-2.32
39.359,-3.21
39.375,-9.03
39.390,-19.25
39.406,-32.72
39.421,-47.07
39.437,-58.63
39.453,-63.38
39.468,-58.58
39.484,-44.18
39.500,-23.22
39.515,-0.86
39.531,17.53
39.546,28.19
39.562,29.98
39.578,24.33
39.593,14.23
39.609,2.86
39.625,-7.49
39.640,-16.05
39.656,-23.46
39.671,-31.19
39.687,-40.62
39.703,-52.25
39.718,-65.29
39.734,-77.94
39.750,-88.29
39.765,-95.37
39.781,-99.8
39.796,-103.54
39.812,-109.03
39.828,-118.02
39.843,-130.72
39.859,-145.62
39.875,-159.9
39.890,-170.1
39.906,-172.82
39.921,-165.38
39.937,-146.43
39.953,-116.37
39.968,-77.39
39.984,-33.19
40.000,11.93
40.015,53.94
40.031,89.83
40.046,117.81
40.062,137.12
40.078,147.68
40.093,149.93
40.109,144.79
40.125,133.83
40.140,119.34
40.156,104.18
40.171,91.26
40.187,82.86
40.203,79.91
40.218,81.54
40.234,85.19
40.250,87.27
40.265,84.34
40.281,74.28
40.296,57.03
40.312,34.51
40.328,9.71
40.343,-14.51
40.359,-36.38
40.375,-55.47
40.390,-72.23
40.406,-87.27
40.421,-100.71
40.437,-112.01
40.453,-120.3
40.468,-124.94
40.484,-125.91
40.500,-124.0
40.515,-120.59
40.531,-117.12
40.546,-114.66
40.562,-113.58
40.578,-113.53
40.593,-113.6
40.609,-112.56
40.625,-109.15
40.640,-102.4
40.656,-91.77
40.671,-77.3
40.687,-59.6
40.703,-39.68
40.718,-18.7
40.734,2.19
40.750,22.03
40.765,40.03
40.781,55.52
40.796,67.93
40.812,76.87
40.828,82.3
40.843,84.53
40.859,84.23
40.875,82.24
40.890,79.3
40.906,75.94
40.921,72.39
40.937,68.69
40.953,64.89
40.968,61.17
40.984,57.85
41.000,55.34
41.015,53.92
41.031,53.54
41.046,53.77
41.062,53.76
41.078,52.53
41.093,49.22
41.109,43.38
41.125,35.19
41.140,25.46
41.156,15.38
41.171,6.3
41.187,-0.7
41.203,-5.11
41.218,-7.05
41.234,-7.32
41.250,-7.1
41.265,-7.72
41.281,-10.35
41.296,-15.63
41.312,-23.38
41.328,-32.39
41.343,-40.66
41.359,-45.89
41.375,-46.33
41.390,-41.45
41.406,-32.17
41.421,-20.51
41.437,-8.81
41.453,1.13
41.468,8.49
41.484,13.28
41.500,15.88
41.515,16.52
41.531,15.16
41.546,11.68
41.562,6.35
41.578,-0.07
41.593,-6.35
41.609,-11.37
41.625,-14.56
41.640,-16.03
41.656,-16.55
41.671,-17.05
41.687,-18.23
41.703,-20.26
41.718,-22.89
41.734,-25.65
41.750,-28.25
41.765,-30.68
41.781,-33.18
41.796,-36.05
41.812,-39.33
41.828,-42.74
41.843,-45.78
41.859,-47.97
41.875,-49.13
41.890,-49.55
41.906,-49.89
41.921,-51.01
41.937,-53.77
41.953,-58.79
41.968,-66.19
41.984,-75.52
42.000,-85.69
42.015,-94.93
42.031,-101.15
42.046,-102.21
42.062,-96.58
42.078,-83.68
42.093,-64.2
42.109,-39.92
42.125,-13.32
42.140,13.05
42.156,37.0
42.171,57.1
42.187,72.66
42.203,83.6
42.218,90.27
42.234,93.26
42.250,93.36
42.265,91.45
42.281,88.37
42.296,84.81
42.312,81.12
42.328,77.38
42.343,73.42
42.359,69.2
42.375,64.82
42.390,60.63
42.406,57.01
42.421,54.14
42.437,51.85
42.453,49.59
42.468,46.69
42.484,42.5
42.500,36.73
42.515,29.48
42.531,21.15
42.546,12.33
42.562,3.6
42.578,-4.62
42.593,-12.07
42.609,-18.8
42.625,-25.12
42.640,-31.52
42.656,-38.49
42.671,-46.17
42.687,-54.0
42.703,-60.62
42.718,-64.02
42.734,-62.19
42.750,-53.84
42.765,-38.87
42.781,-18.61
42.796,4.67
42.812,28.47
42.828,50.69
42.843,70.07
42.859,86.05
42.875,98.5
42.890,107.4
42.906,112.71
42.921,114.57
42.937,113.46
42.953,110.23
42.968,105.97
42.984,101.56
43.000,97.44
43.015,93.52
43.031,89.41
43.046,84.79
43.062,79.76
43.078,74.84
43.093,70.72
43.109,67.83
43.125,66.1
43.140,64.88
43.156,63.17
43.171,60.04
43.187,54.91
43.203,47.66
43.218,38.66
43.234,28.56
43.250,18.0
43.265,7.47
43.281,-3.0
43.296,-13.83
43.312,-25.72
43.328,-39.35
43.343,-54.86
43.359,-71.5
43.375,-87.51
43.390,-100.45
43.406,-107.77
43.421,-107.68
43.437,-99.66
43.453,-84.66
43.468,-64.79
43.484,-42.72
43.500,-20.93
43.515,-1.19
43.531,15.58
43.546,29.19
43.562,39.82
43.578,47.62
43.593,52.66
43.609,54.9
43.625,54.43
43.640,51.66
43.656,47.29
43.671,42.22
43.687,37.27
43.703,33.03
43.718,29.7
43.734,27.19
43.750,25.21
43.765,23.41
43.781,21.42
43.796,18.89
43.812,15.53
43.828,11.08
43.843,5.4
43.859,-1.54
43.875,-9.66
43.890,-18.73
43.906,-28.47
43.921,-38.57
43.937,-48.82
43.953,-59.15
43.968,-69.59
43.984,-80.13
44.000,-90.51
44.015,-99.9
44.031,-106.96
44.046,-110.04
44.062,-107.73
44.078,-99.41
44.093,-85.63
44.109,-67.98
44.125,-48.61
44.140,-29.61
44.156,-12.52
44.171,1.83
44.187,13.17
44.203,21.5
44.218,26.82
44.234,29.14
44.250,28.55
44.265,25.42
44.281,20.39
44.296,14.34
44.312,8.2
44.328,2.82
44.343,-1.21
44.359,-3.57
44.375,-4.28
44.390,-3.58
44.406,-1.99
44.421,-0.1
44.437,1.49
44.453,2.31
44.468,2.04
44.484,0.55
44.500,-2.14
44.515,-5.94
44.531,-10.76
44.546,-16.56
44.562,-23.44
44.578,-31.59
44.593,-41.15
44.609,-52.09
44.625,-63.82
44.640,-75.13
44.656,-84.19
44.671,-88.93
44.687,-87.6
44.703,-79.38
44.718,-64.68
44.734,-45.0
44.750,-22.59
44.765,0.22
44.781,21.42
44.796,39.59
44.812,53.89
44.828,64.03
44.843,70.05
44.859,72.28
44.875,71.31
44.890,67.91
44.906,62.94
44.921,57.2
44.937,51.37
44.953,45.92
44.968,41.1
44.984,36.96
45.000,33.38
45.015,30.16
45.031,27.08
45.046,23.99
45.062,20.78
45.078,17.48
45.093,14.1
45.109,10.68
45.125,7.24
45.140,3.63
45.156,-0.28
45.171,-4.7
45.187,-9.81
45.203,-15.82
45.218,-22.85
45.234,-30.91
45.250,-39.66
45.265,-48.21
45.281,-55.15
45.296,-58.73
45.312,-57.4
45.328,-50.26
45.343,-37.54
45.359,-20.47
45.375,-0.97
45.390,18.95
45.406,37.6
45.421,53.83
45.437,67.03
45.453,76.89
45.468,83.3
45.484,86.4
45.500,86.55
45.515,84.39
45.531,80.66
45.546,76.06
45.562,71.09
45.578,66.06
45.593,61.13
45.609,56.5
45.625,52.43
45.640,49.2
45.656,46.99
45.671,45.72
45.687,44.98
45.703,44.13
45.718,42.53
45.734,39.68
45.750,35.4
45.765,29.79
45.781,23.13
45.796,15.77
45.812,8.0
45.828,0.05
45.843,-7.98
45.859,-16.15
45.875,-24.7
45.890,-33.93
45.906,-44.0
45.921,-54.58
45.937,-64.63
45.953,-72.4
45.968,-75.87
45.984,-73.41
46.000,-64.36
46.015,-49.42
46.031,-30.42
46.046,-9.73
46.062,10.42
46.078,28.43
46.093,43.5
46.109,55.48
46.125,64.44
46.140,70.52
46.156,73.77
46.171,74.33
46.187,72.62
46.203,69.31
46.218,65.29
46.234,61.34
46.250,57.95
46.265,55.2
46.281,52.85
46.296,50.59
46.312,48.24
46.328,45.78
46.343,43.31
46.359,40.91
46.375,38.47
46.390,35.71
46.406,32.29
46.421,28.04
46.437,23.05
46.453,17.66
46.468,12.39
46.484,7.72
46.500,3.91
46.515,0.92
46.531,-1.62
46.546,-4.32
46.562,-7.85
46.578,-12.58
46.593,-18.34
46.609,-24.27
46.625,-28.83
46.640,-30.26
46.656,-27.15
46.671,-18.96
46.687,-6.4
46.703,8.85
46.718,24.71
46.734,39.32
46.750,51.57
46.765,61.1
46.781,68.03
46.796,72.49
46.812,74.46
46.828,73.81
46.843,70.56
46.859,65.15
46.875,58.49
46.890,51.67
46.906,45.57
46.921,40.64
46.937,36.87
46.953,34.0
46.968,31.81
46.984,30.26
47.000,29.46
47.015,29.38
47.031,29.7
47.046,29.71
47.062,28.58
47.078,25.67
47.093,20.91
47.109,14.79
47.125,8.24
47.140,2.19
47.156,-2.77
47.171,-6.66
47.187,-10.08
47.203,-14.01
47.218,-19.45
47.234,-27.17
47.250,-37.35
47.265,-49.45
47.281,-62.13
47.296,-73.5
47.312,-81.48
47.328,-84.36
47.343,-81.32
47.359,-72.7
47.375,-59.88
47.390,-44.87
47.406,-29.75
47.421,-16.22
47.437,-5.38
47.453,2.28
47.468,6.75
47.484,8.3
47.500,7.46
47.515,4.93
47.531,1.62
47.546,-1.56
47.562,-3.67
47.578,-4.04
47.593,-2.34
47.609,1.34
47.625,6.53
47.640,12.58
47.656,18.86
47.671,24.91
47.687,30.43
47.703,35.13
47.718,38.54
47.734,40.01
47.750,38.88
47.765,34.76
47.781,27.79
47.796,18.7
47.812,8.51
47.828,-1.88
47.843,-12.01
47.859,-22.01
47.875,-32.45
47.890,-44.1
47.906,-57.45
47.921,-72.5
47.937,-88.55
47.953,-104.18
47.968,-117.53
47.984,-126.63
48.000,-129.95
48.015,-126.84
48.031,-117.72
48.046,-103.99
48.062,-87.67
48.078,-70.77
48.093,-54.88
48.109,-40.88
48.125,-29.08
48.140,-19.33
48.156,-11.42
48.171,-5.15
48.187,-0.38
48.203,3.19
48.218,6.07
48.234,8.91
48.250,12.36
48.265,16.67
48.281,21.55
48.296,26.22
48.312,29.78
48.328,31.61
48.343,31.76
48.359,30.82
48.375,29.74
48.390,29.23
48.406,29.38
48.421,29.68
48.437,29.19
48.453,27.11
48.468,23.16
48.484,17.74
48.500,11.68
48.515,5.84
48.531,0.72
48.546,-3.75
48.562,-8.06
48.578,-12.97
48.593,-19.07
48.609,-26.71
48.625,-35.75
48.640,-45.59
48.656,-55.11
48.671,-62.72
48.687,-66.7
48.703,-65.6
48.718,-58.71
48.734,-46.38
48.750,-29.94
48.765,-11.39
48.781,7.3
48.796,24.52
48.812,39.38
48.828,51.5
48.843,60.95
48.859,67.88
48.875,72.51
48.890,75.03
48.906,75.65
48.921,74.64
48.937,72.27
48.953,68.81
48.968,64.5
48.984,59.56
49.000,54.21
49.015,48.77
49.031,43.5
49.046,38.67
49.062,34.45
49.078,30.82
49.093,27.65
49.109,24.68
49.125,21.58
49.140,17.96
49.156,13.5
49.171,7.98
49.187,1.44
49.203,-5.84
49.218,-13.38
49.234,-20.63
49.250,-27.22
49.265,-33.11
49.281,-38.64
49.296,-44.38
49.312,-50.91
49.328,-58.66
49.343,-67.71
49.359,-77.73
49.375,-87.94
49.390,-97.11
49.406,-103.69
49.421,-106.02
49.437,-102.8
49.453,-93.49
49.468,-78.59
49.484,-59.56
49.500,-38.61
49.515,-18.02
49.531,0.24
49.546,14.87
49.562,25.34
49.578,31.72
49.593,34.51
49.609,34.39
49.625,32.18
49.640,28.73
49.656,24.9
49.671,21.42
49.687,18.86
49.703,17.44
49.718,17.0
49.734,17.17
49.750,17.39
49.765,17.28
49.781,16.69
49.796,15.72
49.812,14.69
49.828,13.81
49.843,13.1
49.859,12.29
49.875,10.98
49.890,8.79
49.906,5.58
49.921,1.52
49.937,-3.03
49.953,-7.68
49.968,-12.23
49.984,-16.68
50.000,-21.28
50.015,-26.32
50.031,-32.18
50.046,-39.05
50.062,-46.96
50.078,-55.56
50.093,-63.94
50.109,-70.6
50.125,-73.72
50.140,-71.65
50.156,-63.49
50.171,-49.51
50.187,-31.17
50.203,-10.67
50.218,9.71
50.234,28.25
50.250,44.03
50.265,56.87
50.281,66.97
50.296,74.5
50.312,79.56
50.328,82.23
50.343,82.76
50.359,81.81
50.375,80.28
50.390,79.2
50.406,79.29
50.421,80.82
50.437,83.52
50.453,86.75
50.468,89.93
50.484,92.75
50.500,95.33
50.515,98.11
50.531,101.49
50.546,105.52
50.562,109.71
50.578,113.16
50.593,114.8
50.609,113.74
50.625,109.56
50.640,102.41
50.656,92.87
50.671,81.74
50.687,69.83
50.703,57.61
50.718,45.1
50.734,31.86
50.750,17.13
50.765,0.27
50.781,-18.76
50.796,-39.02
50.812,-58.45
50.828,-74.01
50.843,-82.35
50.859,-80.64
50.875,-67.59
50.890,-44.19
50.906,-13.77
50.921,18.56
50.937,47.26
50.953,67.75
50.968,77.61
50.984,76.91
51.000,67.74
51.015,53.17
51.031,36.18
51.046,18.84
51.062,2.12
51.078,-14.03
51.093,-30.24
51.109,-47.36
51.125,-65.92
51.140,-85.73
51.156,-105.53
51.171,-123.07
51.187,-135.56
51.203,-140.58
51.218,-136.92
51.234,-125.25
51.250,-107.94
51.265,-88.5
51.281,-70.45
51.296,-56.41
51.312,-47.47
51.328,-43.24
51.343,-42.28
51.359,-42.73
51.375,-42.92
51.390,-41.82
51.406,-39.14
51.421,-35.24
51.437,-30.99
51.453,-27.43
51.468,-25.6
51.484,-26.29
51.500,-29.81
51.515,-35.86
51.531,-43.47
51.546,-51.15
51.562,-57.15
51.578,-59.83
51.593,-58.08
51.609,-51.46
51.625,-40.4
51.640,-26.11
51.656,-10.48
51.671,4.09
51.687,14.99
51.703,19.96
51.718,17.67
51.734,8.24
51.750,-6.57
51.765,-23.79
51.781,-40.08
51.796,-52.8
51.812,-60.68
51.828,-63.94
51.843,-63.75
51.859,-61.54
51.875,-58.19
51.890,-53.74
51.906,-47.46
51.921,-38.38
51.937,-26.02
51.953,-11.01
51.968,4.5
51.984,17.27
52.000,23.94
52.015,22.36
52.031,12.67
52.046,-2.64
52.062,-19.63
52.078,-34.49
52.093,-45.02
52.109,-51.19
52.125,-54.68
52.140,-57.76
52.156,-62.17
52.171,-68.41
52.187,-75.86
52.203,-83.19
52.218,-89.04
52.234,-92.44
52.250,-92.95
52.265,-90.64
52.281,-85.93
52.296,-79.33
52.312,-71.35
52.328,-62.51
52.343,-53.38
52.359,-44.77
52.375,-37.65
52.390,-32.91
52.406,-30.99
52.421,-31.56
52.437,-33.59
52.453,-35.64
52.468,-36.41
52.484,-35.21
52.500,-32.06
52.515,-27.57
52.531,-22.56
52.546,-17.69
52.562,-13.21
52.578,-8.97
52.593,-4.64
52.609,0.02
52.625,4.89
52.640,9.48
52.656,13.05
52.671,14.89
52.687,14.67
52.703,12.55
52.718,9.19
52.734,5.45
52.750,2.07
52.765,-0.61
52.781,-2.83
52.796,-5.31
52.812,-8.97
52.828,-14.56
52.843,-22.34
52.859,-31.85
52.875,-41.93
52.890,-50.93
52.906,-57.15
52.921,-59.24
52.937,-56.61
52.953,-49.45
52.968,-38.7
52.984,-25.67
53.000,-11.71
53.015,2.02
53.031,14.66
53.046,25.57
53.062,34.33
53.078,40.64
53.093,44.47
53.109,46.06
53.125,45.94
53.140,44.76
53.156,43.14
53.171,41.45
53.187,39.71
53.203,37.77
53.218,35.39
53.234,32.53
53.250,29.38
53.265,26.34
53.281,23.76
53.296,21.77
53.312,20.12
53.328,18.28
53.343,15.68
53.359,11.96
53.375,7.09
53.390,1.45
53.406,-4.38
53.421,-9.81
53.437,-14.57
53.453,-18.66
53.468,-22.45
53.484,-26.55
53.500,-31.63
53.515,-38.3
53.531,-46.84
53.546,-57.01
53.562,-67.89
53.578,-77.82
53.593,-84.72
53.609,-86.57
53.625,-82.02
53.640,-70.85
53.656,-54.11
53.671,-33.8
53.687,-12.3
53.703,8.19
53.718,26.18
53.734,40.94
53.750,52.37
53.765,60.74
53.781,66.43
53.796,69.81
53.812,71.22
53.828,71.06
53.843,69.79
53.859,68.02
53.875,66.34
53.890,65.14
53.906,64.52
53.921,64.28
53.937,64.04
53.953,63.41
53.968,62.27
53.984,60.69
54.000,58.96
54.015,57.28
54.031,55.59
54.046,53.6
54.062,50.9
54.078,47.21
54.093,42.51
54.109,37.05
54.125,31.26
54.140,25.57
54.156,20.26
54.171,15.43
54.187,10.97
54.203,6.57
54.218,1.84
54.234,-3.64
54.250,-9.96
54.265,-16.62
54.281,-22.22
54.296,-24.66
54.312,-21.67
54.328,-11.56
54.343,6.0
54.359,29.7
54.375,56.86
54.390,84.35
54.406,109.5
54.421,130.87
54.437,148.38
54.453,162.95
54.468,175.81
54.484,188.01
54.500,200.13
54.515,212.31
54.531,224.37
54.546,235.79
54.562,245.53
54.578,252.02
54.593,253.46
54.609,248.5
54.625,237.13
54.640,221.06
54.656,203.2
54.671,186.41
54.687,171.87
54.703,158.27
54.718,142.42
54.734,120.85
54.750,91.93
54.765,56.94
54.781,19.62
54.796,-15.66
54.812,-45.91
54.828,-70.7
54.843,-91.77
54.859,-111.51
54.875,-131.27
54.890,-150.64
54.906,-168.09
54.921,-182.19
54.937,-192.72
54.953,-200.59
54.968,-206.9
54.984,-211.68
55.000,-213.4
55.015,-209.45
55.031,-197.5
55.046,-176.71
55.062,-148.25
55.078,-114.93
55.093,-80.2
55.109,-47.25
55.125,-18.2
55.140,6.09
55.156,25.99
55.171,42.83
55.187,58.39
55.203,74.16
55.218,90.56
55.234,106.55
55.250,119.76
55.265,127.49
55.281,127.84
55.296,120.46
55.312,106.67
55.328,88.77
55.343,69.13
55.359,49.44
55.375,30.56
55.390,12.7
55.406,-4.17
55.421,-19.97
55.437,-34.5
55.453,-47.37
55.468,-58.24
55.484,-66.83
55.500,-73.07
55.515,-76.96
55.531,-78.64
55.546,-78.37
55.562,-76.53
55.578,-73.69
55.593,-70.69
55.609,-68.74
55.625,-69.38
55.640,-74.14
55.656,-83.95
55.671,-98.48
55.687,-115.71
55.703,-132.28
55.718,-144.36
55.734,-148.91
55.750,-144.72
55.765,-132.66
55.781,-115.18
55.796,-95.15
55.812,-74.84
55.828,-55.41
55.843,-37.03
55.859,-19.58
55.875,-3.18
55.890,11.48
55.906,23.4
55.921,31.82
55.937,36.73
55.953,39.08
55.968,40.55
55.984,43.11
56.000,48.41
56.015,57.38
56.031,70.09
56.046,85.79
56.062,103.29
56.078,121.33
56.093,139.03
56.109,156.25
56.125,173.66
56.140,192.26
56.156,212.6
56.171,233.81
56.187,253.07
56.203,266.08
56.218,268.26
56.234,256.4
56.250,229.9
56.265,191.18
56.281,145.02
56.296,97.3
56.312,53.64
56.328,18.17
56.343,-7.08
56.359,-22.39
56.375,-29.82
56.390,-32.32
56.406,-32.6
56.421,-32.29
56.437,-31.54
56.453,-29.34
56.468,-24.42
56.484,-16.15
56.500,-5.24
56.515,6.49
56.531,16.81
56.546,23.95
56.562,27.15
56.578,26.65
56.593,23.3
56.609,17.99
56.625,11.41
56.640,4.07
56.656,-3.5
56.671,-10.46
56.687,-15.79
56.703,-18.48
56.718,-18.08
56.734,-14.81
56.750,-9.63
56.765,-3.82
56.781,1.34
56.796,4.65
56.812,4.89
56.828,0.85
56.843,-8.22
56.859,-22.09
56.875,-39.25
56.890,-57.08
56.906,-72.63
56.921,-83.7
56.937,-89.65
56.953,-91.48
56.968,-91.1
56.984,-90.3
57.000,-89.89
57.015,-89.68
57.031,-89.0
57.046,-87.69
57.062,-86.71
57.078,-88.13
57.093,-94.3
57.109,-106.93
57.125,-126.16
57.140,-150.32
57.156,-176.35
57.171,-200.54
57.187,-219.51
57.203,-230.98
57.218,-233.96
57.234,-228.72
57.250,-216.38
57.265,-198.49
57.281,-176.62
57.296,-152.2
57.312,-126.65
57.328,-101.31
57.343,-77.6
57.359,-56.62
57.375,-38.73
57.390,-23.39
57.406,-9.16
57.421,5.67
57.437,22.47
57.453,41.67
57.468,62.67
57.484,84.08
57.500,104.1
57.515,120.72
57.531,131.89
57.546,135.84
57.562,131.55
57.578,119.32
57.593,101.02
57.609,79.84
57.625,59.23
57.640,41.89
57.656,28.92
57.671,19.82
57.687,13.36
57.703,8.43
57.718,4.9
57.734,3.69
57.750,6.36
57.765,14.19
57.781,27.41
57.796,44.56
57.812,62.5
57.828,77.22
57.843,85.03
57.859,83.85
57.875,73.86
57.890,57.29
57.906,37.55
57.921,17.96
57.937,0.82
57.953,-13.02
57.968,-23.89
57.984,-32.82
58.000,-40.95
58.015,-49.11
58.031,-57.59
58.046,-66.1
58.062,-73.9
58.078,-80.2
58.093,-84.59
58.109,-87.3
58.125,-89.18
58.140,-91.18
58.156,-93.9
58.171,-97.28
58.187,-100.73
58.203,-103.59
58.218,-105.58
58.234,-106.84
58.250,-107.8
58.265,-108.73
58.281,-109.58
58.296,-109.98
58.312,-109.5
58.328,-108.06
58.343,-106.1
58.359,-104.41
58.375,-103.88
58.390,-105.05
58.406,-107.88
58.421,-111.85
58.437,-116.29
58.453,-120.88
58.468,-125.89
58.484,-132.09
58.500,-140.06
58.515,-149.34
58.531,-157.97
58.546,-162.55
58.562,-159.23
58.578,-144.91
58.593,-118.47
58.609,-81.26
58.625,-36.68
58.640,10.82
58.656,56.81
58.671,97.57
58.687,130.33
58.703,153.11
58.718,164.74
58.734,165.15
58.750,155.6
58.765,138.85
58.781,118.55
58.796,98.22
58.812,80.09
58.828,64.52
58.843,50.38
58.859,36.15
58.875,21.18
58.890,6.38
58.906,-6.23
58.921,-14.64
58.937,-18.14
58.953,-17.79
58.968,-15.85
58.984,-14.78
59.000,-16.07
59.015,-20.04
59.031,-26.1
59.046,-33.5
59.062,-41.81
59.078,-50.9
59.093,-60.59
59.109,-70.36
59.125,-79.28
59.140,-86.29
59.156,-90.47
59.171,-91.09
59.187,-87.52
59.203,-79.35
59.218,-66.87
59.234,-51.42
59.250,-35.44
59.265,-21.67
59.281,-11.88
59.296,-5.81
59.312,-1.2
59.328,5.11
59.343,15.39
59.359,29.73
59.375,45.85
59.390,60.19
59.406,69.6
59.421,72.57
59.437,69.6
59.453,62.49
59.468,53.38
59.484,43.94
59.500,35.21
59.515,27.86
59.531,22.46
59.546,19.43
59.562,18.86
59.578,20.3
59.593,22.8
59.609,25.08
59.625,26.01
59.640,24.92
59.656,21.84
59.671,17.26
59.687,11.89
59.703,6.26
59.718,0.55
59.734,-5.4
59.750,-11.88
59.765,-19.06
59.781,-26.78
59.796,-34.4
59.812,-40.86
59.828,-44.82
59.843,-45.04
59.859,-40.74
59.875,-31.8
59.890,-18.92
59.906,-3.32
59.921,13.51
59.937,30.25
59.953,45.85
59.968,59.56
59.984,70.82
