timestamp,value
00.000,-16.23
00.015,-6.5
00.031,3.28
00.046,12.44
00.062,20.52
00.078,27.34
00.093,32.84
00.109,37.04
00.125,39.95
00.140,41.55
00.156,41.82
00.171,40.86
00.187,38.91
00.203,36.3
00.218,33.4
00.234,30.45
00.250,27.56
00.265,24.7
00.281,21.86
00.296,19.07
00.312,16.43
00.328,14.04
00.343,11.95
00.359,10.06
00.375,8.2
00.390,6.15
00.406,3.79
00.421,1.18
00.437,-1.53
00.453,-4.14
00.468,-6.55
00.484,-8.78
00.500,-10.88
00.515,-12.96
00.531,-15.03
00.546,-17.06
00.562,-18.95
00.578,-20.67
00.593,-22.26
00.609,-23.84
00.625,-25.53
00.640,-27.48
00.656,-29.72
00.671,-32.3
00.687,-35.15
00.703,-38.13
00.718,-40.94
00.734,-43.19
00.750,-44.34
00.765,-43.9
00.781,-41.54
00.796,-37.16
00.812,-30.94
00.828,-23.28
00.843,-14.72
00.859,-5.84
00.875,2.86
00.890,10.97
00.906,18.26
00.921,24.56
00.937,29.75
00.953,33.74
00.968,36.42
00.984,37.8
01.000,37.95
01.015,37.12
01.031,35.63
01.046,33.79
01.062,31.75
01.078,29.57
01.093,27.18
01.109,24.52
01.125,21.67
01.140,18.79
01.156,16.1
01.171,13.74
01.187,11.74
01.203,9.98
01.218,8.31
01.234,6.55
01.250,4.65
01.265,2.63
01.281,0.55
01.296,-1.51
01.312,-3.55
01.328,-5.59
01.343,-7.74
01.359,-10.07
01.375,-12.58
01.390,-15.19
01.406,-17.81
01.421,-20.38
01.437,-22.85
01.453,-25.29
01.468,-27.76
01.484,-30.37
01.500,-33.09
01.515,-35.87
01.531,-38.51
01.546,-40.77
01.562,-42.34
01.578,-42.81
01.593,-41.77
01.609,-38.88
01.625,-33.99
01.640,-27.22
01.656,-19.0
01.671,-9.98
01.687,-0.9
01.703,7.56
01.718,14.97
01.734,21.17
01.750,26.19
01.765,30.15
01.781,33.2
01.796,35.35
01.812,36.55
01.828,36.79
01.843,36.06
01.859,34.46
01.875,32.14
01.890,29.38
01.906,26.42
01.921,23.53
01.937,20.97
01.953,18.87
01.968,17.3
01.984,16.14
02.000,15.13
02.015,13.95
02.031,12.34
02.046,10.13
02.062,7.34
02.078,4.11
02.093,0.68
02.109,-2.68
02.125,-5.79
02.140,-8.55
02.156,-10.98
02.171,-13.19
02.187,-15.35
02.203,-17.58
02.218,-19.95
02.234,-22.44
02.250,-24.91
02.265,-27.27
02.281,-29.47
02.296,-31.55
02.312,-33.64
02.328,-35.91
02.343,-38.42
02.359,-41.11
02.375,-43.8
02.390,-46.1
02.406,-47.52
02.421,-47.48
02.437,-45.5
02.453,-41.31
02.468,-34.95
02.484,-26.78
02.500,-17.44
02.515,-7.69
02.531,1.71
02.546,10.08
02.562,16.98
02.578,22.2
02.593,25.76
02.609,27.92
02.625,29.0
02.640,29.28
02.656,28.97
02.671,28.14
02.687,26.87
02.703,25.29
02.718,23.58
02.734,22.0
02.750,20.69
02.765,19.69
02.781,18.86
02.796,17.98
02.812,16.85
02.828,15.36
02.843,13.48
02.859,11.29
02.875,8.83
02.890,6.18
02.906,3.38
02.921,0.48
02.937,-2.4
02.953,-5.16
02.968,-7.71
02.984,-9.99
03.000,-12.05
03.015,-14.01
03.031,-15.97
03.046,-18.04
03.062,-20.18
03.078,-22.3
03.093,-24.32
03.109,-26.22
03.125,-28.03
03.140,-29.73
03.156,-31.18
03.171,-32.01
03.187,-31.73
03.203,-29.82
03.218,-25.98
03.234,-20.18
03.250,-12.77
03.265,-4.31
03.281,4.48
03.296,12.94
03.312,20.56
03.328,26.96
03.343,31.92
03.359,35.35
03.375,37.25
03.390,37.69
03.406,36.84
03.421,34.99
03.437,32.48
03.453,29.69
03.468,26.91
03.484,24.3
03.500,21.88
03.515,19.57
03.531,17.28
03.546,15.01
03.562,12.79
03.578,10.71
03.593,8.82
03.609,7.07
03.625,5.37
03.640,3.55
03.656,1.49
03.671,-0.85
03.687,-3.49
03.703,-6.32
03.718,-9.26
03.734,-12.25
03.750,-15.26
03.765,-18.3
03.781,-21.39
03.796,-24.64
03.812,-28.05
03.828,-31.64
03.843,-35.27
03.859,-38.68
03.875,-41.46
03.890,-43.22
03.906,-43.5
03.921,-41.96
03.937,-38.33
03.953,-32.51
03.968,-24.64
03.984,-15.13
04.000,-4.67
04.015,5.93
04.031,15.83
04.046,24.43
04.062,31.42
04.078,36.78
04.093,40.65
04.109,43.17
04.125,44.4
04.140,44.4
04.156,43.25
04.171,41.17
04.187,38.53
04.203,35.67
04.218,32.79
04.234,29.94
04.250,26.99
04.265,23.84
04.281,20.49
04.296,17.09
04.312,13.88
04.328,11.01
04.343,8.54
04.359,6.3
04.375,4.09
04.390,1.7
04.406,-0.91
04.421,-3.69
04.437,-6.5
04.453,-9.23
04.468,-11.77
04.484,-14.12
04.500,-16.39
04.515,-18.68
04.531,-21.19
04.546,-24.0
04.562,-27.2
04.578,-30.72
04.593,-34.41
04.609,-37.95
04.625,-40.99
04.640,-43.11
04.656,-43.8
04.671,-42.65
04.687,-39.26
04.703,-33.47
04.718,-25.41
04.734,-15.55
04.750,-4.6
04.765,6.58
04.781,17.1
04.796,26.34
04.812,33.79
04.828,39.22
04.843,42.63
04.859,44.17
04.875,44.1
04.890,42.77
04.906,40.58
04.921,37.9
04.937,35.11
04.953,32.41
04.968,29.9
04.984,27.59
05.000,25.36
05.015,23.12
05.031,20.76
05.046,18.26
05.062,15.61
05.078,12.88
05.093,10.06
05.109,7.17
05.125,4.21
05.140,1.13
05.156,-2.07
05.171,-5.43
05.187,-8.91
05.203,-12.49
05.218,-15.99
05.234,-19.31
05.250,-22.31
05.265,-24.95
05.281,-27.35
05.296,-29.67
05.312,-32.11
05.328,-34.79
05.343,-37.66
05.359,-40.5
05.375,-42.88
05.390,-44.3
05.406,-44.16
05.421,-42.0
05.437,-37.5
05.453,-30.65
05.468,-21.79
05.484,-11.52
05.500,-0.66
05.515,9.97
05.531,19.64
05.546,27.83
05.562,34.25
05.578,38.82
05.593,41.62
05.609,42.89
05.625,42.93
05.640,42.03
05.656,40.47
05.671,38.43
05.687,36.1
05.703,33.63
05.718,31.12
05.734,28.68
05.750,26.29
05.765,23.89
05.781,21.31
05.796,18.5
05.812,15.49
05.828,12.42
05.843,9.43
05.859,6.55
05.875,3.66
05.890,0.56
05.906,-2.9
05.921,-6.73
05.937,-10.76
05.953,-14.73
05.968,-18.37
05.984,-21.54
06.000,-24.28
06.015,-26.75
06.031,-29.15
06.046,-31.71
06.062,-34.59
06.078,-37.8
06.093,-41.21
06.109,-44.48
06.125,-47.11
06.140,-48.56
06.156,-48.34
06.171,-46.07
06.187,-41.6
06.203,-35.01
06.218,-26.62
06.234,-17.04
06.250,-7.0
06.265,2.74
06.281,11.52
06.296,18.95
06.312,24.91
06.328,29.41
06.343,32.52
06.359,34.29
06.375,34.76
06.390,34.02
06.406,32.26
06.421,29.79
06.437,26.93
06.453,23.96
06.468,21.07
06.484,18.37
06.500,15.89
06.515,13.64
06.531,11.58
06.546,9.63
06.562,7.68
06.578,5.58
06.593,3.26
06.609,0.68
06.625,-2.1
06.640,-4.98
06.656,-7.81
06.671,-10.42
06.687,-12.66
06.703,-14.45
06.718,-15.79
06.734,-16.89
06.750,-18.03
06.765,-19.52
06.781,-21.58
06.796,-24.22
06.812,-27.21
06.828,-30.08
06.843,-32.29
06.859,-33.23
06.875,-32.36
06.890,-29.34
06.906,-24.05
06.921,-16.65
06.937,-7.63
06.953,2.33
06.968,12.44
06.984,21.94
07.000,30.18
07.015,36.74
07.031,41.41
07.046,44.17
07.062,45.21
07.078,44.84
07.093,43.43
07.109,41.36
07.125,38.96
07.140,36.44
07.156,33.92
07.171,31.48
07.187,29.16
07.203,27.03
07.218,25.21
07.234,23.76
07.250,22.68
07.265,21.87
07.281,21.09
07.296,20.12
07.312,18.78
07.328,17.01
07.343,14.88
07.359,12.58
07.375,10.32
07.390,8.34
07.406,6.76
07.421,5.58
07.437,4.73
07.453,4.07
07.468,3.44
07.484,2.78
07.500,2.05
07.515,1.29
07.531,0.55
07.546,-0.11
07.562,-0.72
07.578,-1.27
07.593,-1.8
07.609,-2.29
07.625,-2.72
07.640,-3.06
07.656,-3.33
07.671,-3.56
07.687,-3.8
07.703,-4.09
07.718,-4.45
07.734,-4.89
07.750,-5.38
07.765,-5.88
07.781,-6.33
07.796,-6.73
07.812,-7.07
07.828,-7.38
07.843,-7.73
07.859,-8.18
07.875,-8.81
07.890,-9.68
07.906,-10.82
07.921,-12.2
07.937,-13.74
07.953,-15.25
07.968,-16.53
07.984,-17.44
08.000,-18.04
08.015,-18.6
08.031,-19.48
08.046,-21.03
08.062,-23.31
08.078,-26.13
08.093,-29.05
08.109,-31.64
08.125,-33.74
08.140,-35.44
08.156,-37.06
08.171,-38.98
08.187,-41.4
08.203,-44.33
08.218,-47.54
08.234,-50.65
08.250,-53.22
08.265,-54.76
08.281,-54.72
08.296,-52.54
08.312,-47.81
08.328,-40.33
08.343,-30.35
08.359,-18.5
08.375,-5.8
08.390,6.64
08.406,17.83
08.421,27.08
08.437,34.06
08.453,38.79
08.468,41.51
08.484,42.53
08.500,42.09
08.515,40.44
08.531,37.83
08.546,34.61
08.562,31.23
08.578,28.12
08.593,25.52
08.609,23.47
08.625,21.75
08.640,20.04
08.656,18.06
08.671,15.69
08.687,13.04
08.703,10.35
08.718,7.83
08.734,5.55
08.750,3.44
08.765,1.39
08.781,-0.76
08.796,-3.06
08.812,-5.46
08.828,-7.92
08.843,-10.42
08.859,-13.06
08.875,-16.02
08.890,-19.42
08.906,-23.2
08.921,-27.08
08.937,-30.59
08.953,-33.13
08.968,-34.16
08.984,-33.28
09.000,-30.28
09.015,-25.18
09.031,-18.2
09.046,-9.84
09.062,-0.73
09.078,8.37
09.093,16.71
09.109,23.69
09.125,28.98
09.140,32.49
09.156,34.36
09.171,34.83
09.187,34.12
09.203,32.46
09.218,30.05
09.234,27.12
09.250,23.87
09.265,20.46
09.281,17.02
09.296,13.64
09.312,10.39
09.328,7.39
09.343,4.78
09.359,2.66
09.375,0.96
09.390,-0.55
09.406,-2.19
09.421,-4.24
09.437,-6.82
09.453,-9.87
09.468,-13.23
09.484,-16.73
09.500,-20.29
09.515,-23.91
09.531,-27.62
09.546,-31.44
09.562,-35.28
09.578,-39.02
09.593,-42.48
09.609,-45.38
09.625,-47.41
09.640,-48.1
09.656,-47.01
09.671,-43.73
09.687,-38.08
09.703,-30.24
09.718,-20.74
09.734,-10.4
09.750,-0.2
09.765,9.03
09.781,16.74
09.796,22.71
09.812,27.0
09.828,29.79
09.843,31.3
09.859,31.65
09.875,30.97
09.890,29.4
09.906,27.17
09.921,24.52
09.937,21.66
09.953,18.81
09.968,16.02
09.984,13.38
10.000,10.87
10.015,8.45
10.031,6.04
10.046,3.58
10.062,1.03
10.078,-1.56
10.093,-4.1
10.109,-6.48
10.125,-8.68
10.140,-10.72
10.156,-12.71
10.171,-14.7
10.187,-16.68
10.203,-18.65
10.218,-20.65
10.234,-22.77
10.250,-25.17
10.265,-27.8
10.281,-30.35
10.296,-32.21
10.312,-32.57
10.328,-30.74
10.343,-26.34
10.359,-19.49
10.375,-10.78
10.390,-1.12
10.406,8.5
10.421,17.31
10.437,24.72
10.453,30.48
10.468,34.52
10.484,36.91
10.500,37.82
10.515,37.42
10.531,35.93
10.546,33.58
10.562,30.59
10.578,27.17
10.593,23.57
10.609,20.04
10.625,16.79
10.640,13.98
10.656,11.64
10.671,9.71
10.687,8.03
10.703,6.39
10.718,4.58
10.734,2.47
10.750,-0.03
10.765,-2.9
10.781,-6.01
10.796,-9.15
10.812,-12.13
10.828,-14.85
10.843,-17.33
10.859,-19.76
10.875,-22.36
10.890,-25.29
10.906,-28.56
10.921,-31.95
10.937,-34.99
10.953,-37.12
10.968,-37.71
10.984,-36.21
11.000,-32.25
11.015,-25.79
11.031,-17.09
11.046,-6.77
11.062,4.4
11.078,15.58
11.093,25.98
11.109,34.98
11.125,42.17
11.140,47.38
11.156,50.63
11.171,52.09
11.187,52.04
11.203,50.8
11.218,48.68
11.234,45.92
11.250,42.8
11.265,39.59
11.281,36.56
11.296,33.94
11.312,31.85
11.328,30.34
11.343,29.35
11.359,28.84
11.375,28.69
11.390,28.81
11.406,29.01
11.421,29.06
11.437,28.73
11.453,27.88
11.468,26.59
11.484,24.97
11.500,23.27
11.515,21.64
11.531,20.18
11.546,18.91
11.562,17.77
11.578,16.72
11.593,15.7
11.609,14.66
11.625,13.56
11.640,12.4
11.656,11.27
11.671,10.33
11.687,9.72
11.703,9.48
11.718,9.55
11.734,9.77
11.750,10.02
11.765,10.12
11.781,9.97
11.796,9.37
11.812,8.09
11.828,5.92
11.843,2.74
11.859,-1.35
11.875,-6.12
11.890,-11.16
11.906,-16.06
11.921,-20.47
11.937,-24.16
11.953,-27.0
11.968,-28.85
11.984,-29.66
12.000,-29.48
12.015,-28.5
12.031,-27.06
12.046,-25.54
12.062,-24.28
12.078,-23.46
12.093,-23.16
12.109,-23.32
12.125,-23.91
12.140,-24.89
12.156,-26.27
12.171,-28.05
12.187,-30.21
12.203,-32.66
12.218,-35.26
12.234,-37.87
12.250,-40.41
12.265,-42.9
12.281,-45.45
12.296,-48.22
12.312,-51.39
12.328,-54.94
12.343,-58.6
12.359,-61.79
12.375,-63.74
12.390,-63.75
12.406,-61.26
12.421,-56.09
12.437,-48.42
12.453,-38.74
12.468,-27.73
12.484,-16.1
12.500,-4.53
12.515,6.37
12.531,16.06
12.546,24.09
12.562,30.19
12.578,34.31
12.593,36.62
12.609,37.5
12.625,37.43
12.640,36.79
12.656,35.87
12.671,34.71
12.687,33.26
12.703,31.42
12.718,29.14
12.734,26.49
12.750,23.59
12.765,20.61
12.781,17.67
12.796,14.87
12.812,12.24
12.828,9.72
12.843,7.19
12.859,4.51
12.875,1.6
12.890,-1.52
12.906,-4.7
12.921,-7.8
12.937,-10.74
12.953,-13.59
12.968,-16.62
12.984,-20.05
13.000,-24.04
13.015,-28.41
13.031,-32.72
13.046,-36.36
13.062,-38.71
13.078,-39.26
13.093,-37.7
13.109,-33.95
13.125,-28.1
13.140,-20.52
13.156,-11.75
13.171,-2.53
13.187,6.33
13.203,14.08
13.218,20.17
13.234,24.37
13.250,26.79
13.265,27.74
13.281,27.61
13.296,26.71
13.312,25.21
13.328,23.25
13.343,20.91
13.359,18.33
13.375,15.67
13.390,13.08
13.406,10.65
13.421,8.35
13.437,6.09
13.453,3.8
13.468,1.39
13.484,-1.17
13.500,-3.9
13.515,-6.77
13.531,-9.76
13.546,-12.76
13.562,-15.68
13.578,-18.43
13.593,-20.94
13.609,-23.25
13.625,-25.48
13.640,-27.8
13.656,-30.28
13.671,-32.86
13.687,-35.33
13.703,-37.32
13.718,-38.39
13.734,-38.06
13.750,-35.94
13.765,-31.77
13.781,-25.53
13.796,-17.49
13.812,-8.21
13.828,1.57
13.843,11.07
13.859,19.67
13.875,26.93
13.890,32.66
13.906,36.9
13.921,39.73
13.937,41.26
13.953,41.58
13.968,40.83
13.984,39.16
14.000,36.76
14.015,33.84
14.031,30.6
14.046,27.24
14.062,23.88
14.078,20.64
14.093,17.58
14.109,14.73
14.125,12.09
14.140,9.67
14.156,7.38
14.171,5.15
14.187,2.85
14.203,0.37
14.218,-2.36
14.234,-5.32
14.250,-8.42
14.265,-11.53
14.281,-14.52
14.296,-17.33
14.312,-20.0
14.328,-22.62
14.343,-25.16
14.359,-27.47
14.375,-29.17
14.390,-29.83
14.406,-29.02
14.421,-26.43
14.437,-21.99
14.453,-15.75
14.468,-7.9
14.484,1.28
14.500,11.36
14.515,21.79
14.531,31.9
14.546,40.98
14.562,48.44
14.578,53.95
14.593,57.5
14.609,59.32
14.625,59.82
14.640,59.44
14.656,58.57
14.671,57.51
14.687,56.39
14.703,55.17
14.718,53.67
14.734,51.6
14.750,48.63
14.765,44.49
14.781,38.98
14.796,32.08
14.812,23.88
14.828,14.57
14.843,4.46
14.859,-6.09
14.875,-16.64
14.890,-26.75
14.906,-36.08
14.921,-44.36
14.937,-51.54
14.953,-57.63
14.968,-62.81
14.984,-67.21
15.000,-70.99
15.015,-74.26
15.031,-77.07
15.046,-79.42
15.062,-81.15
15.078,-81.99
15.093,-81.48
15.109,-79.11
15.125,-74.41
15.140,-67.1
15.156,-57.26
15.171,-45.29
15.187,-31.92
15.203,-17.94
15.218,-4.11
15.234,9.0
15.250,21.02
15.265,31.78
15.281,41.18
15.296,49.1
15.312,55.4
15.328,59.94
15.343,62.69
15.359,63.76
15.375,63.36
15.390,61.76
15.406,59.2
15.421,55.88
15.437,51.89
15.453,47.35
15.468,42.37
15.484,37.11
15.500,31.66
15.515,26.01
15.531,20.11
15.546,13.83
15.562,7.12
15.578,0.08
15.593,-6.95
15.609,-13.58
15.625,-19.35
15.640,-24.06
15.656,-27.79
15.671,-30.87
15.687,-33.75
15.703,-36.76
15.718,-39.96
15.734,-43.18
15.750,-46.25
15.765,-49.12
15.781,-51.97
15.796,-55.16
15.812,-58.9
15.828,-63.13
15.843,-67.41
15.859,-71.01
15.875,-73.14
15.890,-73.2
15.906,-70.83
15.921,-65.94
15.937,-58.64
15.953,-49.16
15.968,-37.8
15.984,-25.05
16.000,-11.44
16.015,2.36
16.031,15.7
16.046,27.98
16.062,38.74
16.078,47.73
16.093,54.8
16.109,59.96
16.125,63.26
16.140,64.8
16.156,64.78
16.171,63.49
16.187,61.35
16.203,58.76
16.218,56.05
16.234,53.38
16.250,50.71
16.265,47.95
16.281,44.98
16.296,41.85
16.312,38.67
16.328,35.59
16.343,32.68
16.359,29.88
16.375,27.09
16.390,24.17
16.406,21.13
16.421,17.99
16.437,14.84
16.453,11.68
16.468,8.51
16.484,5.24
16.500,1.82
16.515,-1.72
16.531,-5.35
16.546,-9.02
16.562,-12.75
16.578,-16.55
16.593,-20.29
16.609,-23.62
16.625,-25.95
16.640,-26.56
16.656,-24.87
16.671,-20.64
16.687,-14.06
16.703,-5.79
16.718,3.4
16.734,12.75
16.750,21.68
16.765,29.83
16.781,36.95
16.796,42.79
16.812,47.11
16.828,49.71
16.843,50.55
16.859,49.75
16.875,47.57
16.890,44.36
16.906,40.38
16.921,35.84
16.937,30.81
16.953,25.34
16.968,19.53
16.984,13.58
17.000,7.71
17.015,2.19
17.031,-2.78
17.046,-7.11
17.062,-10.82
17.078,-13.98
17.093,-16.71
17.109,-19.03
17.125,-20.98
17.140,-22.63
17.156,-24.09
17.171,-25.59
17.187,-27.38
17.203,-29.59
17.218,-32.25
17.234,-35.15
17.250,-37.96
17.265,-40.36
17.281,-42.12
17.296,-43.22
17.312,-43.85
17.328,-44.34
17.343,-44.94
17.359,-45.75
17.375,-46.63
17.390,-47.19
17.406,-46.89
17.421,-45.18
17.437,-41.66
17.453,-36.19
17.468,-28.86
17.484,-19.98
17.500,-9.98
17.515,0.61
17.531,11.23
17.546,21.32
17.562,30.37
17.578,38.0
17.593,43.93
17.609,48.05
17.625,50.4
17.640,51.08
17.656,50.29
17.671,48.3
17.687,45.37
17.703,41.81
17.718,37.83
17.734,33.6
17.750,29.24
17.765,24.9
17.781,20.77
17.796,16.98
17.812,13.61
17.828,10.54
17.843,7.52
17.859,4.26
17.875,0.57
17.890,-3.54
17.906,-7.83
17.921,-12.03
17.937,-15.97
17.953,-19.58
17.968,-23.02
17.984,-26.57
18.000,-30.46
18.015,-34.86
18.031,-39.74
18.046,-44.9
18.062,-50.04
18.078,-54.75
18.093,-58.58
18.109,-61.04
18.125,-61.67
18.140,-60.05
18.156,-55.94
18.171,-49.37
18.187,-40.72
18.203,-30.67
18.218,-20.09
18.234,-9.78
18.250,-0.39
18.265,7.72
18.281,14.34
18.296,19.33
18.312,22.54
18.328,23.87
18.343,23.32
18.359,21.16
18.375,17.89
18.390,14.2
18.406,10.72
18.421,8.0
18.437,6.31
18.453,5.67
18.468,5.97
18.484,6.97
18.500,8.41
18.515,10.06
18.531,11.65
18.546,12.99
18.562,13.91
18.578,14.28
18.593,14.01
18.609,13.14
18.625,11.7
18.640,9.77
18.656,7.43
18.671,4.72
18.687,1.68
18.703,-1.64
18.718,-5.18
18.734,-8.89
18.750,-12.71
18.765,-16.61
18.781,-20.56
18.796,-24.45
18.812,-28.03
18.828,-30.91
18.843,-32.56
18.859,-32.49
18.875,-30.31
18.890,-25.83
18.906,-19.14
18.921,-10.58
18.937,-0.74
18.953,9.67
18.968,19.83
18.984,29.07
19.000,36.85
19.015,42.87
19.031,47.01
19.046,49.36
19.062,50.04
19.078,49.28
19.093,47.37
19.109,44.64
19.125,41.49
19.140,38.29
19.156,35.29
19.171,32.62
19.187,30.25
19.203,28.09
19.218,26.07
19.234,24.14
19.250,22.31
19.265,20.56
19.281,18.91
19.296,17.29
19.312,15.72
19.328,14.18
19.343,12.66
19.359,11.2
19.375,9.85
19.390,8.62
19.406,7.54
19.421,6.58
19.437,5.69
19.453,4.77
19.468,3.75
19.484,2.61
19.500,1.43
19.515,0.34
19.531,-0.53
19.546,-1.13
19.562,-1.51
19.578,-1.77
19.593,-2.02
19.609,-2.33
19.625,-2.69
19.640,-3.04
19.656,-3.32
19.671,-3.52
19.687,-3.67
19.703,-3.83
19.718,-4.06
19.734,-4.44
19.750,-5.02
19.765,-5.86
19.781,-6.92
19.796,-8.14
19.812,-9.39
19.828,-10.53
19.843,-11.46
19.859,-12.1
19.875,-12.42
19.890,-12.48
19.906,-12.37
19.921,-12.26
19.937,-12.33
19.953,-12.74
19.968,-13.6
19.984,-14.93
20.000,-16.69
20.015,-18.78
20.031,-21.18
20.046,-23.84
20.062,-26.7
20.078,-29.68
20.093,-32.69
20.109,-35.61
20.125,-38.43
20.140,-41.16
20.156,-43.83
20.171,-46.45
20.187,-49.09
20.203,-51.78
20.218,-54.66
20.234,-57.82
20.250,-61.17
20.265,-64.32
20.281,-66.55
20.296,-66.95
20.312,-64.66
20.328,-59.2
20.343,-50.52
20.359,-39.18
20.375,-26.01
20.390,-12.04
20.406,1.76
20.421,14.58
20.437,25.77
20.453,34.87
20.468,41.56
20.484,45.78
20.500,47.62
20.515,47.44
20.531,45.75
20.546,43.09
20.562,39.94
20.578,36.62
20.593,33.3
20.609,30.07
20.625,27.0
20.640,24.18
20.656,21.68
20.671,19.49
20.687,17.47
20.703,15.44
20.718,13.2
20.734,10.6
20.750,7.62
20.765,4.38
20.781,1.07
20.796,-2.1
20.812,-5.0
20.828,-7.56
20.843,-9.86
20.859,-12.05
20.875,-14.34
20.890,-16.91
20.906,-19.88
20.921,-23.22
20.937,-26.66
20.953,-29.74
20.968,-31.83
20.984,-32.24
21.000,-30.44
21.015,-26.18
21.031,-19.55
21.046,-11.05
21.062,-1.42
21.078,8.5
21.093,17.89
21.109,26.08
21.125,32.61
21.140,37.22
21.156,39.82
21.171,40.51
21.187,39.55
21.203,37.23
21.218,33.88
21.234,29.84
21.250,25.43
21.265,20.94
21.281,16.67
21.296,12.91
21.312,9.83
21.328,7.47
21.343,5.72
21.359,4.36
21.375,3.17
21.390,1.97
21.406,0.62
21.421,-1.0
21.437,-3.04
21.453,-5.6
21.468,-8.81
21.484,-12.66
21.500,-17.0
21.515,-21.58
21.531,-26.14
21.546,-30.42
21.562,-34.32
21.578,-37.74
21.593,-40.51
21.609,-42.32
21.625,-42.68
21.640,-41.05
21.656,-37.0
21.671,-30.44
21.687,-21.7
21.703,-11.44
21.718,-0.53
21.734,10.19
21.750,20.06
21.765,28.62
21.781,35.6
21.796,40.88
21.812,44.34
21.828,45.9
21.843,45.62
21.859,43.68
21.875,40.44
21.890,36.47
21.906,32.33
21.921,28.51
21.937,25.27
21.953,22.62
21.968,20.34
21.984,18.17
22.000,15.95
22.015,13.54
22.031,11.01
22.046,8.35
22.062,5.59
22.078,2.69
22.093,-0.36
22.109,-3.54
22.125,-6.75
22.140,-9.9
22.156,-12.94
22.171,-15.92
22.187,-18.98
22.203,-22.25
22.218,-25.86
22.234,-29.81
22.250,-33.94
22.265,-37.85
22.281,-40.89
22.296,-42.25
22.312,-41.16
22.328,-37.17
22.343,-30.21
22.359,-20.73
22.375,-9.59
22.390,2.23
22.406,13.76
22.421,24.23
22.437,33.11
22.453,40.07
22.468,44.94
22.484,47.67
22.500,48.41
22.515,47.43
22.531,45.16
22.546,42.06
22.562,38.53
22.578,34.84
22.593,31.13
22.609,27.41
22.625,23.7
22.640,20.04
22.656,16.58
22.671,13.38
22.687,10.44
22.703,7.57
22.718,4.5
22.734,1.01
22.750,-2.96
22.765,-7.22
22.781,-11.47
22.796,-15.4
22.812,-18.94
22.828,-22.26
22.843,-25.73
22.859,-29.68
22.875,-34.25
22.890,-39.3
22.906,-44.47
22.921,-49.22
22.937,-53.01
22.953,-55.26
22.968,-55.43
22.984,-53.08
23.000,-48.01
23.015,-40.32
23.031,-30.48
23.046,-19.27
23.062,-7.59
23.078,3.72
23.093,14.05
23.109,23.0
23.125,30.38
23.140,36.11
23.156,40.17
23.171,42.65
23.187,43.74
23.203,43.8
23.218,43.28
23.234,42.65
23.250,42.21
23.265,42.02
23.281,41.93
23.296,41.69
23.312,41.12
23.328,40.24
23.343,39.2
23.359,38.26
23.375,37.59
23.390,37.2
23.406,36.99
23.421,36.77
23.437,36.45
23.453,36.02
23.468,35.6
23.484,35.24
23.500,34.96
23.515,34.65
23.531,34.22
23.546,33.61
23.562,32.82
23.578,31.97
23.593,31.15
23.609,30.43
23.625,29.76
23.640,29.04
23.656,28.11
23.671,26.84
23.687,25.16
23.703,23.04
23.718,20.52
23.734,17.63
23.750,14.36
23.765,10.66
23.781,6.38
23.796,1.32
23.812,-4.66
23.828,-11.54
23.843,-19.11
23.859,-27.01
23.875,-34.8
23.890,-42.12
23.906,-48.61
23.921,-54.09
23.937,-58.35
23.953,-61.27
23.968,-62.79
23.984,-63.02
24.000,-62.19
24.015,-60.69
24.031,-58.89
24.046,-57.07
24.062,-55.42
24.078,-54.05
24.093,-53.04
24.109,-52.48
24.125,-52.38
24.140,-52.57
24.156,-52.83
24.171,-52.93
24.187,-52.82
24.203,-52.85
24.218,-53.59
24.234,-55.69
24.250,-59.52
24.265,-65.0
24.281,-71.45
24.296,-77.79
24.312,-82.75
24.328,-85.17
24.343,-84.26
24.359,-79.67
24.375,-71.63
24.390,-60.86
24.406,-48.34
24.421,-35.12
24.437,-22.11
24.453,-9.82
24.468,1.55
24.484,11.98
24.500,21.56
24.515,30.33
24.531,38.24
24.546,45.22
24.562,51.17
24.578,55.95
24.593,59.42
24.609,61.46
24.625,61.94
24.640,60.96
24.656,58.78
24.671,55.77
24.687,52.36
24.703,48.81
24.718,45.14
24.734,41.2
24.750,36.86
24.765,32.03
24.781,26.9
24.796,21.72
24.812,16.72
24.828,12.02
24.843,7.57
24.859,3.17
24.875,-1.36
24.890,-6.15
24.906,-11.3
24.921,-16.78
24.937,-22.5
24.953,-28.19
24.968,-33.43
24.984,-37.6
25.000,-40.01
25.015,-40.06
25.031,-37.43
25.046,-32.24
25.062,-25.05
25.078,-16.82
25.093,-8.61
25.109,-1.37
25.125,4.33
25.140,8.3
25.156,10.7
25.171,11.76
25.187,11.62
25.203,10.4
25.218,8.19
25.234,5.26
25.250,2.02
25.265,-1.05
25.281,-3.54
25.296,-5.21
25.312,-5.99
25.328,-5.92
25.343,-5.07
25.359,-3.58
25.375,-1.7
25.390,0.12
25.406,1.4
25.421,1.73
25.437,0.99
25.453,-0.64
25.468,-2.81
25.484,-5.19
25.500,-7.61
25.515,-10.03
25.531,-12.42
25.546,-14.67
25.562,-16.65
25.578,-18.34
25.593,-19.91
25.609,-21.67
25.625,-23.78
25.640,-26.03
25.656,-27.65
25.671,-27.57
25.687,-24.81
25.703,-18.97
25.718,-10.38
25.734,-0.13
25.750,10.41
25.765,19.95
25.781,27.62
25.796,33.02
25.812,36.21
25.828,37.45
25.843,37.07
25.859,35.4
25.875,32.79
25.890,29.66
25.906,26.53
25.921,23.93
25.937,22.26
25.953,21.7
25.968,22.12
25.984,23.15
26.000,24.36
26.015,25.45
26.031,26.35
26.046,27.21
26.062,28.18
26.078,29.3
26.093,30.33
26.109,30.96
26.125,30.93
26.140,30.26
26.156,29.3
26.171,28.54
26.187,28.37
26.203,28.81
26.218,29.41
26.234,29.46
26.250,28.23
26.265,25.34
26.281,20.91
26.296,15.6
26.312,10.38
26.328,6.3
26.343,4.25
26.359,4.77
26.375,7.95
26.390,13.44
26.406,20.55
26.421,28.37
26.437,35.97
26.453,42.53
26.468,47.44
26.484,50.34
26.500,51.15
26.515,49.97
26.531,47.09
26.546,42.95
26.562,38.05
26.578,32.88
26.593,27.83
26.609,23.1
26.625,18.83
26.640,15.03
26.656,11.74
26.671,8.92
26.687,6.56
26.703,4.52
26.718,2.63
26.734,0.7
26.750,-1.46
26.765,-3.93
26.781,-6.75
26.796,-9.82
26.812,-13.02
26.828,-16.12
26.843,-18.91
26.859,-21.18
26.875,-22.87
26.890,-24.01
26.906,-24.7
26.921,-25.01
26.937,-24.81
26.953,-23.76
26.968,-21.36
26.984,-17.07
27.000,-10.45
27.015,-1.33
27.031,10.14
27.046,23.51
27.062,38.06
27.078,52.92
27.093,67.25
27.109,80.3
27.125,91.55
27.140,100.72
27.156,107.79
27.171,112.83
27.187,115.92
27.203,117.08
27.218,116.21
27.234,113.21
27.250,108.07
27.265,100.96
27.281,92.17
27.296,82.05
27.312,70.89
27.328,58.77
27.343,45.57
27.359,31.09
27.375,15.1
27.390,-2.58
27.406,-21.87
27.421,-42.47
27.437,-63.85
27.453,-85.37
27.468,-106.46
27.484,-126.7
27.500,-145.85
27.515,-163.76
27.531,-180.09
27.546,-194.19
27.562,-205.11
27.578,-211.84
27.593,-213.58
27.609,-210.08
27.625,-201.71
27.640,-189.37
27.656,-174.26
27.671,-157.58
27.687,-140.37
27.703,-123.42
27.718,-107.26
27.734,-92.27
27.750,-78.74
27.765,-66.77
27.781,-56.28
27.796,-46.93
27.812,-38.12
27.828,-29.16
27.843,-19.58
27.859,-9.34
27.875,1.11
27.890,10.9
27.906,19.02
27.921,24.64
27.937,27.37
27.953,27.31
27.968,24.94
27.984,20.94
28.000,16.05
28.015,10.86
28.031,5.77
28.046,0.92
28.062,-3.77
28.078,-8.56
28.093,-13.73
28.109,-19.53
28.125,-26.05
28.140,-33.02
28.156,-39.82
28.171,-45.48
28.187,-48.83
28.203,-48.73
28.218,-44.43
28.234,-35.79
28.250,-23.39
28.265,-8.43
28.281,7.52
28.296,22.86
28.312,36.35
28.328,47.27
28.343,55.5
28.359,61.3
28.375,65.16
28.390,67.41
28.406,68.15
28.421,67.28
28.437,64.65
28.453,60.33
28.468,54.67
28.484,48.39
28.500,42.32
28.515,37.21
28.531,33.47
28.546,31.13
28.562,29.95
28.578,29.47
28.593,29.21
28.609,28.71
28.625,27.59
28.640,25.54
28.656,22.34
28.671,17.94
28.687,12.49
28.703,6.32
28.718,-0.17
28.734,-6.62
28.750,-12.79
28.765,-18.54
28.781,-23.73
28.796,-28.06
28.812,-31.04
28.828,-32.0
28.843,-30.34
28.859,-25.71
28.875,-18.15
28.890,-8.18
28.906,3.37
28.921,15.44
28.937,27.02
28.953,37.33
28.968,45.81
28.984,52.21
29.000,56.41
29.015,58.45
29.031,58.38
29.046,56.29
29.062,52.37
29.078,46.89
29.093,40.25
29.109,32.91
29.125,25.29
29.140,17.8
29.156,10.79
29.171,4.56
29.187,-0.68
29.203,-4.84
29.218,-7.98
29.234,-10.3
29.250,-12.13
29.265,-13.78
29.281,-15.46
29.296,-17.18
29.312,-18.85
29.328,-20.22
29.343,-21.15
29.359,-21.61
29.375,-21.74
29.390,-21.89
29.406,-22.45
29.421,-23.63
29.437,-25.22
29.453,-26.6
29.468,-26.66
29.484,-24.17
29.500,-18.08
29.515,-7.79
29.531,6.61
29.546,24.38
29.562,44.28
29.578,64.94
29.593,85.06
29.609,103.71
29.625,120.31
29.640,134.67
29.656,146.84
29.671,156.94
29.687,165.12
29.703,171.48
29.718,176.14
29.734,179.28
29.750,181.16
29.765,182.05
29.781,182.27
29.796,182.15
29.812,181.99
29.828,182.19
29.843,183.03
29.859,184.5
29.875,186.01
29.890,186.18
29.906,182.87
29.921,173.74
29.937,156.93
29.953,131.68
29.968,98.56
29.984,59.34
30.000,16.33
30.015,-28.04
30.031,-71.61
30.046,-112.57
30.062,-149.42
30.078,-181.0
30.093,-206.71
30.109,-226.71
30.125,-241.89
30.140,-253.58
30.156,-262.96
30.171,-270.71
30.187,-276.71
30.203,-280.25
30.218,-280.43
30.234,-276.66
30.250,-268.79
30.265,-257.27
30.281,-242.93
30.296,-226.62
30.312,-209.15
30.328,-191.04
30.343,-172.67
30.359,-154.37
30.375,-136.6
30.390,-119.82
30.406,-104.47
30.421,-90.75
30.437,-78.49
30.453,-67.28
30.468,-56.67
30.484,-46.4
30.500,-36.55
30.515,-27.51
30.531,-19.62
30.546,-13.12
30.562,-7.95
30.578,-3.79
30.593,-0.23
30.609,3.05
30.625,6.16
30.640,9.02
30.656,11.4
30.671,13.03
30.687,13.57
30.703,12.68
30.718,10.22
30.734,6.35
30.750,1.7
30.765,-2.61
30.781,-5.19
30.796,-4.8
30.812,-0.61
30.828,7.45
30.843,18.82
30.859,32.46
30.875,47.2
30.890,61.89
30.906,75.59
30.921,87.43
30.937,96.61
30.953,102.48
30.968,104.65
30.984,103.26
31.000,99.05
31.015,93.19
31.031,86.98
31.046,81.5
31.062,77.32
31.078,74.4
31.093,72.34
31.109,70.61
31.125,68.79
31.140,66.71
31.156,64.38
31.171,61.85
31.187,59.22
31.203,56.55
31.218,53.84
31.234,51.1
31.250,48.17
31.265,44.8
31.281,40.47
31.296,34.49
31.312,26.04
31.328,14.5
31.343,-0.45
31.359,-18.54
31.375,-38.8
31.390,-59.73
31.406,-79.56
31.421,-96.71
31.437,-110.05
31.453,-119.1
31.468,-123.93
31.484,-124.93
31.500,-122.61
31.515,-117.36
31.531,-109.54
31.546,-99.45
31.562,-87.52
31.578,-74.32
31.593,-60.52
31.609,-46.83
31.625,-33.94
31.640,-22.34
31.656,-12.33
31.671,-4.0
31.687,2.71
31.703,7.94
31.718,11.78
31.734,14.29
31.750,15.52
31.765,15.58
31.781,14.64
31.796,13.05
31.812,11.13
31.828,9.08
31.843,6.97
31.859,4.62
31.875,1.85
31.890,-1.49
31.906,-5.35
31.921,-9.59
31.937,-13.98
31.953,-18.25
31.968,-22.2
31.984,-25.46
32.000,-27.56
32.015,-27.81
32.031,-25.59
32.046,-20.46
32.062,-12.51
32.078,-2.31
32.093,9.22
32.109,20.96
32.125,31.97
32.140,41.54
32.156,49.24
32.171,54.86
32.187,58.3
32.203,59.69
32.218,59.29
32.234,57.54
32.250,54.94
32.265,52.03
32.281,49.28
32.296,47.11
32.312,45.84
32.328,45.58
32.343,46.19
32.359,47.19
32.375,47.92
32.390,47.65
32.406,45.92
32.421,42.69
32.437,38.29
32.453,33.24
32.468,27.94
32.484,22.6
32.500,17.13
32.515,11.34
32.531,5.0
32.546,-2.04
32.562,-9.86
32.578,-18.44
32.593,-27.57
32.609,-36.72
32.625,-45.01
32.640,-51.39
32.656,-54.78
32.671,-54.42
32.687,-50.17
32.703,-42.5
32.718,-32.39
32.734,-21.08
32.750,-9.73
32.765,0.75
32.781,9.69
32.796,16.8
32.812,21.98
32.828,25.27
32.843,26.76
32.859,26.65
32.875,25.2
32.890,22.76
32.906,19.74
32.921,16.49
32.937,13.29
32.953,10.29
32.968,7.46
32.984,4.7
33.000,1.87
33.015,-1.09
33.031,-4.18
33.046,-7.33
33.062,-10.46
33.078,-13.45
33.093,-16.21
33.109,-18.72
33.125,-20.96
33.140,-23.08
33.156,-25.27
33.171,-27.75
33.187,-30.67
33.203,-34.03
33.218,-37.65
33.234,-41.15
33.250,-44.05
33.265,-45.71
33.281,-45.53
33.296,-42.98
33.312,-37.66
33.328,-29.52
33.343,-18.94
33.359,-6.76
33.375,5.81
33.390,17.47
33.406,27.19
33.421,34.33
33.437,38.84
33.453,41.1
33.468,41.81
33.484,41.6
33.500,40.99
33.515,40.26
33.531,39.48
33.546,38.71
33.562,37.96
33.578,37.33
33.593,36.84
33.609,36.45
33.625,35.95
33.640,35.1
33.656,33.7
33.671,31.7
33.687,29.25
33.703,26.66
33.718,24.28
33.734,22.33
33.750,20.84
33.765,19.6
33.781,18.28
33.796,16.59
33.812,14.36
33.828,11.59
33.843,8.31
33.859,4.51
33.875,0.08
33.890,-5.2
33.906,-11.36
33.921,-18.1
33.937,-24.82
33.953,-30.7
33.968,-34.95
33.984,-37.27
34.000,-37.81
34.015,-37.17
34.031,-36.05
34.046,-35.02
34.062,-34.35
34.078,-34.07
34.093,-34.05
34.109,-34.14
34.125,-34.25
34.140,-34.23
34.156,-33.79
34.171,-32.48
34.187,-29.72
34.203,-25.0
34.218,-18.04
34.234,-8.95
34.250,1.76
34.265,13.23
34.281,24.39
34.296,34.16
34.312,41.58
34.328,45.89
34.343,46.66
34.359,43.85
34.375,37.94
34.390,29.88
34.406,21.06
34.421,12.94
34.437,6.63
34.453,2.57
34.468,0.5
34.484,-0.38
34.500,-0.94
34.515,-1.89
34.531,-3.66
34.546,-6.56
34.562,-11.02
34.578,-17.61
34.593,-26.82
34.609,-38.64
34.625,-52.24
34.640,-65.98
34.656,-77.8
34.671,-85.84
34.687,-88.92
34.703,-86.73
34.718,-79.66
34.734,-68.51
34.750,-54.15
34.765,-37.48
34.781,-19.44
34.796,-1.12
34.812,16.29
34.828,31.63
34.843,43.96
34.859,52.71
34.875,57.74
34.890,59.34
34.906,58.14
34.921,54.99
34.937,50.81
34.953,46.4
34.968,42.32
34.984,38.77
35.000,35.73
35.015,33.05
35.031,30.7
35.046,28.81
35.062,27.62
35.078,27.22
35.093,27.41
35.109,27.7
35.125,27.42
35.140,26.0
35.156,23.26
35.171,19.5
35.187,15.42
35.203,11.81
35.218,9.37
35.234,8.36
35.250,8.52
35.265,9.11
35.281,9.02
35.296,7.09
35.312,2.49
35.328,-4.99
35.343,-14.79
35.359,-25.68
35.375,-36.19
35.390,-45.08
35.406,-51.63
35.421,-55.76
35.437,-57.79
35.453,-58.15
35.468,-57.21
35.484,-55.08
35.500,-51.88
35.515,-47.79
35.531,-43.17
35.546,-38.41
35.562,-33.81
35.578,-29.42
35.593,-25.07
35.609,-20.56
35.625,-15.76
35.640,-10.79
35.656,-5.95
35.671,-1.57
35.687,2.17
35.703,5.33
35.718,8.15
35.734,10.93
35.750,13.87
35.765,16.98
35.781,20.12
35.796,23.09
35.812,25.76
35.828,28.13
35.843,30.24
35.859,32.17
35.875,33.87
35.890,35.23
35.906,36.07
35.921,36.26
35.937,35.76
35.953,34.63
35.968,33.04
35.984,31.28
36.000,29.73
36.015,29.01
36.031,29.79
36.046,32.72
36.062,38.25
36.078,46.43
36.093,56.88
36.109,68.88
36.125,81.54
36.140,94.02
36.156,105.65
36.171,115.99
36.187,124.77
36.203,131.83
36.218,137.08
36.234,140.39
36.250,141.66
36.265,140.83
36.281,137.95
36.296,133.23
36.312,127.08
36.328,120.02
36.343,112.65
36.359,105.51
36.375,99.06
36.390,93.53
36.406,88.98
36.421,85.27
36.437,82.1
36.453,79.11
36.468,75.89
36.484,72.05
36.500,67.2
36.515,61.01
36.531,53.34
36.546,44.2
36.562,33.87
36.578,22.72
36.593,11.14
36.609,-0.74
36.625,-13.08
36.640,-26.24
36.656,-40.5
36.671,-55.78
36.687,-71.46
36.703,-86.43
36.718,-99.43
36.734,-109.39
36.750,-115.85
36.765,-119.0
36.781,-119.55
36.796,-118.39
36.812,-116.15
36.828,-113.07
36.843,-109.07
36.859,-103.9
36.875,-97.49
36.890,-90.03
36.906,-81.96
36.921,-73.74
36.937,-65.68
36.953,-57.88
36.968,-50.31
36.984,-42.96
37.000,-35.98
37.015,-29.67
37.031,-24.33
37.046,-20.15
37.062,-17.03
37.078,-14.74
37.093,-12.98
37.109,-11.49
37.125,-10.18
37.140,-9.02
37.156,-8.05
37.171,-7.26
37.187,-6.61
37.203,-6.1
37.218,-5.8
37.234,-5.89
37.250,-6.52
37.265,-7.69
37.281,-9.16
37.296,-10.44
37.312,-10.83
37.328,-9.72
37.343,-6.73
37.359,-1.88
37.375,4.44
37.390,11.6
37.406,18.92
37.421,25.76
37.437,31.67
37.453,36.33
37.468,39.57
37.484,41.37
37.500,41.87
37.515,41.25
37.531,39.72
37.546,37.33
37.562,33.92
37.578,29.22
37.593,22.97
37.609,15.22
37.625,6.32
37.640,-3.05
37.656,-12.14
37.671,-20.4
37.687,-27.57
37.703,-33.67
37.718,-38.88
37.734,-43.32
37.750,-47.07
37.765,-50.09
37.781,-52.38
37.796,-54.02
37.812,-55.21
37.828,-56.09
37.843,-56.75
37.859,-57.14
37.875,-57.08
37.890,-56.33
37.906,-54.65
37.921,-51.9
37.937,-48.04
37.953,-43.13
37.968,-37.32
37.984,-30.8
38.000,-23.87
38.015,-16.88
38.031,-10.26
38.046,-4.46
38.062,0.17
38.078,3.38
38.093,5.1
38.109,5.46
38.125,4.72
38.140,3.2
38.156,1.28
38.171,-0.67
38.187,-2.34
38.203,-3.47
38.218,-3.96
38.234,-3.86
38.250,-3.42
38.265,-2.92
38.281,-2.68
38.296,-2.91
38.312,-3.71
38.328,-5.01
38.343,-6.68
38.359,-8.57
38.375,-10.57
38.390,-12.66
38.406,-14.93
38.421,-17.52
38.437,-20.43
38.453,-23.53
38.468,-26.4
38.484,-28.5
38.500,-29.27
38.515,-28.34
38.531,-25.61
38.546,-21.22
38.562,-15.51
38.578,-8.93
38.593,-1.99
38.609,4.69
38.625,10.48
38.640,14.8
38.656,17.3
38.671,17.91
38.687,16.96
38.703,14.99
38.718,12.59
38.734,10.23
38.750,8.13
38.765,6.33
38.781,4.78
38.796,3.37
38.812,2.04
38.828,0.77
38.843,-0.48
38.859,-1.76
38.875,-3.18
38.890,-4.83
38.906,-6.71
38.921,-8.77
38.937,-10.89
38.953,-13.01
38.968,-15.2
38.984,-17.62
39.000,-20.44
39.015,-23.63
39.031,-26.91
39.046,-29.74
39.062,-31.38
39.078,-31.21
39.093,-28.78
39.109,-24.05
39.125,-17.33
39.140,-9.28
39.156,-0.73
39.171,7.42
39.187,14.46
39.203,19.84
39.218,23.32
39.234,24.87
39.250,24.67
39.265,23.0
39.281,20.28
39.296,16.98
39.312,13.6
39.328,10.54
39.343,8.07
39.359,6.2
39.375,4.78
39.390,3.54
39.406,2.28
39.421,0.88
39.437,-0.68
39.453,-2.35
39.468,-4.14
39.484,-6.05
39.500,-8.18
39.515,-10.73
39.531,-13.89
39.546,-17.76
39.562,-22.26
39.578,-27.0
39.593,-31.3
39.609,-34.35
39.625,-35.44
39.640,-34.1
39.656,-30.3
39.671,-24.35
39.687,-16.83
39.703,-8.4
39.718,0.28
39.734,8.64
39.750,16.17
39.765,22.41
39.781,27.02
39.796,29.76
39.812,30.6
39.828,29.71
39.843,27.54
39.859,24.67
39.875,21.68
39.890,19.02
39.906,16.87
39.921,15.13
39.937,13.53
39.953,11.78
39.968,9.7
39.984,7.26
40.000,4.57
40.015,1.8
40.031,-0.93
40.046,-3.6
40.062,-6.31
40.078,-9.22
40.093,-12.52
40.109,-16.36
40.125,-20.85
40.140,-25.87
40.156,-31.14
40.171,-36.1
40.187,-39.92
40.203,-41.71
40.218,-40.68
40.234,-36.45
40.250,-29.21
40.265,-19.74
40.281,-9.15
40.296,1.37
40.312,10.9
40.328,18.92
40.343,25.25
40.359,29.96
40.375,33.13
40.390,34.87
40.406,35.26
40.421,34.47
40.437,32.75
40.453,30.43
40.468,27.85
40.484,25.27
40.500,22.81
40.515,20.46
40.531,18.09
40.546,15.56
40.562,12.75
40.578,9.69
40.593,6.47
40.609,3.27
40.625,0.19
40.640,-2.78
40.656,-5.75
40.671,-8.89
40.687,-12.31
40.703,-16.06
40.718,-20.08
40.734,-24.33
40.750,-28.73
40.765,-33.13
40.781,-37.21
40.796,-40.39
40.812,-41.94
40.828,-41.09
40.843,-37.38
40.859,-30.71
40.875,-21.55
40.890,-10.73
40.906,0.73
40.921,11.79
40.937,21.65
40.953,29.81
40.968,36.06
40.984,40.43
41.000,43.1
41.015,44.24
41.031,44.02
41.046,42.62
41.062,40.26
41.078,37.25
41.093,33.95
41.109,30.69
41.125,27.66
41.140,24.91
41.156,22.35
41.171,19.84
41.187,17.26
41.203,14.53
41.218,11.66
41.234,8.63
41.250,5.4
41.265,1.95
41.281,-1.74
41.296,-5.59
41.312,-9.48
41.328,-13.28
41.343,-16.97
41.359,-20.67
41.375,-24.55
41.390,-28.75
41.406,-33.29
41.421,-37.99
41.437,-42.4
41.453,-45.91
41.468,-47.77
41.484,-47.29
41.500,-44.02
41.515,-37.83
41.531,-28.99
41.546,-18.16
41.562,-6.2
41.578,6.06
41.593,17.99
41.609,29.12
41.625,39.11
41.640,47.55
41.656,53.97
41.671,57.92
41.687,59.25
41.703,58.19
41.718,55.45
41.734,51.96
41.750,48.58
41.765,45.83
41.781,43.77
41.796,42.11
41.812,40.41
41.828,38.33
41.843,35.73
41.859,32.72
41.875,29.51
41.890,26.3
41.906,23.19
41.921,20.08
41.937,16.79
41.953,13.14
41.968,9.09
41.984,4.84
42.000,0.69
42.015,-3.07
42.031,-6.37
42.046,-9.41
42.062,-12.63
42.078,-16.48
42.093,-21.28
42.109,-27.0
42.125,-33.29
42.140,-39.61
42.156,-45.27
42.171,-49.57
42.187,-51.87
42.203,-51.73
42.218,-48.91
42.234,-43.44
42.250,-35.71
42.265,-26.31
42.281,-16.01
42.296,-5.54
42.312,4.51
42.328,13.71
42.343,21.76
42.359,28.39
42.375,33.37
42.390,36.51
42.406,37.73
42.421,37.13
42.437,35.07
42.453,32.02
42.468,28.55
42.484,25.1
42.500,21.91
42.515,18.99
42.531,16.27
42.546,13.67
42.562,11.12
42.578,8.65
42.593,6.24
42.609,3.86
42.625,1.42
42.640,-1.22
42.656,-4.19
42.671,-7.59
42.687,-11.32
42.703,-15.25
42.718,-19.12
42.734,-22.72
42.750,-25.88
42.765,-28.6
42.781,-31.06
42.796,-33.46
42.812,-36.03
42.828,-38.93
42.843,-42.13
42.859,-45.4
42.875,-48.43
42.890,-50.71
42.906,-51.7
42.921,-50.87
42.937,-47.73
42.953,-42.02
42.968,-33.83
42.984,-23.59
43.000,-12.05
43.015,-0.17
43.031,11.2
43.046,21.34
43.062,29.77
43.078,36.27
43.093,40.72
43.109,43.19
43.125,43.81
43.140,42.81
43.156,40.59
43.171,37.6
43.187,34.36
43.203,31.27
43.218,28.55
43.234,26.19
43.250,24.03
43.265,21.87
43.281,19.47
43.296,16.73
43.312,13.7
43.328,10.48
43.343,7.25
43.359,4.13
43.375,1.12
43.390,-1.8
43.406,-4.72
43.421,-7.71
43.437,-10.74
43.453,-13.77
43.468,-16.69
43.484,-19.38
43.500,-21.75
43.515,-23.82
43.531,-25.72
43.546,-27.67
43.562,-29.89
43.578,-32.51
43.593,-35.49
43.609,-38.53
43.625,-41.14
43.640,-42.65
43.656,-42.36
43.671,-39.74
43.687,-34.44
43.703,-26.49
43.718,-16.26
43.734,-4.47
43.750,7.87
43.765,19.65
43.781,29.84
43.796,37.73
43.812,43.01
43.828,45.86
43.843,46.76
43.859,46.34
43.875,45.12
43.890,43.38
43.906,41.15
43.921,38.35
43.937,34.91
43.953,30.89
43.968,26.56
43.984,22.26
44.000,18.35
44.015,15.03
44.031,12.32
44.046,10.06
44.062,8.01
44.078,5.88
44.093,3.5
44.109,0.83
44.125,-2.09
44.140,-5.12
44.156,-8.19
44.171,-11.23
44.187,-14.2
44.203,-17.02
44.218,-19.65
44.234,-22.08
44.250,-24.37
44.265,-26.71
44.281,-29.34
44.296,-32.44
44.312,-36.05
44.328,-39.92
44.343,-43.59
44.359,-46.41
44.375,-47.76
44.390,-47.14
44.406,-44.34
44.421,-39.34
44.437,-32.34
44.453,-23.67
44.468,-13.83
44.484,-3.38
44.500,7.0
44.515,16.64
44.531,25.01
44.546,31.72
44.562,36.57
44.578,39.56
44.593,40.73
44.609,40.27
44.625,38.4
44.640,35.52
44.656,32.08
44.671,28.56
44.687,25.33
44.703,22.59
44.718,20.36
44.734,18.54
44.750,16.96
44.765,15.46
44.781,13.83
44.796,11.88
44.812,9.51
44.828,6.7
44.843,3.57
44.859,0.35
44.875,-2.68
44.890,-5.38
44.906,-7.74
44.921,-9.89
44.937,-12.02
44.953,-14.31
44.968,-16.82
44.984,-19.5
45.000,-22.31
45.015,-25.2
45.031,-28.24
45.046,-31.51
45.062,-35.04
45.078,-38.68
45.093,-42.02
45.109,-44.46
45.125,-45.27
45.140,-43.8
45.156,-39.67
45.171,-32.9
45.187,-23.92
45.203,-13.52
45.218,-2.65
45.234,7.77
45.250,16.98
45.265,24.47
45.281,29.97
45.296,33.42
45.312,34.95
45.328,34.84
45.343,33.46
45.359,31.26
45.375,28.65
45.390,25.93
45.406,23.29
45.421,20.76
45.437,18.28
45.453,15.87
45.468,13.6
45.484,11.65
45.500,10.22
45.515,9.4
45.531,9.03
45.546,8.8
45.562,8.27
45.578,7.05
45.593,4.92
45.609,1.93
45.625,-1.66
45.640,-5.42
45.656,-8.97
45.671,-12.05
45.687,-14.64
45.703,-16.9
45.718,-19.03
45.734,-21.22
45.750,-23.6
45.765,-26.24
45.781,-29.17
45.796,-32.38
45.812,-35.72
45.828,-38.76
45.843,-40.86
45.859,-41.26
45.875,-39.24
45.890,-34.49
45.906,-27.12
45.921,-17.71
45.937,-7.15
45.953,3.61
45.968,13.71
45.984,22.48
46.000,29.47
46.015,34.45
46.031,37.36
46.046,38.28
46.062,37.48
46.078,35.28
46.093,32.17
46.109,28.62
46.125,25.09
46.140,21.89
46.156,19.18
46.171,16.92
46.187,15.0
46.203,13.32
46.218,11.79
46.234,10.34
46.250,8.89
46.265,7.35
46.281,5.59
46.296,3.49
46.312,1.01
46.328,-1.82
46.343,-4.83
46.359,-7.88
46.375,-10.83
46.390,-13.58
46.406,-16.17
46.421,-18.66
46.437,-21.2
46.453,-23.95
46.468,-27.05
46.484,-30.49
46.500,-34.07
46.515,-37.43
46.531,-40.06
46.546,-41.43
46.562,-41.02
46.578,-38.43
46.593,-33.45
46.609,-26.16
46.625,-16.93
46.640,-6.45
46.656,4.41
46.671,14.72
46.687,23.63
46.703,30.56
46.718,35.21
46.734,37.59
46.750,37.92
46.765,36.65
46.781,34.33
46.796,31.47
46.812,28.52
46.828,25.7
46.843,23.07
46.859,20.55
46.875,18.1
46.890,15.74
46.906,13.53
46.921,11.52
46.937,9.67
46.953,7.88
46.968,6.03
46.984,4.09
47.000,2.08
47.015,0.08
47.031,-1.88
47.046,-3.9
47.062,-6.13
47.078,-8.7
47.093,-11.59
47.109,-14.7
47.125,-17.85
47.140,-20.93
47.156,-23.93
47.171,-26.9
47.187,-29.93
47.203,-32.9
47.218,-35.63
47.234,-37.7
47.250,-38.72
47.265,-38.3
47.281,-36.15
47.296,-32.11
47.312,-26.22
47.328,-18.71
47.343,-9.98
47.359,-0.6
47.375,8.74
47.390,17.43
47.406,24.94
47.421,30.95
47.437,35.34
47.453,38.12
47.468,39.44
47.484,39.52
47.500,38.65
47.515,37.15
47.531,35.39
47.546,33.64
47.562,32.05
47.578,30.6
47.593,29.13
47.609,27.39
47.625,25.33
47.640,23.0
47.656,20.61
47.671,18.4
47.687,16.48
47.703,14.75
47.718,12.97
47.734,10.87
47.750,8.24
47.765,5.13
47.781,1.73
47.796,-1.67
47.812,-4.86
47.828,-7.83
47.843,-10.67
47.859,-13.58
47.875,-16.75
47.890,-20.28
47.906,-24.1
47.921,-28.01
47.937,-31.66
47.953,-34.51
47.968,-36.03
47.984,-35.63
48.000,-32.9
48.015,-27.67
48.031,-20.2
48.046,-11.15
48.062,-1.5
48.078,7.68
48.093,15.54
48.109,21.52
48.125,25.51
48.140,27.71
48.156,28.47
48.171,28.15
48.187,27.07
48.203,25.46
48.218,23.51
48.234,21.4
48.250,19.21
48.265,17.02
48.281,14.83
48.296,12.7
48.312,10.62
48.328,8.66
48.343,6.82
48.359,5.08
48.375,3.36
48.390,1.53
48.406,-0.53
48.421,-2.98
48.437,-5.87
48.453,-9.19
48.468,-12.75
48.484,-16.32
48.500,-19.66
48.515,-22.65
48.531,-25.37
48.546,-28.07
48.562,-31.04
48.578,-34.41
48.593,-38.1
48.609,-41.72
48.625,-44.63
48.640,-46.13
48.656,-45.55
48.671,-42.41
48.687,-36.57
48.703,-28.33
48.718,-18.39
48.734,-7.72
48.750,2.66
48.765,11.96
48.781,19.7
48.796,25.75
48.812,30.2
48.828,33.2
48.843,34.89
48.859,35.36
48.875,34.79
48.890,33.39
48.906,31.5
48.921,29.45
48.937,27.51
48.953,25.8
48.968,24.35
48.984,23.09
49.000,21.99
49.015,21.04
49.031,20.25
49.046,19.6
49.062,18.96
49.078,18.21
49.093,17.19
49.109,15.86
49.125,14.24
49.140,12.45
49.156,10.66
49.171,9.0
49.187,7.57
49.203,6.41
49.218,5.54
49.234,4.93
49.250,4.51
49.265,4.16
49.281,3.71
49.296,3.03
49.312,2.05
49.328,0.87
49.343,-0.39
49.359,-1.54
49.375,-2.48
49.390,-3.19
49.406,-3.71
49.421,-4.12
49.437,-4.51
49.453,-4.92
49.468,-5.31
49.484,-5.65
49.500,-5.84
49.515,-5.91
49.531,-5.92
49.546,-5.98
49.562,-6.23
49.578,-6.82
49.593,-7.78
49.609,-9.03
49.625,-10.48
49.640,-11.97
49.656,-13.45
49.671,-14.98
49.687,-16.62
49.703,-18.41
49.718,-20.33
49.734,-22.25
49.750,-24.05
49.765,-25.7
49.781,-27.24
49.796,-28.83
49.812,-30.66
49.828,-32.8
49.843,-35.21
49.859,-37.72
49.875,-40.14
49.890,-42.38
49.906,-44.5
49.921,-46.64
49.937,-48.96
49.953,-51.45
49.968,-53.79
49.984,-55.41
50.000,-55.54
50.015,-53.5
50.031,-48.88
50.046,-41.67
50.062,-32.34
50.078,-21.68
50.093,-10.63
50.109,-0.11
50.125,9.14
50.140,16.71
50.156,22.46
50.171,26.49
50.187,29.08
50.203,30.56
50.218,31.18
50.234,31.17
50.250,30.67
50.265,29.79
50.281,28.68
50.296,27.46
50.312,26.24
50.328,25.04
50.343,23.79
50.359,22.39
50.375,20.71
50.390,18.67
50.406,16.27
50.421,13.61
50.437,10.82
50.453,8.02
50.468,5.27
50.484,2.6
50.500,-0.06
50.515,-2.76
50.531,-5.55
50.546,-8.51
50.562,-11.73
50.578,-15.29
50.593,-19.21
50.609,-23.36
50.625,-27.41
50.640,-30.83
50.656,-33.01
50.671,-33.43
50.687,-31.79
50.703,-28.07
50.718,-22.5
50.734,-15.46
50.750,-7.41
50.765,1.18
50.781,9.85
50.796,18.13
50.812,25.56
50.828,31.73
50.843,36.25
50.859,38.88
50.875,39.51
50.890,38.32
50.906,35.66
50.921,32.09
50.937,28.16
50.953,24.3
50.968,20.77
50.984,17.62
51.000,14.76
51.015,12.08
51.031,9.42
51.046,6.61
51.062,3.49
51.078,-0.02
51.093,-3.9
51.109,-7.91
51.125,-11.73
51.140,-15.04
51.156,-17.7
51.171,-19.88
51.187,-22.01
51.203,-24.58
51.218,-27.96
51.234,-32.2
51.250,-36.94
51.265,-41.48
51.281,-45.02
51.296,-46.82
51.312,-46.44
51.328,-43.68
51.343,-38.66
51.359,-31.66
51.375,-23.12
51.390,-13.59
51.406,-3.69
51.421,5.93
51.437,14.66
51.453,22.03
51.468,27.77
51.484,31.81
51.500,34.21
51.515,35.09
51.531,34.59
51.546,32.89
51.562,30.22
51.578,26.87
51.593,23.14
51.609,19.34
51.625,15.7
51.640,12.43
51.656,9.64
51.671,7.41
51.687,5.69
51.703,4.26
51.718,2.75
51.734,0.78
51.750,-1.87
51.765,-5.18
51.781,-8.88
51.796,-12.6
51.812,-16.04
51.828,-19.17
51.843,-22.19
51.859,-25.4
51.875,-29.0
51.890,-32.88
51.906,-36.57
51.921,-39.32
51.937,-40.24
51.953,-38.58
51.968,-33.93
51.984,-26.34
52.000,-16.38
52.015,-4.95
52.031,6.81
52.046,17.83
52.062,27.26
52.078,34.64
52.093,39.8
52.109,42.93
52.125,44.31
52.140,44.25
52.156,42.99
52.171,40.69
52.187,37.55
52.203,33.85
52.218,29.95
52.234,26.2
52.250,22.91
52.265,20.13
52.281,17.76
52.296,15.59
52.312,13.38
52.328,10.98
52.343,8.38
52.359,5.57
52.375,2.55
52.390,-0.7
52.406,-4.18
52.421,-7.87
52.437,-11.66
52.453,-15.5
52.468,-19.41
52.484,-23.47
52.500,-27.84
52.515,-32.5
52.531,-37.28
52.546,-41.66
52.562,-44.94
52.578,-46.35
52.593,-45.3
52.609,-41.46
52.625,-34.92
52.640,-26.07
52.656,-15.55
52.671,-4.15
52.687,7.32
52.703,18.09
52.718,27.55
52.734,35.22
52.750,40.84
52.765,44.38
52.781,45.98
52.796,45.98
52.812,44.77
52.828,42.77
52.843,40.32
52.859,37.62
52.875,34.77
52.890,31.78
52.906,28.62
52.921,25.3
52.937,21.9
52.953,18.55
52.968,15.36
52.984,12.4
53.000,9.61
53.015,6.85
53.031,3.95
53.046,0.79
53.062,-2.68
53.078,-6.32
53.093,-10.0
53.109,-13.55
53.125,-16.93
53.140,-20.26
53.156,-23.75
53.171,-27.6
53.187,-31.95
53.203,-36.71
53.218,-41.53
53.234,-45.78
53.250,-48.68
53.265,-49.37
53.281,-47.23
53.296,-42.03
53.312,-34.0
53.328,-23.86
53.343,-12.6
53.359,-1.23
53.375,9.42
53.390,18.87
53.406,26.91
53.421,33.51
53.437,38.66
53.453,42.33
53.468,44.46
53.484,45.03
53.500,44.14
53.515,42.08
53.531,39.26
53.546,36.18
53.562,33.21
53.578,30.53
53.593,28.11
53.609,25.69
53.625,22.99
53.640,19.85
53.656,16.28
53.671,12.53
53.687,8.89
53.703,5.59
53.718,2.64
53.734,-0.16
53.750,-3.07
53.765,-6.24
53.781,-9.63
53.796,-13.02
53.812,-16.2
53.828,-19.08
53.843,-21.75
53.859,-24.5
53.875,-27.6
53.890,-31.17
53.906,-35.14
53.921,-39.24
53.937,-43.07
53.953,-46.18
53.968,-48.12
53.984,-48.33
54.000,-46.28
54.015,-41.53
54.031,-33.94
54.046,-23.82
54.062,-11.9
54.078,0.78
54.093,13.19
54.109,24.49
54.125,34.2
54.140,42.1
54.156,48.13
54.171,52.23
54.187,54.34
54.203,54.48
54.218,52.91
54.234,50.12
54.250,46.77
54.265,43.53
54.281,40.8
54.296,38.69
54.312,36.9
54.328,34.94
54.343,32.32
54.359,28.8
54.375,24.42
54.390,19.57
54.406,14.7
54.421,10.15
54.437,6.03
54.453,2.16
54.468,-1.71
54.484,-5.74
54.500,-9.86
54.515,-13.8
54.531,-17.28
54.546,-20.23
54.562,-22.87
54.578,-25.66
54.593,-29.13
54.609,-33.55
54.625,-38.84
54.640,-44.5
54.656,-49.68
54.671,-53.39
54.687,-54.77
54.703,-53.17
54.718,-48.4
54.734,-40.69
54.750,-30.67
54.765,-19.19
54.781,-7.22
54.796,4.4
54.812,14.97
54.828,23.99
54.843,31.05
54.859,35.95
54.875,38.63
54.890,39.24
54.906,38.16
54.921,35.88
54.937,32.93
54.953,29.81
54.968,26.81
54.984,24.05
55.000,21.49
55.015,19.01
55.031,16.5
55.046,13.91
55.062,11.28
55.078,8.68
55.093,6.17
55.109,3.71
55.125,1.16
55.140,-1.66
55.156,-4.92
55.171,-8.69
55.187,-12.87
55.203,-17.19
55.218,-21.32
55.234,-24.97
55.250,-27.99
55.265,-30.43
55.281,-32.55
55.296,-34.73
55.312,-37.27
55.328,-40.22
55.343,-43.29
55.359,-45.87
55.375,-47.12
55.390,-46.26
55.406,-42.69
55.421,-36.25
55.437,-27.22
55.453,-16.28
55.468,-4.33
55.484,7.72
55.500,19.02
55.515,28.93
55.531,36.99
55.546,42.91
55.562,46.58
55.578,48.08
55.593,47.71
55.609,45.89
55.625,43.13
55.640,39.86
55.656,36.43
55.671,32.99
55.687,29.62
55.703,26.36
55.718,23.29
55.734,20.43
55.750,17.75
55.765,15.16
55.781,12.51
55.796,9.73
55.812,6.79
55.828,3.68
55.843,0.4
55.859,-3.1
55.875,-6.85
55.890,-10.77
55.906,-14.66
55.921,-18.26
55.937,-21.36
55.953,-23.92
55.968,-26.18
55.984,-28.49
56.000,-31.2
56.015,-34.48
56.031,-38.2
56.046,-41.89
56.062,-44.83
56.078,-46.24
56.093,-45.36
56.109,-41.77
56.125,-35.34
56.140,-26.41
56.156,-15.64
56.171,-3.84
56.187,8.1
56.203,19.42
56.218,29.47
56.234,37.77
56.250,43.97
56.265,47.86
56.281,49.44
56.296,48.89
56.312,46.62
56.328,43.15
56.343,39.01
56.359,34.67
56.375,30.45
56.390,26.51
56.406,22.88
56.421,19.53
56.437,16.34
56.453,13.27
56.468,10.3
56.484,7.41
56.500,4.63
56.515,1.93
56.531,-0.78
56.546,-3.65
56.562,-6.84
56.578,-10.43
56.593,-14.36
56.609,-18.44
56.625,-22.43
56.640,-26.12
56.656,-29.47
56.671,-32.6
56.687,-35.74
56.703,-39.12
56.718,-42.93
56.734,-47.2
56.750,-51.8
56.765,-56.41
56.781,-60.47
56.796,-63.32
56.812,-64.23
56.828,-62.63
56.843,-58.22
56.859,-51.17
56.875,-41.99
56.890,-31.48
56.906,-20.48
56.921,-9.72
56.937,0.21
56.953,8.92
56.968,16.12
56.984,21.62
57.000,25.29
57.015,27.08
57.031,27.15
57.046,25.72
57.062,23.2
57.078,20.04
57.093,16.68
57.109,13.5
57.125,10.69
57.140,8.33
57.156,6.37
57.171,4.78
57.187,3.51
57.203,2.57
57.218,1.94
57.234,1.47
57.250,0.9
57.265,-0.14
57.281,-1.91
57.296,-4.5
57.312,-7.65
57.328,-10.89
57.343,-13.71
57.359,-15.79
57.375,-17.13
57.390,-18.02
57.406,-18.92
57.421,-20.24
57.437,-22.28
57.453,-25.11
57.468,-28.58
57.484,-32.32
57.500,-35.73
57.515,-38.05
57.531,-38.4
57.546,-36.02
57.562,-30.37
57.578,-21.39
57.593,-9.55
57.609,4.28
57.625,18.96
57.640,33.33
57.656,46.45
57.671,57.72
57.687,66.8
57.703,73.58
57.718,77.99
57.734,79.98
57.750,79.61
57.765,77.11
57.781,72.99
57.796,67.9
57.812,62.51
57.828,57.3
57.843,52.45
57.859,47.87
57.875,43.34
57.890,38.68
57.906,33.84
57.921,28.96
57.937,24.27
57.953,20.02
57.968,16.33
57.984,13.19
58.000,10.42
58.015,7.79
58.031,5.09
58.046,2.25
58.062,-0.67
58.078,-3.53
58.093,-6.24
58.109,-8.81
58.125,-11.37
58.140,-14.12
58.156,-17.17
58.171,-20.54
58.187,-24.12
58.203,-27.76
58.218,-31.28
58.234,-34.48
58.250,-37.1
58.265,-38.8
58.281,-39.07
58.296,-37.47
58.312,-33.59
58.328,-27.33
58.343,-18.84
58.359,-8.59
58.375,2.75
58.390,14.41
58.406,25.57
58.421,35.59
58.437,43.93
58.453,50.33
58.468,54.74
58.484,57.27
58.500,58.16
58.515,57.73
58.531,56.36
58.546,54.44
58.562,52.34
58.578,50.38
58.593,48.71
58.609,47.36
58.625,46.22
58.640,45.16
58.656,44.09
58.671,43.08
58.687,42.22
58.703,41.66
58.718,41.38
58.734,41.3
58.750,41.16
58.765,40.71
58.781,39.8
58.796,38.47
58.812,36.93
58.828,35.55
58.843,34.7
58.859,34.55
58.875,35.05
58.890,35.92
58.906,36.85
58.921,37.61
58.937,38.27
58.953,39.18
58.968,40.92
58.984,44.21
59.000,49.85
59.015,58.41
59.031,70.01
59.046,83.94
59.062,98.54
59.078,111.41
59.093,119.97
59.109,122.27
59.125,117.55
59.140,106.48
59.156,90.76
59.171,72.63
59.187,54.25
59.203,37.34
59.218,23.05
59.234,11.87
59.250,3.49
59.265,-3.14
59.281,-9.67
59.296,-17.77
59.312,-28.47
59.328,-41.76
59.343,-56.46
59.359,-70.75
59.375,-82.79
59.390,-91.26
59.406,-95.45
59.421,-95.2
59.437,-90.71
59.453,-82.51
59.468,-71.55
59.484,-59.14
59.500,-46.73
59.515,-35.45
59.531,-25.8
59.546,-17.48
59.562,-9.77
59.578,-1.98
59.593,6.19
59.609,14.52
59.625,22.55
59.640,29.84
59.656,36.11
59.671,41.15
59.687,44.63
59.703,45.88
59.718,44.12
59.734,38.9
59.750,30.49
59.765,20.12
59.781,9.57
59.796,0.53
59.812,-6.21
59.828,-11.0
59.843,-15.03
59.859,-19.6
59.875,-25.33
59.890,-31.86
59.906,-38.07
59.921,-42.7
59.937,-44.95
59.953,-44.86
59.968,-43.23
59.984,-41.28
