timestamp,value
00.000,29.09
00.015,29.83
00.031,30.57
00.046,31.0
00.062,30.93
00.078,30.33
00.093,29.41
00.109,28.42
00.125,27.61
00.140,27.03
00.156,26.57
00.171,25.99
00.187,25.0
00.203,23.39
00.218,21.16
00.234,18.49
00.250,15.69
00.265,13.03
00.281,10.62
00.296,8.35
00.312,5.94
00.328,2.97
00.343,-0.94
00.359,-5.96
00.375,-11.84
00.390,-17.74
00.406,-22.26
00.421,-23.65
00.437,-20.29
00.453,-11.2
00.468,3.48
00.484,22.54
00.500,44.08
00.515,66.11
00.531,87.13
00.546,106.48
00.562,124.1
00.578,140.19
00.593,154.78
00.609,167.51
00.625,177.85
00.640,185.32
00.656,189.83
00.671,191.66
00.687,191.42
00.703,189.74
00.718,187.04
00.734,183.43
00.750,178.61
00.765,172.05
00.781,163.09
00.796,150.94
00.812,134.8
00.828,113.98
00.843,88.02
00.859,57.14
00.875,22.46
00.890,-13.89
00.906,-49.3
00.921,-81.34
00.937,-108.51
00.953,-130.38
00.968,-147.3
00.984,-159.71
01.000,-167.65
01.015,-170.91
01.031,-169.74
01.046,-165.63
01.062,-161.45
01.078,-160.56
01.093,-165.29
01.109,-175.69
01.125,-189.36
01.140,-202.52
01.156,-211.76
01.171,-215.44
01.187,-214.0
01.203,-209.19
01.218,-202.8
01.234,-195.73
01.250,-187.9
01.265,-178.79
01.281,-168.07
01.296,-156.0
01.312,-143.13
01.328,-129.88
01.343,-116.18
01.359,-101.6
01.375,-85.89
01.390,-69.24
01.406,-52.17
01.421,-35.03
01.437,-17.39
01.453,1.78
01.468,23.18
01.484,45.86
01.500,66.28
01.515,78.87
01.531,78.11
01.546,61.07
01.562,29.23
01.578,-11.6
01.593,-53.44
01.609,-88.99
01.625,-113.96
01.640,-127.67
01.656,-132.05
01.671,-129.9
01.687,-123.68
01.703,-115.24
01.718,-106.17
01.734,-98.13
01.750,-92.58
01.765,-89.97
01.781,-89.23
01.796,-87.94
01.812,-83.28
01.828,-73.23
01.843,-57.52
01.859,-37.71
01.875,-16.6
01.890,2.65
01.906,17.44
01.921,26.13
01.937,28.23
01.953,24.43
01.968,16.33
01.984,6.23
02.000,-3.37
02.015,-10.34
02.031,-13.39
02.046,-12.36
02.062,-8.13
02.078,-2.26
02.093,3.58
02.109,8.02
02.125,10.36
02.140,10.62
02.156,9.32
02.171,7.11
02.187,4.48
02.203,1.42
02.218,-2.49
02.234,-7.83
02.250,-15.08
02.265,-24.2
02.281,-34.69
02.296,-45.71
02.312,-56.39
02.328,-66.19
02.343,-75.0
02.359,-83.15
02.375,-91.26
02.390,-100.09
02.406,-110.32
02.421,-122.33
02.437,-135.91
02.453,-149.95
02.468,-162.41
02.484,-170.68
02.500,-172.19
02.515,-165.34
02.531,-150.07
02.546,-127.81
02.562,-101.14
02.578,-72.88
02.593,-45.53
02.609,-20.85
02.625,0.14
02.640,16.97
02.656,29.61
02.671,38.37
02.687,43.79
02.703,46.54
02.718,47.2
02.734,46.33
02.750,44.5
02.765,42.49
02.781,41.23
02.796,41.49
02.812,43.51
02.828,46.77
02.843,50.23
02.859,52.82
02.875,53.87
02.890,53.36
02.906,51.73
02.921,49.6
02.937,47.36
02.953,45.18
02.968,43.04
02.984,40.81
03.000,38.3
03.015,35.11
03.031,30.71
03.046,24.68
03.062,16.96
03.078,8.08
03.093,-1.05
03.109,-9.35
03.125,-16.02
03.140,-20.63
03.156,-22.88
03.171,-22.45
03.187,-18.68
03.203,-10.87
03.218,1.34
03.234,17.57
03.250,36.6
03.265,56.54
03.281,75.47
03.296,92.0
03.312,105.51
03.328,116.12
03.343,124.35
03.359,130.71
03.375,135.61
03.390,139.25
03.406,141.75
03.421,143.28
03.437,144.03
03.453,144.06
03.468,143.39
03.484,141.87
03.500,139.38
03.515,135.93
03.531,131.65
03.546,126.77
03.562,121.43
03.578,115.77
03.593,109.71
03.609,103.17
03.625,96.13
03.640,88.64
03.656,80.82
03.671,72.8
03.687,64.61
03.703,56.27
03.718,47.81
03.734,39.35
03.750,31.07
03.765,23.16
03.781,15.57
03.796,8.08
03.812,0.4
03.828,-7.42
03.843,-14.77
03.859,-20.32
03.875,-22.45
03.890,-19.69
03.906,-11.31
03.921,2.34
03.937,20.04
03.953,40.04
03.968,60.65
03.984,80.48
04.000,98.57
04.015,114.21
04.031,126.85
04.046,136.13
04.062,141.88
04.078,144.36
04.093,144.21
04.109,142.38
04.125,139.75
04.140,137.0
04.156,134.45
04.171,132.11
04.187,129.88
04.203,127.62
04.218,125.27
04.234,122.7
04.250,119.7
04.265,115.91
04.281,110.99
04.296,104.71
04.312,97.21
04.328,88.88
04.343,80.28
04.359,71.87
04.375,63.85
04.390,56.18
04.406,48.64
04.421,41.08
04.437,33.39
04.453,25.56
04.468,17.57
04.484,9.29
04.500,0.68
04.515,-8.0
04.531,-16.06
04.546,-22.35
04.562,-25.61
04.578,-24.81
04.593,-19.56
04.609,-10.18
04.625,2.43
04.640,16.97
04.656,31.84
04.671,45.12
04.687,54.74
04.703,58.9
04.718,56.73
04.734,48.92
04.750,37.8
04.765,26.52
04.781,17.68
04.796,12.0
04.812,7.72
04.828,1.29
04.843,-11.02
04.859,-31.49
04.875,-59.9
04.890,-93.6
04.906,-128.59
04.921,-160.9
04.937,-187.59
04.953,-207.28
04.968,-219.93
04.984,-226.4
05.000,-227.87
05.015,-225.26
05.031,-218.94
05.046,-208.74
05.062,-194.23
05.078,-175.39
05.093,-153.24
05.109,-129.89
05.125,-108.22
05.140,-90.98
05.156,-79.86
05.171,-74.94
05.187,-74.87
05.203,-77.42
05.218,-80.27
05.234,-81.62
05.250,-80.37
05.265,-76.01
05.281,-68.46
05.296,-57.99
05.312,-45.22
05.328,-31.14
05.343,-17.03
05.359,-4.19
05.375,6.38
05.390,14.16
05.406,19.2
05.421,22.05
05.437,23.54
05.453,24.55
05.468,25.76
05.484,27.52
05.500,29.76
05.515,32.01
05.531,33.65
05.546,34.18
05.562,33.57
05.578,32.29
05.593,31.23
05.609,31.19
05.625,32.36
05.640,34.1
05.656,35.09
05.671,33.85
05.687,29.32
05.703,21.31
05.718,10.44
05.734,-2.13
05.750,-15.07
05.765,-27.32
05.781,-38.2
05.796,-47.48
05.812,-55.38
05.828,-62.45
05.843,-69.38
05.859,-76.7
05.875,-84.38
05.890,-91.68
05.906,-97.34
05.921,-99.9
05.937,-98.28
05.953,-92.13
05.968,-81.82
05.984,-68.28
06.000,-52.66
06.015,-36.1
06.031,-19.64
06.046,-4.27
06.062,9.05
06.078,19.45
06.093,26.29
06.109,29.44
06.125,29.28
06.140,26.76
06.156,23.07
06.171,19.48
06.187,16.95
06.203,15.96
06.218,16.38
06.234,17.68
06.250,19.1
06.265,19.98
06.281,19.94
06.296,18.86
06.312,16.76
06.328,13.66
06.343,9.52
06.359,4.28
06.375,-1.93
06.390,-8.67
06.406,-15.32
06.421,-21.2
06.437,-25.92
06.453,-29.49
06.468,-32.49
06.484,-35.75
06.500,-40.24
06.515,-46.62
06.531,-55.07
06.546,-64.99
06.562,-75.05
06.578,-83.31
06.593,-87.7
06.609,-86.58
06.625,-79.23
06.640,-66.14
06.656,-48.9
06.671,-29.74
06.687,-10.92
06.703,5.77
06.718,19.3
06.734,29.42
06.750,36.51
06.765,41.28
06.781,44.56
06.796,47.09
06.812,49.45
06.828,52.01
06.843,54.91
06.859,58.03
06.875,60.98
06.890,63.18
06.906,63.97
06.921,62.85
06.937,59.66
06.953,54.74
06.968,48.9
06.984,43.12
07.000,38.24
07.015,34.62
07.031,32.0
07.046,29.7
07.062,26.82
07.078,22.64
07.093,16.87
07.109,9.6
07.125,1.11
07.140,-8.32
07.156,-18.52
07.171,-29.3
07.187,-40.32
07.203,-51.01
07.218,-60.69
07.234,-68.82
07.250,-75.2
07.265,-79.91
07.281,-83.02
07.296,-84.43
07.312,-83.71
07.328,-80.32
07.343,-73.96
07.359,-64.76
07.375,-53.32
07.390,-40.43
07.406,-26.78
07.421,-12.77
07.437,1.3
07.453,15.04
07.468,27.74
07.484,38.46
07.500,46.23
07.515,50.43
07.531,50.98
07.546,48.44
07.562,43.8
07.578,38.27
07.593,32.93
07.609,28.61
07.625,25.77
07.640,24.48
07.656,24.55
07.671,25.58
07.687,27.1
07.703,28.53
07.718,29.32
07.734,28.9
07.750,26.79
07.765,22.7
07.781,16.67
07.796,9.12
07.812,0.85
07.828,-7.17
07.843,-14.13
07.859,-19.58
07.875,-23.64
07.890,-26.96
07.906,-30.49
07.921,-35.22
07.937,-41.88
07.953,-50.67
07.968,-61.19
07.984,-72.39
08.000,-82.71
08.015,-90.38
08.031,-93.7
08.046,-91.47
08.062,-83.36
08.078,-69.9
08.093,-52.49
08.109,-32.95
08.125,-13.2
08.140,5.17
08.156,21.07
08.171,33.92
08.187,43.61
08.203,50.36
08.218,54.74
08.234,57.56
08.250,59.75
08.265,62.11
08.281,65.14
08.296,68.78
08.312,72.52
08.328,75.57
08.343,77.15
08.359,76.72
08.375,74.19
08.390,69.84
08.406,64.2
08.421,57.84
08.437,51.12
08.453,44.13
08.468,36.79
08.484,28.87
08.500,20.33
08.515,11.28
08.531,2.05
08.546,-6.97
08.562,-15.57
08.578,-23.7
08.593,-31.45
08.609,-38.89
08.625,-45.98
08.640,-52.64
08.656,-58.78
08.671,-64.36
08.687,-69.23
08.703,-72.96
08.718,-74.75
08.734,-73.57
08.750,-68.48
08.765,-59.11
08.781,-45.95
08.796,-30.35
08.812,-14.08
08.828,1.2
08.843,14.45
08.859,25.34
08.875,34.07
08.890,41.05
08.906,46.49
08.921,50.32
08.937,52.34
08.953,52.42
08.968,50.71
08.984,47.66
09.000,43.84
09.015,39.79
09.031,35.88
09.046,32.33
09.062,29.3
09.078,26.93
09.093,25.38
09.109,24.67
09.125,24.58
09.140,24.56
09.156,23.86
09.171,21.67
09.187,17.44
09.203,11.1
09.218,3.14
09.234,-5.49
09.250,-13.69
09.265,-20.6
09.281,-25.86
09.296,-29.69
09.312,-32.81
09.328,-36.18
09.343,-40.67
09.359,-46.86
09.375,-54.79
09.390,-63.84
09.406,-72.8
09.421,-79.89
09.437,-83.22
09.453,-81.23
09.468,-73.24
09.484,-59.76
09.500,-42.43
09.515,-23.52
09.531,-5.25
09.546,10.73
09.562,23.62
09.578,33.26
09.593,39.9
09.609,43.84
09.625,45.41
09.640,45.01
09.656,43.29
09.671,41.17
09.687,39.57
09.703,39.16
09.718,40.02
09.734,41.63
09.750,43.08
09.765,43.49
09.781,42.27
09.796,39.4
09.812,35.31
09.828,30.68
09.843,26.16
09.859,22.11
09.875,18.56
09.890,15.19
09.906,11.63
09.921,7.54
09.937,2.81
09.953,-2.47
09.968,-8.11
09.984,-13.93
10.000,-19.95
10.015,-26.41
10.031,-33.69
10.046,-42.15
10.062,-51.86
10.078,-62.45
10.093,-72.98
10.109,-82.09
10.125,-88.16
10.140,-89.79
10.156,-86.24
10.171,-77.68
10.187,-65.36
10.203,-51.16
10.218,-37.23
10.234,-25.23
10.250,-15.9
10.265,-8.9
10.281,-3.11
10.296,2.79
10.312,9.71
10.328,17.71
10.343,26.07
10.359,33.64
10.375,39.41
10.390,42.88
10.406,44.16
10.421,43.83
10.437,42.49
10.453,40.68
10.468,38.75
10.484,37.0
10.500,35.77
10.515,35.39
10.531,36.03
10.546,37.53
10.562,39.33
10.578,40.62
10.593,40.54
10.609,38.39
10.625,33.79
10.640,26.73
10.656,17.63
10.671,7.33
10.687,-3.07
10.703,-12.44
10.718,-20.03
10.734,-25.67
10.750,-29.9
10.765,-33.75
10.781,-38.36
10.796,-44.59
10.812,-52.78
10.828,-62.71
10.843,-73.45
10.859,-83.63
10.875,-91.39
10.890,-94.73
10.906,-92.08
10.921,-82.8
10.937,-67.55
10.953,-48.26
10.968,-27.54
10.984,-7.88
11.000,8.9
11.015,22.04
11.031,31.58
11.046,37.97
11.062,41.74
11.078,43.4
11.093,43.46
11.109,42.58
11.125,41.6
11.140,41.24
11.156,41.94
11.171,43.65
11.187,45.81
11.203,47.62
11.218,48.29
11.234,47.35
11.250,44.77
11.265,40.99
11.281,36.68
11.296,32.5
11.312,28.93
11.328,26.06
11.343,23.67
11.359,21.34
11.375,18.62
11.390,15.22
11.406,11.03
11.421,6.13
11.437,0.65
11.453,-5.34
11.468,-11.83
11.484,-18.81
11.500,-26.26
11.515,-34.04
11.531,-41.97
11.546,-49.77
11.562,-57.06
11.578,-63.22
11.593,-67.41
11.609,-68.72
11.625,-66.35
11.640,-59.91
11.656,-49.7
11.671,-36.59
11.687,-21.87
11.703,-6.83
11.718,7.56
11.734,20.78
11.750,32.59
11.765,42.84
11.781,51.23
11.796,57.31
11.812,60.73
11.828,61.41
11.843,59.74
11.859,56.49
11.875,52.63
11.890,49.04
11.906,46.3
11.921,44.61
11.937,43.81
11.953,43.56
11.968,43.51
11.984,43.36
12.000,42.87
12.015,41.86
12.031,40.15
12.046,37.5
12.062,33.64
12.078,28.41
12.093,21.85
12.109,14.3
12.125,6.42
12.140,-1.0
12.156,-7.34
12.171,-12.36
12.187,-16.26
12.203,-19.69
12.218,-23.5
12.234,-28.46
12.250,-35.09
12.265,-43.5
12.281,-53.32
12.296,-63.6
12.312,-72.86
12.328,-79.22
12.343,-80.86
12.359,-76.54
12.375,-66.08
12.390,-50.55
12.406,-31.98
12.421,-12.76
12.437,5.03
12.453,20.06
12.468,31.93
12.484,40.81
12.500,47.16
12.515,51.42
12.531,53.9
12.546,54.93
12.562,54.95
12.578,54.46
12.593,53.96
12.609,53.72
12.625,53.72
12.640,53.61
12.656,52.93
12.671,51.28
12.687,48.5
12.703,44.81
12.718,40.61
12.734,36.4
12.750,32.65
12.765,29.59
12.781,27.15
12.796,24.97
12.812,22.53
12.828,19.22
12.843,14.64
12.859,8.6
12.875,1.22
12.890,-7.14
12.906,-15.96
12.921,-24.65
12.937,-32.68
12.953,-39.69
12.968,-45.6
12.984,-50.72
13.000,-55.67
13.015,-61.2
13.031,-67.84
13.046,-75.57
13.062,-83.64
13.078,-90.6
13.093,-94.63
13.109,-94.19
13.125,-88.42
13.140,-77.44
13.156,-62.35
13.171,-44.9
13.187,-26.97
13.203,-10.13
13.218,4.62
13.234,16.9
13.250,26.7
13.265,34.11
13.281,39.24
13.296,42.15
13.312,42.99
13.328,42.23
13.343,40.65
13.359,39.17
13.375,38.55
13.390,39.11
13.406,40.6
13.421,42.36
13.437,43.58
13.453,43.65
13.468,42.33
13.484,39.77
13.500,36.29
13.515,32.23
13.531,27.87
13.546,23.39
13.562,18.92
13.578,14.59
13.593,10.42
13.609,6.33
13.625,2.12
13.640,-2.44
13.656,-7.52
13.671,-13.14
13.687,-19.19
13.703,-25.56
13.718,-32.18
13.734,-39.06
13.750,-46.25
13.765,-53.67
13.781,-61.03
13.796,-67.77
13.812,-73.08
13.828,-76.07
13.843,-75.89
13.859,-72.0
13.875,-64.34
13.890,-53.43
13.906,-40.25
13.921,-26.02
13.937,-11.89
13.953,1.38
13.968,13.43
13.984,24.17
14.000,33.56
14.015,41.38
14.031,47.26
14.046,50.84
14.062,52.01
14.078,51.05
14.093,48.65
14.109,45.63
14.125,42.72
14.140,40.41
14.156,38.79
14.171,37.72
14.187,37.02
14.203,36.48
14.218,36.01
14.234,35.51
14.250,34.79
14.265,33.55
14.281,31.49
14.296,28.3
14.312,23.84
14.328,18.17
14.343,11.59
14.359,4.63
14.375,-2.07
14.390,-7.96
14.406,-12.73
14.421,-16.38
14.437,-19.29
14.453,-22.1
14.468,-25.57
14.484,-30.41
14.500,-37.03
14.515,-45.36
14.531,-54.68
14.546,-63.65
14.562,-70.48
14.578,-73.32
14.593,-70.88
14.609,-62.82
14.625,-49.9
14.640,-33.76
14.656,-16.45
14.671,0.16
14.687,14.79
14.703,26.78
14.718,36.0
14.734,42.67
14.750,47.09
14.765,49.61
14.781,50.67
14.796,50.76
14.812,50.42
14.828,50.12
14.843,50.1
14.859,50.31
14.875,50.41
14.890,49.93
14.906,48.43
14.921,45.74
14.937,42.01
14.953,37.69
14.968,33.35
14.984,29.44
15.000,26.18
15.015,23.48
15.031,21.01
15.046,18.36
15.062,15.15
15.078,11.14
15.093,6.25
15.109,0.46
15.125,-6.1
15.140,-13.24
15.156,-20.62
15.171,-27.84
15.187,-34.52
15.203,-40.47
15.218,-45.79
15.234,-50.9
15.250,-56.4
15.265,-62.75
15.281,-69.95
15.296,-77.39
15.312,-83.81
15.328,-87.63
15.343,-87.43
15.359,-82.39
15.375,-72.5
15.390,-58.64
15.406,-42.19
15.421,-24.74
15.437,-7.72
15.453,7.88
15.468,21.4
15.484,32.51
15.500,41.05
15.515,46.97
15.531,50.33
15.546,51.35
15.562,50.46
15.578,48.33
15.593,45.8
15.609,43.6
15.625,42.28
15.640,41.93
15.656,42.24
15.671,42.69
15.687,42.75
15.703,42.08
15.718,40.55
15.734,38.21
15.750,35.13
15.765,31.49
15.781,27.44
15.796,23.19
15.812,18.89
15.828,14.63
15.843,10.3
15.859,5.68
15.875,0.56
15.890,-5.2
15.906,-11.48
15.921,-18.12
15.937,-24.89
15.953,-31.68
15.968,-38.53
15.984,-45.52
16.000,-52.67
16.015,-59.94
16.031,-67.19
16.046,-74.1
16.062,-80.15
16.078,-84.52
16.093,-86.21
16.109,-84.27
16.125,-78.2
16.140,-68.17
16.156,-55.07
16.171,-40.26
16.187,-25.11
16.203,-10.66
16.218,2.53
16.234,14.31
16.250,24.57
16.265,33.13
16.281,39.63
16.296,43.76
16.312,45.44
16.328,44.99
16.343,43.04
16.359,40.43
16.375,37.96
16.390,36.15
16.406,35.19
16.421,34.89
16.437,34.85
16.453,34.62
16.468,33.92
16.484,32.65
16.500,30.82
16.515,28.54
16.531,25.78
16.546,22.44
16.562,18.36
16.578,13.45
16.593,7.78
16.609,1.67
16.625,-4.5
16.640,-10.32
16.656,-15.47
16.671,-19.84
16.687,-23.53
16.703,-26.86
16.718,-30.4
16.734,-34.77
16.750,-40.5
16.765,-47.83
16.781,-56.48
16.796,-65.55
16.812,-73.6
16.828,-78.93
16.843,-80.02
16.859,-75.98
16.875,-66.79
16.890,-53.4
16.906,-37.44
16.921,-20.81
16.937,-5.21
16.953,8.18
16.968,18.87
16.984,26.91
17.000,32.68
17.015,36.66
17.031,39.25
17.046,40.79
17.062,41.58
17.078,41.94
17.093,42.16
17.109,42.46
17.125,42.87
17.140,43.17
17.156,43.01
17.171,42.04
17.187,40.19
17.203,37.75
17.218,35.24
17.234,33.2
17.250,31.93
17.265,31.29
17.281,30.7
17.296,29.47
17.312,26.93
17.328,22.8
17.343,17.16
17.359,10.37
17.375,3.0
17.390,-4.43
17.406,-11.53
17.421,-18.1
17.437,-24.19
17.453,-30.05
17.468,-36.07
17.484,-42.6
17.500,-49.84
17.515,-57.58
17.531,-65.2
17.546,-71.62
17.562,-75.57
17.578,-75.82
17.593,-71.61
17.609,-62.87
17.625,-50.29
17.640,-35.21
17.656,-19.22
17.671,-3.84
17.687,9.81
17.703,21.05
17.718,29.56
17.734,35.21
17.750,37.97
17.765,38.02
17.781,35.78
17.796,32.07
17.812,27.87
17.828,24.13
17.843,21.37
17.859,19.53
17.875,18.0
17.890,15.96
17.906,12.7
17.921,7.92
17.937,1.67
17.953,-5.75
17.968,-14.08
17.984,-23.2
18.000,-33.09
18.015,-43.69
18.031,-54.71
18.046,-65.72
18.062,-76.27
18.078,-86.18
18.093,-95.69
18.109,-105.26
18.125,-115.47
18.140,-126.68
18.156,-139.04
18.171,-152.57
18.187,-167.31
18.203,-183.43
18.218,-200.95
18.234,-219.53
18.250,-238.05
18.265,-254.6
18.281,-266.76
18.296,-272.25
18.312,-269.61
18.328,-258.65
18.343,-240.4
18.359,-216.53
18.375,-188.64
18.390,-157.58
18.406,-123.34
18.421,-85.27
18.437,-42.75
18.453,4.54
18.468,56.45
18.484,112.56
18.500,172.14
18.515,233.69
18.531,294.47
18.546,350.21
18.562,395.86
18.578,427.08
18.593,441.78
18.609,440.9
18.625,427.94
18.640,407.45
18.656,383.32
18.671,357.77
18.687,331.45
18.703,304.14
18.718,275.63
18.734,246.29
18.750,217.19
18.765,189.94
18.781,166.25
18.796,147.33
18.812,133.5
18.828,123.77
18.843,116.04
18.859,107.66
18.875,96.42
18.890,81.12
18.906,61.76
18.921,39.2
18.937,14.59
18.953,-10.64
18.968,-34.71
18.984,-55.29
19.000,-69.72
19.015,-75.93
19.031,-73.45
19.046,-64.03
19.062,-51.12
19.078,-38.5
19.093,-28.53
19.109,-21.3
19.125,-14.9
19.140,-6.7
19.156,4.91
19.171,19.33
19.187,33.84
19.203,44.68
19.218,48.52
19.234,43.71
19.250,30.65
19.265,11.5
19.281,-10.67
19.296,-32.71
19.312,-52.14
19.328,-67.39
19.343,-77.83
19.359,-83.53
19.375,-84.78
19.390,-81.76
19.406,-74.42
19.421,-62.85
19.437,-48.0
19.453,-32.16
19.468,-18.73
19.484,-11.4
19.500,-12.65
19.515,-22.74
19.531,-39.45
19.546,-58.96
19.562,-77.34
19.578,-91.84
19.593,-101.58
19.609,-107.13
19.625,-109.75
19.640,-110.59
19.656,-110.32
19.671,-109.43
19.687,-108.45
19.703,-108.07
19.718,-108.69
19.734,-109.89
19.750,-109.96
19.765,-106.38
19.781,-96.76
19.796,-80.12
19.812,-57.8
19.828,-33.17
19.843,-10.57
19.859,6.34
19.875,15.79
19.890,18.24
19.906,15.69
19.921,10.56
19.937,4.73
19.953,-0.86
19.968,-5.84
19.984,-10.01
20.000,-13.03
20.015,-14.5
20.031,-14.28
20.046,-12.6
20.062,-10.07
20.078,-7.38
20.093,-4.96
20.109,-2.87
20.125,-0.84
20.140,1.48
20.156,4.26
20.171,7.32
20.187,10.18
20.203,12.14
20.218,12.67
20.234,11.65
20.250,9.51
20.265,7.11
20.281,5.47
20.296,5.19
20.312,6.17
20.328,7.53
20.343,8.01
20.359,6.42
20.375,2.22
20.390,-4.36
20.406,-12.24
20.421,-19.74
20.437,-24.85
20.453,-25.75
20.468,-21.26
20.484,-11.39
20.500,2.52
20.515,18.09
20.531,32.66
20.546,44.24
20.562,52.11
20.578,56.92
20.593,60.01
20.609,62.77
20.625,65.88
20.640,69.29
20.656,72.51
20.671,75.13
20.687,77.17
20.703,79.19
20.718,81.8
20.734,85.34
20.750,89.53
20.765,93.38
20.781,95.52
20.796,94.63
20.812,89.96
20.828,81.57
20.843,70.27
20.859,57.32
20.875,43.92
20.890,30.97
20.906,18.89
20.921,7.79
20.937,-2.37
20.953,-11.64
20.968,-20.05
20.984,-27.66
21.000,-34.6
21.015,-41.07
21.031,-47.27
21.046,-53.43
21.062,-59.72
21.078,-66.32
21.093,-73.48
21.109,-81.38
21.125,-90.12
21.140,-99.47
21.156,-108.69
21.171,-116.45
21.187,-121.01
21.203,-120.64
21.218,-114.17
21.234,-101.51
21.250,-83.87
21.265,-63.42
21.281,-42.61
21.296,-23.4
21.312,-6.74
21.328,7.46
21.343,19.79
21.359,30.75
21.375,40.25
21.390,47.78
21.406,52.75
21.421,54.93
21.437,54.69
21.453,53.03
21.468,51.34
21.484,51.1
21.500,53.55
21.515,59.14
21.531,67.13
21.546,75.45
21.562,81.04
21.578,80.75
21.593,72.54
21.609,56.44
21.625,34.62
21.640,10.64
21.656,-11.94
21.671,-30.87
21.687,-45.61
21.703,-56.93
21.718,-65.93
21.734,-73.25
21.750,-78.76
21.765,-81.94
21.781,-82.43
21.796,-80.56
21.812,-77.32
21.828,-73.96
21.843,-71.45
21.859,-70.16
21.875,-69.86
21.890,-69.97
21.906,-69.76
21.921,-68.38
21.937,-64.72
21.953,-57.44
21.968,-45.19
21.984,-27.23
22.000,-3.95
22.015,22.66
22.031,49.34
22.046,72.4
22.062,88.8
22.078,97.13
22.093,97.77
22.109,92.55
22.125,83.83
22.140,73.87
22.156,64.31
22.171,56.32
22.187,50.77
22.203,48.32
22.218,49.36
22.234,53.58
22.250,59.82
22.265,66.1
22.281,70.29
22.296,70.81
22.312,67.38
22.328,61.04
22.343,53.73
22.359,47.49
22.375,43.56
22.390,42.13
22.406,42.47
22.421,43.51
22.437,44.55
22.453,45.66
22.468,47.59
22.484,51.33
22.500,57.6
22.515,66.4
22.531,76.94
22.546,87.89
22.562,97.73
22.578,105.14
22.593,109.32
22.609,110.1
22.625,107.88
22.640,103.58
22.656,98.49
22.671,93.97
22.687,91.28
22.703,91.11
22.718,93.3
22.734,96.68
22.750,99.22
22.765,98.67
22.781,93.32
22.796,82.66
22.812,67.51
22.828,49.64
22.843,30.88
22.859,12.61
22.875,-4.46
22.890,-19.94
22.906,-33.16
22.921,-43.1
22.937,-48.8
22.953,-50.06
22.968,-48.02
22.984,-44.99
23.000,-43.49
23.015,-45.18
23.031,-50.17
23.046,-57.11
23.062,-64.13
23.078,-70.05
23.093,-74.99
23.109,-80.26
23.125,-87.5
23.140,-97.67
23.156,-110.55
23.171,-125.12
23.187,-140.27
23.203,-155.83
23.218,-172.79
23.234,-192.78
23.250,-216.97
23.265,-245.12
23.281,-275.31
23.296,-304.51
23.312,-329.83
23.328,-349.34
23.343,-362.53
23.359,-369.75
23.375,-371.48
23.390,-367.69
23.406,-357.99
23.421,-342.06
23.437,-320.23
23.453,-293.63
23.468,-263.66
23.484,-231.32
23.500,-196.81
23.515,-160.0
23.531,-121.31
23.546,-82.41
23.562,-45.97
23.578,-14.77
23.593,9.81
23.609,28.5
23.625,43.68
23.640,58.07
23.656,73.18
23.671,88.65
23.687,102.6
23.703,112.99
23.718,118.72
23.734,120.1
23.750,118.45
23.765,115.21
23.781,111.27
23.796,106.86
23.812,101.93
23.828,96.53
23.843,91.1
23.859,86.34
23.875,83.01
23.890,81.59
23.906,82.08
23.921,83.89
23.937,86.02
23.953,87.39
23.968,87.29
23.984,85.57
24.000,82.72
24.015,79.47
24.031,76.43
24.046,73.71
24.062,70.91
24.078,67.37
24.093,62.5
24.109,55.92
24.125,47.6
24.140,37.71
24.156,26.6
24.171,14.82
24.187,3.22
24.203,-7.02
24.218,-14.58
24.234,-18.35
24.250,-17.77
24.265,-13.07
24.281,-5.17
24.296,4.6
24.312,14.87
24.328,24.52
24.343,32.81
24.359,39.37
24.375,44.16
24.390,47.31
24.406,49.07
24.421,49.72
24.437,49.55
24.453,48.82
24.468,47.81
24.484,46.8
24.500,46.0
24.515,45.46
24.531,44.97
24.546,44.17
24.562,42.59
24.578,39.98
24.593,36.43
24.609,32.32
24.625,28.19
24.640,24.43
24.656,21.07
24.671,17.81
24.687,14.17
24.703,9.8
24.718,4.64
24.734,-1.05
24.750,-6.77
24.765,-12.01
24.781,-16.47
24.796,-20.25
24.812,-23.74
24.828,-27.48
24.843,-31.98
24.859,-37.55
24.875,-44.12
24.890,-51.23
24.906,-58.0
24.921,-63.18
24.937,-65.45
24.953,-63.6
24.968,-57.01
24.984,-45.77
25.000,-30.75
25.015,-13.42
25.031,4.52
25.046,21.56
25.062,36.69
25.078,49.31
25.093,59.18
25.109,66.19
25.125,70.36
25.140,71.87
25.156,71.17
25.171,69.01
25.187,66.31
25.203,63.88
25.218,62.24
25.234,61.41
25.250,61.02
25.265,60.44
25.281,59.26
25.296,57.27
25.312,54.61
25.328,51.54
25.343,48.29
25.359,44.9
25.375,41.2
25.390,36.93
25.406,31.78
25.421,25.7
25.437,18.77
25.453,11.37
25.468,3.89
25.484,-3.29
25.500,-9.96
25.515,-16.16
25.531,-22.1
25.546,-28.18
25.562,-34.77
25.578,-42.12
25.593,-50.11
25.609,-58.14
25.625,-65.09
25.640,-69.51
25.656,-69.95
25.671,-65.44
25.687,-55.85
25.703,-41.99
25.718,-25.4
25.734,-7.89
25.750,8.99
25.765,24.21
25.781,37.34
25.796,48.32
25.812,57.17
25.828,63.82
25.843,68.21
25.859,70.38
25.875,70.63
25.890,69.54
25.906,67.77
25.921,65.94
25.937,64.34
25.953,63.04
25.968,61.84
25.984,60.53
26.000,58.94
26.015,57.07
26.031,55.03
26.046,52.93
26.062,50.82
26.078,48.58
26.093,45.92
26.109,42.47
26.125,37.94
26.140,32.24
26.156,25.55
26.171,18.31
26.187,11.03
26.203,4.11
26.218,-2.29
26.234,-8.35
26.250,-14.47
26.265,-21.17
26.281,-28.88
26.296,-37.81
26.312,-47.84
26.328,-58.44
26.343,-68.61
26.359,-76.98
26.375,-82.05
26.390,-82.44
26.406,-77.44
26.421,-67.18
26.437,-52.74
26.453,-35.86
26.468,-18.5
26.484,-2.32
26.500,11.67
26.515,23.1
26.531,32.18
26.546,39.28
26.562,44.72
26.578,48.62
26.593,51.04
26.609,52.05
26.625,51.93
26.640,51.17
26.656,50.29
26.671,49.67
26.687,49.43
26.703,49.32
26.718,48.91
26.734,47.85
26.750,46.06
26.765,43.75
26.781,41.27
26.796,38.89
26.812,36.62
26.828,34.21
26.843,31.28
26.859,27.54
26.875,22.82
26.890,17.25
26.906,11.1
26.921,4.7
26.937,-1.62
26.953,-7.64
26.968,-13.2
26.984,-18.3
27.000,-23.04
27.015,-27.67
27.031,-32.55
27.046,-38.13
27.062,-44.79
27.078,-52.71
27.093,-61.61
27.109,-70.54
27.125,-77.97
27.140,-82.06
27.156,-81.18
27.171,-74.55
27.187,-62.54
27.203,-46.61
27.218,-28.88
27.234,-11.46
27.250,4.09
27.265,17.04
27.281,27.38
27.296,35.49
27.312,41.74
27.328,46.37
27.343,49.43
27.359,51.0
27.375,51.29
27.390,50.71
27.406,49.8
27.421,49.02
27.437,48.61
27.453,48.52
27.468,48.47
27.484,48.16
27.500,47.44
27.515,46.31
27.531,44.99
27.546,43.72
27.562,42.56
27.578,41.42
27.593,40.04
27.609,38.13
27.625,35.49
27.640,32.11
27.656,28.08
27.671,23.6
27.687,18.85
27.703,13.95
27.718,9.03
27.734,4.2
27.750,-0.38
27.765,-4.56
27.781,-8.37
27.796,-12.13
27.812,-16.51
27.828,-22.33
27.843,-30.19
27.859,-39.98
27.875,-50.65
27.890,-60.37
27.906,-67.05
27.921,-69.09
27.937,-65.95
27.953,-58.25
27.968,-47.49
27.984,-35.39
28.000,-23.36
28.015,-12.31
28.031,-2.65
28.046,5.38
28.062,11.63
28.078,15.97
28.093,18.43
28.109,19.37
28.125,19.39
28.140,19.28
28.156,19.76
28.171,21.26
28.187,23.84
28.203,27.16
28.218,30.68
28.234,33.89
28.250,36.47
28.265,38.45
28.281,40.14
28.296,42.01
28.312,44.44
28.328,47.5
28.343,50.9
28.359,54.12
28.375,56.65
28.390,58.3
28.406,59.29
28.421,60.24
28.437,61.84
28.453,64.53
28.468,68.24
28.484,72.32
28.500,75.76
28.515,77.5
28.531,76.7
28.546,72.96
28.562,66.4
28.578,57.66
28.593,47.91
28.609,38.63
28.625,31.34
28.640,27.02
28.656,25.8
28.671,26.81
28.687,28.46
28.703,29.07
28.718,27.6
28.734,24.04
28.750,19.35
28.765,14.99
28.781,12.22
28.796,11.56
28.812,12.65
28.828,14.38
28.843,15.38
28.859,14.4
28.875,10.64
28.890,3.88
28.906,-5.59
28.921,-17.06
28.937,-29.56
28.953,-41.99
28.968,-53.37
28.984,-62.97
29.000,-70.5
29.015,-76.07
29.031,-80.19
29.046,-83.52
29.062,-86.72
29.078,-90.21
29.093,-94.22
29.109,-98.77
29.125,-103.76
29.140,-109.02
29.156,-114.19
29.171,-118.81
29.187,-122.34
29.203,-124.46
29.218,-125.17
29.234,-124.93
29.250,-124.47
29.265,-124.58
29.281,-125.91
29.296,-128.74
29.312,-132.92
29.328,-137.83
29.343,-142.39
29.359,-145.09
29.375,-144.3
29.390,-138.65
29.406,-127.47
29.421,-111.16
29.437,-91.07
29.453,-69.13
29.468,-47.32
29.484,-27.14
29.500,-9.54
29.515,5.13
29.531,16.77
29.546,25.41
29.562,31.18
29.578,34.41
29.593,35.65
29.609,35.69
29.625,35.34
29.640,35.26
29.656,35.69
29.671,36.53
29.687,37.37
29.703,37.7
29.718,37.14
29.734,35.59
29.750,33.19
29.765,30.31
29.781,27.35
29.796,24.64
29.812,22.39
29.828,20.53
29.843,18.77
29.859,16.62
29.875,13.59
29.890,9.37
29.906,3.92
29.921,-2.43
29.937,-9.26
29.953,-16.09
29.968,-22.64
29.984,-28.84
30.000,-34.74
30.015,-40.55
30.031,-46.48
30.046,-52.77
30.062,-59.55
30.078,-66.66
30.093,-73.5
30.109,-78.96
30.125,-81.7
30.140,-80.44
30.156,-74.5
30.171,-64.01
30.187,-49.93
30.203,-33.71
30.218,-16.95
30.234,-1.05
30.250,13.02
30.265,24.71
30.281,33.75
30.296,40.03
30.312,43.59
30.328,44.55
30.343,43.29
30.359,40.45
30.375,36.93
30.390,33.65
30.406,31.36
30.421,30.33
30.437,30.32
30.453,30.73
30.468,30.87
30.484,30.34
30.500,29.06
30.515,27.21
30.531,25.01
30.546,22.53
30.562,19.59
30.578,15.93
30.593,11.37
30.609,5.99
30.625,0.15
30.640,-5.62
30.656,-10.86
30.671,-15.27
30.687,-18.94
30.703,-22.23
30.718,-25.7
30.734,-29.9
30.750,-35.22
30.765,-41.81
30.781,-49.49
30.796,-57.75
30.812,-65.58
30.828,-71.63
30.843,-74.41
30.859,-72.7
30.875,-65.98
30.890,-54.73
30.906,-40.26
30.921,-24.38
30.937,-8.87
30.953,4.99
30.968,16.51
30.984,25.47
31.000,31.95
31.015,36.15
31.031,38.38
31.046,39.07
31.062,38.76
31.078,38.05
31.093,37.38
31.109,36.96
31.125,36.75
31.140,36.56
31.156,36.06
31.171,34.93
31.187,32.96
31.203,30.15
31.218,26.78
31.234,23.32
31.250,20.26
31.265,17.9
31.281,16.19
31.296,14.65
31.312,12.56
31.328,9.34
31.343,4.66
31.359,-1.29
31.375,-8.06
31.390,-15.03
31.406,-21.69
31.421,-27.76
31.437,-33.21
31.453,-38.27
31.468,-43.27
31.484,-48.63
31.500,-54.58
31.515,-61.12
31.531,-67.72
31.546,-73.38
31.562,-76.76
31.578,-76.5
31.593,-71.73
31.609,-62.32
31.625,-49.02
31.640,-33.25
31.656,-16.71
31.671,-0.83
31.687,13.44
31.703,25.65
31.718,35.73
31.734,43.63
31.750,49.29
31.765,52.62
31.781,53.72
31.796,53.04
31.812,51.32
31.828,49.51
31.843,48.35
31.859,48.26
31.875,49.1
31.890,50.41
31.906,51.53
31.921,51.93
31.937,51.36
31.953,49.85
31.968,47.62
31.984,44.88
32.000,41.73
32.015,38.06
32.031,33.74
32.046,28.66
32.062,22.91
32.078,16.83
32.093,10.86
32.109,5.4
32.125,0.64
32.140,-3.57
32.156,-7.65
32.171,-12.15
32.187,-17.6
32.203,-24.36
32.218,-32.51
32.234,-41.75
32.250,-51.33
32.265,-60.04
32.281,-66.36
32.296,-68.73
32.312,-66.02
32.328,-57.98
32.343,-45.41
32.359,-30.03
32.375,-13.96
32.390,0.9
32.406,13.38
32.421,23.21
32.437,30.82
32.453,36.86
32.468,41.88
32.484,46.08
32.500,49.41
32.515,51.75
32.531,53.06
32.546,53.53
32.562,53.41
32.578,52.9
32.593,52.01
32.609,50.59
32.625,48.45
32.640,45.54
32.656,42.03
32.671,38.34
32.687,35.0
32.703,32.4
32.718,30.59
32.734,29.2
32.750,27.59
32.765,25.0
32.781,20.88
32.796,15.08
32.812,7.92
32.828,0.07
32.843,-7.77
32.859,-14.97
32.875,-21.16
32.890,-26.29
32.906,-30.56
32.921,-34.36
32.937,-38.21
32.953,-42.65
32.968,-48.1
32.984,-54.61
33.000,-61.63
33.015,-67.97
33.031,-71.99
33.046,-72.12
33.062,-67.37
33.078,-57.7
33.093,-44.09
33.109,-28.12
33.125,-11.55
33.140,4.21
33.156,18.27
33.171,30.2
33.187,39.84
33.203,47.05
33.218,51.77
33.234,54.06
33.250,54.28
33.265,53.08
33.281,51.33
33.296,49.88
33.312,49.34
33.328,49.94
33.343,51.42
33.359,53.26
33.375,54.83
33.390,55.65
33.406,55.59
33.421,54.81
33.437,53.64
33.453,52.42
33.468,51.25
33.484,50.08
33.500,48.76
33.515,47.3
33.531,45.84
33.546,44.63
33.562,43.79
33.578,43.22
33.593,42.59
33.609,41.51
33.625,39.75
33.640,37.35
33.656,34.58
33.671,31.8
33.687,29.31
33.703,27.28
33.718,25.74
33.734,24.62
33.750,23.77
33.765,22.94
33.781,21.89
33.796,20.41
33.812,18.44
33.828,16.11
33.843,13.66
33.859,11.32
33.875,9.25
33.890,7.46
33.906,5.92
33.921,4.67
33.937,3.83
33.953,3.57
33.968,3.99
33.984,5.04
34.000,6.46
34.015,7.91
34.031,8.96
34.046,9.27
34.062,8.58
34.078,6.82
34.093,4.21
34.109,1.37
34.125,-0.81
34.140,-1.43
34.156,0.08
34.171,3.77
34.187,9.24
34.203,15.94
34.218,23.65
34.234,32.72
34.250,43.95
34.265,58.02
34.281,74.75
34.296,92.74
34.312,109.47
34.328,122.03
34.343,127.96
34.359,125.97
34.375,116.09
34.390,99.62
34.406,78.79
34.421,56.61
34.437,36.49
34.453,21.85
34.468,15.23
34.484,17.4
34.500,26.79
34.515,39.69
34.531,51.33
34.546,57.35
34.562,55.26
34.578,44.89
34.593,28.01
34.609,7.34
34.625,-14.38
34.640,-35.05
34.656,-53.18
34.671,-67.83
34.687,-78.42
34.703,-84.76
34.718,-87.15
34.734,-86.47
34.750,-83.95
34.765,-80.84
34.781,-78.04
34.796,-75.81
34.812,-73.79
34.828,-71.25
34.843,-67.53
34.859,-62.38
34.875,-56.19
34.890,-49.86
34.906,-44.51
34.921,-41.02
34.937,-39.73
34.953,-40.54
34.968,-43.09
34.984,-47.18
35.000,-53.0
35.015,-61.05
35.031,-71.85
35.046,-85.59
35.062,-101.87
35.078,-119.63
35.093,-137.33
35.109,-153.2
35.125,-165.35
35.140,-172.1
35.156,-172.21
35.171,-165.16
35.187,-151.52
35.203,-132.94
35.218,-111.81
35.234,-90.73
35.250,-71.85
35.265,-56.41
35.281,-44.71
35.296,-36.32
35.312,-30.47
35.328,-26.4
35.343,-23.39
35.359,-20.86
35.375,-18.3
35.390,-15.34
35.406,-11.87
35.421,-8.07
35.437,-4.29
35.453,-0.94
35.468,1.77
35.484,3.86
35.500,5.57
35.515,7.21
35.531,9.01
35.546,11.01
35.562,13.03
35.578,14.79
35.593,15.99
35.609,16.4
35.625,15.91
35.640,14.55
35.656,12.43
35.671,9.69
35.687,6.38
35.703,2.51
35.718,-2.13
35.734,-7.77
35.750,-14.66
35.765,-22.88
35.781,-32.17
35.796,-41.79
35.812,-50.53
35.828,-56.97
35.843,-59.69
35.859,-57.82
35.875,-51.27
35.890,-40.82
35.906,-27.92
35.921,-14.24
35.937,-1.27
35.953,10.09
35.968,19.44
35.984,26.82
36.000,32.37
36.015,36.17
36.031,38.21
36.046,38.51
36.062,37.26
36.078,34.83
36.093,31.7
36.109,28.24
36.125,24.72
36.140,21.21
36.156,17.8
36.171,14.65
36.187,11.96
36.203,9.83
36.218,8.11
36.234,6.42
36.250,4.2
36.265,0.98
36.281,-3.4
36.296,-8.75
36.312,-14.55
36.328,-20.21
36.343,-25.29
36.359,-29.63
36.375,-33.36
36.390,-36.83
36.406,-40.52
36.421,-44.87
36.437,-50.14
36.453,-56.16
36.468,-62.27
36.484,-67.38
36.500,-70.02
36.515,-68.79
36.531,-62.8
36.546,-51.94
36.562,-37.06
36.578,-19.8
36.593,-2.01
36.609,14.58
36.625,28.7
36.640,39.73
36.656,47.49
36.671,52.05
36.687,53.68
36.703,52.75
36.718,49.78
36.734,45.53
36.750,40.87
36.765,36.59
36.781,33.2
36.796,30.82
36.812,29.18
36.828,27.88
36.843,26.51
36.859,24.82
36.875,22.7
36.890,20.13
36.906,16.96
36.921,13.04
36.937,8.18
36.953,2.39
36.968,-4.07
36.984,-10.73
37.000,-17.02
37.015,-22.52
37.031,-27.15
37.046,-31.18
37.062,-35.25
37.078,-40.14
37.093,-46.52
37.109,-54.7
37.125,-64.33
37.140,-74.29
37.156,-82.81
37.171,-87.88
37.187,-87.73
37.203,-81.41
37.218,-69.18
37.234,-52.36
37.250,-32.97
37.265,-13.16
37.281,5.32
37.296,21.37
37.312,34.46
37.328,44.54
37.343,51.77
37.359,56.46
37.375,59.1
37.390,60.31
37.406,60.81
37.421,61.25
37.437,62.08
37.453,63.44
37.468,65.17
37.484,66.9
37.500,68.19
37.515,68.6
37.531,67.82
37.546,65.82
37.562,62.72
37.578,58.89
37.593,54.69
37.609,50.34
37.625,45.75
37.640,40.58
37.656,34.48
37.671,27.23
37.687,18.95
37.703,10.06
37.718,1.13
37.734,-7.32
37.750,-15.03
37.765,-22.07
37.781,-28.71
37.796,-35.39
37.812,-42.51
37.828,-50.27
37.843,-58.52
37.859,-66.62
37.875,-73.41
37.890,-77.48
37.906,-77.53
37.921,-72.79
37.937,-63.34
37.953,-50.13
37.968,-34.59
37.984,-18.27
38.000,-2.36
38.015,12.47
38.031,26.0
38.046,38.24
38.062,49.13
38.078,58.46
38.093,65.9
38.109,71.2
38.125,74.26
38.140,75.26
38.156,74.6
38.171,72.69
38.187,69.94
38.203,66.72
38.218,63.35
38.234,60.18
38.250,57.53
38.265,55.57
38.281,54.26
38.296,53.24
38.312,51.97
38.328,49.9
38.343,46.68
38.359,42.14
38.375,36.34
38.390,29.36
38.406,21.14
38.421,11.55
38.437,0.43
38.453,-12.19
38.468,-26.0
38.484,-40.45
38.500,-54.86
38.515,-68.42
38.531,-80.39
38.546,-90.21
38.562,-97.6
38.578,-102.79
38.593,-106.57
38.609,-110.01
38.625,-114.05
38.640,-118.98
38.656,-124.07
38.671,-127.71
38.687,-128.09
38.703,-123.72
38.718,-114.12
38.734,-99.9
38.750,-82.25
38.765,-62.56
38.781,-41.9
38.796,-20.98
38.812,-0.38
38.828,19.21
38.843,36.99
38.859,52.15
38.875,64.2
38.890,73.21
38.906,79.71
38.921,84.38
38.937,87.72
38.953,89.88
38.968,90.75
38.984,90.3
39.000,88.71
39.015,86.48
39.031,84.24
39.046,82.34
39.062,80.78
39.078,79.22
39.093,77.2
39.109,74.39
39.125,70.68
39.140,66.13
39.156,60.81
39.171,54.77
39.187,47.98
39.203,40.5
39.218,32.52
39.234,24.33
39.250,16.21
39.265,8.35
39.281,0.8
39.296,-6.49
39.312,-13.64
39.328,-20.86
39.343,-28.41
39.359,-36.52
39.375,-45.31
39.390,-54.52
39.406,-63.39
39.421,-70.73
39.437,-75.1
39.453,-75.23
39.468,-70.41
39.484,-60.64
39.500,-46.66
39.515,-29.7
39.531,-11.15
39.546,7.86
39.562,26.65
39.578,45.06
39.593,63.31
39.609,81.58
39.625,99.78
39.640,117.25
39.656,132.94
39.671,145.69
39.687,154.63
39.703,159.38
39.718,159.99
39.734,156.91
39.750,150.74
39.765,142.16
39.781,131.98
39.796,121.06
39.812,110.17
39.828,99.83
39.843,90.28
39.859,81.35
39.875,72.76
39.890,64.11
39.906,55.05
39.921,45.3
39.937,34.64
39.953,23.02
39.968,10.62
39.984,-2.08
40.000,-14.48
40.015,-25.92
40.031,-35.83
40.046,-43.78
40.062,-49.57
40.078,-53.22
40.093,-55.02
40.109,-55.64
40.125,-55.93
40.140,-56.83
40.156,-58.93
40.171,-62.35
40.187,-66.6
40.203,-70.67
40.218,-73.35
40.234,-73.55
40.250,-70.63
40.265,-64.54
40.281,-55.82
40.296,-45.27
40.312,-33.64
40.328,-21.42
40.343,-8.76
40.359,4.32
40.375,17.67
40.390,30.77
40.406,42.86
40.421,53.09
40.437,60.94
40.453,66.36
40.468,69.69
40.484,71.45
40.500,71.97
40.515,71.28
40.531,69.08
40.546,65.15
40.562,59.47
40.578,52.42
40.593,44.76
40.609,37.22
40.625,30.27
40.640,23.92
40.656,17.75
40.671,11.31
40.687,4.45
40.703,-2.56
40.718,-9.05
40.734,-14.36
40.750,-18.28
40.765,-21.05
40.781,-23.4
40.796,-26.11
40.812,-29.68
40.828,-34.19
40.843,-39.33
40.859,-44.68
40.875,-49.87
40.890,-54.8
40.906,-59.56
40.921,-64.37
40.937,-69.44
40.953,-74.93
40.968,-80.83
40.984,-86.98
41.000,-92.89
41.015,-97.78
41.031,-100.63
41.046,-100.38
41.062,-96.38
41.078,-88.54
41.093,-77.55
41.109,-64.58
41.125,-51.05
41.140,-38.2
41.156,-26.76
41.171,-16.94
41.187,-8.51
41.203,-1.05
41.218,5.75
41.234,11.99
41.250,17.54
41.265,22.1
41.281,25.51
41.296,27.73
41.312,29.01
41.328,29.77
41.343,30.5
41.359,31.54
41.375,32.97
41.390,34.61
41.406,36.14
41.421,37.23
41.437,37.62
41.453,37.19
41.468,35.93
41.484,33.92
41.500,31.28
41.515,28.1
41.531,24.42
41.546,20.2
41.562,15.43
41.578,10.11
41.593,4.38
41.609,-1.53
41.625,-7.24
41.640,-12.44
41.656,-16.91
41.671,-20.66
41.687,-23.98
41.703,-27.32
41.718,-31.22
41.734,-36.09
41.750,-42.02
41.765,-48.6
41.781,-54.88
41.796,-59.46
41.812,-60.88
41.828,-58.09
41.843,-50.82
41.859,-39.73
41.875,-26.26
41.890,-12.06
41.906,1.44
41.921,13.49
41.937,23.96
41.953,33.11
41.968,41.23
41.984,48.47
42.000,54.77
42.015,60.05
42.031,64.39
42.046,68.14
42.062,71.79
42.078,75.76
42.093,80.19
42.109,84.82
42.125,89.13
42.140,92.53
42.156,94.71
42.171,95.79
42.187,96.28
42.203,96.84
42.218,97.94
42.234,99.61
42.250,101.42
42.265,102.63
42.281,102.62
42.296,101.08
42.312,98.18
42.328,94.6
42.343,91.23
42.359,88.96
42.375,88.23
42.390,88.85
42.406,89.77
42.421,89.26
42.437,85.18
42.453,75.45
42.468,58.58
42.484,34.23
42.500,3.64
42.515,-30.36
42.531,-63.75
42.546,-92.27
42.562,-112.6
42.578,-123.43
42.593,-125.95
42.609,-123.38
42.625,-119.87
42.640,-118.95
42.656,-122.49
42.671,-130.39
42.687,-141.07
42.703,-152.4
42.718,-162.49
42.734,-170.06
42.750,-174.36
42.765,-175.0
42.781,-171.78
42.796,-164.82
42.812,-154.77
42.828,-142.81
42.843,-130.48
42.859,-119.17
42.875,-109.69
42.890,-102.03
42.906,-95.48
42.921,-89.14
42.937,-82.34
42.953,-74.97
42.968,-67.4
42.984,-60.24
43.000,-53.91
43.015,-48.45
43.031,-43.5
43.046,-38.61
43.062,-33.46
43.078,-28.12
43.093,-22.97
43.109,-18.51
43.125,-15.11
43.140,-12.83
43.156,-11.46
43.171,-10.71
43.187,-10.35
43.203,-10.26
43.218,-10.45
43.234,-10.92
43.250,-11.69
43.265,-12.73
43.281,-13.94
43.296,-15.02
43.312,-15.25
43.328,-13.46
43.343,-8.26
43.359,1.49
43.375,15.97
43.390,34.19
43.406,54.19
43.421,73.75
43.437,91.32
43.453,106.39
43.468,119.34
43.484,130.61
43.500,139.86
43.515,145.68
43.531,146.01
43.546,139.27
43.562,125.25
43.578,105.44
43.593,82.54
43.609,59.44
43.625,38.42
43.640,20.65
43.656,6.46
43.671,-4.26
43.687,-11.64
43.703,-15.88
43.718,-17.36
43.734,-16.89
43.750,-15.72
43.765,-15.16
43.781,-16.3
43.796,-19.72
43.812,-25.52
43.828,-33.4
43.843,-42.91
43.859,-53.4
43.875,-64.16
43.890,-74.41
43.906,-83.4
43.921,-90.55
43.937,-95.56
43.953,-98.51
43.968,-99.74
43.984,-99.86
44.000,-99.56
44.015,-99.55
44.031,-100.37
44.046,-102.3
44.062,-105.13
44.078,-107.96
44.093,-109.41
44.109,-107.8
44.125,-101.71
44.140,-90.47
44.156,-74.39
44.171,-54.68
44.187,-33.19
44.203,-11.82
44.218,7.85
44.234,24.79
44.250,38.59
44.265,49.31
44.281,57.29
44.296,62.98
44.312,66.92
44.328,69.58
44.343,71.41
44.359,72.8
44.375,74.18
44.390,76.02
44.406,78.74
44.421,82.65
44.437,87.71
44.453,93.49
44.468,99.25
44.484,104.19
44.500,107.68
44.515,109.52
44.531,109.87
44.546,109.08
44.562,107.35
44.578,104.65
44.593,100.68
44.609,95.11
44.625,87.76
44.640,78.78
44.656,68.59
44.671,57.89
44.687,47.45
44.703,38.09
44.718,30.56
44.734,25.34
44.750,22.45
44.765,21.24
44.781,20.41
44.796,18.16
44.812,12.98
44.828,4.35
44.843,-6.68
44.859,-17.58
44.875,-25.25
44.890,-27.3
44.906,-23.35
44.921,-15.33
44.937,-6.95
44.953,-2.28
44.968,-4.26
44.984,-13.75
45.000,-29.58
45.015,-49.31
45.031,-70.3
45.046,-90.41
45.062,-108.14
45.078,-122.56
45.093,-132.94
45.109,-138.75
45.125,-139.79
45.140,-136.44
45.156,-129.78
45.171,-121.36
45.187,-112.92
45.203,-105.76
45.218,-100.43
45.234,-96.64
45.250,-93.49
45.265,-90.0
45.281,-85.55
45.296,-80.15
45.312,-74.44
45.328,-69.34
45.343,-65.68
45.359,-63.82
45.375,-63.52
45.390,-64.11
45.406,-64.8
45.421,-64.99
45.437,-64.46
45.453,-63.39
45.468,-62.27
45.484,-61.61
45.500,-61.84
45.515,-63.24
45.531,-65.86
45.546,-69.62
45.562,-74.05
45.578,-78.19
45.593,-80.5
45.609,-79.16
45.625,-72.45
45.640,-59.38
45.656,-40.15
45.671,-16.17
45.687,10.35
45.703,37.0
45.718,61.83
45.734,83.7
45.750,102.3
45.765,117.83
45.781,130.65
45.796,141.1
45.812,149.46
45.828,156.07
45.843,161.37
45.859,165.83
45.875,169.81
45.890,173.34
45.906,176.05
45.921,177.19
45.937,175.99
45.953,172.01
45.968,165.31
45.984,156.45
46.000,146.22
46.015,135.33
46.031,124.21
46.046,113.0
46.062,101.69
46.078,90.35
46.093,79.2
46.109,68.61
46.125,59.01
46.140,50.68
46.156,43.66
46.171,37.68
46.187,32.29
46.203,26.98
46.218,21.29
46.234,14.8
46.250,7.15
46.265,-1.91
46.281,-12.41
46.296,-23.92
46.312,-35.32
46.328,-44.83
46.343,-50.33
46.359,-50.08
46.375,-43.38
46.390,-30.98
46.406,-14.84
46.421,2.47
46.437,18.67
46.453,32.32
46.468,42.95
46.484,50.81
46.500,56.24
46.515,59.47
46.531,60.57
46.546,59.8
46.562,57.86
46.578,55.96
46.593,55.39
46.609,56.9
46.625,60.15
46.640,63.64
46.656,65.21
46.671,62.92
46.687,55.97
46.703,44.98
46.718,31.47
46.734,17.02
46.750,2.5
46.765,-11.99
46.781,-26.5
46.796,-40.48
46.812,-52.54
46.828,-61.0
46.843,-64.92
46.859,-65.09
46.875,-63.98
46.890,-65.01
46.906,-71.02
46.921,-83.14
46.937,-100.52
46.953,-120.94
46.968,-142.13
46.984,-162.66
47.000,-182.41
47.015,-201.9
47.031,-221.19
47.046,-238.96
47.062,-252.35
47.078,-257.87
47.093,-252.93
47.109,-237.3
47.125,-213.46
47.140,-185.73
47.156,-158.37
47.171,-133.83
47.187,-112.06
47.203,-90.99
47.218,-68.26
47.234,-42.71
47.250,-15.08
47.265,12.44
47.281,36.99
47.296,55.81
47.312,66.32
47.328,66.06
47.343,53.09
47.359,26.86
47.375,-10.74
47.390,-54.81
47.406,-98.26
47.421,-133.67
47.437,-155.52
47.453,-161.77
47.468,-153.98
47.484,-136.0
47.500,-112.17
47.515,-85.94
47.531,-59.3
47.546,-33.35
47.562,-9.05
47.578,12.08
47.593,28.06
47.609,36.85
47.625,37.06
47.640,28.29
47.656,11.02
47.671,-13.75
47.687,-44.79
47.703,-80.6
47.718,-119.14
47.734,-157.51
47.750,-192.17
47.765,-219.47
47.781,-236.54
47.796,-242.06
47.812,-236.43
47.828,-221.36
47.843,-199.09
47.859,-171.73
47.875,-140.85
47.890,-107.72
47.906,-73.43
47.921,-39.13
47.937,-6.14
47.953,24.2
47.968,50.66
47.984,72.54
48.000,89.81
48.015,103.21
48.031,114.02
48.046,123.75
48.062,133.58
48.078,144.0
48.093,154.85
48.109,165.37
48.125,174.58
48.140,181.42
48.156,185.07
48.171,185.16
48.187,182.38
48.203,178.75
48.218,177.21
48.234,180.48
48.250,189.2
48.265,200.82
48.281,209.91
48.296,210.19
48.312,197.41
48.328,171.67
48.343,137.54
48.359,101.96
48.375,71.04
48.390,47.41
48.406,29.64
48.421,13.87
48.437,-3.65
48.453,-24.5
48.468,-47.71
48.484,-70.73
48.500,-91.0
48.515,-106.98
48.531,-118.36
48.546,-125.43
48.562,-128.36
48.578,-126.83
48.593,-120.27
48.609,-108.4
48.625,-91.85
48.640,-72.18
48.656,-51.58
48.671,-32.23
48.687,-15.65
48.703,-2.29
48.718,8.35
48.734,17.3
48.750,25.53
48.765,33.5
48.781,40.97
48.796,47.28
48.812,51.77
48.828,54.15
48.843,54.8
48.859,54.51
48.875,54.22
48.890,54.51
48.906,55.43
48.921,56.43
48.937,56.73
48.953,55.63
48.968,52.79
48.984,48.38
49.000,42.88
49.015,36.88
49.031,30.78
49.046,24.69
49.062,18.36
49.078,11.46
49.093,3.7
49.109,-4.93
49.125,-14.02
49.140,-22.73
49.156,-29.77
49.171,-33.68
49.187,-33.06
49.203,-26.99
49.218,-15.41
49.234,0.8
49.250,19.94
49.265,39.97
49.281,59.02
49.296,75.79
49.312,89.68
49.328,100.58
49.343,108.64
49.359,113.98
49.375,116.68
49.390,116.88
49.406,114.95
49.421,111.43
49.437,106.98
49.453,102.14
49.468,97.24
49.484,92.4
49.500,87.63
49.515,83.04
49.531,78.74
49.546,74.9
49.562,71.5
49.578,68.25
49.593,64.64
49.609,60.12
49.625,54.4
49.640,47.49
49.656,39.82
49.671,31.96
49.687,24.45
49.703,17.53
49.718,11.19
49.734,5.14
49.750,-1.0
49.765,-7.55
49.781,-14.69
49.796,-22.28
49.812,-29.84
49.828,-36.38
49.843,-40.51
49.859,-40.82
49.875,-36.25
49.890,-26.66
49.906,-12.88
49.921,3.4
49.937,20.23
49.953,35.94
49.968,49.56
49.984,60.84
50.000,69.94
50.015,77.06
50.031,82.26
50.046,85.46
50.062,86.62
50.078,85.9
50.093,83.66
50.109,80.23
50.125,75.86
50.140,70.67
50.156,64.76
50.171,58.33
50.187,51.86
50.203,45.83
50.218,40.66
50.234,36.36
50.250,32.56
50.265,28.65
50.281,24.12
50.296,18.76
50.312,12.69
50.328,6.3
50.343,-0.04
50.359,-5.97
50.375,-11.24
50.390,-15.68
50.406,-19.17
50.421,-21.79
50.437,-23.89
50.453,-26.03
50.468,-28.75
50.484,-32.2
50.500,-35.79
50.515,-38.29
50.531,-38.15
50.546,-34.17
50.562,-26.05
50.578,-14.61
50.593,-1.56
50.609,11.04
50.625,21.39
50.640,28.36
50.656,31.66
50.671,31.79
50.687,29.78
50.703,26.93
50.718,24.43
50.734,23.1
50.750,23.09
50.765,23.93
50.781,24.71
50.796,24.51
50.812,22.8
50.828,19.66
50.843,15.79
50.859,12.2
50.875,9.83
50.890,9.21
50.906,10.27
50.921,12.35
50.937,14.33
50.953,14.98
50.968,13.21
50.984,8.45
51.000,0.81
51.015,-8.94
51.031,-19.59
51.046,-29.73
51.062,-38.19
51.078,-44.33
51.093,-48.15
51.109,-50.25
51.125,-51.5
51.140,-52.7
51.156,-54.18
51.171,-55.67
51.187,-56.4
51.203,-55.29
51.218,-51.4
51.234,-44.12
51.250,-33.29
51.265,-19.24
51.281,-2.72
51.296,15.09
51.312,32.61
51.328,48.01
51.343,59.57
51.359,66.08
51.375,67.17
51.390,63.53
51.406,56.76
51.421,48.94
51.437,42.14
51.453,37.91
51.468,36.92
51.484,38.8
51.500,42.35
51.515,45.87
51.531,47.58
51.546,46.13
51.562,40.86
51.578,31.9
51.593,20.09
51.609,6.91
51.625,-5.85
51.640,-16.38
51.656,-23.32
51.671,-26.11
51.687,-25.36
51.703,-22.68
51.718,-20.32
51.734,-20.6
51.750,-25.19
51.765,-34.65
51.781,-48.31
51.796,-64.2
51.812,-79.36
51.828,-90.49
51.843,-94.62
51.859,-90.06
51.875,-76.93
51.890,-57.27
51.906,-34.45
51.921,-12.22
51.937,6.36
51.953,19.57
51.968,27.11
51.984,29.84
52.000,29.27
52.015,27.27
52.031,25.7
52.046,26.15
52.062,29.5
52.078,35.6
52.093,43.14
52.109,49.91
52.125,53.58
52.140,52.49
52.156,46.17
52.171,35.59
52.187,22.71
52.203,9.95
52.218,-0.45
52.234,-6.92
52.250,-8.86
52.265,-6.81
52.281,-2.27
52.296,2.5
52.312,5.24
52.328,4.13
52.343,-1.59
52.359,-11.5
52.375,-24.25
52.390,-37.99
52.406,-50.87
52.421,-61.39
52.437,-68.66
52.453,-72.42
52.468,-73.11
52.484,-71.66
52.500,-69.23
52.515,-66.85
52.531,-65.07
52.546,-63.74
52.562,-62.27
52.578,-59.81
52.593,-55.65
52.609,-49.29
52.625,-40.51
52.640,-29.28
52.656,-15.83
52.671,-0.75
52.687,14.79
52.703,29.23
52.718,40.84
52.734,48.22
52.750,50.67
52.765,48.46
52.781,42.62
52.796,34.67
52.812,26.32
52.828,19.15
52.843,14.4
52.859,12.83
52.875,14.49
52.890,18.7
52.906,24.09
52.921,28.87
52.937,31.34
52.953,30.34
52.968,25.4
52.984,16.91
53.000,5.9
53.015,-6.17
53.031,-17.58
53.046,-26.73
53.062,-32.41
53.078,-34.18
53.093,-32.56
53.109,-29.06
53.125,-25.71
53.140,-24.58
53.156,-27.19
53.171,-34.07
53.187,-44.72
53.203,-57.6
53.218,-70.46
53.234,-80.61
53.250,-85.56
53.265,-83.46
53.281,-73.78
53.296,-57.59
53.312,-37.35
53.328,-16.3
53.343,2.47
53.359,16.75
53.375,25.72
53.390,29.75
53.406,30.09
53.421,28.33
53.437,25.97
53.453,24.3
53.468,24.16
53.484,25.88
53.500,29.2
53.515,33.26
53.531,36.9
53.546,38.95
53.562,38.68
53.578,36.09
53.593,31.97
53.609,27.66
53.625,24.68
53.640,24.24
53.656,26.93
53.671,32.55
53.687,40.29
53.703,48.96
53.718,57.43
53.734,64.97
53.750,71.37
53.765,76.85
53.781,81.8
53.796,86.42
53.812,90.64
53.828,94.09
53.843,96.24
53.859,96.56
53.875,94.52
53.890,89.58
53.906,81.1
53.921,68.6
53.937,52.05
53.953,32.23
53.968,10.91
53.984,-9.31
54.000,-25.51
54.015,-35.37
54.031,-37.73
54.046,-33.0
54.062,-23.03
54.078,-10.54
54.093,1.62
54.109,11.14
54.125,16.56
54.140,17.3
54.156,13.34
54.171,5.08
54.187,-6.72
54.203,-20.88
54.218,-35.7
54.234,-49.18
54.250,-59.51
54.265,-65.66
54.281,-67.72
54.296,-66.82
54.312,-64.58
54.328,-62.43
54.343,-61.1
54.359,-60.59
54.375,-60.52
54.390,-60.44
54.406,-60.07
54.421,-59.23
54.437,-57.75
54.453,-55.36
54.468,-51.95
54.484,-47.8
54.500,-43.62
54.515,-40.45
54.531,-39.18
54.546,-40.27
54.562,-43.51
54.578,-48.32
54.593,-54.02
54.609,-59.98
54.625,-65.8
54.640,-70.96
54.656,-74.78
54.671,-76.39
54.687,-74.98
54.703,-70.1
54.718,-61.94
54.734,-51.33
54.750,-39.43
54.765,-27.48
54.781,-16.32
54.796,-6.39
54.812,2.41
54.828,10.44
54.843,18.08
54.859,25.54
54.875,32.77
54.890,39.44
54.906,45.0
54.921,48.87
54.937,50.55
54.953,49.8
54.968,46.67
54.984,41.58
55.000,35.22
55.015,28.55
55.031,22.58
55.046,18.23
55.062,16.09
55.078,16.26
55.093,18.27
55.109,21.14
55.125,23.59
55.140,24.38
55.156,22.6
55.171,17.86
55.187,10.32
55.203,0.68
55.218,-9.94
55.234,-20.23
55.250,-28.89
55.265,-34.89
55.281,-37.79
55.296,-37.87
55.312,-36.13
55.328,-34.1
55.343,-33.31
55.359,-34.95
55.375,-39.56
55.390,-46.82
55.406,-55.74
55.421,-64.78
55.437,-72.13
55.453,-75.97
55.468,-74.86
55.484,-68.06
55.500,-55.86
55.515,-39.56
55.531,-21.26
55.546,-3.26
55.562,12.46
55.578,24.71
55.593,33.07
55.609,37.77
55.625,39.32
55.640,38.35
55.656,35.61
55.671,32.02
55.687,28.75
55.703,26.82
55.718,26.81
55.734,28.58
55.750,31.18
55.765,33.3
55.781,33.79
55.796,32.09
55.812,28.42
55.828,23.5
55.843,18.16
55.859,13.06
55.875,8.57
55.890,4.89
55.906,2.2
55.921,0.66
55.937,0.25
55.953,0.63
55.968,1.11
55.984,0.84
56.000,-0.92
56.015,-4.59
56.031,-10.14
56.046,-17.2
56.062,-25.25
56.078,-33.65
56.093,-41.66
56.109,-48.44
56.125,-53.03
56.140,-54.58
56.156,-52.63
56.171,-47.29
56.187,-39.19
56.203,-29.36
56.218,-18.91
56.234,-8.69
56.250,0.67
56.265,8.87
56.281,15.79
56.296,21.52
56.312,26.38
56.328,30.83
56.343,35.29
56.359,39.89
56.375,44.3
56.390,47.78
56.406,49.48
56.421,48.81
56.437,45.68
56.453,40.53
56.468,34.05
56.484,27.06
56.500,20.31
56.515,14.6
56.531,10.68
56.546,9.16
56.562,10.17
56.578,13.14
56.593,16.82
56.609,19.57
56.625,19.96
56.640,17.2
56.656,11.37
56.671,3.26
56.687,-5.95
56.703,-15.02
56.718,-22.87
56.734,-28.69
56.750,-32.11
56.765,-33.27
56.781,-32.97
56.796,-32.56
56.812,-33.61
56.828,-37.36
56.843,-44.2
56.859,-53.4
56.875,-63.17
56.890,-71.12
56.906,-74.99
56.921,-73.15
56.937,-65.17
56.953,-51.74
56.968,-34.6
56.984,-15.95
57.000,1.94
57.015,17.23
57.031,28.83
57.046,36.31
57.062,39.86
57.078,40.09
57.093,37.87
57.109,34.33
57.125,30.8
57.140,28.5
57.156,28.34
57.171,30.54
57.187,34.46
57.203,38.8
57.218,42.01
57.234,42.91
57.250,40.93
57.265,36.32
57.281,29.84
57.296,22.5
57.312,15.22
57.328,8.8
57.343,3.84
57.359,0.72
57.375,-0.51
57.390,-0.26
57.406,0.59
57.421,0.9
57.437,-0.42
57.453,-4.04
57.468,-10.1
57.484,-18.23
57.500,-27.75
57.515,-37.88
57.531,-47.84
57.546,-56.86
57.562,-64.22
57.578,-69.26
57.593,-71.54
57.609,-70.93
57.625,-67.66
57.640,-62.19
57.656,-55.04
57.671,-46.77
57.687,-37.88
57.703,-28.87
57.718,-20.2
57.734,-12.15
57.750,-4.73
57.765,2.3
57.781,9.22
57.796,16.15
57.812,22.76
57.828,28.45
57.843,32.47
57.859,34.3
57.875,33.89
57.890,31.58
57.906,27.94
57.921,23.56
57.937,18.95
57.953,14.69
57.968,11.4
57.984,9.67
58.000,9.83
58.015,11.68
58.031,14.43
58.046,16.91
58.062,17.94
58.078,16.84
58.093,13.45
58.109,8.12
58.125,1.47
58.140,-5.82
58.156,-13.03
58.171,-19.4
58.187,-24.26
58.203,-27.16
58.218,-28.15
58.234,-27.93
58.250,-27.69
58.265,-28.72
58.281,-31.87
58.296,-37.19
58.312,-43.86
58.328,-50.38
58.343,-55.05
58.359,-56.37
58.375,-53.44
58.390,-46.01
58.406,-34.67
58.421,-20.6
58.437,-5.43
58.453,9.19
58.468,21.93
58.484,31.88
58.500,38.69
58.515,42.3
58.531,42.9
58.546,40.81
58.562,36.59
58.578,31.15
58.593,25.65
58.609,21.27
58.625,18.76
58.640,18.28
58.656,19.24
58.671,20.76
58.687,21.97
58.703,22.37
58.718,21.82
58.734,20.39
58.750,18.1
58.765,14.92
58.781,10.95
58.796,6.47
58.812,2.05
58.828,-1.68
58.843,-4.27
58.859,-5.68
58.875,-6.36
58.890,-7.0
58.906,-8.39
58.921,-11.13
58.937,-15.59
58.953,-21.79
58.968,-29.34
58.984,-37.38
59.000,-44.61
59.015,-49.54
59.031,-50.89
59.046,-48.0
59.062,-41.03
59.078,-30.83
59.093,-18.59
59.109,-5.5
59.125,7.46
59.140,19.52
59.156,30.03
59.171,38.42
59.187,44.32
59.203,47.81
59.218,49.43
59.234,50.08
59.250,50.53
59.265,51.2
59.281,51.97
59.296,52.32
59.312,51.71
59.328,49.76
59.343,46.39
59.359,41.77
59.375,36.22
59.390,30.19
59.406,24.33
59.421,19.47
59.437,16.4
59.453,15.5
59.468,16.47
59.484,18.27
59.500,19.45
59.515,18.71
59.531,15.36
59.546,9.49
59.562,1.81
59.578,-6.79
59.593,-15.44
59.609,-23.53
59.625,-30.62
59.640,-36.43
59.656,-40.87
59.671,-44.11
59.687,-46.46
59.703,-48.23
59.718,-49.46
59.734,-49.72
59.750,-48.27
59.765,-44.45
59.781,-38.1
59.796,-29.67
59.812,-20.04
59.828,-10.04
59.843,-0.16
59.859,9.59
59.875,19.35
59.890,29.05
59.906,38.09
59.921,45.53
59.937,50.44
59.953,52.33
59.968,51.33
59.984,48.1
