timestamp,value
00.000,56.9
00.015,56.41
00.031,56.41
00.046,56.9
00.062,57.63
00.078,58.11
00.093,57.66
00.109,55.64
00.125,51.61
00.140,45.59
00.156,38.12
00.171,30.18
00.187,22.88
00.203,17.07
00.218,12.97
00.234,10.08
00.250,7.41
00.265,3.93
00.281,-0.97
00.296,-7.22
00.312,-14.16
00.328,-20.92
00.343,-26.9
00.359,-31.95
00.375,-36.33
00.390,-40.41
00.406,-44.29
00.421,-47.67
00.437,-50.05
00.453,-51.06
00.468,-50.82
00.484,-49.94
00.500,-49.33
00.515,-49.76
00.531,-51.45
00.546,-53.98
00.562,-56.49
00.578,-58.09
00.593,-58.16
00.609,-56.59
00.625,-53.7
00.640,-49.99
00.656,-46.04
00.671,-42.24
00.687,-38.91
00.703,-36.24
00.718,-34.35
00.734,-33.26
00.750,-32.86
00.765,-32.97
00.781,-33.35
00.796,-33.83
00.812,-34.3
00.828,-34.73
00.843,-35.13
00.859,-35.48
00.875,-35.71
00.890,-35.79
00.906,-35.82
00.921,-35.98
00.937,-36.57
00.953,-37.87
00.968,-40.07
00.984,-43.17
01.000,-47.02
01.015,-51.35
01.031,-55.75
01.046,-59.68
01.062,-62.43
01.078,-63.17
01.093,-61.2
01.109,-56.11
01.125,-48.04
01.140,-37.66
01.156,-26.11
01.171,-14.61
01.187,-4.23
01.203,4.35
01.218,10.92
01.234,15.56
01.250,18.59
01.265,20.36
01.281,21.23
01.296,21.48
01.312,21.36
01.328,21.01
01.343,20.52
01.359,19.91
01.375,19.23
01.390,18.59
01.406,18.16
01.421,18.15
01.437,18.72
01.453,19.89
01.468,21.55
01.484,23.43
01.500,25.15
01.515,26.25
01.531,26.36
01.546,25.24
01.562,22.9
01.578,19.64
01.593,15.88
01.609,12.07
01.625,8.51
01.640,5.39
01.656,2.85
01.671,0.98
01.687,-0.1
01.703,-0.37
01.718,0.03
01.734,0.79
01.750,1.5
01.765,1.76
01.781,1.25
01.796,-0.22
01.812,-2.85
01.828,-6.86
01.843,-12.31
01.859,-19.01
01.875,-26.32
01.890,-33.19
01.906,-38.33
01.921,-40.62
01.937,-39.47
01.953,-34.93
01.968,-27.68
01.984,-18.74
02.000,-9.1
02.015,0.46
02.031,9.47
02.046,17.68
02.062,24.93
02.078,31.02
02.093,35.79
02.109,39.17
02.125,41.32
02.140,42.67
02.156,43.72
02.171,44.96
02.187,46.62
02.203,48.71
02.218,51.01
02.234,53.28
02.250,55.42
02.265,57.46
02.281,59.56
02.296,61.88
02.312,64.46
02.328,67.08
02.343,69.26
02.359,70.36
02.375,69.68
02.390,66.73
02.406,61.33
02.421,53.75
02.437,44.61
02.453,34.71
02.468,24.85
02.484,15.55
02.500,7.13
02.515,-0.29
02.531,-6.64
02.546,-11.82
02.562,-15.78
02.578,-18.62
02.593,-20.65
02.609,-22.41
02.625,-24.47
02.640,-27.27
02.656,-31.0
02.671,-35.55
02.687,-40.56
02.703,-45.47
02.718,-49.58
02.734,-52.07
02.750,-52.2
02.765,-49.46
02.781,-43.76
02.796,-35.56
02.812,-25.78
02.828,-15.48
02.843,-5.6
02.859,3.25
02.875,10.85
02.890,17.19
02.906,22.41
02.921,26.65
02.937,30.08
02.953,32.96
02.968,35.64
02.984,38.47
03.000,41.71
03.015,45.53
03.031,49.98
03.046,55.09
03.062,60.94
03.078,67.55
03.093,74.67
03.109,81.8
03.125,88.18
03.140,93.06
03.156,95.99
03.171,96.99
03.187,96.52
03.203,95.23
03.218,93.81
03.234,92.84
03.250,92.79
03.265,93.97
03.281,96.35
03.296,99.53
03.312,102.57
03.328,104.19
03.343,103.16
03.359,98.68
03.375,90.65
03.390,79.71
03.406,66.88
03.421,53.23
03.437,39.48
03.453,25.83
03.468,12.03
03.484,-2.37
03.500,-17.66
03.515,-33.6
03.531,-49.32
03.546,-63.49
03.562,-74.76
03.578,-82.3
03.593,-86.13
03.609,-87.1
03.625,-86.52
03.640,-85.68
03.656,-85.34
03.671,-85.59
03.687,-86.0
03.703,-85.82
03.718,-84.32
03.734,-81.04
03.750,-75.91
03.765,-69.35
03.781,-62.35
03.796,-56.24
03.812,-52.46
03.828,-51.98
03.843,-55.01
03.859,-60.76
03.875,-67.76
03.890,-74.3
03.906,-79.01
03.921,-81.23
03.937,-80.91
03.953,-78.49
03.968,-74.49
03.984,-69.34
04.000,-63.4
04.015,-57.16
04.031,-51.27
04.046,-46.5
04.062,-43.53
04.078,-42.61
04.093,-43.51
04.109,-45.52
04.125,-47.73
04.140,-49.37
04.156,-50.08
04.171,-50.02
04.187,-49.7
04.203,-49.85
04.218,-51.02
04.234,-53.49
04.250,-57.18
04.265,-61.68
04.281,-66.34
04.296,-70.38
04.312,-72.9
04.328,-73.07
04.343,-70.31
04.359,-64.41
04.375,-55.68
04.390,-44.82
04.406,-32.8
04.421,-20.56
04.437,-8.81
04.453,2.04
04.468,11.83
04.484,20.49
04.500,27.9
04.515,33.91
04.531,38.35
04.546,41.22
04.562,42.69
04.578,43.13
04.593,42.96
04.609,42.54
04.625,42.03
04.640,41.39
04.656,40.48
04.671,39.15
04.687,37.4
04.703,35.32
04.718,33.06
04.734,30.67
04.750,28.05
04.765,25.02
04.781,21.42
04.796,17.25
04.812,12.7
04.828,8.03
04.843,3.45
04.859,-1.03
04.875,-5.56
04.890,-10.36
04.906,-15.51
04.921,-20.88
04.937,-26.12
04.953,-30.84
04.968,-34.79
04.984,-37.96
05.000,-40.52
05.015,-42.72
05.031,-44.81
05.046,-46.9
05.062,-49.03
05.078,-51.15
05.093,-53.05
05.109,-54.38
05.125,-54.55
05.140,-52.84
05.156,-48.66
05.171,-41.81
05.187,-32.7
05.203,-22.32
05.218,-11.91
05.234,-2.57
05.250,5.07
05.265,10.93
05.281,15.28
05.296,18.39
05.312,20.33
05.328,21.0
05.343,20.23
05.359,18.1
05.375,14.98
05.390,11.46
05.406,8.08
05.421,5.18
05.437,2.75
05.453,0.6
05.468,-1.48
05.484,-3.62
05.500,-5.75
05.515,-7.77
05.531,-9.57
05.546,-11.14
05.562,-12.53
05.578,-13.81
05.593,-14.94
05.609,-15.81
05.625,-16.22
05.640,-15.97
05.656,-15.03
05.671,-13.54
05.687,-11.84
05.703,-10.28
05.718,-9.19
05.734,-8.68
05.750,-8.59
05.765,-8.69
05.781,-8.69
05.796,-8.53
05.812,-8.39
05.828,-8.62
05.843,-9.65
05.859,-11.74
05.875,-14.93
05.890,-18.89
05.906,-22.99
05.921,-26.39
05.937,-28.14
05.953,-27.39
05.968,-23.56
05.984,-16.54
06.000,-6.78
06.015,4.71
06.031,16.67
06.046,27.82
06.062,37.3
06.078,44.71
06.093,50.11
06.109,53.8
06.125,56.06
06.140,57.06
06.156,56.97
06.171,56.02
06.187,54.6
06.203,53.17
06.218,52.07
06.234,51.39
06.250,50.92
06.265,50.39
06.281,49.62
06.296,48.6
06.312,47.53
06.328,46.58
06.343,45.77
06.359,44.91
06.375,43.72
06.390,42.02
06.406,39.79
06.421,37.24
06.437,34.62
06.453,32.11
06.468,29.71
06.484,27.29
06.500,24.64
06.515,21.69
06.531,18.44
06.546,15.02
06.562,11.56
06.578,8.16
06.593,4.8
06.609,1.42
06.625,-2.1
06.640,-5.92
06.656,-10.12
06.671,-14.73
06.687,-19.56
06.703,-24.18
06.718,-27.91
06.734,-29.97
06.750,-29.66
06.765,-26.62
06.781,-20.98
06.796,-13.34
06.812,-4.6
06.828,4.28
06.843,12.47
06.859,19.48
06.875,25.05
06.890,29.19
06.906,31.98
06.921,33.59
06.937,34.23
06.953,34.11
06.968,33.55
06.984,32.85
07.000,32.27
07.015,31.98
07.031,31.98
07.046,32.2
07.062,32.51
07.078,32.79
07.093,32.98
07.109,33.06
07.125,32.94
07.140,32.55
07.156,31.81
07.171,30.61
07.187,28.95
07.203,26.89
07.218,24.55
07.234,22.04
07.250,19.45
07.265,16.85
07.281,14.29
07.296,11.8
07.312,9.35
07.328,6.89
07.343,4.29
07.359,1.5
07.375,-1.52
07.390,-4.68
07.406,-7.87
07.421,-11.02
07.437,-14.16
07.453,-17.49
07.468,-21.24
07.484,-25.51
07.500,-30.08
07.515,-34.4
07.531,-37.64
07.546,-38.96
07.562,-37.73
07.578,-33.76
07.593,-27.38
07.609,-19.3
07.625,-10.47
07.640,-1.83
07.656,5.96
07.671,12.55
07.687,17.84
07.703,21.9
07.718,24.82
07.734,26.66
07.750,27.48
07.765,27.5
07.781,27.04
07.796,26.54
07.812,26.36
07.828,26.67
07.843,27.3
07.859,27.88
07.875,28.02
07.890,27.51
07.906,26.45
07.921,25.07
07.937,23.69
07.953,22.46
07.968,21.41
07.984,20.4
08.000,19.27
08.015,17.92
08.031,16.31
08.046,14.55
08.062,12.69
08.078,10.82
08.093,8.9
08.109,6.81
08.125,4.43
08.140,1.69
08.156,-1.34
08.171,-4.47
08.187,-7.36
08.203,-9.81
08.218,-11.7
08.234,-13.16
08.250,-14.49
08.265,-16.06
08.281,-18.19
08.296,-21.14
08.312,-25.04
08.328,-29.78
08.343,-34.93
08.359,-39.72
08.375,-43.12
08.390,-44.13
08.406,-42.14
08.421,-37.16
08.437,-29.83
08.453,-21.18
08.468,-12.2
08.484,-3.62
08.500,4.22
08.515,11.19
08.531,17.22
08.546,22.18
08.562,25.93
08.578,28.37
08.593,29.63
08.609,30.0
08.625,29.82
08.640,29.47
08.656,29.2
08.671,29.16
08.687,29.44
08.703,30.03
08.718,30.83
08.734,31.66
08.750,32.31
08.765,32.55
08.781,32.3
08.796,31.53
08.812,30.33
08.828,28.81
08.843,27.06
08.859,25.11
08.875,22.99
08.890,20.66
08.906,18.2
08.921,15.77
08.937,13.61
08.953,11.91
08.968,10.73
08.984,9.98
09.000,9.41
09.015,8.77
09.031,7.87
09.046,6.7
09.062,5.41
09.078,4.18
09.093,3.15
09.109,2.36
09.125,1.69
09.140,0.97
09.156,0.02
09.171,-1.28
09.187,-2.89
09.203,-4.57
09.218,-5.84
09.234,-6.09
09.250,-4.68
09.265,-1.17
09.281,4.68
09.296,12.8
09.312,22.79
09.328,34.12
09.343,46.07
09.359,57.91
09.375,69.09
09.390,79.3
09.406,88.58
09.421,97.22
09.437,105.57
09.453,113.77
09.468,121.57
09.484,128.28
09.500,132.9
09.515,134.53
09.531,132.57
09.546,127.02
09.562,118.41
09.578,107.8
09.593,96.46
09.609,85.67
09.625,76.48
09.640,69.57
09.656,65.21
09.671,63.28
09.687,63.37
09.703,64.93
09.718,67.41
09.734,70.49
09.750,74.09
09.765,78.56
09.781,84.23
09.796,91.09
09.812,98.12
09.828,103.11
09.843,103.03
09.859,94.85
09.875,76.55
09.890,47.73
09.906,9.74
09.921,-34.86
09.937,-82.71
09.953,-130.07
09.968,-172.99
09.984,-207.69
10.000,-231.12
10.015,-241.84
10.031,-240.59
10.046,-230.14
10.062,-214.37
10.078,-196.81
10.093,-179.52
10.109,-162.76
10.125,-145.69
10.140,-127.49
10.156,-108.2
10.171,-88.87
10.187,-71.07
10.203,-55.92
10.218,-43.63
10.234,-33.43
10.250,-24.16
10.265,-14.89
10.281,-5.31
10.296,4.4
10.312,13.87
10.328,22.85
10.343,31.3
10.359,39.04
10.375,45.63
10.390,50.32
10.406,52.43
10.421,51.77
10.437,48.91
10.453,45.08
10.468,41.84
10.484,40.57
10.500,41.97
10.515,45.86
10.531,51.22
10.546,56.41
10.562,59.74
10.578,59.98
10.593,56.84
10.609,51.01
10.625,43.96
10.640,37.4
10.656,32.77
10.671,30.85
10.687,31.55
10.703,34.02
10.718,36.9
10.734,38.69
10.750,38.23
10.765,34.97
10.781,29.04
10.796,21.04
10.812,11.67
10.828,1.45
10.843,-9.35
10.859,-20.46
10.875,-31.4
10.890,-41.42
10.906,-49.64
10.921,-55.39
10.937,-58.46
10.953,-59.1
10.968,-57.92
10.984,-55.6
11.000,-52.79
11.015,-50.0
11.031,-47.64
11.046,-45.97
11.062,-45.13
11.078,-45.1
11.093,-45.73
11.109,-46.86
11.125,-48.33
11.140,-50.02
11.156,-51.8
11.171,-53.51
11.187,-54.83
11.203,-55.42
11.218,-54.99
11.234,-53.49
11.250,-51.15
11.265,-48.46
11.281,-45.89
11.296,-43.67
11.312,-41.61
11.328,-39.21
11.343,-36.01
11.359,-31.84
11.375,-27.06
11.390,-22.4
11.406,-18.58
11.421,-16.02
11.437,-14.56
11.453,-13.62
11.468,-12.42
11.484,-10.32
11.500,-6.93
11.515,-2.11
11.531,4.03
11.546,10.99
11.562,17.83
11.578,22.97
11.593,24.59
11.609,21.06
11.625,11.89
11.640,-1.82
11.656,-17.47
11.671,-31.9
11.687,-42.56
11.703,-48.59
11.718,-50.96
11.734,-51.83
11.750,-53.4
11.765,-56.83
11.781,-61.93
11.796,-67.43
11.812,-71.87
11.828,-74.17
11.843,-73.98
11.859,-71.55
11.875,-67.37
11.890,-62.05
11.906,-56.17
11.921,-50.48
11.937,-45.85
11.953,-43.03
11.968,-42.34
11.984,-43.29
12.000,-44.64
12.015,-44.79
12.031,-42.64
12.046,-38.27
12.062,-33.18
12.078,-29.81
12.093,-30.53
12.109,-36.58
12.125,-47.5
12.140,-61.29
12.156,-75.21
12.171,-86.83
12.187,-94.7
12.203,-98.59
12.218,-99.09
12.234,-97.16
12.250,-93.76
12.265,-89.65
12.281,-85.42
12.296,-81.53
12.312,-78.26
12.328,-75.68
12.343,-73.59
12.359,-71.61
12.375,-69.29
12.390,-66.33
12.406,-62.72
12.421,-58.87
12.437,-55.45
12.453,-53.21
12.468,-52.66
12.484,-53.84
12.500,-56.25
12.515,-58.86
12.531,-60.42
12.546,-59.75
12.562,-56.12
12.578,-49.43
12.593,-40.26
12.609,-29.7
12.625,-19.01
12.640,-9.21
12.656,-0.84
12.671,6.1
12.687,11.88
12.703,16.86
12.718,21.19
12.734,24.83
12.750,27.61
12.765,29.46
12.781,30.56
12.796,31.28
12.812,32.14
12.828,33.51
12.843,35.53
12.859,38.08
12.875,40.78
12.890,43.22
12.906,45.11
12.921,46.31
12.937,46.91
12.953,47.1
12.968,47.06
12.984,46.84
13.000,46.35
13.015,45.45
13.031,44.1
13.046,42.39
13.062,40.55
13.078,38.86
13.093,37.56
13.109,36.81
13.125,36.7
13.140,37.23
13.156,38.24
13.171,39.57
13.187,40.96
13.203,42.17
13.218,43.11
13.234,43.91
13.250,44.79
13.265,46.06
13.281,47.86
13.296,50.14
13.312,52.63
13.328,55.03
13.343,57.05
13.359,58.67
13.375,60.08
13.390,61.63
13.406,63.69
13.421,66.5
13.437,70.04
13.453,74.07
13.468,78.16
13.484,81.94
13.500,85.26
13.515,88.27
13.531,91.45
13.546,95.37
13.562,100.5
13.578,106.91
13.593,114.14
13.609,121.23
13.625,126.9
13.640,129.91
13.656,129.53
13.671,125.74
13.687,119.33
13.703,111.59
13.718,103.74
13.734,96.52
13.750,89.76
13.765,82.44
13.781,73.02
13.796,59.92
13.812,42.19
13.828,19.75
13.843,-6.44
13.859,-34.68
13.875,-62.94
13.890,-89.33
13.906,-112.47
13.921,-131.52
13.937,-146.19
13.953,-156.51
13.968,-162.78
13.984,-165.63
14.000,-165.97
14.015,-164.89
14.031,-163.35
14.046,-161.71
14.062,-159.55
14.078,-155.69
14.093,-148.83
14.109,-138.05
14.125,-123.52
14.140,-106.58
14.156,-89.57
14.171,-75.21
14.187,-66.05
14.203,-64.06
14.218,-70.11
14.234,-83.6
14.250,-102.03
14.265,-121.12
14.281,-135.54
14.296,-140.37
14.312,-132.81
14.328,-113.42
14.343,-86.02
14.359,-56.38
14.375,-29.93
14.390,-9.89
14.406,3.55
14.421,12.33
14.437,18.85
14.453,24.29
14.468,27.92
14.484,27.87
14.500,22.55
14.515,11.98
14.531,-1.98
14.546,-16.49
14.562,-29.04
14.578,-38.67
14.593,-46.29
14.609,-53.98
14.625,-63.82
14.640,-76.84
14.656,-92.58
14.671,-109.28
14.687,-124.3
14.703,-134.68
14.718,-137.67
14.734,-131.12
14.750,-114.2
14.765,-87.82
14.781,-54.91
14.796,-19.91
14.812,12.33
14.828,38.04
14.843,55.52
14.859,65.43
14.875,70.01
14.890,71.86
14.906,72.86
14.921,73.67
14.937,74.02
14.953,73.4
14.968,71.71
14.984,69.38
15.000,67.17
15.015,65.65
15.031,64.96
15.046,64.85
15.062,65.02
15.078,65.48
15.093,66.65
15.109,69.24
15.125,73.7
15.140,79.93
15.156,87.06
15.171,93.7
15.187,98.44
15.203,100.42
15.218,99.67
15.234,97.03
15.250,93.72
15.265,90.72
15.281,88.43
15.296,86.55
15.312,84.39
15.328,81.23
15.343,76.56
15.359,70.21
15.375,62.22
15.390,52.8
15.406,42.26
15.421,31.17
15.437,20.35
15.453,10.71
15.468,3.09
15.484,-2.05
15.500,-4.68
15.515,-5.18
15.531,-4.05
15.546,-1.8
15.562,1.13
15.578,4.31
15.593,7.23
15.609,9.35
15.625,10.2
15.640,9.49
15.656,7.27
15.671,3.92
15.687,0.15
15.703,-3.25
15.718,-5.47
15.734,-6.02
15.750,-4.7
15.765,-1.77
15.781,2.23
15.796,6.59
15.812,10.67
15.828,14.1
15.843,16.8
15.859,18.94
15.875,20.79
15.890,22.57
15.906,24.3
15.921,25.79
15.937,26.72
15.953,26.81
15.968,25.85
15.984,23.8
16.000,20.7
16.015,16.67
16.031,11.84
16.046,6.4
16.062,0.73
16.078,-4.54
16.093,-8.58
16.109,-10.44
16.125,-9.39
16.140,-5.1
16.156,2.17
16.171,11.59
16.187,21.95
16.203,31.93
16.218,40.45
16.234,46.85
16.250,50.94
16.265,52.85
16.281,52.83
16.296,50.94
16.312,47.11
16.328,41.17
16.343,33.19
16.359,23.67
16.375,13.53
16.390,3.96
16.406,-3.99
16.421,-9.64
16.437,-12.83
16.453,-13.89
16.468,-13.41
16.484,-12.04
16.500,-10.28
16.515,-8.48
16.531,-6.71
16.546,-4.93
16.562,-2.98
16.578,-0.74
16.593,1.75
16.609,4.26
16.625,6.39
16.640,7.62
16.656,7.42
16.671,5.4
16.687,1.32
16.703,-4.73
16.718,-12.32
16.734,-20.57
16.750,-28.33
16.765,-34.34
16.781,-37.58
16.796,-37.49
16.812,-34.09
16.828,-27.96
16.843,-20.05
16.859,-11.41
16.875,-3.05
16.890,4.25
16.906,10.0
16.921,14.0
16.937,16.38
16.953,17.51
16.968,17.91
16.984,18.06
17.000,18.24
17.015,18.53
17.031,18.86
17.046,19.19
17.062,19.66
17.078,20.6
17.093,22.57
17.109,26.11
17.125,31.7
17.140,39.42
17.156,48.78
17.171,58.55
17.187,66.77
17.203,71.09
17.218,69.57
17.234,61.44
17.250,47.75
17.265,31.26
17.281,15.63
17.296,4.13
17.312,-1.51
17.328,-1.66
17.343,1.6
17.359,5.41
17.375,7.35
17.390,6.1
17.406,1.67
17.421,-4.91
17.437,-12.11
17.453,-18.32
17.468,-22.11
17.484,-22.49
17.500,-18.96
17.515,-11.72
17.531,-1.61
17.546,10.08
17.562,21.89
17.578,32.61
17.593,41.54
17.609,48.43
17.625,53.36
17.640,56.52
17.656,58.03
17.671,58.14
17.687,57.31
17.703,56.32
17.718,56.08
17.734,57.37
17.750,60.44
17.765,64.92
17.781,70.17
17.796,75.57
17.812,80.87
17.828,86.05
17.843,91.04
17.859,95.27
17.875,97.75
17.890,97.44
17.906,93.87
17.921,87.55
17.937,79.6
17.953,70.78
17.968,60.46
17.984,46.37
18.000,25.61
18.015,-3.42
18.031,-39.42
18.046,-77.92
18.062,-112.68
18.078,-138.28
18.093,-152.06
18.109,-154.7
18.125,-148.91
18.140,-137.5
18.156,-122.04
18.171,-102.91
18.187,-80.48
18.203,-56.32
18.218,-33.37
18.234,-14.78
18.250,-2.39
18.265,4.26
18.281,7.6
18.296,10.63
18.312,15.33
18.328,21.65
18.343,27.8
18.359,31.15
18.375,29.66
18.390,22.85
18.406,12.05
18.421,-0.01
18.437,-10.16
18.453,-15.59
18.468,-14.56
18.484,-6.48
18.500,8.18
18.515,28.11
18.531,51.29
18.546,74.98
18.562,95.82
18.578,110.29
18.593,115.52
18.609,110.2
18.625,94.95
18.640,72.11
18.656,44.8
18.671,15.87
18.687,-12.73
18.703,-39.97
18.718,-65.33
18.734,-88.33
18.750,-108.42
18.765,-125.1
18.781,-138.2
18.796,-147.97
18.812,-154.82
18.828,-158.95
18.843,-160.16
18.859,-157.9
18.875,-151.8
18.890,-142.02
18.906,-129.53
18.921,-115.8
18.937,-102.37
18.953,-90.4
18.968,-80.48
18.984,-72.68
19.000,-66.78
19.015,-62.43
19.031,-59.27
19.046,-56.87
19.062,-54.79
19.078,-52.54
19.093,-49.71
19.109,-46.03
19.125,-41.54
19.140,-36.46
19.156,-31.12
19.171,-25.91
19.187,-21.15
19.203,-17.06
19.218,-13.81
19.234,-11.47
19.250,-10.03
19.265,-9.39
19.281,-9.34
19.296,-9.56
19.312,-9.68
19.328,-9.19
19.343,-7.58
19.359,-4.37
19.375,0.7
19.390,7.6
19.406,15.95
19.421,25.1
19.437,34.4
19.453,43.28
19.468,51.44
19.484,58.71
19.500,64.89
19.515,69.63
19.531,72.56
19.546,73.52
19.562,72.82
19.578,71.21
19.593,69.6
19.609,68.68
19.625,68.6
19.640,69.03
19.656,69.41
19.671,69.33
19.687,68.66
19.703,67.48
19.718,65.72
19.734,62.96
19.750,58.36
19.765,51.01
19.781,40.35
19.796,26.64
19.812,11.25
19.828,-3.41
19.843,-14.26
19.859,-18.33
19.875,-13.66
19.890,-0.04
19.906,20.63
19.921,44.67
19.937,67.56
19.953,85.02
19.968,94.14
19.984,93.94
20.000,85.32
20.015,70.57
20.031,52.52
20.046,33.85
20.062,16.54
20.078,1.75
20.093,-10.11
20.109,-19.12
20.125,-25.66
20.140,-30.19
20.156,-33.18
20.171,-34.88
20.187,-35.27
20.203,-34.02
20.218,-30.63
20.234,-24.74
20.250,-16.49
20.265,-6.63
20.281,3.65
20.296,13.11
20.312,20.91
20.328,26.89
20.343,31.35
20.359,34.71
20.375,37.08
20.390,38.12
20.406,37.32
20.421,34.38
20.437,29.56
20.453,23.74
20.468,18.04
20.484,13.32
20.500,9.75
20.515,6.79
20.531,3.46
20.546,-1.1
20.562,-7.22
20.578,-14.56
20.593,-22.31
20.609,-29.46
20.625,-35.13
20.640,-38.81
20.656,-40.37
20.671,-40.06
20.687,-38.38
20.703,-35.97
20.718,-33.42
20.734,-31.23
20.750,-29.55
20.765,-28.35
20.781,-27.41
20.796,-26.48
20.812,-25.43
20.828,-24.19
20.843,-22.73
20.859,-21.01
20.875,-18.98
20.890,-16.55
20.906,-13.66
20.921,-10.08
20.937,-5.26
20.953,1.63
20.968,11.41
20.984,24.04
21.000,38.06
21.015,50.38
21.031,57.1
21.046,55.01
21.062,43.13
21.078,23.35
21.093,-0.22
21.109,-22.79
21.125,-40.83
21.140,-53.15
21.156,-61.04
21.171,-67.27
21.187,-74.86
21.203,-86.17
21.218,-102.53
21.234,-124.2
21.250,-150.3
21.265,-178.68
21.281,-205.6
21.296,-226.28
21.312,-235.79
21.328,-230.65
21.343,-210.13
21.359,-176.77
21.375,-135.87
21.390,-93.8
21.406,-56.21
21.421,-26.56
21.437,-5.57
21.453,8.19
21.468,17.17
21.484,23.58
21.500,28.71
21.515,32.83
21.531,35.66
21.546,36.91
21.562,36.7
21.578,35.52
21.593,33.94
21.609,32.26
21.625,30.39
21.640,27.92
21.656,24.5
21.671,20.16
21.687,15.32
21.703,10.64
21.718,6.59
21.734,3.2
21.750,0.1
21.765,-3.29
21.781,-7.36
21.796,-12.12
21.812,-17.09
21.828,-21.6
21.843,-25.07
21.859,-27.28
21.875,-28.47
21.890,-29.05
21.906,-29.37
21.921,-29.43
21.937,-28.89
21.953,-27.36
21.968,-24.61
21.984,-20.8
22.000,-16.43
22.015,-12.08
22.031,-8.06
22.046,-4.28
22.062,-0.21
22.078,4.88
22.093,11.63
22.109,20.35
22.125,31.01
22.140,43.19
22.156,56.3
22.171,69.57
22.187,82.22
22.203,93.55
22.218,103.06
22.234,110.52
22.250,116.07
22.265,120.12
22.281,123.24
22.296,125.96
22.312,128.64
22.328,131.32
22.343,133.83
22.359,135.89
22.375,137.22
22.390,137.73
22.406,137.5
22.421,136.73
22.437,135.64
22.453,134.3
22.468,132.54
22.484,129.92
22.500,125.78
22.515,119.28
22.531,109.63
22.546,96.21
22.562,78.84
22.578,57.93
22.593,34.46
22.609,9.98
22.625,-13.82
22.640,-35.35
22.656,-53.53
22.671,-67.88
22.687,-78.5
22.703,-85.85
22.718,-90.56
22.734,-93.34
22.750,-94.8
22.765,-95.56
22.781,-96.13
22.796,-96.94
22.812,-98.25
22.828,-100.18
22.843,-102.59
22.859,-105.18
22.875,-107.53
22.890,-109.21
22.906,-109.95
22.921,-109.63
22.937,-108.35
22.953,-106.3
22.968,-103.67
22.984,-100.6
23.000,-97.14
23.015,-93.4
23.031,-89.57
23.046,-85.93
23.062,-82.78
23.078,-80.33
23.093,-78.62
23.109,-77.48
23.125,-76.54
23.140,-75.35
23.156,-73.5
23.171,-70.77
23.187,-67.15
23.203,-62.91
23.218,-58.47
23.234,-54.25
23.250,-50.58
23.265,-47.58
23.281,-45.15
23.296,-42.93
23.312,-40.47
23.328,-37.27
23.343,-32.89
23.359,-27.07
23.375,-19.86
23.390,-11.52
23.406,-2.58
23.421,6.37
23.437,14.77
23.453,22.16
23.468,28.3
23.484,33.13
23.500,36.77
23.515,39.46
23.531,41.44
23.546,42.99
23.562,44.31
23.578,45.57
23.593,46.84
23.609,48.12
23.625,49.29
23.640,50.16
23.656,50.61
23.671,50.64
23.687,50.47
23.703,50.51
23.718,51.12
23.734,52.42
23.750,54.16
23.765,55.74
23.781,56.45
23.796,55.79
23.812,53.7
23.828,50.65
23.843,47.63
23.859,45.79
23.875,46.08
23.890,48.8
23.906,53.23
23.921,57.56
23.937,59.26
23.953,55.76
23.968,45.33
23.984,27.8
24.000,4.79
24.015,-20.7
24.031,-45.0
24.046,-64.8
24.062,-77.84
24.078,-83.14
24.093,-81.0
24.109,-72.61
24.125,-59.7
24.140,-44.29
24.156,-28.42
24.171,-13.89
24.187,-2.06
24.203,6.4
24.218,11.46
24.234,13.62
24.250,13.62
24.265,12.14
24.281,9.62
24.296,6.34
24.312,2.47
24.328,-1.8
24.343,-6.19
24.359,-10.34
24.375,-13.94
24.390,-16.75
24.406,-18.65
24.421,-19.64
24.437,-19.81
24.453,-19.33
24.468,-18.43
24.484,-17.36
24.500,-16.41
24.515,-15.76
24.531,-15.47
24.546,-15.41
24.562,-15.26
24.578,-14.59
24.593,-13.01
24.609,-10.32
24.625,-6.6
24.640,-2.32
24.656,1.8
24.671,4.97
24.687,6.5
24.703,5.98
24.718,3.37
24.734,-1.05
24.750,-6.67
24.765,-12.64
24.781,-17.96
24.796,-21.68
24.812,-23.02
24.828,-21.55
24.843,-17.27
24.859,-10.63
24.875,-2.39
24.890,6.5
24.906,15.09
24.921,22.63
24.937,28.62
24.953,32.93
24.968,35.73
24.984,37.34
25.000,38.11
25.015,38.27
25.031,37.97
25.046,37.3
25.062,36.44
25.078,35.64
25.093,35.12
25.109,34.94
25.125,34.91
25.140,34.69
25.156,33.9
25.171,32.44
25.187,30.45
25.203,28.28
25.218,26.27
25.234,24.56
25.250,23.11
25.265,21.68
25.281,20.04
25.296,18.1
25.312,15.9
25.328,13.54
25.343,11.15
25.359,8.76
25.375,6.31
25.390,3.69
25.406,0.74
25.421,-2.68
25.437,-6.69
25.453,-11.33
25.468,-16.55
25.484,-22.1
25.500,-27.51
25.515,-32.12
25.531,-35.18
25.546,-36.05
25.562,-34.39
25.578,-30.26
25.593,-24.11
25.609,-16.6
25.625,-8.5
25.640,-0.43
25.656,7.12
25.671,13.8
25.687,19.36
25.703,23.69
25.718,26.73
25.734,28.56
25.750,29.35
25.765,29.36
25.781,28.86
25.796,28.18
25.812,27.64
25.828,27.46
25.843,27.75
25.859,28.43
25.875,29.26
25.890,29.94
25.906,30.23
25.921,30.05
25.937,29.52
25.953,28.87
25.968,28.28
25.984,27.82
26.000,27.35
26.015,26.57
26.031,25.14
26.046,22.84
26.062,19.65
26.078,15.78
26.093,11.58
26.109,7.42
26.125,3.51
26.140,-0.14
26.156,-3.7
26.171,-7.39
26.187,-11.37
26.203,-15.65
26.218,-20.04
26.234,-24.15
26.250,-27.45
26.265,-29.33
26.281,-29.29
26.296,-27.03
26.312,-22.62
26.328,-16.5
26.343,-9.4
26.359,-2.06
26.375,4.86
26.390,10.94
26.406,15.98
26.421,19.86
26.437,22.58
26.453,24.13
26.468,24.62
26.484,24.27
26.500,23.42
26.515,22.4
26.531,21.48
26.546,20.74
26.562,20.12
26.578,19.47
26.593,18.61
26.609,17.46
26.625,16.06
26.640,14.53
26.656,12.97
26.671,11.45
26.687,9.93
26.703,8.31
26.718,6.56
26.734,4.68
26.750,2.74
26.765,0.8
26.781,-1.15
26.796,-3.16
26.812,-5.29
26.828,-7.52
26.843,-9.79
26.859,-12.05
26.875,-14.3
26.890,-16.66
26.906,-19.3
26.921,-22.32
26.937,-25.67
26.953,-29.15
26.968,-32.35
26.984,-34.82
27.000,-36.08
27.015,-35.74
27.031,-33.55
27.046,-29.45
27.062,-23.65
27.078,-16.6
27.093,-8.95
27.109,-1.38
27.125,5.47
27.140,11.14
27.156,15.35
27.171,18.02
27.187,19.2
27.203,19.12
27.218,18.16
27.234,16.82
27.250,15.62
27.265,14.96
27.281,15.0
27.296,15.64
27.312,16.59
27.328,17.45
27.343,17.95
27.359,17.97
27.375,17.57
27.390,16.98
27.406,16.52
27.421,16.49
27.437,17.12
27.453,18.42
27.468,20.13
27.484,21.72
27.500,22.49
27.515,21.91
27.531,19.76
27.546,16.3
27.562,12.16
27.578,8.0
27.593,4.25
27.609,0.94
27.625,-2.21
27.640,-5.6
27.656,-9.5
27.671,-13.87
27.687,-18.38
27.703,-22.62
27.718,-26.11
27.734,-28.44
27.750,-29.22
27.765,-28.13
27.781,-25.01
27.796,-19.89
27.812,-13.11
27.828,-5.19
27.843,3.23
27.859,11.48
27.875,19.01
27.890,25.34
27.906,30.09
27.921,33.03
27.937,34.19
27.953,33.86
27.968,32.61
27.984,31.05
28.000,29.61
28.015,28.41
28.031,27.21
28.046,25.6
28.062,23.27
28.078,20.16
28.093,16.51
28.109,12.84
28.125,9.71
28.140,7.54
28.156,6.49
28.171,6.39
28.187,6.84
28.203,7.34
28.218,7.47
28.234,6.98
28.250,5.88
28.265,4.27
28.281,2.28
28.296,-0.01
28.312,-2.61
28.328,-5.58
28.343,-8.93
28.359,-12.6
28.375,-16.52
28.390,-20.62
28.406,-24.88
28.421,-29.28
28.437,-33.58
28.453,-37.36
28.468,-40.03
28.484,-40.97
28.500,-39.74
28.515,-36.32
28.531,-31.08
28.546,-24.73
28.562,-18.07
28.578,-11.76
28.593,-6.17
28.609,-1.47
28.625,2.39
28.640,5.47
28.656,7.79
28.671,9.36
28.687,10.17
28.703,10.29
28.718,9.89
28.734,9.19
28.750,8.46
28.765,7.94
28.781,7.78
28.796,8.0
28.812,8.49
28.828,9.08
28.843,9.56
28.859,9.81
28.875,9.78
28.890,9.52
28.906,9.09
28.921,8.52
28.937,7.77
28.953,6.77
28.968,5.44
28.984,3.71
29.000,1.54
29.015,-0.98
29.031,-3.71
29.046,-6.41
29.062,-8.91
29.078,-11.13
29.093,-13.15
29.109,-15.18
29.125,-17.51
29.140,-20.38
29.156,-23.92
29.171,-28.05
29.187,-32.41
29.203,-36.46
29.218,-39.5
29.234,-40.88
29.250,-40.18
29.265,-37.36
29.281,-32.76
29.296,-26.97
29.312,-20.62
29.328,-14.21
29.343,-8.04
29.359,-2.25
29.375,3.06
29.390,7.84
29.406,12.0
29.421,15.47
29.437,18.22
29.453,20.15
29.468,21.19
29.484,21.25
29.500,20.34
29.515,18.63
29.531,16.45
29.546,14.17
29.562,12.13
29.578,10.49
29.593,9.27
29.609,8.38
29.625,7.72
29.640,7.23
29.656,6.83
29.671,6.37
29.687,5.67
29.703,4.56
29.718,2.91
29.734,0.73
29.750,-1.86
29.765,-4.65
29.781,-7.43
29.796,-10.0
29.812,-12.26
29.828,-14.17
29.843,-15.82
29.859,-17.37
29.875,-19.03
29.890,-20.96
29.906,-23.24
29.921,-25.85
29.937,-28.67
29.953,-31.51
29.968,-34.09
29.984,-36.01
30.000,-36.77
30.015,-35.87
30.031,-32.88
30.046,-27.67
30.062,-20.44
30.078,-11.77
30.093,-2.44
30.109,6.73
30.125,15.11
30.140,22.3
30.156,28.23
30.171,32.99
30.187,36.78
30.203,39.73
30.218,41.89
30.234,43.19
30.250,43.59
30.265,43.16
30.281,42.09
30.296,40.67
30.312,39.18
30.328,37.78
30.343,36.51
30.359,35.31
30.375,34.11
30.390,32.89
30.406,31.63
30.421,30.36
30.437,29.09
30.453,27.9
30.468,26.89
30.484,26.21
30.500,25.85
30.515,25.66
30.531,25.28
30.546,24.26
30.562,22.31
30.578,19.39
30.593,15.76
30.609,11.78
30.625,7.81
30.640,4.01
30.656,0.38
30.671,-3.1
30.687,-6.47
30.703,-9.69
30.718,-12.65
30.734,-15.24
30.750,-17.2
30.765,-18.07
30.781,-17.19
30.796,-13.92
30.812,-7.91
30.828,0.64
30.843,10.88
30.859,21.56
30.875,31.39
30.890,39.4
30.906,45.12
30.921,48.47
30.937,49.63
30.953,48.84
30.968,46.4
30.984,42.76
31.000,38.47
31.015,34.18
31.031,30.43
31.046,27.59
31.062,25.84
31.078,25.37
31.093,26.54
31.109,29.98
31.125,36.34
31.140,45.97
31.156,58.49
31.171,72.77
31.187,87.04
31.203,99.53
31.218,108.95
31.234,114.83
31.250,117.46
31.265,117.54
31.281,115.88
31.296,113.1
31.312,109.65
31.328,106.0
31.343,102.65
31.359,100.13
31.375,98.85
31.390,98.89
31.406,99.95
31.421,101.49
31.437,102.78
31.453,103.0
31.468,101.12
31.484,95.8
31.500,85.58
31.515,69.26
31.531,46.56
31.546,18.69
31.562,-11.56
31.578,-40.43
31.593,-64.26
31.609,-80.68
31.625,-89.33
31.640,-91.97
31.656,-91.79
31.671,-92.35
31.687,-96.31
31.703,-104.51
31.718,-115.74
31.734,-127.27
31.750,-136.09
31.765,-140.19
31.781,-139.39
31.796,-135.18
31.812,-129.75
31.828,-124.77
31.843,-120.66
31.859,-116.71
31.875,-111.92
31.890,-105.97
31.906,-99.6
31.921,-94.11
31.937,-90.41
31.953,-88.31
31.968,-86.32
31.984,-82.45
32.000,-75.14
32.015,-64.09
32.031,-50.42
32.046,-36.35
32.062,-24.36
32.078,-16.34
32.093,-13.07
32.109,-14.12
32.125,-18.2
32.140,-23.64
32.156,-29.1
32.171,-33.81
32.187,-37.76
32.203,-41.49
32.218,-45.76
32.234,-51.2
32.250,-58.06
32.265,-66.08
32.281,-74.63
32.296,-82.85
32.312,-89.83
32.328,-94.8
32.343,-97.15
32.359,-96.49
32.375,-92.63
32.390,-85.59
32.406,-75.67
32.421,-63.53
32.437,-50.04
32.453,-36.17
32.468,-22.78
32.484,-10.46
32.500,0.44
32.515,9.67
32.531,17.06
32.546,22.37
32.562,25.41
32.578,26.1
32.593,24.58
32.609,21.15
32.625,16.29
32.640,10.57
32.656,4.53
32.671,-1.27
32.687,-6.3
32.703,-10.16
32.718,-12.58
32.734,-13.5
32.750,-13.05
32.765,-11.55
32.781,-9.33
32.796,-6.7
32.812,-3.82
32.828,-0.71
32.843,2.67
32.859,6.35
32.875,10.23
32.890,14.01
32.906,17.23
32.921,19.37
32.937,19.94
32.953,18.67
32.968,15.55
32.984,10.85
33.000,5.05
33.015,-1.19
33.031,-7.1
33.046,-11.88
33.062,-14.79
33.078,-15.34
33.093,-13.4
33.109,-9.35
33.125,-3.83
33.140,2.37
33.156,8.58
33.171,14.4
33.187,19.7
33.203,24.44
33.218,28.54
33.234,31.81
33.250,34.04
33.265,35.21
33.281,35.51
33.296,35.36
33.312,35.23
33.328,35.48
33.343,36.24
33.359,37.41
33.375,38.82
33.390,40.24
33.406,41.48
33.421,42.4
33.437,42.94
33.453,43.04
33.468,42.73
33.484,42.02
33.500,40.91
33.515,39.41
33.531,37.53
33.546,35.39
33.562,33.31
33.578,31.72
33.593,31.12
33.609,31.84
33.625,33.99
33.640,37.37
33.656,41.49
33.671,45.62
33.687,48.91
33.703,50.59
33.718,50.13
33.734,47.5
33.750,43.13
33.765,37.8
33.781,32.34
33.796,27.22
33.812,22.49
33.828,17.78
33.843,12.66
33.859,6.9
33.875,0.62
33.890,-5.72
33.906,-11.52
33.921,-16.31
33.937,-19.72
33.953,-21.59
33.968,-21.92
33.984,-20.91
34.000,-19.02
34.015,-16.89
34.031,-15.31
34.046,-15.02
34.062,-16.49
34.078,-19.82
34.093,-24.6
34.109,-30.04
34.125,-35.06
34.140,-38.61
34.156,-39.89
34.171,-38.7
34.187,-35.53
34.203,-31.56
34.218,-28.21
34.234,-26.81
34.250,-28.22
34.265,-32.53
34.281,-39.25
34.296,-47.49
34.312,-56.27
34.328,-64.66
34.343,-71.84
34.359,-77.04
34.375,-79.51
34.390,-78.66
34.406,-74.25
34.421,-66.65
34.437,-56.9
34.453,-46.52
34.468,-37.16
34.484,-30.17
34.500,-26.28
34.515,-25.53
34.531,-27.41
34.546,-31.18
34.562,-36.14
34.578,-41.74
34.593,-47.53
34.609,-53.02
34.625,-57.66
34.640,-60.8
34.656,-61.88
34.671,-60.59
34.687,-56.92
34.703,-51.2
34.718,-43.89
34.734,-35.5
34.750,-26.43
34.765,-17.0
34.781,-7.42
34.796,2.09
34.812,11.27
34.828,19.75
34.843,27.14
34.859,33.01
34.875,37.13
34.890,39.46
34.906,40.17
34.921,39.66
34.937,38.37
34.953,36.72
34.968,35.08
34.984,33.87
35.000,33.55
35.015,34.64
35.031,37.62
35.046,42.72
35.062,49.76
35.078,58.2
35.093,67.22
35.109,75.93
35.125,83.49
35.140,89.2
35.156,92.58
35.171,93.42
35.187,91.84
35.203,88.33
35.218,83.54
35.234,77.99
35.250,71.64
35.265,63.78
35.281,53.27
35.296,39.33
35.312,22.18
35.328,3.4
35.343,-14.56
35.359,-29.22
35.375,-39.02
35.390,-43.63
35.406,-43.61
35.421,-39.85
35.437,-33.1
35.453,-24.27
35.468,-14.93
35.484,-7.61
35.500,-5.47
35.515,-11.13
35.531,-25.39
35.546,-46.57
35.562,-70.94
35.578,-94.08
35.593,-112.57
35.609,-124.97
35.625,-131.89
35.640,-135.15
35.656,-136.7
35.671,-137.74
35.687,-138.36
35.703,-137.85
35.718,-135.04
35.734,-128.87
35.750,-118.75
35.765,-104.65
35.781,-87.26
35.796,-67.71
35.812,-47.43
35.828,-27.81
35.843,-10.06
35.859,4.97
35.875,16.83
35.890,25.49
35.906,31.33
35.921,35.12
35.937,37.9
35.953,40.75
35.968,44.49
35.984,49.42
36.000,55.27
36.015,61.36
36.031,67.0
36.046,71.7
36.062,75.26
36.078,77.72
36.093,79.14
36.109,79.44
36.125,78.49
36.140,76.16
36.156,72.5
36.171,67.75
36.187,62.3
36.203,56.5
36.218,50.61
36.234,44.71
36.250,38.82
36.265,32.97
36.281,27.26
36.296,21.78
36.312,16.55
36.328,11.39
36.343,5.97
36.359,-0.04
36.375,-6.65
36.390,-13.45
36.406,-19.53
36.421,-23.73
36.437,-24.94
36.453,-22.41
36.468,-15.99
36.484,-6.13
36.500,6.15
36.515,19.35
36.531,31.6
36.546,40.96
36.562,45.67
36.578,44.71
36.593,38.02
36.609,26.64
36.625,12.45
36.640,-2.36
36.656,-15.81
36.671,-26.55
36.687,-33.98
36.703,-38.11
36.718,-39.34
36.734,-38.23
36.750,-35.35
36.765,-31.27
36.781,-26.51
36.796,-21.51
36.812,-16.65
36.828,-12.2
36.843,-8.34
36.859,-5.24
36.875,-3.05
36.890,-1.96
36.906,-2.06
36.921,-3.33
36.937,-5.55
36.953,-8.42
36.968,-11.61
36.984,-14.97
37.000,-18.49
37.015,-22.32
37.031,-26.71
37.046,-31.82
37.062,-37.62
37.078,-43.79
37.093,-49.64
37.109,-54.2
37.125,-56.4
37.140,-55.36
37.156,-50.72
37.171,-42.71
37.187,-32.21
37.203,-20.43
37.218,-8.67
37.234,1.99
37.250,10.84
37.265,17.5
37.281,21.84
37.296,23.94
37.312,24.0
37.328,22.4
37.343,19.71
37.359,16.56
37.375,13.52
37.390,10.93
37.406,8.83
37.421,6.99
37.437,5.04
37.453,2.68
37.468,-0.18
37.484,-3.41
37.500,-6.68
37.515,-9.6
37.531,-11.85
37.546,-13.25
37.562,-13.72
37.578,-13.32
37.593,-12.13
37.609,-10.35
37.625,-8.28
37.640,-6.39
37.656,-5.2
37.671,-5.18
37.687,-6.6
37.703,-9.47
37.718,-13.58
37.734,-18.68
37.750,-24.62
37.765,-31.3
37.781,-38.56
37.796,-45.94
37.812,-52.55
37.828,-57.19
37.843,-58.59
37.859,-55.95
37.875,-49.08
37.890,-38.53
37.906,-25.31
37.921,-10.57
37.937,4.68
37.953,19.7
37.968,33.95
37.984,46.92
38.000,58.04
38.015,66.72
38.031,72.58
38.046,75.57
38.062,76.12
38.078,74.97
38.093,73.03
38.109,71.02
38.125,69.3
38.140,67.77
38.156,66.02
38.171,63.54
38.187,59.96
38.203,55.21
38.218,49.5
38.234,43.19
38.250,36.57
38.265,29.79
38.281,22.79
38.296,15.46
38.312,7.75
38.328,-0.21
38.343,-8.11
38.359,-15.55
38.375,-22.18
38.390,-27.85
38.406,-32.57
38.421,-36.52
38.437,-39.96
38.453,-43.13
38.468,-46.26
38.484,-49.51
38.500,-52.97
38.515,-56.57
38.531,-59.94
38.546,-62.37
38.562,-62.87
38.578,-60.39
38.593,-54.14
38.609,-43.89
38.625,-30.11
38.640,-13.83
38.656,3.58
38.671,20.9
38.687,37.17
38.703,51.81
38.718,64.34
38.734,74.31
38.750,81.17
38.765,84.44
38.781,83.96
38.796,80.02
38.812,73.41
38.828,65.28
38.843,56.8
38.859,48.85
38.875,41.95
38.890,36.13
38.906,31.18
38.921,26.73
38.937,22.47
38.953,18.21
38.968,13.89
38.984,9.54
39.000,5.1
39.015,0.46
39.031,-4.55
39.046,-10.03
39.062,-15.86
39.078,-21.72
39.093,-27.14
39.109,-31.79
39.125,-35.61
39.140,-38.85
39.156,-41.96
39.171,-45.35
39.187,-49.2
39.203,-53.34
39.218,-57.36
39.234,-60.66
39.250,-62.63
39.265,-62.7
39.281,-60.43
39.296,-55.6
39.312,-48.32
39.328,-39.09
39.343,-28.75
39.359,-18.41
39.375,-9.14
39.390,-1.83
39.406,3.03
39.421,5.38
39.437,5.56
39.453,4.12
39.468,1.75
39.484,-0.94
39.500,-3.42
39.515,-5.36
39.531,-6.58
39.546,-7.05
39.562,-6.94
39.578,-6.46
39.593,-5.89
39.609,-5.41
39.625,-5.08
39.640,-4.84
39.656,-4.62
39.671,-4.35
39.687,-4.07
39.703,-3.86
39.718,-3.77
39.734,-3.85
39.750,-4.08
39.765,-4.46
39.781,-5.03
39.796,-5.86
39.812,-7.05
39.828,-8.67
39.843,-10.73
39.859,-13.17
39.875,-15.96
39.890,-19.12
39.906,-22.75
39.921,-26.94
39.937,-31.68
39.953,-36.69
39.968,-41.43
39.984,-45.13
40.000,-46.91
40.015,-46.15
40.031,-42.6
40.046,-36.54
40.062,-28.69
40.078,-20.0
40.093,-11.43
40.109,-3.75
40.125,2.53
40.140,7.18
40.156,10.12
40.171,11.44
40.187,11.31
40.203,10.02
40.218,8.03
40.234,5.93
40.250,4.36
40.265,3.81
40.281,4.57
40.296,6.58
40.312,9.53
40.328,12.97
40.343,16.52
40.359,19.89
40.375,22.95
40.390,25.67
40.406,28.01
40.421,29.86
40.437,31.04
40.453,31.4
40.468,30.91
40.484,29.75
40.500,28.3
40.515,27.06
40.531,26.46
40.546,26.74
40.562,27.82
40.578,29.32
40.593,30.7
40.609,31.41
40.625,31.14
40.640,29.91
40.656,28.06
40.671,26.26
40.687,25.35
40.703,26.26
40.718,29.76
40.734,36.31
40.750,45.84
40.765,57.74
40.781,70.89
40.796,83.98
40.812,95.83
40.828,105.76
40.843,113.76
40.859,120.31
40.875,126.21
40.890,132.08
40.906,138.18
40.921,144.29
40.937,149.85
40.953,154.27
40.968,157.07
40.984,158.07
41.000,157.44
41.015,155.51
41.031,152.56
41.046,148.76
41.062,143.95
41.078,137.79
41.093,129.85
41.109,119.88
41.125,108.02
41.140,94.9
41.156,81.59
41.171,69.47
41.187,59.97
41.203,54.04
41.218,51.61
41.234,50.99
41.250,48.75
41.265,40.45
41.281,22.2
41.296,-7.45
41.312,-46.28
41.328,-88.78
41.343,-127.9
41.359,-157.6
41.375,-174.86
41.390,-180.16
41.406,-176.37
41.421,-167.0
41.437,-154.75
41.453,-141.18
41.468,-127.26
41.484,-114.09
41.500,-102.82
41.515,-94.07
41.531,-87.28
41.546,-80.63
41.562,-72.11
41.578,-60.85
41.593,-48.16
41.609,-37.29
41.625,-32.12
41.640,-35.24
41.656,-46.58
41.671,-63.19
41.687,-80.27
41.703,-93.03
41.718,-98.27
41.734,-95.16
41.750,-85.05
41.765,-70.56
41.781,-54.5
41.796,-39.23
41.812,-26.36
41.828,-16.85
41.843,-11.19
41.859,-9.43
41.875,-11.08
41.890,-15.12
41.906,-20.15
41.921,-24.72
41.937,-27.82
41.953,-29.14
41.968,-29.03
41.984,-28.37
42.000,-27.99
42.015,-28.46
42.031,-29.83
42.046,-31.74
42.062,-33.56
42.078,-34.59
42.093,-34.17
42.109,-31.76
42.125,-27.02
42.140,-19.97
42.156,-11.03
42.171,-1.02
42.187,9.0
42.203,18.11
42.218,25.66
42.234,31.53
42.250,35.95
42.265,39.3
42.281,41.86
42.296,43.72
42.312,44.83
42.328,45.16
42.343,44.82
42.359,44.12
42.375,43.43
42.390,43.11
42.406,43.33
42.421,44.0
42.437,44.83
42.453,45.42
42.468,45.43
42.484,44.72
42.500,43.43
42.515,41.9
42.531,40.61
42.546,39.97
42.562,40.18
42.578,41.19
42.593,42.64
42.609,43.89
42.625,44.19
42.640,42.75
42.656,38.95
42.671,32.59
42.687,24.04
42.703,14.33
42.718,4.94
42.734,-2.64
42.750,-7.47
42.765,-9.61
42.781,-10.15
42.796,-10.76
42.812,-12.98
42.828,-17.51
42.843,-23.94
42.859,-31.0
42.875,-37.23
42.890,-41.64
42.906,-44.03
42.921,-44.83
42.937,-44.62
42.953,-43.71
42.968,-42.04
42.984,-39.35
43.000,-35.6
43.015,-31.28
43.031,-27.24
43.046,-24.48
43.062,-23.58
43.078,-24.51
43.093,-26.62
43.109,-28.9
43.125,-30.46
43.140,-30.82
43.156,-30.1
43.171,-28.86
43.187,-27.81
43.203,-27.55
43.218,-28.31
43.234,-29.91
43.250,-31.82
43.265,-33.61
43.281,-35.17
43.296,-36.85
43.312,-39.34
43.328,-43.25
43.343,-48.73
43.359,-55.37
43.375,-62.57
43.390,-69.74
43.406,-76.47
43.421,-82.3
43.437,-86.42
43.453,-87.55
43.468,-84.27
43.484,-75.78
43.500,-62.6
43.515,-46.71
43.531,-30.82
43.546,-17.33
43.562,-7.28
43.578,-0.1
43.593,5.9
43.609,12.59
43.625,21.15
43.640,31.72
43.656,43.5
43.671,55.15
43.687,65.2
43.703,72.4
43.718,75.94
43.734,75.59
43.750,71.89
43.765,65.94
43.781,59.22
43.796,53.3
43.812,49.28
43.828,47.65
43.843,48.3
43.859,50.74
43.875,54.43
43.890,58.99
43.906,64.17
43.921,69.88
43.937,76.02
43.953,82.46
43.968,89.07
43.984,95.73
44.000,102.03
44.015,107.03
44.031,109.04
44.046,105.89
44.062,95.66
44.078,77.6
44.093,52.66
44.109,23.54
44.125,-6.19
44.140,-33.19
44.156,-55.23
44.171,-71.45
44.187,-81.92
44.203,-86.99
44.218,-86.81
44.234,-81.35
44.250,-70.77
44.265,-55.81
44.281,-37.92
44.296,-18.84
44.312,-0.19
44.328,17.06
44.343,32.59
44.359,46.45
44.375,58.58
44.390,68.47
44.406,75.18
44.421,77.8
44.437,76.06
44.453,70.78
44.468,63.73
44.484,57.07
44.500,52.51
44.515,50.72
44.531,51.22
44.546,52.82
44.562,54.31
44.578,55.0
44.593,54.87
44.609,54.36
44.625,54.06
44.640,54.43
44.656,55.65
44.671,57.65
44.687,60.0
44.703,62.02
44.718,62.83
44.734,61.59
44.750,57.78
44.765,51.31
44.781,42.52
44.796,31.96
44.812,20.21
44.828,7.82
44.843,-4.68
44.859,-16.74
44.875,-27.84
44.890,-37.71
44.906,-46.42
44.921,-54.19
44.937,-61.27
44.953,-67.52
44.968,-72.36
44.984,-74.98
45.000,-74.66
45.015,-71.21
45.031,-65.07
45.046,-57.13
45.062,-48.47
45.078,-40.0
45.093,-32.23
45.109,-25.31
45.125,-19.2
45.140,-13.87
45.156,-9.41
45.171,-6.05
45.187,-4.03
45.203,-3.45
45.218,-4.17
45.234,-5.79
45.250,-7.81
45.265,-9.78
45.281,-11.42
45.296,-12.63
45.312,-13.45
45.328,-13.91
45.343,-14.03
45.359,-13.85
45.375,-13.43
45.390,-12.96
45.406,-12.67
45.421,-12.74
45.437,-13.22
45.453,-13.91
45.468,-14.52
45.484,-14.8
45.500,-14.7
45.515,-14.6
45.531,-15.24
45.546,-17.6
45.562,-22.57
45.578,-30.69
45.593,-41.93
45.609,-55.74
45.625,-71.16
45.640,-87.02
45.656,-101.98
45.671,-114.63
45.687,-123.63
45.703,-127.86
45.718,-126.83
45.734,-120.81
45.750,-110.88
45.765,-98.51
45.781,-85.24
45.796,-72.2
45.812,-60.05
45.828,-49.11
45.843,-39.69
45.859,-32.28
45.875,-27.55
45.890,-25.99
45.906,-27.6
45.921,-31.61
45.937,-36.48
45.953,-40.26
45.968,-41.12
45.984,-37.89
46.000,-30.35
46.015,-19.32
46.031,-6.22
46.046,7.31
46.062,19.95
46.078,30.85
46.093,39.63
46.109,46.27
46.125,50.94
46.140,53.96
46.156,55.76
46.171,56.81
46.187,57.44
46.203,57.59
46.218,56.77
46.234,54.26
46.250,49.51
46.265,42.69
46.281,34.8
46.296,27.35
46.312,21.69
46.328,18.41
46.343,17.1
46.359,16.69
46.375,16.06
46.390,14.64
46.406,12.42
46.421,9.7
46.437,6.82
46.453,4.12
46.468,2.16
46.484,2.01
46.500,4.95
46.515,11.81
46.531,22.14
46.546,33.89
46.562,43.97
46.578,49.33
46.593,48.22
46.609,40.76
46.625,28.88
46.640,15.52
46.656,3.87
46.671,-3.43
46.687,-4.8
46.703,-0.05
46.718,9.42
46.734,20.91
46.750,31.15
46.765,37.29
46.781,37.79
46.796,32.86
46.812,24.24
46.828,14.49
46.843,6.18
46.859,1.06
46.875,-0.37
46.890,1.0
46.906,3.19
46.921,3.79
46.937,0.77
46.953,-6.67
46.968,-17.84
46.984,-30.78
47.000,-43.26
47.015,-53.62
47.031,-61.43
47.046,-67.37
47.062,-72.5
47.078,-77.6
47.093,-82.71
47.109,-87.18
47.125,-90.08
47.140,-90.75
47.156,-88.96
47.171,-84.93
47.187,-79.11
47.203,-71.98
47.218,-63.95
47.234,-55.38
47.250,-46.67
47.265,-38.3
47.281,-30.72
47.296,-24.25
47.312,-18.97
47.328,-14.76
47.343,-11.29
47.359,-8.19
47.375,-5.02
47.390,-1.35
47.406,3.13
47.421,8.53
47.437,14.62
47.453,20.85
47.468,26.5
47.484,30.9
47.500,33.67
47.515,34.91
47.531,35.03
47.546,34.55
47.562,33.81
47.578,32.89
47.593,31.62
47.609,29.8
47.625,27.34
47.640,24.37
47.656,21.13
47.671,17.85
47.687,14.63
47.703,11.45
47.718,8.19
47.734,4.71
47.750,0.88
47.765,-3.46
47.781,-8.51
47.796,-14.53
47.812,-21.69
47.828,-29.84
47.843,-38.4
47.859,-46.3
47.875,-52.22
47.890,-54.97
47.906,-53.91
47.921,-49.13
47.937,-41.42
47.953,-31.96
47.968,-21.89
47.984,-12.06
48.000,-2.9
48.015,5.46
48.031,13.05
48.046,19.81
48.062,25.65
48.078,30.49
48.093,34.33
48.109,37.3
48.125,39.65
48.140,41.64
48.156,43.47
48.171,45.2
48.187,46.76
48.203,48.08
48.218,49.13
48.234,50.0
48.250,50.83
48.265,51.67
48.281,52.4
48.296,52.66
48.312,52.03
48.328,50.13
48.343,46.81
48.359,42.25
48.375,36.86
48.390,31.21
48.406,25.86
48.421,21.34
48.437,17.98
48.453,15.77
48.468,14.33
48.484,12.84
48.500,10.29
48.515,5.73
48.531,-1.32
48.546,-10.73
48.562,-21.86
48.578,-33.75
48.593,-45.46
48.609,-56.19
48.625,-65.33
48.640,-72.4
48.656,-77.01
48.671,-78.84
48.687,-77.85
48.703,-74.26
48.718,-68.6
48.734,-61.61
48.750,-54.0
48.765,-46.44
48.781,-39.36
48.796,-33.04
48.812,-27.53
48.828,-22.74
48.843,-18.58
48.859,-14.96
48.875,-11.93
48.890,-9.56
48.906,-7.84
48.921,-6.66
48.937,-5.65
48.953,-4.4
48.968,-2.51
48.984,0.17
49.000,3.51
49.015,7.16
49.031,10.76
49.046,14.05
49.062,16.99
49.078,19.68
49.093,22.2
49.109,24.46
49.125,26.16
49.140,26.87
49.156,26.19
49.171,24.01
49.187,20.53
49.203,16.29
49.218,11.94
49.234,8.0
49.250,4.69
49.265,1.83
49.281,-1.0
49.296,-4.25
49.312,-8.2
49.328,-12.8
49.343,-17.58
49.359,-21.78
49.375,-24.51
49.390,-25.0
49.406,-22.82
49.421,-17.94
49.437,-10.76
49.453,-1.95
49.468,7.78
49.484,17.84
49.500,27.86
49.515,37.59
49.531,46.84
49.546,55.51
49.562,63.51
49.578,70.9
49.593,77.8
49.609,84.25
49.625,90.08
49.640,94.81
49.656,97.71
49.671,98.17
49.687,95.98
49.703,91.46
49.718,85.33
49.734,78.37
49.750,71.06
49.765,63.59
49.781,56.16
49.796,49.32
49.812,43.99
49.828,41.1
49.843,40.9
49.859,42.48
49.875,43.87
49.890,42.75
49.906,37.55
49.921,28.1
49.937,15.68
49.953,2.29
49.968,-10.19
49.984,-20.6
50.000,-28.51
50.015,-33.87
50.031,-36.75
50.046,-37.34
50.062,-36.18
50.078,-34.25
50.093,-32.72
50.109,-32.47
50.125,-33.72
50.140,-35.91
50.156,-37.99
50.171,-38.83
50.187,-37.42
50.203,-32.94
50.218,-24.92
50.234,-13.41
50.250,0.68
50.265,15.45
50.281,28.39
50.296,37.15
50.312,40.4
50.328,38.32
50.343,32.56
50.359,25.63
50.375,20.12
50.390,18.14
50.406,20.76
50.421,27.89
50.437,38.15
50.453,49.18
50.468,58.25
50.484,63.06
50.500,62.51
50.515,56.98
50.531,48.15
50.546,38.28
50.562,29.51
50.578,23.16
50.593,19.45
50.609,17.45
50.625,15.35
50.640,10.99
50.656,2.55
50.671,-10.75
50.687,-28.24
50.703,-47.97
50.718,-67.24
50.734,-83.53
50.750,-95.18
50.765,-101.77
50.781,-103.9
50.796,-102.76
50.812,-99.53
50.828,-95.13
50.843,-90.03
50.859,-84.32
50.875,-77.87
50.890,-70.49
50.906,-62.05
50.921,-52.6
50.937,-42.35
50.953,-31.69
50.968,-21.1
50.984,-11.05
51.000,-1.87
51.015,6.34
51.031,13.71
51.046,20.46
51.062,26.75
51.078,32.48
51.093,37.26
51.109,40.42
51.125,41.34
51.140,39.68
51.156,35.62
51.171,29.82
51.187,23.22
51.203,16.64
51.218,10.5
51.234,4.74
51.250,-1.11
51.265,-7.49
51.281,-14.44
51.296,-21.36
51.312,-27.05
51.328,-30.16
51.343,-29.71
51.359,-25.67
51.375,-19.07
51.390,-11.76
51.406,-5.82
51.421,-2.92
51.437,-3.84
51.453,-8.42
51.468,-15.6
51.484,-23.77
51.500,-30.95
51.515,-35.2
51.531,-35.31
51.546,-31.5
51.562,-25.76
51.578,-21.42
51.593,-21.72
51.609,-28.13
51.625,-39.28
51.640,-51.18
51.656,-58.91
51.671,-58.78
51.687,-49.91
51.703,-34.24
51.718,-15.3
51.734,3.76
51.750,21.17
51.765,36.54
51.781,49.81
51.796,60.26
51.812,66.2
51.828,65.74
51.843,58.07
51.859,44.29
51.875,27.37
51.890,11.15
51.906,-1.13
51.921,-7.95
51.937,-9.73
51.953,-8.12
51.968,-4.89
51.984,-0.87
52.000,4.2
52.015,11.22
52.031,20.75
52.046,32.19
52.062,43.58
52.078,52.16
52.093,55.44
52.109,52.11
52.125,42.57
52.140,28.61
52.156,12.65
52.171,-3.04
52.187,-17.0
52.203,-28.65
52.218,-38.07
52.234,-45.63
52.250,-51.66
52.265,-56.25
52.281,-59.26
52.296,-60.44
52.312,-59.49
52.328,-56.26
52.343,-50.75
52.359,-43.17
52.375,-33.99
52.390,-23.82
52.406,-13.31
52.421,-3.09
52.437,6.33
52.453,14.51
52.468,21.06
52.484,25.68
52.500,28.25
52.515,28.92
52.531,28.21
52.546,26.98
52.562,26.16
52.578,26.58
52.593,28.6
52.609,32.1
52.625,36.44
52.640,40.77
52.656,44.23
52.671,46.19
52.687,46.34
52.703,44.71
52.718,41.6
52.734,37.45
52.750,32.67
52.765,27.57
52.781,22.26
52.796,16.65
52.812,10.7
52.828,4.46
52.843,-1.75
52.859,-7.45
52.875,-12.17
52.890,-15.75
52.906,-18.47
52.921,-21.05
52.937,-24.36
52.953,-29.03
52.968,-35.21
52.984,-42.4
53.000,-49.65
53.015,-55.81
53.031,-59.89
53.046,-61.29
53.062,-59.9
53.078,-56.06
53.093,-50.46
53.109,-43.9
53.125,-37.26
53.140,-31.33
53.156,-26.73
53.171,-23.91
53.187,-23.04
53.203,-24.09
53.218,-26.82
53.234,-30.86
53.250,-35.69
53.265,-40.83
53.281,-45.85
53.296,-50.42
53.312,-54.33
53.328,-57.4
53.343,-59.48
53.359,-60.35
53.375,-59.75
53.390,-57.46
53.406,-53.4
53.421,-47.7
53.437,-40.78
53.453,-33.27
53.468,-25.93
53.484,-19.43
53.500,-14.23
53.515,-10.48
53.531,-8.03
53.546,-6.51
53.562,-5.52
53.578,-4.75
53.593,-4.06
53.609,-3.54
53.625,-3.39
53.640,-3.9
53.656,-5.3
53.671,-7.65
53.687,-10.74
53.703,-14.09
53.718,-16.97
53.734,-18.64
53.750,-18.52
53.765,-16.36
53.781,-12.26
53.796,-6.56
53.812,0.34
53.828,8.13
53.843,16.62
53.859,25.69
53.875,35.11
53.890,44.49
53.906,53.21
53.921,60.62
53.937,66.23
53.953,69.86
53.968,71.77
53.984,72.6
54.000,73.25
54.015,74.57
54.031,77.19
54.046,81.32
54.062,86.61
54.078,92.02
54.093,95.9
54.109,96.36
54.125,91.69
54.140,81.06
54.156,64.82
54.171,44.58
54.187,22.72
54.203,1.68
54.218,-16.68
54.234,-31.38
54.250,-42.3
54.265,-49.82
54.281,-54.42
54.296,-56.55
54.312,-56.61
54.328,-55.06
54.343,-52.5
54.359,-49.59
54.375,-46.99
54.390,-45.19
54.406,-44.42
54.421,-44.54
54.437,-45.02
54.453,-45.04
54.468,-43.46
54.484,-39.2
54.500,-31.39
54.515,-19.77
54.531,-4.9
54.546,11.66
54.562,27.78
54.578,41.06
54.593,49.56
54.609,52.34
54.625,49.6
54.640,42.63
54.656,33.28
54.671,23.47
54.687,14.83
54.703,8.4
54.718,4.74
54.734,3.89
54.750,5.52
54.765,8.94
54.781,13.39
54.796,18.25
54.812,23.36
54.828,29.07
54.843,35.99
54.859,44.46
54.875,53.87
54.890,62.57
54.906,68.1
54.921,68.05
54.937,61.03
54.953,47.32
54.968,28.76
54.984,8.17
55.000,-11.58
55.015,-28.38
55.031,-41.12
55.046,-49.63
55.062,-54.34
55.078,-55.95
55.093,-55.37
55.109,-53.65
55.125,-51.87
55.140,-50.88
55.156,-51.05
55.171,-51.96
55.187,-52.55
55.203,-51.4
55.218,-47.32
55.234,-39.79
55.250,-29.17
55.265,-16.64
55.281,-3.67
55.296,8.36
55.312,18.6
55.328,26.78
55.343,33.1
55.359,37.98
55.375,41.83
55.390,44.97
55.406,47.72
55.421,50.47
55.437,53.63
55.453,57.48
55.468,62.09
55.484,67.19
55.500,72.34
55.515,77.12
55.531,81.31
55.546,84.95
55.562,88.18
55.578,91.14
55.593,93.77
55.609,95.87
55.625,97.13
55.640,97.33
55.656,96.31
55.671,93.99
55.687,90.27
55.703,85.06
55.718,78.31
55.734,70.18
55.750,61.08
55.765,51.55
55.781,42.16
55.796,33.25
55.812,24.89
55.828,16.87
55.843,8.94
55.859,1.04
55.875,-6.59
55.890,-13.41
55.906,-18.64
55.921,-21.54
55.937,-21.59
55.953,-18.63
55.968,-12.97
55.984,-5.31
56.000,3.35
56.015,11.85
56.031,19.13
56.046,24.45
56.062,27.52
56.078,28.58
56.093,28.27
56.109,27.29
56.125,26.22
56.140,25.28
56.156,24.44
56.171,23.46
56.187,22.22
56.203,20.72
56.218,19.1
56.234,17.47
56.250,15.79
56.265,13.82
56.281,11.3
56.296,8.09
56.312,4.19
56.328,-0.24
56.343,-5.1
56.359,-10.52
56.375,-16.84
56.390,-24.46
56.406,-33.56
56.421,-43.9
56.437,-54.73
56.453,-64.96
56.468,-73.5
56.484,-79.64
56.500,-83.24
56.515,-84.7
56.531,-84.75
56.546,-84.11
56.562,-83.42
56.578,-83.16
56.593,-83.71
56.609,-85.45
56.625,-88.46
56.640,-92.41
56.656,-96.29
56.671,-98.64
56.687,-98.01
56.703,-93.51
56.718,-85.31
56.734,-74.56
56.750,-62.93
56.765,-51.96
56.781,-42.53
56.796,-34.85
56.812,-28.59
56.828,-23.4
56.843,-19.17
56.859,-15.98
56.875,-14.0
56.890,-13.2
56.906,-13.23
56.921,-13.52
56.937,-13.45
56.953,-12.63
56.968,-10.96
56.984,-8.65
57.000,-6.0
57.015,-3.34
57.031,-0.84
57.046,1.4
57.062,3.36
57.078,4.92
57.093,5.96
57.109,6.33
57.125,5.99
57.140,5.12
57.156,4.05
57.171,3.17
57.187,2.71
57.203,2.6
57.218,2.46
57.234,1.76
57.250,0.02
57.265,-2.9
57.281,-6.7
57.296,-10.8
57.312,-14.53
57.328,-17.38
57.343,-19.21
57.359,-20.26
57.375,-20.98
57.390,-21.9
57.406,-23.37
57.421,-25.42
57.437,-27.71
57.453,-29.57
57.468,-30.1
57.484,-28.43
57.500,-24.0
57.515,-16.72
57.531,-7.13
57.546,3.89
57.562,15.33
57.578,26.37
57.593,36.45
57.609,45.27
57.625,52.65
57.640,58.38
57.656,62.3
57.671,64.42
57.687,64.98
57.703,64.53
57.718,63.7
57.734,62.99
57.750,62.59
57.765,62.37
57.781,62.09
57.796,61.64
57.812,61.16
57.828,60.9
57.843,61.08
57.859,61.54
57.875,61.77
57.890,61.04
57.906,58.69
57.921,54.44
57.937,48.52
57.953,41.61
57.968,34.59
57.984,28.28
58.000,23.16
58.015,19.3
58.031,16.38
58.046,13.83
58.062,11.04
58.078,7.65
58.093,3.6
58.109,-0.66
58.125,-4.31
58.140,-6.22
58.156,-5.26
58.171,-0.83
58.187,6.5
58.203,14.62
58.218,20.05
58.234,18.84
58.250,8.16
58.265,-12.32
58.281,-39.79
58.296,-68.81
58.312,-93.03
58.328,-107.32
58.343,-109.37
58.359,-100.23
58.375,-83.53
58.390,-63.84
58.406,-44.85
58.421,-28.46
58.437,-14.66
58.453,-2.5
58.468,8.85
58.484,19.36
58.500,28.29
58.515,34.77
58.531,38.66
58.546,40.71
58.562,42.12
58.578,43.76
58.593,45.63
58.609,46.98
58.625,47.05
58.640,45.75
58.656,44.0
58.671,43.2
58.687,44.37
58.703,47.5
58.718,51.42
58.734,54.34
58.750,54.58
58.765,51.2
58.781,44.22
58.796,34.53
58.812,23.64
58.828,13.44
58.843,5.71
58.859,1.71
58.875,1.65
58.890,4.44
58.906,8.04
58.921,10.1
58.937,8.84
58.953,3.57
58.968,-5.23
58.984,-16.41
59.000,-28.6
59.015,-40.64
59.031,-51.54
59.046,-60.37
59.062,-66.27
59.078,-68.71
59.093,-67.84
59.109,-64.56
59.125,-60.27
59.140,-56.34
59.156,-53.53
59.171,-51.8
59.187,-50.44
59.203,-48.52
59.218,-45.27
59.234,-40.34
59.250,-33.99
59.265,-27.08
59.281,-20.96
59.296,-17.28
59.312,-17.53
59.328,-22.48
59.343,-31.77
59.359,-43.9
59.375,-56.6
59.390,-67.54
59.406,-75.01
59.421,-78.28
59.437,-77.45
59.453,-73.15
59.468,-66.12
59.484,-57.08
59.500,-46.79
59.515,-36.14
59.531,-26.11
59.546,-17.53
59.562,-10.87
59.578,-5.99
59.593,-2.38
59.609,0.71
59.625,3.8
59.640,7.0
59.656,10.13
59.671,12.83
59.687,14.9
59.703,16.4
59.718,17.59
59.734,18.73
59.750,19.91
59.765,20.87
59.781,21.19
59.796,20.36
59.812,18.02
59.828,14.1
59.843,8.85
59.859,2.69
59.875,-3.73
59.890,-9.74
59.906,-14.54
59.921,-17.4
59.937,-17.65
59.953,-14.89
59.968,-9.1
59.984,-0.63
