timestamp,value
00.000,-215.5
00.015,-227.19
00.031,-228.49
00.046,-221.54
00.062,-208.38
00.078,-190.65
00.093,-169.66
00.109,-146.87
00.125,-123.96
00.140,-102.64
00.156,-84.09
00.171,-68.63
00.187,-55.63
00.203,-43.92
00.218,-32.47
00.234,-20.81
00.250,-9.28
00.265,1.28
00.281,10.0
00.296,16.5
00.312,21.04
00.328,24.37
00.343,27.36
00.359,30.62
00.375,34.27
00.390,38.01
00.406,41.24
00.421,43.25
00.437,43.34
00.453,41.0
00.468,36.11
00.484,28.98
00.500,20.4
00.515,11.37
00.531,2.89
00.546,-4.42
00.562,-10.36
00.578,-15.03
00.593,-18.71
00.609,-21.72
00.625,-24.37
00.640,-26.99
00.656,-29.75
00.671,-32.52
00.687,-34.82
00.703,-35.76
00.718,-34.49
00.734,-30.55
00.750,-24.04
00.765,-15.61
00.781,-6.06
00.796,3.95
00.812,14.0
00.828,23.8
00.843,32.95
00.859,40.8
00.875,46.58
00.890,49.75
00.906,50.23
00.921,48.64
00.937,46.08
00.953,43.78
00.968,42.77
00.984,43.49
01.000,45.83
01.015,49.19
01.031,52.76
01.046,55.87
01.062,58.28
01.078,60.21
01.093,62.27
01.109,65.23
01.125,69.73
01.140,76.16
01.156,84.52
01.171,94.3
01.187,104.16
01.203,111.8
01.218,114.07
01.234,107.64
01.250,90.18
01.265,61.39
01.281,23.54
01.296,-19.01
01.312,-61.04
01.328,-98.07
01.343,-127.39
01.359,-148.29
01.375,-161.45
01.390,-167.98
01.406,-168.74
01.421,-164.16
01.437,-154.51
01.453,-140.28
01.468,-122.36
01.484,-102.01
01.500,-80.57
01.515,-59.24
01.531,-38.88
01.546,-19.97
01.562,-2.66
01.578,12.99
01.593,26.87
01.609,38.62
01.625,47.86
01.640,54.45
01.656,58.94
01.671,62.63
01.687,67.13
01.703,73.45
01.718,81.18
01.734,88.21
01.750,91.49
01.765,88.35
01.781,77.94
01.796,61.66
01.812,42.63
01.828,24.3
01.843,9.1
01.859,-2.2
01.875,-10.14
01.890,-15.65
01.906,-19.29
01.921,-21.01
01.937,-20.56
01.953,-18.05
01.968,-14.26
01.984,-10.36
02.000,-7.48
02.015,-6.05
02.031,-5.72
02.046,-5.63
02.062,-4.89
02.078,-3.16
02.093,-0.81
02.109,1.16
02.125,1.6
02.140,-0.36
02.156,-4.95
02.171,-11.68
02.187,-19.35
02.203,-26.25
02.218,-30.48
02.234,-30.36
02.250,-25.07
02.265,-15.16
02.281,-2.69
02.296,9.21
02.312,17.31
02.328,19.42
02.343,15.21
02.359,6.08
02.375,-5.39
02.390,-16.58
02.406,-25.56
02.421,-31.38
02.437,-33.84
02.453,-33.09
02.468,-29.39
02.484,-23.13
02.500,-15.06
02.515,-6.2
02.531,2.42
02.546,10.18
02.562,17.18
02.578,24.17
02.593,32.03
02.609,41.28
02.625,51.61
02.640,61.97
02.656,70.98
02.671,77.48
02.687,80.9
02.703,81.34
02.718,79.57
02.734,76.82
02.750,74.65
02.765,74.37
02.781,76.24
02.796,78.68
02.812,78.06
02.828,69.53
02.843,48.85
02.859,14.44
02.875,-31.43
02.890,-82.97
02.906,-132.75
02.921,-174.1
02.937,-202.96
02.953,-218.35
02.968,-221.5
02.984,-214.46
03.000,-199.13
03.015,-177.05
03.031,-149.87
03.046,-119.71
03.062,-89.22
03.078,-60.96
03.093,-36.76
03.109,-17.2
03.125,-1.62
03.140,11.46
03.156,23.5
03.171,35.44
03.187,47.36
03.203,58.68
03.218,68.53
03.234,76.34
03.250,82.09
03.265,86.36
03.281,89.96
03.296,93.49
03.312,97.2
03.328,101.05
03.343,105.0
03.359,109.08
03.375,113.04
03.390,115.75
03.406,114.99
03.421,107.87
03.437,92.04
03.453,67.01
03.468,34.87
03.484,-0.14
03.500,-33.07
03.515,-60.03
03.531,-79.18
03.546,-90.78
03.562,-96.21
03.578,-96.95
03.593,-93.92
03.609,-87.69
03.625,-78.96
03.640,-68.86
03.656,-58.9
03.671,-50.32
03.687,-43.43
03.703,-37.29
03.718,-30.07
03.734,-19.81
03.750,-5.34
03.765,13.14
03.781,34.03
03.796,54.96
03.812,73.81
03.828,89.37
03.843,101.59
03.859,111.14
03.875,118.78
03.890,124.96
03.906,129.82
03.921,133.44
03.937,135.8
03.953,136.47
03.968,134.13
03.984,126.39
04.000,110.54
04.015,84.85
04.031,49.92
04.046,9.17
04.062,-31.91
04.078,-67.5
04.093,-93.27
04.109,-107.55
04.125,-111.15
04.140,-106.42
04.156,-96.06
04.171,-82.23
04.187,-66.34
04.203,-49.23
04.218,-31.41
04.234,-13.38
04.250,4.32
04.265,21.0
04.281,35.95
04.296,48.53
04.312,58.28
04.328,65.09
04.343,69.06
04.359,70.53
04.375,70.1
04.390,68.81
04.406,68.22
04.421,70.02
04.437,75.18
04.453,82.79
04.468,89.49
04.484,90.16
04.500,79.68
04.515,55.26
04.531,18.13
04.546,-26.6
04.562,-71.59
04.578,-109.93
04.593,-137.17
04.609,-152.16
04.625,-156.14
04.640,-151.42
04.656,-140.11
04.671,-123.89
04.687,-104.34
04.703,-83.42
04.718,-63.47
04.734,-46.61
04.750,-33.91
04.765,-24.87
04.781,-17.73
04.796,-10.23
04.812,-0.89
04.828,10.3
04.843,21.85
04.859,31.52
04.875,37.43
04.890,38.72
04.906,35.86
04.921,30.35
04.937,24.31
04.953,19.93
04.968,18.93
04.984,21.81
05.000,27.21
05.015,31.73
05.031,30.61
05.046,19.36
05.062,-4.28
05.078,-39.09
05.093,-80.37
05.109,-121.46
05.125,-155.98
05.140,-179.61
05.156,-190.72
05.171,-189.9
05.187,-178.74
05.203,-159.15
05.218,-133.1
05.234,-102.99
05.250,-71.72
05.265,-42.44
05.281,-17.73
05.296,1.19
05.312,14.81
05.328,24.93
05.343,33.7
05.359,42.62
05.375,51.96
05.390,60.84
05.406,67.98
05.421,72.36
05.437,73.68
05.453,72.43
05.468,69.71
05.484,66.97
05.500,65.78
05.515,67.32
05.531,71.76
05.546,77.6
05.562,81.65
05.578,79.82
05.593,68.67
05.609,47.08
05.625,17.06
05.640,-16.8
05.656,-48.92
05.671,-74.78
05.687,-92.19
05.703,-101.4
05.718,-104.16
05.734,-102.49
05.750,-97.77
05.765,-90.67
05.781,-81.52
05.796,-70.69
05.812,-58.76
05.828,-46.23
05.843,-33.27
05.859,-19.67
05.875,-5.01
05.890,10.83
05.906,27.33
05.921,43.36
05.937,57.42
05.953,68.19
05.968,74.85
05.984,77.25
06.000,75.93
06.015,72.24
06.031,68.16
06.046,65.82
06.062,66.63
06.078,70.27
06.093,74.13
06.109,73.96
06.125,65.42
06.140,46.23
06.156,17.55
06.171,-16.19
06.187,-48.92
06.203,-75.33
06.218,-92.58
06.234,-100.8
06.250,-102.11
06.265,-99.11
06.281,-93.73
06.296,-87.0
06.312,-79.53
06.328,-72.1
06.343,-65.93
06.359,-62.36
06.375,-62.08
06.390,-64.58
06.406,-68.09
06.421,-70.13
06.437,-68.36
06.453,-61.56
06.468,-50.03
06.484,-35.34
06.500,-19.68
06.515,-4.99
06.531,7.71
06.546,18.41
06.562,27.8
06.578,36.63
06.593,45.17
06.609,53.06
06.625,59.48
06.640,63.57
06.656,64.9
06.671,63.73
06.687,60.91
06.703,57.62
06.718,54.91
06.734,53.38
06.750,52.9
06.765,52.66
06.781,51.49
06.796,48.26
06.812,42.46
06.828,34.44
06.843,25.37
06.859,16.85
06.875,10.31
06.890,6.47
06.906,5.0
06.921,4.8
06.937,4.45
06.953,2.87
06.968,-0.32
06.984,-4.7
07.000,-9.28
07.015,-12.95
07.031,-14.8
07.046,-14.41
07.062,-11.77
07.078,-7.13
07.093,-0.78
07.109,7.03
07.125,15.96
07.140,25.53
07.156,35.29
07.171,45.14
07.187,55.41
07.203,66.53
07.218,78.15
07.234,88.27
07.250,93.1
07.265,88.02
07.281,69.56
07.296,37.36
07.312,-5.12
07.328,-51.38
07.343,-94.26
07.359,-128.21
07.375,-150.73
07.390,-162.13
07.406,-164.36
07.421,-159.63
07.437,-149.69
07.453,-135.99
07.468,-120.17
07.484,-104.32
07.500,-90.7
07.515,-81.01
07.531,-75.77
07.546,-74.18
07.562,-74.54
07.578,-75.01
07.593,-74.37
07.609,-72.38
07.625,-69.61
07.640,-66.93
07.656,-64.88
07.671,-63.26
07.687,-61.11
07.703,-57.09
07.718,-50.06
07.734,-39.6
07.750,-26.15
07.765,-10.85
07.781,4.79
07.796,19.49
07.812,32.43
07.828,43.42
07.843,52.71
07.859,60.7
07.875,67.72
07.890,73.86
07.906,79.1
07.921,83.32
07.937,86.59
07.953,89.08
07.968,90.99
07.984,92.37
08.000,92.99
08.015,92.32
08.031,89.76
08.046,84.85
08.062,77.51
08.078,68.14
08.093,57.5
08.109,46.5
08.125,35.91
08.140,26.2
08.156,17.55
08.171,9.91
08.187,3.21
08.203,-2.58
08.218,-7.51
08.234,-11.71
08.250,-15.49
08.265,-19.33
08.281,-23.76
08.296,-29.13
08.312,-35.43
08.328,-42.19
08.343,-48.65
08.359,-53.84
08.375,-56.85
08.390,-56.93
08.406,-53.74
08.421,-47.4
08.437,-38.5
08.453,-28.0
08.468,-16.97
08.484,-6.36
08.500,3.2
08.515,11.41
08.531,18.24
08.546,23.72
08.562,27.9
08.578,30.85
08.593,32.67
08.609,33.63
08.625,34.04
08.640,34.27
08.656,34.53
08.671,34.93
08.687,35.44
08.703,36.03
08.718,36.61
08.734,37.07
08.750,37.24
08.765,36.95
08.781,36.1
08.796,34.72
08.812,33.0
08.828,31.25
08.843,29.73
08.859,28.62
08.875,27.91
08.890,27.47
08.906,27.06
08.921,26.37
08.937,25.09
08.953,22.95
08.968,19.81
08.984,15.83
09.000,11.49
09.015,7.65
09.031,5.34
09.046,5.45
09.062,8.38
09.078,13.76
09.093,20.47
09.109,26.95
09.125,31.64
09.140,33.54
09.156,32.42
09.171,28.87
09.187,23.93
09.203,18.75
09.218,14.22
09.234,10.85
09.250,8.81
09.265,8.06
09.281,8.45
09.296,9.84
09.312,12.03
09.328,14.85
09.343,18.11
09.359,21.62
09.375,25.22
09.390,28.74
09.406,32.05
09.421,35.03
09.437,37.52
09.453,39.39
09.468,40.5
09.484,40.86
09.500,40.55
09.515,39.8
09.531,38.94
09.546,38.23
09.562,37.74
09.578,37.31
09.593,36.42
09.609,34.36
09.625,30.33
09.640,23.77
09.656,14.57
09.671,3.29
09.687,-8.85
09.703,-20.25
09.718,-29.3
09.734,-34.85
09.750,-36.55
09.765,-34.88
09.781,-30.88
09.796,-25.79
09.812,-20.57
09.828,-15.77
09.843,-11.47
09.859,-7.47
09.875,-3.56
09.890,0.31
09.906,3.97
09.921,7.18
09.937,9.76
09.953,11.69
09.968,13.15
09.984,14.34
10.000,15.44
10.015,16.44
10.031,17.25
10.046,17.78
10.062,18.07
10.078,18.36
10.093,18.98
10.109,20.21
10.125,22.01
10.140,24.02
10.156,25.54
10.171,25.83
10.187,24.37
10.203,21.01
10.218,15.98
10.234,9.77
10.250,2.89
10.265,-4.27
10.281,-11.48
10.296,-18.68
10.312,-25.8
10.328,-32.79
10.343,-39.57
10.359,-46.05
10.375,-52.16
10.390,-57.75
10.406,-62.53
10.421,-65.95
10.437,-67.27
10.453,-65.72
10.468,-60.76
10.484,-52.38
10.500,-41.12
10.515,-27.96
10.531,-13.99
10.546,-0.07
10.562,13.3
10.578,26.0
10.593,38.11
10.609,49.68
10.625,60.63
10.640,70.89
10.656,80.43
10.671,89.33
10.687,97.8
10.703,105.99
10.718,113.9
10.734,121.36
10.750,128.13
10.765,133.98
10.781,138.84
10.796,142.92
10.812,146.74
10.828,151.08
10.843,156.59
10.859,163.15
10.875,169.3
10.890,172.25
10.906,168.47
10.921,155.09
10.937,131.16
10.953,98.23
10.968,59.89
10.984,20.61
11.000,-15.62
11.015,-46.1
11.031,-69.51
11.046,-85.7
11.062,-95.48
11.078,-100.55
11.093,-103.44
11.109,-107.05
11.125,-113.85
11.140,-125.01
11.156,-139.83
11.171,-156.06
11.187,-170.73
11.203,-181.22
11.218,-185.98
11.234,-184.77
11.250,-178.36
11.265,-168.1
11.281,-155.41
11.296,-141.51
11.312,-127.2
11.328,-112.84
11.343,-98.45
11.359,-83.83
11.375,-68.81
11.390,-53.19
11.406,-36.81
11.421,-19.61
11.437,-1.73
11.453,16.32
11.468,33.59
11.484,48.9
11.500,61.26
11.515,70.21
11.531,76.09
11.546,79.79
11.562,82.48
11.578,85.17
11.593,88.63
11.609,93.16
11.625,98.48
11.640,103.43
11.656,105.76
11.671,102.54
11.687,90.97
11.703,69.56
11.718,39.1
11.734,2.68
11.750,-35.22
11.765,-70.09
11.781,-98.73
11.796,-119.76
11.812,-133.2
11.828,-139.82
11.843,-140.43
11.859,-135.81
11.875,-126.95
11.890,-115.33
11.906,-102.83
11.921,-91.27
11.937,-81.98
11.953,-75.36
11.968,-71.11
11.984,-68.46
12.000,-66.54
12.015,-64.69
12.031,-62.43
12.046,-59.41
12.062,-55.24
12.078,-49.51
12.093,-41.82
12.109,-31.92
12.125,-19.91
12.140,-6.26
12.156,8.24
12.171,22.69
12.187,36.35
12.203,48.79
12.218,59.96
12.234,70.0
12.250,79.04
12.265,86.99
12.281,93.46
12.296,97.99
12.312,100.26
12.328,100.28
12.343,98.48
12.359,95.58
12.375,92.38
12.390,89.55
12.406,87.44
12.421,86.02
12.437,84.89
12.453,83.56
12.468,81.59
12.484,78.93
12.500,75.9
12.515,73.05
12.531,70.87
12.546,69.49
12.562,68.61
12.578,67.68
12.593,66.18
12.609,63.94
12.625,61.07
12.640,57.86
12.656,54.79
12.671,52.39
12.687,51.17
12.703,51.15
12.718,51.33
12.734,49.3
12.750,41.39
12.765,23.59
12.781,-6.89
12.796,-50.04
12.812,-102.4
12.828,-157.56
12.843,-207.95
12.859,-246.95
12.875,-270.57
12.890,-278.08
12.906,-271.44
12.921,-254.12
12.937,-229.81
12.953,-201.67
12.968,-172.11
12.984,-142.98
13.000,-115.75
13.015,-91.61
13.031,-71.35
13.046,-55.06
13.062,-42.14
13.078,-31.45
13.093,-21.82
13.109,-12.42
13.125,-3.06
13.140,5.85
13.156,13.56
13.171,19.45
13.187,23.32
13.203,25.47
13.218,26.67
13.234,27.77
13.250,29.48
13.265,32.07
13.281,35.37
13.296,38.9
13.312,42.05
13.328,44.37
13.343,45.67
13.359,46.15
13.375,46.21
13.390,46.37
13.406,46.99
13.421,48.09
13.437,49.34
13.453,50.12
13.468,49.83
13.484,48.0
13.500,44.34
13.515,38.77
13.531,31.39
13.546,22.67
13.562,13.66
13.578,5.97
13.593,1.21
13.609,0.15
13.625,1.87
13.640,3.66
13.656,1.85
13.671,-6.6
13.687,-22.53
13.703,-43.99
13.718,-66.87
13.734,-86.7
13.750,-100.3
13.765,-106.78
13.781,-107.14
13.796,-103.23
13.812,-96.51
13.828,-87.66
13.843,-76.87
13.859,-64.51
13.875,-51.64
13.890,-39.83
13.906,-30.54
13.921,-24.34
13.937,-20.63
13.953,-17.98
13.968,-14.84
13.984,-10.28
14.000,-4.4
14.015,1.93
14.031,7.58
14.046,11.77
14.062,14.41
14.078,16.01
14.093,17.34
14.109,19.05
14.125,21.31
14.140,23.91
14.156,26.34
14.171,28.17
14.187,29.29
14.203,29.97
14.218,30.8
14.234,32.45
14.250,35.29
14.265,39.19
14.281,43.46
14.296,47.07
14.312,49.14
14.328,49.25
14.343,47.72
14.359,45.39
14.375,43.25
14.390,42.08
14.406,42.22
14.421,43.73
14.437,46.63
14.453,51.17
14.468,57.81
14.484,66.86
14.500,78.29
14.515,91.57
14.531,105.77
14.546,119.58
14.562,131.27
14.578,138.43
14.593,138.03
14.609,126.98
14.625,103.21
14.640,66.81
14.656,20.66
14.671,-29.88
14.687,-78.38
14.703,-119.1
14.718,-148.51
14.734,-165.77
14.750,-172.2
14.765,-170.25
14.781,-162.34
14.796,-150.47
14.812,-136.14
14.828,-120.67
14.843,-105.37
14.859,-91.47
14.875,-79.88
14.890,-70.92
14.906,-64.27
14.921,-59.15
14.937,-54.78
14.953,-50.67
14.968,-46.82
14.984,-43.58
15.000,-41.4
15.015,-40.53
15.031,-40.88
15.046,-42.12
15.062,-43.87
15.078,-45.87
15.093,-48.12
15.109,-50.69
15.125,-53.55
15.140,-56.31
15.156,-58.13
15.171,-57.93
15.187,-54.73
15.203,-48.04
15.218,-38.16
15.234,-26.04
15.250,-13.04
15.265,-0.43
15.281,10.92
15.296,20.72
15.312,29.18
15.328,36.76
15.343,43.85
15.359,50.56
15.375,56.61
15.390,61.54
15.406,64.84
15.421,66.4
15.437,66.61
15.453,66.35
15.468,66.59
15.484,67.98
15.500,70.41
15.515,73.08
15.531,74.9
15.546,75.05
15.562,73.48
15.578,70.96
15.593,68.69
15.609,67.69
15.625,68.23
15.640,69.7
15.656,70.99
15.671,71.01
15.687,69.29
15.703,66.08
15.718,62.22
15.734,58.74
15.750,56.64
15.765,56.66
15.781,59.16
15.796,63.68
15.812,68.51
15.828,70.54
15.843,65.74
15.859,50.52
15.875,23.31
15.890,-14.19
15.906,-57.12
15.921,-98.81
15.937,-132.9
15.953,-155.24
15.968,-164.76
15.984,-163.02
16.000,-152.94
16.015,-137.53
16.031,-119.12
16.046,-99.33
16.062,-79.42
16.078,-60.51
16.093,-43.6
16.109,-29.42
16.125,-18.11
16.140,-9.34
16.156,-2.32
16.171,3.8
16.187,9.63
16.203,15.39
16.218,20.94
16.234,25.89
16.250,29.89
16.265,32.83
16.281,34.94
16.296,36.7
16.312,38.62
16.328,40.99
16.343,43.76
16.359,46.51
16.375,48.66
16.390,49.71
16.406,49.45
16.421,47.95
16.437,45.56
16.453,42.69
16.468,39.63
16.484,36.53
16.500,33.39
16.515,30.13
16.531,26.68
16.546,23.09
16.562,19.39
16.578,15.66
16.593,11.86
16.609,7.8
16.625,3.26
16.640,-1.96
16.656,-7.77
16.671,-13.62
16.687,-18.5
16.703,-21.18
16.718,-20.54
16.734,-16.01
16.750,-7.88
16.765,2.73
16.781,14.05
16.796,24.13
16.812,31.33
16.828,34.7
16.843,34.11
16.859,30.14
16.875,23.77
16.890,16.08
16.906,8.04
16.921,0.38
16.937,-6.31
16.953,-11.58
16.968,-15.1
16.984,-16.76
17.000,-16.82
17.015,-15.85
17.031,-14.62
17.046,-13.82
17.062,-13.8
17.078,-14.53
17.093,-15.66
17.109,-16.8
17.125,-17.76
17.140,-18.51
17.156,-19.21
17.171,-20.03
17.187,-21.04
17.203,-22.18
17.218,-23.39
17.234,-24.59
17.250,-25.73
17.265,-26.81
17.281,-27.84
17.296,-28.88
17.312,-29.99
17.328,-31.26
17.343,-32.68
17.359,-34.18
17.375,-35.56
17.390,-36.45
17.406,-36.41
17.421,-34.91
17.437,-31.49
17.453,-25.84
17.468,-17.94
17.484,-8.1
17.500,2.99
17.515,14.46
17.531,25.47
17.546,35.41
17.562,44.01
17.578,51.19
17.593,56.91
17.609,60.98
17.625,63.09
17.640,62.9
17.656,60.29
17.671,55.4
17.687,48.71
17.703,40.83
17.718,32.37
17.734,23.77
17.750,15.29
17.765,7.08
17.781,-0.76
17.796,-8.1
17.812,-14.74
17.828,-20.48
17.843,-25.14
17.859,-28.61
17.875,-30.92
17.890,-32.29
17.906,-32.93
17.921,-32.96
17.937,-32.28
17.953,-30.58
17.968,-27.54
17.984,-23.15
18.000,-17.97
18.015,-13.12
18.031,-10.1
18.046,-10.27
18.062,-14.31
18.078,-21.98
18.093,-32.12
18.109,-42.99
18.125,-52.74
18.140,-59.79
18.156,-63.14
18.171,-62.42
18.187,-57.89
18.203,-50.24
18.218,-40.48
18.234,-29.6
18.250,-18.37
18.265,-7.21
18.281,3.73
18.296,14.42
18.312,24.7
18.328,34.27
18.343,42.75
18.359,49.91
18.375,55.82
18.390,60.8
18.406,65.17
18.421,69.05
18.437,72.22
18.453,74.33
18.468,75.15
18.484,74.68
18.500,73.08
18.515,70.41
18.531,66.38
18.546,60.48
18.562,52.28
18.578,41.83
18.593,29.8
18.609,17.24
18.625,5.22
18.640,-5.62
18.656,-15.17
18.671,-23.73
18.687,-31.65
18.703,-39.04
18.718,-45.75
18.734,-51.49
18.750,-56.07
18.765,-59.49
18.781,-61.85
18.796,-63.25
18.812,-63.53
18.828,-62.27
18.843,-58.94
18.859,-53.11
18.875,-44.71
18.890,-34.22
18.906,-22.57
18.921,-10.88
18.937,-0.11
18.953,9.23
18.968,17.07
18.984,23.64
19.000,29.16
19.015,33.63
19.031,36.85
19.046,38.62
19.062,38.95
19.078,38.16
19.093,36.86
19.109,35.69
19.125,35.16
19.140,35.45
19.156,36.41
19.171,37.67
19.187,38.82
19.203,39.56
19.218,39.77
19.234,39.5
19.250,38.81
19.265,37.65
19.281,35.82
19.296,33.07
19.312,29.23
19.328,24.42
19.343,19.0
19.359,13.52
19.375,8.43
19.390,3.91
19.406,-0.14
19.421,-4.05
19.437,-8.14
19.453,-12.6
19.468,-17.47
19.484,-22.65
19.500,-27.92
19.515,-32.97
19.531,-37.24
19.546,-39.99
19.562,-40.39
19.578,-37.75
19.593,-31.84
19.609,-22.95
19.625,-11.86
19.640,0.42
19.656,12.9
19.671,24.84
19.687,35.82
19.703,45.62
19.718,54.13
19.734,61.3
19.750,67.08
19.765,71.53
19.781,74.89
19.796,77.6
19.812,80.2
19.828,83.24
19.843,87.11
19.859,91.87
19.875,97.25
19.890,102.71
19.906,107.54
19.921,111.13
19.937,113.12
19.953,113.4
19.968,112.03
19.984,108.98
20.000,103.82
20.015,95.69
20.031,83.51
20.046,66.45
20.062,44.44
20.078,18.53
20.093,-9.31
20.109,-36.66
20.125,-61.42
20.140,-82.41
20.156,-99.46
20.171,-113.12
20.187,-124.1
20.203,-132.71
20.218,-138.69
20.234,-141.36
20.250,-139.95
20.265,-133.95
20.281,-123.25
20.296,-108.1
20.312,-89.03
20.328,-66.76
20.343,-42.27
20.359,-16.91
20.375,7.58
20.390,29.26
20.406,46.33
20.421,57.51
20.437,62.46
20.453,61.8
20.468,56.94
20.484,49.79
20.500,42.25
20.515,35.9
20.531,31.74
20.546,30.16
20.562,31.03
20.578,33.93
20.593,38.31
20.609,43.66
20.625,49.53
20.640,55.6
20.656,61.66
20.671,67.62
20.687,73.47
20.703,79.23
20.718,84.88
20.734,90.22
20.750,94.73
20.765,97.61
20.781,97.88
20.796,94.71
20.812,87.73
20.828,77.17
20.843,63.95
20.859,49.3
20.875,34.44
20.890,20.24
20.906,6.96
20.921,-5.59
20.937,-17.82
20.953,-30.03
20.968,-42.14
20.984,-53.66
21.000,-63.85
21.015,-71.94
21.031,-77.3
21.046,-79.56
21.062,-78.61
21.078,-74.59
21.093,-67.79
21.109,-58.74
21.125,-48.24
21.140,-37.21
21.156,-26.58
21.171,-17.02
21.187,-8.84
21.203,-1.89
21.218,4.19
21.234,9.73
21.250,14.88
21.265,19.53
21.281,23.59
21.296,27.06
21.312,30.31
21.328,33.95
21.343,38.6
21.359,44.69
21.375,52.18
21.390,60.65
21.406,69.45
21.421,77.95
21.437,85.72
21.453,92.58
21.468,98.42
21.484,103.13
21.500,106.59
21.515,108.89
21.531,110.62
21.546,112.7
21.562,115.82
21.578,119.66
21.593,122.55
21.609,121.81
21.625,114.75
21.640,99.79
21.656,77.11
21.671,48.56
21.687,16.84
21.703,-15.22
21.718,-45.33
21.734,-71.79
21.750,-93.48
21.765,-109.84
21.781,-120.92
21.796,-127.45
21.812,-130.63
21.828,-131.72
21.843,-131.55
21.859,-130.31
21.875,-127.78
21.890,-123.69
21.906,-118.11
21.921,-111.5
21.937,-104.64
21.953,-98.45
21.968,-93.74
21.984,-90.98
22.000,-90.17
22.015,-90.89
22.031,-92.41
22.046,-94.07
22.062,-95.54
22.078,-96.87
22.093,-98.39
22.109,-100.33
22.125,-102.56
22.140,-104.51
22.156,-105.38
22.171,-104.45
22.187,-101.29
22.203,-95.85
22.218,-88.37
22.234,-79.3
22.250,-69.22
22.265,-58.92
22.281,-49.38
22.296,-41.69
22.312,-36.78
22.328,-35.15
22.343,-36.61
22.359,-40.35
22.375,-45.17
22.390,-49.94
22.406,-53.87
22.421,-56.64
22.437,-58.21
22.453,-58.4
22.468,-56.61
22.484,-51.82
22.500,-43.2
22.515,-30.91
22.531,-16.65
22.546,-3.6
22.562,4.59
22.578,5.05
22.593,-3.04
22.609,-18.18
22.625,-37.14
22.640,-56.19
22.656,-72.27
22.671,-83.71
22.687,-90.09
22.703,-91.88
22.718,-89.83
22.734,-84.78
22.750,-77.49
22.765,-68.72
22.781,-59.15
22.796,-49.2
22.812,-39.15
22.828,-29.1
22.843,-19.22
22.859,-9.67
22.875,-0.62
22.890,7.84
22.906,15.8
22.921,23.4
22.937,30.8
22.953,38.01
22.968,44.97
22.984,51.54
23.000,57.62
23.015,63.05
23.031,67.56
23.046,70.66
23.062,71.74
23.078,70.32
23.093,66.26
23.109,59.96
23.125,52.19
23.140,43.95
23.156,36.03
23.171,28.84
23.187,22.3
23.203,16.0
23.218,9.41
23.234,2.16
23.250,-5.76
23.265,-13.95
23.281,-21.6
23.296,-27.66
23.312,-31.17
23.328,-31.49
23.343,-28.53
23.359,-22.83
23.375,-15.37
23.390,-7.29
23.406,0.44
23.421,7.23
23.437,12.94
23.453,17.73
23.468,21.84
23.484,25.39
23.500,28.29
23.515,30.32
23.531,31.26
23.546,31.1
23.562,30.12
23.578,28.77
23.593,27.5
23.609,26.57
23.625,26.01
23.640,25.64
23.656,25.24
23.671,24.71
23.687,24.08
23.703,23.43
23.718,22.78
23.734,21.96
23.750,20.64
23.765,18.51
23.781,15.37
23.796,11.3
23.812,6.66
23.828,1.9
23.843,-2.58
23.859,-6.58
23.875,-10.15
23.890,-13.49
23.906,-16.83
23.921,-20.33
23.937,-24.06
23.953,-28.07
23.968,-32.45
23.984,-37.3
24.000,-42.65
24.015,-48.22
24.031,-53.4
24.046,-57.26
24.062,-58.8
24.078,-57.3
24.093,-52.64
24.109,-45.28
24.125,-36.22
24.140,-26.53
24.156,-17.11
24.171,-8.48
24.187,-0.79
24.203,6.01
24.218,11.97
24.234,16.97
24.250,20.83
24.265,23.39
24.281,24.66
24.296,25.05
24.312,25.17
24.328,25.75
24.343,27.3
24.359,29.93
24.375,33.3
24.390,36.79
24.406,39.82
24.421,42.07
24.437,43.61
24.453,44.71
24.468,45.62
24.484,46.36
24.500,46.68
24.515,46.19
24.531,44.58
24.546,41.79
24.562,38.05
24.578,33.75
24.593,29.31
24.609,25.05
24.625,21.05
24.640,17.26
24.656,13.5
24.671,9.64
24.687,5.61
24.703,1.43
24.718,-2.84
24.734,-7.16
24.750,-11.45
24.765,-15.56
24.781,-19.12
24.796,-21.51
24.812,-21.91
24.828,-19.62
24.843,-14.29
24.859,-6.16
24.875,4.02
24.890,15.23
24.906,26.55
24.921,37.44
24.937,47.78
24.953,57.74
24.968,67.43
24.984,76.73
25.000,85.32
25.015,92.79
25.031,99.07
25.046,104.47
25.062,109.71
25.078,115.55
25.093,122.48
25.109,130.37
25.125,138.32
25.140,144.9
25.156,148.49
25.171,147.81
25.187,142.27
25.203,132.18
25.218,118.6
25.234,102.94
25.250,86.56
25.265,70.42
25.281,55.0
25.296,40.5
25.312,27.03
25.328,14.74
25.343,3.85
25.359,-5.55
25.375,-13.63
25.390,-20.76
25.406,-27.41
25.421,-33.83
25.437,-39.97
25.453,-45.48
25.468,-49.9
25.484,-52.87
25.500,-54.26
25.515,-54.09
25.531,-52.4
25.546,-49.13
25.562,-44.05
25.578,-36.91
25.593,-27.62
25.609,-16.43
25.625,-4.07
25.640,8.38
25.656,19.71
25.671,28.77
25.687,34.74
25.703,37.18
25.718,35.96
25.734,31.17
25.750,23.07
25.765,12.13
25.781,-0.92
25.796,-15.03
25.812,-28.98
25.828,-41.63
25.843,-52.37
25.859,-61.26
25.875,-69.02
25.890,-76.53
25.906,-84.36
25.921,-92.37
25.937,-99.68
25.953,-105.17
25.968,-107.93
25.984,-107.76
26.000,-105.31
26.015,-101.75
26.031,-98.36
26.046,-96.02
26.062,-95.0
26.078,-95.02
26.093,-95.48
26.109,-95.8
26.125,-95.62
26.140,-94.83
26.156,-93.51
26.171,-91.81
26.187,-89.88
26.203,-87.92
26.218,-86.25
26.234,-85.23
26.250,-85.17
26.265,-85.97
26.281,-86.99
26.296,-87.06
26.312,-84.8
26.328,-79.09
26.343,-69.51
26.359,-56.53
26.375,-41.36
26.390,-25.51
26.406,-10.38
26.421,3.09
26.437,14.51
26.453,23.93
26.468,31.56
26.484,37.61
26.500,42.18
26.515,45.3
26.531,47.09
26.546,47.74
26.562,47.57
26.578,46.88
26.593,45.97
26.609,45.04
26.625,44.23
26.640,43.69
26.656,43.51
26.671,43.71
26.687,44.21
26.703,44.81
26.718,45.22
26.734,45.14
26.750,44.36
26.765,42.81
26.781,40.58
26.796,37.82
26.812,34.72
26.828,31.33
26.843,27.54
26.859,23.06
26.875,17.56
26.890,10.74
26.906,2.5
26.921,-7.02
26.937,-17.4
26.953,-27.99
26.968,-37.98
26.984,-46.62
27.000,-53.44
27.015,-58.5
27.031,-62.38
27.046,-65.91
27.062,-69.76
27.078,-73.91
27.093,-77.67
27.109,-79.97
27.125,-79.94
27.140,-77.41
27.156,-73.03
27.171,-67.86
27.187,-62.93
27.203,-58.73
27.218,-55.18
27.234,-51.92
27.250,-48.6
27.265,-45.07
27.281,-41.34
27.296,-37.38
27.312,-32.91
27.328,-27.59
27.343,-21.16
27.359,-13.76
27.375,-5.98
27.390,1.3
27.406,7.26
27.421,11.42
27.437,13.83
27.453,14.9
27.468,15.23
27.484,15.22
27.500,14.98
27.515,14.39
27.531,13.25
27.546,11.47
27.562,9.18
27.578,6.66
27.593,4.23
27.609,2.06
27.625,0.15
27.640,-1.76
27.656,-4.07
27.671,-7.18
27.687,-11.32
27.703,-16.34
27.718,-21.7
27.734,-26.6
27.750,-30.21
27.765,-31.86
27.781,-31.18
27.796,-28.01
27.812,-22.38
27.828,-14.48
27.843,-4.65
27.859,6.39
27.875,17.7
27.890,28.23
27.906,37.08
27.921,43.8
27.937,48.38
27.953,51.17
27.968,52.57
27.984,52.86
28.000,52.13
28.015,50.41
28.031,47.74
28.046,44.33
28.062,40.49
28.078,36.53
28.093,32.69
28.109,29.12
28.125,25.98
28.140,23.42
28.156,21.64
28.171,20.73
28.187,20.61
28.203,20.92
28.218,21.08
28.234,20.5
28.250,18.83
28.265,16.07
28.281,12.56
28.296,8.85
28.312,5.41
28.328,2.44
28.343,-0.21
28.359,-2.97
28.375,-6.39
28.390,-10.86
28.406,-16.35
28.421,-22.23
28.437,-27.36
28.453,-30.26
28.468,-29.6
28.484,-24.69
28.500,-15.68
28.515,-3.53
28.531,10.36
28.546,24.71
28.562,38.71
28.578,52.16
28.593,65.16
28.609,77.78
28.625,89.67
28.640,100.11
28.656,108.23
28.671,113.45
28.687,115.81
28.703,116.06
28.718,115.38
28.734,115.08
28.750,116.28
28.765,119.69
28.781,125.36
28.796,132.42
28.812,138.67
28.828,140.84
28.843,135.16
28.859,118.68
28.875,90.59
28.890,52.98
28.906,10.4
28.921,-31.46
28.937,-67.71
28.953,-95.49
28.968,-114.36
28.984,-125.52
29.000,-130.71
29.015,-131.27
29.031,-128.02
29.046,-121.63
29.062,-113.13
29.078,-104.03
29.093,-96.01
29.109,-90.39
29.125,-87.67
29.140,-87.41
29.156,-88.37
29.171,-89.09
29.187,-88.23
29.203,-84.93
29.218,-78.89
29.234,-70.26
29.250,-59.46
29.265,-47.0
29.281,-33.34
29.296,-18.83
29.312,-3.89
29.328,10.94
29.343,24.95
29.359,37.23
29.375,46.97
29.390,53.67
29.406,57.4
29.421,58.79
29.437,58.87
29.453,58.74
29.468,59.22
29.484,60.64
29.500,62.76
29.515,65.02
29.531,66.72
29.546,67.37
29.562,66.74
29.578,64.98
29.593,62.39
29.609,59.28
29.625,55.84
29.640,52.01
29.656,47.56
29.671,42.17
29.687,35.58
29.703,27.74
29.718,18.78
29.734,9.06
29.750,-0.89
29.765,-10.49
29.781,-19.19
29.796,-26.57
29.812,-32.53
29.828,-37.41
29.843,-41.89
29.859,-46.81
29.875,-52.76
29.890,-59.55
29.906,-66.03
29.921,-70.2
29.937,-69.83
29.953,-63.36
29.968,-50.52
29.984,-32.62
30.000,-12.08
30.015,8.37
30.031,26.68
30.046,41.93
30.062,54.35
30.078,64.78
30.093,74.1
30.109,82.82
30.125,91.19
30.140,99.29
30.156,107.11
30.171,114.28
30.187,119.66
30.203,121.31
30.218,116.97
30.234,105.03
30.250,85.54
30.265,60.59
30.281,33.76
30.296,8.95
30.312,-10.88
30.328,-24.55
30.343,-32.53
30.359,-36.3
30.375,-37.48
30.390,-37.25
30.406,-36.31
30.421,-35.09
30.437,-34.02
30.453,-33.63
30.468,-34.42
30.484,-36.65
30.500,-40.15
30.515,-44.34
30.531,-48.56
30.546,-52.36
30.562,-55.84
30.578,-59.57
30.593,-64.31
30.609,-70.5
30.625,-77.75
30.640,-84.79
30.656,-89.71
30.671,-90.78
30.687,-87.14
30.703,-79.24
30.718,-68.63
30.734,-57.31
30.750,-46.9
30.765,-38.02
30.781,-30.33
30.796,-22.96
30.812,-15.12
30.828,-6.61
30.843,2.14
30.859,10.37
30.875,17.43
30.890,23.05
30.906,27.36
30.921,30.66
30.937,33.15
30.953,34.82
30.968,35.43
30.984,34.76
31.000,32.74
31.015,29.61
31.031,25.9
31.046,22.24
31.062,19.21
31.078,17.13
31.093,16.03
31.109,15.64
31.125,15.6
31.140,15.56
31.156,15.27
31.171,14.6
31.187,13.47
31.203,11.78
31.218,9.37
31.234,6.1
31.250,1.86
31.265,-3.28
31.281,-9.16
31.296,-15.5
31.312,-22.08
31.328,-28.74
31.343,-35.36
31.359,-41.78
31.375,-47.59
31.390,-52.18
31.406,-54.7
31.421,-54.36
31.437,-50.65
31.453,-43.59
31.468,-33.78
31.484,-22.24
31.500,-10.2
31.515,1.25
31.531,11.36
31.546,19.77
31.562,26.41
31.578,31.39
31.593,34.86
31.609,36.92
31.625,37.75
31.640,37.63
31.656,36.97
31.671,36.24
31.687,35.88
31.703,36.06
31.718,36.68
31.734,37.45
31.750,38.02
31.765,38.18
31.781,37.93
31.796,37.47
31.812,37.01
31.828,36.66
31.843,36.27
31.859,35.46
31.875,33.82
31.890,31.04
31.906,27.19
31.921,22.68
31.937,18.14
31.953,14.07
31.968,10.68
31.984,7.77
32.000,4.95
32.015,1.87
32.031,-1.6
32.046,-5.34
32.062,-9.21
32.078,-13.16
32.093,-17.19
32.109,-21.2
32.125,-24.83
32.140,-27.31
32.156,-27.74
32.171,-25.46
32.187,-20.33
32.203,-12.88
32.218,-4.13
32.234,4.78
32.250,12.95
32.265,19.92
32.281,25.67
32.296,30.36
32.312,34.15
32.328,37.1
32.343,39.16
32.359,40.27
32.375,40.47
32.390,39.9
32.406,38.8
32.421,37.36
32.437,35.73
32.453,33.85
32.468,31.62
32.484,28.86
32.500,25.47
32.515,21.45
32.531,16.95
32.546,12.18
32.562,7.39
32.578,2.66
32.593,-2.12
32.609,-7.26
32.625,-13.05
32.640,-19.57
32.656,-26.54
32.671,-33.45
32.687,-39.77
32.703,-45.22
32.718,-49.94
32.734,-54.32
32.750,-58.77
32.765,-63.41
32.781,-67.95
32.796,-71.8
32.812,-74.33
32.828,-75.07
32.843,-73.83
32.859,-70.57
32.875,-65.34
32.890,-58.17
32.906,-49.17
32.921,-38.68
32.937,-27.26
32.953,-15.64
32.968,-4.52
32.984,5.62
33.000,14.65
33.015,22.66
33.031,29.82
33.046,36.27
33.062,41.98
33.078,46.95
33.093,51.22
33.109,55.04
33.125,58.72
33.140,62.68
33.156,67.12
33.171,72.03
33.187,77.18
33.203,82.11
33.218,86.37
33.234,89.63
33.250,91.74
33.265,92.74
33.281,92.87
33.296,92.39
33.312,91.7
33.328,91.26
33.343,91.53
33.359,92.78
33.375,94.92
33.390,97.33
33.406,99.05
33.421,99.19
33.437,97.32
33.453,93.8
33.468,89.65
33.484,86.14
33.500,84.27
33.515,84.4
33.531,86.15
33.546,88.57
33.562,90.4
33.578,90.29
33.593,87.04
33.609,79.89
33.625,68.76
33.640,54.44
33.656,38.5
33.671,22.86
33.687,9.19
33.703,-1.63
33.718,-9.63
33.734,-15.47
33.750,-19.92
33.765,-23.38
33.781,-25.86
33.796,-27.16
33.812,-27.34
33.828,-26.9
33.843,-26.64
33.859,-27.3
33.875,-29.09
33.890,-31.51
33.906,-33.56
33.921,-34.27
33.937,-33.22
33.953,-30.8
33.968,-28.01
33.984,-25.91
34.000,-25.11
34.015,-25.54
34.031,-26.62
34.046,-27.73
34.062,-28.58
34.078,-29.16
34.093,-29.36
34.109,-28.75
34.125,-26.58
34.140,-22.53
34.156,-17.38
34.171,-13.16
34.187,-12.49
34.203,-17.15
34.218,-27.0
34.234,-39.75
34.250,-52.05
34.265,-61.13
34.281,-66.15
34.296,-68.41
34.312,-70.26
34.328,-73.46
34.343,-77.84
34.359,-81.22
34.375,-80.76
34.390,-74.77
34.406,-63.95
34.421,-51.32
34.437,-40.76
34.453,-35.13
34.468,-34.88
34.484,-38.21
34.500,-42.24
34.515,-44.86
34.531,-45.69
34.546,-45.77
34.562,-46.3
34.578,-47.32
34.593,-47.38
34.609,-44.38
34.625,-37.18
34.640,-26.53
34.656,-14.92
34.671,-5.37
34.687,0.24
34.703,1.94
34.718,1.58
34.734,1.69
34.750,4.06
34.765,9.07
34.781,15.71
34.796,22.39
34.812,27.67
34.828,30.64
34.843,30.7
34.859,27.35
34.875,20.11
34.890,9.0
34.906,-5.16
34.921,-20.68
34.937,-35.59
34.953,-48.55
34.968,-59.48
34.984,-69.46
35.000,-79.91
35.015,-91.5
35.031,-103.52
35.046,-113.96
35.062,-120.2
35.078,-120.02
35.093,-112.42
35.109,-97.99
35.125,-79.1
35.140,-59.56
35.156,-43.93
35.171,-36.26
35.187,-38.82
35.203,-51.17
35.218,-70.3
35.234,-91.69
35.250,-110.98
35.265,-125.12
35.281,-132.85
35.296,-134.12
35.312,-129.4
35.328,-119.26
35.343,-104.4
35.359,-86.11
35.375,-66.34
35.390,-47.53
35.406,-31.81
35.421,-20.37
35.437,-13.16
35.453,-9.15
35.468,-6.86
35.484,-4.97
35.500,-2.77
35.515,-0.12
35.531,2.51
35.546,4.42
35.562,4.92
35.578,3.53
35.593,0.21
35.609,-4.66
35.625,-10.25
35.640,-15.52
35.656,-19.42
35.671,-21.11
35.687,-20.13
35.703,-16.39
35.718,-10.2
35.734,-2.09
35.750,7.32
35.765,17.4
35.781,27.65
35.796,37.71
35.812,47.26
35.828,55.96
35.843,63.25
35.859,68.37
35.875,70.63
35.890,69.73
35.906,66.1
35.921,60.87
35.937,55.61
35.953,51.77
35.968,50.12
35.984,50.61
36.000,52.47
36.015,54.56
36.031,55.83
36.046,55.53
36.062,53.35
36.078,49.34
36.093,43.92
36.109,37.76
36.125,31.69
36.140,26.59
36.156,23.18
36.171,21.75
36.187,22.06
36.203,23.23
36.218,24.0
36.234,23.03
36.250,19.37
36.265,12.76
36.281,3.86
36.296,-5.98
36.312,-15.01
36.328,-21.52
36.343,-24.1
36.359,-21.9
36.375,-14.65
36.390,-2.72
36.406,12.83
36.421,30.35
36.437,47.94
36.453,63.71
36.468,76.41
36.484,85.62
36.500,91.71
36.515,95.52
36.531,97.87
36.546,99.16
36.562,99.26
36.578,97.67
36.593,93.84
36.609,87.55
36.625,78.96
36.640,68.56
36.656,56.86
36.671,44.22
36.687,30.69
36.703,16.24
36.718,0.97
36.734,-14.72
36.750,-30.13
36.765,-44.44
36.781,-56.91
36.796,-66.99
36.812,-74.37
36.828,-78.91
36.843,-80.62
36.859,-79.76
36.875,-76.83
36.890,-72.73
36.906,-68.52
36.921,-65.28
36.937,-63.8
36.953,-64.34
36.968,-66.53
36.984,-69.38
37.000,-71.54
37.015,-71.58
37.031,-68.4
37.046,-61.58
37.062,-51.58
37.078,-39.7
37.093,-27.71
37.109,-17.33
37.125,-9.7
37.140,-5.06
37.156,-2.85
37.171,-1.98
37.187,-1.42
37.203,-0.55
37.218,0.71
37.234,1.99
37.250,2.83
37.265,2.87
37.281,1.99
37.296,0.32
37.312,-1.88
37.328,-4.41
37.343,-7.17
37.359,-10.25
37.375,-13.88
37.390,-18.34
37.406,-23.77
37.421,-30.05
37.437,-36.8
37.453,-43.39
37.468,-49.18
37.484,-53.59
37.500,-56.23
37.515,-56.85
37.531,-55.45
37.546,-52.52
37.562,-49.23
37.578,-47.39
37.593,-49.02
37.609,-55.61
37.625,-67.38
37.640,-82.99
37.656,-99.87
37.671,-114.96
37.687,-125.67
37.703,-130.44
37.718,-128.75
37.734,-120.92
37.750,-107.69
37.765,-89.98
37.781,-68.91
37.796,-45.93
37.812,-22.73
37.828,-0.99
37.843,17.88
37.859,33.14
37.875,44.77
37.890,53.27
37.906,59.42
37.921,63.92
37.937,67.23
37.953,69.69
37.968,71.65
37.984,73.59
38.000,76.05
38.015,79.36
38.031,83.37
38.046,87.37
38.062,90.37
38.078,91.6
38.093,90.94
38.109,89.06
38.125,87.11
38.140,86.13
38.156,86.55
38.171,88.08
38.187,89.92
38.203,91.31
38.218,91.9
38.234,91.98
38.250,92.22
38.265,93.25
38.281,95.28
38.296,97.9
38.312,100.06
38.328,100.42
38.343,97.68
38.359,90.98
38.375,80.18
38.390,65.86
38.406,49.24
38.421,31.9
38.437,15.43
38.453,1.17
38.468,-10.02
38.484,-17.79
38.500,-22.38
38.515,-24.45
38.531,-24.92
38.546,-24.78
38.562,-24.7
38.578,-24.9
38.593,-25.1
38.609,-24.72
38.625,-23.18
38.640,-20.2
38.656,-15.9
38.671,-10.83
38.687,-5.71
38.703,-1.19
38.718,2.26
38.734,4.45
38.750,5.41
38.765,5.34
38.781,4.54
38.796,3.35
38.812,2.14
38.828,1.2
38.843,0.76
38.859,0.9
38.875,1.43
38.890,1.98
38.906,2.01
38.921,0.99
38.937,-1.35
38.953,-4.9
38.968,-9.15
38.984,-13.33
39.000,-16.74
39.015,-19.06
39.031,-20.6
39.046,-22.16
39.062,-24.82
39.078,-29.4
39.093,-36.09
39.109,-44.25
39.125,-52.61
39.140,-59.56
39.156,-63.69
39.171,-64.17
39.187,-60.9
39.203,-54.47
39.218,-45.84
39.234,-36.0
39.250,-25.82
39.265,-15.92
39.281,-6.73
39.296,1.44
39.312,8.36
39.328,13.85
39.343,17.79
39.359,20.23
39.375,21.3
39.390,21.27
39.406,20.5
39.421,19.34
39.437,18.21
39.453,17.42
39.468,17.22
39.484,17.69
39.500,18.78
39.515,20.33
39.531,22.12
39.546,23.91
39.562,25.41
39.578,26.3
39.593,26.31
39.609,25.27
39.625,23.18
39.640,20.21
39.656,16.59
39.671,12.55
39.687,8.24
39.703,3.76
39.718,-0.85
39.734,-5.5
39.750,-10.11
39.765,-14.66
39.781,-19.28
39.796,-24.26
39.812,-29.8
39.828,-35.89
39.843,-42.07
39.859,-47.51
39.875,-51.17
39.890,-52.17
39.906,-50.02
39.921,-44.81
39.937,-37.13
39.953,-27.84
39.968,-17.84
39.984,-7.83
40.000,1.75
40.015,10.66
40.031,18.69
40.046,25.6
40.062,31.07
40.078,34.86
40.093,36.97
40.109,37.64
40.125,37.36
40.140,36.68
40.156,35.98
40.171,35.4
40.187,34.86
40.203,34.2
40.218,33.25
40.234,31.99
40.250,30.43
40.265,28.69
40.281,26.81
40.296,24.82
40.312,22.64
40.328,20.16
40.343,17.26
40.359,13.84
40.375,9.89
40.390,5.41
40.406,0.49
40.421,-4.75
40.437,-10.19
40.453,-15.64
40.468,-20.92
40.484,-25.84
40.500,-30.32
40.515,-34.39
40.531,-38.22
40.546,-42.09
40.562,-46.22
40.578,-50.64
40.593,-55.05
40.609,-58.94
40.625,-61.6
40.640,-62.32
40.656,-60.52
40.671,-55.88
40.687,-48.36
40.703,-38.31
40.718,-26.4
40.734,-13.49
40.750,-0.52
40.765,11.73
40.781,22.73
40.796,32.3
40.812,40.47
40.828,47.42
40.843,53.36
40.859,58.42
40.875,62.74
40.890,66.51
40.906,69.9
40.921,73.05
40.937,76.02
40.953,78.78
40.968,81.23
40.984,83.29
41.000,84.97
41.015,86.3
41.031,87.31
41.046,88.07
41.062,88.63
41.078,89.17
41.093,89.94
41.109,91.22
41.125,93.16
41.140,95.63
41.156,98.25
41.171,100.55
41.187,102.3
41.203,103.68
41.218,105.18
41.234,107.35
41.250,110.22
41.265,112.96
41.281,113.96
41.296,111.28
41.312,103.41
41.328,90.0
41.343,72.22
41.359,52.54
41.375,34.25
41.390,20.74
41.406,14.88
41.421,18.32
41.437,30.81
41.453,49.66
41.468,69.79
41.484,84.78
41.500,88.86
41.515,79.07
41.531,56.52
41.546,26.12
41.562,-5.2
41.578,-31.01
41.593,-47.46
41.609,-54.1
41.625,-53.32
41.640,-48.83
41.656,-44.17
41.671,-41.6
41.687,-41.97
41.703,-45.0
41.718,-49.7
41.734,-54.74
41.750,-58.8
41.765,-60.84
41.781,-60.5
41.796,-58.19
41.812,-55.1
41.828,-52.83
41.843,-52.89
41.859,-56.15
41.875,-62.51
41.890,-70.76
41.906,-79.07
41.921,-85.7
41.937,-89.72
41.953,-91.3
41.968,-91.55
41.984,-91.84
42.000,-93.25
42.015,-96.3
42.031,-100.9
42.046,-106.58
42.062,-112.76
42.078,-118.98
42.093,-125.1
42.109,-131.29
42.125,-137.99
42.140,-145.57
42.156,-154.18
42.171,-163.26
42.187,-171.57
42.203,-177.37
42.218,-178.97
42.234,-175.36
42.250,-166.59
42.265,-153.67
42.281,-138.02
42.296,-120.9
42.312,-103.11
42.328,-85.09
42.343,-67.32
42.359,-50.58
42.375,-35.94
42.390,-24.41
42.406,-16.49
42.421,-11.9
42.437,-9.67
42.453,-8.38
42.468,-6.74
42.484,-3.91
42.500,0.38
42.515,5.93
42.531,12.25
42.546,18.76
42.562,24.81
42.578,29.72
42.593,32.83
42.609,33.59
42.625,31.75
42.640,27.56
42.656,21.76
42.671,15.43
42.687,9.67
42.703,5.32
42.718,2.72
42.734,1.76
42.750,1.97
42.765,2.8
42.781,3.7
42.796,4.26
42.812,4.22
42.828,3.46
42.843,2.09
42.859,0.52
42.875,-0.56
42.890,-0.21
42.906,2.55
42.921,8.55
42.937,18.25
42.953,31.66
42.968,48.32
42.984,67.37
43.000,87.37
43.015,106.26
43.031,121.3
43.046,129.45
43.062,128.07
43.078,115.85
43.093,93.5
43.109,63.89
43.125,31.38
43.140,0.64
43.156,-24.61
43.171,-42.36
43.187,-52.42
43.203,-55.81
43.218,-54.13
43.234,-48.97
43.250,-41.69
43.265,-33.5
43.281,-25.53
43.296,-18.76
43.312,-13.84
43.328,-10.95
43.343,-9.8
43.359,-9.78
43.375,-10.27
43.390,-10.88
43.406,-11.53
43.421,-12.36
43.437,-13.53
43.453,-15.02
43.468,-16.64
43.484,-18.05
43.500,-19.04
43.515,-19.62
43.531,-20.15
43.546,-21.25
43.562,-23.36
43.578,-26.57
43.593,-30.35
43.609,-33.63
43.625,-35.11
43.640,-33.72
43.656,-29.03
43.671,-21.32
43.687,-11.53
43.703,-0.86
43.718,9.53
43.734,18.82
43.750,26.51
43.765,32.42
43.781,36.54
43.796,39.04
43.812,40.21
43.828,40.45
43.843,40.21
43.859,39.83
43.875,39.48
43.890,39.24
43.906,39.15
43.921,39.3
43.937,39.86
43.953,40.87
43.968,42.16
43.984,43.35
44.000,43.83
44.015,43.09
44.031,40.85
44.046,37.13
44.062,32.2
44.078,26.51
44.093,20.48
44.109,14.53
44.125,9.03
44.140,4.34
44.156,0.66
44.171,-1.91
44.187,-3.38
44.203,-3.93
44.218,-3.8
44.234,-3.26
44.250,-2.61
44.265,-2.08
44.281,-1.71
44.296,-1.25
44.312,-0.1
44.328,2.45
44.343,7.01
44.359,13.81
44.375,22.45
44.390,32.0
44.406,41.31
44.421,49.34
44.437,55.49
44.453,59.7
44.468,62.31
44.484,63.76
44.500,64.4
44.515,64.29
44.531,63.34
44.546,61.37
44.562,58.27
44.578,54.01
44.593,48.59
44.609,41.88
44.625,33.71
44.640,24.03
44.656,13.12
44.671,1.67
44.687,-9.28
44.703,-18.69
44.718,-25.91
44.734,-30.94
44.750,-34.44
44.765,-37.39
44.781,-40.75
44.796,-45.09
44.812,-50.5
44.828,-56.69
44.843,-63.25
44.859,-69.9
44.875,-76.59
44.890,-83.47
44.906,-90.66
44.921,-97.96
44.937,-104.71
44.953,-109.74
44.968,-111.71
44.984,-109.45
45.000,-102.48
45.015,-91.11
45.031,-76.47
45.046,-60.08
45.062,-43.48
45.078,-27.86
45.093,-13.91
45.109,-1.88
45.125,8.16
45.140,16.23
45.156,22.41
45.171,26.85
45.187,29.92
45.203,32.08
45.218,33.91
45.234,35.83
45.250,38.07
45.265,40.6
45.281,43.17
45.296,45.55
45.312,47.59
45.328,49.33
45.343,50.93
45.359,52.57
45.375,54.33
45.390,56.09
45.406,57.51
45.421,58.11
45.437,57.5
45.453,55.46
45.468,52.05
45.484,47.67
45.500,42.87
45.515,38.22
45.531,33.98
45.546,30.12
45.562,26.29
45.578,22.14
45.593,17.57
45.609,13.0
45.625,9.35
45.640,7.75
45.656,9.1
45.671,13.64
45.687,20.88
45.703,29.79
45.718,39.26
45.734,48.53
45.750,57.4
45.765,66.1
45.781,74.95
45.796,84.03
45.812,92.98
45.828,101.13
45.843,107.83
45.859,112.77
45.875,116.13
45.890,118.51
45.906,120.61
45.921,122.8
45.937,125.0
45.953,126.63
45.968,126.94
45.984,125.28
46.000,121.52
46.015,116.0
46.031,109.5
46.046,102.89
46.062,96.94
46.078,92.2
46.093,88.81
46.109,86.49
46.125,84.44
46.140,81.41
46.156,75.98
46.171,67.03
46.187,54.26
46.203,38.54
46.218,21.75
46.234,6.15
46.250,-6.63
46.265,-16.39
46.281,-24.51
46.296,-33.27
46.312,-44.58
46.328,-58.89
46.343,-74.85
46.359,-89.85
46.375,-101.3
46.390,-107.67
46.406,-109.04
46.421,-106.7
46.437,-102.32
46.453,-97.09
46.468,-91.35
46.484,-84.75
46.500,-76.75
46.515,-67.09
46.531,-56.19
46.546,-45.16
46.562,-35.53
46.578,-28.74
46.593,-25.47
46.609,-25.26
46.625,-26.43
46.640,-26.71
46.656,-24.28
46.671,-18.63
46.687,-10.88
46.703,-3.34
46.718,1.52
46.734,2.07
46.750,-1.78
46.765,-8.64
46.781,-16.18
46.796,-22.05
46.812,-24.76
46.828,-24.38
46.843,-22.5
46.859,-21.66
46.875,-24.16
46.890,-30.88
46.906,-40.82
46.921,-51.4
46.937,-59.63
46.953,-63.39
46.968,-62.14
46.984,-57.04
47.000,-50.18
47.015,-43.77
47.031,-39.45
47.046,-38.03
47.062,-39.64
47.078,-43.81
47.093,-49.6
47.109,-55.7
47.125,-60.64
47.140,-63.25
47.156,-63.05
47.171,-60.36
47.187,-56.14
47.203,-51.43
47.218,-46.89
47.234,-42.5
47.250,-37.8
47.265,-32.3
47.281,-26.08
47.296,-19.96
47.312,-15.38
47.328,-13.75
47.343,-15.84
47.359,-21.34
47.375,-29.01
47.390,-37.14
47.406,-44.16
47.421,-49.12
47.437,-51.73
47.453,-52.13
47.468,-50.5
47.484,-47.01
47.500,-41.78
47.515,-35.2
47.531,-28.01
47.546,-21.24
47.562,-15.87
47.578,-12.37
47.593,-10.4
47.609,-8.88
47.625,-6.31
47.640,-1.33
47.656,6.77
47.671,17.79
47.687,30.73
47.703,44.05
47.718,56.11
47.734,65.48
47.750,71.18
47.765,72.8
47.781,70.52
47.796,65.13
47.812,57.77
47.828,49.77
47.843,42.31
47.859,36.18
47.875,31.64
47.890,28.53
47.906,26.53
47.921,25.28
47.937,24.55
47.953,24.18
47.968,23.98
47.984,23.63
48.000,22.85
48.015,21.44
48.031,19.4
48.046,17.0
48.062,14.47
48.078,12.01
48.093,9.61
48.109,7.09
48.125,4.24
48.140,0.89
48.156,-3.04
48.171,-7.5
48.187,-12.38
48.203,-17.51
48.218,-22.63
48.234,-27.48
48.250,-31.82
48.265,-35.55
48.281,-38.76
48.296,-41.78
48.312,-45.05
48.328,-49.05
48.343,-54.15
48.359,-60.37
48.375,-67.32
48.390,-74.13
48.406,-79.57
48.421,-82.33
48.437,-81.49
48.453,-76.68
48.468,-68.25
48.484,-57.14
48.500,-44.54
48.515,-31.62
48.531,-19.41
48.546,-8.6
48.562,0.38
48.578,7.35
48.593,12.37
48.609,15.68
48.625,17.59
48.640,18.43
48.656,18.43
48.671,17.73
48.687,16.49
48.703,14.95
48.718,13.42
48.734,12.22
48.750,11.53
48.765,11.34
48.781,11.47
48.796,11.69
48.812,11.95
48.828,12.4
48.843,13.36
48.859,15.15
48.875,17.91
48.890,21.43
48.906,25.16
48.921,28.47
48.937,30.79
48.953,31.79
48.968,31.43
48.984,29.88
49.000,27.41
49.015,24.23
49.031,20.47
49.046,16.25
49.062,11.76
49.078,7.32
49.093,3.45
49.109,0.72
49.125,-0.37
49.140,0.39
49.156,2.87
49.171,6.66
49.187,11.16
49.203,15.86
49.218,20.34
49.234,24.31
49.250,27.63
49.265,30.32
49.281,32.8
49.296,35.98
49.312,41.13
49.328,49.41
49.343,60.98
49.359,74.53
49.375,87.2
49.390,95.4
49.406,96.18
49.421,88.48
49.437,73.59
49.453,54.71
49.468,35.77
49.484,20.17
49.500,9.81
49.515,4.67
49.531,2.84
49.546,0.95
49.562,-5.0
49.578,-18.53
49.593,-41.43
49.609,-72.86
49.625,-109.28
49.640,-145.37
49.656,-175.62
49.671,-195.87
49.687,-204.21
49.703,-200.83
49.718,-187.4
49.734,-166.27
49.750,-139.96
49.765,-111.11
49.781,-82.42
49.796,-56.43
49.812,-35.09
49.828,-19.18
49.843,-8.21
49.859,-0.58
49.875,5.8
49.890,12.83
49.906,21.54
49.921,31.83
49.937,42.71
49.953,52.74
49.968,60.7
49.984,66.1
50.000,69.25
50.015,71.0
50.031,72.32
50.046,73.91
50.062,76.08
50.078,78.75
50.093,81.36
50.109,82.7
50.125,80.78
50.140,73.17
50.156,57.69
50.171,33.45
50.187,1.68
50.203,-34.37
50.218,-70.24
50.234,-101.58
50.250,-125.37
50.265,-140.25
50.281,-146.25
50.296,-144.17
50.312,-135.06
50.328,-120.16
50.343,-101.12
50.359,-80.09
50.375,-59.38
50.390,-40.95
50.406,-25.82
50.421,-13.87
50.437,-4.17
50.453,4.41
50.468,12.63
50.484,20.57
50.500,27.75
50.515,33.6
50.531,37.84
50.546,40.62
50.562,42.55
50.578,44.29
50.593,46.33
50.609,48.72
50.625,51.1
50.640,52.82
50.656,53.17
50.671,51.68
50.687,48.34
50.703,43.84
50.718,39.48
50.734,36.74
50.750,36.57
50.765,38.7
50.781,41.27
50.796,41.3
50.812,35.74
50.828,22.8
50.843,2.77
50.859,-21.97
50.875,-47.85
50.890,-71.35
50.906,-90.04
50.921,-102.83
50.937,-109.64
50.953,-110.76
50.968,-106.42
50.984,-96.87
51.000,-82.71
51.015,-65.2
51.031,-46.28
51.046,-28.12
51.062,-12.39
51.078,0.16
51.093,9.84
51.109,17.59
51.125,24.38
51.140,30.7
51.156,36.33
51.171,40.59
51.187,42.81
51.203,42.84
51.218,41.27
51.234,39.23
51.250,37.95
51.265,38.21
51.281,40.08
51.296,42.92
51.312,45.82
51.328,47.98
51.343,49.09
51.359,49.25
51.375,48.74
51.390,47.69
51.406,45.95
51.421,43.21
51.437,39.29
51.453,34.31
51.468,28.74
51.484,23.13
51.500,17.81
51.515,12.72
51.531,7.55
51.546,2.09
51.562,-3.37
51.578,-8.01
51.593,-10.65
51.609,-10.35
51.625,-6.71
51.640,-0.19
51.656,8.21
51.671,17.41
51.687,26.57
51.703,35.22
51.718,43.01
51.734,49.28
51.750,52.93
51.765,52.71
51.781,47.8
51.796,38.41
51.812,25.9
51.828,12.36
51.843,-0.18
51.859,-10.48
51.875,-18.23
51.890,-23.79
51.906,-27.61
51.921,-29.9
51.937,-30.67
51.953,-30.08
51.968,-28.75
51.984,-27.73
52.000,-28.05
52.015,-30.28
52.031,-34.28
52.046,-39.26
52.062,-44.18
52.078,-48.11
52.093,-50.44
52.109,-50.99
52.125,-50.0
52.140,-48.18
52.156,-46.63
52.171,-46.62
52.187,-49.2
52.203,-54.81
52.218,-63.0
52.234,-72.53
52.250,-81.68
52.265,-88.62
52.281,-91.62
52.296,-89.37
52.312,-81.13
52.328,-67.1
52.343,-48.61
52.359,-27.97
52.375,-7.92
52.390,9.18
52.406,22.13
52.421,31.13
52.437,37.43
52.453,42.64
52.468,48.05
52.484,54.23
52.500,61.1
52.515,68.12
52.531,74.47
52.546,79.27
52.562,81.65
52.578,81.04
52.593,77.37
52.609,71.29
52.625,63.99
52.640,56.85
52.656,50.97
52.671,46.89
52.687,44.53
52.703,43.35
52.718,42.55
52.734,41.28
52.750,38.84
52.765,34.83
52.781,29.29
52.796,22.82
52.812,16.42
52.828,11.19
52.843,7.9
52.859,6.71
52.875,7.16
52.890,8.5
52.906,9.99
52.921,11.33
52.937,12.72
52.953,14.69
52.968,17.84
52.984,22.51
53.000,28.49
53.015,35.04
53.031,41.0
53.046,45.16
53.062,46.7
53.078,45.41
53.093,41.86
53.109,37.2
53.125,32.84
53.140,29.99
53.156,29.31
53.171,30.78
53.187,33.86
53.203,37.76
53.218,41.94
53.234,46.27
53.250,51.17
53.265,57.34
53.281,65.24
53.296,74.45
53.312,83.13
53.328,88.14
53.343,85.85
53.359,73.46
53.375,50.22
53.390,18.12
53.406,-18.6
53.421,-54.72
53.437,-85.6
53.453,-108.4
53.468,-122.23
53.484,-127.72
53.500,-126.1
53.515,-118.65
53.531,-106.56
53.546,-91.12
53.562,-73.9
53.578,-56.64
53.593,-40.88
53.609,-27.51
53.625,-16.57
53.640,-7.41
53.656,0.9
53.671,9.12
53.687,17.47
53.703,25.63
53.718,32.97
53.734,38.85
53.750,42.99
53.765,45.59
53.781,47.32
53.796,49.04
53.812,51.33
53.828,54.12
53.843,56.43
53.859,56.6
53.875,52.85
53.890,43.96
53.906,29.89
53.921,11.84
53.937,-8.06
53.953,-27.33
53.968,-43.76
53.984,-55.7
54.000,-62.17
54.015,-62.83
54.031,-58.09
54.046,-49.15
54.062,-37.89
54.078,-26.53
54.093,-16.94
54.109,-10.15
54.125,-6.12
54.140,-3.91
54.156,-2.27
54.171,-0.13
54.187,3.04
54.203,7.18
54.218,11.81
54.234,16.1
54.250,19.08
54.265,19.8
54.281,17.59
54.296,12.29
54.312,4.55
54.328,-4.28
54.343,-12.46
54.359,-18.41
54.375,-21.1
54.390,-20.3
54.406,-16.45
54.421,-10.37
54.437,-2.92
54.453,5.16
54.468,13.23
54.484,20.88
54.500,27.9
54.515,34.44
54.531,40.85
54.546,47.38
54.562,53.67
54.578,58.43
54.593,59.64
54.609,55.21
54.625,44.03
54.640,26.62
54.656,5.19
54.671,-16.93
54.687,-36.52
54.703,-51.31
54.718,-60.5
54.734,-64.58
54.750,-64.75
54.765,-62.34
54.781,-58.44
54.796,-53.67
54.812,-48.15
54.828,-41.56
54.843,-33.38
54.859,-23.14
54.875,-10.82
54.890,3.0
54.906,17.24
54.921,30.78
54.937,42.81
54.953,53.1
54.968,61.84
54.984,69.37
55.000,76.04
55.015,82.12
55.031,87.87
55.046,93.31
55.062,97.87
55.078,100.03
55.093,97.36
55.109,87.29
55.125,68.34
55.140,41.19
55.156,8.97
55.171,-23.46
55.187,-51.14
55.203,-70.55
55.218,-80.47
55.234,-81.85
55.250,-76.9
55.265,-68.0
55.281,-57.14
55.296,-45.59
55.312,-34.13
55.328,-23.17
55.343,-12.92
55.359,-3.49
55.375,5.15
55.390,13.05
55.406,20.22
55.421,26.61
55.437,32.06
55.453,36.24
55.468,38.63
55.484,38.67
55.500,36.08
55.515,31.35
55.531,25.66
55.546,20.41
55.562,16.28
55.578,12.42
55.593,6.34
55.609,-5.11
55.625,-24.0
55.640,-49.83
55.656,-79.17
55.671,-106.66
55.687,-127.08
55.703,-137.23
55.718,-136.79
55.734,-127.9
55.750,-113.81
55.765,-97.46
55.781,-80.86
55.796,-65.08
55.812,-50.67
55.828,-38.0
55.843,-27.34
55.859,-18.65
55.875,-11.5
55.890,-5.14
55.906,1.17
55.921,7.78
55.937,14.48
55.953,20.54
55.968,25.1
55.984,27.63
56.000,28.37
56.015,28.47
56.031,29.73
56.046,33.7
56.062,40.75
56.078,49.35
56.093,56.26
56.109,57.48
56.125,49.97
56.140,33.03
56.156,8.72
56.171,-18.79
56.187,-44.76
56.203,-65.54
56.218,-79.39
56.234,-86.38
56.250,-87.76
56.265,-85.02
56.281,-79.51
56.296,-72.44
56.312,-65.01
56.328,-58.48
56.343,-53.86
56.359,-51.6
56.375,-51.23
56.390,-51.47
56.406,-50.67
56.421,-47.44
56.437,-41.13
56.453,-31.98
56.468,-21.04
56.484,-9.66
56.500,0.93
56.515,9.94
56.531,17.09
56.546,22.52
56.562,26.5
56.578,29.25
56.593,30.81
56.609,31.1
56.625,29.98
56.640,27.5
56.656,23.95
56.671,19.87
56.687,16.07
56.703,13.34
56.718,12.37
56.734,13.59
56.750,17.04
56.765,22.44
56.781,29.23
56.796,36.63
56.812,43.86
56.828,50.15
56.843,54.88
56.859,57.58
56.875,58.01
56.890,56.14
56.906,52.16
56.921,46.45
56.937,39.55
56.953,32.14
56.968,24.92
56.984,18.55
57.000,13.42
57.015,9.65
57.031,6.93
57.046,4.69
57.062,2.25
57.078,-1.0
57.093,-5.35
57.109,-10.75
57.125,-16.83
57.140,-22.89
57.156,-28.15
57.171,-31.84
57.187,-33.36
57.203,-32.41
57.218,-29.07
57.234,-23.76
57.250,-17.22
57.265,-10.33
57.281,-3.89
57.296,1.5
57.312,5.59
57.328,8.44
57.343,10.3
57.359,11.46
57.375,12.07
57.390,12.17
57.406,11.68
57.421,10.64
57.437,9.26
57.453,7.89
57.468,6.86
57.484,6.36
57.500,6.28
57.515,6.32
57.531,6.17
57.546,5.63
57.562,4.71
57.578,3.57
57.593,2.41
57.609,1.39
57.625,0.51
57.640,-0.31
57.656,-1.2
57.671,-2.19
57.687,-3.14
57.703,-3.77
57.718,-3.76
57.734,-2.9
57.750,-1.24
57.765,0.85
57.781,2.76
57.796,3.75
57.812,3.24
57.828,1.0
57.843,-2.73
57.859,-7.21
57.875,-11.34
57.890,-13.95
57.906,-14.19
57.921,-11.83
57.937,-7.34
57.953,-1.74
57.968,3.83
57.984,8.49
58.000,11.88
58.015,14.05
58.031,15.28
58.046,15.75
58.062,15.43
58.078,14.19
58.093,11.94
58.109,8.85
58.125,5.25
58.140,1.69
58.156,-1.37
58.171,-3.56
58.187,-4.66
58.203,-4.56
58.218,-3.25
58.234,-0.91
58.250,2.1
58.265,5.2
58.281,7.76
58.296,9.21
58.312,9.31
58.328,8.2
58.343,6.3
58.359,4.18
58.375,2.29
58.390,0.9
58.406,0.11
58.421,-0.03
58.437,0.62
58.453,2.25
58.468,4.99
58.484,8.82
58.500,13.47
58.515,18.44
58.531,23.24
58.546,27.56
58.562,31.39
58.578,34.99
58.593,38.75
58.609,43.07
58.625,48.08
58.640,53.72
58.656,59.73
58.671,65.75
58.687,71.45
58.703,76.63
58.718,81.25
58.734,85.38
58.750,89.16
58.765,92.68
58.781,95.84
58.796,98.31
58.812,99.66
58.828,99.43
58.843,97.32
58.859,93.41
58.875,88.03
58.890,81.74
58.906,75.11
58.921,68.64
58.937,62.55
58.953,56.87
58.968,51.35
58.984,45.41
59.000,38.3
59.015,29.23
59.031,17.83
59.046,4.44
59.062,-9.7
59.078,-22.63
59.093,-32.33
59.109,-37.46
59.125,-37.85
59.140,-34.7
59.156,-30.1
59.171,-26.26
59.187,-24.8
59.203,-26.43
59.218,-30.95
59.234,-37.43
59.250,-44.37
59.265,-49.67
59.281,-51.01
59.296,-46.62
59.312,-36.32
59.328,-22.4
59.343,-9.42
59.359,-2.89
59.375,-7.07
59.390,-23.11
59.406,-48.43
59.421,-77.75
59.437,-105.21
59.453,-126.4
59.468,-139.38
59.484,-144.29
59.500,-142.37
59.515,-134.92
59.531,-122.99
59.546,-107.6
59.562,-90.11
59.578,-72.26
59.593,-55.74
59.609,-41.75
59.625,-30.81
59.640,-22.8
59.656,-17.45
59.671,-14.54
59.687,-14.06
59.703,-15.99
59.718,-20.1
59.734,-25.78
59.750,-32.17
59.765,-38.29
59.781,-43.25
59.796,-46.4
59.812,-47.43
59.828,-46.38
59.843,-43.66
59.859,-40.06
59.875,-36.5
59.890,-33.85
59.906,-32.49
59.921,-32.24
59.937,-32.32
59.953,-31.68
59.968,-29.45
59.984,-25.32
