timestamp,value
00.000,20.63
00.015,23.46
00.031,25.18
00.046,26.59
00.062,28.23
00.078,30.48
00.093,33.63
00.109,38.04
00.125,43.92
00.140,51.26
00.156,59.67
00.171,68.38
00.187,76.32
00.203,82.11
00.218,84.25
00.234,81.14
00.250,71.59
00.265,55.24
00.281,33.26
00.296,8.48
00.312,-15.02
00.328,-33.01
00.343,-42.51
00.359,-42.71
00.375,-35.26
00.390,-23.47
00.406,-11.13
00.421,-1.3
00.437,4.35
00.453,5.43
00.468,2.44
00.484,-3.71
00.500,-11.92
00.515,-20.83
00.531,-28.83
00.546,-34.41
00.562,-36.61
00.578,-35.3
00.593,-31.24
00.609,-25.64
00.625,-19.68
00.640,-14.25
00.656,-9.97
00.671,-7.39
00.687,-7.05
00.703,-9.4
00.718,-14.37
00.734,-21.17
00.750,-28.3
00.765,-34.09
00.781,-37.2
00.796,-37.03
00.812,-33.7
00.828,-27.72
00.843,-19.65
00.859,-10.1
00.875,0.05
00.890,9.6
00.906,17.03
00.921,20.97
00.937,20.72
00.953,16.7
00.968,10.44
00.984,4.14
01.000,0.02
01.015,-0.41
01.031,3.35
01.046,10.63
01.062,19.97
01.078,29.59
01.093,37.86
01.109,43.7
01.125,46.5
01.140,46.05
01.156,42.23
01.171,35.05
01.187,24.7
01.203,12.04
01.218,-1.22
01.234,-12.77
01.250,-20.09
01.265,-21.48
01.281,-16.62
01.296,-6.71
01.312,5.99
01.328,18.85
01.343,29.63
01.359,36.79
01.375,39.42
01.390,37.19
01.406,30.14
01.421,19.0
01.437,5.35
01.453,-8.47
01.468,-19.81
01.484,-26.63
01.500,-28.27
01.515,-25.68
01.531,-20.94
01.546,-16.39
01.562,-13.66
01.578,-13.24
01.593,-14.65
01.609,-16.86
01.625,-18.9
01.640,-20.11
01.656,-20.08
01.671,-18.48
01.687,-15.2
01.703,-10.44
01.718,-4.85
01.734,0.58
01.750,5.04
01.765,8.36
01.781,10.92
01.796,13.31
01.812,15.6
01.828,16.94
01.843,15.83
01.859,10.81
01.875,1.3
01.890,-11.89
01.906,-26.68
01.921,-40.42
01.937,-50.64
01.953,-55.73
01.968,-55.2
01.984,-49.59
02.000,-40.25
02.015,-28.95
02.031,-17.52
02.046,-7.45
02.062,0.31
02.078,5.53
02.093,8.58
02.109,10.36
02.125,12.09
02.140,15.14
02.156,20.77
02.171,29.7
02.187,41.73
02.203,55.7
02.218,69.68
02.234,81.53
02.250,89.46
02.265,92.55
02.281,90.71
02.296,84.44
02.312,74.51
02.328,61.77
02.343,47.23
02.359,32.01
02.375,17.14
02.390,2.97
02.406,-11.17
02.421,-26.75
02.437,-45.16
02.453,-66.45
02.468,-88.58
02.484,-107.75
02.500,-119.89
02.515,-122.45
02.531,-115.52
02.546,-101.71
02.562,-84.95
02.578,-68.74
02.593,-55.13
02.609,-44.59
02.625,-36.6
02.640,-30.44
02.656,-25.59
02.671,-21.66
02.687,-18.21
02.703,-14.7
02.718,-10.66
02.734,-5.86
02.750,-0.48
02.765,5.02
02.781,10.15
02.796,14.56
02.812,18.07
02.828,20.65
02.843,22.29
02.859,22.99
02.875,22.8
02.890,21.95
02.906,20.72
02.921,19.43
02.937,18.3
02.953,17.46
02.968,16.96
02.984,17.03
03.000,18.0
03.015,20.11
03.031,23.23
03.046,26.5
03.062,28.44
03.078,27.36
03.093,22.17
03.109,12.92
03.125,0.92
03.140,-11.84
03.156,-23.39
03.171,-32.55
03.187,-39.02
03.203,-43.16
03.218,-45.45
03.234,-46.21
03.250,-45.57
03.265,-43.74
03.281,-41.15
03.296,-38.42
03.312,-36.11
03.328,-34.4
03.343,-33.13
03.359,-31.75
03.375,-29.67
03.390,-26.4
03.406,-21.7
03.421,-15.44
03.437,-7.52
03.453,2.13
03.468,13.53
03.484,26.45
03.500,40.33
03.515,54.27
03.531,67.22
03.546,78.08
03.562,86.02
03.578,90.55
03.593,91.58
03.609,89.49
03.625,85.09
03.640,79.51
03.656,74.03
03.671,69.79
03.687,67.36
03.703,66.4
03.718,65.73
03.734,63.61
03.750,58.49
03.765,49.64
03.781,37.59
03.796,24.06
03.812,11.57
03.828,2.66
03.843,-0.81
03.859,1.76
03.875,9.54
03.890,20.56
03.906,32.27
03.921,42.25
03.937,48.87
03.953,51.61
03.968,50.86
03.984,47.62
04.000,43.05
04.015,38.24
04.031,34.26
04.046,32.03
04.062,32.21
04.078,34.83
04.093,39.11
04.109,43.42
04.125,45.91
04.140,45.05
04.156,40.09
04.171,31.26
04.187,19.31
04.203,5.1
04.218,-10.72
04.234,-27.68
04.250,-45.22
04.265,-62.34
04.281,-77.51
04.296,-88.9
04.312,-94.77
04.328,-94.09
04.343,-87.09
04.359,-75.42
04.375,-61.79
04.390,-49.26
04.406,-40.08
04.421,-35.06
04.437,-33.38
04.453,-33.2
04.468,-32.65
04.484,-30.68
04.500,-27.21
04.515,-22.71
04.531,-17.51
04.546,-11.29
04.562,-3.33
04.578,6.96
04.593,19.31
04.609,32.4
04.625,44.11
04.640,52.2
04.656,54.91
04.671,51.4
04.687,41.71
04.703,26.69
04.718,7.78
04.734,-12.93
04.750,-32.73
04.765,-48.41
04.781,-56.93
04.796,-56.37
04.812,-46.82
04.828,-30.75
04.843,-12.45
04.859,3.19
04.875,12.27
04.890,13.0
04.906,5.91
04.921,-6.79
04.937,-22.23
04.953,-37.72
04.968,-51.09
04.984,-60.53
05.000,-64.46
05.015,-61.73
05.031,-51.97
05.046,-36.2
05.062,-16.88
05.078,2.42
05.093,17.98
05.109,26.84
05.125,27.61
05.140,20.54
05.156,7.25
05.171,-9.95
05.187,-28.59
05.203,-46.31
05.218,-60.99
05.234,-70.9
05.250,-74.8
05.265,-72.28
05.281,-63.89
05.296,-51.15
05.312,-36.2
05.328,-21.3
05.343,-8.41
05.359,1.26
05.375,7.21
05.390,9.79
05.406,10.05
05.421,9.51
05.437,9.91
05.453,12.7
05.468,18.51
05.484,27.07
05.500,37.37
05.515,48.05
05.531,57.8
05.546,65.65
05.562,71.03
05.578,73.87
05.593,74.62
05.609,74.09
05.625,73.13
05.640,72.13
05.656,70.52
05.671,66.72
05.687,58.78
05.703,45.48
05.718,27.36
05.734,7.13
05.750,-11.06
05.765,-23.03
05.781,-26.15
05.796,-20.32
05.812,-7.91
05.828,7.26
05.843,21.15
05.859,30.66
05.875,33.97
05.890,30.43
05.906,20.39
05.921,5.02
05.937,-13.52
05.953,-32.14
05.968,-47.18
05.984,-55.4
06.000,-54.94
06.015,-46.08
06.031,-31.36
06.046,-14.72
06.062,-0.38
06.078,8.52
06.093,10.56
06.109,6.22
06.125,-2.88
06.140,-14.6
06.156,-26.93
06.171,-38.32
06.187,-47.59
06.203,-53.87
06.218,-56.56
06.234,-55.39
06.250,-50.72
06.265,-43.68
06.281,-35.99
06.296,-29.51
06.312,-25.68
06.328,-25.11
06.343,-27.46
06.359,-31.73
06.375,-36.57
06.390,-40.67
06.406,-43.04
06.421,-43.18
06.437,-41.0
06.453,-36.7
06.468,-30.43
06.484,-22.11
06.500,-11.37
06.515,2.1
06.531,18.17
06.546,35.73
06.562,52.76
06.578,66.56
06.593,74.42
06.609,74.26
06.625,65.12
06.640,47.31
06.656,22.53
06.671,-6.13
06.687,-34.46
06.703,-57.74
06.718,-71.88
06.734,-74.7
06.750,-66.67
06.765,-50.82
06.781,-31.66
06.796,-13.51
06.812,0.81
06.828,10.62
06.843,16.98
06.859,21.71
06.875,26.43
06.890,32.02
06.906,38.58
06.921,45.68
06.937,52.81
06.953,59.5
06.968,65.44
06.984,70.37
07.000,74.02
07.015,76.01
07.031,76.02
07.046,73.84
07.062,69.47
07.078,63.11
07.093,55.11
07.109,45.82
07.125,35.56
07.140,24.61
07.156,13.29
07.171,2.01
07.187,-8.79
07.203,-18.69
07.218,-27.37
07.234,-34.66
07.250,-40.43
07.265,-44.6
07.281,-47.01
07.296,-47.41
07.312,-45.52
07.328,-40.99
07.343,-33.58
07.359,-23.28
07.375,-10.64
07.390,3.16
07.406,16.24
07.421,26.38
07.437,31.6
07.453,30.89
07.468,24.49
07.484,13.9
07.500,1.3
07.515,-11.34
07.531,-22.75
07.546,-32.71
07.562,-41.62
07.578,-49.97
07.593,-57.76
07.609,-64.45
07.625,-69.17
07.640,-71.34
07.656,-71.1
07.671,-69.24
07.687,-66.91
07.703,-64.96
07.718,-63.44
07.734,-61.62
07.750,-58.36
07.765,-52.84
07.781,-45.02
07.796,-35.8
07.812,-26.58
07.828,-18.68
07.843,-12.69
07.859,-8.28
07.875,-4.53
07.890,-0.41
07.906,4.68
07.921,10.65
07.937,16.83
07.953,22.46
07.968,26.98
07.984,30.22
08.000,32.22
08.015,32.77
08.031,31.31
08.046,27.1
08.062,19.76
08.078,9.81
08.093,-1.03
08.109,-10.16
08.125,-14.94
08.140,-13.72
08.156,-6.52
08.171,5.08
08.187,18.61
08.203,31.68
08.218,42.78
08.234,51.56
08.250,58.57
08.265,64.65
08.281,70.45
08.296,76.18
08.312,81.71
08.328,86.83
08.343,91.52
08.359,95.99
08.375,100.59
08.390,105.48
08.406,110.37
08.421,114.49
08.437,116.73
08.453,116.15
08.468,112.28
08.484,105.34
08.500,96.04
08.515,85.14
08.531,72.97
08.546,59.34
08.562,43.86
08.578,26.29
08.593,7.1
08.609,-12.58
08.625,-31.08
08.640,-46.76
08.656,-58.41
08.671,-65.42
08.687,-67.75
08.703,-65.81
08.718,-60.34
08.734,-52.37
08.750,-43.1
08.765,-33.68
08.781,-25.03
08.796,-17.63
08.812,-11.52
08.828,-6.37
08.843,-1.81
08.859,2.41
08.875,6.35
08.890,9.93
08.906,13.1
08.921,15.93
08.937,18.79
08.953,22.15
08.968,26.57
08.984,32.39
09.000,39.55
09.015,47.43
09.031,54.93
09.046,60.66
09.062,63.3
09.078,62.03
09.093,56.7
09.109,47.73
09.125,35.93
09.140,22.12
09.156,7.06
09.171,-8.57
09.187,-23.95
09.203,-38.09
09.218,-49.8
09.234,-57.98
09.250,-61.97
09.265,-61.76
09.281,-58.06
09.296,-52.07
09.312,-45.17
09.328,-38.69
09.343,-33.66
09.359,-30.75
09.375,-30.17
09.390,-31.65
09.406,-34.44
09.421,-37.57
09.437,-40.11
09.453,-41.55
09.468,-41.98
09.484,-42.01
09.500,-42.65
09.515,-44.78
09.531,-48.94
09.546,-55.12
09.562,-62.79
09.578,-71.09
09.593,-79.0
09.609,-85.63
09.625,-90.28
09.640,-92.54
09.656,-92.32
09.671,-89.75
09.687,-85.17
09.703,-79.05
09.718,-72.12
09.734,-65.21
09.750,-59.24
09.765,-54.87
09.781,-52.26
09.796,-50.9
09.812,-49.74
09.828,-47.55
09.843,-43.39
09.859,-37.05
09.875,-29.07
09.890,-20.5
09.906,-12.43
09.921,-5.6
09.937,-0.17
09.953,4.12
09.968,7.67
09.984,10.69
10.000,13.12
10.015,14.63
10.031,14.87
10.046,13.59
10.062,10.73
10.078,6.42
10.093,1.05
10.109,-4.82
10.125,-10.4
10.140,-14.82
10.156,-17.28
10.171,-17.25
10.187,-14.62
10.203,-9.72
10.218,-3.15
10.234,4.45
10.250,12.63
10.265,21.17
10.281,29.97
10.296,38.92
10.312,47.74
10.328,55.92
10.343,62.89
10.359,68.11
10.375,71.28
10.390,72.34
10.406,71.57
10.421,69.44
10.437,66.49
10.453,63.22
10.468,59.81
10.484,56.07
10.500,51.4
10.515,44.89
10.531,35.6
10.546,22.91
10.562,6.88
10.578,-11.56
10.593,-30.64
10.609,-48.03
10.625,-61.37
10.640,-68.86
10.656,-69.75
10.671,-64.47
10.687,-54.48
10.703,-41.84
10.718,-28.6
10.734,-16.41
10.750,-6.29
10.765,1.36
10.781,6.5
10.796,9.33
10.812,10.21
10.828,9.67
10.843,8.4
10.859,7.21
10.875,6.76
10.890,7.37
10.906,8.95
10.921,11.06
10.937,13.22
10.953,15.2
10.968,17.05
10.984,19.1
11.000,21.66
11.015,24.85
11.031,28.49
11.046,32.26
11.062,35.73
11.078,38.49
11.093,39.98
11.109,39.61
11.125,36.77
11.140,31.13
11.156,22.97
11.171,13.18
11.187,3.22
11.203,-5.36
11.218,-11.31
11.234,-13.95
11.250,-13.19
11.265,-9.39
11.281,-3.24
11.296,4.4
11.312,12.48
11.328,19.97
11.343,25.97
11.359,29.96
11.375,31.89
11.390,32.19
11.406,31.55
11.421,30.7
11.437,30.28
11.453,30.65
11.468,31.75
11.484,33.11
11.500,33.9
11.515,33.13
11.531,30.11
11.546,24.66
11.562,17.24
11.578,8.77
11.593,0.21
11.609,-7.82
11.625,-15.03
11.640,-21.42
11.656,-27.04
11.671,-31.67
11.687,-34.92
11.703,-36.34
11.718,-35.63
11.734,-32.88
11.750,-28.6
11.765,-23.6
11.781,-18.89
11.796,-15.36
11.812,-13.6
11.828,-13.75
11.843,-15.4
11.859,-17.7
11.875,-19.63
11.890,-20.2
11.906,-18.63
11.921,-14.48
11.937,-7.67
11.953,1.55
11.968,12.56
11.984,24.36
12.000,35.78
12.015,45.47
12.031,52.33
12.046,55.61
12.062,55.14
12.078,51.26
12.093,44.66
12.109,36.06
12.125,26.09
12.140,15.16
12.156,3.56
12.171,-8.34
12.187,-20.13
12.203,-31.34
12.218,-41.53
12.234,-50.4
12.250,-57.67
12.265,-62.86
12.281,-65.16
12.296,-63.6
12.312,-57.34
12.328,-46.26
12.343,-31.15
12.359,-13.64
12.375,4.29
12.390,20.87
12.406,34.92
12.421,45.95
12.437,53.89
12.453,58.9
12.468,61.13
12.484,60.78
12.500,58.21
12.515,53.83
12.531,48.11
12.546,41.28
12.562,33.3
12.578,23.94
12.593,12.94
12.609,0.21
12.625,-14.05
12.640,-29.25
12.656,-44.44
12.671,-58.33
12.687,-69.5
12.703,-76.61
12.718,-78.82
12.734,-75.99
12.750,-68.8
12.765,-58.58
12.781,-46.97
12.796,-35.55
12.812,-25.46
12.828,-17.35
12.843,-11.36
12.859,-7.19
12.875,-4.28
12.890,-1.9
12.906,0.62
12.921,3.77
12.937,7.73
12.953,12.41
12.968,17.53
12.984,22.8
13.000,28.02
13.015,33.02
13.031,37.59
13.046,41.54
13.062,44.65
13.078,46.81
13.093,48.05
13.109,48.43
13.125,47.85
13.140,45.92
13.156,42.03
13.171,35.61
13.187,26.47
13.203,15.04
13.218,2.31
13.234,-10.39
13.250,-21.77
13.265,-30.78
13.281,-36.75
13.296,-39.34
13.312,-38.44
13.328,-34.16
13.343,-26.89
13.359,-17.29
13.375,-6.2
13.390,5.44
13.406,16.82
13.421,27.3
13.437,36.26
13.453,43.03
13.468,46.9
13.484,47.28
13.500,44.19
13.515,38.57
13.531,32.16
13.546,27.06
13.562,24.9
13.578,26.12
13.593,29.69
13.609,33.48
13.625,35.03
13.640,32.44
13.656,24.97
13.671,13.06
13.687,-1.9
13.703,-18.09
13.718,-33.63
13.734,-46.81
13.750,-56.22
13.765,-60.95
13.781,-60.76
13.796,-56.25
13.812,-48.84
13.828,-40.39
13.843,-32.81
13.859,-27.46
13.875,-24.85
13.890,-24.54
13.906,-25.37
13.921,-25.9
13.937,-24.84
13.953,-21.41
13.968,-15.36
13.984,-6.97
14.000,3.24
14.015,14.65
14.031,26.74
14.046,39.01
14.062,51.01
14.078,62.28
14.093,72.26
14.109,80.43
14.125,86.27
14.140,89.19
14.156,88.54
14.171,83.59
14.187,73.78
14.203,58.92
14.218,39.49
14.234,16.72
14.250,-7.61
14.265,-31.47
14.281,-53.0
14.296,-70.73
14.312,-83.7
14.328,-91.34
14.343,-93.37
14.359,-89.83
14.375,-81.15
14.390,-68.26
14.406,-52.52
14.421,-35.54
14.437,-18.83
14.453,-3.64
14.468,9.18
14.484,19.15
14.500,26.15
14.515,30.45
14.531,32.66
14.546,33.72
14.562,34.57
14.578,35.93
14.593,38.04
14.609,40.59
14.625,42.85
14.640,43.91
14.656,42.89
14.671,39.14
14.687,32.25
14.703,22.1
14.718,8.94
14.734,-6.57
14.750,-23.34
14.765,-39.92
14.781,-54.7
14.796,-66.08
14.812,-72.75
14.828,-73.92
14.843,-69.64
14.859,-60.87
14.875,-49.31
14.890,-37.01
14.906,-25.82
14.921,-16.86
14.937,-10.41
14.953,-6.05
14.968,-3.04
14.984,-0.73
15.000,1.29
15.015,3.24
15.031,5.34
15.046,7.9
15.062,11.32
15.078,15.93
15.093,21.78
15.109,28.59
15.125,35.82
15.140,42.8
15.156,48.78
15.171,53.07
15.187,55.06
15.203,54.16
15.218,49.95
15.234,42.25
15.250,31.28
15.265,17.7
15.281,2.59
15.296,-12.68
15.312,-26.63
15.328,-37.85
15.343,-45.24
15.359,-48.14
15.375,-46.45
15.390,-40.74
15.406,-32.13
15.421,-22.02
15.437,-11.7
15.453,-2.04
15.468,6.66
15.484,14.48
15.500,21.54
15.515,27.66
15.531,32.28
15.546,34.71
15.562,34.57
15.578,32.07
15.593,27.98
15.609,23.39
15.625,19.28
15.640,16.19
15.656,14.12
15.671,12.59
15.687,10.8
15.703,7.78
15.718,2.47
15.734,-6.0
15.750,-18.02
15.765,-33.2
15.781,-50.16
15.796,-66.72
15.812,-80.38
15.828,-89.02
15.843,-91.43
15.859,-87.69
15.875,-78.91
15.890,-66.9
15.906,-53.61
15.921,-40.71
15.937,-29.32
15.953,-19.95
15.968,-12.61
15.984,-6.92
16.000,-2.43
16.015,1.47
16.031,5.37
16.046,9.87
16.062,15.53
16.078,22.78
16.093,31.79
16.109,42.39
16.125,54.13
16.140,66.33
16.156,78.28
16.171,89.26
16.187,98.49
16.203,105.03
16.218,107.8
16.234,105.56
16.250,97.27
16.265,82.51
16.281,61.67
16.296,36.21
16.312,8.35
16.328,-19.29
16.343,-44.21
16.359,-64.45
16.375,-78.86
16.390,-87.04
16.406,-89.21
16.421,-86.1
16.437,-78.63
16.453,-67.92
16.468,-55.08
16.484,-41.15
16.500,-27.15
16.515,-13.93
16.531,-2.21
16.546,7.52
16.562,15.04
16.578,20.48
16.593,24.26
16.609,26.83
16.625,28.52
16.640,29.33
16.656,28.98
16.671,27.05
16.687,23.16
16.703,17.17
16.718,9.24
16.734,-0.28
16.750,-10.78
16.765,-21.54
16.781,-31.68
16.796,-40.28
16.812,-46.61
16.828,-50.27
16.843,-51.34
16.859,-50.29
16.875,-47.82
16.890,-44.62
16.906,-41.09
16.921,-37.3
16.937,-33.09
16.953,-28.28
16.968,-22.77
16.984,-16.68
17.000,-10.38
17.015,-4.38
17.031,0.77
17.046,4.6
17.062,6.86
17.078,7.69
17.093,7.66
17.109,7.72
17.125,8.94
17.140,12.07
17.156,17.19
17.171,23.68
17.187,30.37
17.203,36.05
17.218,39.99
17.234,42.21
17.250,43.28
17.265,44.01
17.281,44.92
17.296,46.05
17.312,46.95
17.328,46.88
17.343,45.13
17.359,41.21
17.375,35.02
17.390,27.05
17.406,18.57
17.421,11.43
17.437,7.75
17.453,9.17
17.468,16.14
17.484,27.75
17.500,42.0
17.515,56.63
17.531,69.93
17.546,81.24
17.562,90.86
17.578,99.56
17.593,108.02
17.609,116.38
17.625,124.23
17.640,130.88
17.656,135.55
17.671,137.68
17.687,137.08
17.703,133.77
17.718,127.99
17.734,120.04
17.750,110.11
17.765,98.27
17.781,84.53
17.796,68.87
17.812,51.23
17.828,31.4
17.843,9.01
17.859,-16.49
17.875,-45.4
17.890,-77.41
17.906,-111.1
17.921,-144.0
17.937,-172.91
17.953,-194.7
17.968,-207.24
17.984,-209.9
18.000,-203.74
18.015,-190.99
18.031,-174.32
18.046,-155.98
18.062,-137.45
18.078,-119.36
18.093,-101.86
18.109,-84.99
18.125,-68.95
18.140,-53.97
18.156,-40.18
18.171,-27.37
18.187,-15.01
18.203,-2.48
18.218,10.58
18.234,24.11
18.250,37.62
18.265,50.42
18.281,61.98
18.296,72.06
18.312,80.7
18.328,88.0
18.343,93.89
18.359,97.95
18.375,99.39
18.390,97.36
18.406,91.23
18.421,80.97
18.437,67.29
18.453,51.52
18.468,35.37
18.484,20.6
18.500,8.58
18.515,0.2
18.531,-4.36
18.546,-5.52
18.562,-4.18
18.578,-1.54
18.593,1.04
18.609,2.23
18.625,0.84
18.640,-3.97
18.656,-12.45
18.671,-24.06
18.687,-37.43
18.703,-50.65
18.718,-61.8
18.734,-69.71
18.750,-74.29
18.765,-76.62
18.781,-78.36
18.796,-81.02
18.812,-85.38
18.828,-91.27
18.843,-97.86
18.859,-104.08
18.875,-109.1
18.890,-112.42
18.906,-113.91
18.921,-113.61
18.937,-111.71
18.953,-108.42
18.968,-104.07
18.984,-99.09
19.000,-93.84
19.015,-88.62
19.031,-83.56
19.046,-78.57
19.062,-73.43
19.078,-67.76
19.093,-61.18
19.109,-53.5
19.125,-44.88
19.140,-35.83
19.156,-27.12
19.171,-19.51
19.187,-13.45
19.203,-8.97
19.218,-5.76
19.234,-3.37
19.250,-1.54
19.265,-0.25
19.281,0.4
19.296,0.51
19.312,0.61
19.328,1.66
19.343,4.64
19.359,10.1
19.375,17.62
19.390,25.9
19.406,33.09
19.421,37.56
19.437,38.45
19.453,35.92
19.468,30.98
19.484,24.92
19.500,18.97
19.515,13.99
19.531,10.51
19.546,8.77
19.562,8.83
19.578,10.51
19.593,13.43
19.609,16.92
19.625,20.13
19.640,22.12
19.656,22.04
19.671,19.19
19.687,13.35
19.703,4.91
19.718,-4.89
19.734,-14.17
19.750,-21.02
19.765,-24.08
19.781,-23.05
19.796,-18.58
19.812,-11.97
19.828,-4.69
19.843,1.79
19.859,6.14
19.875,7.17
19.890,4.0
19.906,-3.48
19.921,-14.34
19.937,-26.48
19.953,-37.22
19.968,-44.12
19.984,-45.84
20.000,-42.52
20.015,-35.59
20.031,-27.06
20.046,-18.74
20.062,-11.85
20.078,-6.86
20.093,-3.72
20.109,-2.01
20.125,-1.16
20.140,-0.52
20.156,0.52
20.171,2.47
20.187,5.72
20.203,10.25
20.218,15.64
20.234,21.13
20.250,25.78
20.265,28.83
20.281,29.88
20.296,29.08
20.312,27.06
20.328,24.88
20.343,23.56
20.359,23.97
20.375,26.53
20.390,31.11
20.406,37.04
20.421,43.3
20.437,48.82
20.453,52.8
20.468,55.0
20.484,55.69
20.500,55.49
20.515,55.11
20.531,55.12
20.546,55.77
20.562,56.97
20.578,58.45
20.593,59.83
20.609,60.82
20.625,61.23
20.640,60.93
20.656,59.74
20.671,57.4
20.687,53.53
20.703,47.75
20.718,39.81
20.734,29.79
20.750,18.16
20.765,5.89
20.781,-5.77
20.796,-15.43
20.812,-21.85
20.828,-24.18
20.843,-22.12
20.859,-16.05
20.875,-6.95
20.890,3.81
20.906,14.72
20.921,24.53
20.937,32.42
20.953,38.09
20.968,41.68
20.984,43.54
21.000,44.03
21.015,43.36
21.031,41.58
21.046,38.6
21.062,34.35
21.078,28.84
21.093,22.26
21.109,14.86
21.125,7.01
21.140,-0.87
21.156,-8.35
21.171,-15.03
21.187,-20.62
21.203,-25.17
21.218,-29.09
21.234,-33.09
21.250,-38.01
21.265,-44.46
21.281,-52.45
21.296,-61.21
21.312,-69.14
21.328,-74.28
21.343,-74.9
21.359,-70.09
21.375,-59.99
21.390,-45.91
21.406,-29.79
21.421,-13.7
21.437,0.82
21.453,13.09
21.468,23.25
21.484,31.88
21.500,39.45
21.515,46.12
21.531,51.57
21.546,55.49
21.562,57.99
21.578,59.63
21.593,61.3
21.609,63.58
21.625,66.54
21.640,69.71
21.656,72.54
21.671,74.87
21.687,77.18
21.703,80.19
21.718,84.1
21.734,88.09
21.750,90.17
21.765,87.95
21.781,79.65
21.796,65.05
21.812,45.83
21.828,25.21
21.843,6.93
21.859,-5.9
21.875,-11.6
21.890,-10.28
21.906,-3.46
21.921,6.59
21.937,17.6
21.953,27.76
21.968,35.73
21.984,40.4
22.000,40.5
22.015,34.81
22.031,22.37
22.046,3.24
22.062,-21.13
22.078,-47.83
22.093,-73.18
22.109,-93.68
22.125,-107.16
22.140,-113.4
22.156,-114.02
22.171,-111.85
22.187,-109.76
22.203,-109.65
22.218,-111.92
22.234,-115.55
22.250,-118.92
22.265,-120.48
22.281,-119.61
22.296,-116.58
22.312,-112.16
22.328,-107.01
22.343,-101.22
22.359,-94.41
22.375,-86.07
22.390,-76.21
22.406,-65.51
22.421,-55.24
22.437,-46.71
22.453,-40.72
22.468,-37.18
22.484,-35.31
22.500,-33.94
22.515,-32.02
22.531,-29.0
22.546,-24.79
22.562,-19.65
22.578,-13.97
22.593,-8.13
22.609,-2.41
22.625,2.92
22.640,7.62
22.656,11.35
22.671,13.69
22.687,14.22
22.703,12.68
22.718,9.15
22.734,4.12
22.750,-1.56
22.765,-6.79
22.781,-10.58
22.796,-12.27
22.812,-11.72
22.828,-9.23
22.843,-5.47
22.859,-1.12
22.875,3.31
22.890,7.57
22.906,11.74
22.921,16.16
22.937,21.27
22.953,27.52
22.968,35.15
22.984,44.12
23.000,54.12
23.015,64.57
23.031,74.78
23.046,83.94
23.062,91.31
23.078,96.26
23.093,98.31
23.109,97.23
23.125,92.94
23.140,85.54
23.156,75.17
23.171,62.15
23.187,46.9
23.203,30.13
23.218,12.8
23.234,-4.04
23.250,-19.52
23.265,-33.22
23.281,-45.23
23.296,-56.01
23.312,-65.92
23.328,-74.87
23.343,-82.13
23.359,-86.46
23.375,-86.72
23.390,-82.36
23.406,-73.79
23.421,-62.23
23.437,-49.32
23.453,-36.57
23.468,-24.96
23.484,-15.0
23.500,-6.76
23.515,-0.22
23.531,4.65
23.546,7.95
23.562,10.01
23.578,11.44
23.593,13.05
23.609,15.56
23.625,19.31
23.640,24.12
23.656,29.36
23.671,34.22
23.687,37.97
23.703,40.16
23.718,40.53
23.734,38.95
23.750,35.29
23.765,29.53
23.781,21.96
23.796,13.31
23.812,4.76
23.828,-2.29
23.843,-6.64
23.859,-7.58
23.875,-4.94
23.890,0.94
23.906,9.41
23.921,19.64
23.937,30.81
23.953,42.03
23.968,52.57
23.984,61.87
24.000,69.72
24.015,76.14
24.031,81.31
24.046,85.23
24.062,87.55
24.078,87.69
24.093,85.09
24.109,79.54
24.125,71.26
24.140,60.85
24.156,48.94
24.171,36.02
24.187,22.17
24.203,7.26
24.218,-8.93
24.234,-26.43
24.250,-44.93
24.265,-63.6
24.281,-81.21
24.296,-96.33
24.312,-107.58
24.328,-113.97
24.343,-115.09
24.359,-111.17
24.375,-103.1
24.390,-92.24
24.406,-80.16
24.421,-68.44
24.437,-58.29
24.453,-50.4
24.468,-44.78
24.484,-40.77
24.500,-37.32
24.515,-33.39
24.531,-28.3
24.546,-21.91
24.562,-14.57
24.578,-6.84
24.593,0.81
24.609,8.17
24.625,15.35
24.640,22.63
24.656,30.3
24.671,38.43
24.687,46.76
24.703,54.66
24.718,61.16
24.734,65.16
24.750,65.66
24.765,62.05
24.781,54.42
24.796,43.7
24.812,31.61
24.828,20.33
24.843,11.97
24.859,7.98
24.875,8.82
24.890,13.83
24.906,21.58
24.921,30.36
24.937,38.75
24.953,45.87
24.968,51.45
24.984,55.55
25.000,58.34
25.015,59.94
25.031,60.41
25.046,59.81
25.062,58.27
25.078,55.95
25.093,53.0
25.109,49.44
25.125,45.24
25.140,40.25
25.156,34.4
25.171,27.55
25.187,19.49
25.203,9.83
25.218,-1.92
25.234,-16.16
25.250,-32.92
25.265,-51.54
25.281,-70.66
25.296,-88.28
25.312,-102.29
25.328,-110.98
25.343,-113.57
25.359,-110.49
25.375,-103.13
25.390,-93.38
25.406,-82.96
25.421,-73.05
25.437,-64.03
25.453,-55.82
25.468,-48.06
25.484,-40.32
25.500,-32.25
25.515,-23.39
25.531,-13.25
25.546,-1.39
25.562,12.32
25.578,27.51
25.593,43.24
25.609,58.15
25.625,70.82
25.640,79.95
25.656,84.72
25.671,84.76
25.687,80.23
25.703,71.76
25.718,60.37
25.734,47.33
25.750,34.06
25.765,21.87
25.781,11.71
25.796,4.07
25.812,-1.05
25.828,-3.93
25.843,-4.94
25.859,-4.31
25.875,-2.07
25.890,1.88
25.906,7.67
25.921,15.27
25.937,24.38
25.953,34.43
25.968,44.57
25.984,53.83
26.000,61.12
26.015,65.48
26.031,66.19
26.046,62.92
26.062,55.7
26.078,44.97
26.093,31.42
26.109,15.93
26.125,-0.57
26.140,-17.14
26.156,-32.97
26.171,-47.41
26.187,-60.03
26.203,-70.69
26.218,-79.42
26.234,-86.39
26.250,-91.75
26.265,-95.56
26.281,-97.68
26.296,-97.86
26.312,-95.83
26.328,-91.49
26.343,-85.0
26.359,-76.9
26.375,-67.88
26.390,-58.66
26.406,-49.74
26.421,-41.28
26.437,-33.26
26.453,-25.68
26.468,-18.58
26.484,-12.13
26.500,-6.39
26.515,-1.19
26.531,3.9
26.546,9.44
26.562,15.85
26.578,23.21
26.593,31.11
26.609,38.84
26.625,45.55
26.640,50.47
26.656,53.01
26.671,52.81
26.687,49.68
26.703,43.62
26.718,34.86
26.734,23.9
26.750,11.76
26.765,-0.19
26.781,-10.26
26.796,-16.8
26.812,-18.67
26.828,-15.49
26.843,-7.84
26.859,2.95
26.875,15.1
26.890,26.95
26.906,37.26
26.921,45.43
26.937,51.46
26.953,55.71
26.968,58.65
26.984,60.7
27.000,62.06
27.015,62.76
27.031,62.66
27.046,61.46
27.062,58.78
27.078,54.18
27.093,47.22
27.109,37.62
27.125,25.5
27.140,11.39
27.156,-3.64
27.171,-18.38
27.187,-31.62
27.203,-42.51
27.218,-50.73
27.234,-56.37
27.250,-59.9
27.265,-61.73
27.281,-62.24
27.296,-61.55
27.312,-59.75
27.328,-56.92
27.343,-53.24
27.359,-48.95
27.375,-44.36
27.390,-39.69
27.406,-34.99
27.421,-30.19
27.437,-25.13
27.453,-19.76
27.468,-14.18
27.484,-8.64
27.500,-3.46
27.515,1.18
27.531,5.39
27.546,9.55
27.562,14.22
27.578,19.95
27.593,27.03
27.609,35.3
27.625,44.13
27.640,52.48
27.656,59.19
27.671,63.13
27.687,63.47
27.703,59.79
27.718,52.11
27.734,40.97
27.750,27.25
27.765,12.19
27.781,-2.77
27.796,-16.14
27.812,-26.62
27.828,-33.3
27.843,-35.84
27.859,-34.42
27.875,-29.67
27.890,-22.51
27.906,-13.91
27.921,-4.71
27.937,4.48
27.953,13.32
27.968,21.64
27.984,29.28
28.000,35.97
28.015,41.33
28.031,44.97
28.046,46.79
28.062,47.03
28.078,46.26
28.093,45.07
28.109,43.73
28.125,41.97
28.140,39.06
28.156,34.15
28.171,26.68
28.187,16.61
28.203,4.41
28.218,-9.14
28.234,-23.17
28.250,-36.83
28.265,-49.31
28.281,-59.9
28.296,-68.06
28.312,-73.63
28.328,-76.86
28.343,-78.4
28.359,-78.95
28.375,-79.05
28.390,-78.89
28.406,-78.31
28.421,-76.88
28.437,-74.15
28.453,-69.79
28.468,-63.64
28.484,-55.74
28.500,-46.32
28.515,-35.8
28.531,-24.7
28.546,-13.6
28.562,-2.94
28.578,6.96
28.593,15.96
28.609,23.98
28.625,30.94
28.640,36.71
28.656,41.09
28.671,43.84
28.687,44.71
28.703,43.53
28.718,40.17
28.734,34.65
28.750,27.15
28.765,17.99
28.781,7.72
28.796,-2.78
28.812,-12.37
28.828,-19.67
28.843,-23.46
28.859,-22.89
28.875,-17.89
28.890,-9.18
28.906,1.82
28.921,13.43
28.937,24.29
28.953,33.57
28.968,41.06
28.984,46.91
29.000,51.31
29.015,54.26
29.031,55.62
29.046,55.32
29.062,53.55
29.078,50.85
29.093,47.77
29.109,44.57
29.125,40.94
29.140,36.1
29.156,29.13
29.171,19.49
29.187,7.33
29.203,-6.57
29.218,-21.06
29.234,-35.05
29.250,-47.72
29.265,-58.5
29.281,-66.95
29.296,-72.59
29.312,-74.95
29.328,-73.74
29.343,-69.18
29.359,-62.0
29.375,-53.41
29.390,-44.68
29.406,-36.81
29.421,-30.38
29.437,-25.44
29.453,-21.71
29.468,-18.87
29.484,-16.69
29.500,-15.06
29.515,-13.9
29.531,-12.99
29.546,-11.91
29.562,-10.08
29.578,-7.04
29.593,-2.54
29.609,3.23
29.625,9.8
29.640,16.55
29.656,22.87
29.671,28.42
29.687,33.11
29.703,37.15
29.718,40.78
29.734,44.19
29.750,47.27
29.765,49.6
29.781,50.48
29.796,49.17
29.812,45.24
29.828,38.76
29.843,30.37
29.859,21.16
29.875,12.35
29.890,5.1
29.906,0.3
29.921,-1.49
29.937,-0.17
29.953,3.97
29.968,10.29
29.984,17.83
30.000,25.58
30.015,32.66
30.031,38.43
30.046,42.43
30.062,44.4
30.078,44.1
30.093,41.36
30.109,36.27
30.125,29.21
30.140,20.97
30.156,12.53
30.171,4.84
30.187,-1.52
30.203,-6.41
30.218,-10.08
30.234,-13.11
30.250,-16.12
30.265,-19.77
30.281,-24.53
30.296,-30.62
30.312,-37.95
30.328,-45.95
30.343,-53.78
30.359,-60.45
30.375,-65.16
30.390,-67.42
30.406,-67.31
30.421,-65.2
30.437,-61.7
30.453,-57.46
30.468,-53.03
30.484,-48.88
30.500,-45.37
30.515,-42.71
30.531,-40.88
30.546,-39.65
30.562,-38.46
30.578,-36.6
30.593,-33.42
30.609,-28.38
30.625,-21.3
30.640,-12.37
30.656,-2.12
30.671,8.62
30.687,18.84
30.703,27.57
30.718,34.07
30.734,37.87
30.750,38.97
30.765,37.7
30.781,34.61
30.796,30.35
30.812,25.52
30.828,20.7
30.843,16.47
30.859,13.42
30.875,12.01
30.890,12.53
30.906,14.89
30.921,18.59
30.937,22.86
30.953,26.91
30.968,30.21
30.984,32.65
31.000,34.49
31.015,36.19
31.031,38.13
31.046,40.43
31.062,42.85
31.078,44.98
31.093,46.32
31.109,46.49
31.125,45.23
31.140,42.43
31.156,38.02
31.171,32.0
31.187,24.41
31.203,15.35
31.218,5.07
31.234,-6.07
31.250,-17.64
31.265,-29.03
31.281,-39.58
31.296,-48.55
31.312,-55.27
31.328,-59.31
31.343,-60.58
31.359,-59.41
31.375,-56.45
31.390,-52.47
31.406,-48.13
31.421,-43.77
31.437,-39.48
31.453,-35.14
31.468,-30.69
31.484,-26.2
31.500,-21.87
31.515,-17.96
31.531,-14.62
31.546,-11.75
31.562,-9.04
31.578,-6.09
31.593,-2.6
31.609,1.52
31.625,6.14
31.640,11.01
31.656,15.96
31.671,20.86
31.687,25.66
31.703,30.35
31.718,34.81
31.734,38.81
31.750,41.96
31.765,43.91
31.781,44.42
31.796,43.45
31.812,41.18
31.828,37.9
31.843,34.02
31.859,30.07
31.875,26.57
31.890,24.03
31.906,22.93
31.921,23.6
31.937,26.04
31.953,29.96
31.968,34.82
31.984,39.91
32.000,44.61
32.015,48.47
32.031,51.16
32.046,52.45
32.062,52.02
32.078,49.47
32.093,44.53
32.109,37.19
32.125,27.78
32.140,16.86
32.156,5.02
32.171,-7.33
32.187,-19.94
32.203,-32.64
32.218,-45.03
32.234,-56.44
32.250,-66.05
32.265,-73.16
32.281,-77.4
32.296,-78.86
32.312,-77.9
32.328,-74.95
32.343,-70.42
32.359,-64.71
32.375,-58.31
32.390,-51.9
32.406,-46.26
32.421,-42.0
32.437,-39.32
32.453,-37.96
32.468,-37.35
32.484,-36.87
32.500,-36.13
32.515,-34.99
32.531,-33.51
32.546,-31.74
32.562,-29.57
32.578,-26.78
32.593,-23.21
32.609,-18.84
32.625,-13.87
32.640,-8.61
32.656,-3.29
32.671,2.04
32.687,7.49
32.703,13.23
32.718,19.25
32.734,25.25
32.750,30.67
32.765,34.87
32.781,37.31
32.796,37.8
32.812,36.52
32.828,34.0
32.843,30.94
32.859,28.06
32.875,25.96
32.890,25.09
32.906,25.68
32.921,27.69
32.937,30.77
32.953,34.35
32.968,37.75
32.984,40.37
33.000,41.86
33.015,42.06
33.031,40.97
33.046,38.69
33.062,35.44
33.078,31.59
33.093,27.62
33.109,24.02
33.125,21.08
33.140,18.68
33.156,16.3
33.171,13.21
33.187,8.77
33.203,2.69
33.218,-4.86
33.234,-13.49
33.250,-22.8
33.265,-32.47
33.281,-42.18
33.296,-51.47
33.312,-59.59
33.328,-65.62
33.343,-68.85
33.359,-69.1
33.375,-66.83
33.390,-63.05
33.406,-58.88
33.421,-55.16
33.437,-52.22
33.453,-49.96
33.468,-48.02
33.484,-46.05
33.500,-43.84
33.515,-41.19
33.531,-37.83
33.546,-33.39
33.562,-27.44
33.578,-19.76
33.593,-10.47
33.609,-0.11
33.625,10.48
33.640,20.35
33.656,28.62
33.671,34.7
33.687,38.27
33.703,39.3
33.718,37.92
33.734,34.31
33.750,28.74
33.765,21.67
33.781,13.88
33.796,6.48
33.812,0.73
33.828,-2.32
33.843,-2.16
33.859,0.89
33.875,5.84
33.890,11.38
33.906,16.42
33.921,20.41
33.937,23.52
33.953,26.37
33.968,29.69
33.984,33.98
34.000,39.31
34.015,45.34
34.031,51.48
34.046,57.1
34.062,61.71
34.078,64.96
34.093,66.53
34.109,65.97
34.125,62.73
34.140,56.26
34.156,46.48
34.171,33.86
34.187,19.49
34.203,4.75
34.218,-9.25
34.234,-22.06
34.250,-34.04
34.265,-45.89
34.281,-58.16
34.296,-70.54
34.312,-81.83
34.328,-90.28
34.343,-94.27
34.359,-93.01
34.375,-86.84
34.390,-77.11
34.406,-65.51
34.421,-53.64
34.437,-42.46
34.453,-32.31
34.468,-23.13
34.484,-14.79
34.500,-7.32
34.515,-0.77
34.531,4.85
34.546,9.83
34.562,14.73
34.578,20.23
34.593,26.9
34.609,34.92
34.625,43.9
34.640,52.9
34.656,60.67
34.671,65.88
34.687,67.44
34.703,64.76
34.718,57.87
34.734,47.56
34.750,35.21
34.765,22.65
34.781,11.67
34.796,3.67
34.812,-0.67
34.828,-1.58
34.843,0.06
34.859,3.02
34.875,6.11
34.890,8.52
34.906,9.97
34.921,10.67
34.937,11.17
34.953,12.15
34.968,14.19
34.984,17.46
35.000,21.57
35.015,25.62
35.031,28.5
35.046,29.2
35.062,27.19
35.078,22.41
35.093,15.19
35.109,6.02
35.125,-4.57
35.140,-16.09
35.156,-27.95
35.171,-39.38
35.187,-49.5
35.203,-57.52
35.218,-62.97
35.234,-65.76
35.250,-66.23
35.265,-64.84
35.281,-62.07
35.296,-58.33
35.312,-53.88
35.328,-49.02
35.343,-44.06
35.359,-39.36
35.375,-35.3
35.390,-32.07
35.406,-29.57
35.421,-27.36
35.437,-24.76
35.453,-21.07
35.468,-15.81
35.484,-8.91
35.500,-0.67
35.515,8.35
35.531,17.56
35.546,26.51
35.562,34.91
35.578,42.61
35.593,49.58
35.609,55.78
35.625,61.19
35.640,65.67
35.656,68.84
35.671,70.03
35.687,68.34
35.703,62.81
35.718,52.94
35.734,38.99
35.750,22.09
35.765,4.03
35.781,-13.08
35.796,-27.31
35.812,-37.24
35.828,-42.13
35.843,-42.01
35.859,-37.58
35.875,-30.09
35.890,-21.08
35.906,-11.95
35.921,-3.62
35.937,3.6
35.953,9.96
35.968,15.8
35.984,21.29
36.000,26.24
36.015,30.19
36.031,32.6
36.046,33.13
36.062,31.74
36.078,28.59
36.093,23.96
36.109,18.11
36.125,11.25
36.140,3.5
36.156,-5.03
36.171,-14.21
36.187,-23.79
36.203,-33.31
36.218,-42.1
36.234,-49.36
36.250,-54.31
36.265,-56.46
36.281,-55.8
36.296,-52.72
36.312,-48.0
36.328,-42.53
36.343,-37.17
36.359,-32.54
36.375,-29.0
36.390,-26.51
36.406,-24.76
36.421,-23.11
36.437,-20.84
36.453,-17.21
36.468,-11.63
36.484,-3.81
36.500,6.23
36.515,18.16
36.531,31.4
36.546,45.19
36.562,58.75
36.578,71.29
36.593,82.09
36.609,90.53
36.625,95.97
36.640,97.81
36.656,95.53
36.671,88.85
36.687,77.93
36.703,63.54
36.718,46.9
36.734,29.45
36.750,12.46
36.765,-3.26
36.781,-17.27
36.796,-29.39
36.812,-39.25
36.828,-46.22
36.843,-49.56
36.859,-48.81
36.875,-44.16
36.890,-36.6
36.906,-27.71
36.921,-19.09
36.937,-11.79
36.953,-6.03
36.968,-1.28
36.984,3.24
37.000,8.06
37.015,13.07
37.031,17.58
37.046,20.62
37.062,21.5
37.078,20.11
37.093,17.0
37.109,12.96
37.125,8.57
37.140,3.79
37.156,-1.99
37.171,-9.72
37.187,-20.11
37.203,-33.14
37.218,-47.97
37.234,-63.01
37.250,-76.3
37.265,-86.07
37.281,-91.06
37.296,-90.81
37.312,-85.67
37.328,-76.69
37.343,-65.19
37.359,-52.53
37.375,-39.77
37.390,-27.6
37.406,-16.44
37.421,-6.62
37.437,1.61
37.453,8.13
37.468,13.13
37.484,17.22
37.500,21.25
37.515,26.03
37.531,31.87
37.546,38.56
37.562,45.33
37.578,51.18
37.593,55.21
37.609,56.83
37.625,55.69
37.640,51.65
37.656,44.72
37.671,35.12
37.687,23.39
37.703,10.5
37.718,-2.26
37.734,-13.43
37.750,-21.71
37.765,-26.15
37.781,-26.4
37.796,-22.66
37.812,-15.68
37.828,-6.62
37.843,3.28
37.859,12.81
37.875,21.13
37.890,27.77
37.906,32.59
37.921,35.66
37.937,37.21
37.953,37.46
37.968,36.67
37.984,35.03
38.000,32.56
38.015,29.2
38.031,24.66
38.046,18.7
38.062,11.28
38.078,2.77
38.093,-6.05
38.109,-14.27
38.125,-21.14
38.140,-26.41
38.156,-30.25
38.171,-33.11
38.187,-35.44
38.203,-37.53
38.218,-39.48
38.234,-41.34
38.250,-43.18
38.265,-45.01
38.281,-46.71
38.296,-47.95
38.312,-48.27
38.328,-47.26
38.343,-44.74
38.359,-40.84
38.375,-35.96
38.390,-30.57
38.406,-25.01
38.421,-19.54
38.437,-14.25
38.453,-9.18
38.468,-4.39
38.484,0.16
38.500,4.7
38.515,9.64
38.531,15.55
38.546,22.98
38.562,32.06
38.578,42.44
38.593,53.19
38.609,63.02
38.625,70.59
38.640,74.85
38.656,75.31
38.671,72.07
38.687,65.73
38.703,57.09
38.718,46.99
38.734,36.2
38.750,25.37
38.765,14.99
38.781,5.38
38.796,-3.28
38.812,-10.83
38.828,-16.95
38.843,-21.13
38.859,-22.57
38.875,-20.66
38.890,-15.21
38.906,-6.83
38.921,3.14
38.937,12.94
38.953,20.95
38.968,26.23
38.984,28.73
39.000,29.23
39.015,28.91
39.031,28.88
39.046,29.73
39.062,31.41
39.078,33.12
39.093,33.66
39.109,31.73
39.125,26.35
39.140,17.33
39.156,5.39
39.171,-7.96
39.187,-20.86
39.203,-31.68
39.218,-39.57
39.234,-44.64
39.250,-47.79
39.265,-50.16
39.281,-52.62
39.296,-55.44
39.312,-58.24
39.328,-60.24
39.343,-60.44
39.359,-57.92
39.375,-51.91
39.390,-41.99
39.406,-28.23
39.421,-11.28
39.437,7.62
39.453,26.86
39.468,44.87
39.484,60.48
39.500,73.11
39.515,82.77
39.531,89.74
39.546,94.34
39.562,96.84
39.578,97.44
39.593,96.42
39.609,94.13
39.625,90.78
39.640,86.48
39.656,81.1
39.671,74.46
39.687,66.45
39.703,57.23
39.718,47.28
39.734,37.28
39.750,27.94
39.765,19.77
39.781,13.01
39.796,7.69
39.812,3.64
39.828,0.58
39.843,-1.8
39.859,-3.89
39.875,-6.0
39.890,-8.49
39.906,-11.59
39.921,-15.41
39.937,-19.84
39.953,-24.59
39.968,-29.26
39.984,-33.56
40.000,-37.44
40.015,-41.16
40.031,-45.14
40.046,-49.78
40.062,-55.12
40.078,-60.87
40.093,-66.44
40.109,-71.17
40.125,-74.65
40.140,-76.83
40.156,-78.07
40.171,-78.89
40.187,-79.74
40.203,-80.7
40.218,-81.56
40.234,-81.78
40.250,-80.76
40.265,-77.94
40.281,-73.04
40.296,-66.01
40.312,-57.13
40.328,-46.98
40.343,-36.37
40.359,-26.33
40.375,-17.86
40.390,-11.78
40.406,-8.51
40.421,-7.87
40.437,-9.25
40.453,-11.76
40.468,-14.56
40.484,-17.17
40.500,-19.4
40.515,-21.35
40.531,-23.2
40.546,-25.03
40.562,-26.78
40.578,-28.26
40.593,-29.25
40.609,-29.56
40.625,-29.09
40.640,-27.75
40.656,-25.48
40.671,-22.22
40.687,-17.97
40.703,-12.82
40.718,-7.01
40.734,-0.91
40.750,5.02
40.765,10.3
40.781,14.59
40.796,17.59
40.812,19.13
40.828,19.16
40.843,17.83
40.859,15.54
40.875,12.99
40.890,11.05
40.906,10.58
40.921,12.11
40.937,15.72
40.953,20.96
40.968,27.01
40.984,32.95
41.000,38.1
41.015,42.17
41.031,45.38
41.046,48.36
41.062,51.91
41.078,56.76
41.093,63.24
41.109,71.11
41.125,79.51
41.140,87.22
41.156,92.89
41.171,95.47
41.187,94.42
41.203,89.77
41.218,82.05
41.234,72.04
41.250,60.64
41.265,48.66
41.281,36.81
41.296,25.55
41.312,15.11
41.328,5.5
41.343,-3.37
41.359,-11.52
41.375,-18.83
41.390,-24.92
41.406,-29.39
41.421,-32.0
41.437,-32.97
41.453,-33.04
41.468,-33.4
41.484,-35.22
41.500,-39.2
41.515,-45.28
41.531,-52.56
41.546,-59.67
41.562,-65.14
41.578,-67.97
41.593,-67.83
41.609,-65.09
41.625,-60.57
41.640,-55.26
41.656,-50.02
41.671,-45.46
41.687,-41.85
41.703,-39.19
41.718,-37.31
41.734,-35.95
41.750,-34.93
41.765,-34.09
41.781,-33.37
41.796,-32.78
41.812,-32.37
41.828,-32.19
41.843,-32.36
41.859,-32.98
41.875,-34.03
41.890,-35.27
41.906,-36.2
41.921,-36.07
41.937,-34.16
41.953,-29.97
41.968,-23.46
41.984,-15.07
42.000,-5.59
42.015,4.08
42.031,13.13
42.046,20.96
42.062,27.35
42.078,32.22
42.093,35.65
42.109,37.77
42.125,38.82
42.140,39.19
42.156,39.53
42.171,40.54
42.187,42.85
42.203,46.71
42.218,51.82
42.234,57.38
42.250,62.39
42.265,65.94
42.281,67.48
42.296,66.93
42.312,64.56
42.328,60.86
42.343,56.37
42.359,51.56
42.375,46.71
42.390,41.83
42.406,36.59
42.421,30.49
42.437,23.11
42.453,14.42
42.468,4.93
42.484,-4.35
42.500,-12.33
42.515,-18.15
42.531,-21.47
42.546,-22.43
42.562,-21.5
42.578,-19.1
42.593,-15.58
42.609,-11.35
42.625,-6.87
42.640,-2.8
42.656,0.28
42.671,2.01
42.687,2.44
42.703,1.83
42.718,0.51
42.734,-1.49
42.750,-4.37
42.765,-8.37
42.781,-13.52
42.796,-19.37
42.812,-25.18
42.828,-30.23
42.843,-34.16
42.859,-37.04
42.875,-39.25
42.890,-41.07
42.906,-42.53
42.921,-43.32
42.937,-43.04
42.953,-41.45
42.968,-38.66
42.984,-35.08
43.000,-31.29
43.015,-27.82
43.031,-25.08
43.046,-23.26
43.062,-22.45
43.078,-22.6
43.093,-23.52
43.109,-24.94
43.125,-26.58
43.140,-28.09
43.156,-29.17
43.171,-29.51
43.187,-28.79
43.203,-26.81
43.218,-23.54
43.234,-19.2
43.250,-14.12
43.265,-8.66
43.281,-2.99
43.296,2.9
43.312,9.09
43.328,15.56
43.343,21.98
43.359,27.8
43.375,32.32
43.390,35.14
43.406,36.34
43.421,36.62
43.437,37.04
43.453,38.73
43.468,42.39
43.484,48.14
43.500,55.39
43.515,63.11
43.531,70.2
43.546,75.88
43.562,79.93
43.578,82.67
43.593,84.72
43.609,86.67
43.625,88.87
43.640,91.26
43.656,93.49
43.671,94.99
43.687,95.19
43.703,93.61
43.718,89.98
43.734,84.31
43.750,76.85
43.765,68.05
43.781,58.43
43.796,48.48
43.812,38.48
43.828,28.48
43.843,18.39
43.859,8.04
43.875,-2.54
43.890,-13.25
43.906,-23.86
43.921,-34.18
43.937,-44.13
43.953,-53.75
43.968,-63.15
43.984,-72.36
44.000,-81.32
44.015,-89.88
44.031,-97.8
44.046,-104.71
44.062,-110.02
44.078,-112.91
44.093,-112.49
44.109,-108.09
44.125,-99.74
44.140,-88.36
44.156,-75.55
44.171,-63.06
44.187,-52.06
44.203,-42.86
44.218,-35.03
44.234,-27.86
44.250,-20.99
44.265,-14.58
44.281,-9.15
44.296,-5.06
44.312,-2.19
44.328,0.08
44.343,2.41
44.359,5.09
44.375,7.8
44.390,9.83
44.406,10.58
44.421,10.01
44.437,8.79
44.453,8.06
44.468,8.9
44.484,11.88
44.500,16.86
44.515,23.1
44.531,29.6
44.546,35.51
44.562,40.4
44.578,44.22
44.593,47.13
44.609,49.22
44.625,50.29
44.640,49.78
44.656,46.97
44.671,41.13
44.687,31.89
44.703,19.42
44.718,4.5
44.734,-11.6
44.750,-27.21
44.765,-40.58
44.781,-50.21
44.796,-55.18
44.812,-55.43
44.828,-51.69
44.843,-45.31
44.859,-37.67
44.875,-29.8
44.890,-21.98
44.906,-13.86
44.921,-4.82
44.937,5.63
44.953,17.47
44.968,30.26
44.984,43.15
45.000,55.37
45.015,66.4
45.031,76.1
45.046,84.59
45.062,92.13
45.078,98.91
45.093,104.89
45.109,109.84
45.125,113.24
45.140,114.42
45.156,112.74
45.171,107.59
45.187,98.58
45.203,85.59
45.218,68.77
45.234,48.52
45.250,25.54
45.265,0.78
45.281,-24.53
45.296,-48.89
45.312,-70.77
45.328,-88.56
45.343,-100.91
45.359,-106.75
45.375,-105.57
45.390,-97.6
45.406,-83.96
45.421,-66.63
45.437,-48.13
45.453,-30.96
45.468,-16.97
45.484,-6.94
45.500,-0.61
45.515,2.98
45.531,5.13
45.546,7.13
45.562,10.01
45.578,14.5
45.593,20.72
45.609,27.9
45.625,34.27
45.640,37.43
45.656,35.14
45.671,26.25
45.687,11.14
45.703,-8.48
45.718,-30.34
45.734,-52.41
45.750,-73.25
45.765,-91.85
45.781,-107.15
45.796,-117.73
45.812,-122.08
45.828,-119.22
45.843,-109.38
45.859,-94.02
45.875,-75.5
45.890,-56.29
45.906,-38.1
45.921,-21.72
45.937,-7.2
45.953,5.55
45.968,16.24
45.984,24.19
46.000,28.62
46.015,29.31
46.031,26.82
46.046,22.46
46.062,17.61
46.078,13.11
46.093,8.78
46.109,3.62
46.125,-3.42
46.140,-12.69
46.156,-23.35
46.171,-33.75
46.187,-42.07
46.203,-47.25
46.218,-49.27
46.234,-48.99
46.250,-47.46
46.265,-45.24
46.281,-42.3
46.296,-38.22
46.312,-32.75
46.328,-26.14
46.343,-19.21
46.359,-12.89
46.375,-7.8
46.390,-3.97
46.406,-0.85
46.421,2.2
46.437,5.55
46.453,9.06
46.468,12.23
46.484,14.5
46.500,15.66
46.515,16.01
46.531,16.19
46.546,16.8
46.562,18.01
46.578,19.46
46.593,20.53
46.609,20.72
46.625,19.97
46.640,18.7
46.656,17.64
46.671,17.43
46.687,18.4
46.703,20.38
46.718,22.84
46.734,25.02
46.750,25.97
46.765,24.65
46.781,20.17
46.796,12.15
46.812,1.18
46.828,-11.04
46.843,-22.02
46.859,-29.26
46.875,-31.22
46.890,-27.96
46.906,-21.03
46.921,-12.7
46.937,-5.01
46.953,0.94
46.968,5.15
46.984,8.25
47.000,10.98
47.015,13.83
47.031,17.06
47.046,20.94
47.062,25.87
47.078,32.17
47.093,39.85
47.109,48.44
47.125,57.09
47.140,64.98
47.156,71.66
47.171,77.17
47.187,81.97
47.203,86.47
47.218,90.72
47.234,94.29
47.250,96.32
47.265,95.81
47.281,91.83
47.296,83.78
47.312,71.56
47.328,55.55
47.343,36.52
47.359,15.49
47.375,-6.37
47.390,-27.82
47.406,-47.56
47.421,-64.22
47.437,-76.48
47.453,-83.3
47.468,-84.2
47.484,-79.4
47.500,-69.9
47.515,-57.27
47.531,-43.47
47.546,-30.47
47.562,-19.89
47.578,-12.82
47.593,-9.59
47.609,-9.8
47.625,-12.53
47.640,-16.63
47.656,-21.18
47.671,-25.65
47.687,-29.95
47.703,-34.15
47.718,-38.23
47.734,-41.92
47.750,-44.7
47.765,-46.14
47.781,-46.03
47.796,-44.7
47.812,-42.83
47.828,-41.11
47.843,-39.93
47.859,-39.09
47.875,-37.88
47.890,-35.39
47.906,-30.89
47.921,-24.17
47.937,-15.6
47.953,-5.87
47.968,4.32
47.984,14.72
48.000,25.47
48.015,36.94
48.031,49.34
48.046,62.4
48.062,75.42
48.078,87.59
48.093,98.4
48.109,107.97
48.125,117.08
48.140,126.77
48.156,137.88
48.171,150.61
48.187,164.4
48.203,178.12
48.218,190.59
48.234,200.96
48.250,209.19
48.265,215.9
48.281,222.18
48.296,229.02
48.312,236.76
48.328,244.67
48.343,250.94
48.359,253.02
48.375,248.32
48.390,235.13
48.406,213.03
48.421,183.27
48.437,148.21
48.453,110.61
48.468,72.72
48.484,35.88
48.500,0.28
48.515,-34.73
48.531,-70.0
48.546,-106.0
48.562,-142.18
48.578,-176.61
48.593,-205.8
48.609,-225.28
48.625,-231.09
48.640,-221.64
48.656,-199.32
48.671,-170.16
48.687,-141.93
48.703,-120.98
48.718,-109.71
48.734,-106.2
48.750,-105.99
48.765,-105.06
48.781,-102.03
48.796,-98.41
48.812,-96.99
48.828,-99.47
48.843,-105.39
48.859,-112.54
48.875,-118.73
48.890,-123.35
48.906,-127.85
48.921,-134.49
48.937,-144.52
48.953,-157.13
48.968,-169.41
48.984,-177.45
49.000,-177.84
49.015,-168.87
49.031,-151.08
49.046,-126.75
49.062,-98.63
49.078,-68.73
49.093,-37.98
49.109,-6.8
49.125,23.69
49.140,51.1
49.156,72.15
49.171,84.24
49.187,87.09
49.203,83.34
49.218,77.68
49.234,74.64
49.250,76.6
49.265,82.84
49.281,90.06
49.296,93.93
49.312,90.8
49.328,78.72
49.343,57.61
49.359,29.12
49.375,-3.77
49.390,-36.99
49.406,-66.19
49.421,-88.19
49.437,-102.4
49.453,-111.44
49.468,-120.18
49.484,-133.8
49.500,-155.45
49.515,-184.97
49.531,-219.21
49.546,-253.47
49.562,-283.35
49.578,-305.63
49.593,-318.13
49.609,-319.03
49.625,-306.54
49.640,-279.39
49.656,-238.06
49.671,-185.8
49.687,-128.58
49.703,-73.71
49.718,-27.46
49.734,6.79
49.750,29.21
49.765,42.65
49.781,50.96
49.796,57.26
49.812,63.11
49.828,68.49
49.843,72.59
49.859,74.7
49.875,74.69
49.890,72.99
49.906,70.2
49.921,66.71
49.937,62.38
49.953,56.85
49.968,49.82
49.984,41.39
50.000,32.23
50.015,23.45
50.031,16.28
50.046,11.67
50.062,10.06
50.078,11.21
50.093,14.4
50.109,18.66
50.125,23.17
50.140,27.35
50.156,30.87
50.171,33.48
50.187,34.89
50.203,34.7
50.218,32.6
50.234,28.53
50.250,22.87
50.265,16.37
50.281,9.99
50.296,4.58
50.312,0.66
50.328,-1.69
50.343,-2.74
50.359,-2.97
50.375,-2.85
50.390,-2.79
50.406,-3.18
50.421,-4.31
50.437,-6.49
50.453,-9.79
50.468,-13.97
50.484,-18.3
50.500,-21.62
50.515,-22.65
50.531,-20.44
50.546,-14.76
50.562,-6.14
50.578,4.18
50.593,14.76
50.609,24.3
50.625,31.96
50.640,37.42
50.656,40.7
50.671,42.14
50.687,42.12
50.703,41.12
50.718,39.66
50.734,38.33
50.750,37.63
50.765,37.84
50.781,38.84
50.796,39.97
50.812,40.15
50.828,38.16
50.843,33.21
50.859,25.24
50.875,15.31
50.890,5.32
50.906,-2.47
50.921,-6.09
50.937,-4.59
50.953,1.61
50.968,10.72
50.984,20.14
51.000,27.22
51.015,30.26
51.031,29.01
51.046,24.84
51.062,20.19
51.078,17.6
51.093,18.65
51.109,23.38
51.125,30.46
51.140,37.9
51.156,44.12
51.171,48.6
51.187,52.0
51.203,55.6
51.218,60.42
51.234,66.61
51.250,73.38
51.265,79.45
51.281,83.84
51.296,86.47
51.312,88.25
51.328,90.77
51.343,95.55
51.359,103.27
51.375,113.34
51.390,124.07
51.406,133.11
51.421,138.23
51.437,137.97
51.453,131.76
51.468,119.82
51.484,102.79
51.500,81.68
51.515,57.93
51.531,33.32
51.546,9.68
51.562,-11.9
51.578,-31.54
51.593,-50.58
51.609,-70.51
51.625,-91.59
51.640,-111.83
51.656,-127.29
51.671,-133.73
51.687,-128.75
51.703,-113.13
51.718,-90.46
51.734,-65.51
51.750,-42.19
51.765,-22.35
51.781,-6.02
51.796,7.53
51.812,18.63
51.828,26.85
51.843,31.47
51.859,32.25
51.875,29.69
51.890,24.99
51.906,19.32
51.921,13.25
51.937,6.71
51.953,-0.84
51.968,-9.93
51.984,-20.8
52.000,-33.21
52.015,-46.33
52.031,-58.74
52.046,-68.56
52.062,-73.87
52.078,-73.31
52.093,-66.65
52.109,-54.88
52.125,-40.08
52.140,-24.66
52.156,-10.64
52.171,0.91
52.187,10.08
52.203,17.66
52.218,24.75
52.234,32.13
52.250,40.14
52.265,48.55
52.281,56.94
52.296,64.81
52.312,71.78
52.328,77.42
52.343,81.26
52.359,82.69
52.375,81.09
52.390,76.12
52.406,67.86
52.421,56.93
52.437,44.38
52.453,31.36
52.468,18.77
52.484,7.05
52.500,-3.83
52.515,-14.22
52.531,-24.53
52.546,-35.05
52.562,-45.69
52.578,-55.9
52.593,-64.68
52.609,-70.74
52.625,-72.79
52.640,-69.85
52.656,-61.58
52.671,-48.41
52.687,-31.36
52.703,-11.86
52.718,8.61
52.734,28.69
52.750,47.19
52.765,63.02
52.781,75.22
52.796,83.06
52.812,86.1
52.828,84.34
52.843,78.16
52.859,68.35
52.875,55.87
52.890,41.85
52.906,27.41
52.921,13.61
52.937,1.29
52.953,-9.14
52.968,-17.79
52.984,-25.33
53.000,-32.72
53.015,-40.87
53.031,-50.31
53.046,-60.81
53.062,-71.4
53.078,-80.52
53.093,-86.47
53.109,-87.87
53.125,-84.17
53.140,-75.7
53.156,-63.53
53.171,-49.04
53.187,-33.4
53.203,-17.4
53.218,-1.5
53.234,13.79
53.250,27.72
53.265,39.18
53.281,47.03
53.296,50.43
53.312,49.21
53.328,43.94
53.343,35.63
53.359,25.44
53.375,14.39
53.390,3.38
53.406,-6.84
53.421,-15.68
53.437,-22.77
53.453,-28.15
53.468,-32.28
53.484,-35.95
53.500,-39.76
53.515,-43.84
53.531,-47.65
53.546,-50.22
53.562,-50.52
53.578,-48.0
53.593,-42.79
53.609,-35.64
53.625,-27.77
53.640,-20.31
53.656,-13.94
53.671,-8.67
53.687,-3.94
53.703,1.15
53.718,7.27
53.734,14.6
53.750,22.9
53.765,31.68
53.781,40.61
53.796,49.55
53.812,58.31
53.828,66.2
53.843,72.02
53.859,74.22
53.875,71.73
53.890,64.7
53.906,54.54
53.921,43.62
53.937,34.24
53.953,27.87
53.968,24.78
53.984,24.3
54.000,25.24
54.015,26.44
54.031,26.96
54.046,26.02
54.062,23.1
54.078,17.92
54.093,10.55
54.109,1.41
54.125,-8.79
54.140,-19.34
54.156,-29.48
54.171,-38.45
54.187,-45.41
54.203,-49.4
54.218,-49.5
54.234,-45.21
54.250,-36.7
54.265,-24.96
54.281,-11.56
54.296,1.68
54.312,13.09
54.328,21.38
54.343,25.67
54.359,25.66
54.375,21.56
54.390,14.41
54.406,5.88
54.421,-1.97
54.437,-7.29
54.453,-9.1
54.468,-7.62
54.484,-4.19
54.500,-0.59
54.515,1.48
54.531,1.06
54.546,-2.09
54.562,-7.67
54.578,-15.16
54.593,-23.93
54.609,-33.3
54.625,-42.48
54.640,-50.7
54.656,-57.41
54.671,-62.46
54.687,-65.99
54.703,-68.25
54.718,-69.26
54.734,-68.7
54.750,-66.04
54.765,-60.85
54.781,-53.08
54.796,-43.14
54.812,-31.77
54.828,-19.62
54.843,-7.1
54.859,5.78
54.875,19.31
54.890,33.7
54.906,48.89
54.921,64.32
54.937,78.97
54.953,91.63
54.968,101.22
54.984,107.1
55.000,109.28
55.015,108.31
55.031,105.05
55.046,100.28
55.062,94.37
55.078,87.07
55.093,77.6
55.109,65.05
55.125,48.89
55.140,29.58
55.156,8.66
55.171,-11.52
55.187,-28.46
55.203,-40.36
55.218,-46.56
55.234,-47.47
55.250,-44.13
55.265,-37.64
55.281,-28.79
55.296,-18.08
55.312,-6.03
55.328,6.74
55.343,19.34
55.359,30.86
55.375,40.67
55.390,48.54
55.406,54.71
55.421,59.82
55.437,64.65
55.453,69.74
55.468,75.2
55.484,80.34
55.500,83.91
55.515,84.49
55.531,80.98
55.546,73.15
55.562,61.61
55.578,47.43
55.593,31.59
55.609,14.67
55.625,-3.18
55.640,-21.8
55.656,-40.64
55.671,-58.63
55.687,-74.27
55.703,-86.17
55.718,-93.35
55.734,-95.38
55.750,-92.33
55.765,-84.71
55.781,-73.46
55.796,-59.85
55.812,-45.46
55.828,-31.82
55.843,-20.15
55.859,-11.03
55.875,-4.4
55.890,0.3
55.906,3.77
55.921,6.57
55.937,9.01
55.953,11.1
55.968,12.76
55.984,13.78
56.000,13.89
56.015,12.77
56.031,10.17
56.046,6.04
56.062,0.67
56.078,-5.27
56.093,-10.86
56.109,-15.19
56.125,-17.59
56.140,-17.85
56.156,-16.26
56.171,-13.42
56.187,-10.07
56.203,-6.77
56.218,-3.74
56.234,-0.94
56.250,1.94
56.265,5.29
56.281,9.41
56.296,14.37
56.312,19.89
56.328,25.47
56.343,30.52
56.359,34.69
56.375,37.98
56.390,40.78
56.406,43.66
56.421,47.07
56.437,51.09
56.453,55.24
56.468,58.85
56.484,61.19
56.500,61.74
56.515,60.13
56.531,56.05
56.546,49.14
56.562,39.15
56.578,26.24
56.593,11.18
56.609,-4.59
56.625,-19.37
56.640,-31.79
56.656,-41.24
56.671,-48.0
56.687,-52.91
56.703,-56.79
56.718,-59.93
56.734,-62.14
56.750,-62.9
56.765,-61.92
56.781,-59.38
56.796,-55.86
56.812,-52.11
56.828,-48.69
56.843,-45.92
56.859,-43.91
56.875,-42.8
56.890,-42.82
56.906,-44.29
56.921,-47.43
56.937,-52.1
56.953,-57.72
56.968,-63.36
56.984,-67.88
57.000,-70.24
57.015,-69.77
57.031,-66.26
57.046,-60.07
57.062,-52.05
57.078,-43.28
57.093,-34.76
57.109,-27.18
57.125,-20.7
57.140,-15.11
57.156,-10.02
57.171,-5.07
57.187,-0.1
57.203,4.83
57.218,9.53
57.234,13.82
57.250,17.71
57.265,21.49
57.281,25.7
57.296,30.87
57.312,37.14
57.328,43.98
57.343,50.21
57.359,54.27
57.375,54.79
57.390,50.96
57.406,42.94
57.421,31.68
57.437,18.74
57.453,5.91
57.468,-5.23
57.484,-13.53
57.500,-18.54
57.515,-20.59
57.531,-20.73
57.546,-20.35
57.562,-20.75
57.578,-22.77
57.593,-26.58
57.609,-31.89
57.625,-38.18
57.640,-45.04
57.656,-52.32
57.671,-60.09
57.687,-68.4
57.703,-77.07
57.718,-85.6
57.734,-93.02
57.750,-98.2
57.765,-100.04
57.781,-97.9
57.796,-91.85
57.812,-82.61
57.828,-71.36
57.843,-59.26
57.859,-47.21
57.875,-35.54
57.890,-24.27
57.906,-13.27
57.921,-2.61
57.937,7.35
57.953,16.08
57.968,22.99
57.984,27.71
58.000,30.03
58.015,29.99
58.031,27.64
58.046,23.21
58.062,17.11
58.078,10.04
58.093,3.02
58.109,-2.82
58.125,-6.53
58.140,-7.59
58.156,-6.15
58.171,-2.88
58.187,1.19
58.203,5.03
58.218,7.82
58.234,9.21
58.250,9.45
58.265,9.37
58.281,10.26
58.296,13.46
58.312,19.85
58.328,29.4
58.343,40.95
58.359,52.41
58.375,61.5
58.390,66.42
58.406,66.44
58.421,61.99
58.437,54.35
58.453,44.92
58.468,34.78
58.484,24.48
58.500,14.13
58.515,3.82
58.531,-6.19
58.546,-15.35
58.562,-23.04
58.578,-28.79
58.593,-32.57
58.609,-34.76
58.625,-36.06
58.640,-37.13
58.656,-38.49
58.671,-40.32
58.687,-42.52
58.703,-44.64
58.718,-46.12
58.734,-46.31
58.750,-44.63
58.765,-40.65
58.781,-34.11
58.796,-25.02
58.812,-13.72
58.828,-0.95
58.843,12.18
58.859,24.3
58.875,34.02
58.890,40.23
58.906,42.5
58.921,41.15
58.937,37.1
58.953,31.55
58.968,25.48
58.984,19.36
59.000,13.26
59.015,7.04
59.031,0.67
59.046,-5.68
59.062,-11.66
59.078,-17.0
59.093,-21.59
59.109,-25.51
59.125,-28.71
59.140,-30.84
59.156,-31.19
59.171,-28.96
59.187,-23.7
59.203,-15.59
59.218,-5.58
59.234,4.92
59.250,14.45
59.265,21.91
59.281,26.8
59.296,29.19
59.312,29.48
59.328,28.22
59.343,25.95
59.359,23.17
59.375,20.48
59.390,18.51
59.406,17.86
59.421,18.89
59.437,21.58
59.453,25.45
59.468,29.7
59.484,33.55
59.500,36.34
59.515,37.76
59.531,37.77
59.546,36.59
59.562,34.57
59.578,32.18
59.593,29.94
59.609,28.29
59.625,27.44
59.640,27.18
59.656,27.02
59.671,26.24
59.687,24.27
59.703,20.84
59.718,16.07
59.734,10.4
59.750,4.52
59.765,-0.87
59.781,-5.1
59.796,-7.63
59.812,-8.24
59.828,-7.11
59.843,-4.83
59.859,-2.26
59.875,-0.29
59.890,0.49
59.906,-0.05
59.921,-1.53
59.937,-3.38
59.953,-5.05
59.968,-6.37
59.984,-7.53
