timestamp,value
00.000,-23.65
00.015,-25.0
00.031,-25.25
00.046,-24.01
00.062,-21.21
00.078,-17.17
00.093,-12.4
00.109,-7.49
00.125,-3.01
00.140,0.65
00.156,3.4
00.171,5.36
00.187,6.9
00.203,8.46
00.218,10.43
00.234,13.01
00.250,16.2
00.265,19.8
00.281,23.51
00.296,26.99
00.312,29.89
00.328,31.93
00.343,32.94
00.359,32.84
00.375,31.67
00.390,29.6
00.406,26.86
00.421,23.73
00.437,20.47
00.453,17.27
00.468,14.22
00.484,11.31
00.500,8.46
00.515,5.65
00.531,2.93
00.546,0.42
00.562,-1.76
00.578,-3.55
00.593,-5.03
00.609,-6.46
00.625,-8.12
00.640,-10.32
00.656,-13.2
00.671,-16.74
00.687,-20.72
00.703,-24.72
00.718,-28.13
00.734,-30.2
00.750,-30.13
00.765,-27.3
00.781,-21.55
00.796,-13.32
00.812,-3.66
00.828,6.04
00.843,14.41
00.859,20.52
00.875,24.12
00.890,25.59
00.906,25.65
00.921,25.01
00.937,24.1
00.953,23.0
00.968,21.59
00.984,19.73
01.000,17.45
01.015,14.94
01.031,12.5
01.046,10.36
01.062,8.62
01.078,7.28
01.093,6.28
01.109,5.63
01.125,5.43
01.140,5.78
01.156,6.68
01.171,7.96
01.187,9.26
01.203,10.2
01.218,10.46
01.234,9.87
01.250,8.39
01.265,6.13
01.281,3.25
01.296,-0.03
01.312,-3.47
01.328,-6.8
01.343,-9.83
01.359,-12.47
01.375,-14.75
01.390,-16.85
01.406,-18.98
01.421,-21.29
01.437,-23.79
01.453,-26.32
01.468,-28.56
01.484,-30.11
01.500,-30.6
01.515,-29.83
01.531,-27.82
01.546,-24.89
01.562,-21.49
01.578,-18.11
01.593,-15.09
01.609,-12.49
01.625,-10.13
01.640,-7.64
01.656,-4.61
01.671,-0.83
01.687,3.67
01.703,8.52
01.718,13.1
01.734,16.65
01.750,18.52
01.765,18.41
01.781,16.44
01.796,13.22
01.812,9.54
01.828,6.23
01.843,3.88
01.859,2.67
01.875,2.49
01.890,3.0
01.906,3.83
01.921,4.67
01.937,5.34
01.953,5.72
01.968,5.74
01.984,5.35
02.000,4.58
02.015,3.47
02.031,2.18
02.046,0.87
02.062,-0.32
02.078,-1.35
02.093,-2.35
02.109,-3.51
02.125,-5.02
02.140,-7.01
02.156,-9.43
02.171,-12.15
02.187,-14.88
02.203,-17.29
02.218,-19.04
02.234,-19.81
02.250,-19.41
02.265,-17.77
02.281,-15.05
02.296,-11.58
02.312,-7.81
02.328,-4.16
02.343,-0.86
02.359,2.01
02.375,4.47
02.390,6.53
02.406,8.06
02.421,8.87
02.437,8.83
02.453,7.96
02.468,6.59
02.484,5.26
02.500,4.46
02.515,4.5
02.531,5.35
02.546,6.72
02.562,8.23
02.578,9.61
02.593,10.76
02.609,11.78
02.625,12.83
02.640,13.96
02.656,15.07
02.671,15.87
02.687,16.04
02.703,15.31
02.718,13.62
02.734,11.14
02.750,8.26
02.765,5.38
02.781,2.85
02.796,0.8
02.812,-0.83
02.828,-2.27
02.843,-3.76
02.859,-5.45
02.875,-7.37
02.890,-9.42
02.906,-11.48
02.921,-13.43
02.937,-15.19
02.953,-16.65
02.968,-17.62
02.984,-17.85
03.000,-17.06
03.015,-15.07
03.031,-11.9
03.046,-7.87
03.062,-3.47
03.078,0.75
03.093,4.37
03.109,7.2
03.125,9.31
03.140,10.85
03.156,11.95
03.171,12.58
03.187,12.58
03.203,11.75
03.218,10.0
03.234,7.51
03.250,4.65
03.265,1.95
03.281,-0.13
03.296,-1.35
03.312,-1.66
03.328,-1.19
03.343,-0.15
03.359,1.26
03.375,2.92
03.390,4.66
03.406,6.35
03.421,7.85
03.437,9.1
03.453,10.06
03.468,10.77
03.484,11.25
03.500,11.48
03.515,11.4
03.531,10.91
03.546,9.96
03.562,8.53
03.578,6.67
03.593,4.47
03.609,2.05
03.625,-0.43
03.640,-2.85
03.656,-5.08
03.671,-7.1
03.687,-8.98
03.703,-10.84
03.718,-12.83
03.734,-14.97
03.750,-17.18
03.765,-19.2
03.781,-20.63
03.796,-21.11
03.812,-20.34
03.828,-18.25
03.843,-15.09
03.859,-11.4
03.875,-7.84
03.890,-5.05
03.906,-3.38
03.921,-2.81
03.937,-2.99
03.953,-3.39
03.968,-3.5
03.984,-3.06
04.000,-2.02
04.015,-0.54
04.031,1.18
04.046,2.92
04.062,4.56
04.078,6.0
04.093,7.17
04.109,8.1
04.125,8.85
04.140,9.59
04.156,10.48
04.171,11.6
04.187,12.88
04.203,14.12
04.218,15.03
04.234,15.39
04.250,15.12
04.265,14.28
04.281,12.98
04.296,11.39
04.312,9.74
04.328,8.29
04.343,7.35
04.359,7.15
04.375,7.77
04.390,9.03
04.406,10.56
04.421,12.01
04.437,13.14
04.453,13.93
04.468,14.45
04.484,14.74
04.500,14.72
04.515,14.18
04.531,12.9
04.546,10.69
04.562,7.55
04.578,3.67
04.593,-0.56
04.609,-4.58
04.625,-7.75
04.640,-9.48
04.656,-9.44
04.671,-7.66
04.687,-4.59
04.703,-0.96
04.718,2.47
04.734,5.12
04.750,6.69
04.765,7.18
04.781,6.83
04.796,5.96
04.812,4.91
04.828,3.89
04.843,3.05
04.859,2.39
04.875,1.87
04.890,1.41
04.906,0.91
04.921,0.27
04.937,-0.65
04.953,-1.95
04.968,-3.67
04.984,-5.75
05.000,-7.95
05.015,-10.0
05.031,-11.61
05.046,-12.65
05.062,-13.17
05.078,-13.36
05.093,-13.43
05.109,-13.61
05.125,-13.97
05.140,-14.52
05.156,-15.19
05.171,-15.9
05.187,-16.59
05.203,-17.23
05.218,-17.86
05.234,-18.52
05.250,-19.22
05.265,-19.95
05.281,-20.72
05.296,-21.54
05.312,-22.34
05.328,-23.01
05.343,-23.24
05.359,-22.66
05.375,-20.9
05.390,-17.8
05.406,-13.47
05.421,-8.37
05.437,-3.13
05.453,1.6
05.468,5.35
05.484,7.88
05.500,9.17
05.515,9.42
05.531,8.94
05.546,8.13
05.562,7.38
05.578,7.04
05.593,7.3
05.609,8.19
05.625,9.57
05.640,11.12
05.656,12.44
05.671,13.18
05.687,13.05
05.703,12.03
05.718,10.3
05.734,8.27
05.750,6.4
05.765,5.13
05.781,4.68
05.796,5.01
05.812,5.81
05.828,6.67
05.843,7.16
05.859,7.01
05.875,6.16
05.890,4.67
05.906,2.74
05.921,0.53
05.937,-1.82
05.953,-4.2
05.968,-6.52
05.984,-8.68
06.000,-10.62
06.015,-12.33
06.031,-13.88
06.046,-15.33
06.062,-16.64
06.078,-17.67
06.093,-18.19
06.109,-17.94
06.125,-16.78
06.140,-14.71
06.156,-11.92
06.171,-8.76
06.187,-5.57
06.203,-2.7
06.218,-0.4
06.234,1.23
06.250,2.22
06.265,2.71
06.281,2.86
06.296,2.82
06.312,2.66
06.328,2.42
06.343,2.13
06.359,1.84
06.375,1.64
06.390,1.63
06.406,1.9
06.421,2.5
06.437,3.42
06.453,4.6
06.468,5.9
06.484,7.15
06.500,8.18
06.515,8.84
06.531,9.08
06.546,8.95
06.562,8.6
06.578,8.16
06.593,7.73
06.609,7.35
06.625,7.04
06.640,6.8
06.656,6.7
06.671,6.73
06.687,6.83
06.703,6.79
06.718,6.26
06.734,4.95
06.750,2.77
06.765,-0.02
06.781,-2.87
06.796,-5.05
06.812,-6.04
06.828,-5.69
06.843,-4.26
06.859,-2.34
06.875,-0.55
06.890,0.72
06.906,1.35
06.921,1.46
06.937,1.23
06.953,0.74
06.968,-0.03
06.984,-1.06
07.000,-2.24
07.015,-3.34
07.031,-4.13
07.046,-4.55
07.062,-4.76
07.078,-5.06
07.093,-5.77
07.109,-7.06
07.125,-8.83
07.140,-10.82
07.156,-12.72
07.171,-14.31
07.187,-15.46
07.203,-16.09
07.218,-16.16
07.234,-15.68
07.250,-14.72
07.265,-13.49
07.281,-12.3
07.296,-11.45
07.312,-11.06
07.328,-11.0
07.343,-10.99
07.359,-10.75
07.375,-10.2
07.390,-9.53
07.406,-9.16
07.421,-9.51
07.437,-10.74
07.453,-12.66
07.468,-14.78
07.484,-16.51
07.500,-17.34
07.515,-17.03
07.531,-15.5
07.546,-12.81
07.562,-9.1
07.578,-4.56
07.593,0.49
07.609,5.58
07.625,10.16
07.640,13.76
07.656,16.17
07.671,17.48
07.687,18.04
07.703,18.3
07.718,18.59
07.734,19.08
07.750,19.69
07.765,20.23
07.781,20.5
07.796,20.31
07.812,19.59
07.828,18.4
07.843,16.9
07.859,15.38
07.875,14.15
07.890,13.47
07.906,13.43
07.921,13.88
07.937,14.53
07.953,14.97
07.968,14.92
07.984,14.29
08.000,13.18
08.015,11.8
08.031,10.37
08.046,8.97
08.062,7.55
08.078,5.96
08.093,4.02
08.109,1.6
08.125,-1.32
08.140,-4.62
08.156,-8.12
08.171,-11.63
08.187,-15.0
08.203,-18.1
08.218,-20.81
08.234,-22.96
08.250,-24.27
08.265,-24.44
08.281,-23.25
08.296,-20.69
08.312,-17.06
08.328,-12.89
08.343,-8.77
08.359,-5.18
08.375,-2.34
08.390,-0.22
08.406,1.32
08.421,2.45
08.437,3.23
08.453,3.65
08.468,3.7
08.484,3.45
08.500,3.08
08.515,2.84
08.531,2.96
08.546,3.53
08.562,4.48
08.578,5.61
08.593,6.7
08.609,7.55
08.625,8.12
08.640,8.43
08.656,8.56
08.671,8.58
08.687,8.58
08.703,8.63
08.718,8.82
08.734,9.24
08.750,9.95
08.765,10.93
08.781,12.11
08.796,13.41
08.812,14.79
08.828,16.28
08.843,17.88
08.859,19.57
08.875,21.24
08.890,22.72
08.906,23.85
08.921,24.51
08.937,24.65
08.953,24.22
08.968,23.24
08.984,21.72
09.000,19.73
09.015,17.36
09.031,14.69
09.046,11.77
09.062,8.64
09.078,5.32
09.093,1.92
09.109,-1.36
09.125,-4.19
09.140,-6.19
09.156,-6.95
09.171,-6.28
09.187,-4.17
09.203,-0.87
09.218,3.11
09.234,7.06
09.250,10.3
09.265,12.3
09.281,12.94
09.296,12.61
09.312,12.06
09.328,12.18
09.343,13.54
09.359,16.09
09.375,19.03
09.390,20.98
09.406,20.38
09.421,15.97
09.437,7.26
09.453,-5.19
09.468,-19.88
09.484,-34.58
09.500,-46.93
09.515,-55.01
09.531,-57.85
09.546,-55.58
09.562,-49.3
09.578,-40.67
09.593,-31.35
09.609,-22.63
09.625,-15.26
09.640,-9.54
09.656,-5.45
09.671,-2.82
09.687,-1.35
09.703,-0.72
09.718,-0.52
09.734,-0.42
09.750,-0.18
09.765,0.41
09.781,1.5
09.796,3.38
09.812,6.37
09.828,10.69
09.843,16.2
09.859,22.22
09.875,27.5
09.890,30.54
09.906,30.07
09.921,25.49
09.937,17.08
09.953,6.0
09.968,-6.09
09.984,-17.56
10.000,-27.15
10.015,-34.21
10.031,-38.71
10.046,-41.05
10.062,-41.82
10.078,-41.66
10.093,-41.08
10.109,-40.4
10.125,-39.72
10.140,-38.96
10.156,-37.88
10.171,-36.25
10.187,-33.86
10.203,-30.67
10.218,-26.85
10.234,-22.77
10.250,-18.86
10.265,-15.55
10.281,-13.07
10.296,-11.42
10.312,-10.39
10.328,-9.7
10.343,-9.16
10.359,-8.74
10.375,-8.55
10.390,-8.71
10.406,-9.21
10.421,-9.93
10.437,-10.68
10.453,-11.29
10.468,-11.67
10.484,-11.84
10.500,-11.85
10.515,-11.72
10.531,-11.4
10.546,-10.81
10.562,-9.86
10.578,-8.51
10.593,-6.76
10.609,-4.61
10.625,-2.04
10.640,0.94
10.656,4.31
10.671,7.95
10.687,11.64
10.703,15.06
10.718,17.91
10.734,19.96
10.750,21.14
10.765,21.55
10.781,21.42
10.796,21.05
10.812,20.72
10.828,20.64
10.843,20.91
10.859,21.46
10.875,22.05
10.890,22.33
10.906,21.92
10.921,20.58
10.937,18.33
10.953,15.45
10.968,12.39
10.984,9.64
11.000,7.5
11.015,5.97
11.031,4.84
11.046,3.76
11.062,2.49
11.078,0.93
11.093,-0.84
11.109,-2.62
11.125,-4.2
11.140,-5.47
11.156,-6.41
11.171,-7.02
11.187,-7.35
11.203,-7.44
11.218,-7.38
11.234,-7.36
11.250,-7.6
11.265,-8.29
11.281,-9.51
11.296,-11.08
11.312,-12.58
11.328,-13.5
11.343,-13.29
11.359,-11.65
11.375,-8.55
11.390,-4.29
11.406,0.62
11.421,5.57
11.437,10.1
11.453,13.94
11.468,17.03
11.484,19.49
11.500,21.48
11.515,23.1
11.531,24.37
11.546,25.24
11.562,25.62
11.578,25.46
11.593,24.67
11.609,23.19
11.625,20.98
11.640,18.06
11.656,14.51
11.671,10.45
11.687,5.99
11.703,1.2
11.718,-3.9
11.734,-9.26
11.750,-14.77
11.765,-20.19
11.781,-25.18
11.796,-29.45
11.812,-32.78
11.828,-35.06
11.843,-36.3
11.859,-36.54
11.875,-35.83
11.890,-34.29
11.906,-32.08
11.921,-29.48
11.937,-26.84
11.953,-24.47
11.968,-22.59
11.984,-21.27
12.000,-20.41
12.015,-19.86
12.031,-19.51
12.046,-19.28
12.062,-19.17
12.078,-19.17
12.093,-19.07
12.109,-18.6
12.125,-17.39
12.140,-15.19
12.156,-11.95
12.171,-7.94
12.187,-3.58
12.203,0.66
12.218,4.42
12.234,7.52
12.250,9.92
12.265,11.58
12.281,12.52
12.296,12.72
12.312,12.23
12.328,11.22
12.343,9.95
12.359,8.73
12.375,7.85
12.390,7.48
12.406,7.63
12.421,8.19
12.437,8.96
12.453,9.76
12.468,10.44
12.484,10.96
12.500,11.36
12.515,11.73
12.531,12.11
12.546,12.52
12.562,12.88
12.578,13.11
12.593,13.14
12.609,12.95
12.625,12.57
12.640,12.04
12.656,11.41
12.671,10.76
12.687,10.11
12.703,9.54
12.718,9.07
12.734,8.67
12.750,8.26
12.765,7.72
12.781,6.97
12.796,5.95
12.812,4.74
12.828,3.41
12.843,2.07
12.859,0.75
12.875,-0.53
12.890,-1.73
12.906,-2.79
12.921,-3.63
12.937,-4.17
12.953,-4.39
12.968,-4.3
12.984,-3.94
13.000,-3.37
13.015,-2.63
13.031,-1.8
13.046,-0.99
13.062,-0.26
13.078,0.42
13.093,1.31
13.109,2.82
13.125,5.31
13.140,8.88
13.156,13.09
13.171,17.08
13.187,19.72
13.203,20.08
13.218,17.75
13.234,13.05
13.250,6.98
13.265,1.09
13.281,-2.81
13.296,-3.01
13.312,1.66
13.328,11.42
13.343,25.25
13.359,40.98
13.375,55.93
13.390,67.59
13.406,74.45
13.421,76.17
13.437,73.47
13.453,67.62
13.468,59.95
13.484,51.76
13.500,44.3
13.515,38.87
13.531,36.52
13.546,37.78
13.562,42.23
13.578,48.63
13.593,55.34
13.609,61.01
13.625,65.05
13.640,67.68
13.656,69.59
13.671,71.58
13.687,74.26
13.703,78.23
13.718,84.19
13.734,93.04
13.750,105.54
13.765,121.9
13.781,141.45
13.796,162.62
13.812,183.49
13.828,202.47
13.843,218.74
13.859,232.38
13.875,244.08
13.890,254.68
13.906,264.85
13.921,274.84
13.937,284.45
13.953,292.99
13.968,299.25
13.984,301.64
14.000,298.57
14.015,288.84
14.031,272.1
14.046,248.96
14.062,220.86
14.078,189.6
14.093,157.03
14.109,124.7
14.125,93.95
14.140,65.8
14.156,40.94
14.171,19.41
14.187,0.53
14.203,-17.01
14.218,-34.76
14.234,-53.94
14.250,-75.02
14.265,-97.71
14.281,-121.21
14.296,-144.74
14.312,-168.04
14.328,-191.42
14.343,-215.73
14.359,-242.06
14.375,-271.52
14.390,-304.92
14.406,-342.27
14.421,-382.15
14.437,-421.38
14.453,-455.2
14.468,-478.48
14.484,-487.35
14.500,-480.68
14.515,-460.5
14.531,-431.17
14.546,-397.62
14.562,-363.7
14.578,-331.29
14.593,-300.68
14.609,-271.5
14.625,-243.8
14.640,-218.28
14.656,-195.81
14.671,-176.72
14.687,-160.37
14.703,-145.42
14.718,-130.49
14.734,-114.95
14.750,-99.08
14.765,-83.93
14.781,-70.66
14.796,-59.84
14.812,-51.21
14.828,-43.88
14.843,-36.85
14.859,-29.54
14.875,-22.14
14.890,-15.41
14.906,-10.26
14.921,-7.21
14.937,-6.15
14.953,-6.32
14.968,-6.71
14.984,-6.41
15.000,-4.92
15.015,-2.19
15.031,1.48
15.046,5.71
15.062,10.32
15.078,15.32
15.093,20.93
15.109,27.39
15.125,34.83
15.140,43.15
15.156,51.86
15.171,59.95
15.187,65.75
15.203,67.27
15.218,62.68
15.234,51.43
15.250,34.81
15.265,16.07
15.281,-0.45
15.296,-10.88
15.312,-13.37
15.328,-8.73
15.343,0.26
15.359,10.4
15.375,19.66
15.390,27.68
15.406,35.3
15.421,43.25
15.437,51.24
15.453,57.92
15.468,61.68
15.484,61.83
15.500,59.07
15.515,55.18
15.531,51.93
15.546,50.09
15.562,49.17
15.578,47.88
15.593,45.15
15.609,40.83
15.625,35.79
15.640,31.51
15.656,29.19
15.671,29.23
15.687,31.13
15.703,33.82
15.718,36.09
15.734,37.19
15.750,37.08
15.765,36.27
15.781,35.73
15.796,36.46
15.812,39.23
15.828,44.33
15.843,51.41
15.859,59.56
15.875,67.52
15.890,73.97
15.906,77.64
15.921,77.58
15.937,73.31
15.953,64.96
15.968,53.38
15.984,39.8
16.000,25.47
16.015,11.2
16.031,-2.93
16.046,-17.3
16.062,-32.2
16.078,-47.27
16.093,-61.36
16.109,-72.82
16.125,-80.25
16.140,-83.06
16.156,-81.62
16.171,-76.92
16.187,-70.02
16.203,-61.7
16.218,-52.39
16.234,-42.44
16.250,-32.25
16.265,-22.33
16.281,-13.06
16.296,-4.62
16.312,3.05
16.328,10.11
16.343,16.65
16.359,22.67
16.375,28.17
16.390,33.19
16.406,37.88
16.421,42.38
16.437,46.76
16.453,50.97
16.468,54.95
16.484,58.65
16.500,62.16
16.515,65.6
16.531,69.1
16.546,72.67
16.562,76.25
16.578,79.73
16.593,83.04
16.609,86.14
16.625,88.92
16.640,91.06
16.656,91.79
16.671,89.8
16.687,83.55
16.703,71.8
16.718,54.41
16.734,32.8
16.750,9.97
16.765,-10.38
16.781,-24.99
16.796,-32.35
16.812,-33.19
16.828,-30.29
16.843,-27.44
16.859,-28.23
16.875,-35.06
16.890,-48.77
16.906,-68.99
16.921,-94.43
16.937,-123.07
16.953,-152.17
16.968,-178.37
16.984,-198.29
17.000,-209.48
17.015,-211.34
17.031,-205.48
17.046,-195.18
17.062,-184.02
17.078,-174.43
17.093,-166.92
17.109,-160.23
17.125,-152.34
17.140,-141.69
17.156,-127.81
17.171,-111.36
17.187,-93.61
17.203,-75.82
17.218,-58.96
17.234,-43.67
17.250,-30.34
17.265,-19.2
17.281,-10.38
17.296,-3.88
17.312,0.43
17.328,2.85
17.343,3.77
17.359,3.69
17.375,3.07
17.390,2.33
17.406,1.76
17.421,1.47
17.437,1.36
17.453,1.24
17.468,0.95
17.484,0.41
17.500,-0.38
17.515,-1.44
17.531,-2.93
17.546,-5.09
17.562,-8.05
17.578,-11.6
17.593,-15.07
17.609,-17.47
17.625,-17.85
17.640,-15.68
17.656,-11.11
17.671,-4.88
17.687,2.03
17.703,8.76
17.718,14.84
17.734,20.16
17.750,24.85
17.765,29.01
17.781,32.62
17.796,35.52
17.812,37.49
17.828,38.37
17.843,38.18
17.859,37.13
17.875,35.54
17.890,33.79
17.906,32.13
17.921,30.67
17.937,29.36
17.953,28.06
17.968,26.73
17.984,25.39
18.000,24.22
18.015,23.39
18.031,22.98
18.046,22.84
18.062,22.68
18.078,22.16
18.093,21.06
18.109,19.4
18.125,17.39
18.140,15.39
18.156,13.64
18.171,12.31
18.187,11.34
18.203,10.64
18.218,10.08
18.234,9.59
18.250,9.06
18.265,8.36
18.281,7.32
18.296,5.87
18.312,4.29
18.328,3.08
18.343,3.02
18.359,4.8
18.375,8.76
18.390,14.77
18.406,22.29
18.421,30.63
18.437,39.21
18.453,47.68
18.468,55.94
18.484,64.01
18.500,71.87
18.515,79.38
18.531,86.32
18.546,92.48
18.562,97.77
18.578,102.36
18.593,106.57
18.609,110.86
18.625,115.51
18.640,120.57
18.656,125.67
18.671,130.3
18.687,134.04
18.703,136.9
18.718,139.44
18.734,142.71
18.750,147.82
18.765,155.53
18.781,165.99
18.796,178.53
18.812,191.78
18.828,203.95
18.843,213.11
18.859,217.6
18.875,216.45
18.890,209.63
18.906,197.97
18.921,182.96
18.937,166.07
18.953,148.43
18.968,130.48
18.984,112.06
19.000,92.45
19.015,70.75
19.031,46.21
19.046,18.63
19.062,-11.11
19.078,-41.02
19.093,-68.26
19.109,-90.02
19.125,-104.75
19.140,-112.94
19.156,-117.23
19.171,-121.46
19.187,-129.11
19.203,-142.04
19.218,-160.05
19.234,-181.33
19.250,-203.5
19.265,-224.61
19.281,-243.56
19.296,-259.95
19.312,-273.63
19.328,-284.17
19.343,-290.72
19.359,-292.12
19.375,-287.38
19.390,-275.98
19.406,-258.17
19.421,-234.8
19.437,-207.14
19.453,-176.65
19.468,-144.68
19.484,-112.41
19.500,-80.71
19.515,-50.24
19.531,-21.32
19.546,5.82
19.562,31.14
19.578,54.64
19.593,76.32
19.609,96.32
19.625,114.87
19.640,132.36
19.656,149.2
19.671,165.65
19.687,181.51
19.703,196.11
19.718,208.48
19.734,217.58
19.750,222.73
19.765,223.79
19.781,221.22
19.796,215.96
19.812,209.27
19.828,202.49
19.843,196.71
19.859,192.51
19.875,189.77
19.890,187.8
19.906,185.64
19.921,182.51
19.937,178.18
19.953,172.98
19.968,167.32
19.984,161.19
20.000,153.65
20.015,142.89
20.031,126.95
20.046,104.53
20.062,75.49
20.078,40.93
20.093,2.68
20.109,-37.06
20.125,-75.97
20.140,-111.58
20.156,-141.54
20.171,-164.18
20.187,-179.27
20.203,-188.34
20.218,-194.01
20.234,-198.79
20.250,-203.67
20.265,-207.65
20.281,-208.47
20.296,-204.09
20.312,-194.13
20.328,-180.22
20.343,-165.16
20.359,-151.53
20.375,-140.51
20.390,-131.71
20.406,-123.9
20.421,-115.96
20.437,-107.52
20.453,-98.92
20.468,-90.67
20.484,-82.99
20.500,-75.56
20.515,-67.96
20.531,-60.17
20.546,-52.95
20.562,-47.63
20.578,-45.46
20.593,-46.73
20.609,-50.2
20.625,-53.43
20.640,-53.65
20.656,-48.96
20.671,-39.16
20.687,-25.78
20.703,-11.44
20.718,1.21
20.734,10.39
20.750,15.53
20.765,17.07
20.781,16.03
20.796,13.51
20.812,10.43
20.828,7.52
20.843,5.43
20.859,4.68
20.875,5.56
20.890,8.03
20.906,11.55
20.921,15.25
20.937,18.18
20.953,19.76
20.968,20.08
20.984,19.82
21.000,19.88
21.015,20.8
21.031,22.32
21.046,23.28
21.062,21.98
21.078,16.9
21.093,7.41
21.109,-5.72
21.125,-20.34
21.140,-33.57
21.156,-42.76
21.171,-46.57
21.187,-45.66
21.203,-42.45
21.218,-40.24
21.234,-41.64
21.250,-47.38
21.265,-55.87
21.281,-63.92
21.296,-68.11
21.312,-66.34
21.328,-58.58
21.343,-46.67
21.359,-33.26
21.375,-20.58
21.390,-9.65
21.406,-0.37
21.421,7.84
21.437,15.3
21.453,21.63
21.468,25.89
21.484,27.25
21.500,25.48
21.515,21.34
21.531,16.28
21.546,11.91
21.562,9.26
21.578,8.32
21.593,8.19
21.609,7.59
21.625,5.56
21.640,1.99
21.656,-2.28
21.671,-5.94
21.687,-7.91
21.703,-7.9
21.718,-6.59
21.734,-5.32
21.750,-5.26
21.765,-6.77
21.781,-9.19
21.796,-11.12
21.812,-11.06
21.828,-8.02
21.843,-1.88
21.859,6.84
21.875,17.34
21.890,28.9
21.906,41.08
21.921,53.55
21.937,65.92
21.953,77.65
21.968,88.33
21.984,97.81
22.000,106.4
22.015,114.69
22.031,123.17
22.046,131.85
22.062,140.2
22.078,147.33
22.093,152.48
22.109,155.4
22.125,156.38
22.140,155.94
22.156,154.55
22.171,152.27
22.187,148.79
22.203,143.67
22.218,136.48
22.234,127.14
22.250,115.84
22.265,103.01
22.281,89.13
22.296,74.82
22.312,60.75
22.328,47.68
22.343,36.43
22.359,27.57
22.375,21.2
22.390,16.85
22.406,13.51
22.421,9.99
22.437,5.36
22.453,-0.85
22.468,-8.55
22.484,-17.36
22.500,-26.9
22.515,-36.83
22.531,-46.84
22.546,-56.3
22.562,-64.27
22.578,-69.72
22.593,-72.13
22.609,-71.83
22.625,-70.0
22.640,-68.24
22.656,-67.77
22.671,-69.02
22.687,-71.53
22.703,-74.38
22.718,-76.79
22.734,-78.45
22.750,-79.39
22.765,-79.86
22.781,-80.03
22.796,-79.96
22.812,-79.63
22.828,-78.88
22.843,-77.29
22.859,-74.18
22.875,-68.75
22.890,-60.43
22.906,-49.44
22.921,-36.9
22.937,-24.64
22.953,-14.54
22.968,-7.92
22.984,-5.01
23.000,-4.93
23.015,-6.07
23.031,-6.57
23.046,-4.88
23.062,-0.09
23.078,7.87
23.093,18.34
23.109,30.11
23.125,41.91
23.140,52.8
23.156,62.55
23.171,71.67
23.187,81.01
23.203,91.09
23.218,101.4
23.234,110.13
23.250,114.55
23.265,112.16
23.281,101.79
23.296,84.37
23.312,62.62
23.328,39.84
23.343,18.47
23.359,-1.03
23.375,-20.26
23.390,-41.93
23.406,-68.45
23.421,-100.72
23.437,-137.54
23.453,-176.04
23.468,-212.7
23.484,-244.46
23.500,-269.49
23.515,-287.31
23.531,-298.32
23.546,-303.05
23.562,-301.58
23.578,-293.45
23.593,-278.12
23.609,-255.78
23.625,-227.89
23.640,-197.06
23.656,-166.35
23.671,-138.19
23.687,-113.8
23.703,-93.0
23.718,-74.88
23.734,-58.47
23.750,-43.27
23.765,-29.37
23.781,-17.08
23.796,-6.7
23.812,1.71
23.828,8.31
23.843,13.32
23.859,16.86
23.875,18.94
23.890,19.48
23.906,18.46
23.921,15.9
23.937,11.94
23.953,7.02
23.968,1.82
23.984,-2.67
24.000,-5.4
24.015,-5.51
24.031,-2.68
24.046,2.7
24.062,9.63
24.078,16.7
24.093,22.56
24.109,26.27
24.125,27.59
24.140,27.0
24.156,25.51
24.171,24.35
24.187,24.52
24.203,26.59
24.218,30.6
24.234,36.21
24.250,42.86
24.265,50.04
24.281,57.35
24.296,64.56
24.312,71.55
24.328,78.18
24.343,84.21
24.359,89.29
24.375,93.08
24.390,95.31
24.406,95.89
24.421,94.87
24.437,92.37
24.453,88.54
24.468,83.5
24.484,77.38
24.500,70.42
24.515,62.9
24.531,55.11
24.546,47.11
24.562,38.79
24.578,29.86
24.593,20.11
24.609,9.63
24.625,-1.02
24.640,-10.92
24.656,-19.17
24.671,-25.29
24.687,-29.41
24.703,-32.23
24.718,-34.73
24.734,-37.77
24.750,-41.81
24.765,-46.8
24.781,-52.19
24.796,-57.31
24.812,-61.42
24.828,-63.86
24.843,-64.11
24.859,-61.87
24.875,-57.36
24.890,-51.35
24.906,-44.95
24.921,-39.0
24.937,-33.36
24.953,-26.51
24.968,-15.97
24.984,0.52
25.000,23.61
25.015,51.47
25.031,80.03
25.046,104.42
25.062,120.81
25.078,127.72
25.093,126.19
25.109,118.78
25.125,108.12
25.140,95.95
25.156,82.89
25.171,69.0
25.187,54.45
25.203,39.91
25.218,26.4
25.234,14.81
25.250,5.45
25.265,-2.08
25.281,-8.58
25.296,-14.69
25.312,-20.52
25.328,-25.46
25.343,-28.38
25.359,-28.2
25.375,-24.52
25.390,-18.05
25.406,-10.6
25.421,-4.51
25.437,-1.73
25.453,-3.01
25.468,-7.57
25.484,-13.4
25.500,-18.19
25.515,-20.1
25.531,-18.24
25.546,-12.69
25.562,-4.03
25.578,6.97
25.593,19.37
25.609,31.97
25.625,43.27
25.640,51.71
25.656,56.29
25.671,56.97
25.687,54.8
25.703,51.33
25.718,47.81
25.734,44.61
25.750,41.23
25.765,36.86
25.781,31.11
25.796,24.61
25.812,18.85
25.828,15.76
25.843,16.82
25.859,22.5
25.875,31.93
25.890,43.07
25.906,53.22
25.921,59.81
25.937,61.17
25.953,57.0
25.968,48.29
25.984,36.81
26.000,24.23
26.015,11.59
26.031,-0.77
26.046,-12.77
26.062,-24.13
26.078,-34.18
26.093,-42.23
26.109,-48.23
26.125,-53.2
26.140,-58.88
26.156,-67.04
26.171,-78.51
26.187,-92.52
26.203,-106.91
26.218,-118.83
26.234,-125.65
26.250,-125.8
26.265,-119.11
26.281,-106.8
26.296,-91.09
26.312,-74.64
26.328,-59.99
26.343,-48.97
26.359,-42.38
26.375,-39.97
26.390,-40.77
26.406,-43.55
26.421,-47.36
26.437,-51.78
26.453,-56.91
26.468,-63.14
26.484,-70.73
26.500,-79.59
26.515,-89.02
26.531,-97.87
26.546,-104.75
26.562,-108.44
26.578,-108.22
26.593,-104.13
26.609,-96.9
26.625,-87.8
26.640,-78.22
26.656,-69.46
26.671,-62.49
26.687,-57.96
26.703,-56.11
26.718,-56.84
26.734,-59.66
26.750,-63.84
26.765,-68.79
26.781,-74.49
26.796,-81.76
26.812,-92.12
26.828,-107.12
26.843,-127.35
26.859,-151.52
26.875,-176.35
26.890,-197.18
26.906,-209.44
26.921,-210.09
26.937,-198.34
26.953,-175.62
26.968,-144.68
26.984,-108.61
27.000,-70.22
27.015,-31.79
27.031,4.75
27.046,37.78
27.062,66.19
27.078,89.66
27.093,108.84
27.109,125.07
27.125,139.72
27.140,153.49
27.156,165.92
27.171,175.58
27.187,180.72
27.203,180.05
27.218,173.36
27.234,161.66
27.250,146.85
27.265,131.07
27.281,116.06
27.296,102.8
27.312,91.4
27.328,81.31
27.343,71.68
27.359,61.8
27.375,51.31
27.390,40.47
27.406,29.99
27.421,20.69
27.437,13.16
27.453,7.34
27.468,2.55
27.484,-2.21
27.500,-7.66
27.515,-13.78
27.531,-19.57
27.546,-23.33
27.562,-23.41
27.578,-18.73
27.593,-9.19
27.609,4.41
27.625,20.69
27.640,38.14
27.656,55.42
27.671,71.47
27.687,85.55
27.703,97.19
27.718,106.12
27.734,112.23
27.750,115.47
27.765,115.86
27.781,113.41
27.796,108.25
27.812,100.65
27.828,90.98
27.843,79.7
27.859,67.29
27.875,54.14
27.890,40.65
27.906,27.33
27.921,14.81
27.937,3.84
27.953,-5.0
27.968,-11.39
27.984,-15.49
28.000,-17.72
28.015,-18.59
28.031,-18.46
28.046,-17.5
28.062,-15.78
28.078,-13.44
28.093,-10.89
28.109,-8.81
28.125,-7.94
28.140,-8.91
28.156,-11.91
28.171,-16.53
28.187,-21.82
28.203,-26.48
28.218,-29.14
28.234,-28.74
28.250,-24.74
28.265,-17.26
28.281,-6.97
28.296,5.07
28.312,17.76
28.328,30.21
28.343,41.85
28.359,52.46
28.375,61.92
28.390,69.93
28.406,75.86
28.421,78.76
28.437,77.72
28.453,72.41
28.468,63.43
28.484,52.3
28.500,41.05
28.515,31.47
28.531,24.5
28.546,20.02
28.562,17.09
28.578,14.51
28.593,11.4
28.609,7.46
28.625,2.89
28.640,-1.86
28.656,-6.41
28.671,-10.49
28.687,-13.85
28.703,-16.3
28.718,-17.6
28.734,-17.59
28.750,-16.36
28.765,-14.26
28.781,-11.86
28.796,-9.72
28.812,-8.2
28.828,-7.21
28.843,-6.2
28.859,-4.26
28.875,-0.47
28.890,5.79
28.906,14.66
28.921,25.77
28.937,38.38
28.953,51.71
28.968,65.06
28.984,77.76
29.000,88.94
29.015,97.27
29.031,101.07
29.046,98.73
29.062,89.33
29.078,73.37
29.093,52.74
29.109,30.4
29.125,9.43
29.140,-7.9
29.156,-20.65
29.171,-29.16
29.187,-34.56
29.203,-38.08
29.218,-40.57
29.234,-42.47
29.250,-43.86
29.265,-44.75
29.281,-45.13
29.296,-44.98
29.312,-44.2
29.328,-42.58
29.343,-39.94
29.359,-36.29
29.375,-31.93
29.390,-27.46
29.406,-23.65
29.421,-21.26
29.437,-20.87
29.453,-22.74
29.468,-26.68
29.484,-32.04
29.500,-37.83
29.515,-42.91
29.531,-46.37
29.546,-47.74
29.562,-47.05
29.578,-44.66
29.593,-40.9
29.609,-35.83
29.625,-29.2
29.640,-20.73
29.656,-10.63
29.671,0.2
29.687,10.24
29.703,17.92
29.718,22.27
29.734,23.39
29.750,22.4
29.765,20.98
29.781,20.73
29.796,22.62
29.812,26.85
29.828,32.9
29.843,39.85
29.859,46.6
29.875,52.12
29.890,55.55
29.906,56.35
29.921,54.57
29.937,50.85
29.953,46.38
29.968,42.52
29.984,40.37
30.000,40.44
30.015,42.48
30.031,45.7
30.046,49.03
30.062,51.52
30.078,52.46
30.093,51.55
30.109,48.93
30.125,45.13
30.140,40.93
30.156,37.15
30.171,34.32
30.187,32.42
30.203,30.93
30.218,29.09
30.234,26.43
30.250,23.15
30.265,20.28
30.281,19.18
30.296,20.91
30.312,25.49
30.328,31.62
30.343,36.82
30.359,38.14
30.375,33.13
30.390,20.77
30.406,2.02
30.421,-20.3
30.437,-42.28
30.453,-60.03
30.468,-70.75
30.484,-73.38
30.500,-68.67
30.515,-58.78
30.531,-46.66
30.546,-35.43
30.562,-27.83
30.578,-25.76
30.593,-29.81
30.609,-38.95
30.625,-50.64
30.640,-61.51
30.656,-68.45
30.671,-69.69
30.687,-65.4
30.703,-57.42
30.718,-48.4
30.734,-40.67
30.750,-35.45
30.765,-32.53
30.781,-30.62
30.796,-27.89
30.812,-22.66
30.828,-13.86
30.843,-1.27
30.859,14.51
30.875,32.22
30.890,50.22
30.906,66.82
30.921,80.57
30.937,90.58
30.953,96.59
30.968,98.9
30.984,98.23
31.000,95.53
31.015,91.92
31.031,88.72
31.046,87.37
31.062,89.22
31.078,95.19
31.093,105.35
31.109,118.8
31.125,133.88
31.140,148.65
31.156,161.51
31.171,171.66
31.187,179.15
31.203,184.65
31.218,188.97
31.234,192.53
31.250,195.17
31.265,196.17
31.281,194.44
31.296,188.9
31.312,178.82
31.328,164.11
31.343,145.42
31.359,123.96
31.375,101.14
31.390,78.1
31.406,55.32
31.421,32.75
31.437,10.07
31.453,-12.76
31.468,-35.12
31.484,-55.82
31.500,-73.55
31.515,-87.48
31.531,-97.48
31.546,-104.03
31.562,-107.68
31.578,-108.54
31.593,-106.3
31.609,-100.53
31.625,-91.29
31.640,-79.42
31.656,-66.46
31.671,-54.04
31.687,-43.29
31.703,-34.44
31.718,-26.94
31.734,-20.03
31.750,-13.41
31.765,-7.62
31.781,-4.03
31.796,-4.45
31.812,-10.33
31.828,-22.11
31.843,-38.77
31.859,-58.04
31.875,-77.01
31.890,-93.11
31.906,-104.94
31.921,-112.48
31.937,-116.95
31.953,-120.18
31.968,-124.01
31.984,-129.94
32.000,-138.91
32.015,-151.25
32.031,-166.44
32.046,-182.94
32.062,-198.05
32.078,-208.42
32.093,-210.86
32.109,-203.36
32.125,-185.81
32.140,-160.15
32.156,-129.83
32.171,-98.7
32.187,-70.11
32.203,-46.07
32.218,-27.1
32.234,-12.5
32.250,-0.89
32.265,9.22
32.281,18.91
32.296,28.58
32.312,38.05
32.328,46.66
32.343,53.73
32.359,58.72
32.375,61.54
32.390,62.56
32.406,62.63
32.421,63.02
32.437,65.02
32.453,69.54
32.468,76.6
32.484,85.08
32.500,92.95
32.515,97.86
32.531,97.81
32.546,91.54
32.562,78.69
32.578,59.58
32.593,35.17
32.609,7.08
32.625,-22.44
32.640,-50.75
32.656,-75.43
32.671,-94.99
32.687,-109.24
32.703,-118.99
32.718,-125.37
32.734,-129.03
32.750,-129.88
32.765,-127.48
32.781,-121.8
32.796,-113.77
32.812,-105.17
32.828,-98.03
32.843,-93.62
32.859,-91.84
32.875,-91.23
32.890,-89.56
32.906,-84.73
32.921,-75.46
32.937,-61.62
32.953,-44.17
32.968,-24.76
32.984,-5.37
33.000,12.2
33.015,26.49
33.031,36.68
33.046,42.56
33.062,44.38
33.078,42.55
33.093,37.44
33.109,29.34
33.125,18.57
33.140,5.79
33.156,-7.95
33.171,-21.27
33.187,-33.03
33.203,-42.71
33.218,-50.7
33.234,-58.04
33.250,-65.84
33.265,-74.65
33.281,-84.09
33.296,-92.98
33.312,-99.61
33.328,-102.22
33.343,-99.35
33.359,-90.18
33.375,-74.86
33.390,-54.8
33.406,-32.67
33.421,-11.95
33.437,3.85
33.453,12.24
33.468,12.49
33.484,5.85
33.500,-4.98
33.515,-16.76
33.531,-26.63
33.546,-32.76
33.562,-34.52
33.578,-32.21
33.593,-26.75
33.609,-19.25
33.625,-10.81
33.640,-2.34
33.656,5.42
33.671,11.96
33.687,17.01
33.703,20.58
33.718,22.99
33.734,24.71
33.750,26.25
33.765,27.92
33.781,29.63
33.796,30.88
33.812,30.87
33.828,28.77
33.843,23.96
33.859,16.24
33.875,5.91
33.890,-6.18
33.906,-18.71
33.921,-30.05
33.937,-38.59
33.953,-43.09
33.968,-43.02
33.984,-38.57
34.000,-30.5
34.015,-19.74
34.031,-7.12
34.046,6.77
34.062,21.41
34.078,36.14
34.093,50.06
34.109,62.07
34.125,71.19
34.140,76.84
34.156,79.01
34.171,78.25
34.187,75.5
34.203,71.85
34.218,68.16
34.234,64.76
34.250,61.33
34.265,57.03
34.281,50.92
34.296,42.62
34.312,32.63
34.328,22.33
34.343,13.42
34.359,7.24
34.375,4.12
34.390,3.45
34.406,3.98
34.421,4.42
34.437,3.97
34.453,2.4
34.468,-0.21
34.484,-3.73
34.500,-8.07
34.515,-13.06
34.531,-18.1
34.546,-22.08
34.562,-23.53
34.578,-20.94
34.593,-13.35
34.609,-0.67
34.625,16.12
34.640,35.22
34.656,54.4
34.671,71.44
34.687,84.56
34.703,92.69
34.718,95.58
34.734,93.82
34.750,88.63
34.765,81.54
34.781,73.96
34.796,66.82
34.812,60.49
34.828,54.89
34.843,49.93
34.859,45.76
34.875,42.95
34.890,42.28
34.906,44.44
34.921,49.62
34.937,57.25
34.953,66.14
34.968,74.57
34.984,80.79
35.000,83.39
35.015,81.8
35.031,76.56
35.046,69.25
35.062,62.14
35.078,57.46
35.093,56.76
35.109,60.58
35.125,68.55
35.140,79.87
35.156,93.76
35.171,109.68
35.187,127.29
35.203,146.21
35.218,165.73
35.234,184.75
35.250,201.76
35.265,214.89
35.281,221.98
35.296,220.92
35.312,210.23
35.328,189.72
35.343,160.91
35.359,126.74
35.375,90.74
35.390,55.94
35.406,24.14
35.421,-4.22
35.437,-29.55
35.453,-52.51
35.468,-73.58
35.484,-93.03
35.500,-111.04
35.515,-127.75
35.531,-143.29
35.546,-157.8
35.562,-171.7
35.578,-185.96
35.593,-202.24
35.609,-222.39
35.625,-247.5
35.640,-276.84
35.656,-307.57
35.671,-335.41
35.687,-355.99
35.703,-366.25
35.718,-365.15
35.734,-353.45
35.750,-332.87
35.765,-305.33
35.781,-272.55
35.796,-236.24
35.812,-198.39
35.828,-161.22
35.843,-126.7
35.859,-96.0
35.875,-69.17
35.890,-45.39
35.906,-23.66
35.921,-3.44
35.937,14.97
35.953,30.64
35.968,42.52
35.984,50.04
36.000,53.46
36.015,53.8
36.031,52.58
36.046,51.32
36.062,51.25
36.078,53.03
36.093,56.7
36.109,61.74
36.125,67.27
36.140,72.29
36.156,76.03
36.171,78.18
36.187,78.86
36.203,78.54
36.218,77.66
36.234,76.26
36.250,73.76
36.265,68.96
36.281,60.4
36.296,47.03
36.312,28.77
36.328,6.87
36.343,-16.17
36.359,-37.19
36.375,-53.09
36.390,-61.59
36.406,-61.67
36.421,-53.85
36.437,-39.97
36.453,-22.8
36.468,-5.48
36.484,9.16
36.500,19.15
36.515,23.64
36.531,22.92
36.546,18.11
36.562,10.78
36.578,2.52
36.593,-5.29
36.609,-11.68
36.625,-16.14
36.640,-18.71
36.656,-19.92
36.671,-20.71
36.687,-21.99
36.703,-24.15
36.718,-26.7
36.734,-28.33
36.750,-27.37
36.765,-22.56
36.781,-13.74
36.796,-2.17
36.812,9.8
36.828,19.48
36.843,24.77
36.859,24.89
36.875,20.58
36.890,13.69
36.906,6.59
36.921,1.36
36.937,-0.68
36.953,0.84
36.968,5.43
36.984,12.13
37.000,19.82
37.015,27.55
37.031,34.59
37.046,40.43
37.062,44.71
37.078,47.12
37.093,47.51
37.109,45.97
37.125,42.84
37.140,38.75
37.156,34.39
37.171,30.28
37.187,26.7
37.203,23.62
37.218,20.89
37.234,18.33
37.250,15.88
37.265,13.53
37.281,11.33
37.296,9.28
37.312,7.33
37.328,5.35
37.343,3.17
37.359,0.59
37.375,-2.56
37.390,-6.39
37.406,-10.96
37.421,-16.11
37.437,-21.49
37.453,-26.46
37.468,-30.23
37.484,-31.98
37.500,-31.11
37.515,-27.39
37.531,-21.05
37.546,-12.81
37.562,-3.62
37.578,5.49
37.593,13.7
37.609,20.51
37.625,25.73
37.640,29.38
37.656,31.55
37.671,32.4
37.687,32.01
37.703,30.58
37.718,28.34
37.734,25.65
37.750,22.89
37.765,20.38
37.781,18.28
37.796,16.51
37.812,14.91
37.828,13.24
37.843,11.38
37.859,9.32
37.875,7.18
37.890,5.07
37.906,3.03
37.921,1.05
37.937,-0.98
37.953,-3.21
37.968,-5.77
37.984,-8.78
38.000,-12.24
38.015,-15.99
38.031,-19.66
38.046,-22.66
38.062,-24.28
38.078,-23.9
38.093,-21.13
38.109,-16.01
38.125,-9.02
38.140,-0.94
38.156,7.35
38.171,15.03
38.187,21.5
38.203,26.44
38.218,29.69
38.234,31.31
38.250,31.45
38.265,30.29
38.281,28.15
38.296,25.37
38.312,22.35
38.328,19.45
38.343,16.95
38.359,15.03
38.375,13.7
38.390,12.88
38.406,12.38
38.421,12.0
38.437,11.53
38.453,10.8
38.468,9.72
38.484,8.3
38.500,6.57
38.515,4.63
38.531,2.52
38.546,0.23
38.562,-2.35
38.578,-5.4
38.593,-9.01
38.609,-13.08
38.625,-17.21
38.640,-20.72
38.656,-22.84
38.671,-22.88
38.687,-20.49
38.703,-15.73
38.718,-9.13
38.734,-1.5
38.750,6.29
38.765,13.47
38.781,19.57
38.796,24.43
38.812,28.07
38.828,30.64
38.843,32.27
38.859,33.01
38.875,32.86
38.890,31.87
38.906,30.13
38.921,27.87
38.937,25.43
38.953,23.05
38.968,20.9
38.984,19.03
39.000,17.33
39.015,15.74
39.031,14.13
39.046,12.4
39.062,10.45
39.078,8.18
39.093,5.55
39.109,2.62
39.125,-0.49
39.140,-3.6
39.156,-6.56
39.171,-9.34
39.187,-12.06
39.203,-14.93
39.218,-18.08
39.234,-21.41
39.250,-24.46
39.265,-26.51
39.281,-26.8
39.296,-24.81
39.312,-20.45
39.328,-14.15
39.343,-6.71
39.359,0.98
39.375,8.1
39.390,14.11
39.406,18.81
39.421,22.18
39.437,24.4
39.453,25.71
39.468,26.35
39.484,26.53
39.500,26.33
39.515,25.74
39.531,24.75
39.546,23.39
39.562,21.8
39.578,20.18
39.593,18.73
39.609,17.55
39.625,16.55
39.640,15.55
39.656,14.3
39.671,12.65
39.687,10.56
39.703,8.08
39.718,5.34
39.734,2.42
39.750,-0.64
39.765,-3.74
39.781,-6.82
39.796,-9.79
39.812,-12.64
39.828,-15.39
39.843,-18.15
39.859,-20.99
39.875,-23.82
39.890,-26.37
39.906,-28.14
39.921,-28.52
39.937,-27.01
39.953,-23.4
39.968,-17.9
39.984,-11.07
40.000,-3.74
40.015,3.28
40.031,9.38
40.046,14.24
40.062,17.87
40.078,20.41
40.093,22.06
40.109,23.0
40.125,23.34
40.140,23.14
40.156,22.47
40.171,21.41
40.187,20.04
40.203,18.47
40.218,16.79
40.234,15.1
40.250,13.52
40.265,12.18
40.281,11.14
40.296,10.34
40.312,9.6
40.328,8.63
40.343,7.19
40.359,5.18
40.375,2.71
40.390,0.03
40.406,-2.53
40.421,-4.74
40.437,-6.53
40.453,-8.05
40.468,-9.54
40.484,-11.29
40.500,-13.54
40.515,-16.34
40.531,-19.57
40.546,-22.84
40.562,-25.54
40.578,-26.97
40.593,-26.52
40.609,-23.88
40.625,-19.21
40.640,-13.07
40.656,-6.28
40.671,0.34
40.687,6.15
40.703,10.8
40.718,14.21
40.734,16.45
40.750,17.67
40.765,17.97
40.781,17.53
40.796,16.52
40.812,15.12
40.828,13.57
40.843,12.06
40.859,10.78
40.875,9.85
40.890,9.32
40.906,9.14
40.921,9.15
40.937,9.19
40.953,9.07
40.968,8.66
40.984,7.91
41.000,6.83
41.015,5.5
41.031,4.06
41.046,2.63
41.062,1.36
41.078,0.34
41.093,-0.42
41.109,-1.04
41.125,-1.71
41.140,-2.68
41.156,-4.19
41.171,-6.34
41.187,-9.09
41.203,-12.23
41.218,-15.34
41.234,-17.88
41.250,-19.25
41.265,-18.96
41.281,-16.79
41.296,-12.92
41.312,-7.88
41.328,-2.41
41.343,2.74
41.359,7.02
41.375,10.19
41.390,12.25
41.406,13.35
41.421,13.7
41.437,13.43
41.453,12.68
41.468,11.56
41.484,10.21
41.500,8.78
41.515,7.42
41.531,6.19
41.546,5.05
41.562,3.9
41.578,2.56
41.593,0.91
41.609,-1.04
41.625,-3.18
41.640,-5.23
41.656,-6.97
41.671,-8.26
41.687,-9.15
41.703,-9.84
41.718,-10.6
41.734,-11.62
41.750,-12.92
41.765,-14.34
41.781,-15.68
41.796,-16.74
41.812,-17.46
41.828,-17.9
41.843,-18.27
41.859,-18.8
41.875,-19.62
41.890,-20.68
41.906,-21.7
41.921,-22.21
41.937,-21.65
41.953,-19.6
41.968,-15.95
41.984,-10.95
42.000,-5.16
42.015,0.71
42.031,6.09
42.046,10.63
42.062,14.29
42.078,17.23
42.093,19.68
42.109,21.76
42.125,23.48
42.140,24.78
42.156,25.64
42.171,26.14
42.187,26.53
42.203,27.09
42.218,28.08
42.234,29.56
42.250,31.36
42.265,33.18
42.281,34.68
42.296,35.65
42.312,36.11
42.328,36.29
42.343,36.44
42.359,36.66
42.375,36.86
42.390,36.71
42.406,35.94
42.421,34.44
42.437,32.42
42.453,30.26
42.468,28.38
42.484,26.92
42.500,25.76
42.515,24.53
42.531,22.87
42.546,20.57
42.562,17.66
42.578,14.35
42.593,10.9
42.609,7.63
42.625,4.86
42.640,2.98
42.656,2.45
42.671,3.64
42.687,6.67
42.703,11.32
42.718,16.99
42.734,22.86
42.750,28.18
42.765,32.42
42.781,35.42
42.796,37.3
42.812,38.32
42.828,38.73
42.843,38.68
42.859,38.28
42.875,37.59
42.890,36.77
42.906,36.0
42.921,35.44
42.937,35.17
42.953,35.1
42.968,35.1
42.984,35.1
43.000,35.19
43.015,35.73
43.031,37.18
43.046,39.89
43.062,43.86
43.078,48.73
43.093,53.95
43.109,59.14
43.125,64.18
43.140,69.1
43.156,73.59
43.171,76.5
43.187,75.77
43.203,68.82
43.218,53.39
43.234,28.37
43.250,-5.75
43.265,-46.96
43.281,-92.12
43.296,-137.39
43.312,-178.61
43.328,-211.69
43.343,-233.28
43.359,-241.49
43.375,-236.52
43.390,-220.7
43.406,-197.8
43.421,-171.85
43.437,-146.13
43.453,-122.57
43.468,-101.85
43.484,-83.96
43.500,-68.65
43.515,-55.67
43.531,-44.7
43.546,-35.31
43.562,-27.0
43.578,-19.34
43.593,-12.15
43.609,-5.45
43.625,0.68
43.640,6.24
43.656,11.27
43.671,15.79
43.687,19.72
43.703,22.85
43.718,25.0
43.734,26.11
43.750,26.28
43.765,25.71
43.781,24.6
43.796,23.07
43.812,21.16
43.828,19.01
43.843,16.92
43.859,15.35
43.875,14.78
43.890,15.43
43.906,17.05
43.921,18.96
43.937,20.27
43.953,20.18
43.968,18.27
43.984,14.58
44.000,9.53
44.015,3.72
44.031,-2.18
44.046,-7.57
44.062,-11.78
44.078,-14.16
44.093,-14.14
44.109,-11.44
44.125,-6.37
44.140,0.17
44.156,6.88
44.171,12.41
44.187,15.88
44.203,17.04
44.218,16.27
44.234,14.3
44.250,11.87
44.265,9.52
44.281,7.53
44.296,6.01
44.312,5.07
44.328,4.82
44.343,5.29
44.359,6.36
44.375,7.67
44.390,8.81
44.406,9.43
44.421,9.37
44.437,8.81
44.453,8.04
44.468,7.36
44.484,6.92
44.500,6.65
44.515,6.37
44.531,5.88
44.546,5.13
44.562,4.23
44.578,3.49
44.593,3.21
44.609,3.57
44.625,4.5
44.640,5.58
44.656,6.23
44.671,5.89
44.687,4.23
44.703,1.35
44.718,-2.28
44.734,-6.0
44.750,-9.22
44.765,-11.47
44.781,-12.5
44.796,-12.18
44.812,-10.43
44.828,-7.31
44.843,-3.04
44.859,1.97
44.875,7.17
44.890,12.06
44.906,16.28
44.921,19.71
44.937,22.35
44.953,24.2
44.968,25.14
44.984,25.03
45.000,23.78
45.015,21.46
45.031,18.31
45.046,14.69
45.062,10.91
45.078,7.25
45.093,3.95
45.109,1.22
45.125,-0.59
45.140,-1.15
45.156,-0.2
45.171,2.27
45.187,5.85
45.203,9.66
45.218,12.62
45.234,13.72
45.250,12.41
45.265,8.79
45.281,3.61
45.296,-2.03
45.312,-7.06
45.328,-10.8
45.343,-13.08
45.359,-14.1
45.375,-14.27
45.390,-13.97
45.406,-13.53
45.421,-13.18
45.437,-13.13
45.453,-13.41
45.468,-13.91
45.484,-14.23
45.500,-13.79
45.515,-12.05
45.531,-8.79
45.546,-4.26
45.562,0.77
45.578,5.27
45.593,8.4
45.609,9.8
45.625,9.72
45.640,8.82
45.656,7.85
45.671,7.31
45.687,7.36
45.703,7.91
45.718,8.91
45.734,10.42
45.750,12.58
45.765,15.32
45.781,18.18
45.796,20.39
45.812,21.16
45.828,20.03
45.843,17.17
45.859,13.23
45.875,9.1
45.890,5.5
45.906,2.78
45.921,0.91
45.937,-0.31
45.953,-1.02
45.968,-1.19
45.984,-0.67
46.000,0.64
46.015,2.75
46.031,5.39
46.046,8.12
46.062,10.42
46.078,11.84
46.093,12.08
46.109,11.15
46.125,9.31
46.140,6.95
46.156,4.46
46.171,2.09
46.187,0.02
46.203,-1.64
46.218,-2.73
46.234,-3.01
46.250,-2.3
46.265,-0.61
46.281,1.72
46.296,4.05
46.312,5.63
46.328,5.9
46.343,4.66
46.359,2.16
46.375,-1.05
46.390,-4.3
46.406,-7.12
46.421,-9.23
46.437,-10.57
46.453,-11.18
46.468,-11.1
46.484,-10.36
46.500,-9.05
46.515,-7.36
46.531,-5.59
46.546,-4.1
46.562,-3.2
46.578,-3.06
46.593,-3.63
46.609,-4.72
46.625,-6.0
46.640,-7.16
46.656,-7.94
46.671,-8.26
46.687,-8.18
46.703,-7.9
46.718,-7.6
46.734,-7.38
46.750,-7.31
46.765,-7.36
46.781,-7.56
46.796,-7.95
46.812,-8.52
46.828,-9.11
46.843,-9.4
46.859,-9.08
46.875,-7.91
46.890,-6.01
46.906,-3.74
46.921,-1.6
46.937,-0.02
46.953,0.92
46.968,1.35
46.984,1.58
47.000,1.78
47.015,1.96
47.031,1.96
47.046,1.63
47.062,0.93
47.078,-0.01
47.093,-0.91
47.109,-1.56
47.125,-1.8
47.140,-1.72
47.156,-1.49
47.171,-1.36
47.187,-1.47
47.203,-1.88
47.218,-2.47
47.234,-3.09
47.250,-3.61
47.265,-3.96
47.281,-4.23
47.296,-4.55
47.312,-5.0
47.328,-5.55
47.343,-6.05
47.359,-6.33
47.375,-6.27
47.390,-5.95
47.406,-5.55
47.421,-5.32
47.437,-5.45
47.453,-5.94
47.468,-6.66
47.484,-7.37
47.500,-7.85
47.515,-7.9
47.531,-7.42
47.546,-6.31
47.562,-4.55
47.578,-2.22
47.593,0.52
47.609,3.44
47.625,6.3
47.640,8.92
47.656,11.24
47.671,13.24
47.687,14.91
47.703,16.17
47.718,16.88
47.734,16.94
47.750,16.34
47.765,15.22
47.781,13.9
47.796,12.73
47.812,12.06
47.828,12.11
47.843,12.83
47.859,13.95
47.875,14.91
47.890,15.02
47.906,13.72
47.921,10.82
47.937,6.51
47.953,1.42
47.968,-3.7
47.984,-8.23
48.000,-11.85
48.015,-14.55
48.031,-16.52
48.046,-17.94
48.062,-18.9
48.078,-19.48
48.093,-19.84
48.109,-20.23
48.125,-20.94
48.140,-22.16
48.156,-23.74
48.171,-25.28
48.187,-26.16
48.203,-25.86
48.218,-24.17
48.234,-21.29
48.250,-17.72
48.265,-14.09
48.281,-10.92
48.296,-8.47
48.312,-6.69
48.328,-5.4
48.343,-4.36
48.359,-3.38
48.375,-2.39
48.390,-1.36
48.406,-0.34
48.421,0.62
48.437,1.47
48.453,2.19
48.468,2.79
48.484,3.37
48.500,3.95
48.515,4.56
48.531,5.11
48.546,5.48
48.562,5.57
48.578,5.39
48.593,5.03
48.609,4.61
48.625,4.2
48.640,3.75
48.656,3.17
48.671,2.38
48.687,1.38
48.703,0.25
48.718,-0.94
48.734,-2.23
48.750,-3.72
48.765,-5.54
48.781,-7.72
48.796,-10.06
48.812,-12.17
48.828,-13.53
48.843,-13.76
48.859,-12.7
48.875,-10.47
48.890,-7.48
48.906,-4.21
48.921,-1.13
48.937,1.38
48.953,3.13
48.968,4.07
48.984,4.3
49.000,4.01
49.015,3.48
49.031,2.99
49.046,2.81
49.062,3.07
49.078,3.77
49.093,4.75
49.109,5.76
49.125,6.55
49.140,7.0
49.156,7.11
49.171,7.01
49.187,6.88
49.203,6.82
49.218,6.83
49.234,6.81
49.250,6.64
49.265,6.25
49.281,5.69
49.296,5.07
49.312,4.47
49.328,3.91
49.343,3.32
49.359,2.61
49.375,1.68
49.390,0.53
49.406,-0.83
49.421,-2.38
49.437,-4.09
49.453,-5.88
49.468,-7.53
49.484,-8.67
49.500,-8.87
49.515,-7.81
49.531,-5.48
49.546,-2.23
49.562,1.32
49.578,4.56
49.593,7.07
49.609,8.77
49.625,9.86
49.640,10.62
49.656,11.24
49.671,11.79
49.687,12.17
49.703,12.28
49.718,12.09
49.734,11.7
49.750,11.26
49.765,10.92
49.781,10.72
49.796,10.61
49.812,10.5
49.828,10.3
49.843,9.97
49.859,9.54
49.875,9.09
49.890,8.7
49.906,8.36
49.921,8.0
49.937,7.45
49.953,6.55
49.968,5.24
49.984,3.61
50.000,1.85
50.015,0.2
50.031,-1.18
50.046,-2.26
50.062,-3.13
50.078,-3.94
50.093,-4.77
50.109,-5.65
50.125,-6.5
50.140,-7.25
50.156,-7.86
50.171,-8.36
50.187,-8.77
50.203,-9.08
50.218,-9.22
50.234,-9.06
50.250,-8.53
50.265,-7.61
50.281,-6.36
50.296,-4.87
50.312,-3.22
50.328,-1.45
50.343,0.45
50.359,2.41
50.375,4.37
50.390,6.2
50.406,7.79
50.421,9.2
50.437,10.51
50.453,11.91
50.468,13.51
50.484,15.28
50.500,17.1
50.515,18.78
50.531,20.15
50.546,21.16
50.562,21.87
50.578,22.39
50.593,22.83
50.609,23.22
50.625,23.51
50.640,23.6
50.656,23.42
50.671,22.97
50.687,22.42
50.703,21.99
50.718,21.91
50.734,22.32
50.750,23.13
50.765,24.08
50.781,24.82
50.796,25.06
50.812,24.73
50.828,24.04
50.843,23.45
50.859,23.58
50.875,25.05
50.890,28.19
50.906,32.99
50.921,39.01
50.937,45.53
50.953,51.9
50.968,57.74
50.984,63.25
51.000,69.15
51.015,76.43
51.031,86.0
51.046,98.16
51.062,112.32
51.078,126.85
51.093,139.38
51.109,147.31
51.125,148.68
51.140,142.81
51.156,130.78
51.171,115.27
51.187,99.84
51.203,87.88
51.218,81.67
51.234,81.71
51.250,86.77
51.265,94.44
51.281,102.0
51.296,107.25
51.312,109.16
51.328,107.81
51.343,103.89
51.359,97.96
51.375,89.76
51.390,78.07
51.406,61.11
51.421,37.27
51.437,5.66
51.453,-33.69
51.468,-80.02
51.484,-132.04
51.500,-187.63
51.515,-243.52
51.531,-294.9
51.546,-335.98
51.562,-361.35
51.578,-367.84
51.593,-355.74
51.609,-328.93
51.625,-293.42
51.640,-255.24
51.656,-218.7
51.671,-185.63
51.687,-155.97
51.703,-128.89
51.718,-103.85
51.734,-80.98
51.750,-60.77
51.765,-43.52
51.781,-29.01
51.796,-16.67
51.812,-5.87
51.828,3.67
51.843,11.75
51.859,17.9
51.875,21.79
51.890,23.47
51.906,23.53
51.921,22.91
51.937,22.51
51.953,22.94
51.968,24.26
51.984,26.05
52.000,27.66
52.015,28.55
52.031,28.53
52.046,27.88
52.062,27.1
52.078,26.62
52.093,26.48
52.109,26.24
52.125,25.21
52.140,22.73
52.156,18.53
52.171,12.82
52.187,6.21
52.203,-0.6
52.218,-7.02
52.234,-12.74
52.250,-17.72
52.265,-22.06
52.281,-25.82
52.296,-28.96
52.312,-31.39
52.328,-32.99
52.343,-33.71
52.359,-33.7
52.375,-33.17
52.390,-32.41
52.406,-31.63
52.421,-30.85
52.437,-29.98
52.453,-28.87
52.468,-27.44
52.484,-25.68
52.500,-23.76
52.515,-21.82
52.531,-20.02
52.546,-18.4
52.562,-16.97
52.578,-15.72
52.593,-14.71
52.609,-14.04
52.625,-13.72
52.640,-13.59
52.656,-13.24
52.671,-12.26
52.687,-10.3
52.703,-7.35
52.718,-3.75
52.734,-0.04
52.750,3.21
52.765,5.66
52.781,7.3
52.796,8.35
52.812,9.14
52.828,9.93
52.843,10.78
52.859,11.65
52.875,12.43
52.890,13.05
52.906,13.51
52.921,13.9
52.937,14.43
52.953,15.24
52.968,16.4
52.984,17.8
53.000,19.13
53.015,20.05
53.031,20.33
53.046,20.03
53.062,19.49
53.078,19.3
53.093,19.92
53.109,21.58
53.125,24.1
53.140,27.03
53.156,29.82
53.171,32.11
53.187,33.86
53.203,35.29
53.218,36.85
53.234,38.98
53.250,41.96
53.265,45.73
53.281,49.83
53.296,53.34
53.312,54.99
53.328,53.29
53.343,46.93
53.359,35.26
53.375,18.71
53.390,-1.12
53.406,-21.72
53.421,-40.44
53.437,-55.19
53.453,-65.1
53.468,-70.48
53.484,-72.5
53.500,-72.45
53.515,-71.2
53.531,-69.0
53.546,-65.72
53.562,-61.21
53.578,-55.6
53.593,-49.36
53.609,-43.07
53.625,-37.22
53.640,-31.95
53.656,-27.23
53.671,-22.94
53.687,-19.05
53.703,-15.74
53.718,-13.29
53.734,-11.95
53.750,-11.74
53.765,-12.5
53.781,-13.77
53.796,-15.08
53.812,-16.0
53.828,-16.26
53.843,-15.82
53.859,-14.77
53.875,-13.26
53.890,-11.38
53.906,-9.14
53.921,-6.46
53.937,-3.31
53.953,0.21
53.968,3.9
53.984,7.41
54.000,10.37
54.015,12.51
54.031,13.79
54.046,14.28
54.062,14.22
54.078,13.95
54.093,13.73
54.109,13.71
54.125,13.92
54.140,14.27
54.156,14.6
54.171,14.82
54.187,14.86
54.203,14.76
54.218,14.64
54.234,14.57
54.250,14.6
54.265,14.66
54.281,14.61
54.296,14.32
54.312,13.66
54.328,12.58
54.343,11.11
54.359,9.38
54.375,7.55
54.390,5.8
54.406,4.23
54.421,2.89
54.437,1.71
54.453,0.62
54.468,-0.45
54.484,-1.54
54.500,-2.66
54.515,-3.88
54.531,-5.2
54.546,-6.6
54.562,-7.91
54.578,-8.85
54.593,-9.03
54.609,-8.17
54.625,-6.22
54.640,-3.46
54.656,-0.4
54.671,2.44
54.687,4.69
54.703,6.28
54.718,7.38
54.734,8.25
54.750,9.13
54.765,10.06
54.781,10.93
54.796,11.57
54.812,11.86
54.828,11.76
54.843,11.36
54.859,10.84
54.875,10.35
54.890,10.0
54.906,9.76
54.921,9.58
54.937,9.36
54.953,9.09
54.968,8.75
54.984,8.38
55.000,7.97
55.015,7.49
55.031,6.88
55.046,6.14
55.062,5.34
55.078,4.59
55.093,3.98
55.109,3.55
55.125,3.27
55.140,3.01
55.156,2.64
55.171,2.06
55.187,1.26
55.203,0.32
55.218,-0.6
55.234,-1.38
55.250,-1.99
55.265,-2.52
55.281,-3.18
55.296,-4.18
55.312,-5.55
55.328,-7.15
55.343,-8.59
55.359,-9.4
55.375,-9.26
55.390,-8.07
55.406,-6.01
55.421,-3.47
55.437,-0.86
55.453,1.53
55.468,3.53
55.484,5.11
55.500,6.37
55.515,7.37
55.531,8.17
55.546,8.79
55.562,9.21
55.578,9.4
55.593,9.38
55.609,9.17
55.625,8.82
55.640,8.4
55.656,7.96
55.671,7.54
55.687,7.16
55.703,6.84
55.718,6.6
55.734,6.42
55.750,6.3
55.765,6.2
55.781,6.08
55.796,5.93
55.812,5.77
55.828,5.62
55.843,5.49
55.859,5.37
55.875,5.22
55.890,4.96
55.906,4.57
55.921,4.03
55.937,3.36
55.953,2.64
55.968,1.92
55.984,1.21
56.000,0.48
56.015,-0.33
56.031,-1.26
56.046,-2.32
56.062,-3.48
56.078,-4.71
56.093,-5.94
56.109,-7.14
56.125,-8.23
56.140,-9.1
56.156,-9.54
56.171,-9.34
56.187,-8.31
56.203,-6.41
56.218,-3.76
56.234,-0.68
56.250,2.42
56.265,5.15
56.281,7.27
56.296,8.7
56.312,9.54
56.328,9.97
56.343,10.15
56.359,10.16
56.375,9.99
56.390,9.58
56.406,8.89
56.421,8.02
56.437,7.11
56.453,6.34
56.468,5.83
56.484,5.58
56.500,5.45
56.515,5.32
56.531,5.09
56.546,4.76
56.562,4.47
56.578,4.32
56.593,4.36
56.609,4.54
56.625,4.67
56.640,4.62
56.656,4.34
56.671,3.9
56.687,3.42
56.703,3.0
56.718,2.65
56.734,2.24
56.750,1.67
56.765,0.85
56.781,-0.17
56.796,-1.24
56.812,-2.23
56.828,-3.06
56.843,-3.76
56.859,-4.44
56.875,-5.21
56.890,-6.09
56.906,-6.97
56.921,-7.63
56.937,-7.84
56.953,-7.46
56.968,-6.45
56.984,-4.88
57.000,-2.93
57.015,-0.82
57.031,1.24
57.046,3.05
57.062,4.43
57.078,5.28
57.093,5.59
57.109,5.44
57.125,4.98
57.140,4.38
57.156,3.79
57.171,3.34
57.187,3.06
57.203,2.93
57.218,2.92
57.234,2.97
57.250,3.02
57.265,3.04
57.281,3.06
57.296,3.12
57.312,3.27
57.328,3.52
57.343,3.79
57.359,4.0
57.375,4.07
57.390,3.95
57.406,3.71
57.421,3.42
57.437,3.17
57.453,2.96
57.468,2.74
57.484,2.44
57.500,2.01
57.515,1.43
57.531,0.77
57.546,0.1
57.562,-0.6
57.578,-1.37
57.593,-2.31
57.609,-3.51
57.625,-4.98
57.640,-6.6
57.656,-8.15
57.671,-9.35
57.687,-9.96
57.703,-9.84
57.718,-8.99
57.734,-7.5
57.750,-5.55
57.765,-3.37
57.781,-1.2
57.796,0.73
57.812,2.27
57.828,3.38
57.843,4.09
57.859,4.53
57.875,4.8
57.890,4.97
57.906,5.03
57.921,4.97
57.937,4.78
57.953,4.54
57.968,4.36
57.984,4.3
58.000,4.42
58.015,4.67
58.031,5.02
58.046,5.44
58.062,5.93
58.078,6.5
58.093,7.12
58.109,7.75
58.125,8.33
58.140,8.88
58.156,9.4
58.171,9.89
58.187,10.34
58.203,10.68
58.218,10.89
58.234,11.05
58.250,11.37
58.265,12.11
58.281,13.45
58.296,15.4
58.312,17.79
58.328,20.31
58.343,22.69
58.359,24.8
58.375,26.76
58.390,28.86
58.406,31.47
58.421,34.88
58.437,39.14
58.453,44.08
58.468,49.4
58.484,54.82
58.500,60.28
58.515,65.99
58.531,72.38
58.546,79.89
58.562,88.79
58.578,98.94
58.593,109.79
58.609,120.52
58.625,130.3
58.640,138.67
58.656,145.72
58.671,152.09
58.687,158.86
58.703,167.09
58.718,177.43
58.734,189.75
58.750,202.98
58.765,215.25
58.781,224.19
58.796,227.45
58.812,223.17
58.828,210.43
58.843,189.37
58.859,161.07
58.875,127.21
58.890,89.46
58.906,48.99
58.921,6.17
58.937,-39.14
58.953,-86.94
58.968,-136.04
58.984,-183.54
59.000,-225.05
59.015,-255.92
59.031,-272.78
59.046,-274.86
59.062,-264.22
59.078,-244.8
59.093,-220.82
59.109,-195.45
59.125,-170.34
59.140,-145.91
59.156,-122.42
59.171,-100.62
59.187,-81.94
59.203,-68.0
59.218,-59.79
59.234,-57.15
59.250,-58.63
59.265,-61.92
59.281,-64.44
59.296,-64.1
59.312,-60.01
59.328,-52.78
59.343,-44.39
59.359,-37.59
59.375,-34.9
59.390,-37.74
59.406,-45.9
59.421,-57.51
59.437,-69.8
59.453,-79.9
59.468,-85.72
59.484,-86.38
59.500,-82.17
59.515,-74.14
59.531,-63.66
59.546,-51.94
59.562,-39.97
59.578,-28.59
59.593,-18.59
59.609,-10.64
59.625,-5.23
59.640,-2.41
59.656,-1.66
59.671,-2.01
59.687,-2.26
59.703,-1.51
59.718,0.59
59.734,3.69
59.750,7.0
59.765,9.65
59.781,11.16
59.796,11.56
59.812,11.35
59.828,11.21
59.843,11.59
59.859,12.7
59.875,14.43
59.890,16.58
59.906,19.03
59.921,21.84
59.937,25.2
59.953,29.42
59.968,34.72
59.984,41.14
