timestamp,value
00.000,49.72
00.015,51.41
00.031,52.63
00.046,53.42
00.062,53.9
00.078,54.2
00.093,54.44
00.109,54.71
00.125,55.08
00.140,55.54
00.156,56.01
00.171,56.26
00.187,56.09
00.203,55.38
00.218,54.18
00.234,52.69
00.250,51.16
00.265,49.7
00.281,48.21
00.296,46.52
00.312,44.56
00.328,42.69
00.343,41.7
00.359,42.8
00.375,47.24
00.390,55.97
00.406,69.27
00.421,86.39
00.437,105.3
00.453,122.59
00.468,133.94
00.484,134.95
00.500,122.59
00.515,96.32
00.531,58.65
00.546,14.54
00.562,-29.94
00.578,-69.32
00.593,-99.86
00.609,-119.92
00.625,-129.57
00.640,-129.87
00.656,-122.3
00.671,-108.54
00.687,-90.42
00.703,-69.85
00.718,-48.68
00.734,-28.47
00.750,-10.31
00.765,5.23
00.781,18.06
00.796,28.43
00.812,36.92
00.828,44.21
00.843,50.94
00.859,57.46
00.875,63.72
00.890,69.27
00.906,73.47
00.921,75.8
00.937,76.0
00.953,74.24
00.968,70.88
00.984,66.25
01.000,60.68
01.015,54.64
01.031,48.8
01.046,43.76
01.062,39.56
01.078,34.92
01.093,27.24
01.109,13.26
01.125,-9.59
01.140,-41.69
01.156,-80.56
01.171,-121.35
01.187,-158.43
01.203,-187.12
01.218,-204.89
01.234,-211.38
01.250,-207.68
01.265,-195.44
01.281,-176.37
01.296,-152.42
01.312,-125.9
01.328,-99.57
01.343,-76.02
01.359,-56.95
01.375,-42.68
01.390,-32.19
01.406,-23.75
01.421,-15.73
01.437,-7.32
01.453,1.37
01.468,9.57
01.484,16.45
01.500,21.6
01.515,25.17
01.531,27.8
01.546,30.3
01.562,33.24
01.578,36.66
01.593,39.96
01.609,42.08
01.625,41.83
01.640,38.38
01.656,31.67
01.671,22.44
01.687,11.99
01.703,1.65
01.718,-7.74
01.734,-16.04
01.750,-23.81
01.765,-31.83
01.781,-40.77
01.796,-50.78
01.812,-61.44
01.828,-71.89
01.843,-81.06
01.859,-87.98
01.875,-91.86
01.890,-92.3
01.906,-89.21
01.921,-82.84
01.937,-73.77
01.953,-62.89
01.968,-51.25
01.984,-39.92
02.000,-29.78
02.015,-21.42
02.031,-15.04
02.046,-10.46
02.062,-7.28
02.078,-4.99
02.093,-3.04
02.109,-0.95
02.125,1.64
02.140,4.91
02.156,8.81
02.171,13.11
02.187,17.47
02.203,21.65
02.218,25.55
02.234,29.35
02.250,33.32
02.265,37.72
02.281,42.58
02.296,47.65
02.312,52.47
02.328,56.56
02.343,59.63
02.359,61.61
02.375,62.61
02.390,62.73
02.406,61.87
02.421,59.68
02.437,55.75
02.453,49.77
02.468,41.86
02.484,32.5
02.500,22.48
02.515,12.54
02.531,3.11
02.546,-5.75
02.562,-14.4
02.578,-23.25
02.593,-32.5
02.609,-41.83
02.625,-50.36
02.640,-56.81
02.656,-59.94
02.671,-58.94
02.687,-53.79
02.703,-45.25
02.718,-34.62
02.734,-23.3
02.750,-12.43
02.765,-2.69
02.781,5.59
02.796,12.3
02.812,17.35
02.828,20.61
02.843,22.07
02.859,21.88
02.875,20.5
02.890,18.59
02.906,16.85
02.921,15.76
02.937,15.53
02.953,16.06
02.968,17.1
02.984,18.39
03.000,19.81
03.015,21.35
03.031,23.04
03.046,24.86
03.062,26.74
03.078,28.61
03.093,30.47
03.109,32.4
03.125,34.51
03.140,36.75
03.156,38.9
03.171,40.58
03.187,41.36
03.203,40.89
03.218,39.04
03.234,35.89
03.250,31.67
03.265,26.73
03.281,21.46
03.296,16.18
03.312,11.08
03.328,6.13
03.343,1.05
03.359,-4.59
03.375,-11.17
03.390,-18.72
03.406,-26.78
03.421,-34.31
03.437,-40.01
03.453,-42.61
03.468,-41.33
03.484,-36.15
03.500,-27.79
03.515,-17.52
03.531,-6.74
03.546,3.32
03.562,11.89
03.578,18.72
03.593,23.99
03.609,28.17
03.625,31.78
03.640,35.32
03.656,39.07
03.671,43.09
03.687,47.14
03.703,50.71
03.718,53.24
03.734,54.24
03.750,53.52
03.765,51.23
03.781,47.81
03.796,43.81
03.812,39.73
03.828,35.9
03.843,32.5
03.859,29.63
03.875,27.35
03.890,25.71
03.906,24.69
03.921,24.11
03.937,23.58
03.953,22.65
03.968,20.98
03.984,18.49
04.000,15.47
04.015,12.34
04.031,9.51
04.046,7.1
04.062,4.89
04.078,2.41
04.093,-0.79
04.109,-4.92
04.125,-9.91
04.140,-15.38
04.156,-20.8
04.171,-25.59
04.187,-29.21
04.203,-31.14
04.218,-30.95
04.234,-28.44
04.250,-23.66
04.265,-17.02
04.281,-9.15
04.296,-0.8
04.312,7.4
04.328,14.96
04.343,21.6
04.359,27.23
04.375,31.9
04.390,35.86
04.406,39.45
04.421,43.15
04.437,47.36
04.453,52.39
04.468,58.31
04.484,65.06
04.500,72.52
04.515,80.63
04.531,89.41
04.546,98.85
04.562,108.89
04.578,119.35
04.593,130.0
04.609,140.68
04.625,151.2
04.640,161.31
04.656,170.47
04.671,177.88
04.687,182.61
04.703,183.98
04.718,181.95
04.734,177.24
04.750,170.92
04.765,164.03
04.781,157.2
04.796,150.86
04.812,145.49
04.828,141.72
04.843,139.95
04.859,139.6
04.875,138.65
04.890,133.8
04.906,121.53
04.921,99.33
04.937,66.62
04.953,24.97
04.968,-22.39
04.984,-71.08
05.000,-116.12
05.015,-152.55
05.031,-176.39
05.046,-185.94
05.062,-182.68
05.078,-171.19
05.093,-157.64
05.109,-147.48
05.125,-143.56
05.140,-145.61
05.156,-151.1
05.171,-156.83
05.187,-159.94
05.203,-158.39
05.218,-150.95
05.234,-137.32
05.250,-118.65
05.265,-97.77
05.281,-78.86
05.296,-66.0
05.312,-61.62
05.328,-65.48
05.343,-74.8
05.359,-85.43
05.375,-93.21
05.390,-95.09
05.406,-89.7
05.421,-77.58
05.437,-61.09
05.453,-44.01
05.468,-30.61
05.484,-24.36
05.500,-26.63
05.515,-36.07
05.531,-49.12
05.546,-61.23
05.562,-68.58
05.578,-69.37
05.593,-64.34
05.609,-56.48
05.625,-49.85
05.640,-48.17
05.656,-53.41
05.671,-65.15
05.687,-80.66
05.703,-95.91
05.718,-106.85
05.734,-110.54
05.750,-105.85
05.765,-93.59
05.781,-76.52
05.796,-58.94
05.812,-45.94
05.828,-42.02
05.843,-49.6
05.859,-67.83
05.875,-92.62
05.890,-118.02
05.906,-138.27
05.921,-149.61
05.937,-150.94
05.953,-143.33
05.968,-128.83
05.984,-109.56
06.000,-87.3
06.015,-63.76
06.031,-40.73
06.046,-20.07
06.062,-3.26
06.078,9.02
06.093,17.02
06.109,21.67
06.125,24.07
06.140,25.05
06.156,24.93
06.171,23.6
06.187,20.74
06.203,16.2
06.218,10.13
06.234,3.04
06.250,-4.36
06.265,-11.39
06.281,-17.67
06.296,-23.16
06.312,-28.02
06.328,-32.32
06.343,-35.71
06.359,-37.3
06.375,-35.76
06.390,-29.81
06.406,-18.78
06.421,-3.04
06.437,15.99
06.453,36.23
06.468,55.58
06.484,72.46
06.500,86.18
06.515,96.79
06.531,104.86
06.546,111.14
06.562,116.34
06.578,121.02
06.593,125.39
06.609,129.24
06.625,131.86
06.640,132.17
06.656,129.16
06.671,122.32
06.687,112.03
06.703,99.4
06.718,85.92
06.734,72.78
06.750,60.46
06.765,48.78
06.781,37.2
06.796,25.26
06.812,12.86
06.828,0.26
06.843,-11.98
06.859,-22.92
06.875,-31.28
06.890,-35.75
06.906,-35.73
06.921,-32.35
06.937,-28.89
06.953,-30.27
06.968,-41.1
06.984,-63.54
07.000,-95.69
07.015,-131.86
07.031,-164.56
07.046,-187.27
07.062,-196.58
07.078,-192.78
07.093,-178.76
07.109,-158.26
07.125,-134.39
07.140,-109.21
07.156,-84.12
07.171,-60.4
07.187,-39.54
07.203,-22.92
07.218,-11.28
07.234,-4.31
07.250,-0.66
07.265,1.52
07.281,3.91
07.296,7.36
07.312,11.7
07.328,16.0
07.343,19.19
07.359,20.66
07.375,20.61
07.390,19.96
07.406,19.86
07.421,21.02
07.437,23.39
07.453,26.14
07.468,28.09
07.484,28.26
07.500,26.25
07.515,22.38
07.531,17.4
07.546,12.17
07.562,7.25
07.578,2.86
07.593,-1.23
07.609,-5.49
07.625,-10.41
07.640,-16.4
07.656,-23.57
07.671,-31.72
07.687,-40.26
07.703,-48.19
07.718,-54.22
07.734,-57.04
07.750,-55.64
07.765,-49.69
07.781,-39.65
07.796,-26.68
07.812,-12.24
07.828,2.44
07.843,16.74
07.859,30.78
07.875,45.02
07.890,59.77
07.906,74.71
07.921,88.84
07.937,100.81
07.953,109.66
07.968,115.34
07.984,118.88
08.000,122.05
08.015,126.44
08.031,132.76
08.046,140.42
08.062,147.84
08.078,153.15
08.093,154.95
08.109,152.78
08.125,146.99
08.140,138.31
08.156,127.43
08.171,114.68
08.187,100.2
08.203,84.34
08.218,67.81
08.234,51.6
08.250,36.61
08.265,23.39
08.281,12.08
08.296,2.87
08.312,-3.57
08.328,-6.03
08.343,-3.36
08.359,4.55
08.375,15.96
08.390,27.26
08.406,34.0
08.421,32.64
08.437,21.96
08.453,3.65
08.468,-18.54
08.484,-40.34
08.500,-58.49
08.515,-71.43
08.531,-79.06
08.546,-81.95
08.562,-80.64
08.578,-75.48
08.593,-66.82
08.609,-55.55
08.625,-43.1
08.640,-31.18
08.656,-21.1
08.671,-13.39
08.687,-7.65
08.703,-3.02
08.718,1.38
08.734,5.93
08.750,10.4
08.765,14.15
08.781,16.48
08.796,16.93
08.812,15.46
08.828,12.39
08.843,8.26
08.859,3.63
08.875,-1.1
08.890,-5.75
08.906,-10.31
08.921,-14.89
08.937,-19.61
08.953,-24.59
08.968,-29.82
08.984,-35.27
09.000,-40.82
09.015,-46.31
09.031,-51.51
09.046,-56.23
09.062,-60.3
09.078,-63.73
09.093,-66.6
09.109,-69.11
09.125,-71.57
09.140,-74.4
09.156,-78.06
09.171,-82.97
09.187,-89.15
09.203,-96.02
09.218,-102.35
09.234,-106.37
09.250,-106.36
09.265,-101.2
09.281,-90.82
09.296,-76.21
09.312,-59.17
09.328,-41.61
09.343,-25.13
09.359,-10.64
09.375,1.55
09.390,11.53
09.406,19.46
09.421,25.48
09.437,29.76
09.453,32.57
09.468,34.42
09.484,35.98
09.500,37.89
09.515,40.56
09.531,43.97
09.546,47.75
09.562,51.33
09.578,54.17
09.593,55.91
09.609,56.44
09.625,55.82
09.640,54.2
09.656,51.69
09.671,48.29
09.687,43.93
09.703,38.57
09.718,32.23
09.734,25.13
09.750,17.69
09.765,10.42
09.781,3.79
09.796,-1.97
09.812,-6.94
09.828,-11.42
09.843,-15.79
09.859,-20.39
09.875,-25.47
09.890,-31.14
09.906,-37.33
09.921,-43.69
09.937,-49.42
09.953,-53.38
09.968,-54.26
09.984,-51.01
10.000,-43.3
10.015,-31.68
10.031,-17.47
10.046,-2.34
10.062,12.19
10.078,25.08
10.093,35.88
10.109,44.53
10.125,51.17
10.140,55.97
10.156,59.1
10.171,60.81
10.187,61.53
10.203,61.75
10.218,61.98
10.234,62.61
10.250,63.82
10.265,65.55
10.281,67.63
10.296,69.86
10.312,72.04
10.328,74.06
10.343,75.83
10.359,77.33
10.375,78.53
10.390,79.43
10.406,80.03
10.421,80.39
10.437,80.6
10.453,80.79
10.468,81.1
10.484,81.57
10.500,82.19
10.515,82.79
10.531,83.08
10.546,82.73
10.562,81.49
10.578,79.23
10.593,75.96
10.609,71.82
10.625,66.83
10.640,60.98
10.656,54.06
10.671,45.91
10.687,36.52
10.703,26.16
10.718,15.37
10.734,4.84
10.750,-4.81
10.765,-13.22
10.781,-20.26
10.796,-26.0
10.812,-30.57
10.828,-34.08
10.843,-36.64
10.859,-38.39
10.875,-39.5
10.890,-40.2
10.906,-40.68
10.921,-41.05
10.937,-41.29
10.953,-41.35
10.968,-41.08
10.984,-40.37
11.000,-39.14
11.015,-37.38
11.031,-35.25
11.046,-33.07
11.062,-31.2
11.078,-29.98
11.093,-29.56
11.109,-29.77
11.125,-30.2
11.140,-30.39
11.156,-30.08
11.171,-29.39
11.187,-28.76
11.203,-28.78
11.218,-29.88
11.234,-32.19
11.250,-35.48
11.265,-39.28
11.281,-43.14
11.296,-46.71
11.312,-49.81
11.328,-52.46
11.343,-54.76
11.359,-56.95
11.375,-59.36
11.390,-62.38
11.406,-66.31
11.421,-71.1
11.437,-76.08
11.453,-79.96
11.468,-81.02
11.484,-77.62
11.500,-68.75
11.515,-54.45
11.531,-35.91
11.546,-15.11
11.562,5.7
11.578,24.61
11.593,40.34
11.609,52.33
11.625,60.61
11.640,65.57
11.656,67.88
11.671,68.38
11.687,68.16
11.703,68.29
11.718,69.6
11.734,72.38
11.750,76.07
11.765,79.38
11.781,80.61
11.796,78.2
11.812,71.31
11.828,60.13
11.843,45.75
11.859,29.81
11.875,13.93
11.890,-0.62
11.906,-13.18
11.921,-23.6
11.937,-32.03
11.953,-38.74
11.968,-44.05
11.984,-48.23
12.000,-51.45
12.015,-53.86
12.031,-55.5
12.046,-56.4
12.062,-56.58
12.078,-56.18
12.093,-55.42
12.109,-54.59
12.125,-54.04
12.140,-54.07
12.156,-54.86
12.171,-56.4
12.187,-58.19
12.203,-59.35
12.218,-58.58
12.234,-54.62
12.250,-46.65
12.265,-34.67
12.281,-19.51
12.296,-2.74
12.312,13.91
12.328,28.9
12.343,41.18
12.359,50.2
12.375,55.78
12.390,58.07
12.406,57.44
12.421,54.63
12.437,50.69
12.453,46.93
12.468,44.58
12.484,44.5
12.500,46.9
12.515,51.28
12.531,56.74
12.546,62.3
12.562,67.46
12.578,72.43
12.593,78.11
12.609,85.58
12.625,95.46
12.640,107.22
12.656,119.02
12.671,128.18
12.687,132.18
12.703,129.71
12.718,121.21
12.734,108.6
12.750,94.33
12.765,80.27
12.781,67.12
12.796,54.53
12.812,41.8
12.828,28.7
12.843,15.73
12.859,3.85
12.875,-6.09
12.890,-13.62
12.906,-18.41
12.921,-20.01
12.937,-17.94
12.953,-12.53
12.968,-5.83
12.984,-1.93
13.000,-5.91
13.015,-21.62
13.031,-49.65
13.046,-86.35
13.062,-125.05
13.078,-158.5
13.093,-181.53
13.109,-192.45
13.125,-192.61
13.140,-184.83
13.156,-171.69
13.171,-154.87
13.187,-135.35
13.203,-114.21
13.218,-92.97
13.234,-73.39
13.250,-56.8
13.265,-43.54
13.281,-32.91
13.296,-23.61
13.312,-14.48
13.328,-5.06
13.343,4.31
13.359,12.71
13.375,19.17
13.390,23.09
13.406,24.58
13.421,24.41
13.437,23.78
13.453,23.9
13.468,25.66
13.484,29.24
13.500,34.22
13.515,39.7
13.531,44.69
13.546,48.46
13.562,50.76
13.578,51.84
13.593,52.2
13.609,52.39
13.625,52.67
13.640,52.96
13.656,52.89
13.671,52.05
13.687,50.21
13.703,47.4
13.718,43.93
13.734,40.15
13.750,36.35
13.765,32.6
13.781,28.75
13.796,24.57
13.812,19.96
13.828,14.98
13.843,9.95
13.859,5.26
13.875,1.25
13.890,-1.97
13.906,-4.58
13.921,-6.95
13.937,-9.49
13.953,-12.5
13.968,-16.03
13.984,-19.9
14.000,-23.75
14.015,-27.18
14.031,-29.82
14.046,-31.45
14.062,-31.97
14.078,-31.43
14.093,-30.01
14.109,-27.93
14.125,-25.46
14.140,-22.84
14.156,-20.22
14.171,-17.64
14.187,-15.1
14.203,-12.6
14.218,-10.21
14.234,-8.11
14.250,-6.57
14.265,-5.73
14.281,-5.56
14.296,-5.78
14.312,-5.89
14.328,-5.37
14.343,-3.9
14.359,-1.54
14.375,1.13
14.390,3.19
14.406,3.62
14.421,1.86
14.437,-1.76
14.453,-5.68
14.468,-7.4
14.484,-4.25
14.500,5.39
14.515,21.28
14.531,40.99
14.546,60.65
14.562,76.3
14.578,85.25
14.593,86.76
14.609,81.86
14.625,72.55
14.640,61.21
14.656,50.02
14.671,40.78
14.687,34.43
14.703,30.54
14.718,26.92
14.734,19.94
14.750,5.82
14.765,-17.66
14.781,-49.84
14.796,-87.13
14.812,-124.34
14.828,-156.59
14.843,-180.88
14.859,-196.43
14.875,-203.9
14.890,-204.18
14.906,-197.86
14.921,-185.3
14.937,-167.35
14.953,-145.8
14.968,-123.18
14.984,-101.99
15.000,-83.8
15.015,-68.86
15.031,-56.36
15.046,-45.05
15.062,-34.11
15.078,-23.49
15.093,-13.85
15.109,-6.1
15.125,-0.99
15.140,1.24
15.156,0.95
15.171,-0.96
15.187,-3.13
15.203,-4.01
15.218,-2.12
15.234,3.63
15.250,13.55
15.265,27.02
15.281,42.65
15.296,58.61
15.312,73.09
15.328,84.65
15.343,92.4
15.359,95.99
15.375,95.41
15.390,90.95
15.406,83.16
15.421,72.86
15.437,61.05
15.453,48.87
15.468,37.28
15.484,26.94
15.500,18.1
15.515,10.7
15.531,4.51
15.546,-0.68
15.562,-5.01
15.578,-8.5
15.593,-11.17
15.609,-12.98
15.625,-13.99
15.640,-14.26
15.656,-13.95
15.671,-13.27
15.687,-12.57
15.703,-12.3
15.718,-12.84
15.734,-14.43
15.750,-16.97
15.765,-20.12
15.781,-23.4
15.796,-26.4
15.812,-28.95
15.828,-31.12
15.843,-33.19
15.859,-35.52
15.875,-38.45
15.890,-42.28
15.906,-47.19
15.921,-53.1
15.937,-59.58
15.953,-65.67
15.968,-70.04
15.984,-71.29
16.000,-68.38
16.015,-61.04
16.031,-49.97
16.046,-36.61
16.062,-22.68
16.078,-9.68
16.093,1.49
16.109,10.6
16.125,17.85
16.140,23.56
16.156,27.94
16.171,30.96
16.187,32.5
16.203,32.58
16.218,31.39
16.234,29.4
16.250,27.17
16.265,25.23
16.281,23.89
16.296,23.26
16.312,23.23
16.328,23.59
16.343,24.1
16.359,24.48
16.375,24.48
16.390,23.87
16.406,22.43
16.421,20.05
16.437,16.79
16.453,12.87
16.468,8.57
16.484,4.2
16.500,-0.07
16.515,-4.22
16.531,-8.29
16.546,-12.4
16.562,-16.62
16.578,-20.94
16.593,-25.27
16.609,-29.54
16.625,-33.69
16.640,-37.75
16.656,-41.88
16.671,-46.33
16.687,-51.35
16.703,-56.97
16.718,-62.85
16.734,-68.1
16.750,-71.5
16.765,-71.76
16.781,-68.07
16.796,-60.38
16.812,-49.45
16.828,-36.62
16.843,-23.33
16.859,-10.75
16.875,0.47
16.890,10.1
16.906,18.13
16.921,24.5
16.937,29.11
16.953,31.8
16.968,32.58
16.984,31.76
17.000,29.89
17.015,27.65
17.031,25.63
17.046,24.15
17.062,23.19
17.078,22.52
17.093,21.81
17.109,20.81
17.125,19.43
17.140,17.71
17.156,15.68
17.171,13.32
17.187,10.55
17.203,7.32
17.218,3.72
17.234,-0.07
17.250,-3.81
17.265,-7.37
17.281,-10.84
17.296,-14.48
17.312,-18.56
17.328,-23.22
17.343,-28.33
17.359,-33.6
17.375,-38.67
17.390,-43.41
17.406,-47.94
17.421,-52.54
17.437,-57.45
17.453,-62.61
17.468,-67.53
17.484,-71.31
17.500,-72.82
17.515,-71.04
17.531,-65.35
17.546,-55.78
17.562,-43.07
17.578,-28.38
17.593,-13.07
17.609,1.63
17.625,14.81
17.640,25.91
17.656,34.64
17.671,40.86
17.687,44.59
17.703,46.03
17.718,45.65
17.734,44.12
17.750,42.23
17.765,40.75
17.781,40.19
17.796,40.74
17.812,42.25
17.828,44.33
17.843,46.54
17.859,48.51
17.875,50.04
17.890,51.12
17.906,51.83
17.921,52.31
17.937,52.68
17.953,52.96
17.968,53.06
17.984,52.73
18.000,51.66
18.015,49.55
18.031,46.31
18.046,42.07
18.062,37.22
18.078,32.28
18.093,27.75
18.109,23.92
18.125,20.84
18.140,18.31
18.156,15.94
18.171,13.26
18.187,9.91
18.203,5.77
18.218,1.16
18.234,-3.03
18.250,-5.5
18.265,-4.8
18.281,0.22
18.296,9.98
18.312,24.05
18.328,41.26
18.343,60.09
18.359,79.19
18.375,97.61
18.390,114.98
18.406,131.26
18.421,146.58
18.437,160.99
18.453,174.39
18.468,186.59
18.484,197.44
18.500,207.07
18.515,215.88
18.531,224.58
18.546,233.97
18.562,244.69
18.578,256.78
18.593,269.31
18.609,280.27
18.625,286.71
18.640,285.46
18.656,273.96
18.671,251.17
18.687,218.02
18.703,177.24
18.718,132.69
18.734,88.31
18.750,47.21
18.765,11.14
18.781,-19.36
18.796,-44.53
18.812,-64.79
18.828,-80.3
18.843,-90.99
18.859,-96.81
18.875,-98.0
18.890,-95.22
18.906,-89.5
18.921,-81.95
18.937,-73.76
18.953,-66.12
18.968,-60.36
18.984,-57.83
19.000,-59.49
19.015,-65.45
19.031,-74.56
19.046,-84.53
19.062,-92.46
19.078,-95.74
19.093,-92.85
19.109,-83.64
19.125,-68.94
19.140,-50.01
19.156,-28.16
19.171,-5.01
19.187,17.0
19.203,34.11
19.218,41.66
19.234,35.35
19.250,13.06
19.265,-23.85
19.281,-70.36
19.296,-119.17
19.312,-162.93
19.328,-196.22
19.343,-216.53
19.359,-223.85
19.375,-219.41
19.390,-204.55
19.406,-180.34
19.421,-147.96
19.437,-109.46
19.453,-68.04
19.468,-27.71
19.484,7.73
19.500,35.69
19.515,55.44
19.531,67.9
19.546,74.76
19.562,77.47
19.578,76.62
19.593,72.03
19.609,63.34
19.625,50.71
19.640,35.28
19.656,18.98
19.671,3.89
19.687,-8.21
19.703,-16.12
19.718,-19.13
19.734,-17.08
19.750,-10.75
19.765,-2.47
19.781,3.7
19.796,2.77
19.812,-9.37
19.828,-33.87
19.843,-67.81
19.859,-104.74
19.875,-137.12
19.890,-158.95
19.906,-167.81
19.921,-164.88
19.937,-153.54
19.953,-137.35
19.968,-118.75
19.984,-98.96
20.000,-78.79
20.015,-59.44
20.031,-42.7
20.046,-30.44
20.062,-23.57
20.078,-21.62
20.093,-22.71
20.109,-24.42
20.125,-24.69
20.140,-22.6
20.156,-18.39
20.171,-13.1
20.187,-7.77
20.203,-2.9
20.218,1.82
20.234,7.15
20.250,13.81
20.265,21.84
20.281,30.44
20.296,38.26
20.312,43.91
20.328,46.6
20.343,46.42
20.359,44.17
20.375,41.0
20.390,37.87
20.406,35.22
20.421,32.99
20.437,30.76
20.453,28.04
20.468,24.57
20.484,20.34
20.500,15.59
20.515,10.66
20.531,5.81
20.546,1.12
20.562,-3.51
20.578,-8.35
20.593,-13.72
20.609,-19.87
20.625,-26.79
20.640,-34.09
20.656,-40.98
20.671,-46.39
20.687,-49.23
20.703,-48.67
20.718,-44.44
20.734,-36.97
20.750,-27.3
20.765,-16.79
20.781,-6.76
20.796,1.88
20.812,8.76
20.828,13.95
20.843,17.85
20.859,20.87
20.875,23.31
20.890,25.36
20.906,27.11
20.921,28.6
20.937,29.91
20.953,31.13
20.968,32.4
20.984,33.82
21.000,35.52
21.015,37.66
21.031,40.35
21.046,43.59
21.062,47.24
21.078,51.0
21.093,54.5
21.109,57.43
21.125,59.64
21.140,61.18
21.156,62.24
21.171,63.08
21.187,63.86
21.203,64.62
21.218,65.25
21.234,65.59
21.250,65.49
21.265,64.94
21.281,64.09
21.296,63.29
21.312,62.98
21.328,63.52
21.343,65.05
21.359,67.33
21.375,69.8
21.390,71.69
21.406,72.2
21.421,70.66
21.437,66.62
21.453,59.94
21.468,50.89
21.484,40.18
21.500,28.88
21.515,18.3
21.531,9.53
21.546,3.06
21.562,-1.49
21.578,-5.31
21.593,-9.94
21.609,-16.64
21.625,-25.82
21.640,-36.79
21.656,-48.1
21.671,-58.19
21.687,-65.95
21.703,-70.87
21.718,-72.82
21.734,-71.52
21.750,-66.26
21.765,-56.32
21.781,-41.81
21.796,-24.52
21.812,-7.99
21.828,3.47
21.843,6.54
21.859,0.39
21.875,-12.82
21.890,-29.0
21.906,-44.07
21.921,-55.58
21.937,-63.07
21.953,-67.08
21.968,-67.72
21.984,-64.04
22.000,-54.87
22.015,-40.46
22.031,-23.69
22.046,-9.61
22.062,-3.49
22.078,-8.16
22.093,-22.68
22.109,-42.73
22.125,-62.77
22.140,-78.16
22.156,-86.44
22.171,-87.16
22.187,-81.19
22.203,-70.23
22.218,-56.87
22.234,-44.84
22.250,-38.54
22.265,-41.73
22.281,-55.89
22.296,-79.32
22.312,-107.54
22.328,-134.91
22.343,-156.53
22.359,-169.44
22.375,-172.74
22.390,-167.04
22.406,-153.65
22.421,-134.27
22.437,-110.97
22.453,-86.17
22.468,-62.4
22.484,-41.69
22.500,-25.09
22.515,-12.46
22.531,-2.85
22.546,4.95
22.562,11.78
22.578,17.86
22.593,22.85
22.609,26.27
22.625,27.86
22.640,27.84
22.656,26.83
22.671,25.64
22.687,24.89
22.703,24.84
22.718,25.35
22.734,26.08
22.750,26.69
22.765,27.01
22.781,27.02
22.796,26.76
22.812,26.22
22.828,25.28
22.843,23.69
22.859,21.21
22.875,17.72
22.890,13.21
22.906,7.96
22.921,2.37
22.937,-2.97
22.953,-7.45
22.968,-10.59
22.984,-12.21
23.000,-12.55
23.015,-12.24
23.031,-12.12
23.046,-12.91
23.062,-14.92
23.078,-17.97
23.093,-21.4
23.109,-24.43
23.125,-26.55
23.140,-27.73
23.156,-28.42
23.171,-29.37
23.187,-31.13
23.203,-33.58
23.218,-35.82
23.234,-36.24
23.250,-33.12
23.265,-25.23
23.281,-12.45
23.296,4.19
23.312,22.78
23.328,41.3
23.343,58.28
23.359,73.17
23.375,86.25
23.390,98.11
23.406,109.1
23.421,119.01
23.437,127.32
23.453,133.53
23.468,137.53
23.484,139.69
23.500,140.75
23.515,141.58
23.531,143.26
23.546,146.85
23.562,153.14
23.578,161.9
23.593,171.2
23.609,177.14
23.625,174.65
23.640,159.23
23.656,128.88
23.671,85.43
23.687,34.35
23.703,-16.85
23.718,-60.99
23.734,-93.13
23.750,-111.61
23.765,-117.53
23.781,-113.69
23.796,-103.4
23.812,-89.7
23.828,-75.14
23.843,-61.83
23.859,-51.54
23.875,-45.53
23.890,-44.24
23.906,-47.0
23.921,-52.17
23.937,-57.56
23.953,-61.24
23.968,-62.28
23.984,-61.09
24.000,-59.21
24.015,-58.59
24.031,-60.77
24.046,-66.31
24.062,-74.66
24.078,-84.32
24.093,-93.4
24.109,-100.11
24.125,-103.14
24.140,-101.92
24.156,-96.62
24.171,-88.07
24.187,-77.45
24.203,-66.0
24.218,-54.65
24.234,-43.91
24.250,-33.95
24.265,-24.8
24.281,-16.62
24.296,-9.73
24.312,-4.47
24.328,-0.93
24.343,1.21
24.359,2.58
24.375,3.91
24.390,5.63
24.406,7.76
24.421,9.96
24.437,11.79
24.453,13.09
24.468,14.14
24.484,15.53
24.500,17.86
24.515,21.44
24.531,26.04
24.546,31.02
24.562,35.61
24.578,39.13
24.593,41.31
24.609,42.29
24.625,42.51
24.640,42.5
24.656,42.64
24.671,43.05
24.687,43.53
24.703,43.72
24.718,43.3
24.734,42.1
24.750,40.18
24.765,37.78
24.781,35.2
24.796,32.59
24.812,29.9
24.828,26.84
24.843,23.02
24.859,18.09
24.875,11.88
24.890,4.55
24.906,-3.36
24.921,-10.93
24.937,-17.06
24.953,-20.64
24.968,-20.92
24.984,-17.69
25.000,-11.35
25.015,-2.86
25.031,6.59
25.046,15.8
25.062,23.83
25.078,30.09
25.093,34.37
25.109,36.7
25.125,37.28
25.140,36.37
25.156,34.3
25.171,31.46
25.187,28.33
25.203,25.48
25.218,23.53
25.234,23.06
25.250,24.37
25.265,27.46
25.281,31.88
25.296,36.89
25.312,41.65
25.328,45.4
25.343,47.66
25.359,48.27
25.375,47.4
25.390,45.39
25.406,42.61
25.421,39.33
25.437,35.68
25.453,31.6
25.468,27.07
25.484,22.16
25.500,17.15
25.515,12.53
25.531,8.89
25.546,6.65
25.562,5.85
25.578,6.06
25.593,6.49
25.609,6.2
25.625,4.43
25.640,0.93
25.656,-3.91
25.671,-9.07
25.687,-13.2
25.703,-14.89
25.718,-13.11
25.734,-7.46
25.750,1.75
25.765,13.65
25.781,27.05
25.796,40.7
25.812,53.55
25.828,64.93
25.843,74.72
25.859,83.33
25.875,91.41
25.890,99.34
25.906,106.59
25.921,111.39
25.937,110.97
25.953,102.52
25.968,84.5
25.984,57.62
26.000,24.99
26.015,-8.79
26.031,-39.16
26.046,-62.98
26.062,-79.15
26.078,-88.31
26.093,-91.83
26.109,-91.0
26.125,-86.67
26.140,-79.4
26.156,-70.01
26.171,-59.77
26.187,-50.29
26.203,-42.99
26.218,-38.46
26.234,-36.3
26.250,-35.46
26.265,-34.86
26.281,-34.06
26.296,-33.4
26.312,-33.51
26.328,-34.67
26.343,-36.3
26.359,-37.15
26.375,-36.01
26.390,-32.7
26.406,-28.42
26.421,-25.42
26.437,-25.98
26.453,-31.13
26.468,-40.2
26.484,-51.11
26.500,-61.38
26.515,-69.16
26.531,-73.66
26.546,-74.89
26.562,-72.89
26.578,-67.45
26.593,-58.21
26.609,-45.35
26.625,-30.19
26.640,-15.23
26.656,-3.36
26.671,3.33
26.687,4.58
26.703,2.15
26.718,-0.93
26.734,-1.56
26.750,2.14
26.765,10.23
26.781,21.18
26.796,32.61
26.812,42.24
26.828,48.61
26.843,51.31
26.859,50.84
26.875,48.24
26.890,44.62
26.906,40.88
26.921,37.49
26.937,34.58
26.953,32.05
26.968,29.78
26.984,27.73
27.000,25.93
27.015,24.26
27.031,22.4
27.046,19.71
27.062,15.43
27.078,8.95
27.093,0.11
27.109,-10.68
27.125,-22.44
27.140,-33.82
27.156,-43.42
27.171,-50.08
27.187,-53.07
27.203,-52.21
27.218,-47.84
27.234,-40.72
27.250,-31.81
27.265,-22.15
27.281,-12.69
27.296,-4.24
27.312,2.62
27.328,7.5
27.343,10.23
27.359,10.9
27.375,9.89
27.390,7.8
27.406,5.31
27.421,3.1
27.437,1.6
27.453,1.03
27.468,1.3
27.484,2.17
27.500,3.3
27.515,4.42
27.531,5.36
27.546,6.03
27.562,6.45
27.578,6.67
27.593,6.69
27.609,6.51
27.625,6.07
27.640,5.31
27.656,4.1
27.671,2.27
27.687,-0.39
27.703,-4.0
27.718,-8.46
27.734,-13.48
27.750,-18.6
27.765,-23.37
27.781,-27.56
27.796,-31.29
27.812,-34.9
27.828,-38.87
27.843,-43.6
27.859,-49.18
27.875,-55.34
27.890,-61.42
27.906,-66.46
27.921,-69.37
27.937,-69.17
27.953,-65.23
27.968,-57.48
27.984,-46.47
28.000,-33.27
28.015,-19.27
28.031,-5.84
28.046,5.9
28.062,15.36
28.078,22.49
28.093,27.7
28.109,31.68
28.125,35.08
28.140,38.27
28.156,41.27
28.171,43.8
28.187,45.56
28.203,46.47
28.218,46.78
28.234,47.07
28.250,47.96
28.265,49.9
28.281,52.91
28.296,56.58
28.312,60.24
28.328,63.3
28.343,65.55
28.359,67.23
28.375,68.85
28.390,70.81
28.406,73.05
28.421,74.95
28.437,75.59
28.453,74.22
28.468,70.71
28.484,65.61
28.500,59.88
28.515,54.5
28.531,50.14
28.546,47.16
28.562,45.75
28.578,45.85
28.593,46.76
28.609,46.75
28.625,42.97
28.640,32.2
28.656,12.29
28.671,-16.57
28.687,-51.17
28.703,-86.1
28.718,-115.49
28.734,-135.03
28.750,-143.12
28.765,-140.86
28.781,-130.94
28.796,-116.36
28.812,-99.52
28.828,-82.02
28.843,-64.99
28.859,-49.37
28.875,-35.99
28.890,-25.43
28.906,-17.71
28.921,-12.34
28.937,-8.48
28.953,-5.26
28.968,-2.08
28.984,1.36
29.000,5.1
29.015,9.06
29.031,13.18
29.046,17.44
29.062,21.84
29.078,26.29
29.093,30.54
29.109,34.1
29.125,36.31
29.140,36.6
29.156,34.78
29.171,31.37
29.187,27.68
29.203,25.62
29.218,27.0
29.234,32.75
29.250,42.33
29.265,53.66
29.281,63.74
29.296,69.75
29.312,70.09
29.328,64.93
29.343,56.03
29.359,45.9
29.375,36.8
29.390,30.03
29.406,25.78
29.421,23.5
29.437,22.38
29.453,21.8
29.468,21.45
29.484,21.19
29.500,20.88
29.515,20.33
29.531,19.36
29.546,17.89
29.562,16.0
29.578,13.93
29.593,12.0
29.609,10.54
29.625,9.74
29.640,9.68
29.656,10.28
29.671,11.4
29.687,12.83
29.703,14.43
29.718,16.18
29.734,18.18
29.750,20.52
29.765,23.11
29.781,25.61
29.796,27.55
29.812,28.62
29.828,28.96
29.843,29.28
29.859,30.46
29.875,32.87
29.890,35.79
29.906,37.33
29.921,34.99
29.937,26.81
29.953,12.39
29.968,-6.73
29.984,-27.56
30.000,-46.81
30.015,-62.14
30.031,-72.8
30.046,-79.46
30.062,-83.33
30.078,-85.33
30.093,-85.65
30.109,-84.06
30.125,-80.51
30.140,-75.71
30.156,-71.1
30.171,-68.2
30.187,-67.64
30.203,-68.69
30.218,-69.33
30.234,-67.12
30.250,-60.21
30.265,-48.02
30.281,-31.32
30.296,-11.9
30.312,7.92
30.328,25.61
30.343,38.61
30.359,44.67
30.375,42.28
30.390,31.22
30.406,12.84
30.421,-10.09
30.437,-34.16
30.453,-56.02
30.468,-73.12
30.484,-83.9
30.500,-87.66
30.515,-84.31
30.531,-74.33
30.546,-58.92
30.562,-39.91
30.578,-19.64
30.593,-0.4
30.609,16.15
30.625,29.48
30.640,40.15
30.656,49.4
30.671,58.42
30.687,67.76
30.703,76.98
30.718,85.07
30.734,90.93
30.750,94.07
30.765,94.81
30.781,94.16
30.796,93.39
30.812,93.67
30.828,95.69
30.843,99.32
30.859,103.18
30.875,104.41
30.890,98.9
30.906,82.37
30.921,52.02
30.937,8.35
30.953,-44.15
30.968,-97.71
30.984,-143.5
31.000,-174.48
31.015,-187.55
31.031,-184.02
31.046,-168.36
31.062,-145.91
31.078,-120.88
31.093,-95.5
31.109,-70.44
31.125,-46.01
31.140,-23.13
31.156,-3.48
31.171,11.22
31.187,20.22
31.203,24.22
31.218,25.09
31.234,24.98
31.250,25.57
31.265,27.78
31.281,32.03
31.296,38.46
31.312,46.88
31.328,56.17
31.343,63.95
31.359,66.83
31.375,61.67
31.390,47.0
31.406,24.09
31.421,-3.28
31.437,-30.27
31.453,-52.74
31.468,-68.51
31.484,-77.52
31.500,-80.86
31.515,-79.66
31.531,-74.4
31.546,-65.18
31.562,-52.4
31.578,-37.55
31.593,-23.26
31.609,-12.59
31.625,-7.81
31.640,-9.19
31.656,-14.52
31.671,-19.74
31.687,-20.51
31.703,-14.06
31.718,-0.42
31.734,17.49
31.750,35.27
31.765,48.74
31.781,55.42
31.796,54.96
31.812,48.65
31.828,38.69
31.843,27.56
31.859,17.93
31.875,12.4
31.890,12.81
31.906,19.1
31.921,28.47
31.937,35.7
31.953,34.83
31.968,21.81
31.984,-3.49
32.000,-37.04
32.015,-72.31
32.031,-103.07
32.046,-125.77
32.062,-140.21
32.078,-148.65
32.093,-154.09
32.109,-158.81
32.125,-163.97
32.140,-170.17
32.156,-178.03
32.171,-188.31
32.187,-201.19
32.203,-215.41
32.218,-227.96
32.234,-235.03
32.250,-233.62
32.265,-223.19
32.281,-206.18
32.296,-187.12
32.312,-170.95
32.328,-161.2
32.343,-159.14
32.359,-163.87
32.375,-173.08
32.390,-183.83
32.406,-193.2
32.421,-198.57
32.437,-197.94
32.453,-190.3
32.468,-175.81
32.484,-155.88
32.500,-132.6
32.515,-108.08
32.531,-83.82
32.546,-60.46
32.562,-37.96
32.578,-15.98
32.593,5.71
32.609,27.03
32.625,47.6
32.640,66.95
32.656,84.63
32.671,100.54
32.687,114.81
32.703,127.76
32.718,139.65
32.734,150.51
32.750,160.19
32.765,168.45
32.781,175.18
32.796,180.51
32.812,184.88
32.828,188.77
32.843,192.65
32.859,196.7
32.875,200.8
32.890,204.62
32.906,207.71
32.921,209.69
32.937,210.44
32.953,210.12
32.968,209.17
32.984,208.1
33.000,207.36
33.015,207.15
33.031,207.36
33.046,207.52
33.062,206.9
33.078,204.65
33.093,199.93
33.109,192.22
33.125,181.53
33.140,168.52
33.156,154.45
33.171,140.95
33.187,129.54
33.203,121.26
33.218,116.32
33.234,114.11
33.250,113.27
33.265,112.08
33.281,108.79
33.296,101.89
33.312,90.31
33.328,73.42
33.343,51.03
33.359,23.41
33.375,-8.76
33.390,-44.36
33.406,-81.77
33.421,-118.83
33.437,-152.67
33.453,-179.94
33.468,-197.42
33.484,-202.86
33.500,-195.92
33.515,-178.53
33.531,-154.41
33.546,-128.03
33.562,-103.21
33.578,-82.24
33.593,-65.73
33.609,-52.99
33.625,-42.98
33.640,-34.88
33.656,-28.33
33.671,-23.34
33.687,-19.97
33.703,-18.15
33.718,-17.55
33.734,-17.75
33.750,-18.22
33.765,-18.56
33.781,-18.57
33.796,-18.34
33.812,-18.26
33.828,-18.79
33.843,-20.38
33.859,-23.33
33.875,-27.73
33.890,-33.3
33.906,-39.39
33.921,-44.86
33.937,-48.26
33.953,-48.11
33.968,-43.5
33.984,-34.42
34.000,-21.83
34.015,-7.36
34.031,7.42
34.046,21.49
34.062,34.67
34.078,47.36
34.093,60.07
34.109,72.97
34.125,85.7
34.140,97.51
34.156,107.57
34.171,115.44
34.187,121.29
34.203,126.01
34.218,130.99
34.234,137.72
34.250,147.1
34.265,158.92
34.281,171.44
34.296,181.52
34.312,185.35
34.328,179.39
34.343,161.43
34.359,131.22
34.375,90.89
34.390,44.61
34.406,-1.84
34.421,-42.13
34.437,-70.68
34.453,-84.08
34.468,-82.38
34.484,-69.41
34.500,-51.89
34.515,-37.33
34.531,-31.9
34.546,-38.71
34.562,-57.8
34.578,-87.11
34.593,-123.93
34.609,-165.66
34.625,-209.59
34.640,-252.15
34.656,-288.58
34.671,-313.63
34.687,-323.02
34.703,-315.01
34.718,-290.98
34.734,-254.79
34.750,-211.39
34.765,-165.28
34.781,-119.75
34.796,-76.79
34.812,-37.5
34.828,-2.61
34.843,27.32
34.859,51.75
34.875,70.27
34.890,82.65
34.906,89.06
34.921,90.15
34.937,87.13
34.953,81.62
34.968,75.2
34.984,68.96
35.000,63.33
35.015,58.22
35.031,53.32
35.046,48.48
35.062,43.88
35.078,39.75
35.093,36.04
35.109,32.37
35.125,28.13
35.140,22.81
35.156,16.35
35.171,9.18
35.187,2.12
35.203,-4.06
35.218,-9.0
35.234,-12.95
35.250,-16.46
35.265,-20.14
35.281,-24.11
35.296,-28.09
35.312,-31.52
35.328,-33.72
35.343,-34.17
35.359,-32.45
35.375,-28.42
35.390,-21.95
35.406,-13.06
35.421,-1.66
35.437,11.88
35.453,26.71
35.468,41.84
35.484,56.36
35.500,69.81
35.515,81.85
35.531,92.76
35.546,102.76
35.562,112.61
35.578,122.53
35.593,132.2
35.609,141.07
35.625,148.49
35.640,154.17
35.656,157.67
35.671,159.72
35.687,161.39
35.703,165.0
35.718,172.26
35.734,183.58
35.750,198.03
35.765,213.25
35.781,226.3
35.796,233.66
35.812,234.69
35.828,231.35
35.843,229.59
35.859,235.71
35.875,253.76
35.890,283.44
35.906,319.31
35.921,352.83
35.937,374.57
35.953,380.84
35.968,361.11
35.984,313.1
36.000,240.71
36.015,152.62
36.031,59.27
36.046,-31.33
36.062,-106.4
36.078,-168.75
36.093,-223.75
36.109,-275.3
36.125,-323.26
36.140,-365.92
36.156,-402.16
36.171,-428.41
36.187,-440.34
36.203,-434.04
36.218,-409.21
36.234,-368.11
36.250,-317.25
36.265,-264.97
36.281,-219.76
36.296,-186.6
36.312,-164.88
36.328,-150.0
36.343,-136.73
36.359,-124.07
36.375,-114.28
36.390,-111.92
36.406,-118.99
36.421,-132.36
36.437,-143.27
36.453,-140.54
36.468,-116.16
36.484,-69.22
36.500,-7.3
36.515,58.12
36.531,115.6
36.546,157.4
36.562,179.95
36.578,182.41
36.593,164.92
36.609,127.89
36.625,73.16
36.640,5.58
36.656,-65.48
36.671,-127.81
36.687,-169.24
36.703,-181.3
36.718,-161.57
36.734,-114.44
36.750,-49.56
36.765,20.9
36.781,85.21
36.796,134.75
36.812,165.1
36.828,175.98
36.843,170.41
36.859,153.32
36.875,130.22
36.890,106.06
36.906,84.43
36.921,67.41
36.937,55.63
36.953,48.53
36.968,44.73
36.984,42.49
37.000,40.12
37.015,36.65
37.031,32.47
37.046,29.18
37.062,29.14
37.078,33.95
37.093,43.23
37.109,53.9
37.125,60.67
37.140,57.56
37.156,39.87
37.171,5.89
37.187,-41.93
37.203,-97.01
37.218,-149.82
37.234,-190.01
37.250,-209.34
37.265,-204.38
37.281,-178.15
37.296,-139.62
37.312,-100.97
37.328,-73.45
37.343,-63.54
37.359,-70.99
37.375,-89.79
37.390,-110.95
37.406,-126.09
37.421,-129.86
37.437,-120.58
37.453,-99.6
37.468,-69.92
37.484,-35.22
37.500,0.64
37.515,34.02
37.531,61.9
37.546,82.23
37.562,94.5
37.578,99.79
37.593,100.26
37.609,98.42
37.625,96.22
37.640,94.74
37.656,94.12
37.671,93.83
37.687,93.04
37.703,90.97
37.718,87.17
37.734,81.68
37.750,75.05
37.765,68.25
37.781,62.32
37.796,57.97
37.812,55.22
37.828,53.35
37.843,51.26
37.859,47.96
37.875,42.91
37.890,36.08
37.906,27.49
37.921,16.72
37.937,2.88
37.953,-14.93
37.968,-36.75
37.984,-61.14
38.000,-85.18
38.015,-105.24
38.031,-118.13
38.046,-122.17
38.062,-117.43
38.078,-105.4
38.093,-88.15
38.109,-67.61
38.125,-45.34
38.140,-22.76
38.156,-1.49
38.171,16.63
38.187,29.91
38.203,37.36
38.218,39.09
38.234,36.18
38.250,30.19
38.265,22.61
38.281,14.48
38.296,6.33
38.312,-1.27
38.328,-7.23
38.343,-9.65
38.359,-6.59
38.375,2.65
38.390,16.16
38.406,28.89
38.421,34.31
38.437,27.11
38.453,6.08
38.468,-24.59
38.484,-56.48
38.500,-80.19
38.515,-89.12
38.531,-81.93
38.546,-62.54
38.562,-37.62
38.578,-13.48
38.593,6.38
38.609,21.72
38.625,34.25
38.640,45.72
38.656,56.53
38.671,65.69
38.687,71.61
38.703,73.34
38.718,71.35
38.734,67.39
38.750,63.69
38.765,61.83
38.781,61.96
38.796,62.87
38.812,62.83
38.828,60.56
38.843,55.81
38.859,49.25
38.875,41.85
38.890,34.51
38.906,27.41
38.921,20.38
38.937,13.25
38.953,6.22
38.968,-0.11
38.984,-4.91
39.000,-7.53
39.015,-7.9
39.031,-6.52
39.046,-4.44
39.062,-2.98
39.078,-3.33
39.093,-6.32
39.109,-12.12
39.125,-20.17
39.140,-29.24
39.156,-37.75
39.171,-44.35
39.187,-48.38
39.203,-50.2
39.218,-50.96
39.234,-52.16
39.250,-54.84
39.265,-59.11
39.281,-64.06
39.296,-68.25
39.312,-70.26
39.328,-69.27
39.343,-65.33
39.359,-59.19
39.375,-51.91
39.390,-44.47
39.406,-37.58
39.421,-31.57
39.437,-26.46
39.453,-21.99
39.468,-17.76
39.484,-13.31
39.500,-8.49
39.515,-3.49
39.531,1.14
39.546,4.75
39.562,7.05
39.578,8.41
39.593,9.9
39.609,12.88
39.625,18.42
39.640,26.49
39.656,36.01
39.671,45.13
39.687,51.93
39.703,54.97
39.718,53.71
39.734,48.52
39.750,40.38
39.765,30.45
39.781,19.0
39.796,5.7
39.812,-10.01
39.828,-28.04
39.843,-47.15
39.859,-64.87
39.875,-78.39
39.890,-85.65
39.906,-86.25
39.921,-82.3
39.937,-77.21
39.953,-74.43
39.968,-76.23
39.984,-83.35
40.000,-95.05
40.015,-109.65
40.031,-124.68
40.046,-136.99
40.062,-144.52
40.078,-146.52
40.093,-144.57
40.109,-142.3
40.125,-144.36
40.140,-154.28
40.156,-172.87
40.171,-197.84
40.187,-217.81
40.203,-221.64
40.218,-201.41
40.234,-156.3
40.250,-92.8
40.265,-21.3
40.281,49.1
40.296,112.8
40.312,167.07
40.328,210.53
40.343,241.26
40.359,258.07
40.375,261.3
40.390,254.21
40.406,240.4
40.421,223.19
40.437,204.43
40.453,184.0
40.468,160.18
40.484,129.47
40.500,88.35
40.515,34.42
40.531,-29.67
40.546,-96.99
40.562,-156.99
40.578,-198.41
40.593,-213.43
40.609,-200.91
40.625,-167.66
40.640,-125.66
40.656,-87.47
40.671,-61.26
40.687,-49.17
40.703,-47.84
40.718,-51.35
40.734,-54.88
40.750,-56.38
40.765,-56.35
40.781,-55.94
40.796,-56.21
40.812,-55.34
40.828,-51.09
40.843,-41.93
40.859,-27.5
40.875,-9.04
40.890,11.09
40.906,30.45
40.921,47.46
40.937,61.65
40.953,73.82
40.968,84.9
40.984,95.69
41.000,106.86
41.015,118.64
41.031,131.2
41.046,144.99
41.062,160.53
41.078,177.73
41.093,195.42
41.109,211.11
41.125,219.06
41.140,215.56
41.156,199.57
41.171,173.41
41.187,141.79
41.203,109.99
41.218,81.77
41.234,58.54
41.250,39.35
41.265,22.38
41.281,6.7
41.296,-7.62
41.312,-19.67
41.328,-28.52
41.343,-33.83
41.359,-35.97
41.375,-35.72
41.390,-33.95
41.406,-31.45
41.421,-28.49
41.437,-25.47
41.453,-23.05
41.468,-22.14
41.484,-23.7
41.500,-28.34
41.515,-36.01
41.531,-45.79
41.546,-56.09
41.562,-64.81
41.578,-70.26
41.593,-71.55
41.609,-68.87
41.625,-63.2
41.640,-55.88
41.656,-48.0
41.671,-40.12
41.687,-32.29
41.703,-24.25
41.718,-16.08
41.734,-8.28
41.750,-1.82
41.765,2.2
41.781,2.97
41.796,0.38
41.812,-4.76
41.828,-10.79
41.843,-15.55
41.859,-17.01
41.875,-13.96
41.890,-6.51
41.906,3.9
41.921,14.93
41.937,24.17
41.953,30.02
41.968,32.21
41.984,31.63
42.000,29.68
42.015,27.52
42.031,25.53
42.046,23.46
42.062,20.81
42.078,17.4
42.093,13.58
42.109,10.04
42.125,7.43
42.140,5.95
42.156,5.39
42.171,5.2
42.187,4.79
42.203,3.65
42.218,1.38
42.234,-2.18
42.250,-6.85
42.265,-11.9
42.281,-16.1
42.296,-18.04
42.312,-16.67
42.328,-11.8
42.343,-4.26
42.359,4.49
42.375,12.98
42.390,20.34
42.406,26.65
42.421,32.82
42.437,40.11
42.453,49.59
42.468,61.62
42.484,75.64
42.500,90.44
42.515,104.53
42.531,116.68
42.546,126.38
42.562,133.95
42.578,140.47
42.593,147.36
42.609,155.8
42.625,165.85
42.640,175.9
42.656,182.63
42.671,181.89
42.687,170.41
42.703,147.59
42.718,116.26
42.734,81.95
42.750,50.62
42.765,25.81
42.781,7.06
42.796,-9.6
42.812,-29.38
42.828,-55.87
42.843,-89.21
42.859,-126.29
42.875,-161.87
42.890,-190.15
42.906,-205.75
42.921,-204.32
42.937,-183.84
42.953,-146.45
42.968,-99.87
42.984,-56.51
43.000,-29.63
43.015,-27.33
43.031,-48.03
43.046,-80.15
43.062,-107.03
43.078,-114.79
43.093,-98.69
43.109,-64.49
43.125,-24.26
43.140,10.46
43.156,34.21
43.171,48.39
43.187,58.13
43.203,67.5
43.218,76.53
43.234,81.61
43.250,78.57
43.265,65.84
43.281,45.71
43.296,23.17
43.312,3.14
43.328,-12.06
43.343,-23.3
43.359,-33.74
43.375,-46.52
43.390,-62.79
43.406,-81.05
43.421,-97.75
43.437,-109.04
43.453,-112.62
43.468,-108.73
43.484,-100.02
43.500,-90.48
43.515,-83.84
43.531,-82.3
43.546,-86.04
43.562,-93.49
43.578,-102.24
43.593,-110.03
43.609,-115.49
43.625,-118.42
43.640,-119.52
43.656,-119.75
43.671,-119.67
43.687,-119.0
43.703,-116.63
43.718,-111.23
43.734,-101.89
43.750,-88.65
43.765,-72.62
43.781,-55.47
43.796,-38.78
43.812,-23.43
43.828,-9.61
43.843,2.94
43.859,14.46
43.875,24.79
43.890,33.43
43.906,39.9
43.921,44.14
43.937,46.71
43.953,48.68
43.968,51.19
43.984,54.98
44.000,60.02
44.015,65.55
44.031,70.37
44.046,73.37
44.062,73.97
44.078,72.39
44.093,69.58
44.109,66.77
44.125,65.11
44.140,65.2
44.156,66.97
44.171,69.77
44.187,72.59
44.203,74.31
44.218,73.95
44.234,70.86
44.250,64.91
44.265,56.54
44.281,46.55
44.296,35.92
44.312,25.4
44.328,15.29
44.343,5.48
44.359,-4.26
44.375,-13.92
44.390,-23.04
44.406,-30.76
44.421,-36.17
44.437,-38.63
44.453,-38.04
44.468,-34.76
44.484,-29.49
44.500,-22.96
44.515,-15.9
44.531,-9.02
44.546,-3.06
44.562,1.29
44.578,3.52
44.593,3.54
44.609,1.72
44.625,-1.21
44.640,-4.4
44.656,-7.13
44.671,-8.96
44.687,-9.78
44.703,-9.62
44.718,-8.6
44.734,-6.89
44.750,-4.68
44.765,-2.2
44.781,0.26
44.796,2.37
44.812,3.91
44.828,4.78
44.843,5.0
44.859,4.67
44.875,3.93
44.890,2.88
44.906,1.58
44.921,0.04
44.937,-1.78
44.953,-3.95
44.968,-6.57
44.984,-9.72
45.000,-13.47
45.015,-17.9
45.031,-23.01
45.046,-28.57
45.062,-34.11
45.078,-38.86
45.093,-41.89
45.109,-42.42
45.125,-39.98
45.140,-34.64
45.156,-26.97
45.171,-17.86
45.187,-8.22
45.203,1.2
45.218,9.93
45.234,17.65
45.250,24.16
45.265,29.19
45.281,32.54
45.296,34.02
45.312,33.69
45.328,31.78
45.343,28.72
45.359,25.03
45.375,21.16
45.390,17.45
45.406,14.07
45.421,11.06
45.437,8.36
45.453,5.9
45.468,3.49
45.484,0.92
45.500,-2.01
45.515,-5.43
45.531,-9.35
45.546,-13.69
45.562,-18.29
45.578,-22.96
45.593,-27.55
45.609,-31.96
45.625,-36.11
45.640,-40.06
45.656,-43.93
45.671,-48.01
45.687,-52.59
45.703,-57.79
45.718,-63.39
45.734,-68.63
45.750,-72.42
45.765,-73.61
45.781,-71.37
45.796,-65.49
45.812,-56.44
45.828,-45.15
45.843,-32.74
45.859,-20.21
45.875,-8.28
45.890,2.66
45.906,12.44
45.921,20.98
45.937,28.19
45.953,33.96
45.968,38.22
45.984,41.02
46.000,42.57
46.015,43.19
46.031,43.24
46.046,42.95
46.062,42.39
46.078,41.47
46.093,40.1
46.109,38.31
46.125,36.29
46.140,34.25
46.156,32.34
46.171,30.49
46.187,28.44
46.203,25.88
46.218,22.62
46.234,18.65
46.250,14.22
46.265,9.62
46.281,5.08
46.296,0.62
46.312,-3.94
46.328,-8.9
46.343,-14.48
46.359,-20.69
46.375,-27.21
46.390,-33.44
46.406,-38.62
46.421,-41.94
46.437,-42.77
46.453,-40.75
46.468,-35.88
46.484,-28.49
46.500,-19.19
46.515,-8.73
46.531,2.09
46.546,12.52
46.562,21.99
46.578,30.08
46.593,36.59
46.609,41.5
46.625,44.94
46.640,47.12
46.656,48.25
46.671,48.59
46.687,48.34
46.703,47.67
46.718,46.65
46.734,45.22
46.750,43.28
46.765,40.73
46.781,37.57
46.796,33.93
46.812,30.12
46.828,26.43
46.843,23.07
46.859,20.12
46.875,17.48
46.890,15.06
46.906,12.78
46.921,10.6
46.937,8.5
46.953,6.35
46.968,3.94
46.984,1.01
47.000,-2.7
47.015,-7.37
47.031,-13.07
47.046,-19.62
47.062,-26.56
47.078,-33.14
47.093,-38.36
47.109,-41.21
47.125,-40.94
47.140,-37.3
47.156,-30.71
47.171,-22.11
47.187,-12.68
47.203,-3.47
47.218,4.82
47.234,11.95
47.250,17.99
47.265,23.12
47.281,27.39
47.296,30.68
47.312,32.79
47.328,33.63
47.343,33.32
47.359,32.27
47.375,30.96
47.390,29.83
47.406,29.03
47.421,28.45
47.437,27.82
47.453,26.94
47.468,25.72
47.484,24.29
47.500,22.8
47.515,21.35
47.531,19.92
47.546,18.31
47.562,16.31
47.578,13.82
47.593,10.92
47.609,7.88
47.625,5.07
47.640,2.81
47.656,1.22
47.671,0.09
47.687,-1.03
47.703,-2.72
47.718,-5.46
47.734,-9.48
47.750,-14.71
47.765,-20.81
47.781,-27.26
47.796,-33.35
47.812,-38.34
47.828,-41.42
47.843,-41.92
47.859,-39.45
47.875,-34.0
47.890,-26.06
47.906,-16.44
47.921,-6.04
47.937,4.36
47.953,14.3
47.968,23.56
47.984,32.03
48.000,39.53
48.015,45.8
48.031,50.51
48.046,53.41
48.062,54.49
48.078,54.04
48.093,52.5
48.109,50.46
48.125,48.37
48.140,46.57
48.156,45.15
48.171,44.02
48.187,42.93
48.203,41.58
48.218,39.69
48.234,37.12
48.250,33.89
48.265,30.18
48.281,26.22
48.296,22.2
48.312,18.16
48.328,14.05
48.343,9.81
48.359,5.41
48.375,0.97
48.390,-3.35
48.406,-7.34
48.421,-10.86
48.437,-13.9
48.453,-16.43
48.468,-18.44
48.484,-19.89
48.500,-20.79
48.515,-21.29
48.531,-21.71
48.546,-22.51
48.562,-23.98
48.578,-26.02
48.593,-27.93
48.609,-28.45
48.625,-26.22
48.640,-20.23
48.656,-10.24
48.671,3.09
48.687,18.46
48.703,34.45
48.718,50.03
48.734,64.78
48.750,78.69
48.765,91.76
48.781,103.55
48.796,113.11
48.812,119.24
48.828,121.0
48.843,117.97
48.859,110.36
48.875,98.79
48.890,83.93
48.906,66.51
48.921,47.37
48.937,27.72
48.953,9.11
48.968,-6.82
48.984,-18.92
49.000,-26.95
49.015,-31.64
49.031,-34.34
49.046,-36.47
49.062,-38.94
49.078,-42.07
49.093,-45.72
49.109,-49.59
49.125,-53.51
49.140,-57.52
49.156,-61.76
49.171,-66.3
49.187,-71.08
49.203,-75.8
49.218,-80.06
49.234,-83.44
49.250,-85.69
49.265,-86.83
49.281,-87.16
49.296,-87.25
49.312,-87.75
49.328,-89.22
49.343,-91.93
49.359,-95.69
49.375,-99.81
49.390,-103.23
49.406,-104.72
49.421,-103.24
49.437,-98.23
49.453,-89.8
49.468,-78.67
49.484,-65.95
49.500,-52.83
49.515,-40.28
49.531,-28.89
49.546,-18.94
49.562,-10.44
49.578,-3.27
49.593,2.7
49.609,7.64
49.625,11.71
49.640,15.11
49.656,18.01
49.671,20.55
49.687,22.8
49.703,24.79
49.718,26.55
49.734,28.14
49.750,29.63
49.765,31.11
49.781,32.58
49.796,33.95
49.812,35.02
49.828,35.54
49.843,35.32
49.859,34.37
49.875,32.85
49.890,31.05
49.906,29.29
49.921,27.83
49.937,26.76
49.953,26.11
49.968,25.79
49.984,25.71
50.000,25.78
50.015,25.93
50.031,26.1
50.046,26.14
50.062,25.87
50.078,25.03
50.093,23.38
50.109,20.76
50.125,17.29
50.140,13.46
50.156,10.11
50.171,8.34
50.187,9.11
50.203,13.03
50.218,20.05
50.234,29.51
50.250,40.37
50.265,51.58
50.281,62.33
50.296,72.13
50.312,80.66
50.328,87.55
50.343,92.33
50.359,94.46
50.375,93.56
50.390,89.6
50.406,82.75
50.421,73.26
50.437,61.22
50.453,46.69
50.468,29.94
50.484,11.8
50.500,-6.2
50.515,-22.15
50.531,-34.39
50.546,-42.05
50.562,-45.35
50.578,-45.42
50.593,-43.67
50.609,-41.3
50.625,-39.02
50.640,-37.09
50.656,-35.6
50.671,-34.65
50.687,-34.38
50.703,-34.8
50.718,-35.7
50.734,-36.56
50.750,-36.78
50.765,-35.93
50.781,-33.93
50.796,-31.07
50.812,-27.86
50.828,-24.73
50.843,-21.85
50.859,-19.12
50.875,-16.32
50.890,-13.29
50.906,-10.05
50.921,-6.71
50.937,-3.36
50.953,0.24
50.968,4.66
50.984,10.71
51.000,19.14
51.015,30.35
51.031,44.18
51.046,59.92
51.062,76.47
51.078,92.42
51.093,106.31
51.109,116.68
51.125,122.32
51.140,122.52
51.156,117.28
51.171,107.42
51.187,94.46
51.203,80.35
51.218,67.06
51.234,56.24
51.250,49.0
51.265,45.8
51.281,46.41
51.296,49.94
51.312,54.99
51.328,59.79
51.343,62.63
51.359,62.24
51.375,58.09
51.390,50.45
51.406,40.26
51.421,28.71
51.437,16.91
51.453,5.59
51.468,-5.06
51.484,-15.34
51.500,-25.97
51.515,-37.82
51.531,-51.56
51.546,-67.32
51.562,-84.37
51.578,-101.31
51.593,-116.32
51.609,-127.92
51.625,-135.34
51.640,-138.81
51.656,-139.27
51.671,-137.84
51.687,-135.25
51.703,-131.62
51.718,-126.57
51.734,-119.6
51.750,-110.61
51.765,-100.11
51.781,-89.06
51.796,-78.66
51.812,-69.8
51.828,-62.86
51.843,-57.63
51.859,-53.38
51.875,-49.24
51.890,-44.46
51.906,-38.79
51.921,-32.54
51.937,-26.61
51.953,-22.18
51.968,-20.26
51.984,-21.3
52.000,-24.9
52.015,-30.02
52.031,-35.39
52.046,-40.05
52.062,-43.57
52.078,-46.07
52.093,-47.78
52.109,-48.72
52.125,-48.62
52.140,-47.12
52.156,-44.25
52.171,-40.59
52.187,-37.18
52.203,-34.99
52.218,-34.46
52.234,-35.27
52.250,-36.56
52.265,-37.4
52.281,-37.23
52.296,-36.26
52.312,-35.24
52.328,-35.13
52.343,-36.69
52.359,-40.17
52.375,-45.16
52.390,-50.77
52.406,-55.92
52.421,-59.5
52.437,-60.67
52.453,-58.97
52.468,-54.45
52.484,-47.63
52.500,-39.42
52.515,-30.85
52.531,-22.8
52.546,-15.78
52.562,-9.81
52.578,-4.56
52.593,0.37
52.609,5.22
52.625,9.95
52.640,14.36
52.656,18.29
52.671,21.87
52.687,25.44
52.703,29.44
52.718,34.18
52.734,39.62
52.750,45.4
52.765,50.95
52.781,55.78
52.796,59.6
52.812,62.47
52.828,64.76
52.843,66.96
52.859,69.56
52.875,72.77
52.890,76.44
52.906,80.0
52.921,82.59
52.937,83.31
52.953,81.52
52.968,77.03
52.984,70.16
53.000,61.73
53.015,52.71
53.031,44.08
53.046,36.49
53.062,30.17
53.078,24.81
53.093,19.65
53.109,13.81
53.125,6.68
53.140,-1.78
53.156,-10.99
53.171,-19.89
53.187,-27.39
53.203,-32.69
53.218,-35.64
53.234,-36.6
53.250,-36.27
53.265,-35.36
53.281,-34.38
53.296,-33.56
53.312,-32.94
53.328,-32.42
53.343,-31.89
53.359,-31.17
53.375,-30.11
53.390,-28.52
53.406,-26.21
53.421,-22.99
53.437,-18.63
53.453,-12.98
53.468,-5.84
53.484,2.83
53.500,12.92
53.515,23.89
53.531,34.77
53.546,44.11
53.562,50.38
53.578,52.39
53.593,49.69
53.609,42.65
53.625,32.44
53.640,20.69
53.656,9.08
53.671,-0.99
53.687,-8.67
53.703,-14.0
53.718,-18.03
53.734,-22.59
53.750,-29.8
53.765,-41.11
53.781,-56.62
53.796,-74.68
53.812,-92.34
53.828,-106.3
53.843,-114.02
53.859,-114.42
53.875,-107.95
53.890,-96.15
53.906,-80.95
53.921,-64.09
53.937,-47.01
53.953,-30.8
53.968,-16.35
53.984,-4.36
54.000,4.75
54.015,10.9
54.031,14.51
54.046,16.28
54.062,17.07
54.078,17.57
54.093,18.13
54.109,18.76
54.125,19.17
54.140,19.09
54.156,18.43
54.171,17.35
54.187,16.23
54.203,15.53
54.218,15.56
54.234,16.38
54.250,17.75
54.265,19.13
54.281,19.88
54.296,19.45
54.312,17.5
54.328,14.03
54.343,9.3
54.359,3.65
54.375,-2.71
54.390,-9.78
54.406,-17.73
54.421,-26.67
54.437,-36.41
54.453,-46.28
54.468,-55.18
54.484,-61.82
54.500,-65.15
54.515,-64.61
54.531,-60.35
54.546,-53.13
54.562,-44.03
54.578,-34.07
54.593,-23.98
54.609,-14.1
54.625,-4.52
54.640,4.72
54.656,13.45
54.671,21.35
54.687,28.1
54.703,33.58
54.718,37.96
54.734,41.65
54.750,45.12
54.765,48.75
54.781,52.71
54.796,57.03
54.812,61.69
54.828,66.67
54.843,71.98
54.859,77.54
54.875,83.14
54.890,88.45
54.906,93.07
54.921,96.67
54.937,99.07
54.953,100.35
54.968,100.73
54.984,100.46
55.000,99.62
55.015,97.93
55.031,94.77
55.046,89.34
55.062,80.97
55.078,69.47
55.093,55.31
55.109,39.58
55.125,23.74
55.140,9.27
55.156,-2.46
55.171,-10.35
55.187,-13.58
55.203,-11.63
55.218,-4.5
55.234,7.17
55.250,22.04
55.265,38.25
55.281,53.91
55.296,67.41
55.312,77.76
55.328,84.53
55.343,87.69
55.359,87.46
55.375,84.26
55.390,78.67
55.406,71.53
55.421,63.76
55.437,56.18
55.453,49.29
55.468,43.12
55.484,37.28
55.500,31.1
55.515,23.92
55.531,15.31
55.546,5.18
55.562,-6.13
55.578,-17.95
55.593,-29.35
55.609,-39.49
55.625,-47.71
55.640,-53.69
55.656,-57.37
55.671,-58.8
55.687,-58.12
55.703,-55.51
55.718,-51.45
55.734,-46.77
55.750,-42.6
55.765,-40.06
55.781,-39.79
55.796,-41.72
55.812,-45.08
55.828,-48.76
55.843,-51.81
55.859,-53.74
55.875,-54.53
55.890,-54.43
55.906,-53.63
55.921,-52.15
55.937,-49.84
55.953,-46.53
55.968,-42.26
55.984,-37.24
56.000,-31.84
56.015,-26.41
56.031,-21.24
56.046,-16.42
56.062,-11.83
56.078,-7.23
56.093,-2.31
56.109,3.07
56.125,8.82
56.140,14.59
56.156,19.89
56.171,24.31
56.187,27.69
56.203,30.27
56.218,32.5
56.234,34.98
56.250,38.08
56.265,41.82
56.281,45.62
56.296,48.4
56.312,48.74
56.328,45.32
56.343,37.47
56.359,25.51
56.375,10.76
56.390,-5.0
56.406,-20.2
56.421,-33.96
56.437,-46.14
56.453,-56.94
56.468,-66.54
56.484,-75.04
56.500,-82.66
56.515,-89.93
56.531,-97.58
56.546,-105.92
56.562,-114.22
56.578,-120.62
56.593,-122.67
56.609,-118.53
56.625,-108.0
56.640,-92.75
56.656,-75.62
56.671,-59.48
56.687,-46.13
56.703,-36.04
56.718,-28.67
56.734,-23.2
56.750,-19.07
56.765,-16.09
56.781,-14.31
56.796,-13.66
56.812,-13.76
56.828,-13.99
56.843,-13.71
56.859,-12.45
56.875,-10.17
56.890,-7.16
56.906,-3.86
56.921,-0.62
56.937,2.6
56.953,6.2
56.968,10.71
56.984,16.37
57.000,22.84
57.015,29.15
57.031,34.06
57.046,36.52
57.062,36.12
57.078,33.22
57.093,28.72
57.109,23.65
57.125,18.78
57.140,14.39
57.156,10.28
57.171,5.91
57.187,0.72
57.203,-5.6
57.218,-12.89
57.234,-20.46
57.250,-27.17
57.265,-31.82
57.281,-33.51
57.296,-31.93
57.312,-27.47
57.328,-20.92
57.343,-13.27
57.359,-5.37
57.375,2.05
57.390,8.44
57.406,13.23
57.421,16.0
57.437,16.56
57.453,15.18
57.468,12.52
57.484,9.47
57.500,6.85
57.515,5.04
57.531,3.97
57.546,3.26
57.562,2.52
57.578,1.59
57.593,0.59
57.609,-0.21
57.625,-0.61
57.640,-0.58
57.656,-0.33
57.671,-0.17
57.687,-0.43
57.703,-1.33
57.718,-2.94
57.734,-5.25
57.750,-8.07
57.765,-11.18
57.781,-14.3
57.796,-17.17
57.812,-19.72
57.828,-22.11
57.843,-24.68
57.859,-27.89
57.875,-32.08
57.890,-37.22
57.906,-42.85
57.921,-48.0
57.937,-51.43
57.953,-51.92
57.968,-48.65
57.984,-41.51
58.000,-31.18
58.015,-18.92
58.031,-6.18
58.046,5.82
58.062,16.34
58.078,25.2
58.093,32.57
58.109,38.68
58.125,43.7
58.140,47.72
58.156,50.78
58.171,53.03
58.187,54.69
58.203,55.94
58.218,56.89
58.234,57.48
58.250,57.6
58.265,57.25
58.281,56.52
58.296,55.68
58.312,55.0
58.328,54.51
58.343,53.9
58.359,52.48
58.375,49.47
58.390,44.25
58.406,36.73
58.421,27.56
58.437,17.93
58.453,9.18
58.468,2.33
58.484,-2.28
58.500,-5.13
58.515,-7.23
58.531,-9.73
58.546,-13.51
58.562,-19.01
58.578,-26.0
58.593,-33.61
58.609,-40.3
58.625,-43.97
58.640,-42.47
58.656,-34.46
58.671,-20.25
58.687,-2.21
58.703,15.63
58.718,28.8
58.734,33.97
58.750,30.04
58.765,18.29
58.781,1.59
58.796,-16.87
58.812,-34.61
58.828,-50.23
58.843,-63.09
58.859,-72.76
58.875,-78.75
58.890,-80.56
58.906,-78.11
58.921,-72.01
58.937,-63.55
58.953,-54.28
58.968,-45.54
58.984,-38.06
59.000,-31.97
59.015,-27.0
59.031,-22.82
59.046,-19.25
59.062,-16.36
59.078,-14.43
59.093,-13.74
59.109,-14.46
59.125,-16.54
59.140,-19.71
59.156,-23.61
59.171,-27.87
59.187,-32.22
59.203,-36.5
59.218,-40.72
59.234,-44.95
59.250,-49.41
59.265,-54.36
59.281,-60.04
59.296,-66.58
59.312,-73.83
59.328,-81.26
59.343,-87.96
59.359,-92.8
59.375,-94.71
59.390,-92.96
59.406,-87.42
59.421,-78.56
59.437,-67.28
59.453,-54.69
59.468,-41.83
59.484,-29.52
59.500,-18.32
59.515,-8.61
59.531,-0.65
59.546,5.37
59.562,9.32
59.578,11.3
59.593,11.62
59.609,10.76
59.625,9.27
59.640,7.65
59.656,6.25
59.671,5.31
59.687,5.02
59.703,5.6
59.718,7.31
59.734,10.31
59.750,14.55
59.765,19.66
59.781,25.04
59.796,29.93
59.812,33.78
59.828,36.25
59.843,37.34
59.859,37.18
59.875,35.89
59.890,33.38
59.906,29.43
59.921,23.82
59.937,16.65
59.953,8.45
59.968,0.02
59.984,-7.8
