timestamp,value
00.000,121.28
00.015,123.27
00.031,123.78
00.046,123.45
00.062,122.96
00.078,122.91
00.093,123.73
00.109,125.56
00.125,128.27
00.140,131.56
00.156,135.06
00.171,138.44
00.187,141.58
00.203,144.51
00.218,147.48
00.234,150.76
00.250,154.55
00.265,158.88
00.281,163.65
00.296,168.71
00.312,173.91
00.328,179.15
00.343,184.24
00.359,188.92
00.375,192.74
00.390,195.02
00.406,195.11
00.421,192.46
00.437,186.84
00.453,178.27
00.468,167.03
00.484,153.7
00.500,139.09
00.515,124.13
00.531,109.6
00.546,96.0
00.562,83.2
00.578,70.68
00.593,57.78
00.609,44.19
00.625,30.25
00.640,16.9
00.656,5.36
00.671,-3.42
00.687,-9.03
00.703,-11.78
00.718,-12.54
00.734,-12.45
00.750,-12.63
00.765,-14.08
00.781,-17.5
00.796,-23.3
00.812,-31.5
00.828,-41.83
00.843,-53.83
00.859,-67.08
00.875,-81.33
00.890,-96.6
00.906,-113.0
00.921,-130.57
00.937,-149.07
00.953,-168.13
00.968,-187.5
00.984,-207.1
01.000,-226.94
01.015,-246.64
01.031,-265.07
01.046,-280.12
01.062,-289.17
01.078,-289.95
01.093,-281.36
01.109,-263.88
01.125,-239.33
01.140,-210.19
01.156,-178.84
01.171,-147.27
01.187,-117.12
01.203,-89.89
01.218,-66.94
01.234,-49.31
01.250,-37.29
01.265,-30.26
01.281,-26.89
01.296,-25.44
01.312,-24.24
01.328,-22.09
01.343,-18.26
01.359,-12.59
01.375,-5.36
01.390,2.82
01.406,11.15
01.421,18.72
01.437,24.83
01.453,29.06
01.468,31.32
01.484,31.88
01.500,31.17
01.515,29.73
01.531,28.05
01.546,26.52
01.562,25.2
01.578,23.92
01.593,22.22
01.609,19.45
01.625,15.06
01.640,8.71
01.656,0.67
01.671,-7.92
01.687,-15.26
01.703,-19.17
01.718,-17.69
01.734,-9.75
01.750,4.49
01.765,23.63
01.781,45.3
01.796,66.93
01.812,86.41
01.828,102.44
01.843,114.59
01.859,123.1
01.875,128.49
01.890,131.29
01.906,131.99
01.921,131.0
01.937,128.8
01.953,125.98
01.968,123.12
01.984,120.75
02.000,119.16
02.015,118.34
02.031,117.85
02.046,117.13
02.062,115.62
02.078,112.94
02.093,109.11
02.109,104.42
02.125,99.41
02.140,94.65
02.156,90.51
02.171,87.11
02.187,84.29
02.203,81.76
02.218,79.14
02.234,75.95
02.250,71.65
02.265,65.69
02.281,57.65
02.296,47.58
02.312,36.24
02.328,25.13
02.343,16.18
02.359,11.11
02.375,10.88
02.390,15.23
02.406,22.95
02.421,32.34
02.437,41.68
02.453,49.75
02.468,55.75
02.484,59.12
02.500,59.34
02.515,55.96
02.531,48.74
02.546,37.98
02.562,24.63
02.578,10.21
02.593,-3.38
02.609,-14.33
02.625,-21.24
02.640,-23.49
02.656,-21.22
02.671,-15.44
02.687,-7.68
02.703,0.36
02.718,7.1
02.734,11.43
02.750,12.8
02.765,11.21
02.781,7.16
02.796,1.47
02.812,-4.88
02.828,-10.96
02.843,-16.15
02.859,-20.37
02.875,-24.14
02.890,-28.36
02.906,-34.05
02.921,-41.76
02.937,-51.26
02.953,-61.34
02.968,-70.03
02.984,-75.06
03.000,-74.59
03.015,-67.72
03.031,-54.8
03.046,-37.31
03.062,-17.42
03.078,2.69
03.093,21.24
03.109,37.19
03.125,50.15
03.140,60.15
03.156,67.5
03.171,72.54
03.187,75.56
03.203,76.81
03.218,76.61
03.234,75.28
03.250,73.25
03.265,70.9
03.281,68.6
03.296,66.59
03.312,65.0
03.328,63.81
03.343,62.97
03.359,62.42
03.375,62.03
03.390,61.67
03.406,61.11
03.421,60.07
03.437,58.31
03.453,55.72
03.468,52.33
03.484,48.35
03.500,44.14
03.515,39.96
03.531,36.0
03.546,32.28
03.562,28.66
03.578,25.02
03.593,21.28
03.609,17.52
03.625,14.0
03.640,11.08
03.656,9.04
03.671,7.99
03.687,7.82
03.703,8.19
03.718,8.69
03.734,8.89
03.750,8.53
03.765,7.44
03.781,5.71
03.796,3.45
03.812,0.82
03.828,-1.95
03.843,-4.69
03.859,-7.2
03.875,-9.41
03.890,-11.37
03.906,-13.3
03.921,-15.45
03.937,-18.1
03.953,-21.32
03.968,-24.94
03.984,-28.57
04.000,-31.79
04.015,-34.33
04.031,-36.21
04.046,-37.74
04.062,-39.37
04.078,-41.53
04.093,-44.4
04.109,-47.95
04.125,-52.0
04.140,-56.28
04.156,-60.63
04.171,-64.97
04.187,-69.29
04.203,-73.64
04.218,-78.12
04.234,-82.9
04.250,-88.13
04.265,-93.81
04.281,-99.48
04.296,-104.08
04.312,-106.11
04.328,-103.97
04.343,-96.64
04.359,-84.06
04.375,-67.35
04.390,-48.36
04.406,-29.21
04.421,-11.57
04.437,3.64
04.453,16.12
04.468,26.06
04.484,33.6
04.500,38.85
04.515,41.81
04.531,42.64
04.546,41.69
04.562,39.67
04.578,37.36
04.593,35.34
04.609,33.97
04.625,33.15
04.640,32.64
04.656,32.1
04.671,31.27
04.687,30.02
04.703,28.27
04.718,25.91
04.734,22.82
04.750,18.86
04.765,14.03
04.781,8.5
04.796,2.61
04.812,-3.1
04.828,-8.15
04.843,-12.26
04.859,-15.55
04.875,-18.47
04.890,-21.69
04.906,-25.76
04.921,-30.78
04.937,-36.13
04.953,-40.68
04.968,-42.92
04.984,-41.64
05.000,-36.25
05.015,-27.04
05.031,-15.02
05.046,-1.59
05.062,11.83
05.078,24.16
05.093,34.62
05.109,42.85
05.125,48.68
05.140,52.12
05.156,53.26
05.171,52.42
05.187,50.15
05.203,47.16
05.218,44.15
05.234,41.54
05.250,39.45
05.265,37.61
05.281,35.57
05.296,32.87
05.312,29.27
05.328,24.84
05.343,19.86
05.359,14.69
05.375,9.58
05.390,4.62
05.406,-0.14
05.421,-4.72
05.437,-9.09
05.453,-13.18
05.468,-16.96
05.484,-20.54
05.500,-24.15
05.515,-28.15
05.531,-32.89
05.546,-38.44
05.562,-44.46
05.578,-50.09
05.593,-54.13
05.609,-55.37
05.625,-52.93
05.640,-46.53
05.656,-36.54
05.671,-23.92
05.687,-9.92
05.703,4.21
05.718,17.49
05.734,29.19
05.750,38.93
05.765,46.51
05.781,51.94
05.796,55.33
05.812,56.87
05.828,56.92
05.843,55.86
05.859,54.12
05.875,52.1
05.890,49.94
05.906,47.61
05.921,44.93
05.937,41.75
05.953,38.0
05.968,33.88
05.984,29.67
06.000,25.63
06.015,21.91
06.031,18.42
06.046,14.92
06.062,11.11
06.078,6.84
06.093,2.04
06.109,-3.13
06.125,-8.42
06.140,-13.64
06.156,-18.72
06.171,-23.77
06.187,-29.02
06.203,-34.72
06.218,-41.03
06.234,-47.87
06.250,-54.83
06.265,-61.13
06.281,-65.79
06.296,-67.77
06.312,-66.25
06.328,-60.87
06.343,-51.91
06.359,-40.28
06.375,-27.2
06.390,-13.93
06.406,-1.41
06.421,9.82
06.437,19.65
06.453,28.15
06.468,35.4
06.484,41.41
06.500,46.04
06.515,49.19
06.531,50.77
06.546,50.85
06.562,49.6
06.578,47.33
06.593,44.41
06.609,41.13
06.625,37.76
06.640,34.43
06.656,31.22
06.671,28.1
06.687,25.15
06.703,22.38
06.718,19.82
06.734,17.41
06.750,14.96
06.765,12.25
06.781,9.12
06.796,5.47
06.812,1.26
06.828,-3.4
06.843,-8.39
06.859,-13.49
06.875,-18.52
06.890,-23.28
06.906,-27.66
06.921,-31.65
06.937,-35.42
06.953,-39.3
06.968,-43.62
06.984,-48.68
07.000,-54.48
07.015,-60.69
07.031,-66.56
07.046,-71.1
07.062,-73.15
07.078,-71.78
07.093,-66.48
07.109,-57.37
07.125,-45.17
07.140,-31.06
07.156,-16.36
07.171,-2.3
07.187,10.29
07.203,20.92
07.218,29.44
07.234,35.87
07.250,40.34
07.265,42.99
07.281,44.08
07.296,43.98
07.312,43.15
07.328,42.09
07.343,41.18
07.359,40.54
07.375,40.03
07.390,39.42
07.406,38.35
07.421,36.67
07.437,34.42
07.453,31.76
07.468,28.95
07.484,26.13
07.500,23.34
07.515,20.47
07.531,17.46
07.546,14.22
07.562,10.71
07.578,6.9
07.593,2.7
07.609,-1.99
07.625,-7.2
07.640,-12.85
07.656,-18.73
07.671,-24.56
07.687,-30.08
07.703,-35.1
07.718,-39.55
07.734,-43.46
07.750,-47.06
07.765,-50.63
07.781,-54.49
07.796,-58.85
07.812,-63.55
07.828,-67.93
07.843,-70.97
07.859,-71.45
07.875,-68.5
07.890,-61.87
07.906,-52.01
07.921,-39.97
07.937,-26.94
07.953,-14.0
07.968,-1.83
07.984,9.22
08.000,18.97
08.015,27.24
08.031,33.8
08.046,38.45
08.062,41.14
08.078,42.04
08.093,41.56
08.109,40.18
08.125,38.33
08.140,36.35
08.156,34.39
08.171,32.54
08.187,30.86
08.203,29.41
08.218,28.18
08.234,27.11
08.250,25.98
08.265,24.46
08.281,22.27
08.296,19.27
08.312,15.5
08.328,11.28
08.343,6.99
08.359,3.01
08.375,-0.5
08.390,-3.6
08.406,-6.55
08.421,-9.66
08.437,-13.15
08.453,-17.08
08.468,-21.37
08.484,-25.85
08.500,-30.36
08.515,-34.85
08.531,-39.32
08.546,-43.89
08.562,-48.63
08.578,-53.53
08.593,-58.35
08.609,-62.63
08.625,-65.62
08.640,-66.43
08.656,-64.36
08.671,-59.02
08.687,-50.62
08.703,-39.92
08.718,-27.93
08.734,-15.71
08.750,-4.08
08.765,6.51
08.781,15.91
08.796,23.99
08.812,30.72
08.828,35.92
08.843,39.48
08.859,41.41
08.875,41.89
08.890,41.22
08.906,39.8
08.921,38.01
08.937,36.1
08.953,34.22
08.968,32.42
08.984,30.76
09.000,29.24
09.015,27.85
09.031,26.48
09.046,24.93
09.062,22.98
09.078,20.46
09.093,17.42
09.109,13.97
09.125,10.36
09.140,6.79
09.156,3.33
09.171,-0.04
09.187,-3.39
09.203,-6.71
09.218,-9.96
09.234,-13.03
09.250,-15.97
09.265,-18.91
09.281,-22.06
09.296,-25.64
09.312,-29.81
09.328,-34.6
09.343,-39.9
09.359,-45.44
09.375,-50.65
09.390,-54.78
09.406,-56.86
09.421,-56.09
09.437,-51.97
09.453,-44.62
09.468,-34.7
09.484,-23.27
09.500,-11.44
09.515,-0.16
09.531,9.93
09.546,18.52
09.562,25.51
09.578,31.01
09.593,35.2
09.609,38.37
09.625,40.77
09.640,42.57
09.656,43.86
09.671,44.56
09.687,44.65
09.703,44.13
09.718,43.09
09.734,41.65
09.750,39.93
09.765,37.99
09.781,35.87
09.796,33.59
09.812,31.26
09.828,28.93
09.843,26.63
09.859,24.23
09.875,21.5
09.890,18.21
09.906,14.16
09.921,9.34
09.937,3.96
09.953,-1.66
09.968,-7.17
09.984,-12.28
10.000,-16.81
10.015,-20.75
10.031,-24.21
10.046,-27.43
10.062,-30.77
10.078,-34.55
10.093,-39.04
10.109,-44.32
10.125,-50.13
10.140,-55.89
10.156,-60.68
10.171,-63.53
10.187,-63.58
10.203,-60.37
10.218,-53.89
10.234,-44.62
10.250,-33.36
10.265,-21.07
10.281,-8.72
10.296,2.91
10.312,13.18
10.328,21.68
10.343,28.21
10.359,32.78
10.375,35.53
10.390,36.79
10.406,36.93
10.421,36.36
10.437,35.47
10.453,34.59
10.468,33.99
10.484,33.75
10.500,33.75
10.515,33.55
10.531,32.72
10.546,30.95
10.562,28.2
10.578,24.79
10.593,21.17
10.609,17.83
10.625,14.95
10.640,12.4
10.656,9.85
10.671,7.0
10.687,3.72
10.703,-0.01
10.718,-4.06
10.734,-8.47
10.750,-13.28
10.765,-18.59
10.781,-24.3
10.796,-30.2
10.812,-35.95
10.828,-41.25
10.843,-46.09
10.859,-50.63
10.875,-55.14
10.890,-59.79
10.906,-64.26
10.921,-67.75
10.937,-69.16
10.953,-67.47
10.968,-62.2
10.984,-53.62
11.000,-42.59
11.015,-30.33
11.031,-17.97
11.046,-6.29
11.062,4.41
11.078,14.1
11.093,22.75
11.109,30.25
11.125,36.32
11.140,40.73
11.156,43.45
11.171,44.59
11.187,44.48
11.203,43.5
11.218,41.99
11.234,40.25
11.250,38.43
11.265,36.68
11.281,35.05
11.296,33.57
11.312,32.15
11.328,30.7
11.343,29.05
11.359,27.05
11.375,24.64
11.390,21.8
11.406,18.52
11.421,14.83
11.437,10.7
11.453,6.19
11.468,1.41
11.484,-3.47
11.500,-8.31
11.515,-12.97
11.531,-17.47
11.546,-21.94
11.562,-26.56
11.578,-31.45
11.593,-36.7
11.609,-42.34
11.625,-48.34
11.640,-54.71
11.656,-61.17
11.671,-67.26
11.687,-72.19
11.703,-74.98
11.718,-74.73
11.734,-70.99
11.750,-63.88
11.765,-54.16
11.781,-42.93
11.796,-31.31
11.812,-20.16
11.828,-9.94
11.843,-0.82
11.859,7.18
11.875,14.06
11.890,19.82
11.906,24.39
11.921,27.76
11.937,30.02
11.953,31.35
11.968,31.93
11.984,32.0
12.000,31.59
12.015,30.76
12.031,29.47
12.046,27.74
12.062,25.68
12.078,23.5
12.093,21.46
12.109,19.75
12.125,18.38
12.140,17.16
12.156,15.74
12.171,13.75
12.187,10.87
12.203,7.02
12.218,2.33
12.234,-2.82
12.250,-7.89
12.265,-12.39
12.281,-15.95
12.296,-18.5
12.312,-20.23
12.328,-21.61
12.343,-23.17
12.359,-25.41
12.375,-28.74
12.390,-33.24
12.406,-38.71
12.421,-44.67
12.437,-50.2
12.453,-54.21
12.468,-55.6
12.484,-53.51
12.500,-47.69
12.515,-38.54
12.531,-27.09
12.546,-14.63
12.562,-2.42
12.578,8.6
12.593,17.93
12.609,25.41
12.625,31.07
12.640,34.98
12.656,37.3
12.671,38.32
12.687,38.45
12.703,38.16
12.718,37.9
12.734,37.81
12.750,37.82
12.765,37.63
12.781,36.85
12.796,35.25
12.812,32.8
12.828,29.7
12.843,26.22
12.859,22.73
12.875,19.47
12.890,16.63
12.906,14.25
12.921,12.18
12.937,10.1
12.953,7.63
12.968,4.5
12.984,0.6
13.000,-3.92
13.015,-8.85
13.031,-13.92
13.046,-19.0
13.062,-24.1
13.078,-29.35
13.093,-34.82
13.109,-40.44
13.125,-45.91
13.140,-50.69
13.156,-54.13
13.171,-55.52
13.187,-54.22
13.203,-49.87
13.218,-42.44
13.234,-32.39
13.250,-20.56
13.265,-7.96
13.281,4.47
13.296,16.06
13.312,26.39
13.328,35.26
13.343,42.5
13.359,47.98
13.375,51.56
13.390,53.3
13.406,53.47
13.421,52.62
13.437,51.38
13.453,50.22
13.468,49.34
13.484,48.7
13.500,48.22
13.515,47.78
13.531,47.46
13.546,47.37
13.562,47.6
13.578,48.07
13.593,48.51
13.609,48.49
13.625,47.63
13.640,45.78
13.656,43.01
13.671,39.6
13.687,35.94
13.703,32.39
13.718,29.2
13.734,26.57
13.750,24.56
13.765,23.1
13.781,22.04
13.796,21.12
13.812,20.05
13.828,18.64
13.843,16.79
13.859,14.59
13.875,12.19
13.890,9.8
13.906,7.55
13.921,5.55
13.937,3.85
13.953,2.54
13.968,1.7
13.984,1.22
14.000,0.95
14.015,0.54
14.031,-0.34
14.046,-1.87
14.062,-3.99
14.078,-6.46
14.093,-8.91
14.109,-11.0
14.125,-12.62
14.140,-13.79
14.156,-14.7
14.171,-15.59
14.187,-16.64
14.203,-17.94
14.218,-19.52
14.234,-21.35
14.250,-23.46
14.265,-25.87
14.281,-28.6
14.296,-31.68
14.312,-35.04
14.328,-38.55
14.343,-42.08
14.359,-45.49
14.375,-48.72
14.390,-51.82
14.406,-54.94
14.421,-58.16
14.437,-61.59
14.453,-65.31
14.468,-69.41
14.484,-74.06
14.500,-79.34
14.515,-85.0
14.531,-90.34
14.546,-94.25
14.562,-95.34
14.578,-92.57
14.593,-85.52
14.609,-74.59
14.625,-60.89
14.640,-45.87
14.656,-30.83
14.671,-16.74
14.687,-4.11
14.703,6.87
14.718,16.21
14.734,24.01
14.750,30.37
14.765,35.44
14.781,39.34
14.796,42.15
14.812,43.89
14.828,44.51
14.843,44.01
14.859,42.42
14.875,39.87
14.890,36.61
14.906,32.96
14.921,29.28
14.937,25.87
14.953,22.86
14.968,20.28
14.984,17.99
15.000,15.7
15.015,13.14
15.031,10.14
15.046,6.62
15.062,2.61
15.078,-1.76
15.093,-6.38
15.109,-11.2
15.125,-16.25
15.140,-21.68
15.156,-27.62
15.171,-34.02
15.187,-40.53
15.203,-46.47
15.218,-50.88
15.234,-52.76
15.250,-51.4
15.265,-46.68
15.281,-39.09
15.296,-29.57
15.312,-19.21
15.328,-8.91
15.343,0.77
15.359,9.55
15.375,17.32
15.390,23.96
15.406,29.23
15.421,32.89
15.437,34.83
15.453,35.17
15.468,34.22
15.484,32.34
15.500,29.88
15.515,27.05
15.531,24.01
15.546,20.98
15.562,18.22
15.578,16.01
15.593,14.49
15.609,13.59
15.625,12.91
15.640,11.87
15.656,9.91
15.671,6.66
15.687,2.13
15.703,-3.33
15.718,-9.21
15.734,-14.95
15.750,-20.11
15.765,-24.58
15.781,-28.53
15.796,-32.26
15.812,-36.16
15.828,-40.32
15.843,-44.4
15.859,-47.66
15.875,-49.1
15.890,-47.77
15.906,-43.22
15.921,-35.56
15.937,-25.45
15.953,-13.98
15.968,-2.17
15.984,9.12
16.000,19.35
16.015,28.24
16.031,35.67
16.046,41.52
16.062,45.71
16.078,48.2
16.093,49.03
16.109,48.36
16.125,46.42
16.140,43.39
16.156,39.46
16.171,34.85
16.187,29.81
16.203,24.68
16.218,19.86
16.234,15.52
16.250,11.68
16.265,8.11
16.281,4.43
16.296,0.34
16.312,-4.32
16.328,-9.53
16.343,-15.08
16.359,-20.69
16.375,-26.13
16.390,-31.13
16.406,-35.54
16.421,-39.34
16.437,-42.62
16.453,-45.63
16.468,-48.61
16.484,-51.56
16.500,-54.13
16.515,-55.58
16.531,-54.9
16.546,-51.2
16.562,-44.06
16.578,-33.69
16.593,-20.92
16.609,-7.06
16.625,6.58
16.640,18.91
16.656,29.26
16.671,37.38
16.687,43.32
16.703,47.25
16.718,49.43
16.734,50.11
16.750,49.52
16.765,47.99
16.781,45.83
16.796,43.42
16.812,41.02
16.828,38.77
16.843,36.63
16.859,34.47
16.875,32.14
16.890,29.41
16.906,26.18
16.921,22.28
16.937,17.65
16.953,12.41
16.968,6.77
16.984,1.13
17.000,-4.1
17.015,-8.64
17.031,-12.44
17.046,-15.75
17.062,-19.05
17.078,-22.94
17.093,-27.83
17.109,-33.88
17.125,-40.75
17.140,-47.58
17.156,-53.16
17.171,-56.11
17.187,-55.41
17.203,-50.57
17.218,-41.83
17.234,-30.08
17.250,-16.58
17.265,-2.7
17.281,10.45
17.296,22.1
17.312,31.77
17.328,39.25
17.343,44.58
17.359,47.92
17.375,49.63
17.390,50.12
17.406,49.82
17.421,49.06
17.437,48.07
17.453,46.88
17.468,45.4
17.484,43.57
17.500,41.28
17.515,38.57
17.531,35.56
17.546,32.39
17.562,29.15
17.578,25.83
17.593,22.36
17.609,18.64
17.625,14.65
17.640,10.43
17.656,6.17
17.671,2.02
17.687,-1.92
17.703,-5.79
17.718,-9.88
17.734,-14.54
17.750,-20.09
17.765,-26.66
17.781,-34.15
17.796,-42.12
17.812,-49.76
17.828,-56.04
17.843,-59.81
17.859,-60.11
17.875,-56.44
17.890,-48.96
17.906,-38.38
17.921,-25.9
17.937,-12.77
17.953,-0.04
17.968,11.58
17.984,21.78
18.000,30.42
18.015,37.48
18.031,42.92
18.046,46.75
18.062,49.1
18.078,50.16
18.093,50.26
18.109,49.67
18.125,48.58
18.140,46.96
18.156,44.7
18.171,41.67
18.187,37.97
18.203,33.93
18.218,30.07
18.234,26.87
18.250,24.54
18.265,22.92
18.281,21.41
18.296,19.32
18.312,16.08
18.328,11.52
18.343,5.93
18.359,-0.17
18.375,-6.2
18.390,-11.87
18.406,-17.1
18.421,-22.07
18.437,-26.97
18.453,-31.95
18.468,-37.02
18.484,-42.16
18.500,-47.23
18.515,-51.94
18.531,-55.77
18.546,-57.94
18.562,-57.64
18.578,-54.25
18.593,-47.72
18.609,-38.54
18.625,-27.58
18.640,-15.82
18.656,-4.11
18.671,7.06
18.687,17.39
18.703,26.65
18.718,34.53
18.734,40.67
18.750,44.78
18.765,46.8
18.781,47.0
18.796,45.86
18.812,44.0
18.828,41.93
18.843,39.87
18.859,37.82
18.875,35.62
18.890,33.11
18.906,30.29
18.921,27.32
18.937,24.44
18.953,21.82
18.968,19.49
18.984,17.17
19.000,14.54
19.015,11.28
19.031,7.19
19.046,2.38
19.062,-2.79
19.078,-7.9
19.093,-12.54
19.109,-16.52
19.125,-19.88
19.140,-22.83
19.156,-25.75
19.171,-29.1
19.187,-33.23
19.203,-38.33
19.218,-44.33
19.234,-50.72
19.250,-56.64
19.265,-60.94
19.281,-62.39
19.296,-60.2
19.312,-54.14
19.328,-44.75
19.343,-33.1
19.359,-20.57
19.375,-8.34
19.390,2.73
19.406,12.24
19.421,20.02
19.437,26.05
19.453,30.35
19.468,33.05
19.484,34.42
19.500,34.8
19.515,34.69
19.531,34.42
19.546,34.16
19.562,33.77
19.578,32.93
19.593,31.28
19.609,28.63
19.625,25.01
19.640,20.73
19.656,16.32
19.671,12.27
19.687,8.86
19.703,6.11
19.718,3.77
19.734,1.49
19.750,-1.03
19.765,-4.0
19.781,-7.43
19.796,-11.19
19.812,-15.14
19.828,-19.19
19.843,-23.23
19.859,-27.19
19.875,-30.97
19.890,-34.45
19.906,-37.66
19.921,-40.72
19.937,-43.84
19.953,-47.18
19.968,-50.62
19.984,-53.7
20.000,-55.68
20.015,-55.75
20.031,-53.27
20.046,-48.1
20.062,-40.54
20.078,-31.24
20.093,-20.94
20.109,-10.33
20.125,0.02
20.140,9.65
20.156,18.09
20.171,25.02
20.187,30.18
20.203,33.47
20.218,35.03
20.234,35.18
20.250,34.34
20.265,32.94
20.281,31.35
20.296,29.81
20.312,28.44
20.328,27.24
20.343,26.06
20.359,24.71
20.375,23.04
20.390,20.99
20.406,18.61
20.421,15.96
20.437,13.09
20.453,10.01
20.468,6.75
20.484,3.43
20.500,0.31
20.515,-2.33
20.531,-4.27
20.546,-5.62
20.562,-6.73
20.578,-8.15
20.593,-10.41
20.609,-13.79
20.625,-18.36
20.640,-23.95
20.656,-30.25
20.671,-36.83
20.687,-43.08
20.703,-48.19
20.718,-51.24
20.734,-51.42
20.750,-48.27
20.765,-41.96
20.781,-33.21
20.796,-23.07
20.812,-12.58
20.828,-2.48
20.843,6.78
20.859,15.04
20.875,22.24
20.890,28.33
20.906,33.27
20.921,37.04
20.937,39.72
20.953,41.47
20.968,42.52
20.984,43.04
21.000,43.14
21.015,42.81
21.031,42.03
21.046,40.69
21.062,38.72
21.078,36.24
21.093,33.5
21.109,30.88
21.125,28.73
21.140,27.18
21.156,26.06
21.171,24.96
21.187,23.31
21.203,20.67
21.218,16.81
21.234,11.58
21.250,5.07
21.265,-2.61
21.281,-11.18
21.296,-20.28
21.312,-29.48
21.328,-38.35
21.343,-46.55
21.359,-53.8
21.375,-59.91
21.390,-64.62
21.406,-67.59
21.421,-68.37
21.437,-66.58
21.453,-62.12
21.468,-55.2
21.484,-46.4
21.500,-36.47
21.515,-26.16
21.531,-16.04
21.546,-6.42
21.562,2.58
21.578,10.83
21.593,18.12
21.609,24.03
21.625,28.16
21.640,30.31
21.656,30.59
21.671,29.58
21.687,27.99
21.703,26.55
21.718,25.64
21.734,25.3
21.750,25.25
21.765,25.12
21.781,24.66
21.796,23.77
21.812,22.47
21.828,20.78
21.843,18.61
21.859,15.72
21.875,11.96
21.890,7.28
21.906,1.91
21.921,-3.76
21.937,-9.25
21.953,-14.19
21.968,-18.47
21.984,-22.19
22.000,-25.67
22.015,-29.25
22.031,-33.28
22.046,-38.03
22.062,-43.57
22.078,-49.73
22.093,-55.9
22.109,-61.12
22.125,-64.22
22.140,-64.14
22.156,-60.29
22.171,-52.85
22.187,-42.66
22.203,-30.97
22.218,-19.04
22.234,-7.77
22.250,2.37
22.265,11.33
22.281,19.2
22.296,26.14
22.312,32.15
22.328,37.18
22.343,41.16
22.359,44.03
22.375,45.83
22.390,46.6
22.406,46.41
22.421,45.36
22.437,43.43
22.453,40.62
22.468,36.97
22.484,32.61
22.500,27.86
22.515,23.22
22.531,19.14
22.546,15.91
22.562,13.49
22.578,11.48
22.593,9.37
22.609,6.67
22.625,3.15
22.640,-1.13
22.656,-5.93
22.671,-10.9
22.687,-15.79
22.703,-20.43
22.718,-24.82
22.734,-29.07
22.750,-33.37
22.765,-37.95
22.781,-42.97
22.796,-48.4
22.812,-53.88
22.828,-58.68
22.843,-61.87
22.859,-62.6
22.875,-60.29
22.890,-54.89
22.906,-46.83
22.921,-36.75
22.937,-25.4
22.953,-13.46
22.968,-1.52
22.984,9.85
23.000,20.07
23.015,28.58
23.031,34.97
23.046,39.04
23.062,40.94
23.078,41.06
23.093,39.98
23.109,38.31
23.125,36.55
23.140,35.0
23.156,33.76
23.171,32.69
23.187,31.55
23.203,30.1
23.218,28.14
23.234,25.62
23.250,22.64
23.265,19.33
23.281,15.78
23.296,12.02
23.312,7.97
23.328,3.56
23.343,-1.16
23.359,-6.02
23.375,-10.8
23.390,-15.3
23.406,-19.48
23.421,-23.51
23.437,-27.61
23.453,-32.09
23.468,-37.18
23.484,-43.0
23.500,-49.43
23.515,-56.07
23.531,-62.17
23.546,-66.66
23.562,-68.41
23.578,-66.51
23.593,-60.66
23.609,-51.29
23.625,-39.39
23.640,-26.24
23.656,-13.02
23.671,-0.6
23.687,10.46
23.703,19.87
23.718,27.46
23.734,33.11
23.750,36.87
23.765,39.02
23.781,39.97
23.796,40.25
23.812,40.26
23.828,40.19
23.843,39.91
23.859,39.18
23.875,37.66
23.890,35.2
23.906,31.93
23.921,28.18
23.937,24.45
23.953,21.11
23.968,18.33
23.984,16.02
24.000,13.87
24.015,11.44
24.031,8.42
24.046,4.68
24.062,0.29
24.078,-4.5
24.093,-9.41
24.109,-14.2
24.125,-18.72
24.140,-23.03
24.156,-27.3
24.171,-31.77
24.187,-36.59
24.203,-41.68
24.218,-46.53
24.234,-50.32
24.250,-52.06
24.265,-50.85
24.281,-46.22
24.296,-38.23
24.312,-27.58
24.328,-15.32
24.343,-2.6
24.359,9.56
24.375,20.45
24.390,29.64
24.406,36.96
24.421,42.46
24.437,46.24
24.453,48.53
24.468,49.55
24.484,49.52
24.500,48.71
24.515,47.3
24.531,45.5
24.546,43.47
24.562,41.35
24.578,39.27
24.593,37.3
24.609,35.46
24.625,33.69
24.640,31.86
24.656,29.69
24.671,26.86
24.687,23.11
24.703,18.33
24.718,12.72
24.734,6.74
24.750,0.98
24.765,-4.01
24.781,-7.95
24.796,-10.93
24.812,-13.33
24.828,-15.74
24.843,-18.77
24.859,-22.82
24.875,-27.92
24.890,-33.69
24.906,-39.3
24.921,-43.55
24.937,-45.24
24.953,-43.41
24.968,-37.66
24.984,-28.34
25.000,-16.41
25.015,-3.2
25.031,9.95
25.046,22.04
25.062,32.48
25.078,41.04
25.093,47.64
25.109,52.29
25.125,54.99
25.140,55.88
25.156,55.27
25.171,53.62
25.187,51.53
25.203,49.53
25.218,47.98
25.234,46.98
25.250,46.44
25.265,46.16
25.281,45.91
25.296,45.49
25.312,44.74
25.328,43.6
25.343,42.02
25.359,40.02
25.375,37.63
25.390,34.95
25.406,32.09
25.421,29.22
25.437,26.53
25.453,24.18
25.468,22.18
25.484,20.43
25.500,18.69
25.515,16.67
25.531,14.15
25.546,11.14
25.562,7.91
25.578,4.9
25.593,2.59
25.609,1.2
25.625,0.68
25.640,0.72
25.656,0.83
25.671,0.63
25.687,-0.1
25.703,-1.33
25.718,-2.93
25.734,-4.69
25.750,-6.46
25.765,-8.14
25.781,-9.64
25.796,-10.88
25.812,-11.74
25.828,-12.16
25.843,-12.2
25.859,-12.06
25.875,-11.99
25.890,-12.25
25.906,-13.06
25.921,-14.44
25.937,-16.32
25.953,-18.51
25.968,-20.73
25.984,-22.73
26.000,-24.32
26.015,-25.51
26.031,-26.48
26.046,-27.64
26.062,-29.46
26.078,-32.37
26.093,-36.54
26.109,-41.91
26.125,-48.15
26.140,-54.75
26.156,-61.23
26.171,-67.15
26.187,-72.28
26.203,-76.66
26.218,-80.56
26.234,-84.3
26.250,-88.06
26.265,-91.53
26.281,-93.94
26.296,-94.24
26.312,-91.42
26.328,-84.95
26.343,-75.06
26.359,-62.66
26.375,-48.96
26.390,-35.17
26.406,-22.11
26.421,-10.24
26.437,0.22
26.453,9.14
26.468,16.41
26.484,21.94
26.500,25.77
26.515,28.12
26.531,29.32
26.546,29.76
26.562,29.82
26.578,29.74
26.593,29.68
26.609,29.61
26.625,29.42
26.640,29.02
26.656,28.29
26.671,27.14
26.687,25.51
26.703,23.36
26.718,20.58
26.734,17.08
26.750,12.79
26.765,7.82
26.781,2.49
26.796,-2.82
26.812,-7.7
26.828,-11.89
26.843,-15.38
26.859,-18.37
26.875,-21.25
26.890,-24.44
26.906,-28.28
26.921,-32.86
26.937,-37.88
26.953,-42.61
26.968,-45.97
26.984,-46.83
27.000,-44.41
27.015,-38.55
27.031,-29.73
27.046,-18.98
27.062,-7.43
27.078,3.9
27.093,14.26
27.109,23.16
27.125,30.23
27.140,35.13
27.156,37.73
27.171,38.12
27.187,36.7
27.203,34.13
27.218,31.09
27.234,28.14
27.250,25.51
27.265,23.12
27.281,20.75
27.296,18.2
27.312,15.37
27.328,12.26
27.343,8.97
27.359,5.56
27.375,2.07
27.390,-1.49
27.406,-5.05
27.421,-8.47
27.437,-11.58
27.453,-14.26
27.468,-16.6
27.484,-18.81
27.500,-21.25
27.515,-24.29
27.531,-28.17
27.546,-33.04
27.562,-38.76
27.578,-44.9
27.593,-50.64
27.609,-54.89
27.625,-56.43
27.640,-54.37
27.656,-48.39
27.671,-38.94
27.687,-27.1
27.703,-14.28
27.718,-1.76
27.734,9.55
27.750,19.22
27.765,27.2
27.781,33.59
27.796,38.52
27.812,42.17
27.828,44.67
27.843,46.21
27.859,47.02
27.875,47.23
27.890,46.89
27.906,45.94
27.921,44.26
27.937,41.75
27.953,38.43
27.968,34.48
27.984,30.2
28.000,25.96
28.015,21.97
28.031,18.34
28.046,15.01
28.062,11.78
28.078,8.41
28.093,4.67
28.109,0.4
28.125,-4.42
28.140,-9.7
28.156,-15.38
28.171,-21.42
28.187,-27.85
28.203,-34.71
28.218,-41.83
28.234,-48.66
28.250,-54.3
28.265,-57.61
28.281,-57.56
28.296,-53.64
28.312,-45.98
28.328,-35.34
28.343,-22.88
28.359,-9.73
28.375,3.08
28.390,14.9
28.406,25.28
28.421,34.02
28.437,41.07
28.453,46.5
28.468,50.48
28.484,53.2
28.500,54.77
28.515,55.16
28.531,54.28
28.546,52.07
28.562,48.66
28.578,44.42
28.593,39.81
28.609,35.34
28.625,31.32
28.640,27.94
28.656,25.18
28.671,22.84
28.687,20.57
28.703,17.95
28.718,14.54
28.734,10.05
28.750,4.4
28.765,-2.22
28.781,-9.31
28.796,-16.39
28.812,-23.06
28.828,-29.18
28.843,-34.83
28.859,-40.21
28.875,-45.57
28.890,-51.05
28.906,-56.61
28.921,-61.84
28.937,-66.06
28.953,-68.26
28.968,-67.45
28.984,-62.93
29.000,-54.53
29.015,-42.77
29.031,-28.68
29.046,-13.54
29.062,1.59
29.078,15.96
29.093,29.18
29.109,41.08
29.125,51.44
29.140,59.98
29.156,66.36
29.171,70.37
29.187,72.06
29.203,71.9
29.218,70.56
29.234,68.69
29.250,66.74
29.265,64.71
29.281,62.42
29.296,59.55
29.312,55.92
29.328,51.58
29.343,46.83
29.359,41.95
29.375,37.09
29.390,32.16
29.406,26.88
29.421,21.01
29.437,14.45
29.453,7.31
29.468,-0.11
29.484,-7.41
29.500,-14.3
29.515,-20.61
29.531,-26.36
29.546,-31.78
29.562,-37.22
29.578,-43.06
29.593,-49.66
29.609,-57.21
29.625,-65.56
29.640,-74.17
29.656,-81.97
29.671,-87.67
29.687,-90.0
29.703,-88.1
29.718,-81.79
29.734,-71.69
29.750,-58.99
29.765,-45.14
29.781,-31.48
29.796,-18.97
29.812,-8.15
29.828,0.69
29.843,7.42
29.859,12.0
29.875,14.48
29.890,15.12
29.906,14.44
29.921,13.03
29.937,11.47
29.953,10.16
29.968,9.17
29.984,8.43
30.000,7.66
30.015,6.54
30.031,4.69
30.046,1.86
30.062,-2.08
30.078,-6.91
30.093,-12.04
30.109,-16.65
30.125,-19.87
30.140,-21.13
30.156,-20.3
30.171,-17.71
30.187,-13.82
30.203,-9.15
30.218,-3.99
30.234,1.47
30.250,7.04
30.265,12.36
30.281,16.88
30.296,19.9
30.312,20.73
30.328,18.84
30.343,13.86
30.359,5.68
30.375,-5.43
30.390,-18.77
30.406,-33.07
30.421,-46.64
30.437,-57.64
30.453,-64.49
30.468,-66.31
30.484,-63.18
30.500,-55.98
30.515,-46.1
30.531,-34.98
30.546,-23.68
30.562,-12.79
30.578,-2.53
30.593,7.07
30.609,16.02
30.625,24.23
30.640,31.64
30.656,38.28
30.671,44.34
30.687,50.22
30.703,56.36
30.718,63.09
30.734,70.43
30.750,78.07
30.765,85.23
30.781,90.98
30.796,94.38
30.812,94.75
30.828,91.89
30.843,85.97
30.859,77.52
30.875,67.25
30.890,55.93
30.906,44.3
30.921,33.07
30.937,22.75
30.953,13.58
30.968,5.65
30.984,-1.18
31.000,-7.2
31.015,-12.74
31.031,-18.11
31.046,-23.57
31.062,-29.23
31.078,-35.12
31.093,-41.2
31.109,-47.23
31.125,-52.88
31.140,-57.69
31.156,-61.02
31.171,-62.2
31.187,-60.62
31.203,-55.88
31.218,-48.1
31.234,-37.82
31.250,-25.94
31.265,-13.44
31.281,-1.22
31.296,10.17
31.312,20.41
31.328,29.39
31.343,37.03
31.359,43.14
31.375,47.52
31.390,50.1
31.406,50.87
31.421,50.11
31.437,48.24
31.453,45.77
31.468,43.14
31.484,40.61
31.500,38.27
31.515,36.13
31.531,34.21
31.546,32.55
31.562,31.2
31.578,30.14
31.593,29.19
31.609,27.99
31.625,26.07
31.640,23.05
31.656,18.84
31.671,13.69
31.687,8.14
31.703,2.85
31.718,-1.71
31.734,-5.37
31.750,-8.32
31.765,-10.97
31.781,-13.79
31.796,-17.18
31.812,-21.36
31.828,-26.41
31.843,-32.28
31.859,-38.73
31.875,-45.24
31.890,-50.95
31.906,-54.76
31.921,-55.53
31.937,-52.54
31.953,-45.76
31.968,-35.76
31.984,-23.69
32.000,-10.81
32.015,1.78
32.031,13.35
32.046,23.5
32.062,32.14
32.078,39.21
32.093,44.64
32.109,48.45
32.125,50.76
32.140,51.9
32.156,52.31
32.171,52.43
32.187,52.5
32.203,52.55
32.218,52.4
32.234,51.78
32.250,50.58
32.265,48.89
32.281,46.97
32.296,45.15
32.312,43.6
32.328,42.35
32.343,41.29
32.359,40.32
32.375,39.34
32.390,38.39
32.406,37.41
32.421,36.31
32.437,34.98
32.453,33.31
32.468,31.23
32.484,28.76
32.500,26.0
32.515,23.05
32.531,20.12
32.546,17.36
32.562,14.94
32.578,13.0
32.593,11.56
32.609,10.47
32.625,9.63
32.640,8.89
32.656,8.22
32.671,7.65
32.687,7.19
32.703,6.78
32.718,6.29
32.734,5.56
32.750,4.54
32.765,3.32
32.781,2.01
32.796,0.76
32.812,-0.52
32.828,-2.03
32.843,-4.0
32.859,-6.52
32.875,-9.45
32.890,-12.44
32.906,-15.12
32.921,-17.27
32.937,-18.9
32.953,-20.2
32.968,-21.43
32.984,-22.75
33.000,-24.2
33.015,-25.77
33.031,-27.51
33.046,-29.53
33.062,-31.95
33.078,-34.83
33.093,-38.06
33.109,-41.42
33.125,-44.72
33.140,-47.87
33.156,-50.85
33.171,-53.68
33.187,-56.28
33.203,-58.57
33.218,-60.48
33.234,-62.07
33.250,-63.64
33.265,-65.59
33.281,-68.5
33.296,-72.77
33.312,-78.56
33.328,-85.63
33.343,-93.23
33.359,-100.26
33.375,-105.36
33.390,-107.3
33.406,-105.26
33.421,-99.22
33.437,-89.75
33.453,-77.96
33.468,-65.03
33.484,-51.95
33.500,-39.4
33.515,-27.78
33.531,-17.35
33.546,-8.25
33.562,-0.58
33.578,5.71
33.593,10.84
33.609,15.11
33.625,18.88
33.640,22.31
33.656,25.39
33.671,27.87
33.687,29.5
33.703,30.05
33.718,29.52
33.734,28.1
33.750,26.23
33.765,24.43
33.781,23.11
33.796,22.43
33.812,22.23
33.828,22.06
33.843,21.49
33.859,20.14
33.875,17.83
33.890,14.6
33.906,10.69
33.921,6.29
33.937,1.62
33.953,-3.16
33.968,-7.97
33.984,-12.73
34.000,-17.45
34.015,-22.14
34.031,-26.8
34.046,-31.27
34.062,-35.18
34.078,-37.97
34.093,-39.04
34.109,-37.9
34.125,-34.35
34.140,-28.61
34.156,-21.21
34.171,-12.83
34.187,-4.17
34.203,4.23
34.218,12.0
34.234,18.9
34.250,24.67
34.265,29.1
34.281,31.94
34.296,33.05
34.312,32.46
34.328,30.42
34.343,27.33
34.359,23.7
34.375,19.87
34.390,16.09
34.406,12.52
34.421,9.24
34.437,6.37
34.453,3.95
34.468,1.79
34.484,-0.48
34.500,-3.38
34.515,-7.42
34.531,-12.78
34.546,-19.24
34.562,-26.25
34.578,-33.09
34.593,-39.04
34.609,-43.79
34.625,-47.29
34.640,-49.87
34.656,-52.12
34.671,-54.66
34.687,-57.89
34.703,-61.86
34.718,-65.99
34.734,-69.28
34.750,-70.45
34.765,-68.37
34.781,-62.47
34.796,-52.82
34.812,-40.18
34.828,-25.69
34.843,-10.61
34.859,4.01
34.875,17.35
34.890,28.89
34.906,38.47
34.921,46.1
34.937,52.01
34.953,56.48
34.968,59.79
34.984,62.11
35.000,63.6
35.015,64.41
35.031,64.71
35.046,64.76
35.062,64.82
35.078,65.02
35.093,65.29
35.109,65.39
35.125,64.87
35.140,63.32
35.156,60.48
35.171,56.34
35.187,51.19
35.203,45.49
35.218,39.76
35.234,34.43
35.250,29.66
35.265,25.37
35.281,21.14
35.296,16.46
35.312,10.67
35.328,3.36
35.343,-5.61
35.359,-15.77
35.375,-26.07
35.390,-35.05
35.406,-41.22
35.421,-43.52
35.437,-41.57
35.453,-35.93
35.468,-27.73
35.484,-18.38
35.500,-9.17
35.515,-1.07
35.531,5.4
35.546,9.89
35.562,12.21
35.578,12.33
35.593,10.23
35.609,6.13
35.625,0.36
35.640,-6.6
35.656,-14.22
35.671,-21.92
35.687,-29.12
35.703,-35.2
35.718,-39.59
35.734,-41.9
35.750,-42.02
35.765,-40.14
35.781,-36.78
35.796,-32.59
35.812,-28.22
35.828,-24.14
35.843,-20.63
35.859,-17.76
35.875,-15.52
35.890,-13.81
35.906,-12.48
35.921,-11.41
35.937,-10.46
35.953,-9.6
35.968,-8.91
35.984,-8.52
36.000,-8.42
36.015,-8.2
36.031,-6.88
36.046,-3.07
36.062,4.67
36.078,17.22
36.093,34.6
36.109,55.91
36.125,79.53
36.140,103.83
36.156,127.46
36.171,149.57
36.187,169.78
36.203,187.89
36.218,203.66
36.234,216.69
36.250,226.5
36.265,232.48
36.281,234.19
36.296,231.46
36.312,224.49
36.328,213.89
36.343,200.65
36.359,185.9
36.375,170.8
36.390,156.33
36.406,143.14
36.421,131.42
36.437,120.81
36.453,110.3
36.468,98.62
36.484,84.66
36.500,68.18
36.515,50.23
36.531,33.06
36.546,19.28
36.562,10.88
36.578,8.34
36.593,10.2
36.609,13.64
36.625,15.34
36.640,12.54
36.656,3.74
36.671,-11.14
36.687,-30.88
36.703,-53.3
36.718,-75.56
36.734,-94.6
36.750,-107.61
36.765,-113.0
36.781,-111.04
36.796,-104.15
36.812,-96.17
36.828,-90.9
36.843,-90.5
36.859,-94.38
36.875,-99.6
36.890,-102.29
36.906,-99.88
36.921,-92.56
36.937,-83.49
36.953,-77.43
36.968,-78.59
36.984,-88.73
37.000,-106.11
37.015,-126.21
37.031,-143.12
37.046,-151.78
37.062,-149.54
37.078,-136.75
37.093,-116.4
37.109,-92.6
37.125,-69.22
37.140,-48.91
37.156,-33.12
37.171,-22.61
37.187,-18.0
37.203,-19.88
37.218,-28.35
37.234,-42.48
37.250,-60.2
37.265,-78.98
37.281,-96.68
37.296,-112.46
37.312,-126.6
37.328,-139.89
37.343,-152.62
37.359,-163.98
37.375,-172.28
37.390,-175.44
37.406,-171.83
37.421,-160.76
37.437,-142.64
37.453,-118.81
37.468,-91.3
37.484,-62.47
37.500,-34.69
37.515,-9.97
37.531,10.45
37.546,26.04
37.562,37.03
37.578,44.03
37.593,47.68
37.609,48.53
37.625,47.01
37.640,43.44
37.656,38.22
37.671,31.83
37.687,24.65
37.703,17.03
37.718,9.16
37.734,1.07
37.750,-7.15
37.765,-15.32
37.781,-23.17
37.796,-30.32
37.812,-36.37
37.828,-41.0
37.843,-44.02
37.859,-45.44
37.875,-45.51
37.890,-44.67
37.906,-43.51
37.921,-42.6
37.937,-42.31
37.953,-42.76
37.968,-43.98
37.984,-45.83
38.000,-48.3
38.015,-51.48
38.031,-55.57
38.046,-60.73
38.062,-67.02
38.078,-74.13
38.093,-81.32
38.109,-87.35
38.125,-90.64
38.140,-89.62
38.156,-83.28
38.171,-71.5
38.187,-55.26
38.203,-36.36
38.218,-16.88
38.234,1.4
38.250,17.29
38.265,30.25
38.281,40.25
38.296,47.47
38.312,52.19
38.328,54.75
38.343,55.64
38.359,55.44
38.375,54.77
38.390,54.09
38.406,53.64
38.421,53.42
38.437,53.22
38.453,52.77
38.468,51.88
38.484,50.48
38.500,48.65
38.515,46.51
38.531,44.14
38.546,41.45
38.562,38.26
38.578,34.32
38.593,29.49
38.609,23.88
38.625,17.85
38.640,11.92
38.656,6.59
38.671,2.07
38.687,-1.77
38.703,-5.41
38.718,-9.52
38.734,-14.75
38.750,-21.35
38.765,-29.08
38.781,-37.11
38.796,-44.04
38.812,-48.25
38.828,-48.3
38.843,-43.34
38.859,-33.46
38.875,-19.7
38.890,-3.73
38.906,12.63
38.921,27.95
38.937,41.42
38.953,52.87
38.968,62.49
38.984,70.49
39.000,77.01
39.015,82.04
39.031,85.65
39.046,88.09
39.062,89.8
39.078,91.13
39.093,92.24
39.109,92.9
39.125,92.65
39.140,91.01
39.156,87.74
39.171,83.01
39.187,77.4
39.203,71.7
39.218,66.65
39.234,62.71
39.250,59.93
39.265,58.06
39.281,56.71
39.296,55.44
39.312,54.02
39.328,52.4
39.343,50.7
39.359,49.16
39.375,47.96
39.390,47.21
39.406,46.81
39.421,46.51
39.437,45.98
39.453,44.81
39.468,42.78
39.484,39.93
39.500,36.78
39.515,34.28
39.531,33.65
39.546,35.96
39.562,41.76
39.578,50.65
39.593,61.28
39.609,71.57
39.625,79.26
39.640,82.49
39.656,80.27
39.671,72.63
39.687,60.5
39.703,45.3
39.718,28.61
39.734,11.79
39.750,-4.1
39.765,-18.45
39.781,-30.83
39.796,-41.04
39.812,-49.02
39.828,-54.83
39.843,-58.72
39.859,-61.08
39.875,-62.38
39.890,-62.96
39.906,-62.99
39.921,-62.39
39.937,-61.06
39.953,-59.04
39.968,-56.7
39.984,-54.7
40.000,-53.74
40.015,-54.41
40.031,-56.87
40.046,-60.86
40.062,-65.78
40.078,-70.98
40.093,-75.85
40.109,-80.03
40.125,-83.45
40.140,-86.22
40.156,-88.66
40.171,-91.13
40.187,-94.0
40.203,-97.44
40.218,-101.47
40.234,-105.65
40.250,-109.22
40.265,-111.04
40.281,-109.9
40.296,-104.77
40.312,-95.24
40.328,-81.6
40.343,-64.94
40.359,-46.83
40.375,-28.89
40.390,-12.44
40.406,1.8
40.421,13.73
40.437,23.61
40.453,31.76
40.468,38.39
40.484,43.48
40.500,46.95
40.515,48.83
40.531,49.41
40.546,49.15
40.562,48.55
40.578,47.91
40.593,47.25
40.609,46.37
40.625,45.02
40.640,43.08
40.656,40.68
40.671,38.11
40.687,35.72
40.703,33.69
40.718,31.95
40.734,30.18
40.750,28.0
40.765,25.05
40.781,21.18
40.796,16.45
40.812,11.12
40.828,5.54
40.843,0.1
40.859,-4.98
40.875,-9.57
40.890,-13.77
40.906,-17.71
40.921,-21.64
40.937,-25.82
40.953,-30.53
40.968,-35.99
40.984,-42.13
41.000,-48.51
41.015,-54.19
41.031,-57.82
41.046,-58.08
41.062,-54.02
41.078,-45.53
41.093,-33.34
41.109,-18.91
41.125,-3.85
41.140,10.37
41.156,22.79
41.171,33.01
41.187,40.97
41.203,46.83
41.218,50.74
41.234,52.89
41.250,53.52
41.265,52.97
41.281,51.7
41.296,50.18
41.312,48.87
41.328,47.97
41.343,47.42
41.359,46.93
41.375,46.16
41.390,44.77
41.406,42.66
41.421,39.89
41.437,36.63
41.453,33.04
41.468,29.21
41.484,25.11
41.500,20.67
41.515,15.87
41.531,10.72
41.546,5.43
41.562,0.21
41.578,-4.7
41.593,-9.16
41.609,-13.28
41.625,-17.24
41.640,-21.36
41.656,-25.84
41.671,-30.85
41.687,-36.41
41.703,-42.41
41.718,-48.61
41.734,-54.45
41.750,-59.11
41.765,-61.51
41.781,-60.59
41.796,-55.73
41.812,-46.98
41.828,-35.18
41.843,-21.68
41.859,-7.95
41.875,4.88
41.890,16.19
41.906,25.82
41.921,33.87
41.937,40.36
41.953,45.21
41.968,48.31
41.984,49.7
42.000,49.68
42.015,48.81
42.031,47.7
42.046,46.8
42.062,46.24
42.078,45.8
42.093,45.11
42.109,43.87
42.125,42.03
42.140,39.78
42.156,37.48
42.171,35.4
42.187,33.52
42.203,31.59
42.218,29.15
42.234,25.76
42.250,21.19
42.265,15.45
42.281,8.83
42.296,1.82
42.312,-5.08
42.328,-11.46
42.343,-17.07
42.359,-21.92
42.375,-26.22
42.390,-30.32
42.406,-34.61
42.421,-39.31
42.437,-44.38
42.453,-49.31
42.468,-53.23
42.484,-55.02
42.500,-53.72
42.515,-48.82
42.531,-40.44
42.546,-29.35
42.562,-16.73
42.578,-3.78
42.593,8.53
42.609,19.6
42.625,29.12
42.640,36.9
42.656,42.76
42.671,46.6
42.687,48.38
42.703,48.33
42.718,46.92
42.734,44.75
42.750,42.47
42.765,40.53
42.781,39.09
42.796,38.05
42.812,37.12
42.828,36.0
42.843,34.5
42.859,32.61
42.875,30.44
42.890,28.08
42.906,25.61
42.921,22.94
42.937,19.87
42.953,16.18
42.968,11.7
42.984,6.46
43.000,0.71
43.015,-5.21
43.031,-10.91
43.046,-16.14
43.062,-20.92
43.078,-25.52
43.093,-30.37
43.109,-35.88
43.125,-42.25
43.140,-49.34
43.156,-56.62
43.171,-63.18
43.187,-67.87
43.203,-69.61
43.218,-67.56
43.234,-61.41
43.250,-51.52
43.265,-38.75
43.281,-24.31
43.296,-9.46
43.312,4.68
43.328,17.35
43.343,28.05
43.359,36.57
43.375,42.89
43.390,47.1
43.406,49.43
43.421,50.2
43.437,49.86
43.453,48.81
43.468,47.35
43.484,45.66
43.500,43.8
43.515,41.7
43.531,39.27
43.546,36.52
43.562,33.48
43.578,30.32
43.593,27.23
43.609,24.29
43.625,21.47
43.640,18.54
43.656,15.15
43.671,10.91
43.687,5.59
43.703,-0.74
43.718,-7.7
43.734,-14.67
43.750,-21.05
43.765,-26.54
43.781,-31.18
43.796,-35.28
43.812,-39.3
43.828,-43.67
43.843,-48.63
43.859,-54.17
43.875,-60.06
43.890,-65.77
43.906,-70.42
43.921,-72.94
43.937,-72.19
43.953,-67.39
43.968,-58.4
43.984,-45.9
44.000,-31.2
44.015,-15.84
44.031,-1.23
44.046,11.75
44.062,22.73
44.078,31.64
44.093,38.54
44.109,43.41
44.125,46.27
44.140,47.26
44.156,46.79
44.171,45.5
44.187,44.04
44.203,42.88
44.218,42.07
44.234,41.31
44.250,40.18
44.265,38.35
44.281,35.77
44.296,32.65
44.312,29.37
44.328,26.15
44.343,23.01
44.359,19.77
44.375,16.17
44.390,11.96
44.406,7.1
44.421,1.72
44.437,-3.95
44.453,-9.59
44.468,-14.97
44.484,-19.95
44.500,-24.57
44.515,-28.96
44.531,-33.41
44.546,-38.24
44.562,-43.7
44.578,-49.86
44.593,-56.48
44.609,-62.95
44.625,-68.31
44.640,-71.49
44.656,-71.44
44.671,-67.51
44.687,-59.7
44.703,-48.68
44.718,-35.66
44.734,-21.99
44.750,-8.84
44.765,3.03
44.781,13.28
44.796,21.86
44.812,28.81
44.828,34.11
44.843,37.7
44.859,39.6
44.875,40.01
44.890,39.37
44.906,38.23
44.921,37.03
44.937,35.95
44.953,34.85
44.968,33.45
44.984,31.53
45.000,29.08
45.015,26.32
45.031,23.57
45.046,21.07
45.062,18.79
45.078,16.41
45.093,13.53
45.109,9.84
45.125,5.25
45.140,-0.04
45.156,-5.71
45.171,-11.41
45.187,-16.87
45.203,-21.91
45.218,-26.46
45.234,-30.59
45.250,-34.51
45.265,-38.59
45.281,-43.21
45.296,-48.47
45.312,-54.0
45.328,-58.85
45.343,-61.62
45.359,-60.95
45.375,-56.07
45.390,-47.06
45.406,-34.88
45.421,-21.02
45.437,-6.91
45.453,6.26
45.468,17.85
45.484,27.52
45.500,35.11
45.515,40.51
45.531,43.7
45.546,44.86
45.562,44.41
45.578,43.0
45.593,41.34
45.609,40.04
45.625,39.44
45.640,39.51
45.656,39.97
45.671,40.4
45.687,40.44
45.703,39.89
45.718,38.75
45.734,37.11
45.750,34.99
45.765,32.25
45.781,28.56
45.796,23.63
45.812,17.42
45.828,10.22
45.843,2.67
45.859,-4.48
45.875,-10.68
45.890,-15.74
45.906,-19.94
45.921,-23.89
45.937,-28.24
45.953,-33.51
45.968,-39.78
45.984,-46.66
46.000,-53.26
46.015,-58.4
46.031,-60.83
46.046,-59.56
46.062,-54.14
46.078,-44.87
46.093,-32.66
46.109,-18.86
46.125,-4.82
46.140,8.34
46.156,19.88
46.171,29.41
46.187,36.77
46.203,41.96
46.218,45.07
46.234,46.35
46.250,46.21
46.265,45.18
46.281,43.75
46.296,42.23
46.312,40.69
46.328,38.96
46.343,36.81
46.359,34.1
46.375,30.92
46.390,27.53
46.406,24.25
46.421,21.3
46.437,18.74
46.453,16.38
46.468,13.94
46.484,11.15
46.500,7.82
46.515,3.88
46.531,-0.6
46.546,-5.51
46.562,-10.7
46.578,-16.07
46.593,-21.63
46.609,-27.46
46.625,-33.67
46.640,-40.4
46.656,-47.64
46.671,-55.18
46.687,-62.52
46.703,-68.8
46.718,-72.97
46.734,-73.99
46.750,-71.1
46.765,-64.09
46.781,-53.41
46.796,-40.0
46.812,-25.12
46.828,-10.0
46.843,4.32
46.859,17.13
46.875,27.94
46.890,36.47
46.906,42.58
46.921,46.28
46.937,47.78
46.953,47.43
46.968,45.73
46.984,43.22
47.000,40.42
47.015,37.73
47.031,35.38
47.046,33.36
47.062,31.58
47.078,29.88
47.093,28.15
47.109,26.4
47.125,24.58
47.140,22.64
47.156,20.31
47.171,17.24
47.187,13.08
47.203,7.67
47.218,1.22
47.234,-5.8
47.250,-12.76
47.265,-19.07
47.281,-24.45
47.296,-28.89
47.312,-32.69
47.328,-36.33
47.343,-40.35
47.359,-45.09
47.375,-50.64
47.390,-56.7
47.406,-62.48
47.421,-66.98
47.437,-68.94
47.453,-67.34
47.468,-61.69
47.484,-52.15
47.500,-39.57
47.515,-25.23
47.531,-10.52
47.546,3.38
47.562,15.71
47.578,26.17
47.593,34.68
47.609,41.27
47.625,45.91
47.640,48.59
47.656,49.41
47.671,48.71
47.687,47.07
47.703,45.12
47.718,43.31
47.734,41.77
47.750,40.27
47.765,38.4
47.781,35.85
47.796,32.61
47.812,28.97
47.828,25.41
47.843,22.26
47.859,19.55
47.875,16.97
47.890,14.02
47.906,10.3
47.921,5.63
47.937,0.15
47.953,-5.77
47.968,-11.69
47.984,-17.29
48.000,-22.4
48.015,-27.07
48.031,-31.51
48.046,-36.09
48.062,-41.22
48.078,-47.16
48.093,-53.94
48.109,-61.11
48.125,-67.86
48.140,-72.96
48.156,-75.11
48.171,-73.3
48.187,-67.09
48.203,-56.75
48.218,-43.25
48.234,-27.94
48.250,-12.27
48.265,2.53
48.281,15.65
48.296,26.65
48.312,35.35
48.328,41.68
48.343,45.63
48.359,47.27
48.375,46.83
48.390,44.81
48.406,41.88
48.421,38.78
48.437,36.08
48.453,34.0
48.468,32.43
48.484,31.04
48.500,29.45
48.515,27.41
48.531,24.92
48.546,22.17
48.562,19.3
48.578,16.38
48.593,13.24
48.609,9.65
48.625,5.39
48.640,0.46
48.656,-4.91
48.671,-10.32
48.687,-15.36
48.703,-19.81
48.718,-23.63
48.734,-27.04
48.750,-30.32
48.765,-33.82
48.781,-37.77
48.796,-42.33
48.812,-47.5
48.828,-53.02
48.843,-58.2
48.859,-62.04
48.875,-63.35
48.890,-61.06
48.906,-54.68
48.921,-44.5
48.937,-31.55
48.953,-17.28
48.968,-3.19
48.984,9.56
49.000,20.34
49.015,28.97
49.031,35.47
49.046,40.03
49.062,42.75
49.078,43.87
49.093,43.75
49.109,42.93
49.125,41.99
49.140,41.39
49.156,41.24
49.171,41.28
49.187,41.07
49.203,40.17
49.218,38.45
49.234,36.08
49.250,33.53
49.265,31.19
49.281,29.25
49.296,27.59
49.312,25.84
49.328,23.56
49.343,20.49
49.359,16.56
49.375,11.92
49.390,6.81
49.406,1.46
49.421,-3.97
49.437,-9.41
49.453,-14.88
49.468,-20.43
49.484,-26.2
49.500,-32.24
49.515,-38.58
49.531,-44.98
49.546,-50.9
49.562,-55.41
49.578,-57.41
49.593,-55.88
49.609,-50.2
49.625,-40.58
49.640,-27.93
49.656,-13.7
49.671,0.55
49.687,13.55
49.703,24.54
49.718,33.28
49.734,39.72
49.750,43.94
49.765,45.93
49.781,45.79
49.796,43.75
49.812,40.3
49.828,36.14
49.843,31.96
49.859,28.34
49.875,25.48
49.890,23.32
49.906,21.61
49.921,20.22
49.937,19.2
49.953,18.82
49.968,19.43
49.984,21.2
50.000,23.99
50.015,27.22
50.031,29.99
50.046,31.38
50.062,30.76
50.078,28.03
50.093,23.49
50.109,17.75
50.125,11.37
50.140,4.66
50.156,-2.41
50.171,-10.0
50.187,-18.31
50.203,-27.41
50.218,-37.24
50.234,-47.65
50.250,-58.35
50.265,-68.77
50.281,-77.98
50.296,-84.73
50.312,-87.76
50.328,-86.2
50.343,-79.98
50.359,-69.77
50.375,-56.87
50.390,-42.73
50.406,-28.47
50.421,-14.82
50.437,-2.11
50.453,9.5
50.468,19.91
50.484,28.91
50.500,36.37
50.515,42.33
50.531,46.92
50.546,50.37
50.562,52.88
50.578,54.52
50.593,55.15
50.609,54.5
50.625,52.24
50.640,48.2
50.656,42.52
50.671,35.72
50.687,28.61
50.703,22.08
50.718,16.9
50.734,13.44
50.750,11.63
50.765,10.99
50.781,10.86
50.796,10.67
50.812,9.96
50.828,8.47
50.843,6.09
50.859,2.68
50.875,-1.81
50.890,-7.47
50.906,-14.22
50.921,-21.82
50.937,-29.91
50.953,-38.19
50.968,-46.47
50.984,-54.64
51.000,-62.49
51.015,-69.48
51.031,-74.68
51.046,-76.83
51.062,-74.9
51.078,-68.41
51.093,-57.71
51.109,-43.93
51.125,-28.67
51.140,-13.51
51.156,0.31
51.171,12.09
51.187,21.58
51.203,28.74
51.218,33.73
51.234,36.78
51.250,38.22
51.265,38.42
51.281,37.79
51.296,36.73
51.312,35.54
51.328,34.42
51.343,33.38
51.359,32.31
51.375,31.09
51.390,29.55
51.406,27.66
51.421,25.46
51.437,23.09
51.453,20.7
51.468,18.35
51.484,15.92
51.500,13.17
51.515,9.81
51.531,5.65
51.546,0.71
51.562,-4.73
51.578,-10.25
51.593,-15.47
51.609,-20.17
51.625,-24.41
51.640,-28.42
51.656,-32.53
51.671,-37.05
51.687,-42.17
51.703,-47.99
51.718,-54.4
51.734,-61.1
51.750,-67.44
51.765,-72.35
51.781,-74.51
51.796,-72.75
51.812,-66.47
51.828,-55.85
51.843,-41.99
51.859,-26.45
51.875,-10.93
51.890,3.29
51.906,15.48
51.921,25.34
51.937,32.92
51.953,38.33
51.968,41.72
51.984,43.24
52.000,43.24
52.015,42.17
52.031,40.64
52.046,39.17
52.062,38.03
52.078,37.27
52.093,36.59
52.109,35.66
52.125,34.16
52.140,32.04
52.156,29.43
52.171,26.65
52.187,24.0
52.203,21.6
52.218,19.38
52.234,17.09
52.250,14.35
52.265,10.87
52.281,6.52
52.296,1.39
52.312,-4.29
52.328,-10.1
52.343,-15.7
52.359,-20.82
52.375,-25.35
52.390,-29.44
52.406,-33.34
52.421,-37.43
52.437,-42.02
52.453,-47.26
52.468,-52.93
52.484,-58.44
52.500,-62.86
52.515,-65.13
52.531,-64.27
52.546,-59.68
52.562,-51.32
52.578,-39.74
52.593,-26.06
52.609,-11.53
52.625,2.62
52.640,15.46
52.656,26.51
52.671,35.64
52.687,42.94
52.703,48.54
52.718,52.55
52.734,55.0
52.750,55.96
52.765,55.61
52.781,54.27
52.796,52.34
52.812,50.12
52.828,47.73
52.843,45.12
52.859,42.15
52.875,38.8
52.890,35.25
52.906,31.84
52.921,28.87
52.937,26.45
52.953,24.29
52.968,21.8
52.984,18.25
53.000,13.16
53.015,6.45
53.031,-1.41
53.046,-9.66
53.062,-17.57
53.078,-24.67
53.093,-30.9
53.109,-36.55
53.125,-42.02
53.140,-47.68
53.156,-53.79
53.171,-60.45
53.187,-67.47
53.203,-74.32
53.218,-80.01
53.234,-83.22
53.250,-82.65
53.265,-77.49
53.281,-67.78
53.296,-54.48
53.312,-39.2
53.328,-23.7
53.343,-9.34
53.359,3.03
53.375,13.14
53.390,20.98
53.406,26.67
53.421,30.32
53.437,32.09
53.453,32.33
53.468,31.56
53.484,30.35
53.500,29.22
53.515,28.44
53.531,27.94
53.546,27.48
53.562,26.65
53.578,25.19
53.593,23.02
53.609,20.36
53.625,17.59
53.640,15.09
53.656,13.08
53.671,11.45
53.687,9.77
53.703,7.43
53.718,3.91
53.734,-0.97
53.750,-6.96
53.765,-13.5
53.781,-19.89
53.796,-25.56
53.812,-30.24
53.828,-33.98
53.843,-37.02
53.859,-39.62
53.875,-42.01
53.890,-44.26
53.906,-46.29
53.921,-47.73
53.937,-48.03
53.953,-46.39
53.968,-42.13
53.984,-34.87
54.000,-24.9
54.015,-13.09
54.031,-0.68
54.046,11.2
54.062,21.85
54.078,31.12
54.093,39.29
54.109,46.72
54.125,53.66
54.140,60.08
54.156,65.96
54.171,71.27
54.187,76.03
54.203,80.16
54.218,83.32
54.234,84.99
54.250,84.64
54.265,82.06
54.281,77.54
54.296,71.95
54.312,66.38
54.328,61.9
54.343,59.1
54.359,58.05
54.375,58.27
54.390,58.79
54.406,58.39
54.421,55.79
54.437,50.06
54.453,40.9
54.468,28.84
54.484,15.11
54.500,1.34
54.515,-10.98
54.531,-20.94
54.546,-28.43
54.562,-34.05
54.578,-38.86
54.593,-44.0
54.609,-50.35
54.625,-58.25
54.640,-67.27
54.656,-76.2
54.671,-83.27
54.687,-86.58
54.703,-84.62
54.718,-76.74
54.734,-63.34
54.750,-45.69
54.765,-25.55
54.781,-4.8
54.796,14.94
54.812,32.37
54.828,46.51
54.843,56.69
54.859,62.55
54.875,64.05
54.890,61.59
54.906,55.84
54.921,47.78
54.937,38.46
54.953,28.87
54.968,19.79
54.984,11.65
55.000,4.64
55.015,-1.3
55.031,-6.36
55.046,-10.78
55.062,-14.75
55.078,-18.37
55.093,-21.68
55.109,-24.73
55.125,-27.59
55.140,-30.4
55.156,-33.31
55.171,-36.41
55.187,-39.68
55.203,-43.03
55.218,-46.33
55.234,-49.49
55.250,-52.6
55.265,-55.88
55.281,-59.63
55.296,-64.09
55.312,-69.37
55.328,-75.43
55.343,-82.12
55.359,-89.12
55.375,-95.87
55.390,-101.45
55.406,-104.65
55.421,-104.16
55.437,-98.99
55.453,-88.85
55.468,-74.31
55.484,-56.74
55.500,-37.9
55.515,-19.47
55.531,-2.69
55.546,11.68
55.562,23.36
55.578,32.36
55.593,38.78
55.609,42.89
55.625,45.07
55.640,45.88
55.656,45.97
55.671,45.99
55.687,46.39
55.703,47.28
55.718,48.53
55.734,49.69
55.750,50.32
55.765,50.04
55.781,48.74
55.796,46.48
55.812,43.47
55.828,39.94
55.843,35.97
55.859,31.57
55.875,26.65
55.890,21.14
55.906,15.1
55.921,8.66
55.937,2.08
55.953,-4.34
55.968,-10.38
55.984,-15.93
56.000,-21.0
56.015,-25.77
56.031,-30.54
56.046,-35.65
56.062,-41.49
56.078,-48.23
56.093,-55.8
56.109,-63.64
56.125,-70.77
56.140,-75.82
56.156,-77.47
56.171,-74.73
56.187,-67.32
56.203,-55.85
56.218,-41.55
56.234,-26.03
56.250,-10.75
56.265,3.18
56.281,15.17
56.296,24.99
56.312,32.65
56.328,38.23
56.343,41.85
56.359,43.72
56.375,44.19
56.390,43.78
56.406,43.05
56.421,42.43
56.437,42.14
56.453,42.18
56.468,42.29
56.484,42.17
56.500,41.51
56.515,40.19
56.531,38.24
56.546,35.85
56.562,33.28
56.578,30.76
56.593,28.36
56.609,25.94
56.625,23.27
56.640,20.09
56.656,16.24
56.671,11.71
56.687,6.66
56.703,1.36
56.718,-3.95
56.734,-9.09
56.750,-14.03
56.765,-18.8
56.781,-23.51
56.796,-28.36
56.812,-33.53
56.828,-39.15
56.843,-45.09
56.859,-50.89
56.875,-55.62
56.890,-58.05
56.906,-56.99
56.921,-51.69
56.937,-42.16
56.953,-29.16
56.968,-14.06
56.984,1.63
57.000,16.57
57.015,29.87
57.031,41.12
57.046,50.17
57.062,57.04
57.078,61.78
57.093,64.56
57.109,65.61
57.125,65.4
57.140,64.45
57.156,63.31
57.171,62.37
57.187,61.83
57.203,61.66
57.218,61.69
57.234,61.76
57.250,61.65
57.265,61.26
57.281,60.52
57.296,59.36
57.312,57.81
57.328,55.84
57.343,53.53
57.359,50.89
57.375,48.07
57.390,45.12
57.406,42.15
57.421,39.23
57.437,36.37
57.453,33.64
57.468,30.96
57.484,28.29
57.500,25.54
57.515,22.7
57.531,19.82
57.546,17.04
57.562,14.52
57.578,12.37
57.593,10.71
57.609,9.42
57.625,8.39
57.640,7.41
57.656,6.28
57.671,4.86
57.687,3.15
57.703,1.19
57.718,-0.88
57.734,-2.88
57.750,-4.71
57.765,-6.23
57.781,-7.39
57.796,-8.15
57.812,-8.51
57.828,-8.5
57.843,-8.21
57.859,-7.9
57.875,-7.86
57.890,-8.41
57.906,-9.76
57.921,-11.93
57.937,-14.75
57.953,-17.92
57.968,-21.13
57.984,-24.15
58.000,-26.91
58.015,-29.45
58.031,-31.89
58.046,-34.26
58.062,-36.56
58.078,-38.74
58.093,-40.73
58.109,-42.65
58.125,-44.75
58.140,-47.36
58.156,-50.75
58.171,-55.02
58.187,-59.93
58.203,-65.04
58.218,-69.87
58.234,-74.05
58.250,-77.59
58.265,-80.85
58.281,-84.4
58.296,-88.85
58.312,-94.55
58.328,-101.28
58.343,-108.15
58.359,-113.67
58.375,-116.09
58.390,-113.9
58.406,-106.29
58.421,-93.47
58.437,-76.58
58.453,-57.39
58.468,-37.78
58.484,-19.32
58.500,-3.11
58.515,10.26
58.531,20.58
58.546,27.87
58.562,32.42
58.578,34.76
58.593,35.66
58.609,36.03
58.625,36.68
58.640,38.03
58.656,40.05
58.671,42.28
58.687,44.08
58.703,45.05
58.718,45.16
58.734,44.85
58.750,44.74
58.765,45.32
58.781,46.69
58.796,48.49
58.812,49.97
58.828,50.41
58.843,49.43
58.859,47.17
58.875,44.26
58.890,41.62
58.906,40.06
58.921,39.99
58.937,41.19
58.953,42.91
58.968,44.09
58.984,43.94
59.000,42.2
59.015,39.5
59.031,37.04
59.046,36.35
59.062,38.8
59.078,45.23
59.093,55.74
59.109,69.77
59.125,86.26
59.140,103.95
59.156,121.65
59.171,138.55
59.187,154.66
59.203,170.96
59.218,189.1
59.234,210.34
59.250,234.28
59.265,258.04
59.281,276.56
59.296,284.24
59.312,277.08
59.328,254.39
59.343,219.08
59.359,176.26
59.375,131.23
59.390,87.6
59.406,46.71
59.421,8.11
59.437,-29.28
59.453,-66.21
59.468,-102.72
59.484,-138.33
59.500,-172.45
59.515,-204.42
59.531,-233.46
59.546,-258.32
59.562,-277.35
59.578,-288.7
59.593,-291.0
59.609,-284.05
59.625,-269.3
59.640,-249.89
59.656,-229.91
59.671,-213.47
59.687,-203.33
59.703,-200.01
59.718,-201.62
59.734,-204.4
59.750,-204.03
59.765,-197.01
59.781,-181.72
59.796,-158.69
59.812,-130.25
59.828,-99.57
59.843,-69.64
59.859,-42.7
59.875,-19.94
59.890,-1.76
59.906,11.92
59.921,21.26
59.937,26.47
59.953,27.67
59.968,25.19
59.984,19.79
