timestamp,value
00.000,-14.65
00.015,5.36
00.031,21.61
00.046,33.03
00.062,39.18
00.078,40.38
00.093,37.68
00.109,32.48
00.125,26.09
00.140,19.33
00.156,12.45
00.171,5.41
00.187,-1.92
00.203,-9.38
00.218,-16.58
00.234,-22.98
00.250,-28.18
00.265,-32.09
00.281,-35.02
00.296,-37.64
00.312,-40.86
00.328,-45.7
00.343,-53.04
00.359,-63.41
00.375,-76.68
00.390,-91.77
00.406,-106.61
00.421,-118.45
00.437,-124.59
00.453,-123.2
00.468,-113.9
00.484,-97.91
00.500,-77.54
00.515,-55.34
00.531,-33.41
00.546,-13.08
00.562,5.08
00.578,20.75
00.593,33.7
00.609,43.63
00.625,50.47
00.640,54.54
00.656,56.56
00.671,57.41
00.687,57.74
00.703,57.74
00.718,57.03
00.734,55.02
00.750,51.16
00.765,45.34
00.781,37.94
00.796,29.72
00.812,21.48
00.828,13.84
00.843,6.99
00.859,0.72
00.875,-5.51
00.890,-12.43
00.906,-20.78
00.921,-31.09
00.937,-43.46
00.953,-57.26
00.968,-71.03
00.984,-82.62
01.000,-89.68
01.015,-90.31
01.031,-83.69
01.046,-70.32
01.062,-51.87
01.078,-30.52
01.093,-8.36
01.109,13.02
01.125,32.64
01.140,49.89
01.156,64.3
01.171,75.4
01.187,82.77
01.203,86.27
01.218,86.26
01.234,83.61
01.250,79.56
01.265,75.35
01.281,71.93
01.296,69.66
01.312,68.33
01.328,67.39
01.343,66.25
01.359,64.55
01.375,62.3
01.390,59.72
01.406,57.04
01.421,54.3
01.437,51.31
01.453,47.7
01.468,43.12
01.484,37.47
01.500,31.04
01.515,24.59
01.531,19.29
01.546,16.57
01.562,17.69
01.578,23.53
01.593,34.27
01.609,49.34
01.625,67.69
01.640,87.93
01.656,108.62
01.671,128.32
01.687,145.58
01.703,158.93
01.718,167.11
01.734,169.19
01.750,165.0
01.765,155.13
01.781,140.9
01.796,123.98
01.812,106.06
01.828,88.47
01.843,72.02
01.859,56.98
01.875,43.3
01.890,30.84
01.906,19.61
01.921,9.93
01.937,2.27
01.953,-3.12
01.968,-6.58
01.984,-9.28
02.000,-13.16
02.015,-20.43
02.031,-32.85
02.046,-51.07
02.062,-74.28
02.078,-100.33
02.093,-126.26
02.109,-148.99
02.125,-165.97
02.140,-175.52
02.156,-176.95
02.171,-170.57
02.187,-157.58
02.203,-140.02
02.218,-120.59
02.234,-102.3
02.250,-87.99
02.265,-79.6
02.281,-77.73
02.296,-81.59
02.312,-89.21
02.328,-98.23
02.343,-106.63
02.359,-113.2
02.375,-117.77
02.390,-120.85
02.406,-123.12
02.421,-124.97
02.437,-126.25
02.453,-126.37
02.468,-124.65
02.484,-120.82
02.500,-115.27
02.515,-109.06
02.531,-103.58
02.546,-100.09
02.562,-99.29
02.578,-101.15
02.593,-104.8
02.609,-108.75
02.625,-111.14
02.640,-110.09
02.656,-104.12
02.671,-92.56
02.687,-75.83
02.703,-55.36
02.718,-33.32
02.734,-12.0
02.750,6.72
02.765,21.76
02.781,32.82
02.796,40.19
02.812,44.42
02.828,46.17
02.843,46.12
02.859,45.08
02.875,43.98
02.890,43.72
02.906,44.97
02.921,47.98
02.937,52.44
02.953,57.65
02.968,62.68
02.984,66.64
03.000,68.84
03.015,68.96
03.031,66.97
03.046,63.12
03.062,57.82
03.078,51.5
03.093,44.4
03.109,36.54
03.125,27.75
03.140,18.0
03.156,7.74
03.171,-1.8
03.187,-8.7
03.203,-10.73
03.218,-6.07
03.234,6.03
03.250,24.76
03.265,47.85
03.281,72.03
03.296,93.76
03.312,109.93
03.328,118.49
03.343,118.51
03.359,110.14
03.375,94.32
03.390,72.53
03.406,46.53
03.421,18.24
03.437,-10.38
03.453,-37.56
03.468,-61.74
03.484,-81.86
03.500,-97.3
03.515,-107.83
03.531,-113.44
03.546,-114.33
03.562,-110.88
03.578,-103.81
03.593,-94.29
03.609,-83.81
03.625,-74.02
03.640,-66.32
03.656,-61.56
03.671,-59.85
03.687,-60.47
03.703,-61.97
03.718,-62.45
03.734,-59.89
03.750,-52.57
03.765,-39.58
03.781,-21.09
03.796,1.59
03.812,26.35
03.828,50.7
03.843,72.49
03.859,90.14
03.875,102.85
03.890,110.47
03.906,113.2
03.921,111.39
03.937,105.39
03.953,95.64
03.968,82.73
03.984,67.57
04.000,51.35
04.015,35.43
04.031,21.1
04.046,9.37
04.062,0.95
04.078,-3.72
04.093,-4.37
04.109,-0.99
04.125,5.98
04.140,15.39
04.156,25.38
04.171,33.66
04.187,38.12
04.203,37.63
04.218,32.4
04.234,24.06
04.250,15.12
04.265,8.33
04.281,5.94
04.296,9.26
04.312,18.57
04.328,33.04
04.343,51.01
04.359,70.2
04.375,87.97
04.390,101.66
04.406,109.03
04.421,108.66
04.437,100.23
04.453,84.68
04.468,64.01
04.484,40.88
04.500,18.05
04.515,-2.11
04.531,-18.13
04.546,-29.51
04.562,-36.63
04.578,-40.44
04.593,-42.0
04.609,-42.17
04.625,-41.35
04.640,-39.5
04.656,-36.19
04.671,-30.85
04.687,-23.12
04.703,-13.11
04.718,-1.61
04.734,10.0
04.750,20.02
04.765,26.99
04.781,30.24
04.796,30.3
04.812,28.94
04.828,28.65
04.843,31.88
04.859,40.17
04.875,53.6
04.890,70.77
04.906,89.22
04.921,106.11
04.937,118.79
04.953,125.19
04.968,123.92
04.984,114.3
05.000,96.36
05.015,71.06
05.031,40.36
05.046,7.17
05.062,-25.16
05.078,-53.61
05.093,-76.11
05.109,-91.89
05.125,-101.31
05.140,-105.38
05.156,-105.27
05.171,-101.93
05.187,-95.95
05.203,-87.71
05.218,-77.41
05.234,-65.18
05.250,-51.24
05.265,-36.0
05.281,-20.32
05.296,-5.63
05.312,6.36
05.328,14.04
05.343,16.59
05.359,14.48
05.375,9.49
05.390,4.26
05.406,1.41
05.421,2.66
05.437,8.36
05.453,17.43
05.468,27.91
05.484,37.51
05.500,44.17
05.515,46.43
05.531,43.49
05.546,35.28
05.562,22.59
05.578,7.13
05.593,-8.55
05.609,-21.48
05.625,-28.98
05.640,-29.43
05.656,-22.69
05.671,-10.19
05.687,5.64
05.703,21.98
05.718,36.4
05.734,47.32
05.750,54.23
05.765,57.71
05.781,59.1
05.796,60.08
05.812,62.12
05.828,65.96
05.843,71.31
05.859,77.02
05.875,81.67
05.890,84.34
05.906,85.31
05.921,86.13
05.937,89.19
05.953,96.74
05.968,109.99
05.984,128.44
06.000,149.86
06.015,170.95
06.031,188.09
06.046,198.2
06.062,199.22
06.078,190.24
06.093,171.42
06.109,143.83
06.125,109.28
06.140,70.08
06.156,28.96
06.171,-11.36
06.187,-48.37
06.203,-80.07
06.218,-105.24
06.234,-123.37
06.250,-134.67
06.265,-139.82
06.281,-139.7
06.296,-135.06
06.312,-126.38
06.328,-113.77
06.343,-97.23
06.359,-76.98
06.375,-53.78
06.390,-29.13
06.406,-5.04
06.421,16.42
06.437,33.76
06.453,46.51
06.468,55.39
06.484,62.01
06.500,68.26
06.515,75.66
06.531,84.72
06.546,94.78
06.562,104.23
06.578,111.01
06.593,113.32
06.609,110.13
06.625,101.29
06.640,87.31
06.656,69.0
06.671,47.14
06.687,22.42
06.703,-4.29
06.718,-31.69
06.734,-58.05
06.750,-81.35
06.765,-99.83
06.781,-112.42
06.796,-118.9
06.812,-119.85
06.828,-116.23
06.843,-109.01
06.859,-98.99
06.875,-86.62
06.890,-72.02
06.906,-55.14
06.921,-35.84
06.937,-14.33
06.953,8.49
06.968,30.81
06.984,50.2
07.000,64.34
07.015,72.08
07.031,74.37
07.046,74.26
07.062,76.12
07.078,84.06
07.093,100.42
07.109,124.88
07.125,154.63
07.140,185.39
07.156,212.66
07.171,232.78
07.187,243.35
07.203,243.14
07.218,231.87
07.234,210.02
07.250,178.81
07.265,140.37
07.281,97.72
07.296,54.48
07.312,14.43
07.328,-19.25
07.343,-44.46
07.359,-60.5
07.375,-67.98
07.390,-68.46
07.406,-63.88
07.421,-56.13
07.437,-46.72
07.453,-36.76
07.468,-27.05
07.484,-18.19
07.500,-10.76
07.515,-5.47
07.531,-3.33
07.546,-5.6
07.562,-13.58
07.578,-27.99
07.593,-48.41
07.609,-73.05
07.625,-99.15
07.640,-123.94
07.656,-145.72
07.671,-164.42
07.687,-181.32
07.703,-197.92
07.718,-214.8
07.734,-230.96
07.750,-244.06
07.765,-251.44
07.781,-251.23
07.796,-243.01
07.812,-227.66
07.828,-206.86
07.843,-182.37
07.859,-155.82
07.875,-128.71
07.890,-102.57
07.906,-78.86
07.921,-58.6
07.937,-41.81
07.953,-27.33
07.968,-13.09
07.984,2.99
08.000,22.19
08.015,44.45
08.031,68.42
08.046,92.06
08.062,113.37
08.078,130.88
08.093,143.9
08.109,152.48
08.125,157.14
08.140,158.56
08.156,157.0
08.171,151.89
08.187,141.61
08.203,123.81
08.218,96.32
08.234,58.29
08.250,11.02
08.265,-41.94
08.281,-95.66
08.296,-145.12
08.312,-186.4
08.328,-217.14
08.343,-236.49
08.359,-244.6
08.375,-242.38
08.390,-231.48
08.406,-214.3
08.421,-193.82
08.437,-173.1
08.453,-154.58
08.468,-139.52
08.484,-127.97
08.500,-119.08
08.515,-111.83
08.531,-105.52
08.546,-100.0
08.562,-95.49
08.578,-92.16
08.593,-90.02
08.609,-88.7
08.625,-87.68
08.640,-86.33
08.656,-84.04
08.671,-80.2
08.687,-74.18
08.703,-65.4
08.718,-53.5
08.734,-38.47
08.750,-20.79
08.765,-1.33
08.781,18.84
08.796,38.62
08.812,57.09
08.828,73.6
08.843,87.69
08.859,99.12
08.875,107.78
08.890,113.73
08.906,117.21
08.921,118.58
08.937,118.26
08.953,116.58
08.968,113.66
08.984,109.39
09.000,103.47
09.015,95.63
09.031,85.85
09.046,74.63
09.062,63.01
09.078,52.51
09.093,44.59
09.109,40.29
09.125,39.8
09.140,42.34
09.156,46.38
09.171,50.12
09.187,51.98
09.203,50.93
09.218,46.73
09.234,39.88
09.250,31.44
09.265,22.7
09.281,14.91
09.296,8.96
09.312,5.14
09.328,3.15
09.343,2.27
09.359,1.65
09.375,0.72
09.390,-0.73
09.406,-2.37
09.421,-3.62
09.437,-3.83
09.453,-2.65
09.468,-0.15
09.484,3.18
09.500,6.66
09.515,9.68
09.531,11.96
09.546,13.63
09.562,15.2
09.578,17.28
09.593,20.41
09.609,24.84
09.625,30.54
09.640,37.28
09.656,44.73
09.671,52.59
09.687,60.61
09.703,68.62
09.718,76.41
09.734,83.63
09.750,89.66
09.765,93.7
09.781,94.91
09.796,92.76
09.812,87.28
09.828,79.12
09.843,69.6
09.859,60.3
09.875,52.72
09.890,47.9
09.906,46.04
09.921,46.49
09.937,47.96
09.953,48.89
09.968,47.85
09.984,43.96
10.000,36.89
10.015,26.82
10.031,14.25
10.046,-0.21
10.062,-15.96
10.078,-32.29
10.093,-48.41
10.109,-63.46
10.125,-76.62
10.140,-87.33
10.156,-95.29
10.171,-100.51
10.187,-103.14
10.203,-103.41
10.218,-101.54
10.234,-97.73
10.250,-92.12
10.265,-84.8
10.281,-75.84
10.296,-65.3
10.312,-53.36
10.328,-40.36
10.343,-26.75
10.359,-13.01
10.375,0.55
10.390,13.93
10.406,27.38
10.421,41.23
10.437,55.62
10.453,70.43
10.468,85.24
10.484,99.58
10.500,113.16
10.515,125.77
10.531,137.21
10.546,146.98
10.562,154.13
10.578,157.42
10.593,155.7
10.609,148.32
10.625,135.49
10.640,118.22
10.656,98.09
10.671,76.64
10.687,55.02
10.703,33.75
10.718,12.9
10.734,-7.59
10.750,-27.47
10.765,-45.99
10.781,-61.91
10.796,-73.94
10.812,-81.21
10.828,-83.73
10.843,-82.49
10.859,-79.12
10.875,-75.3
10.890,-72.16
10.906,-70.05
10.921,-68.52
10.937,-66.63
10.953,-63.22
10.968,-57.2
10.984,-47.81
11.000,-34.81
11.015,-18.71
11.031,-0.86
11.046,16.84
11.062,32.53
11.078,45.0
11.093,54.25
11.109,61.28
11.125,67.56
11.140,74.19
11.156,81.37
11.171,88.36
11.187,93.87
11.203,96.77
11.218,96.46
11.234,93.04
11.250,87.13
11.265,79.63
11.281,71.45
11.296,63.23
11.312,55.16
11.328,46.91
11.343,37.78
11.359,26.99
11.375,14.16
11.390,-0.53
11.406,-16.25
11.421,-31.89
11.437,-46.41
11.453,-58.95
11.468,-68.85
11.484,-75.26
11.500,-76.92
11.515,-72.39
11.531,-60.41
11.546,-40.52
11.562,-13.37
11.578,19.39
11.593,55.59
11.609,92.87
11.625,128.96
11.640,161.74
11.656,189.24
11.671,209.98
11.687,223.27
11.703,229.58
11.718,230.46
11.734,228.2
11.750,225.04
11.765,222.64
11.781,221.67
11.796,221.84
11.812,222.11
11.828,220.9
11.843,216.45
11.859,207.17
11.875,192.19
11.890,171.71
11.906,147.17
11.921,120.84
11.937,94.99
11.953,71.12
11.968,49.5
11.984,29.32
12.000,9.35
12.015,-11.34
12.031,-32.91
12.046,-54.97
12.062,-76.87
12.078,-98.35
12.093,-119.71
12.109,-141.8
12.125,-165.69
12.140,-192.49
12.156,-223.18
12.171,-258.43
12.187,-298.07
12.203,-340.45
12.218,-382.06
12.234,-417.95
12.250,-443.08
12.265,-454.17
12.281,-450.91
12.296,-436.08
12.312,-414.21
12.328,-389.62
12.343,-364.92
12.359,-340.77
12.375,-316.67
12.390,-292.33
12.406,-268.42
12.421,-246.33
12.437,-227.32
12.453,-211.63
12.468,-198.22
12.484,-185.41
12.500,-171.8
12.515,-156.96
12.531,-141.55
12.546,-127.06
12.562,-115.0
12.578,-106.34
12.593,-101.12
12.609,-98.37
12.625,-96.28
12.640,-92.71
12.656,-85.78
12.671,-74.39
12.687,-58.61
12.703,-39.52
12.718,-18.86
12.734,1.79
12.750,21.5
12.765,40.28
12.781,58.79
12.796,77.76
12.812,97.49
12.828,117.51
12.843,136.56
12.859,152.81
12.875,164.04
12.890,168.07
12.906,163.2
12.921,148.92
12.937,126.43
12.953,98.69
12.968,69.93
12.984,44.42
13.000,25.21
13.015,13.25
13.031,7.31
13.046,4.75
13.062,2.64
13.078,-1.27
13.093,-8.03
13.109,-17.54
13.125,-29.0
13.140,-41.27
13.156,-53.26
13.171,-64.06
13.187,-73.11
13.203,-80.28
13.218,-85.93
13.234,-90.77
13.250,-95.51
13.265,-100.43
13.281,-105.04
13.296,-108.1
13.312,-108.09
13.328,-103.73
13.343,-94.72
13.359,-81.82
13.375,-66.66
13.390,-51.13
13.406,-36.78
13.421,-24.29
13.437,-13.54
13.453,-3.92
13.468,5.28
13.484,14.41
13.500,23.38
13.515,31.65
13.531,38.56
13.546,43.63
13.562,46.81
13.578,48.51
13.593,49.49
13.609,50.61
13.625,52.52
13.640,55.48
13.656,59.21
13.671,62.91
13.687,65.36
13.703,65.24
13.718,61.39
13.734,53.28
13.750,41.2
13.765,26.19
13.781,9.77
13.796,-6.56
13.812,-21.74
13.828,-35.35
13.843,-47.48
13.859,-58.3
13.875,-67.76
13.890,-75.33
13.906,-80.2
13.921,-81.52
13.937,-78.75
13.953,-71.93
13.968,-61.64
13.984,-48.86
14.000,-34.62
14.015,-19.96
14.031,-5.67
14.046,7.53
14.062,19.1
14.078,28.54
14.093,35.44
14.109,39.65
14.125,41.31
14.140,40.98
14.156,39.52
14.171,37.83
14.187,36.64
14.203,36.23
14.218,36.45
14.234,36.88
14.250,37.14
14.265,37.16
14.281,37.27
14.296,38.02
14.312,39.93
14.328,43.2
14.343,47.65
14.359,52.81
14.375,58.11
14.390,63.21
14.406,68.03
14.421,72.91
14.437,78.55
14.453,85.79
14.468,95.38
14.484,107.56
14.500,121.82
14.515,136.81
14.531,150.68
14.546,161.7
14.562,168.9
14.578,172.5
14.593,173.77
14.609,174.71
14.625,177.19
14.640,182.29
14.656,189.79
14.671,198.09
14.687,204.63
14.703,206.53
14.718,201.51
14.734,188.41
14.750,167.57
14.765,140.59
14.781,109.88
14.796,78.13
14.812,47.83
14.828,21.08
14.843,-0.58
14.859,-16.19
14.875,-25.63
14.890,-29.63
14.906,-29.83
14.921,-28.45
14.937,-27.69
14.953,-29.29
14.968,-34.2
14.984,-42.53
15.000,-53.86
15.015,-67.53
15.031,-82.93
15.046,-99.7
15.062,-117.8
15.078,-137.48
15.093,-159.13
15.109,-182.84
15.125,-207.9
15.140,-232.52
15.156,-253.97
15.171,-269.34
15.187,-276.62
15.203,-275.51
15.218,-267.49
15.234,-255.28
15.250,-241.59
15.265,-228.21
15.281,-215.61
15.296,-203.21
15.312,-190.0
15.328,-175.01
15.343,-157.46
15.359,-136.62
15.375,-111.81
15.390,-82.49
15.406,-48.8
15.421,-11.85
15.437,26.26
15.453,62.89
15.468,95.55
15.484,122.63
15.500,143.82
15.515,160.02
15.531,172.92
15.546,184.32
15.562,195.53
15.578,206.91
15.593,217.82
15.609,226.7
15.625,231.55
15.640,230.39
15.656,221.77
15.671,205.22
15.687,181.33
15.703,151.69
15.718,118.64
15.734,84.84
15.750,52.92
15.765,25.07
15.781,2.83
15.796,-13.1
15.812,-22.91
15.828,-27.46
15.843,-28.04
15.859,-25.96
15.875,-22.16
15.890,-17.03
15.906,-10.44
15.921,-1.87
15.937,9.23
15.953,23.11
15.968,39.47
15.984,57.35
16.000,75.25
16.015,91.44
16.031,104.43
16.046,113.39
16.062,118.35
16.078,120.16
16.093,120.16
16.109,119.71
16.125,119.91
16.140,121.39
16.156,124.48
16.171,129.29
16.187,135.88
16.203,144.15
16.218,153.74
16.234,164.07
16.250,174.39
16.265,184.02
16.281,192.54
16.296,199.89
16.312,206.32
16.328,212.28
16.343,218.35
16.359,225.03
16.375,232.71
16.390,241.48
16.406,250.95
16.421,260.09
16.437,267.31
16.453,270.79
16.468,269.0
16.484,261.25
16.500,247.91
16.515,230.41
16.531,210.74
16.546,190.93
16.562,172.52
16.578,156.37
16.593,142.65
16.609,131.03
16.625,120.93
16.640,111.69
16.656,102.64
16.671,93.2
16.687,82.93
16.703,71.58
16.718,59.07
16.734,45.42
16.750,30.63
16.765,14.67
16.781,-2.56
16.796,-21.05
16.812,-40.62
16.828,-60.81
16.843,-81.03
16.859,-100.68
16.875,-119.36
16.890,-136.94
16.906,-153.55
16.921,-169.54
16.937,-185.38
16.953,-201.66
16.968,-218.87
16.984,-237.1
17.000,-255.66
17.015,-272.93
17.031,-286.54
17.046,-294.15
17.062,-294.33
17.078,-287.24
17.093,-274.54
17.109,-258.68
17.125,-241.88
17.140,-225.45
17.156,-209.69
17.171,-194.53
17.187,-180.13
17.203,-167.22
17.218,-156.84
17.234,-149.68
17.250,-145.6
17.265,-143.54
17.281,-141.98
17.296,-139.7
17.312,-136.32
17.328,-132.34
17.343,-128.85
17.359,-126.88
17.375,-126.79
17.390,-128.13
17.406,-129.73
17.421,-130.22
17.437,-128.56
17.453,-124.53
17.468,-118.77
17.484,-112.57
17.500,-107.39
17.515,-104.37
17.531,-103.91
17.546,-105.52
17.562,-107.88
17.578,-109.21
17.593,-107.67
17.609,-101.8
17.625,-90.88
17.640,-75.07
17.656,-55.34
17.671,-33.25
17.687,-10.59
17.703,10.9
17.718,29.72
17.734,44.7
17.750,55.1
17.765,60.67
17.781,61.71
17.796,59.1
17.812,54.15
17.828,48.24
17.843,42.53
17.859,37.54
17.875,33.18
17.890,28.81
17.906,23.64
17.921,17.1
17.937,9.01
17.953,-0.29
17.968,-10.17
17.984,-19.92
18.000,-29.08
18.015,-37.55
18.031,-45.62
18.046,-53.91
18.062,-63.16
18.078,-73.97
18.093,-86.57
18.109,-100.63
18.125,-115.16
18.140,-128.65
18.156,-139.29
18.171,-145.51
18.187,-146.36
18.203,-141.81
18.218,-132.68
18.234,-120.34
18.250,-106.26
18.265,-91.64
18.281,-77.26
18.296,-63.59
18.312,-50.96
18.328,-39.76
18.343,-30.36
18.359,-22.97
18.375,-17.49
18.390,-13.41
18.406,-9.93
18.421,-6.33
18.437,-2.23
18.453,2.24
18.468,6.43
18.484,9.53
18.500,10.93
18.515,10.47
18.531,8.54
18.546,5.87
18.562,3.2
18.578,0.99
18.593,-0.72
18.609,-2.24
18.625,-4.08
18.640,-6.7
18.656,-10.47
18.671,-15.42
18.687,-21.14
18.703,-26.66
18.718,-30.55
18.734,-31.19
18.750,-27.25
18.765,-18.24
18.781,-4.63
18.796,12.19
18.812,30.32
18.828,47.96
18.843,63.76
18.859,76.92
18.875,87.09
18.890,94.13
18.906,98.03
18.921,98.92
18.937,97.15
18.953,93.34
18.968,88.33
18.984,82.93
19.000,77.76
19.015,73.05
19.031,68.65
19.046,64.16
19.062,59.18
19.078,53.47
19.093,47.14
19.109,40.56
19.125,34.27
19.140,28.73
19.156,24.11
19.171,20.21
19.187,16.47
19.203,12.16
19.218,6.49
19.234,-1.12
19.250,-10.91
19.265,-22.56
19.281,-35.05
19.296,-46.81
19.312,-55.96
19.328,-60.82
19.343,-60.39
19.359,-54.69
19.375,-44.65
19.390,-31.76
19.406,-17.63
19.421,-3.57
19.437,9.48
19.453,20.96
19.468,30.49
19.484,37.89
19.500,43.09
19.515,46.33
19.531,47.99
19.546,48.53
19.562,48.36
19.578,47.66
19.593,46.52
19.609,45.02
19.625,43.31
19.640,41.65
19.656,40.35
19.671,39.63
19.687,39.55
19.703,39.99
19.718,40.69
19.734,41.33
19.750,41.54
19.765,41.03
19.781,39.58
19.796,37.15
19.812,33.85
19.828,29.98
19.843,25.95
19.859,22.11
19.875,18.7
19.890,15.72
19.906,12.96
19.921,10.1
19.937,6.82
19.953,2.91
19.968,-1.68
19.984,-6.81
20.000,-12.28
20.015,-17.8
20.031,-23.12
20.046,-28.16
20.062,-32.9
20.078,-37.5
20.093,-42.15
20.109,-47.0
20.125,-52.04
20.140,-57.24
20.156,-62.49
20.171,-67.76
20.187,-73.18
20.203,-78.88
20.218,-85.01
20.234,-91.6
20.250,-98.48
20.265,-105.39
20.281,-112.07
20.296,-118.34
20.312,-124.18
20.328,-129.64
20.343,-134.81
20.359,-139.86
20.375,-145.02
20.390,-150.65
20.406,-157.21
20.421,-164.91
20.437,-173.38
20.453,-181.48
20.468,-187.28
20.484,-188.62
20.500,-183.78
20.515,-172.14
20.531,-154.42
20.546,-132.49
20.562,-108.66
20.578,-85.05
20.593,-63.14
20.609,-43.73
20.625,-27.19
20.640,-13.75
20.656,-3.63
20.671,3.05
20.687,6.49
20.703,7.36
20.718,6.77
20.734,5.91
20.750,5.75
20.765,6.62
20.781,8.26
20.796,9.95
20.812,10.87
20.828,10.52
20.843,8.9
20.859,6.45
20.875,3.79
20.890,1.44
20.906,-0.48
20.921,-2.29
20.937,-4.66
20.953,-8.34
20.968,-13.91
20.984,-21.59
21.000,-30.94
21.015,-40.87
21.031,-49.7
21.046,-55.48
21.062,-56.35
21.078,-51.07
21.093,-39.43
21.109,-22.27
21.125,-1.37
21.140,21.0
21.156,42.58
21.171,61.5
21.187,76.53
21.203,87.12
21.218,93.28
21.234,95.51
21.250,94.65
21.265,91.7
21.281,87.72
21.296,83.6
21.312,79.96
21.328,77.01
21.343,74.64
21.359,72.52
21.375,70.3
21.390,67.81
21.406,65.03
21.421,62.11
21.437,59.14
21.453,56.06
21.468,52.58
21.484,48.2
21.500,42.33
21.515,34.5
21.531,24.59
21.546,13.12
21.562,1.4
21.578,-8.6
21.593,-14.64
21.609,-14.86
21.625,-8.38
21.640,4.39
21.656,21.88
21.671,41.87
21.687,62.17
21.703,81.06
21.718,97.47
21.734,110.74
21.750,120.43
21.765,126.2
21.781,127.96
21.796,126.09
21.812,121.51
21.828,115.52
21.843,109.31
21.859,103.52
21.875,98.03
21.890,92.08
21.906,84.67
21.921,75.16
21.937,63.46
21.953,50.02
21.968,35.62
21.984,20.89
22.000,6.16
22.015,-8.62
22.031,-23.79
22.046,-39.8
22.062,-56.96
22.078,-75.19
22.093,-93.74
22.109,-111.1
22.125,-125.05
22.140,-133.13
22.156,-133.35
22.171,-124.88
22.187,-108.43
22.203,-86.1
22.218,-60.74
22.234,-35.21
22.250,-11.75
22.265,8.21
22.281,23.94
22.296,35.09
22.312,41.56
22.328,43.6
22.343,41.97
22.359,37.93
22.375,33.05
22.390,28.72
22.406,25.7
22.421,23.93
22.437,22.62
22.453,20.74
22.468,17.48
22.484,12.6
22.500,6.38
22.515,-0.58
22.531,-7.69
22.546,-14.68
22.562,-21.7
22.578,-29.27
22.593,-38.16
22.609,-49.18
22.625,-62.82
22.640,-78.86
22.656,-96.07
22.671,-112.18
22.687,-124.22
22.703,-129.3
22.718,-125.49
22.734,-112.45
22.750,-91.59
22.765,-65.58
22.781,-37.48
22.796,-10.04
22.812,14.81
22.828,35.95
22.843,52.74
22.859,64.83
22.875,72.09
22.890,74.79
22.906,73.8
22.921,70.55
22.937,66.71
22.953,63.7
22.968,62.23
22.984,62.1
23.000,62.38
23.015,61.87
23.031,59.68
23.046,55.55
23.062,49.94
23.078,43.75
23.093,37.85
23.109,32.76
23.125,28.5
23.140,24.61
23.156,20.39
23.171,15.15
23.187,8.49
23.203,0.55
23.218,-7.86
23.234,-15.19
23.250,-19.4
23.265,-18.48
23.281,-11.05
23.296,3.12
23.312,22.95
23.328,46.36
23.343,70.83
23.359,93.97
23.375,113.94
23.390,129.48
23.406,139.77
23.421,144.44
23.437,143.57
23.453,137.95
23.468,129.12
23.484,119.08
23.500,109.74
23.515,102.35
23.531,97.11
23.546,93.24
23.562,89.39
23.578,84.31
23.593,77.27
23.609,68.27
23.625,57.87
23.640,46.85
23.656,35.84
23.671,25.15
23.687,14.68
23.703,4.02
23.718,-7.5
23.734,-20.53
23.750,-35.38
23.765,-51.58
23.781,-67.66
23.796,-81.28
23.812,-89.74
23.828,-90.86
23.843,-83.76
23.859,-69.13
23.875,-49.01
23.890,-26.11
23.906,-3.04
23.921,18.13
23.937,35.97
23.953,49.55
23.968,58.29
23.984,61.93
24.000,60.8
24.015,55.83
24.031,48.55
24.046,40.64
24.062,33.37
24.078,27.19
24.093,21.74
24.109,16.06
24.125,9.2
24.140,0.66
24.156,-9.36
24.171,-20.14
24.187,-30.74
24.203,-40.46
24.218,-49.14
24.234,-57.1
24.250,-65.05
24.265,-73.75
24.281,-83.81
24.296,-95.49
24.312,-108.54
24.328,-121.98
24.343,-134.15
24.359,-142.78
24.375,-145.54
24.390,-140.76
24.406,-127.98
24.421,-108.25
24.437,-83.9
24.453,-57.78
24.468,-32.53
24.484,-10.07
24.500,8.56
24.515,22.93
24.531,32.92
24.546,38.62
24.562,40.34
24.578,38.73
24.593,34.82
24.609,29.83
24.625,24.93
24.640,20.89
24.656,18.04
24.671,16.21
24.687,14.97
24.703,13.78
24.718,12.15
24.734,9.84
24.750,6.82
24.765,3.3
24.781,-0.47
24.796,-4.36
24.812,-8.46
24.828,-13.11
24.843,-18.82
24.859,-26.13
24.875,-35.32
24.890,-46.24
24.906,-57.97
24.921,-68.85
24.937,-76.65
24.953,-79.07
24.968,-74.43
24.984,-62.26
25.000,-43.51
25.015,-20.26
25.031,4.89
25.046,29.57
25.062,51.98
25.078,71.02
25.093,85.98
25.109,96.39
25.125,102.03
25.140,103.09
25.156,100.37
25.171,95.26
25.187,89.4
25.203,84.07
25.218,79.88
25.234,76.55
25.250,73.24
25.265,68.98
25.281,63.25
25.296,56.07
25.312,47.97
25.328,39.71
25.343,31.93
25.359,25.05
25.375,19.16
25.390,14.08
25.406,9.42
25.421,4.64
25.437,-0.91
25.453,-7.84
25.468,-16.41
25.484,-26.32
25.500,-36.46
25.515,-44.96
25.531,-49.64
25.546,-48.52
25.562,-40.5
25.578,-25.68
25.593,-5.34
25.609,18.47
25.625,43.52
25.640,67.81
25.656,89.74
25.671,108.07
25.687,121.71
25.703,129.75
25.718,131.64
25.734,127.52
25.750,118.49
25.765,106.5
25.781,93.91
25.796,82.81
25.812,74.4
25.828,68.73
25.843,64.94
25.859,61.75
25.875,58.17
25.890,53.85
25.906,49.07
25.921,44.43
25.937,40.35
25.953,36.79
25.968,33.17
25.984,28.57
26.000,21.99
26.015,12.73
26.031,0.61
26.046,-13.82
26.062,-29.17
26.078,-43.32
26.093,-53.85
26.109,-58.62
26.125,-56.42
26.140,-47.4
26.156,-32.94
26.171,-15.16
26.187,3.72
26.203,21.94
26.218,38.3
26.234,52.01
26.250,62.4
26.265,68.87
26.281,70.92
26.296,68.58
26.312,62.54
26.328,54.1
26.343,44.8
26.359,35.93
26.375,28.18
26.390,21.51
26.406,15.4
26.421,9.15
26.437,2.29
26.453,-5.33
26.468,-13.5
26.484,-21.86
26.500,-30.12
26.515,-38.11
26.531,-45.9
26.546,-53.62
26.562,-61.53
26.578,-69.89
26.593,-79.03
26.609,-89.2
26.625,-100.42
26.640,-112.07
26.656,-122.73
26.671,-130.34
26.687,-132.58
26.703,-127.76
26.718,-115.38
26.734,-96.43
26.750,-72.99
26.765,-47.64
26.781,-22.67
26.796,0.33
26.812,20.5
26.828,37.44
26.843,50.88
26.859,60.57
26.875,66.32
26.890,68.28
26.906,67.03
26.921,63.63
26.937,59.38
26.953,55.51
26.968,52.83
26.984,51.59
27.000,51.47
27.015,51.76
27.031,51.68
27.046,50.66
27.062,48.57
27.078,45.58
27.093,42.0
27.109,38.0
27.125,33.43
27.140,27.89
27.156,20.91
27.171,12.09
27.187,1.25
27.203,-11.63
27.218,-26.41
27.234,-42.67
27.250,-59.45
27.265,-75.11
27.281,-87.36
27.296,-93.86
27.312,-92.95
27.328,-84.34
27.343,-69.35
27.359,-50.52
27.375,-30.9
27.390,-13.16
27.406,0.87
27.421,10.37
27.437,15.35
27.453,16.22
27.468,13.63
27.484,8.32
27.500,1.06
27.515,-7.23
27.531,-15.54
27.546,-22.92
27.562,-28.58
27.578,-32.17
27.593,-33.9
27.609,-34.5
27.625,-35.06
27.640,-36.75
27.656,-40.47
27.671,-46.63
27.687,-55.11
27.703,-65.34
27.718,-76.53
27.734,-87.85
27.750,-98.66
27.765,-108.58
27.781,-117.58
27.796,-125.93
27.812,-134.11
27.828,-142.5
27.843,-150.97
27.859,-158.63
27.875,-163.7
27.890,-163.98
27.906,-157.45
27.921,-143.13
27.937,-121.46
27.953,-94.33
27.968,-64.43
27.984,-34.51
28.000,-6.7
28.015,17.82
28.031,38.6
28.046,55.59
28.062,68.93
28.078,78.79
28.093,85.6
28.109,90.02
28.125,93.0
28.140,95.48
28.156,98.11
28.171,101.05
28.187,103.96
28.203,106.18
28.218,107.07
28.234,106.23
28.250,103.68
28.265,99.83
28.281,95.2
28.296,90.31
28.312,85.43
28.328,80.58
28.343,75.57
28.359,70.11
28.375,63.88
28.390,56.52
28.406,47.75
28.421,37.39
28.437,25.67
28.453,13.37
28.468,1.86
28.484,-7.14
28.500,-12.07
28.515,-12.07
28.531,-7.18
28.546,1.6
28.562,12.78
28.578,24.74
28.593,36.09
28.609,45.75
28.625,52.89
28.640,56.93
28.656,57.54
28.671,54.78
28.687,49.21
28.703,41.85
28.718,33.98
28.734,26.88
28.750,21.59
28.765,18.74
28.781,18.42
28.796,20.23
28.812,23.3
28.828,26.58
28.843,29.06
28.859,30.05
28.875,29.34
28.890,27.11
28.906,23.82
28.921,19.86
28.937,15.39
28.953,10.27
28.968,4.22
28.984,-3.0
29.000,-11.5
29.015,-21.23
29.031,-31.96
29.046,-43.26
29.062,-54.37
29.078,-64.08
29.093,-70.79
29.109,-72.73
29.125,-68.49
29.140,-57.62
29.156,-40.86
29.171,-20.17
29.187,1.87
29.203,22.69
29.218,40.39
29.234,54.01
29.250,63.46
29.265,69.23
29.281,72.01
29.296,72.49
29.312,71.35
29.328,69.23
29.343,66.77
29.359,64.53
29.375,62.87
29.390,61.8
29.406,61.04
29.421,60.08
29.437,58.48
29.453,55.96
29.468,52.52
29.484,48.31
29.500,43.6
29.515,38.52
29.531,33.13
29.546,27.44
29.562,21.45
29.578,15.31
29.593,9.24
29.609,3.54
29.625,-1.56
29.640,-5.87
29.656,-9.36
29.671,-12.02
29.687,-13.97
29.703,-15.34
29.718,-16.36
29.734,-17.3
29.750,-18.4
29.765,-19.85
29.781,-21.69
29.796,-23.85
29.812,-26.1
29.828,-28.2
29.843,-29.92
29.859,-31.13
29.875,-31.89
29.890,-32.45
29.906,-33.2
29.921,-34.55
29.937,-36.84
29.953,-40.17
29.968,-44.35
29.984,-49.06
30.000,-53.87
30.015,-58.53
30.031,-62.97
30.046,-67.37
30.062,-72.04
30.078,-77.25
30.093,-83.14
30.109,-89.58
30.125,-96.33
30.140,-103.04
30.156,-109.45
30.171,-115.45
30.187,-121.13
30.203,-126.69
30.218,-132.53
30.234,-139.18
30.250,-147.09
30.265,-156.32
30.281,-166.08
30.296,-174.54
30.312,-179.02
30.328,-176.77
30.343,-165.94
30.359,-146.37
30.375,-119.77
30.390,-89.23
30.406,-58.22
30.421,-29.67
30.437,-5.42
30.453,13.73
30.468,27.74
30.484,36.92
30.500,41.83
30.515,43.21
30.531,42.1
30.546,39.72
30.562,37.29
30.578,35.78
30.593,35.69
30.609,36.95
30.625,39.09
30.640,41.42
30.656,43.33
30.671,44.4
30.687,44.54
30.703,43.88
30.718,42.67
30.734,41.02
30.750,38.93
30.765,36.22
30.781,32.61
30.796,27.88
30.812,21.84
30.828,14.39
30.843,5.53
30.859,-4.57
30.875,-15.35
30.890,-25.78
30.906,-34.34
30.921,-39.31
30.937,-39.28
30.953,-33.62
30.968,-22.78
30.984,-8.2
31.000,8.16
31.015,24.33
31.031,38.82
31.046,50.68
31.062,59.43
31.078,64.87
31.093,66.97
31.109,65.93
31.125,62.32
31.140,57.1
31.156,51.44
31.171,46.35
31.187,42.35
31.203,39.31
31.218,36.66
31.234,33.6
31.250,29.65
31.265,24.65
31.281,18.91
31.296,12.84
31.312,6.73
31.328,0.57
31.343,-5.99
31.359,-13.58
31.375,-22.88
31.390,-34.33
31.406,-47.99
31.421,-63.27
31.437,-78.77
31.453,-92.5
31.468,-102.19
31.484,-105.86
31.500,-102.48
31.515,-92.24
31.531,-76.54
31.546,-57.48
31.562,-37.22
31.578,-17.39
31.593,1.18
31.609,18.21
31.625,33.65
31.640,47.25
31.656,58.46
31.671,66.7
31.687,71.72
31.703,73.88
31.718,74.1
31.734,73.52
31.750,73.0
31.765,72.84
31.781,72.69
31.796,71.85
31.812,69.74
31.828,66.16
31.843,61.47
31.859,56.34
31.875,51.37
31.890,46.8
31.906,42.28
31.921,37.03
31.937,30.1
31.953,20.73
31.968,8.55
31.984,-6.22
32.000,-22.75
32.015,-39.61
32.031,-54.93
32.046,-66.64
32.062,-72.81
32.078,-72.17
32.093,-64.46
32.109,-50.64
32.125,-32.67
32.140,-13.01
32.156,6.02
32.171,22.75
32.187,36.31
32.203,46.44
32.218,53.16
32.234,56.54
32.250,56.6
32.265,53.55
32.281,47.96
32.296,40.81
32.312,33.35
32.328,26.69
32.343,21.41
32.359,17.39
32.375,14.01
32.390,10.46
32.406,6.13
32.421,0.82
32.437,-5.38
32.453,-12.28
32.468,-19.81
32.484,-28.13
32.500,-37.5
32.515,-48.12
32.531,-59.99
32.546,-72.91
32.562,-86.55
32.578,-100.45
32.593,-113.86
32.609,-125.63
32.625,-134.11
32.640,-137.42
32.656,-133.95
32.671,-122.97
32.687,-105.01
32.703,-81.86
32.718,-56.05
32.734,-30.23
32.750,-6.54
32.765,13.63
32.781,29.54
32.796,40.8
32.812,47.13
32.828,48.4
32.843,44.73
32.859,36.75
32.875,25.56
32.890,12.61
32.906,-0.61
32.921,-12.86
32.937,-23.43
32.953,-32.16
32.968,-39.36
32.984,-45.52
33.000,-51.11
33.015,-56.4
33.031,-61.34
33.046,-65.76
33.062,-69.43
33.078,-72.31
33.093,-74.61
33.109,-76.77
33.125,-79.34
33.140,-82.85
33.156,-87.62
33.171,-93.51
33.187,-99.75
33.203,-104.87
33.218,-106.85
33.234,-103.6
33.250,-93.62
33.265,-76.61
33.281,-53.58
33.296,-26.67
33.312,1.64
33.328,29.17
33.343,54.47
33.359,76.78
33.375,95.83
33.390,111.48
33.406,123.66
33.421,132.5
33.437,138.49
33.453,142.56
33.468,145.79
33.484,149.14
33.500,153.04
33.515,157.27
33.531,161.04
33.546,163.37
33.562,163.4
33.578,160.78
33.593,155.65
33.609,148.67
33.625,140.66
33.640,132.36
33.656,124.14
33.671,115.89
33.687,107.08
33.703,96.99
33.718,84.9
33.734,70.3
33.750,53.18
33.765,34.16
33.781,14.6
33.796,-3.48
33.812,-17.82
33.828,-26.43
33.843,-28.21
33.859,-23.26
33.875,-12.86
33.890,1.04
33.906,16.42
33.921,31.78
33.937,46.3
33.953,59.74
33.968,72.1
33.984,83.29
34.000,93.11
34.015,101.17
34.031,107.14
34.046,110.79
34.062,112.08
34.078,111.14
34.093,108.18
34.109,103.42
34.125,97.09
34.140,89.39
34.156,80.54
34.171,70.7
34.187,60.01
34.203,48.54
34.218,36.27
34.234,23.16
34.250,9.23
34.265,-5.39
34.281,-20.38
34.296,-35.35
34.312,-49.95
34.328,-64.11
34.343,-77.99
34.359,-91.92
34.375,-106.02
34.390,-119.9
34.406,-132.43
34.421,-141.83
34.437,-146.19
34.453,-143.98
34.468,-134.63
34.484,-118.81
34.500,-98.2
34.515,-75.07
34.531,-51.76
34.546,-30.17
34.562,-11.63
34.578,3.14
34.593,13.86
34.609,20.58
34.625,23.57
34.640,23.36
34.656,20.76
34.671,16.77
34.687,12.36
34.703,8.36
34.718,5.22
34.734,3.04
34.750,1.57
34.765,0.35
34.781,-1.14
34.796,-3.33
34.812,-6.49
34.828,-10.76
34.843,-16.1
34.859,-22.32
34.875,-29.15
34.890,-36.22
34.906,-43.23
34.921,-49.96
34.937,-56.43
34.953,-62.94
34.968,-70.06
34.984,-78.4
35.000,-88.33
35.015,-99.59
35.031,-111.04
35.046,-120.7
35.062,-126.24
35.078,-125.67
35.093,-118.06
35.109,-103.88
35.125,-84.82
35.140,-63.33
35.156,-41.86
35.171,-22.26
35.187,-5.64
35.203,7.63
35.218,17.51
35.234,24.08
35.250,27.45
35.265,27.75
35.281,25.22
35.296,20.37
35.312,13.89
35.328,6.62
35.343,-0.65
35.359,-7.31
35.375,-13.04
35.390,-17.89
35.406,-22.18
35.421,-26.37
35.437,-30.87
35.453,-35.86
35.468,-41.27
35.484,-46.87
35.500,-52.38
35.515,-57.62
35.531,-62.53
35.546,-67.21
35.562,-71.84
35.578,-76.74
35.593,-82.3
35.609,-88.88
35.625,-96.58
35.640,-105.03
35.656,-113.1
35.671,-119.04
35.687,-120.81
35.703,-116.73
35.718,-106.12
35.734,-89.54
35.750,-68.77
35.765,-46.15
35.781,-24.0
35.796,-4.14
35.812,12.33
35.828,24.91
35.843,33.54
35.859,38.37
35.875,39.76
35.890,38.23
35.906,34.53
35.921,29.56
35.937,24.22
35.953,19.27
35.968,15.2
35.984,12.23
36.000,10.27
36.015,9.03
36.031,8.13
36.046,7.2
36.062,6.03
36.078,4.61
36.093,3.08
36.109,1.75
36.125,0.91
36.140,0.75
36.156,1.26
36.171,2.17
36.187,3.03
36.203,3.3
36.218,2.54
36.234,0.54
36.250,-2.42
36.265,-5.46
36.281,-7.25
36.296,-6.2
36.312,-0.92
36.328,9.4
36.343,24.67
36.359,43.95
36.375,65.73
36.390,88.33
36.406,110.31
36.421,130.72
36.437,149.04
36.453,165.02
36.468,178.36
36.484,188.6
36.500,195.15
36.515,197.58
36.531,195.81
36.546,190.35
36.562,182.28
36.578,172.93
36.593,163.52
36.609,154.8
36.625,146.93
36.640,139.58
36.656,132.27
36.671,124.61
36.687,116.53
36.703,108.19
36.718,99.92
36.734,91.98
36.750,84.56
36.765,77.72
36.781,71.41
36.796,65.52
36.812,59.96
36.828,54.69
36.843,49.76
36.859,45.23
36.875,41.14
36.890,37.42
36.906,33.88
36.921,30.31
36.937,26.53
36.953,22.53
36.968,18.45
36.984,14.5
37.000,10.79
37.015,7.31
37.031,3.91
37.046,0.41
37.062,-3.32
37.078,-7.35
37.093,-11.75
37.109,-16.62
37.125,-22.13
37.140,-28.46
37.156,-35.72
37.171,-43.91
37.187,-52.97
37.203,-62.79
37.218,-73.3
37.234,-84.39
37.250,-95.91
37.265,-107.58
37.281,-119.03
37.296,-129.73
37.312,-139.21
37.328,-147.08
37.343,-153.09
37.359,-157.13
37.375,-159.27
37.390,-159.71
37.406,-158.74
37.421,-156.81
37.437,-154.32
37.453,-151.73
37.468,-149.41
37.484,-147.73
37.500,-147.03
37.515,-147.45
37.531,-148.86
37.546,-150.51
37.562,-151.02
37.578,-148.52
37.593,-141.22
37.609,-128.02
37.625,-108.88
37.640,-85.03
37.656,-58.55
37.671,-31.79
37.687,-6.71
37.703,15.4
37.718,33.96
37.734,48.87
37.750,60.17
37.765,67.99
37.781,72.51
37.796,74.15
37.812,73.55
37.828,71.57
37.843,69.1
37.859,66.83
37.875,65.11
37.890,63.94
37.906,63.13
37.921,62.34
37.937,61.29
37.953,59.74
37.968,57.53
37.984,54.51
38.000,50.64
38.015,46.01
38.031,40.9
38.046,35.78
38.062,31.1
38.078,27.19
38.093,23.98
38.109,21.06
38.125,17.83
38.140,13.77
38.156,8.78
38.171,3.38
38.187,-1.31
38.203,-3.86
38.218,-2.99
38.234,2.05
38.250,11.2
38.265,23.58
38.281,37.77
38.296,52.21
38.312,65.5
38.328,76.76
38.343,85.48
38.359,91.53
38.375,94.93
38.390,95.79
38.406,94.41
38.421,91.34
38.437,87.46
38.453,83.73
38.468,81.07
38.484,79.92
38.500,80.13
38.515,81.09
38.531,82.02
38.546,82.35
38.562,81.94
38.578,81.06
38.593,80.09
38.609,79.14
38.625,77.85
38.640,75.45
38.656,71.09
38.671,64.12
38.687,54.34
38.703,42.07
38.718,27.94
38.734,12.9
38.750,-1.97
38.765,-15.45
38.781,-26.32
38.796,-33.61
38.812,-36.8
38.828,-36.02
38.843,-32.04
38.859,-26.08
38.875,-19.5
38.890,-13.59
38.906,-9.39
38.921,-7.7
38.937,-9.04
38.953,-13.61
38.968,-21.2
38.984,-31.06
39.000,-42.05
39.015,-52.69
39.031,-61.5
39.046,-67.25
39.062,-69.23
39.078,-67.37
39.093,-62.24
39.109,-54.82
39.125,-46.24
39.140,-37.39
39.156,-28.63
39.171,-19.68
39.187,-9.79
39.203,1.94
39.218,15.92
39.234,31.67
39.250,47.61
39.265,61.35
39.281,70.4
39.296,72.97
39.312,68.64
39.328,58.66
39.343,45.53
39.359,32.24
39.375,21.42
39.390,14.56
39.406,11.82
39.421,12.21
39.437,14.11
39.453,15.85
39.468,16.09
39.484,13.9
39.500,8.67
39.515,0.06
39.531,-12.01
39.546,-27.3
39.562,-45.21
39.578,-64.83
39.593,-85.34
39.609,-106.18
39.625,-127.18
39.640,-148.23
39.656,-168.86
39.671,-187.88
39.687,-203.46
39.703,-213.58
39.718,-216.69
39.734,-212.23
39.750,-200.81
39.765,-183.96
39.781,-163.69
39.796,-142.07
39.812,-120.96
39.828,-101.97
39.843,-86.31
39.859,-74.74
39.875,-67.38
39.890,-63.65
39.906,-62.23
39.921,-61.3
39.937,-58.89
39.953,-53.44
39.968,-44.12
39.984,-31.02
40.000,-15.09
40.015,2.25
40.031,19.6
40.046,35.86
40.062,50.27
40.078,62.37
40.093,71.63
40.109,77.42
40.125,79.1
40.140,76.39
40.156,69.58
40.171,59.73
40.187,48.38
40.203,37.22
40.218,27.67
40.234,20.64
40.250,16.42
40.265,14.67
40.281,14.61
40.296,15.3
40.312,15.93
40.328,16.2
40.343,16.47
40.359,17.71
40.375,21.09
40.390,27.37
40.406,36.31
40.421,46.63
40.437,56.42
40.453,63.95
40.468,68.56
40.484,70.99
40.500,73.23
40.515,77.66
40.531,86.07
40.546,99.02
40.562,115.61
40.578,133.9
40.593,151.47
40.609,166.01
40.625,175.59
40.640,178.86
40.656,174.98
40.671,163.75
40.687,145.6
40.703,121.6
40.718,93.32
40.734,62.6
40.750,31.25
40.765,0.77
40.781,-27.67
40.796,-53.31
40.812,-75.64
40.828,-94.49
40.843,-109.93
40.859,-122.25
40.875,-131.91
40.890,-139.22
40.906,-144.28
40.921,-146.74
40.937,-145.96
40.953,-141.23
40.968,-132.14
40.984,-118.85
41.000,-102.16
41.015,-83.25
41.031,-63.32
41.046,-43.2
41.062,-23.24
41.078,-3.37
41.093,16.61
41.109,36.79
41.125,56.95
41.140,76.56
41.156,94.77
41.171,110.65
41.187,123.15
41.203,131.36
41.218,134.49
41.234,132.14
41.250,124.28
41.265,111.33
41.281,94.06
41.296,73.5
41.312,50.94
41.328,27.77
41.343,5.48
41.359,-14.48
41.375,-30.93
41.390,-43.23
41.406,-51.49
41.421,-56.62
41.437,-60.09
41.453,-63.52
41.468,-68.26
41.484,-74.94
41.500,-83.41
41.515,-92.73
41.531,-101.34
41.546,-107.4
41.562,-109.03
41.578,-104.71
41.593,-93.55
41.609,-75.55
41.625,-51.73
41.640,-23.94
41.656,5.48
41.671,34.23
41.687,60.55
41.703,83.48
41.718,102.74
41.734,118.51
41.750,130.98
41.765,140.06
41.781,145.41
41.796,146.56
41.812,143.11
41.828,134.93
41.843,122.17
41.859,105.09
41.875,84.05
41.890,59.66
41.906,32.96
41.921,5.49
41.937,-20.78
41.953,-43.86
41.968,-62.25
41.984,-75.32
42.000,-83.48
42.015,-87.98
42.031,-90.53
42.046,-92.67
42.062,-95.27
42.078,-97.98
42.093,-99.2
42.109,-96.3
42.125,-86.59
42.140,-68.38
42.156,-41.94
42.171,-9.74
42.187,24.31
42.203,56.28
42.218,83.61
42.234,105.85
42.250,124.22
42.265,140.41
42.281,155.27
42.296,168.14
42.312,177.17
42.328,180.33
42.343,176.51
42.359,166.0
42.375,150.1
42.390,130.35
42.406,107.76
42.421,82.65
42.437,55.0
42.453,25.12
42.468,-5.93
42.484,-36.4
42.500,-64.32
42.515,-88.15
42.531,-107.26
42.546,-121.94
42.562,-133.22
42.578,-142.35
42.593,-150.38
42.609,-157.72
42.625,-163.98
42.640,-167.92
42.656,-167.74
42.671,-161.5
42.687,-147.78
42.703,-126.3
42.718,-98.28
42.734,-66.31
42.750,-33.82
42.765,-4.09
42.781,20.54
42.796,39.19
42.812,52.39
42.828,61.58
42.843,68.25
42.859,73.4
42.875,77.28
42.890,79.5
42.906,79.48
42.921,76.72
42.937,70.92
42.953,61.94
42.968,49.67
42.984,34.0
43.000,15.09
43.015,-6.45
43.031,-29.38
43.046,-52.05
43.062,-72.79
43.078,-90.36
43.093,-104.36
43.109,-115.16
43.125,-123.66
43.140,-130.65
43.156,-136.49
43.171,-140.81
43.187,-142.7
43.203,-140.98
43.218,-134.6
43.234,-122.87
43.250,-105.63
43.265,-83.37
43.281,-57.21
43.296,-28.92
43.312,-0.8
43.328,24.77
43.343,45.8
43.359,61.27
43.375,71.43
43.390,77.65
43.406,81.82
43.421,85.68
43.437,90.13
43.453,95.01
43.468,99.31
43.484,101.72
43.500,101.14
43.515,97.14
43.531,89.96
43.546,80.36
43.562,69.21
43.578,57.18
43.593,44.63
43.609,31.67
43.625,18.39
43.640,5.06
43.656,-7.82
43.671,-19.59
43.687,-29.58
43.703,-37.24
43.718,-42.13
43.734,-43.95
43.750,-42.51
43.765,-37.94
43.781,-30.74
43.796,-21.67
43.812,-11.52
43.828,-0.68
43.843,11.07
43.859,24.44
43.875,40.06
43.890,57.94
43.906,77.08
43.921,95.61
43.937,111.41
43.953,122.86
43.968,129.36
43.984,131.4
44.000,130.18
44.015,127.08
44.031,123.11
44.046,118.61
44.062,113.3
44.078,106.49
44.093,97.32
44.109,85.11
44.125,69.54
44.140,50.83
44.156,29.72
44.171,7.29
44.187,-15.26
44.203,-36.96
44.218,-57.34
44.234,-76.45
44.250,-94.64
44.265,-112.08
44.281,-128.4
44.296,-142.63
44.312,-153.34
44.328,-159.2
44.343,-159.34
44.359,-153.64
44.375,-142.57
44.390,-126.88
44.406,-107.37
44.421,-84.76
44.437,-59.92
44.453,-34.02
44.468,-8.67
44.484,14.35
44.500,33.47
44.515,47.71
44.531,57.03
44.546,62.24
44.562,64.74
44.578,66.11
44.593,67.63
44.609,69.87
44.625,72.61
44.640,74.93
44.656,75.43
44.671,72.81
44.687,66.18
44.703,55.38
44.718,40.9
44.734,23.62
44.750,4.47
44.765,-15.83
44.781,-36.77
44.796,-57.81
44.812,-78.11
44.828,-96.3
44.843,-110.72
44.859,-119.74
44.875,-122.33
44.890,-118.36
44.906,-108.63
44.921,-94.68
44.937,-78.33
44.953,-61.34
44.968,-45.0
44.984,-30.07
45.000,-16.54
45.015,-3.86
45.031,8.84
45.046,22.32
45.062,36.7
45.078,51.28
45.093,64.57
45.109,74.84
45.125,80.79
45.140,82.23
45.156,80.18
45.171,76.57
45.187,73.51
45.203,72.45
45.218,73.69
45.234,76.36
45.250,78.79
45.265,79.08
45.281,75.71
45.296,67.79
45.312,55.14
45.328,38.22
45.343,17.81
45.359,-5.05
45.375,-29.26
45.390,-53.71
45.406,-77.35
45.421,-99.16
45.437,-118.15
45.453,-133.32
45.468,-143.62
45.484,-148.1
45.500,-146.04
45.515,-137.17
45.531,-121.87
45.546,-101.28
45.562,-77.06
45.578,-51.16
45.593,-25.46
45.609,-1.43
45.625,19.91
45.640,37.93
45.656,52.32
45.671,63.01
45.687,70.27
45.703,74.81
45.718,77.68
45.734,80.03
45.750,82.66
45.765,85.62
45.781,88.12
45.796,88.78
45.812,86.2
45.828,79.61
45.843,69.18
45.859,55.9
45.875,41.31
45.890,26.81
45.906,13.25
45.921,0.71
45.937,-11.32
45.953,-23.59
45.968,-36.57
45.984,-50.14
46.000,-63.53
46.015,-75.6
46.031,-85.23
46.046,-91.71
46.062,-94.87
46.078,-95.02
46.093,-92.69
46.109,-88.43
46.125,-82.69
46.140,-75.73
46.156,-67.6
46.171,-58.06
46.187,-46.64
46.203,-32.8
46.218,-16.27
46.234,2.5
46.250,22.19
46.265,40.7
46.281,55.87
46.296,66.19
46.312,71.43
46.328,72.81
46.343,72.55
46.359,73.03
46.375,75.95
46.390,81.75
46.406,89.51
46.421,97.34
46.437,103.07
46.453,104.9
46.468,101.83
46.484,93.68
46.500,80.92
46.515,64.37
46.531,44.94
46.546,23.51
46.562,0.96
46.578,-21.72
46.593,-43.53
46.609,-63.54
46.625,-81.16
46.640,-96.32
46.656,-109.38
46.671,-120.92
46.687,-131.3
46.703,-140.3
46.718,-147.06
46.734,-150.31
46.750,-148.77
46.765,-141.59
46.781,-128.65
46.796,-110.55
46.812,-88.39
46.828,-63.6
46.843,-37.77
46.859,-12.55
46.875,10.37
46.890,29.57
46.906,44.13
46.921,53.87
46.937,59.4
46.953,61.89
46.968,62.7
46.984,62.92
47.000,63.25
47.015,63.82
47.031,64.43
47.046,64.7
47.062,64.23
47.078,62.67
47.093,59.77
47.109,55.33
47.125,49.2
47.140,41.21
47.156,31.35
47.171,19.89
47.187,7.46
47.203,-4.85
47.218,-15.76
47.234,-24.19
47.250,-29.69
47.265,-32.77
47.281,-34.9
47.296,-38.08
47.312,-44.18
47.328,-54.12
47.343,-67.35
47.359,-81.77
47.375,-94.19
47.390,-101.23
47.406,-100.29
47.421,-90.44
47.437,-72.61
47.453,-49.3
47.468,-23.65
47.484,1.39
47.500,23.89
47.515,43.04
47.531,58.95
47.546,72.16
47.562,83.13
47.578,92.09
47.593,98.84
47.609,103.04
47.625,104.24
47.640,102.13
47.656,96.57
47.671,87.75
47.687,76.07
47.703,62.18
47.718,46.79
47.734,30.65
47.750,14.51
47.765,-0.9
47.781,-14.92
47.796,-27.13
47.812,-37.52
47.828,-46.56
47.843,-55.04
47.859,-63.77
47.875,-73.26
47.890,-83.51
47.906,-94.13
47.921,-104.63
47.937,-114.63
47.953,-123.81
47.968,-131.56
47.984,-136.72
48.000,-137.56
48.015,-132.25
48.031,-119.46
48.046,-99.06
48.062,-72.25
48.078,-41.22
48.093,-8.48
48.109,23.78
48.125,53.98
48.140,81.22
48.156,105.0
48.171,125.13
48.187,141.65
48.203,154.99
48.218,165.87
48.234,175.12
48.250,183.37
48.265,190.83
48.281,197.14
48.296,201.57
48.312,203.24
48.328,201.36
48.343,195.46
48.359,185.32
48.375,170.99
48.390,152.67
48.406,130.78
48.421,105.81
48.437,78.42
48.453,49.34
48.468,19.33
48.484,-10.8
48.500,-40.26
48.515,-68.37
48.531,-94.65
48.546,-118.83
48.562,-140.81
48.578,-160.42
48.593,-177.21
48.609,-190.28
48.625,-198.37
48.640,-200.14
48.656,-194.63
48.671,-181.74
48.687,-162.4
48.703,-138.48
48.718,-112.37
48.734,-86.32
48.750,-61.97
48.765,-40.02
48.781,-20.32
48.796,-2.26
48.812,14.67
48.828,30.5
48.843,44.61
48.859,56.03
48.875,63.88
48.890,67.81
48.906,68.16
48.921,65.8
48.937,61.75
48.953,56.9
48.968,51.85
48.984,46.92
49.000,42.26
49.015,38.04
49.031,34.34
49.046,31.0
49.062,27.57
49.078,23.21
49.093,16.93
49.109,7.94
49.125,-4.17
49.140,-19.25
49.156,-36.69
49.171,-55.65
49.187,-75.38
49.203,-95.24
49.218,-114.67
49.234,-132.82
49.250,-148.33
49.265,-159.25
49.281,-163.39
49.296,-158.88
49.312,-144.85
49.328,-121.84
49.343,-91.68
49.359,-57.16
49.375,-21.21
49.390,13.68
49.406,45.77
49.421,74.1
49.437,98.15
49.453,117.58
49.468,132.05
49.484,141.31
49.500,145.44
49.515,145.13
49.531,141.72
49.546,136.95
49.562,132.59
49.578,129.87
49.593,129.08
49.609,129.47
49.625,129.57
49.640,127.55
49.656,121.88
49.671,111.71
49.687,97.02
49.703,78.53
49.718,57.34
49.734,34.58
49.750,11.13
49.765,-12.47
49.781,-35.97
49.796,-59.21
49.812,-81.92
49.828,-103.66
49.843,-123.67
49.859,-140.94
49.875,-154.27
49.890,-162.37
49.906,-164.14
49.921,-158.98
49.937,-147.13
49.953,-129.84
49.968,-109.16
49.984,-87.43
50.000,-66.68
50.015,-47.99
50.031,-31.38
50.046,-15.96
50.062,-0.46
50.078,16.17
50.093,34.27
50.109,53.25
50.125,71.66
50.140,87.63
50.156,99.43
50.171,106.04
50.187,107.39
50.203,104.32
50.218,98.14
50.234,90.1
50.250,80.94
50.265,70.9
50.281,59.93
50.296,48.0
50.312,35.33
50.328,22.4
50.343,9.66
50.359,-2.6
50.375,-14.36
50.390,-25.9
50.406,-37.69
50.421,-50.46
50.437,-64.98
50.453,-81.75
50.468,-100.28
50.484,-118.62
50.500,-133.31
50.515,-140.03
50.531,-135.17
50.546,-117.11
50.562,-87.17
50.578,-49.29
50.593,-8.68
50.609,29.85
50.625,63.12
50.640,90.03
50.656,110.95
50.671,126.77
50.687,138.08
50.703,144.8
50.718,146.4
50.734,142.29
50.750,132.33
50.765,116.98
50.781,97.31
50.796,74.87
50.812,51.5
50.828,29.18
50.843,9.75
50.859,-5.22
50.875,-14.63
50.890,-18.06
50.906,-15.93
50.921,-9.58
50.937,-1.21
50.953,6.38
50.968,10.29
50.984,8.15
51.000,-1.36
51.015,-18.28
51.031,-41.39
51.046,-68.57
51.062,-97.34
51.078,-125.13
51.093,-149.58
51.109,-168.64
51.125,-180.59
51.140,-184.14
51.156,-178.58
51.171,-163.96
51.187,-141.2
51.203,-112.03
51.218,-78.68
51.234,-43.55
51.250,-8.76
51.265,24.08
51.281,53.88
51.296,79.87
51.312,101.44
51.328,118.04
51.343,129.21
51.359,134.82
51.375,135.23
51.390,131.35
51.406,124.49
51.421,116.07
51.437,107.21
51.453,98.49
51.468,89.93
51.484,81.12
51.500,71.57
51.515,60.97
51.531,49.35
51.546,37.09
51.562,24.61
51.578,12.1
51.593,-0.67
51.609,-14.32
51.625,-29.51
51.640,-46.42
51.656,-64.52
51.671,-82.52
51.687,-98.79
51.703,-111.79
51.718,-120.51
51.734,-124.57
51.750,-124.13
51.765,-119.58
51.781,-111.48
51.796,-100.4
51.812,-87.07
51.828,-72.24
51.843,-56.61
51.859,-40.6
51.875,-24.35
51.890,-7.9
51.906,8.55
51.921,24.36
51.937,38.52
51.953,50.09
51.968,58.56
51.984,64.21
52.000,67.94
52.015,70.79
52.031,73.36
52.046,75.44
52.062,76.14
52.078,74.33
52.093,69.18
52.109,60.45
52.125,48.39
52.140,33.43
52.156,15.91
52.171,-4.06
52.187,-26.38
52.203,-50.57
52.218,-75.49
52.234,-99.27
52.250,-119.58
52.265,-134.08
52.281,-141.08
52.296,-139.86
52.312,-130.95
52.328,-115.92
52.343,-97.11
52.359,-77.14
52.375,-58.37
52.390,-42.63
52.406,-30.85
52.421,-23.14
52.437,-18.8
52.453,-16.61
52.468,-15.12
52.484,-13.04
52.500,-9.53
52.515,-4.24
52.531,2.65
52.546,10.7
52.562,19.3
52.578,27.97
52.593,36.33
52.609,44.18
52.625,51.46
52.640,58.16
52.656,64.3
52.671,69.78
52.687,74.23
52.703,76.86
52.718,76.45
52.734,71.51
52.750,60.74
52.765,43.54
52.781,20.49
52.796,-6.54
52.812,-34.75
52.828,-61.16
52.843,-83.28
52.859,-99.61
52.875,-109.57
52.890,-113.22
52.906,-110.86
52.921,-102.89
52.937,-89.98
52.953,-73.24
52.968,-54.19
52.984,-34.56
53.000,-15.65
53.015,1.87
53.031,18.17
53.046,33.82
53.062,49.41
53.078,65.13
53.093,80.58
53.109,95.03
53.125,107.68
53.140,117.94
53.156,125.61
53.171,130.95
53.187,134.54
53.203,137.02
53.218,138.8
53.234,139.75
53.250,138.98
53.265,134.97
53.281,125.93
53.296,110.32
53.312,87.43
53.328,57.71
53.343,22.76
53.359,-14.96
53.375,-52.55
53.390,-87.11
53.406,-116.01
53.421,-137.18
53.437,-149.34
53.453,-152.14
53.468,-146.25
53.484,-133.26
53.500,-115.43
53.515,-95.19
53.531,-74.71
53.546,-55.58
53.562,-38.64
53.578,-24.07
53.593,-11.6
53.609,-0.81
53.625,8.67
53.640,17.03
53.656,24.32
53.671,30.53
53.687,35.76
53.703,40.25
53.718,44.45
53.734,48.82
53.750,53.68
53.765,59.05
53.781,64.6
53.796,69.65
53.812,73.37
53.828,74.85
53.843,73.15
53.859,67.28
53.875,56.24
53.890,39.2
53.906,15.87
53.921,-13.09
53.937,-45.77
53.953,-79.05
53.968,-109.18
53.984,-132.65
54.000,-147.09
54.015,-151.93
54.031,-148.26
54.046,-138.25
54.062,-124.34
54.078,-108.55
54.093,-92.32
54.109,-76.76
54.125,-62.91
54.140,-51.72
54.156,-43.69
54.171,-38.33
54.187,-34.09
54.203,-28.79
54.218,-20.6
54.234,-8.92
54.250,5.31
54.265,20.13
54.281,33.48
54.296,44.17
54.312,52.25
54.328,58.6
54.343,64.29
54.359,69.9
54.375,75.33
54.390,79.9
54.406,82.78
54.421,83.16
54.437,80.46
54.453,74.26
54.468,64.35
54.484,50.79
54.500,34.09
54.515,15.25
54.531,-4.2
54.546,-22.48
54.562,-37.8
54.578,-48.78
54.593,-54.68
54.609,-55.48
54.625,-51.83
54.640,-44.95
54.656,-36.43
54.671,-28.11
54.687,-21.72
54.703,-18.38
54.718,-18.22
54.734,-20.17
54.750,-22.2
54.765,-22.05
54.781,-18.09
54.796,-10.0
54.812,1.16
54.828,13.5
54.843,25.05
54.859,34.6
54.875,41.94
54.890,47.74
54.906,53.02
54.921,58.7
54.937,65.26
54.953,72.62
54.968,80.18
54.984,86.93
55.000,91.72
55.015,93.47
55.031,91.42
55.046,85.24
55.062,75.18
55.078,61.74
55.093,45.63
55.109,27.47
55.125,7.8
55.140,-12.92
55.156,-34.16
55.171,-55.29
55.187,-75.56
55.203,-94.1
55.218,-109.96
55.234,-122.16
55.250,-129.66
55.265,-131.49
55.281,-127.02
55.296,-116.22
55.312,-99.87
55.328,-79.49
55.343,-56.99
55.359,-34.32
55.375,-12.92
55.390,6.35
55.406,23.18
55.421,37.54
55.437,49.47
55.453,59.01
55.468,66.22
55.484,71.32
55.500,74.61
55.515,76.3
55.531,76.28
55.546,73.96
55.562,68.48
55.578,59.12
55.593,45.79
55.609,29.3
55.625,11.26
55.640,-6.26
55.656,-21.44
55.671,-33.05
55.687,-40.79
55.703,-45.09
55.718,-46.83
55.734,-47.03
55.750,-46.61
55.765,-46.35
55.781,-46.75
55.796,-48.1
55.812,-50.31
55.828,-53.01
55.843,-55.63
55.859,-57.66
55.875,-58.76
55.890,-58.91
55.906,-58.17
55.921,-56.5
55.937,-53.51
55.953,-48.53
55.968,-40.96
55.984,-30.71
56.000,-18.52
56.015,-5.85
56.031,5.63
56.046,14.73
56.062,21.11
56.078,25.37
56.093,28.66
56.109,32.1
56.125,36.44
56.140,41.92
56.156,48.35
56.171,55.28
56.187,62.08
56.203,67.93
56.218,71.97
56.234,73.34
56.250,71.45
56.265,66.1
56.281,57.53
56.296,46.2
56.312,32.58
56.328,17.1
56.343,0.2
56.359,-17.56
56.375,-35.33
56.390,-52.01
56.406,-66.51
56.421,-77.98
56.437,-86.04
56.453,-90.87
56.468,-93.01
56.484,-93.08
56.500,-91.36
56.515,-87.56
56.531,-80.96
56.546,-70.76
56.562,-56.65
56.578,-39.21
56.593,-19.99
56.609,-1.14
56.625,15.2
56.640,27.46
56.656,35.13
56.671,38.75
56.687,39.72
56.703,39.89
56.718,41.05
56.734,44.59
56.750,51.11
56.765,60.27
56.781,70.92
56.796,81.36
56.812,89.8
56.828,94.79
56.843,95.53
56.859,91.9
56.875,84.34
56.890,73.75
56.906,61.22
56.921,47.96
56.937,35.03
56.953,23.15
56.968,12.53
56.984,2.84
57.000,-6.56
57.015,-16.19
57.031,-26.1
57.046,-35.65
57.062,-43.76
57.078,-49.36
57.093,-51.81
57.109,-51.14
57.125,-47.85
57.140,-42.57
57.156,-35.7
57.171,-27.38
57.187,-17.7
57.203,-7.0
57.218,4.11
57.234,14.95
57.250,25.28
57.265,35.6
57.281,47.16
57.296,61.41
57.312,79.17
57.328,100.07
57.343,122.3
57.359,143.13
57.375,159.68
57.390,169.71
57.406,172.05
57.421,166.62
57.437,154.06
57.453,135.37
57.468,111.71
57.484,84.39
57.500,54.84
57.515,24.64
57.531,-4.73
57.546,-32.02
57.562,-56.45
57.578,-77.68
57.593,-95.68
57.609,-110.63
57.625,-122.68
57.640,-131.98
57.656,-138.57
57.671,-142.48
57.687,-143.64
57.703,-141.98
57.718,-137.38
57.734,-129.73
57.750,-119.0
57.765,-105.26
57.781,-88.73
57.796,-69.79
57.812,-49.03
57.828,-27.13
57.843,-4.81
57.859,17.26
57.875,38.53
57.890,58.6
57.906,77.19
57.921,94.07
57.937,108.91
57.953,121.06
57.968,129.61
57.984,133.49
58.000,131.81
58.015,124.17
58.031,110.87
58.046,92.86
58.062,71.44
58.078,47.97
58.093,23.56
58.109,-0.92
58.125,-24.77
58.140,-47.3
58.156,-67.75
58.171,-85.35
58.187,-99.48
58.203,-109.71
58.218,-115.9
58.234,-118.17
58.250,-116.84
58.265,-112.5
58.281,-105.91
58.296,-97.92
58.312,-89.22
58.328,-80.07
58.343,-70.18
58.359,-58.77
58.375,-44.92
58.390,-28.09
58.406,-8.5
58.421,12.72
58.437,33.81
58.453,52.87
58.468,68.5
58.484,80.13
58.500,88.17
58.515,93.72
58.531,98.2
58.546,102.89
58.562,108.53
58.578,115.04
58.593,121.41
58.609,125.93
58.625,126.57
58.640,121.6
58.656,110.05
58.671,92.0
58.687,68.42
58.703,40.83
58.718,10.77
58.734,-20.44
58.750,-51.67
58.765,-81.86
58.781,-109.82
58.796,-134.3
58.812,-154.19
58.828,-168.78
58.843,-177.85
58.859,-181.5
58.875,-179.91
58.890,-173.11
58.906,-161.0
58.921,-143.57
58.937,-121.19
58.953,-94.85
58.968,-66.1
58.984,-36.77
59.000,-8.61
59.015,17.03
59.031,39.3
59.046,57.79
59.062,72.44
59.078,83.5
59.093,91.48
59.109,97.17
59.125,101.39
59.140,104.79
59.156,107.44
59.171,108.73
59.187,107.5
59.203,102.55
59.218,93.14
59.234,79.37
59.250,62.14
59.265,42.85
59.281,22.95
59.296,3.57
59.312,-14.59
59.328,-31.13
59.343,-45.85
59.359,-58.52
59.375,-68.89
59.390,-76.65
59.406,-81.49
59.421,-83.07
59.437,-81.08
59.453,-75.39
59.468,-66.03
59.484,-53.34
59.500,-37.73
59.515,-19.65
59.531,0.64
59.546,22.88
59.562,46.55
59.578,70.56
59.593,93.17
59.609,112.36
59.625,126.41
59.640,134.67
59.656,137.77
59.671,137.52
59.687,136.23
59.703,135.8
59.718,137.15
59.734,139.95
59.750,142.92
59.765,144.25
59.781,142.21
59.796,135.51
59.812,123.4
59.828,105.74
59.843,82.8
59.859,55.33
59.875,24.37
59.890,-8.84
59.906,-43.03
59.921,-77.04
59.937,-109.86
59.953,-140.54
59.968,-167.98
59.984,-190.87
