timestamp,value
00.000,-124.58
00.015,-98.19
00.031,-73.32
00.046,-50.85
00.062,-30.89
00.078,-13.01
00.093,3.3
00.109,18.43
00.125,32.24
00.140,44.35
00.156,54.36
00.171,62.05
00.187,67.67
00.203,71.81
00.218,75.21
00.234,78.54
00.250,82.21
00.265,86.26
00.281,90.49
00.296,94.58
00.312,98.16
00.328,101.01
00.343,102.99
00.359,104.09
00.375,104.34
00.390,103.8
00.406,102.46
00.421,100.24
00.437,97.12
00.453,93.07
00.468,88.18
00.484,82.63
00.500,76.63
00.515,70.37
00.531,64.0
00.546,57.59
00.562,51.19
00.578,44.86
00.593,38.53
00.609,32.15
00.625,25.56
00.640,18.6
00.656,11.25
00.671,3.75
00.687,-3.24
00.703,-8.65
00.718,-11.22
00.734,-9.94
00.750,-4.26
00.765,5.56
00.781,18.47
00.796,32.96
00.812,47.43
00.828,60.61
00.843,71.73
00.859,80.54
00.875,87.1
00.890,91.65
00.906,94.34
00.921,95.27
00.937,94.55
00.953,92.4
00.968,89.26
00.984,85.69
01.000,82.27
01.015,79.33
01.031,76.93
01.046,74.8
01.062,72.6
01.078,70.14
01.093,67.45
01.109,64.8
01.125,62.42
01.140,60.39
01.156,58.6
01.171,56.76
01.187,54.63
01.203,52.07
01.218,49.05
01.234,45.52
01.250,41.39
01.265,36.53
01.281,30.91
01.296,24.7
01.312,18.21
01.328,11.85
01.343,5.94
01.359,0.58
01.375,-4.35
01.390,-9.18
01.406,-14.28
01.421,-19.95
01.437,-26.18
01.453,-32.61
01.468,-38.4
01.484,-42.39
01.500,-43.34
01.515,-40.39
01.531,-33.31
01.546,-22.7
01.562,-9.69
01.578,4.3
01.593,17.96
01.609,30.35
01.625,40.89
01.640,49.27
01.656,55.35
01.671,59.08
01.687,60.54
01.703,60.0
01.718,57.95
01.734,55.03
01.750,51.91
01.765,49.13
01.781,47.02
01.796,45.66
01.812,45.02
01.828,44.99
01.843,45.53
01.859,46.56
01.875,47.99
01.890,49.55
01.906,50.77
01.921,51.15
01.937,50.29
01.953,48.03
01.968,44.58
01.984,40.36
02.000,35.97
02.015,31.92
02.031,28.58
02.046,26.1
02.062,24.46
02.078,23.49
02.093,22.89
02.109,22.33
02.125,21.5
02.140,20.2
02.156,18.43
02.171,16.32
02.187,14.16
02.203,12.19
02.218,10.56
02.234,9.3
02.250,8.28
02.265,7.39
02.281,6.52
02.296,5.64
02.312,4.76
02.328,3.9
02.343,3.04
02.359,2.12
02.375,1.08
02.390,-0.12
02.406,-1.43
02.421,-2.72
02.437,-3.86
02.453,-4.75
02.468,-5.39
02.484,-5.92
02.500,-6.5
02.515,-7.27
02.531,-8.3
02.546,-9.55
02.562,-10.86
02.578,-12.14
02.593,-13.29
02.609,-14.41
02.625,-15.62
02.640,-17.06
02.656,-18.84
02.671,-20.95
02.687,-23.33
02.703,-25.79
02.718,-28.11
02.734,-30.11
02.750,-31.77
02.765,-33.16
02.781,-34.54
02.796,-36.22
02.812,-38.49
02.828,-41.47
02.843,-45.05
02.859,-48.99
02.875,-52.96
02.890,-56.7
02.906,-60.04
02.921,-63.01
02.937,-65.81
02.953,-68.76
02.968,-72.25
02.984,-76.58
03.000,-81.78
03.015,-87.37
03.031,-92.32
03.046,-95.17
03.062,-94.48
03.078,-89.27
03.093,-79.33
03.109,-65.44
03.125,-49.06
03.140,-31.97
03.156,-15.73
03.171,-1.45
03.187,10.27
03.203,19.27
03.218,25.56
03.234,29.36
03.250,30.95
03.265,30.76
03.281,29.3
03.296,27.19
03.312,25.06
03.328,23.36
03.343,22.34
03.359,21.93
03.375,21.88
03.390,21.88
03.406,21.78
03.421,21.51
03.437,21.21
03.453,21.02
03.468,20.92
03.484,20.76
03.500,20.22
03.515,18.98
03.531,16.79
03.546,13.68
03.562,9.81
03.578,5.5
03.593,1.16
03.609,-2.89
03.625,-6.37
03.640,-9.24
03.656,-11.65
03.671,-13.95
03.687,-16.56
03.703,-19.82
03.718,-23.91
03.734,-28.67
03.750,-33.59
03.765,-37.8
03.781,-40.27
03.796,-40.07
03.812,-36.58
03.828,-29.81
03.843,-20.35
03.859,-9.28
03.875,2.18
03.890,12.9
03.906,22.19
03.921,29.69
03.937,35.32
03.953,39.14
03.968,41.26
03.984,41.9
04.000,41.36
04.015,40.07
04.031,38.44
04.046,36.78
04.062,35.2
04.078,33.66
04.093,32.09
04.109,30.47
04.125,28.87
04.140,27.44
04.156,26.28
04.171,25.44
04.187,24.83
04.203,24.27
04.218,23.47
04.234,22.15
04.250,20.06
04.265,17.1
04.281,13.34
04.296,9.04
04.312,4.61
04.328,0.41
04.343,-3.27
04.359,-6.39
04.375,-9.14
04.390,-11.92
04.406,-15.11
04.421,-18.97
04.437,-23.43
04.453,-27.92
04.468,-31.55
04.484,-33.2
04.500,-31.92
04.515,-27.26
04.531,-19.43
04.546,-9.19
04.562,2.29
04.578,13.79
04.593,24.33
04.609,33.24
04.625,40.2
04.640,45.16
04.656,48.21
04.671,49.54
04.687,49.42
04.703,48.14
04.718,46.05
04.734,43.48
04.750,40.75
04.765,38.15
04.781,35.8
04.796,33.72
04.812,31.82
04.828,29.96
04.843,28.06
04.859,26.1
04.875,24.15
04.890,22.29
04.906,20.5
04.921,18.62
04.937,16.46
04.953,13.78
04.968,10.48
04.984,6.6
05.000,2.32
05.015,-2.11
05.031,-6.47
05.046,-10.62
05.062,-14.57
05.078,-18.44
05.093,-22.39
05.109,-26.6
05.125,-31.17
05.140,-36.06
05.156,-41.05
05.171,-45.69
05.187,-49.28
05.203,-51.02
05.218,-50.13
05.234,-46.13
05.250,-38.96
05.265,-29.11
05.281,-17.48
05.296,-5.23
05.312,6.61
05.328,17.21
05.343,26.14
05.359,33.23
05.375,38.5
05.390,42.01
05.406,43.79
05.421,43.96
05.437,42.76
05.453,40.59
05.468,37.92
05.484,35.16
05.500,32.55
05.515,30.15
05.531,27.86
05.546,25.61
05.562,23.39
05.578,21.25
05.593,19.25
05.609,17.34
05.625,15.35
05.640,13.14
05.656,10.52
05.671,7.47
05.687,4.03
05.703,0.32
05.718,-3.52
05.734,-7.38
05.750,-11.16
05.765,-14.82
05.781,-18.3
05.796,-21.61
05.812,-24.77
05.828,-27.84
05.843,-30.94
05.859,-34.16
05.875,-37.64
05.890,-41.46
05.906,-45.51
05.921,-49.44
05.937,-52.6
05.953,-54.07
05.968,-52.98
05.984,-48.73
06.000,-41.2
06.015,-30.86
06.031,-18.6
06.046,-5.53
06.062,7.29
06.078,19.04
06.093,29.12
06.109,37.24
06.125,43.2
06.140,46.99
06.156,48.71
06.171,48.59
06.187,46.97
06.203,44.28
06.218,40.92
06.234,37.21
06.250,33.33
06.265,29.41
06.281,25.53
06.296,21.83
06.312,18.5
06.328,15.71
06.343,13.45
06.359,11.55
06.375,9.66
06.390,7.44
06.406,4.69
06.421,1.45
06.437,-2.08
06.453,-5.67
06.468,-9.18
06.484,-12.65
06.500,-16.2
06.515,-19.92
06.531,-23.76
06.546,-27.5
06.562,-30.94
06.578,-33.88
06.593,-36.31
06.609,-38.37
06.625,-40.2
06.640,-41.98
06.656,-43.83
06.671,-45.87
06.687,-48.17
06.703,-50.67
06.718,-53.07
06.734,-54.78
06.750,-55.01
06.765,-52.98
06.781,-48.17
06.796,-40.58
06.812,-30.68
06.828,-19.31
06.843,-7.49
06.859,3.87
06.875,14.04
06.890,22.55
06.906,29.17
06.921,33.85
06.937,36.73
06.953,38.02
06.968,38.04
06.984,37.12
07.000,35.57
07.015,33.68
07.031,31.64
07.046,29.64
07.062,27.74
07.078,26.02
07.093,24.44
07.109,23.0
07.125,21.65
07.140,20.31
07.156,18.95
07.171,17.5
07.187,15.95
07.203,14.25
07.218,12.4
07.234,10.37
07.250,8.17
07.265,5.82
07.281,3.4
07.296,1.01
07.312,-1.25
07.328,-3.36
07.343,-5.38
07.359,-7.4
07.375,-9.59
07.390,-11.92
07.406,-14.35
07.421,-16.73
07.437,-18.95
07.453,-21.11
07.468,-23.3
07.484,-25.57
07.500,-27.71
07.515,-29.24
07.531,-29.38
07.546,-27.41
07.562,-22.91
07.578,-15.87
07.593,-6.81
07.609,3.48
07.625,14.12
07.640,24.31
07.656,33.42
07.671,41.04
07.687,46.88
07.703,50.7
07.718,52.39
07.734,52.0
07.750,49.87
07.765,46.5
07.781,42.54
07.796,38.56
07.812,34.96
07.828,31.93
07.843,29.44
07.859,27.33
07.875,25.45
07.890,23.72
07.906,22.08
07.921,20.49
07.937,18.97
07.953,17.47
07.968,15.93
07.984,14.28
08.000,12.42
08.015,10.24
08.031,7.67
08.046,4.66
08.062,1.24
08.078,-2.47
08.093,-6.36
08.109,-10.23
08.125,-13.89
08.140,-17.18
08.156,-20.04
08.171,-22.49
08.187,-24.68
08.203,-26.83
08.218,-29.15
08.234,-31.89
08.250,-35.09
08.265,-38.56
08.281,-41.75
08.296,-43.89
08.312,-44.11
08.328,-41.71
08.343,-36.39
08.359,-28.41
08.375,-18.44
08.390,-7.37
08.406,3.93
08.421,14.84
08.437,24.98
08.453,34.16
08.468,42.24
08.484,49.07
08.500,54.45
08.515,58.22
08.531,60.36
08.546,61.09
08.562,60.87
08.578,60.32
08.593,60.03
08.609,60.34
08.625,61.25
08.640,62.46
08.656,63.61
08.671,64.58
08.687,65.58
08.703,67.07
08.718,69.58
08.734,73.25
08.750,77.76
08.765,82.36
08.781,86.29
08.796,89.13
08.812,91.05
08.828,92.61
08.843,94.38
08.859,96.52
08.875,98.65
08.890,100.18
08.906,100.81
08.921,100.76
08.937,100.53
08.953,100.16
08.968,98.53
08.984,93.3
09.000,81.71
09.015,61.82
09.031,33.52
09.046,-1.37
09.062,-40.05
09.078,-79.92
09.093,-118.93
09.109,-155.23
09.125,-186.04
09.140,-207.11
09.156,-213.49
09.171,-201.52
09.187,-170.96
09.203,-125.89
09.218,-73.88
09.234,-23.25
09.250,19.75
09.265,52.62
09.281,76.45
09.296,94.25
09.312,108.79
09.328,121.29
09.343,131.54
09.359,138.74
09.375,142.73
09.390,144.3
09.406,144.74
09.421,144.91
09.437,144.64
09.453,142.69
09.468,137.6
09.484,128.63
09.500,116.33
09.515,102.41
09.531,88.9
09.546,77.36
09.562,68.3
09.578,61.15
09.593,54.79
09.609,48.11
09.625,40.48
09.640,31.95
09.656,23.16
09.671,15.01
09.687,8.22
09.703,3.11
09.718,-0.69
09.734,-4.08
09.750,-8.17
09.765,-13.97
09.781,-22.03
09.796,-32.32
09.812,-44.4
09.828,-57.61
09.843,-71.25
09.859,-84.7
09.875,-97.38
09.890,-108.83
09.906,-118.78
09.921,-127.33
09.937,-134.91
09.953,-141.91
09.968,-148.4
09.984,-153.68
10.000,-156.38
10.015,-154.81
10.031,-147.68
10.046,-134.63
10.062,-116.51
10.078,-95.15
10.093,-72.84
10.109,-51.79
10.125,-33.71
10.140,-19.58
10.156,-9.69
10.171,-3.72
10.187,-0.89
10.203,-0.18
10.218,-0.67
10.234,-1.73
10.250,-3.15
10.265,-5.09
10.281,-7.72
10.296,-11.14
10.312,-15.0
10.328,-18.74
10.343,-21.84
10.359,-24.07
10.375,-25.73
10.390,-27.48
10.406,-30.09
10.421,-34.07
10.437,-39.6
10.453,-46.57
10.468,-54.72
10.484,-63.84
10.500,-73.68
10.515,-83.83
10.531,-93.76
10.546,-102.87
10.562,-110.71
10.578,-117.16
10.593,-122.35
10.609,-126.44
10.625,-129.42
10.640,-131.01
10.656,-130.81
10.671,-128.57
10.687,-124.39
10.703,-118.76
10.718,-112.5
10.734,-106.44
10.750,-101.18
10.765,-96.91
10.781,-93.29
10.796,-89.7
10.812,-85.37
10.828,-79.84
10.843,-73.12
10.859,-65.6
10.875,-57.75
10.890,-49.71
10.906,-41.06
10.921,-30.93
10.937,-18.55
10.953,-3.67
10.968,13.09
10.984,30.44
11.000,46.88
11.015,61.3
11.031,73.33
11.046,83.27
11.062,91.86
11.078,99.79
11.093,107.47
11.109,114.87
11.125,121.67
11.140,127.49
11.156,132.0
11.171,135.11
11.187,136.85
11.203,137.28
11.218,136.38
11.234,134.05
11.250,130.1
11.265,124.31
11.281,116.5
11.296,106.46
11.312,94.05
11.328,79.21
11.343,62.06
11.359,42.98
11.375,22.61
11.390,1.63
11.406,-19.42
11.421,-40.32
11.437,-61.14
11.453,-82.1
11.468,-103.28
11.484,-124.46
11.500,-145.13
11.515,-164.45
11.531,-181.54
11.546,-195.62
11.562,-206.11
11.578,-212.69
11.593,-215.3
11.609,-214.08
11.625,-209.14
11.640,-200.54
11.656,-188.22
11.671,-172.17
11.687,-152.69
11.703,-130.56
11.718,-107.13
11.734,-83.99
11.750,-62.74
11.765,-44.56
11.781,-29.99
11.796,-19.0
11.812,-11.2
11.828,-6.0
11.843,-2.71
11.859,-0.73
11.875,0.62
11.890,1.98
11.906,3.87
11.921,6.57
11.937,9.99
11.953,13.63
11.968,16.7
11.984,18.38
12.000,17.93
12.015,15.12
12.031,10.3
12.046,4.48
12.062,-1.01
12.078,-4.92
12.093,-6.5
12.109,-5.89
12.125,-4.01
12.140,-2.28
12.156,-2.07
12.171,-4.29
12.187,-9.18
12.203,-16.47
12.218,-25.64
12.234,-36.13
12.250,-47.59
12.265,-59.73
12.281,-72.27
12.296,-84.83
12.312,-96.83
12.328,-107.46
12.343,-115.68
12.359,-120.25
12.375,-120.0
12.390,-114.14
12.406,-102.7
12.421,-86.7
12.437,-67.95
12.453,-48.55
12.468,-30.27
12.484,-14.08
12.500,-0.19
12.515,11.71
12.531,21.97
12.546,30.75
12.562,37.94
12.578,43.38
12.593,47.09
12.609,49.29
12.625,50.33
12.640,50.48
12.656,49.86
12.671,48.49
12.687,46.4
12.703,43.8
12.718,41.06
12.734,38.64
12.750,36.86
12.765,35.78
12.781,35.1
12.796,34.39
12.812,33.15
12.828,31.08
12.843,28.03
12.859,24.03
12.875,19.21
12.890,13.8
12.906,8.1
12.921,2.4
12.937,-3.0
12.953,-7.96
12.968,-12.54
12.984,-16.91
13.000,-21.36
13.015,-26.17
13.031,-31.49
13.046,-37.38
13.062,-43.71
13.078,-50.15
13.093,-56.1
13.109,-60.67
13.125,-62.71
13.140,-61.17
13.156,-55.39
13.171,-45.34
13.187,-31.7
13.203,-15.69
13.218,1.29
13.234,17.99
13.250,33.47
13.265,47.23
13.281,59.01
13.296,68.68
13.312,76.15
13.328,81.36
13.343,84.42
13.359,85.59
13.375,85.27
13.390,83.95
13.406,82.12
13.421,80.07
13.437,77.93
13.453,75.66
13.468,73.18
13.484,70.48
13.500,67.74
13.515,65.23
13.531,63.15
13.546,61.51
13.562,59.93
13.578,57.88
13.593,54.74
13.609,50.25
13.625,44.54
13.640,38.06
13.656,31.39
13.671,24.89
13.687,18.56
13.703,12.22
13.718,5.65
13.734,-1.16
13.750,-7.91
13.765,-14.12
13.781,-19.32
13.796,-23.33
13.812,-26.28
13.828,-28.61
13.843,-30.84
13.859,-33.54
13.875,-37.05
13.890,-41.47
13.906,-46.51
13.921,-51.48
13.937,-55.33
13.953,-56.85
13.968,-54.9
13.984,-48.77
14.000,-38.49
14.015,-24.81
14.031,-8.99
14.046,7.48
14.062,23.35
14.078,37.81
14.093,50.5
14.109,61.38
14.125,70.51
14.140,77.88
14.156,83.47
14.171,87.38
14.187,89.98
14.203,91.98
14.218,94.27
14.234,97.6
14.250,102.33
14.265,108.31
14.281,115.01
14.296,121.88
14.312,128.67
14.328,135.43
14.343,142.5
14.359,150.05
14.375,157.86
14.390,165.36
14.406,171.78
14.421,176.58
14.437,179.74
14.453,181.63
14.468,182.66
14.484,183.0
14.500,182.32
14.515,179.95
14.531,175.27
14.546,168.1
14.562,158.79
14.578,148.16
14.593,137.0
14.609,125.63
14.625,113.72
14.640,100.39
14.656,84.73
14.671,66.3
14.687,45.37
14.703,22.94
14.718,0.38
14.734,-20.85
14.750,-39.55
14.765,-54.86
14.781,-66.39
14.796,-74.2
14.812,-78.92
14.828,-81.94
14.843,-85.19
14.859,-90.7
14.875,-99.9
14.890,-112.81
14.906,-127.83
14.921,-142.18
14.937,-152.93
14.953,-158.29
14.968,-158.62
14.984,-156.24
15.000,-154.5
15.015,-156.17
15.031,-162.18
15.046,-171.27
15.062,-180.79
15.078,-187.96
15.093,-191.11
15.109,-189.97
15.125,-185.34
15.140,-178.37
15.156,-170.02
15.171,-160.96
15.187,-151.79
15.203,-143.22
15.218,-135.95
15.234,-130.39
15.250,-126.29
15.265,-122.72
15.281,-118.53
15.296,-112.7
15.312,-104.71
15.328,-94.69
15.343,-83.31
15.359,-71.52
15.375,-60.39
15.390,-50.72
15.406,-42.77
15.421,-36.14
15.437,-29.87
15.453,-22.68
15.468,-13.56
15.484,-2.2
15.500,10.89
15.515,24.48
15.531,37.1
15.546,47.41
15.562,54.59
15.578,58.4
15.593,59.05
15.609,57.02
15.625,52.89
15.640,47.17
15.656,40.3
15.671,32.75
15.687,24.93
15.703,17.39
15.718,10.71
15.734,5.37
15.750,1.69
15.765,-0.23
15.781,-0.6
15.796,0.19
15.812,1.7
15.828,3.48
15.843,5.25
15.859,6.79
15.875,7.9
15.890,8.43
15.906,8.23
15.921,7.21
15.937,5.39
15.953,2.89
15.968,-0.12
15.984,-3.52
16.000,-7.27
16.015,-11.43
16.031,-16.05
16.046,-21.19
16.062,-26.8
16.078,-32.67
16.093,-38.47
16.109,-43.69
16.125,-47.65
16.140,-49.5
16.156,-48.39
16.171,-43.5
16.187,-34.4
16.203,-21.22
16.218,-4.71
16.234,13.71
16.250,32.15
16.265,48.62
16.281,61.41
16.296,69.46
16.312,72.68
16.328,71.87
16.343,68.52
16.359,64.4
16.375,61.0
16.390,59.06
16.406,58.49
16.421,58.44
16.437,57.8
16.453,55.78
16.468,52.24
16.484,47.71
16.500,43.21
16.515,39.72
16.531,37.77
16.546,37.3
16.562,37.54
16.578,37.4
16.593,35.81
16.609,32.04
16.625,25.95
16.640,18.11
16.656,9.57
16.671,1.53
16.687,-5.01
16.703,-9.7
16.718,-12.94
16.734,-15.78
16.750,-19.54
16.765,-25.3
16.781,-33.28
16.796,-42.65
16.812,-51.54
16.828,-57.58
16.843,-58.6
16.859,-53.32
16.875,-41.9
16.890,-25.85
16.906,-7.65
16.921,10.03
16.937,25.02
16.953,36.14
16.968,43.35
16.984,47.44
17.000,49.65
17.015,51.1
17.031,52.52
17.046,54.07
17.062,55.36
17.078,55.68
17.093,54.35
17.109,51.0
17.125,45.85
17.140,39.64
17.156,33.49
17.171,28.51
17.187,25.41
17.203,24.25
17.218,24.4
17.234,24.79
17.250,24.24
17.265,21.92
17.281,17.58
17.296,11.6
17.312,4.85
17.328,-1.66
17.343,-7.14
17.359,-11.26
17.375,-14.28
17.390,-16.93
17.406,-20.23
17.421,-24.96
17.437,-31.46
17.453,-39.27
17.468,-47.12
17.484,-53.17
17.500,-55.42
17.515,-52.44
17.531,-43.78
17.546,-30.25
17.562,-13.67
17.578,3.62
17.593,19.47
17.609,32.55
17.625,42.46
17.640,49.66
17.656,54.91
17.671,58.9
17.687,61.86
17.703,63.68
17.718,63.99
17.734,62.53
17.750,59.33
17.765,54.79
17.781,49.52
17.796,44.17
17.812,39.2
17.828,34.79
17.843,30.89
17.859,27.37
17.875,24.12
17.890,21.07
17.906,18.09
17.921,14.96
17.937,11.41
17.953,7.2
17.968,2.33
17.984,-2.91
18.000,-8.01
18.015,-12.48
18.031,-16.11
18.046,-19.16
18.062,-22.18
18.078,-25.76
18.093,-30.28
18.109,-35.61
18.125,-41.31
18.140,-46.79
18.156,-51.68
18.171,-55.89
18.187,-59.66
18.203,-63.16
18.218,-66.21
18.234,-68.24
18.250,-68.26
18.265,-65.29
18.281,-58.71
18.296,-48.56
18.312,-35.55
18.328,-20.92
18.343,-6.08
18.359,7.64
18.375,19.26
18.390,28.18
18.406,34.25
18.421,37.62
18.437,38.8
18.453,38.48
18.468,37.39
18.484,36.17
18.500,35.24
18.515,34.69
18.531,34.37
18.546,34.01
18.562,33.41
18.578,32.56
18.593,31.76
18.609,31.48
18.625,32.21
18.640,34.21
18.656,37.31
18.671,40.9
18.687,44.03
18.703,45.64
18.718,44.99
18.734,41.79
18.750,36.3
18.765,29.18
18.781,21.22
18.796,13.15
18.812,5.48
18.828,-1.49
18.843,-7.63
18.859,-12.95
18.875,-17.6
18.890,-21.83
18.906,-25.95
18.921,-30.26
18.937,-34.91
18.953,-39.92
18.968,-45.13
18.984,-50.3
19.000,-55.08
19.015,-59.02
19.031,-61.64
19.046,-62.37
19.062,-60.71
19.078,-56.33
19.093,-49.23
19.109,-39.76
19.125,-28.59
19.140,-16.54
19.156,-4.43
19.171,7.0
19.187,17.17
19.203,25.63
19.218,32.09
19.234,36.37
19.250,38.45
19.265,38.58
19.281,37.25
19.296,35.09
19.312,32.82
19.328,31.02
19.343,29.99
19.359,29.68
19.375,29.77
19.390,29.82
19.406,29.52
19.421,28.73
19.437,27.49
19.453,25.94
19.468,24.21
19.484,22.36
19.500,20.37
19.515,18.18
19.531,15.7
19.546,12.93
19.562,9.85
19.578,6.47
19.593,2.85
19.609,-0.95
19.625,-4.82
19.640,-8.62
19.656,-12.25
19.671,-15.67
19.687,-18.89
19.703,-21.95
19.718,-24.91
19.734,-27.84
19.750,-30.83
19.765,-34.05
19.781,-37.67
19.796,-41.87
19.812,-46.72
19.828,-52.09
19.843,-57.58
19.859,-62.5
19.875,-65.95
19.890,-67.05
19.906,-65.06
19.921,-59.71
19.937,-51.28
19.953,-40.54
19.968,-28.66
19.984,-16.76
20.000,-5.69
20.015,4.19
20.031,12.77
20.046,20.18
20.062,26.46
20.078,31.47
20.093,35.05
20.109,37.06
20.125,37.56
20.140,36.9
20.156,35.62
20.171,34.23
20.187,33.09
20.203,32.34
20.218,31.86
20.234,31.38
20.250,30.68
20.265,29.67
20.281,28.41
20.296,27.07
20.312,25.75
20.328,24.47
20.343,23.11
20.359,21.54
20.375,19.67
20.390,17.52
20.406,15.19
20.421,12.77
20.437,10.28
20.453,7.72
20.468,5.12
20.484,2.53
20.500,0.1
20.515,-2.04
20.531,-3.94
20.546,-5.76
20.562,-7.79
20.578,-10.26
20.593,-13.21
20.609,-16.44
20.625,-19.61
20.640,-22.49
20.656,-25.03
20.671,-27.44
20.687,-30.08
20.703,-33.21
20.718,-36.86
20.734,-40.74
20.750,-44.41
20.765,-47.24
20.781,-48.6
20.796,-47.86
20.812,-44.54
20.828,-38.36
20.843,-29.49
20.859,-18.53
20.875,-6.46
20.890,5.64
20.906,16.92
20.921,26.83
20.937,35.2
20.953,41.92
20.968,46.85
20.984,49.75
21.000,50.44
21.015,48.99
21.031,45.84
21.046,41.74
21.062,37.51
21.078,33.93
21.093,31.53
21.109,30.59
21.125,31.14
21.140,32.97
21.156,35.66
21.171,38.59
21.187,41.05
21.203,42.45
21.218,42.32
21.234,40.38
21.250,36.39
21.265,30.19
21.281,21.7
21.296,11.21
21.312,-0.59
21.328,-12.54
21.343,-23.38
21.359,-32.15
21.375,-38.43
21.390,-42.47
21.406,-44.87
21.421,-46.37
21.437,-47.49
21.453,-48.52
21.468,-49.52
21.484,-50.47
21.500,-51.29
21.515,-51.96
21.531,-52.5
21.546,-52.96
21.562,-53.54
21.578,-54.47
21.593,-56.04
21.609,-58.39
21.625,-61.51
21.640,-65.14
21.656,-68.83
21.671,-71.94
21.687,-73.72
21.703,-73.39
21.718,-70.36
21.734,-64.42
21.750,-55.74
21.765,-44.98
21.781,-33.03
21.796,-20.89
21.812,-9.35
21.828,0.94
21.843,9.6
21.859,16.38
21.875,21.1
21.890,23.74
21.906,24.4
21.921,23.49
21.937,21.61
21.953,19.56
21.968,18.0
21.984,17.36
22.000,17.74
22.015,18.88
22.031,20.36
22.046,21.78
22.062,22.91
22.078,23.78
22.093,24.57
22.109,25.45
22.125,26.45
22.140,27.44
22.156,28.18
22.171,28.46
22.187,28.18
22.203,27.37
22.218,26.19
22.234,24.81
22.250,23.35
22.265,21.87
22.281,20.39
22.296,18.82
22.312,17.13
22.328,15.18
22.343,12.89
22.359,10.14
22.375,6.86
22.390,3.11
22.406,-1.02
22.421,-5.21
22.437,-9.3
22.453,-13.07
22.468,-16.52
22.484,-19.74
22.500,-22.97
22.515,-26.44
22.531,-30.24
22.546,-34.32
22.562,-38.28
22.578,-41.58
22.593,-43.45
22.609,-43.12
22.625,-40.0
22.640,-33.92
22.656,-25.19
22.671,-14.65
22.687,-3.39
22.703,7.42
22.718,16.84
22.734,24.38
22.750,29.96
22.765,33.82
22.781,36.34
22.796,37.81
22.812,38.41
22.828,38.18
22.843,37.24
22.859,35.82
22.875,34.3
22.890,33.07
22.906,32.34
22.921,32.1
22.937,32.1
22.953,32.0
22.968,31.6
22.984,30.91
23.000,30.09
23.015,29.29
23.031,28.47
23.046,27.36
23.062,25.64
23.078,23.09
23.093,19.8
23.109,16.1
23.125,12.43
23.140,9.13
23.156,6.3
23.171,3.8
23.187,1.37
23.203,-1.15
23.218,-3.84
23.234,-6.62
23.250,-9.36
23.265,-11.95
23.281,-14.37
23.296,-16.61
23.312,-18.7
23.328,-20.76
23.343,-22.91
23.359,-25.36
23.375,-28.31
23.390,-31.75
23.406,-35.46
23.421,-38.92
23.437,-41.34
23.453,-41.88
23.468,-39.87
23.484,-35.03
23.500,-27.61
23.515,-18.29
23.531,-8.02
23.546,2.2
23.562,11.55
23.578,19.5
23.593,25.77
23.609,30.27
23.625,33.04
23.640,34.17
23.656,33.85
23.671,32.42
23.687,30.29
23.703,27.96
23.718,25.81
23.734,24.04
23.750,22.68
23.765,21.66
23.781,20.92
23.796,20.44
23.812,20.27
23.828,20.4
23.843,20.74
23.859,21.07
23.875,21.09
23.890,20.55
23.906,19.34
23.921,17.52
23.937,15.27
23.953,12.81
23.968,10.27
23.984,7.77
24.000,5.34
24.015,2.92
24.031,0.43
24.046,-2.19
24.062,-4.99
24.078,-7.93
24.093,-10.88
24.109,-13.66
24.125,-16.1
24.140,-18.19
24.156,-20.02
24.171,-21.88
24.187,-24.08
24.203,-26.83
24.218,-30.11
24.234,-33.53
24.250,-36.47
24.265,-38.09
24.281,-37.6
24.296,-34.44
24.312,-28.53
24.328,-20.32
24.343,-10.72
24.359,-0.82
24.375,8.42
24.390,16.41
24.406,22.95
24.421,28.11
24.437,32.01
24.453,34.66
24.468,36.02
24.484,36.08
24.500,35.07
24.515,33.41
24.531,31.68
24.546,30.36
24.562,29.72
24.578,29.76
24.593,30.24
24.609,30.91
24.625,31.56
24.640,32.1
24.656,32.49
24.671,32.72
24.687,32.73
24.703,32.4
24.718,31.6
24.734,30.22
24.750,28.31
24.765,26.07
24.781,23.81
24.796,21.88
24.812,20.51
24.828,19.73
24.843,19.32
24.859,18.88
24.875,17.96
24.890,16.24
24.906,13.7
24.921,10.55
24.937,7.18
24.953,3.95
24.968,1.04
24.984,-1.66
25.000,-4.47
25.015,-7.8
25.031,-11.95
25.046,-16.93
25.062,-22.44
25.078,-27.75
25.093,-31.88
25.109,-33.79
25.125,-32.78
25.140,-28.66
25.156,-21.96
25.171,-13.71
25.187,-5.15
25.203,2.62
25.218,8.92
25.234,13.57
25.250,16.66
25.265,18.44
25.281,19.11
25.296,18.76
25.312,17.29
25.328,14.51
25.343,10.07
25.359,3.75
25.375,-4.44
25.390,-14.01
25.406,-23.94
25.421,-32.91
25.437,-39.67
25.453,-43.42
25.468,-44.01
25.484,-41.85
25.500,-37.66
25.515,-32.14
25.531,-25.81
25.546,-19.02
25.562,-12.12
25.578,-5.55
25.593,0.07
25.609,4.1
25.625,6.15
25.640,6.22
25.656,4.82
25.671,2.78
25.687,1.0
25.703,0.17
25.718,0.47
25.734,1.55
25.750,2.71
25.765,3.18
25.781,2.53
25.796,0.77
25.812,-1.68
25.828,-4.23
25.843,-6.42
25.859,-8.13
25.875,-9.6
25.890,-11.3
25.906,-13.7
25.921,-17.04
25.937,-21.29
25.953,-26.15
25.968,-31.07
25.984,-35.42
26.000,-38.42
26.015,-39.31
26.031,-37.45
26.046,-32.53
26.062,-24.61
26.078,-14.17
26.093,-2.0
26.109,10.93
26.125,23.7
26.140,35.55
26.156,45.96
26.171,54.6
26.187,61.35
26.203,66.26
26.218,69.46
26.234,71.2
26.250,71.7
26.265,71.14
26.281,69.67
26.296,67.36
26.312,64.2
26.328,60.15
26.343,55.2
26.359,49.44
26.375,43.14
26.390,36.68
26.406,30.4
26.421,24.51
26.437,19.05
26.453,13.89
26.468,8.91
26.484,4.04
26.500,-0.61
26.515,-4.85
26.531,-8.39
26.546,-11.02
26.562,-12.63
26.578,-13.2
26.593,-12.88
26.609,-11.94
26.625,-10.87
26.640,-10.37
26.656,-11.23
26.671,-14.23
26.687,-19.84
26.703,-27.98
26.718,-37.86
26.734,-48.08
26.750,-56.97
26.765,-63.1
26.781,-65.58
26.796,-64.3
26.812,-59.68
26.828,-52.4
26.843,-43.01
26.859,-31.91
26.875,-19.45
26.890,-6.11
26.906,7.33
26.921,19.9
26.937,30.72
26.953,39.18
26.968,45.02
26.984,48.32
27.000,49.44
27.015,48.85
27.031,47.08
27.046,44.49
27.062,41.15
27.078,36.75
27.093,30.77
27.109,22.85
27.125,13.09
27.140,2.34
27.156,-8.0
27.171,-16.45
27.187,-21.98
27.203,-24.35
27.218,-24.15
27.234,-22.46
27.250,-20.37
27.265,-18.68
27.281,-17.64
27.296,-17.18
27.312,-16.97
27.328,-16.69
27.343,-16.12
27.359,-15.22
27.375,-14.15
27.390,-13.2
27.406,-12.69
27.421,-12.87
27.437,-13.72
27.453,-14.97
27.468,-16.05
27.484,-16.26
27.500,-14.92
27.515,-11.62
27.531,-6.33
27.546,0.48
27.562,8.02
27.578,15.3
27.593,21.54
27.609,26.4
27.625,30.12
27.640,33.47
27.656,37.53
27.671,43.27
27.687,51.0
27.703,60.16
27.718,69.18
27.734,75.87
27.750,78.04
27.765,74.23
27.781,64.32
27.796,49.54
27.812,32.12
27.828,14.59
27.843,-0.95
27.859,-13.22
27.875,-21.78
27.890,-26.72
27.906,-28.45
27.921,-27.46
27.937,-24.46
27.953,-20.41
27.968,-16.49
27.984,-13.7
28.000,-12.58
28.015,-13.0
28.031,-14.27
28.046,-15.56
28.062,-16.3
28.078,-16.53
28.093,-16.83
28.109,-17.97
28.125,-20.49
28.140,-24.37
28.156,-28.99
28.171,-33.31
28.187,-36.33
28.203,-37.45
28.218,-36.61
28.234,-34.26
28.250,-31.15
28.265,-27.94
28.281,-25.13
28.296,-22.92
28.312,-21.37
28.328,-20.44
28.343,-20.07
28.359,-20.14
28.375,-20.51
28.390,-21.04
28.406,-21.62
28.421,-22.2
28.437,-22.73
28.453,-23.07
28.468,-22.88
28.484,-21.72
28.500,-19.14
28.515,-14.92
28.531,-9.08
28.546,-1.98
28.562,5.87
28.578,13.9
28.593,21.51
28.609,28.12
28.625,33.24
28.640,36.53
28.656,37.94
28.671,37.76
28.687,36.55
28.703,34.95
28.718,33.42
28.734,31.94
28.750,30.01
28.765,26.89
28.781,21.98
28.796,15.28
28.812,7.48
28.828,-0.15
28.843,-6.22
28.859,-9.69
28.875,-10.25
28.890,-8.4
28.906,-5.14
28.921,-1.61
28.937,1.25
28.953,2.87
28.968,3.0
28.984,1.65
29.000,-0.97
29.015,-4.51
29.031,-8.43
29.046,-12.13
29.062,-15.14
29.078,-17.19
29.093,-18.27
29.109,-18.64
29.125,-18.66
29.140,-18.64
29.156,-18.89
29.171,-19.54
29.187,-20.65
29.203,-22.15
29.218,-23.88
29.234,-25.73
29.250,-27.65
29.265,-29.7
29.281,-31.91
29.296,-34.1
29.312,-35.7
29.328,-35.84
29.343,-33.65
29.359,-28.65
29.375,-21.09
29.390,-11.85
29.406,-2.27
29.421,6.42
29.437,13.4
29.453,18.45
29.468,21.76
29.484,23.64
29.500,24.33
29.515,23.94
29.531,22.59
29.546,20.56
29.562,18.36
29.578,16.6
29.593,15.84
29.609,16.38
29.625,18.1
29.640,20.59
29.656,23.27
29.671,25.49
29.687,26.77
29.703,26.89
29.718,25.82
29.734,23.76
29.750,21.02
29.765,17.95
29.781,14.82
29.796,11.82
29.812,8.95
29.828,6.12
29.843,3.23
29.859,0.21
29.875,-2.94
29.890,-6.08
29.906,-9.1
29.921,-11.91
29.937,-14.57
29.953,-17.19
29.968,-19.89
29.984,-22.64
30.000,-25.31
30.015,-27.65
30.031,-29.45
30.046,-30.77
30.062,-31.83
30.078,-33.13
30.093,-35.09
30.109,-37.97
30.125,-41.55
30.140,-45.32
30.156,-48.41
30.171,-49.93
30.187,-49.21
30.203,-45.87
30.218,-40.01
30.234,-32.13
30.250,-23.03
30.265,-13.61
30.281,-4.74
30.296,2.95
30.312,9.11
30.328,13.67
30.343,16.88
30.359,19.09
30.375,20.69
30.390,21.98
30.406,23.09
30.421,24.03
30.437,24.69
30.453,25.02
30.468,25.03
30.484,24.83
30.500,24.55
30.515,24.28
30.531,24.01
30.546,23.69
30.562,23.23
30.578,22.5
30.593,21.43
30.609,19.91
30.625,17.92
30.640,15.47
30.656,12.66
30.671,9.64
30.687,6.61
30.703,3.67
30.718,0.87
30.734,-1.87
30.750,-4.65
30.765,-7.54
30.781,-10.52
30.796,-13.52
30.812,-16.39
30.828,-19.01
30.843,-21.22
30.859,-22.91
30.875,-24.04
30.890,-24.69
30.906,-25.09
30.921,-25.5
30.937,-26.14
30.953,-27.01
30.968,-27.87
30.984,-28.24
31.000,-27.55
31.015,-25.41
31.031,-21.62
31.046,-16.33
31.062,-9.89
31.078,-2.73
31.093,4.59
31.109,11.58
31.125,17.77
31.140,22.82
31.156,26.56
31.171,29.07
31.187,30.65
31.203,31.69
31.218,32.61
31.234,33.61
31.250,34.65
31.265,35.47
31.281,35.79
31.296,35.37
31.312,34.14
31.328,32.26
31.343,29.96
31.359,27.49
31.375,25.02
31.390,22.62
31.406,20.32
31.421,18.19
31.437,16.38
31.453,15.0
31.468,14.11
31.484,13.57
31.500,13.24
31.515,13.04
31.531,13.09
31.546,13.66
31.562,15.15
31.578,17.79
31.593,21.45
31.609,25.76
31.625,30.23
31.640,34.65
31.656,39.21
31.671,44.47
31.687,50.99
31.703,59.05
31.718,68.36
31.734,78.11
31.750,87.29
31.765,95.02
31.781,100.96
31.796,105.36
31.812,109.05
31.828,113.08
31.843,118.43
31.859,125.74
31.875,135.2
31.890,146.6
31.906,159.44
31.921,173.14
31.937,187.21
31.953,201.2
31.968,214.73
31.984,227.33
32.000,238.47
32.015,247.63
32.031,254.41
32.046,258.56
32.062,259.98
32.078,258.55
32.093,253.93
32.109,245.66
32.125,233.31
32.140,216.89
32.156,197.02
32.171,174.96
32.187,152.13
32.203,129.58
32.218,107.71
32.234,86.48
32.250,66.16
32.265,47.98
32.281,34.39
32.296,28.25
32.312,31.68
32.328,44.96
32.343,66.04
32.359,91.19
32.375,116.23
32.390,137.82
32.406,154.03
32.421,164.27
32.437,168.53
32.453,166.82
32.468,159.02
32.484,145.2
32.500,125.94
32.515,102.66
32.531,77.31
32.546,51.95
32.562,28.16
32.578,6.88
32.593,-11.63
32.609,-27.46
32.625,-40.79
32.640,-51.82
32.656,-60.71
32.671,-67.74
32.687,-73.29
32.703,-77.76
32.718,-81.47
32.734,-84.65
32.750,-87.55
32.765,-90.61
32.781,-94.52
32.796,-100.3
32.812,-109.14
32.828,-122.21
32.843,-140.45
32.859,-164.26
32.875,-193.0
32.890,-224.61
32.906,-255.61
32.921,-281.72
32.937,-299.13
32.953,-305.98
32.968,-303.06
32.984,-293.44
33.000,-281.09
33.015,-269.05
33.031,-258.36
33.046,-248.08
33.062,-236.47
33.078,-222.36
33.093,-206.1
33.109,-189.41
33.125,-174.4
33.140,-162.64
33.156,-154.33
33.171,-148.45
33.187,-143.22
33.203,-136.71
33.218,-127.35
33.234,-114.47
33.250,-98.58
33.265,-81.69
33.281,-67.17
33.296,-59.06
33.312,-61.0
33.328,-74.86
33.343,-99.94
33.359,-132.91
33.375,-168.71
33.390,-201.8
33.406,-227.53
33.421,-242.92
33.437,-246.65
33.453,-238.86
33.468,-220.75
33.484,-194.25
33.500,-161.98
33.515,-127.11
33.531,-93.13
33.546,-63.24
33.562,-39.95
33.578,-24.52
33.593,-16.79
33.609,-15.35
33.625,-17.92
33.640,-22.05
33.656,-25.72
33.671,-27.66
33.687,-27.36
33.703,-24.71
33.718,-19.52
33.734,-11.5
33.750,-0.48
33.765,13.05
33.781,27.33
33.796,39.58
33.812,46.74
33.828,46.65
33.843,38.94
33.859,25.39
33.875,9.21
33.890,-6.07
33.906,-17.68
33.921,-24.42
33.937,-26.59
33.953,-25.44
33.968,-22.45
33.984,-18.79
34.000,-15.07
34.015,-11.48
34.031,-8.01
34.046,-4.51
34.062,-0.75
34.078,3.72
34.093,9.44
34.109,16.66
34.125,24.74
34.140,31.82
34.156,35.1
34.171,31.71
34.187,20.18
34.203,1.26
34.218,-21.97
34.234,-45.11
34.250,-64.07
34.265,-76.32
34.281,-81.47
34.296,-80.74
34.312,-75.92
34.328,-68.41
34.343,-58.95
34.359,-47.78
34.375,-35.06
34.390,-21.13
34.406,-6.37
34.421,8.91
34.437,24.54
34.453,40.09
34.468,54.41
34.484,65.41
34.500,70.46
34.515,67.32
34.531,55.15
34.546,35.18
34.562,10.53
34.578,-14.66
34.593,-36.45
34.609,-52.15
34.625,-60.77
34.640,-62.93
34.656,-60.28
34.671,-54.89
34.687,-48.66
34.703,-43.13
34.718,-39.29
34.734,-37.61
34.750,-38.06
34.765,-40.2
34.781,-43.18
34.796,-46.01
34.812,-47.74
34.828,-47.73
34.843,-45.97
34.859,-43.17
34.875,-40.54
34.890,-39.3
34.906,-40.06
34.921,-42.37
34.937,-44.77
34.953,-45.18
34.968,-41.68
34.984,-33.17
35.000,-19.76
35.015,-2.67
35.031,16.26
35.046,35.17
35.062,52.66
35.078,67.99
35.093,80.92
35.109,91.56
35.125,100.21
35.140,107.3
35.156,113.43
35.171,119.04
35.187,124.14
35.203,127.92
35.218,128.77
35.234,124.74
35.250,114.4
35.265,97.54
35.281,75.48
35.296,50.76
35.312,26.26
35.328,4.52
35.343,-12.81
35.359,-25.0
35.375,-31.91
35.390,-33.77
35.406,-31.24
35.421,-25.45
35.437,-18.03
35.453,-11.03
35.468,-6.43
35.484,-5.7
35.500,-9.43
35.515,-17.16
35.531,-27.56
35.546,-39.06
35.562,-50.16
35.578,-60.01
35.593,-68.41
35.609,-75.72
35.625,-82.56
35.640,-89.63
35.656,-97.47
35.671,-106.33
35.687,-116.06
35.703,-125.98
35.718,-134.97
35.734,-141.77
35.750,-145.38
35.765,-145.45
35.781,-142.56
35.796,-137.96
35.812,-133.16
35.828,-129.45
35.843,-127.38
35.859,-126.72
35.875,-126.47
35.890,-125.15
35.906,-121.29
35.921,-113.76
35.937,-102.22
35.953,-87.19
35.968,-70.03
35.984,-52.42
36.000,-35.96
36.015,-21.79
36.031,-10.34
36.046,-1.54
36.062,5.06
36.078,10.1
36.093,14.25
36.109,18.14
36.125,22.3
36.140,26.97
36.156,32.11
36.171,37.33
36.187,42.0
36.203,45.47
36.218,47.25
36.234,47.2
36.250,45.56
36.265,42.82
36.281,39.49
36.296,35.91
36.312,32.25
36.328,28.4
36.343,24.22
36.359,19.61
36.375,14.63
36.390,9.51
36.406,4.59
36.421,0.08
36.437,-4.1
36.453,-8.21
36.468,-12.77
36.484,-18.2
36.500,-24.53
36.515,-31.16
36.531,-36.77
36.546,-39.6
36.562,-37.91
36.578,-30.56
36.593,-17.33
36.609,0.89
36.625,22.35
36.640,44.85
36.656,66.2
36.671,84.74
36.687,99.52
36.703,110.44
36.718,117.99
36.734,123.03
36.750,126.44
36.765,128.98
36.781,131.24
36.796,133.59
36.812,136.33
36.828,139.75
36.843,144.04
36.859,149.34
36.875,155.67
36.890,162.88
36.906,170.87
36.921,179.5
36.937,188.57
36.953,197.79
36.968,206.7
36.984,214.69
37.000,221.19
37.015,225.83
37.031,228.55
37.046,229.59
37.062,229.25
37.078,227.69
37.093,224.84
37.109,220.69
37.125,215.46
37.140,209.85
37.156,204.99
37.171,201.92
37.187,201.01
37.203,201.5
37.218,201.57
37.234,198.91
37.250,191.51
37.265,178.4
37.281,160.01
37.296,137.97
37.312,114.48
37.328,91.75
37.343,71.28
37.359,53.58
37.375,37.9
37.390,22.37
37.406,4.51
37.421,-17.86
37.437,-45.35
37.453,-76.17
37.468,-106.11
37.484,-129.82
37.500,-142.93
37.515,-144.0
37.531,-135.53
37.546,-122.96
37.562,-112.31
37.578,-107.46
37.593,-108.45
37.609,-111.54
37.625,-111.3
37.640,-103.25
37.656,-85.87
37.671,-61.15
37.687,-33.5
37.703,-8.0
37.718,11.07
37.734,20.77
37.750,19.13
37.765,4.81
37.781,-23.06
37.796,-64.41
37.812,-117.62
37.828,-179.43
37.843,-245.7
37.859,-312.88
37.875,-378.88
37.890,-442.8
37.906,-503.46
37.921,-557.59
37.937,-599.21
37.953,-620.87
37.968,-616.34
37.984,-583.29
38.000,-524.75
38.015,-448.2
38.031,-363.27
38.046,-279.14
38.062,-202.87
38.078,-138.93
38.093,-89.66
38.109,-55.56
38.125,-35.33
38.140,-25.7
38.156,-21.71
38.171,-17.68
38.187,-8.92
38.203,6.98
38.218,29.73
38.234,56.84
38.250,84.86
38.265,110.71
38.281,132.59
38.296,150.22
38.312,164.46
38.328,176.59
38.343,187.69
38.359,198.05
38.375,207.15
38.390,214.05
38.406,217.88
38.421,218.33
38.437,215.8
38.453,211.22
38.468,205.63
38.484,199.86
38.500,194.2
38.515,188.53
38.531,182.47
38.546,175.71
38.562,168.1
38.578,159.69
38.593,150.63
38.609,141.07
38.625,131.14
38.640,120.98
38.656,110.77
38.671,100.73
38.687,91.12
38.703,82.1
38.718,73.69
38.734,65.77
38.750,58.18
38.765,50.79
38.781,43.57
38.796,36.52
38.812,29.65
38.828,22.91
38.843,16.28
38.859,9.73
38.875,3.26
38.890,-3.04
38.906,-9.12
38.921,-15.02
38.937,-20.93
38.953,-27.15
38.968,-34.06
38.984,-41.72
39.000,-49.78
39.015,-57.32
39.031,-62.91
39.046,-64.97
39.062,-62.31
39.078,-54.57
39.093,-42.43
39.109,-27.47
39.125,-11.64
39.140,3.36
39.156,16.52
39.171,27.55
39.187,36.7
39.203,44.34
39.218,50.7
39.234,55.74
39.250,59.35
39.265,61.49
39.281,62.38
39.296,62.36
39.312,61.79
39.328,60.82
39.343,59.37
39.359,57.33
39.375,54.67
39.390,51.56
39.406,48.41
39.421,45.66
39.437,43.6
39.453,42.2
39.468,41.04
39.484,39.5
39.500,37.0
39.515,33.24
39.531,28.24
39.546,22.38
39.562,16.29
39.578,10.53
39.593,5.5
39.609,1.24
39.625,-2.57
39.640,-6.51
39.656,-11.15
39.671,-16.87
39.687,-23.66
39.703,-31.04
39.718,-38.35
39.734,-44.78
39.750,-49.71
39.765,-52.83
39.781,-54.19
39.796,-54.18
39.812,-53.59
39.828,-53.4
39.843,-54.74
39.859,-58.51
39.875,-64.9
39.890,-73.08
39.906,-81.17
39.921,-86.71
39.937,-87.43
39.953,-82.03
39.968,-70.66
39.984,-54.77
40.000,-36.62
40.015,-18.38
40.031,-1.65
40.046,12.82
40.062,25.0
40.078,35.2
40.093,43.76
40.109,50.93
40.125,56.93
40.140,61.92
40.156,66.14
40.171,69.85
40.187,73.23
40.203,76.44
40.218,79.65
40.234,83.06
40.250,86.91
40.265,91.46
40.281,96.83
40.296,103.03
40.312,109.87
40.328,117.02
40.343,124.03
40.359,130.37
40.375,135.52
40.390,139.11
40.406,141.12
40.421,141.99
40.437,142.56
40.453,143.78
40.468,146.17
40.484,149.55
40.500,152.94
40.515,154.85
40.531,154.0
40.546,149.83
40.562,142.77
40.578,134.14
40.593,125.47
40.609,117.92
40.625,111.78
40.640,106.43
40.656,100.51
40.671,92.29
40.687,79.99
40.703,62.0
40.718,37.26
40.734,5.66
40.750,-31.57
40.765,-71.43
40.781,-109.49
40.796,-140.77
40.812,-161.09
40.828,-168.35
40.843,-163.04
40.859,-147.8
40.875,-126.13
40.890,-101.1
40.906,-74.32
40.921,-46.07
40.937,-15.88
40.953,16.38
40.968,49.99
40.984,83.06
41.000,112.81
41.015,136.03
41.031,149.54
41.046,150.9
41.062,138.95
41.078,114.31
41.093,79.35
41.109,37.81
41.125,-6.22
41.140,-49.28
41.156,-89.41
41.171,-126.48
41.187,-161.77
41.203,-196.92
41.218,-232.67
41.234,-267.76
41.250,-298.69
41.265,-320.51
41.281,-328.5
41.296,-320.04
41.312,-295.67
41.328,-259.17
41.343,-216.04
41.359,-171.64
41.375,-129.76
41.390,-92.18
41.406,-59.37
41.421,-31.39
41.437,-8.49
41.453,8.98
41.468,20.94
41.484,28.18
41.500,32.06
41.515,33.49
41.531,31.93
41.546,25.27
41.562,10.98
41.578,-11.85
41.593,-41.04
41.609,-71.42
41.625,-96.68
41.640,-112.21
41.656,-117.26
41.671,-114.9
41.687,-110.38
41.703,-108.04
41.718,-109.5
41.734,-113.33
41.750,-116.56
41.765,-116.69
41.781,-112.91
41.796,-106.18
41.812,-98.0
41.828,-89.51
41.843,-80.98
41.859,-72.17
41.875,-62.87
41.890,-53.34
41.906,-44.31
41.921,-36.61
41.937,-30.81
41.953,-26.72
41.968,-23.63
41.984,-20.61
42.000,-16.9
42.015,-12.24
42.031,-6.99
42.046,-1.99
42.062,1.75
42.078,3.54
42.093,3.3
42.109,1.56
42.125,-0.67
42.140,-2.38
42.156,-3.03
42.171,-2.76
42.187,-2.36
42.203,-2.77
42.218,-4.62
42.234,-7.89
42.250,-12.06
42.265,-16.32
42.281,-20.05
42.296,-23.11
42.312,-25.78
42.328,-28.7
42.343,-32.37
42.359,-36.91
42.375,-41.85
42.390,-46.12
42.406,-48.34
42.421,-47.0
42.437,-41.08
42.453,-30.22
42.468,-15.05
42.484,3.08
42.500,22.38
42.515,41.05
42.531,57.81
42.546,72.0
42.562,83.59
42.578,92.92
42.593,100.54
42.609,106.88
42.625,112.21
42.640,116.7
42.656,120.45
42.671,123.65
42.687,126.51
42.703,129.28
42.718,132.17
42.734,135.36
42.750,138.9
42.765,142.74
42.781,146.74
42.796,150.69
42.812,154.31
42.828,157.29
42.843,159.34
42.859,160.25
42.875,159.88
42.890,158.13
42.906,154.91
42.921,150.11
42.937,143.6
42.953,135.3
42.968,125.09
42.984,112.83
43.000,98.34
43.015,81.48
43.031,62.18
43.046,40.61
43.062,17.26
43.078,-7.1
43.093,-31.54
43.109,-55.2
43.125,-77.36
43.140,-97.37
43.156,-114.56
43.171,-127.99
43.187,-136.62
43.203,-139.62
43.218,-136.7
43.234,-128.4
43.250,-116.01
43.265,-101.12
43.281,-85.15
43.296,-69.08
43.312,-53.38
43.328,-38.34
43.343,-24.41
43.359,-12.29
43.375,-2.81
43.390,3.43
43.406,6.31
43.421,6.32
43.437,4.37
43.453,1.63
43.468,-0.86
43.484,-2.4
43.500,-2.7
43.515,-1.92
43.531,-0.5
43.546,1.04
43.562,2.19
43.578,2.63
43.593,2.17
43.609,0.82
43.625,-1.33
43.640,-4.06
43.656,-7.09
43.671,-9.98
43.687,-12.28
43.703,-13.64
43.718,-13.99
43.734,-13.6
43.750,-12.94
43.765,-12.58
43.781,-12.86
43.796,-13.89
43.812,-15.46
43.828,-17.18
43.843,-18.66
43.859,-19.5
43.875,-19.52
43.890,-18.63
43.906,-16.91
43.921,-14.48
43.937,-11.55
43.953,-8.41
43.968,-5.28
43.984,-2.37
44.000,0.26
44.015,2.57
44.031,4.64
44.046,6.54
44.062,8.37
44.078,10.17
44.093,11.9
44.109,13.4
44.125,14.41
44.140,14.74
44.156,14.21
44.171,12.93
44.187,11.1
44.203,9.09
44.218,7.23
44.234,5.7
44.250,4.47
44.265,3.31
44.281,1.94
44.296,0.11
44.312,-2.19
44.328,-4.83
44.343,-7.58
44.359,-10.23
44.375,-12.68
44.390,-14.99
44.406,-17.37
44.421,-20.01
44.437,-23.07
44.453,-26.61
44.468,-30.55
44.484,-34.72
44.500,-38.8
44.515,-42.38
44.531,-45.08
44.546,-46.84
44.562,-48.03
44.578,-49.52
44.593,-52.31
44.609,-56.85
44.625,-62.49
44.640,-67.23
44.656,-68.23
44.671,-62.73
44.687,-49.22
44.703,-27.91
44.718,-0.79
44.734,29.2
44.750,59.1
44.765,86.69
44.781,110.63
44.796,130.3
44.812,145.44
44.828,155.83
44.843,161.29
44.859,161.49
44.875,156.02
44.890,144.25
44.906,125.58
44.921,99.82
44.937,67.74
44.953,31.38
44.968,-6.17
44.984,-41.53
45.000,-72.1
45.015,-96.83
45.031,-116.27
45.046,-132.01
45.062,-145.66
45.078,-158.01
45.093,-168.64
45.109,-176.29
45.125,-179.56
45.140,-177.54
45.156,-170.24
45.171,-158.49
45.187,-143.63
45.203,-127.14
45.218,-110.34
45.234,-94.2
45.250,-79.34
45.265,-65.99
45.281,-54.25
45.296,-44.21
45.312,-36.17
45.328,-30.63
45.343,-27.94
45.359,-27.95
45.375,-29.74
45.390,-31.75
45.406,-32.21
45.421,-29.8
45.437,-24.02
45.453,-15.09
45.468,-3.52
45.484,10.43
45.500,26.95
45.515,46.58
45.531,69.62
45.546,95.72
45.562,123.66
45.578,151.36
45.593,176.11
45.609,195.05
45.625,205.52
45.640,205.6
45.656,194.73
45.671,174.33
45.687,147.93
45.703,120.62
45.718,97.85
45.734,83.63
45.750,79.19
45.765,82.47
45.781,88.89
45.796,92.96
45.812,90.31
45.828,78.95
45.843,59.59
45.859,34.82
45.875,7.81
45.890,-18.73
45.906,-42.82
45.921,-62.88
45.937,-77.16
45.953,-83.77
45.968,-81.29
45.984,-70.06
46.000,-52.97
46.015,-35.46
46.031,-24.24
46.046,-25.39
46.062,-42.47
46.078,-75.98
46.093,-123.97
46.109,-183.09
46.125,-249.1
46.140,-316.61
46.156,-378.48
46.171,-426.07
46.187,-451.0
46.203,-447.82
46.218,-416.34
46.234,-362.04
46.250,-294.16
46.265,-222.22
46.281,-153.2
46.296,-90.35
46.312,-34.24
46.328,15.25
46.343,57.45
46.359,90.95
46.375,114.66
46.390,129.11
46.406,136.66
46.421,140.52
46.437,143.4
46.453,146.63
46.468,150.2
46.484,153.27
46.500,155.0
46.515,154.48
46.531,150.53
46.546,141.56
46.562,126.11
46.578,103.93
46.593,76.93
46.609,49.14
46.625,25.44
46.640,9.76
46.656,3.49
46.671,5.24
46.687,11.82
46.703,19.89
46.718,27.25
46.734,33.02
46.750,37.07
46.765,39.24
46.781,38.86
46.796,35.02
46.812,27.08
46.828,15.16
46.843,0.26
46.859,-15.93
46.875,-31.5
46.890,-44.72
46.906,-54.26
46.921,-59.44
46.937,-60.02
46.953,-56.0
46.968,-47.39
46.984,-34.14
47.000,-16.16
47.015,6.27
47.031,32.21
47.046,59.87
47.062,86.62
47.078,109.55
47.093,125.96
47.109,134.14
47.125,133.7
47.140,125.68
47.156,112.19
47.171,95.74
47.187,78.67
47.203,62.44
47.218,47.73
47.234,34.51
47.250,22.52
47.265,11.66
47.281,2.06
47.296,-6.14
47.312,-13.15
47.328,-19.72
47.343,-27.25
47.359,-37.17
47.375,-50.43
47.390,-66.74
47.406,-84.44
47.421,-101.0
47.437,-113.72
47.453,-120.77
47.468,-121.68
47.484,-117.22
47.500,-108.83
47.515,-98.25
47.531,-87.49
47.546,-79.13
47.562,-76.23
47.578,-81.48
47.593,-95.66
47.609,-116.33
47.625,-137.77
47.640,-152.59
47.656,-154.52
47.671,-141.14
47.687,-114.75
47.703,-81.33
47.718,-47.77
47.734,-19.3
47.750,2.01
47.765,16.76
47.781,26.75
47.796,33.45
47.812,37.36
47.828,38.35
47.843,36.46
47.859,32.48
47.875,27.85
47.890,24.24
47.906,22.92
47.921,24.18
47.937,27.51
47.953,31.89
47.968,36.3
47.984,40.11
48.000,43.16
48.015,45.66
48.031,47.9
48.046,49.96
48.062,51.59
48.078,52.22
48.093,51.25
48.109,48.34
48.125,43.58
48.140,37.55
48.156,31.03
48.171,24.67
48.187,18.87
48.203,13.61
48.218,8.73
48.234,4.08
48.250,-0.37
48.265,-4.53
48.281,-8.39
48.296,-12.11
48.312,-16.13
48.328,-21.06
48.343,-27.56
48.359,-35.96
48.375,-46.07
48.390,-56.94
48.406,-66.84
48.421,-73.55
48.437,-74.91
48.453,-69.38
48.468,-56.58
48.484,-37.4
48.500,-13.68
48.515,12.28
48.531,38.29
48.546,62.7
48.562,84.52
48.578,103.33
48.593,119.1
48.609,131.83
48.625,141.43
48.640,147.59
48.656,149.95
48.671,148.31
48.687,142.95
48.703,134.7
48.718,124.82
48.734,114.59
48.750,105.02
48.765,96.7
48.781,89.76
48.796,84.11
48.812,79.62
48.828,76.15
48.843,73.5
48.859,71.35
48.875,69.28
48.890,66.76
48.906,63.45
48.921,59.17
48.937,54.0
48.953,48.18
48.968,42.08
48.984,36.09
49.000,30.56
49.015,25.81
49.031,21.93
49.046,18.82
49.062,16.11
49.078,13.24
49.093,9.64
49.109,4.88
49.125,-1.08
49.140,-7.81
49.156,-14.45
49.171,-19.76
49.187,-22.35
49.203,-20.84
49.218,-14.17
49.234,-1.83
49.250,15.93
49.265,38.06
49.281,62.9
49.296,88.66
49.312,113.84
49.328,137.56
49.343,159.42
49.359,178.97
49.375,195.25
49.390,206.51
49.406,210.72
49.421,206.46
49.437,193.77
49.453,174.4
49.468,151.28
49.484,127.6
49.500,105.96
49.515,88.04
49.531,74.74
49.546,66.59
49.562,63.83
49.578,66.18
49.593,72.52
49.609,80.74
49.625,88.05
49.640,91.77
49.656,90.21
49.671,83.23
49.687,72.44
49.703,60.68
49.718,51.21
49.734,46.44
49.750,46.71
49.765,49.69
49.781,50.82
49.796,44.7
49.812,27.08
49.828,-3.67
49.843,-46.13
49.859,-96.54
49.875,-150.21
49.890,-202.67
49.906,-250.26
49.921,-290.03
49.937,-319.58
49.953,-337.15
49.968,-342.01
49.984,-334.86
50.000,-317.69
50.015,-293.04
50.031,-263.23
50.046,-229.77
50.062,-193.45
50.078,-154.96
50.093,-115.42
50.109,-76.55
50.125,-40.36
50.140,-8.61
50.156,17.59
50.171,37.69
50.187,51.78
50.203,60.42
50.218,64.82
50.234,66.86
50.250,68.87
50.265,72.79
50.281,79.42
50.296,87.72
50.312,94.98
50.328,97.99
50.343,94.35
50.359,83.68
50.375,67.77
50.390,49.86
50.406,33.15
50.421,19.73
50.437,10.05
50.453,3.32
50.468,-1.78
50.484,-6.32
50.500,-10.87
50.515,-15.54
50.531,-20.36
50.546,-25.52
50.562,-31.25
50.578,-37.7
50.593,-44.72
50.609,-51.75
50.625,-58.15
50.640,-63.41
50.656,-67.42
50.671,-70.47
50.687,-73.03
50.703,-75.59
50.718,-78.37
50.734,-81.3
50.750,-84.12
50.765,-86.6
50.781,-88.77
50.796,-91.01
50.812,-94.0
50.828,-98.38
50.843,-104.39
50.859,-111.48
50.875,-118.2
50.890,-122.53
50.906,-122.46
50.921,-116.61
50.937,-104.78
50.953,-87.94
50.968,-68.01
50.984,-47.18
51.000,-27.34
51.015,-9.75
51.031,5.01
51.046,16.79
51.062,25.67
51.078,31.69
51.093,34.94
51.109,35.65
51.125,34.39
51.140,32.06
51.156,29.7
51.171,28.16
51.187,27.92
51.203,28.96
51.218,30.9
51.234,33.19
51.250,35.35
51.265,37.08
51.281,38.21
51.296,38.66
51.312,38.29
51.328,37.05
51.343,34.94
51.359,32.1
51.375,28.92
51.390,25.8
51.406,23.14
51.421,21.15
51.437,19.74
51.453,18.57
51.468,17.21
51.484,15.24
51.500,12.51
51.515,9.17
51.531,5.58
51.546,2.2
51.562,-0.66
51.578,-2.92
51.593,-4.86
51.609,-6.88
51.625,-9.55
51.640,-13.29
51.656,-18.1
51.671,-23.41
51.687,-28.03
51.703,-30.35
51.718,-28.82
51.734,-22.48
51.750,-11.37
51.765,3.38
51.781,19.95
51.796,36.33
51.812,50.91
51.828,62.81
51.843,71.88
51.859,78.43
51.875,82.99
51.890,85.99
51.906,87.69
51.921,88.18
51.937,87.51
51.953,85.71
51.968,82.9
51.984,79.37
52.000,75.43
52.015,71.42
52.031,67.56
52.046,64.05
52.062,60.97
52.078,58.42
52.093,56.37
52.109,54.74
52.125,53.32
52.140,51.72
52.156,49.54
52.171,46.54
52.187,42.67
52.203,38.21
52.218,33.55
52.234,29.06
52.250,24.94
52.265,21.18
52.281,17.62
52.296,14.05
52.312,10.23
52.328,6.02
52.343,1.29
52.359,-4.02
52.375,-9.96
52.390,-16.54
52.406,-23.8
52.421,-31.85
52.437,-40.7
52.453,-50.22
52.468,-59.88
52.484,-68.67
52.500,-75.13
52.515,-77.79
52.531,-75.47
52.546,-67.83
52.562,-55.49
52.578,-39.79
52.593,-22.49
52.609,-5.22
52.625,10.76
52.640,24.78
52.656,36.52
52.671,45.93
52.687,53.03
52.703,57.87
52.718,60.63
52.734,61.58
52.750,61.18
52.765,59.9
52.781,58.09
52.796,55.91
52.812,53.34
52.828,50.33
52.843,46.86
52.859,43.11
52.875,39.29
52.890,35.68
52.906,32.38
52.921,29.26
52.937,26.11
52.953,22.68
52.968,18.9
52.984,14.86
53.000,10.83
53.015,7.12
53.031,3.91
53.046,1.17
53.062,-1.41
53.078,-4.31
53.093,-8.02
53.109,-12.89
53.125,-18.95
53.140,-25.96
53.156,-33.47
53.171,-41.01
53.187,-48.16
53.203,-54.57
53.218,-59.99
53.234,-64.26
53.250,-67.38
53.265,-69.47
53.281,-70.71
53.296,-71.32
53.312,-71.23
53.328,-70.03
53.343,-66.93
53.359,-60.97
53.375,-51.43
53.390,-38.08
53.406,-21.31
53.421,-1.99
53.437,18.66
53.453,39.33
53.468,58.66
53.484,75.26
53.500,87.63
53.515,94.34
53.531,94.29
53.546,87.16
53.562,73.78
53.578,56.17
53.593,37.21
53.609,19.87
53.625,6.59
53.640,-1.39
53.656,-4.08
53.671,-2.55
53.687,1.6
53.703,6.76
53.718,11.61
53.734,15.22
53.750,16.94
53.765,16.26
53.781,12.79
53.796,6.34
53.812,-2.94
53.828,-14.44
53.843,-27.17
53.859,-39.89
53.875,-51.53
53.890,-61.4
53.906,-69.44
53.921,-76.05
53.937,-81.77
53.953,-86.99
53.968,-91.72
53.984,-95.6
54.000,-98.24
54.015,-99.53
54.031,-99.91
54.046,-100.26
54.062,-101.68
54.078,-104.99
54.093,-110.48
54.109,-117.88
54.125,-126.39
54.140,-134.96
54.156,-142.41
54.171,-147.55
54.187,-149.09
54.203,-145.88
54.218,-137.06
54.234,-122.41
54.250,-102.53
54.265,-78.74
54.281,-52.81
54.296,-26.56
54.312,-1.46
54.328,21.45
54.343,41.55
54.359,58.59
54.375,72.56
54.390,83.63
54.406,92.06
54.421,98.09
54.437,101.99
54.453,103.95
54.468,104.19
54.484,102.99
54.500,100.7
54.515,97.66
54.531,94.06
54.546,89.95
54.562,85.25
54.578,79.94
54.593,74.12
54.609,67.96
54.625,61.56
54.640,54.85
54.656,47.58
54.671,39.45
54.687,30.25
54.703,19.99
54.718,8.81
54.734,-2.99
54.750,-15.12
54.765,-27.35
54.781,-39.44
54.796,-51.16
54.812,-62.31
54.828,-72.73
54.843,-82.34
54.859,-91.24
54.875,-99.59
54.890,-107.57
54.906,-115.16
54.921,-122.0
54.937,-127.33
54.953,-129.97
54.968,-128.58
54.984,-122.14
55.000,-110.31
55.015,-93.75
55.031,-74.01
55.046,-53.16
55.062,-33.23
55.078,-15.73
55.093,-1.38
55.109,9.83
55.125,18.37
55.140,24.85
55.156,29.77
55.171,33.43
55.187,36.04
55.203,37.86
55.218,39.16
55.234,40.28
55.250,41.46
55.265,42.82
55.281,44.24
55.296,45.54
55.312,46.53
55.328,47.18
55.343,47.61
55.359,48.01
55.375,48.41
55.390,48.69
55.406,48.49
55.421,47.44
55.437,45.29
55.453,42.09
55.468,38.16
55.484,33.95
55.500,29.82
55.515,25.89
55.531,22.09
55.546,18.22
55.562,14.16
55.578,9.96
55.593,5.74
55.609,1.71
55.625,-2.01
55.640,-5.38
55.656,-8.52
55.671,-11.61
55.687,-14.87
55.703,-18.46
55.718,-22.27
55.734,-25.8
55.750,-28.1
55.765,-27.87
55.781,-23.79
55.796,-15.08
55.812,-1.66
55.828,15.55
55.843,35.04
55.859,55.08
55.875,74.25
55.890,91.76
55.906,107.49
55.921,121.67
55.937,134.55
55.953,146.1
55.968,155.8
55.984,162.91
56.000,166.66
56.015,166.66
56.031,163.02
56.046,156.39
56.062,147.74
56.078,138.09
56.093,128.3
56.109,118.93
56.125,110.38
56.140,102.91
56.156,96.76
56.171,92.16
56.187,89.26
56.203,88.0
56.218,88.01
56.234,88.58
56.250,88.78
56.265,87.71
56.281,84.68
56.296,79.33
56.312,71.66
56.328,61.85
56.343,50.25
56.359,37.28
56.375,23.47
56.390,9.42
56.406,-4.31
56.421,-17.63
56.437,-31.14
56.453,-46.09
56.468,-63.96
56.484,-85.82
56.500,-111.77
56.515,-140.75
56.531,-170.75
56.546,-199.29
56.562,-223.87
56.578,-242.3
56.593,-252.69
56.609,-253.71
56.625,-244.72
56.640,-226.18
56.656,-199.73
56.671,-168.12
56.687,-134.69
56.703,-102.62
56.718,-74.28
56.734,-50.79
56.750,-32.13
56.765,-17.38
56.781,-5.28
56.796,5.39
56.812,15.51
56.828,25.54
56.843,35.59
56.859,45.6
56.875,55.5
56.890,65.13
56.906,74.41
56.921,83.11
56.937,90.94
56.953,97.64
56.968,103.15
56.984,107.68
57.000,111.47
57.015,114.61
57.031,116.76
57.046,117.22
57.062,115.18
57.078,110.02
57.093,101.58
57.109,90.02
57.125,75.55
57.140,58.18
57.156,37.95
57.171,15.19
57.187,-9.02
57.203,-33.01
57.218,-55.23
57.234,-74.96
57.250,-92.76
57.265,-110.1
57.281,-128.46
57.296,-148.24
57.312,-168.46
57.328,-187.05
57.343,-201.88
57.359,-211.65
57.375,-216.17
57.390,-215.99
57.406,-211.66
57.421,-203.19
57.437,-190.09
57.453,-171.87
57.468,-148.72
57.484,-121.89
57.500,-93.57
57.515,-66.29
57.531,-42.23
57.546,-22.54
57.562,-7.23
57.578,4.51
57.593,13.67
57.609,20.9
57.625,26.26
57.640,29.33
57.656,29.71
57.671,27.35
57.687,22.84
57.703,17.28
57.718,11.83
57.734,7.42
57.750,4.47
57.765,2.99
57.781,2.77
57.796,3.55
57.812,5.12
57.828,7.25
57.843,9.77
57.859,12.5
57.875,15.43
57.890,18.64
57.906,22.33
57.921,26.71
57.937,31.76
57.953,37.37
57.968,43.37
57.984,49.69
58.000,56.41
58.015,63.66
58.031,71.27
58.046,78.61
58.062,84.59
58.078,87.89
58.093,87.36
58.109,82.3
58.125,72.59
58.140,58.75
58.156,41.83
58.171,23.38
58.187,5.26
58.203,-10.43
58.218,-21.86
58.234,-27.8
58.250,-27.95
58.265,-23.04
58.281,-14.59
58.296,-4.43
58.312,5.78
58.328,14.76
58.343,21.86
58.359,26.78
58.375,29.58
58.390,30.46
58.406,29.77
58.421,27.97
58.437,25.62
58.453,23.27
58.468,21.4
58.484,20.38
58.500,20.38
58.515,21.41
58.531,23.36
58.546,25.98
58.562,29.04
58.578,32.24
58.593,35.25
58.609,37.69
58.625,39.16
58.640,39.26
58.656,37.63
58.671,34.03
58.687,28.46
58.703,21.24
58.718,13.01
58.734,4.59
58.750,-3.3
58.765,-10.27
58.781,-16.35
58.796,-22.07
58.812,-27.97
58.828,-34.46
58.843,-41.5
58.859,-48.76
58.875,-55.74
58.890,-61.99
58.906,-67.17
58.921,-70.86
58.937,-72.55
58.953,-71.47
58.968,-66.85
58.984,-58.27
59.000,-45.93
59.015,-30.72
59.031,-13.97
59.046,2.9
59.062,18.86
59.078,33.34
59.093,46.26
59.109,57.61
59.125,67.28
59.140,74.91
59.156,80.01
59.171,82.26
59.187,81.66
59.203,78.76
59.218,74.3
59.234,69.04
59.250,63.4
59.265,57.48
59.281,51.16
59.296,44.35
59.312,37.1
59.328,29.67
59.343,22.38
59.359,15.4
59.375,8.71
59.390,2.12
59.406,-4.61
59.421,-11.73
59.437,-19.4
59.453,-27.78
59.468,-36.96
59.484,-46.88
59.500,-57.25
59.515,-67.52
59.531,-76.89
59.546,-84.67
59.562,-90.43
59.578,-94.3
59.593,-96.85
59.609,-98.93
59.625,-101.29
59.640,-104.24
59.656,-107.53
59.671,-110.32
59.687,-111.45
59.703,-109.69
59.718,-104.09
59.734,-94.28
59.750,-80.57
59.765,-63.89
59.781,-45.54
59.796,-26.89
59.812,-9.01
59.828,7.49
59.843,22.45
59.859,35.99
59.875,48.17
59.890,58.94
59.906,68.0
59.921,75.0
59.937,79.71
59.953,82.2
59.968,82.92
59.984,82.5
