timestamp,value
00.000,-2.61
00.015,-4.02
00.031,-5.87
00.046,-8.26
00.062,-11.16
00.078,-14.47
00.093,-18.03
00.109,-21.6
00.125,-25.03
00.140,-28.3
00.156,-31.56
00.171,-35.08
00.187,-39.14
00.203,-43.8
00.218,-48.83
00.234,-53.66
00.250,-57.63
00.265,-60.09
00.281,-60.64
00.296,-59.11
00.312,-55.63
00.328,-50.43
00.343,-43.81
00.359,-36.04
00.375,-27.34
00.390,-17.9
00.406,-7.95
00.421,2.11
00.437,11.75
00.453,20.37
00.468,27.39
00.484,32.45
00.500,35.46
00.515,36.76
00.531,36.93
00.546,36.76
00.562,36.93
00.578,37.9
00.593,39.74
00.609,42.16
00.625,44.59
00.640,46.38
00.656,47.01
00.671,46.18
00.687,43.9
00.703,40.36
00.718,35.9
00.734,30.86
00.750,25.52
00.765,20.12
00.781,14.82
00.796,9.64
00.812,4.62
00.828,-0.26
00.843,-4.88
00.859,-8.94
00.875,-11.94
00.890,-13.34
00.906,-12.68
00.921,-9.76
00.937,-4.78
00.953,1.76
00.968,9.22
00.984,16.93
01.000,24.31
01.015,31.01
01.031,36.83
01.046,41.81
01.062,46.15
01.078,50.11
01.093,53.9
01.109,57.54
01.125,60.78
01.140,63.2
01.156,64.5
01.171,64.61
01.187,63.89
01.203,63.0
01.218,62.65
01.234,63.39
01.250,65.38
01.265,68.31
01.281,71.54
01.296,74.16
01.312,75.16
01.328,73.64
01.343,69.0
01.359,61.16
01.375,50.62
01.390,38.37
01.406,25.59
01.421,13.38
01.437,2.43
01.453,-7.09
01.468,-15.48
01.484,-23.26
01.500,-30.92
01.515,-38.6
01.531,-46.07
01.546,-52.79
01.562,-58.16
01.578,-61.78
01.593,-63.68
01.609,-64.25
01.625,-64.1
01.640,-63.77
01.656,-63.5
01.671,-63.15
01.687,-62.32
01.703,-60.6
01.718,-57.79
01.734,-53.98
01.750,-49.52
01.765,-44.74
01.781,-39.92
01.796,-35.09
01.812,-30.07
01.828,-24.61
01.843,-18.48
01.859,-11.66
01.875,-4.36
01.890,3.04
01.906,10.09
01.921,16.31
01.937,21.32
01.953,24.76
01.968,26.2
01.984,25.08
02.000,20.72
02.015,12.5
02.031,0.19
02.046,-15.76
02.062,-34.12
02.078,-52.97
02.093,-70.17
02.109,-83.86
02.125,-92.9
02.140,-97.12
02.156,-97.11
02.171,-93.87
02.187,-88.51
02.203,-82.04
02.218,-75.38
02.234,-69.46
02.250,-65.08
02.265,-62.66
02.281,-61.9
02.296,-61.62
02.312,-60.03
02.328,-55.34
02.343,-46.43
02.359,-33.34
02.375,-17.21
02.390,0.1
02.406,16.72
02.421,31.23
02.437,42.91
02.453,51.68
02.468,57.81
02.484,61.7
02.500,63.69
02.515,64.08
02.531,63.09
02.546,60.92
02.562,57.63
02.578,53.21
02.593,47.45
02.609,40.12
02.625,31.22
02.640,21.26
02.656,11.53
02.671,3.95
02.687,0.64
02.703,3.14
02.718,11.8
02.734,25.59
02.750,42.38
02.765,59.63
02.781,75.09
02.796,87.2
02.812,95.11
02.828,98.48
02.843,97.18
02.859,91.27
02.875,81.06
02.890,67.21
02.906,50.67
02.921,32.53
02.937,13.83
02.953,-4.48
02.968,-21.49
02.984,-36.21
03.000,-47.59
03.015,-54.67
03.031,-56.88
03.046,-54.24
03.062,-47.52
03.078,-38.04
03.093,-27.34
03.109,-16.88
03.125,-7.66
03.140,-0.12
03.156,5.8
03.171,10.44
03.187,14.16
03.203,17.13
03.218,19.24
03.234,20.27
03.250,20.02
03.265,18.49
03.281,15.86
03.296,12.38
03.312,8.24
03.328,3.49
03.343,-1.83
03.359,-7.67
03.375,-13.91
03.390,-20.39
03.406,-27.15
03.421,-34.47
03.437,-42.87
03.453,-52.92
03.468,-65.03
03.484,-79.14
03.500,-94.74
03.515,-110.87
03.531,-126.37
03.546,-140.1
03.562,-151.16
03.578,-159.05
03.593,-163.52
03.609,-164.52
03.625,-161.94
03.640,-155.6
03.656,-145.37
03.671,-131.28
03.687,-113.8
03.703,-93.85
03.718,-72.66
03.734,-51.53
03.750,-31.51
03.765,-13.29
03.781,2.84
03.796,16.87
03.812,28.88
03.828,38.98
03.843,47.28
03.859,53.86
03.875,58.82
03.890,62.28
03.906,64.44
03.921,65.57
03.937,66.01
03.953,66.17
03.968,66.42
03.984,67.03
04.000,68.16
04.015,69.79
04.031,71.77
04.046,73.76
04.062,75.27
04.078,75.62
04.093,74.11
04.109,70.11
04.125,63.34
04.140,53.97
04.156,42.64
04.171,30.3
04.187,17.92
04.203,6.23
04.218,-4.39
04.234,-13.74
04.250,-21.6
04.265,-27.48
04.281,-30.68
04.296,-30.4
04.312,-26.21
04.328,-18.29
04.343,-7.42
04.359,5.13
04.375,18.08
04.390,30.44
04.406,41.64
04.421,51.47
04.437,59.8
04.453,66.38
04.468,70.74
04.484,72.45
04.500,71.22
04.515,67.23
04.531,61.07
04.546,53.61
04.562,45.84
04.578,38.56
04.593,32.31
04.609,27.27
04.625,23.46
04.640,20.73
04.656,18.99
04.671,18.22
04.687,18.48
04.703,19.84
04.718,22.12
04.734,24.85
04.750,27.2
04.765,28.17
04.781,26.87
04.796,22.89
04.812,16.44
04.828,8.37
04.843,-0.04
04.859,-7.29
04.875,-11.94
04.890,-12.78
04.906,-9.02
04.921,-0.63
04.937,11.52
04.953,25.6
04.968,39.15
04.984,49.67
05.000,55.34
05.015,55.58
05.031,51.12
05.046,43.63
05.062,35.14
05.078,27.46
05.093,21.83
05.109,18.82
05.125,18.5
05.140,20.63
05.156,24.73
05.171,30.17
05.187,36.22
05.203,42.04
05.218,46.79
05.234,49.7
05.250,50.15
05.265,47.78
05.281,42.53
05.296,34.66
05.312,24.69
05.328,13.3
05.343,1.15
05.359,-11.23
05.375,-23.44
05.390,-35.24
05.406,-46.41
05.421,-56.73
05.437,-66.05
05.453,-74.43
05.468,-82.14
05.484,-89.58
05.500,-96.95
05.515,-103.94
05.531,-109.61
05.546,-112.57
05.562,-111.45
05.578,-105.46
05.593,-94.73
05.609,-80.3
05.625,-63.78
05.640,-46.87
05.656,-30.93
05.671,-16.78
05.687,-4.78
05.703,5.08
05.718,12.89
05.734,18.88
05.750,23.28
05.765,26.42
05.781,28.72
05.796,30.61
05.812,32.52
05.828,34.74
05.843,37.36
05.859,40.28
05.875,43.25
05.890,45.99
05.906,48.27
05.921,50.01
05.937,51.25
05.953,52.04
05.968,52.33
05.984,51.92
06.000,50.4
06.015,47.31
06.031,42.3
06.046,35.14
06.062,25.84
06.078,14.48
06.093,1.27
06.109,-13.49
06.125,-29.19
06.140,-44.77
06.156,-58.73
06.171,-69.24
06.187,-74.7
06.203,-74.07
06.218,-67.34
06.234,-55.44
06.250,-40.04
06.265,-23.05
06.281,-6.22
06.296,9.22
06.312,22.54
06.328,33.42
06.343,41.75
06.359,47.37
06.375,50.19
06.390,50.22
06.406,47.78
06.421,43.57
06.437,38.61
06.453,33.88
06.468,30.08
06.484,27.44
06.500,25.64
06.515,24.12
06.531,22.33
06.546,19.94
06.562,16.9
06.578,13.35
06.593,9.44
06.609,5.17
06.625,0.43
06.640,-5.03
06.656,-11.47
06.671,-19.01
06.687,-27.68
06.703,-37.33
06.718,-47.76
06.734,-58.68
06.750,-69.69
06.765,-80.18
06.781,-89.21
06.796,-95.62
06.812,-98.15
06.828,-95.89
06.843,-88.59
06.859,-76.88
06.875,-62.16
06.890,-46.19
06.906,-30.62
06.921,-16.58
06.937,-4.52
06.953,5.68
06.968,14.34
06.984,21.69
07.000,27.7
07.015,32.11
07.031,34.61
07.046,35.16
07.062,34.04
07.078,31.86
07.093,29.32
07.109,26.93
07.125,24.85
07.140,22.88
07.156,20.65
07.171,17.86
07.187,14.42
07.203,10.49
07.218,6.37
07.234,2.35
07.250,-1.51
07.265,-5.43
07.281,-9.82
07.296,-15.14
07.312,-21.81
07.328,-30.06
07.343,-39.93
07.359,-51.3
07.375,-63.71
07.390,-76.43
07.406,-88.3
07.421,-97.94
07.437,-104.03
07.453,-105.74
07.468,-103.02
07.484,-96.64
07.500,-87.97
07.515,-78.38
07.531,-68.95
07.546,-60.16
07.562,-52.06
07.578,-44.49
07.593,-37.36
07.609,-30.77
07.625,-24.94
07.640,-20.16
07.656,-16.56
07.671,-14.17
07.687,-12.92
07.703,-12.55
07.718,-12.78
07.734,-13.25
07.750,-13.57
07.765,-13.43
07.781,-12.79
07.796,-11.78
07.812,-10.79
07.828,-10.21
07.843,-10.27
07.859,-10.98
07.875,-12.15
07.890,-13.62
07.906,-15.47
07.921,-18.06
07.937,-21.89
07.953,-27.26
07.968,-33.97
07.984,-41.14
08.000,-47.35
08.015,-51.03
08.031,-50.86
08.046,-46.24
08.062,-37.42
08.078,-25.41
08.093,-11.69
08.109,2.26
08.125,15.28
08.140,26.73
08.156,36.48
08.171,44.73
08.187,51.74
08.203,57.57
08.218,62.06
08.234,64.88
08.250,65.77
08.265,64.74
08.281,62.15
08.296,58.63
08.312,54.87
08.328,51.4
08.343,48.46
08.359,46.04
08.375,43.92
08.390,41.85
08.406,39.7
08.421,37.35
08.437,34.74
08.453,31.77
08.468,28.25
08.484,23.9
08.500,18.41
08.515,11.45
08.531,2.74
08.546,-7.87
08.562,-20.16
08.578,-33.39
08.593,-46.21
08.609,-56.81
08.625,-63.3
08.640,-64.36
08.656,-59.6
08.671,-49.8
08.687,-36.61
08.703,-22.04
08.718,-7.77
08.734,5.24
08.750,16.78
08.765,27.13
08.781,36.58
08.796,45.09
08.812,52.18
08.828,57.19
08.843,59.54
08.859,59.14
08.875,56.47
08.890,52.41
08.906,48.0
08.921,44.09
08.937,41.08
08.953,39.01
08.968,37.62
08.984,36.59
09.000,35.68
09.015,34.7
09.031,33.49
09.046,31.86
09.062,29.54
09.078,26.29
09.093,21.97
09.109,16.6
09.125,10.33
09.140,3.35
09.156,-4.24
09.171,-12.41
09.187,-21.06
09.203,-29.9
09.218,-38.16
09.234,-44.69
09.250,-48.15
09.265,-47.44
09.281,-42.12
09.296,-32.58
09.312,-19.94
09.328,-5.66
09.343,8.86
09.359,22.61
09.375,34.96
09.390,45.52
09.406,53.96
09.421,59.87
09.437,62.87
09.453,62.89
09.468,60.26
09.484,55.78
09.500,50.54
09.515,45.53
09.531,41.38
09.546,38.2
09.562,35.66
09.578,33.25
09.593,30.53
09.609,27.3
09.625,23.56
09.640,19.41
09.656,14.86
09.671,9.74
09.687,3.81
09.703,-3.07
09.718,-10.77
09.734,-18.88
09.750,-26.85
09.765,-34.26
09.781,-41.02
09.796,-47.44
09.812,-53.98
09.828,-60.93
09.843,-68.03
09.859,-74.37
09.875,-78.52
09.890,-79.07
09.906,-75.01
09.921,-66.18
09.937,-53.22
09.953,-37.41
09.968,-20.21
09.984,-3.05
10.000,12.98
10.015,27.09
10.031,38.86
10.046,48.12
10.062,54.97
10.078,59.73
10.093,62.82
10.109,64.59
10.125,65.18
10.140,64.48
10.156,62.28
10.171,58.45
10.187,53.2
10.203,47.07
10.218,40.86
10.234,35.27
10.250,30.7
10.265,27.09
10.281,23.98
10.296,20.77
10.312,16.89
10.328,12.09
10.343,6.36
10.359,-0.12
10.375,-7.12
10.390,-14.54
10.406,-22.35
10.421,-30.56
10.437,-39.13
10.453,-47.93
10.468,-56.63
10.484,-64.74
10.500,-71.61
10.515,-76.42
10.531,-78.29
10.546,-76.47
10.562,-70.49
10.578,-60.44
10.593,-47.0
10.609,-31.35
10.625,-14.94
10.640,0.93
10.656,15.41
10.671,28.17
10.687,39.39
10.703,49.31
10.718,58.04
10.734,65.35
10.750,70.83
10.765,74.07
10.781,75.04
10.796,74.15
10.812,72.16
10.828,69.94
10.843,68.14
10.859,66.93
10.875,66.13
10.890,65.3
10.906,64.0
10.921,61.96
10.937,59.08
10.953,55.39
10.968,50.9
10.984,45.64
11.000,39.63
11.015,32.96
11.031,25.93
11.046,18.89
11.062,12.17
11.078,5.8
11.093,-0.56
11.109,-7.58
11.125,-16.02
11.140,-26.25
11.156,-37.99
11.171,-50.12
11.187,-60.93
11.203,-68.57
11.218,-71.65
11.234,-69.58
11.250,-62.71
11.265,-52.12
11.281,-39.19
11.296,-25.27
11.312,-11.45
11.328,1.43
11.343,12.8
11.359,22.24
11.375,29.5
11.390,34.54
11.406,37.54
11.421,38.83
11.437,38.74
11.453,37.53
11.468,35.28
11.484,32.0
11.500,27.78
11.515,22.83
11.531,17.63
11.546,12.73
11.562,8.64
11.578,5.6
11.593,3.47
11.609,1.77
11.625,-0.11
11.640,-2.75
11.656,-6.48
11.671,-11.35
11.687,-17.16
11.703,-23.54
11.718,-30.11
11.734,-36.51
11.750,-42.54
11.765,-48.18
11.781,-53.63
11.796,-59.23
11.812,-65.29
11.828,-71.87
11.843,-78.6
11.859,-84.67
11.875,-88.87
11.890,-89.97
11.906,-87.0
11.921,-79.59
11.937,-68.01
11.953,-53.16
11.968,-36.35
11.984,-18.99
12.000,-2.31
12.015,12.83
12.031,26.02
12.046,37.2
12.062,46.49
12.078,54.01
12.093,59.73
12.109,63.53
12.125,65.36
12.140,65.36
12.156,63.97
12.171,61.77
12.187,59.33
12.203,57.07
12.218,55.15
12.234,53.52
12.250,52.05
12.265,50.6
12.281,49.08
12.296,47.37
12.312,45.37
12.328,42.96
12.343,40.14
12.359,37.07
12.375,34.0
12.390,31.2
12.406,28.84
12.421,26.91
12.437,25.28
12.453,23.79
12.468,22.29
12.484,20.74
12.500,19.11
12.515,17.43
12.531,15.7
12.546,13.85
12.562,11.9
12.578,9.87
12.593,7.95
12.609,6.32
12.625,5.14
12.640,4.39
12.656,3.98
12.671,3.68
12.687,3.3
12.703,2.72
12.718,1.87
12.734,0.77
12.750,-0.57
12.765,-2.13
12.781,-3.84
12.796,-5.55
12.812,-7.03
12.828,-8.03
12.843,-8.46
12.859,-8.47
12.875,-8.44
12.890,-8.85
12.906,-9.98
12.921,-11.84
12.937,-14.13
12.953,-16.44
12.968,-18.43
12.984,-20.01
13.000,-21.33
13.015,-22.63
13.031,-24.14
13.046,-25.93
13.062,-28.04
13.078,-30.51
13.093,-33.46
13.109,-37.03
13.125,-41.27
13.140,-46.07
13.156,-51.03
13.171,-55.68
13.187,-59.55
13.203,-62.43
13.218,-64.48
13.234,-66.22
13.250,-68.4
13.265,-71.84
13.281,-77.02
13.296,-83.8
13.312,-91.24
13.328,-97.7
13.343,-101.16
13.359,-99.92
13.375,-93.09
13.390,-80.95
13.406,-64.79
13.421,-46.45
13.437,-27.77
13.453,-10.07
13.468,5.94
13.484,20.06
13.500,32.32
13.515,42.67
13.531,50.93
13.546,56.9
13.562,60.53
13.578,62.0
13.593,61.8
13.609,60.54
13.625,58.72
13.640,56.63
13.656,54.31
13.671,51.65
13.687,48.65
13.703,45.51
13.718,42.59
13.734,40.22
13.750,38.44
13.765,36.88
13.781,34.88
13.796,31.81
13.812,27.3
13.828,21.45
13.843,14.73
13.859,7.77
13.875,1.07
13.890,-5.08
13.906,-10.7
13.921,-15.97
13.937,-21.13
13.953,-26.47
13.968,-32.23
13.984,-38.58
14.000,-45.47
14.015,-52.48
14.031,-58.86
14.046,-63.58
14.062,-65.6
14.078,-64.15
14.093,-58.97
14.109,-50.43
14.125,-39.47
14.140,-27.35
14.156,-15.34
14.171,-4.43
14.187,4.97
14.203,13.02
14.218,20.36
14.234,27.69
14.250,35.42
14.265,43.41
14.281,50.91
14.296,56.82
14.312,60.05
14.328,59.88
14.343,56.18
14.359,49.64
14.375,41.58
14.390,33.81
14.406,28.14
14.421,25.87
14.437,27.3
14.453,31.48
14.468,36.47
14.484,40.0
14.500,40.38
14.515,37.11
14.531,31.02
14.546,23.73
14.562,16.9
14.578,11.43
14.593,7.28
14.609,3.66
14.625,-0.45
14.640,-5.77
14.656,-12.52
14.671,-20.39
14.687,-28.63
14.703,-36.25
14.718,-42.09
14.734,-45.1
14.750,-44.49
14.765,-40.16
14.781,-32.71
14.796,-23.45
14.812,-13.92
14.828,-5.39
14.843,1.4
14.859,6.27
14.875,9.42
14.890,11.03
14.906,11.22
14.921,10.07
14.937,7.83
14.953,5.05
14.968,2.55
14.984,1.03
15.000,0.88
15.015,1.95
15.031,3.67
15.046,5.35
15.062,6.58
15.078,7.47
15.093,8.72
15.109,11.28
15.125,15.93
15.140,22.88
15.156,31.53
15.171,40.61
15.187,48.63
15.203,54.37
15.218,57.3
15.234,57.64
15.250,56.14
15.265,53.6
15.281,50.54
15.296,47.04
15.312,43.02
15.328,38.54
15.343,34.01
15.359,30.12
15.375,27.52
15.390,26.37
15.406,26.15
15.421,25.8
15.437,24.07
15.453,20.12
15.468,13.87
15.484,5.99
15.500,-2.42
15.515,-10.28
15.531,-16.95
15.546,-22.42
15.562,-27.16
15.578,-31.83
15.593,-36.85
15.609,-42.25
15.625,-47.58
15.640,-52.05
15.656,-54.82
15.671,-55.24
15.687,-52.94
15.703,-47.96
15.718,-40.7
15.734,-31.93
15.750,-22.74
15.765,-14.31
15.781,-7.67
15.796,-3.35
15.812,-1.24
15.828,-0.71
15.843,-0.9
15.859,-1.2
15.875,-1.53
15.890,-2.29
15.906,-4.17
15.921,-7.76
15.937,-13.33
15.953,-20.84
15.968,-29.89
15.984,-39.88
16.000,-49.9
16.015,-58.64
16.031,-64.45
16.046,-65.59
16.062,-60.71
16.078,-49.29
16.093,-31.87
16.109,-9.93
16.125,14.52
16.140,39.58
16.156,63.8
16.171,86.39
16.187,107.1
16.203,125.88
16.218,142.72
16.234,157.34
16.250,169.27
16.265,177.87
16.281,182.41
16.296,182.27
16.312,177.11
16.328,167.1
16.343,153.05
16.359,136.42
16.375,119.03
16.390,102.63
16.406,88.55
16.421,77.32
16.437,68.73
16.453,62.04
16.468,56.28
16.484,50.61
16.500,44.44
16.515,37.46
16.531,29.53
16.546,20.61
16.562,10.7
16.578,-0.19
16.593,-12.01
16.609,-24.66
16.625,-37.96
16.640,-51.58
16.656,-64.97
16.671,-77.28
16.687,-87.41
16.703,-94.21
16.718,-96.72
16.734,-94.6
16.750,-88.21
16.765,-78.68
16.781,-67.51
16.796,-56.16
16.812,-45.64
16.828,-36.45
16.843,-28.71
16.859,-22.49
16.875,-18.05
16.890,-15.84
16.906,-16.31
16.921,-19.58
16.937,-25.27
16.953,-32.55
16.968,-40.41
16.984,-47.98
17.000,-54.76
17.015,-60.68
17.031,-65.94
17.046,-70.85
17.062,-75.72
17.078,-80.87
17.093,-86.59
17.109,-93.18
17.125,-100.8
17.140,-109.32
17.156,-118.33
17.171,-127.13
17.187,-135.02
17.203,-141.46
17.218,-146.27
17.234,-149.66
17.250,-152.09
17.265,-153.82
17.281,-154.67
17.296,-153.84
17.312,-150.05
17.328,-142.02
17.343,-128.9
17.359,-110.6
17.375,-87.91
17.390,-62.16
17.406,-34.95
17.421,-7.75
17.437,18.2
17.453,42.06
17.468,63.32
17.484,81.81
17.500,97.63
17.515,111.0
17.531,122.02
17.546,130.54
17.562,136.13
17.578,138.33
17.593,137.01
17.609,132.52
17.625,125.65
17.640,117.33
17.656,108.24
17.671,98.67
17.687,88.58
17.703,77.85
17.718,66.52
17.734,54.91
17.750,43.4
17.765,32.16
17.781,20.98
17.796,9.23
17.812,-3.9
17.828,-19.14
17.843,-36.91
17.859,-57.04
17.875,-78.68
17.890,-100.25
17.906,-119.52
17.921,-134.01
17.937,-141.59
17.953,-141.05
17.968,-132.5
17.984,-117.34
18.000,-97.81
18.015,-76.3
18.031,-54.71
18.046,-34.1
18.062,-14.9
18.078,2.81
18.093,18.91
18.109,33.01
18.125,44.57
18.140,53.0
18.156,57.87
18.171,58.99
18.187,56.34
18.203,49.98
18.218,40.07
18.234,26.99
18.250,11.49
18.265,-5.26
18.281,-21.83
18.296,-36.92
18.312,-49.72
18.328,-60.1
18.343,-68.54
18.359,-75.77
18.375,-82.52
18.390,-89.36
18.406,-96.69
18.421,-104.76
18.437,-113.55
18.453,-122.59
18.468,-130.78
18.484,-136.46
18.500,-137.77
18.515,-133.18
18.531,-122.05
18.546,-104.78
18.562,-82.74
18.578,-57.8
18.593,-31.95
18.609,-6.86
18.625,16.22
18.640,36.42
18.656,53.09
18.671,65.63
18.687,73.33
18.703,75.28
18.718,70.51
18.734,58.34
18.750,38.74
18.765,12.75
18.781,-17.52
18.796,-49.08
18.812,-78.64
18.828,-103.24
18.843,-120.78
18.859,-130.28
18.875,-131.92
18.890,-126.71
18.906,-116.15
18.921,-101.9
18.937,-85.48
18.953,-68.16
18.968,-50.85
18.984,-34.16
19.000,-18.45
19.015,-4.04
19.031,8.76
19.046,19.61
19.062,28.37
19.078,35.24
19.093,40.81
19.109,46.0
19.125,51.84
19.140,59.28
19.156,68.96
19.171,81.09
19.187,95.44
19.203,111.35
19.218,127.72
19.234,143.22
19.250,156.36
19.265,165.83
19.281,170.77
19.296,170.93
19.312,166.68
19.328,158.86
19.343,148.37
19.359,135.82
19.375,121.12
19.390,103.42
19.406,81.15
19.421,52.74
19.437,17.65
19.453,-22.62
19.468,-64.09
19.484,-101.12
19.500,-127.99
19.515,-140.84
19.531,-138.77
19.546,-123.73
19.562,-99.31
19.578,-69.54
19.593,-38.26
19.609,-9.34
19.625,13.22
19.640,25.54
19.656,25.06
19.671,11.7
19.687,-11.76
19.703,-40.11
19.718,-67.33
19.734,-88.04
19.750,-98.56
19.765,-97.24
19.781,-84.4
19.796,-62.18
19.812,-34.24
19.828,-5.15
19.843,20.82
19.859,40.71
19.875,53.42
19.890,59.37
19.906,59.64
19.921,55.24
19.937,47.02
19.953,35.78
19.968,22.52
19.984,8.15
20.000,-6.78
20.015,-22.12
20.031,-37.67
20.046,-52.51
20.062,-64.91
20.078,-72.99
20.093,-75.87
20.109,-74.5
20.125,-71.65
20.140,-70.71
20.156,-74.18
20.171,-82.51
20.187,-94.08
20.203,-106.09
20.218,-115.68
20.234,-120.76
20.250,-120.02
20.265,-112.75
20.281,-98.69
20.296,-78.04
20.312,-51.8
20.328,-21.87
20.343,9.17
20.359,38.67
20.375,64.7
20.390,86.45
20.406,104.27
20.421,119.2
20.437,132.29
20.453,143.9
20.468,153.4
20.484,159.42
20.500,160.36
20.515,155.12
20.531,143.56
20.546,126.67
20.562,106.24
20.578,84.42
20.593,63.18
20.609,44.06
20.625,28.13
20.640,16.07
20.656,8.18
20.671,4.28
20.687,3.66
20.703,5.0
20.718,6.44
20.734,5.93
20.750,1.63
20.765,-7.62
20.781,-22.11
20.796,-41.2
20.812,-63.57
20.828,-87.4
20.843,-110.72
20.859,-131.57
20.875,-147.92
20.890,-157.75
20.906,-159.11
20.921,-150.48
20.937,-131.2
20.953,-101.94
20.968,-64.83
20.984,-23.3
21.000,18.75
21.015,57.78
21.031,91.42
21.046,118.72
21.062,140.08
21.078,156.61
21.093,169.6
21.109,179.99
21.125,188.23
21.140,194.34
21.156,198.11
21.171,199.28
21.187,197.63
21.203,193.16
21.218,186.14
21.234,177.2
21.250,167.33
21.265,157.67
21.281,149.19
21.296,142.41
21.312,137.33
21.328,133.64
21.343,131.03
21.359,129.27
21.375,128.25
21.390,127.88
21.406,128.0
21.421,128.3
21.437,128.21
21.453,126.91
21.468,123.3
21.484,116.38
21.500,105.76
21.515,92.28
21.531,78.14
21.546,66.21
21.562,58.8
21.578,56.44
21.593,57.46
21.609,58.83
21.625,57.71
21.640,52.79
21.656,44.68
21.671,35.28
21.687,26.63
21.703,20.12
21.718,16.47
21.734,16.33
21.750,20.57
21.765,29.97
21.781,44.21
21.796,60.93
21.812,75.75
21.828,83.43
21.843,79.75
21.859,63.15
21.875,35.39
21.890,0.86
21.906,-34.8
21.921,-66.35
21.937,-90.11
21.953,-104.32
21.968,-109.06
21.984,-105.93
22.000,-97.62
22.015,-87.47
22.031,-78.72
22.046,-73.61
22.062,-72.61
22.078,-74.31
22.093,-76.21
22.109,-75.9
22.125,-72.14
22.140,-65.16
22.156,-56.13
22.171,-46.14
22.187,-35.68
22.203,-24.82
22.218,-14.16
22.234,-5.66
22.250,-2.56
22.265,-8.02
22.281,-23.25
22.296,-46.22
22.312,-71.79
22.328,-93.57
22.343,-106.24
22.359,-107.55
22.375,-98.76
22.390,-83.5
22.406,-66.02
22.421,-49.81
22.437,-37.15
22.453,-29.32
22.468,-26.96
22.484,-30.02
22.500,-37.52
22.515,-47.57
22.531,-58.02
22.546,-67.72
22.562,-77.31
22.578,-88.88
22.593,-104.03
22.609,-121.73
22.625,-137.2
22.640,-143.32
22.656,-134.16
22.671,-108.69
22.687,-72.51
22.703,-36.16
22.718,-10.41
22.734,-1.06
22.750,-6.07
22.765,-16.59
22.781,-21.65
22.796,-14.01
22.812,6.23
22.828,31.69
22.843,51.57
22.859,57.12
22.875,45.68
22.890,21.97
22.906,-4.09
22.921,-22.1
22.937,-25.69
22.953,-15.15
22.968,2.8
22.984,18.14
23.000,21.96
23.015,10.33
23.031,-13.79
23.046,-41.84
23.062,-63.63
23.078,-72.0
23.093,-66.14
23.109,-52.16
23.125,-40.2
23.140,-39.81
23.156,-55.45
23.171,-84.28
23.187,-117.2
23.203,-142.91
23.218,-152.71
23.234,-144.2
23.250,-122.35
23.265,-96.9
23.281,-77.5
23.296,-69.0
23.312,-69.3
23.328,-70.85
23.343,-65.23
23.359,-48.16
23.375,-22.36
23.390,3.56
23.406,19.96
23.421,21.54
23.437,10.24
23.453,-5.85
23.468,-17.15
23.484,-17.66
23.500,-7.62
23.515,7.46
23.531,20.75
23.546,28.21
23.562,30.68
23.578,32.54
23.593,38.62
23.609,50.96
23.625,67.76
23.640,84.27
23.656,95.32
23.671,97.74
23.687,91.54
23.703,79.47
23.718,65.49
23.734,53.22
23.750,44.8
23.765,40.69
23.781,40.06
23.796,41.57
23.812,44.12
23.828,47.32
23.843,51.44
23.859,57.2
23.875,65.17
23.890,75.36
23.906,86.98
23.921,98.55
23.937,108.36
23.953,115.09
23.968,118.09
23.984,117.32
24.000,112.91
24.015,104.72
24.031,92.16
24.046,74.67
24.062,52.39
24.078,26.8
24.093,0.68
24.109,-22.55
24.125,-39.94
24.140,-49.81
24.156,-52.24
24.171,-48.64
24.187,-41.2
24.203,-32.26
24.218,-23.86
24.234,-17.67
24.250,-14.91
24.265,-16.26
24.281,-21.72
24.296,-30.55
24.312,-41.42
24.328,-52.59
24.343,-62.29
24.359,-69.06
24.375,-71.97
24.390,-70.85
24.406,-66.22
24.421,-59.08
24.437,-50.51
24.453,-41.3
24.468,-31.64
24.484,-21.31
24.500,-9.98
24.515,2.26
24.531,14.59
24.546,25.6
24.562,33.79
24.578,38.24
24.593,39.19
24.609,37.92
24.625,36.27
24.640,35.92
24.656,37.69
24.671,41.41
24.687,46.23
24.703,51.19
24.718,55.71
24.734,59.77
24.750,63.66
24.765,67.53
24.781,71.07
24.796,73.55
24.812,74.14
24.828,72.28
24.843,68.01
24.859,61.88
24.875,54.67
24.890,47.07
24.906,39.57
24.921,32.56
24.937,26.57
24.953,22.51
24.968,21.41
24.984,24.02
25.000,30.26
25.015,39.03
25.031,48.47
25.046,56.68
25.062,62.49
25.078,65.89
25.093,67.85
25.109,69.57
25.125,71.53
25.140,73.01
25.156,72.17
25.171,66.83
25.187,55.48
25.203,37.93
25.218,15.29
25.234,-10.59
25.250,-37.84
25.265,-64.92
25.281,-90.46
25.296,-112.63
25.312,-128.89
25.328,-136.5
25.343,-133.61
25.359,-120.59
25.375,-100.49
25.390,-78.44
25.406,-60.01
25.421,-49.36
25.437,-47.93
25.453,-54.47
25.468,-65.99
25.484,-79.04
25.500,-90.76
25.515,-99.06
25.531,-102.63
25.546,-100.83
25.562,-93.73
25.578,-82.21
25.593,-68.02
25.609,-53.44
25.625,-40.64
25.640,-31.15
25.656,-25.46
25.671,-23.16
25.687,-23.3
25.703,-24.77
25.718,-26.52
25.734,-27.74
25.750,-27.7
25.765,-25.87
25.781,-21.93
25.796,-15.84
25.812,-7.77
25.828,2.0
25.843,13.07
25.859,24.99
25.875,37.02
25.890,48.24
25.906,57.58
25.921,64.02
25.937,66.9
25.953,66.19
25.968,62.55
25.984,57.32
26.000,52.09
26.015,48.25
26.031,46.43
26.046,46.2
26.062,46.02
26.078,43.89
26.093,38.17
26.109,28.54
26.125,16.4
26.140,4.52
26.156,-3.9
26.171,-6.39
26.187,-1.97
26.203,8.74
26.218,23.99
26.234,41.42
26.250,58.63
26.265,73.34
26.281,83.69
26.296,88.59
26.312,88.11
26.328,83.58
26.343,77.19
26.359,71.22
26.375,67.13
26.390,65.03
26.406,63.87
26.421,61.85
26.437,56.98
26.453,47.38
26.468,31.79
26.484,10.13
26.500,-15.91
26.515,-42.86
26.531,-66.45
26.546,-83.46
26.562,-93.35
26.578,-98.8
26.593,-104.21
26.609,-113.14
26.625,-125.98
26.640,-139.5
26.656,-148.67
26.671,-149.66
26.687,-142.23
26.703,-129.89
26.718,-117.97
26.734,-110.55
26.750,-108.37
26.765,-108.83
26.781,-107.8
26.796,-102.05
26.812,-90.87
26.828,-76.23
26.843,-61.49
26.859,-49.7
26.875,-42.3
26.890,-38.88
26.906,-37.87
26.921,-37.72
26.937,-37.83
26.953,-38.87
26.968,-42.23
26.984,-49.05
27.000,-59.26
27.015,-71.27
27.031,-82.54
27.046,-90.71
27.062,-94.66
27.078,-95.05
27.093,-93.67
27.109,-92.39
27.125,-92.03
27.140,-92.19
27.156,-91.84
27.171,-90.2
27.187,-87.46
27.203,-84.57
27.218,-82.41
27.234,-80.96
27.250,-79.02
27.265,-74.6
27.281,-66.0
27.296,-52.68
27.312,-35.64
27.328,-16.91
27.343,1.39
27.359,17.83
27.375,31.96
27.390,44.01
27.406,54.28
27.421,62.64
27.437,68.54
27.453,71.39
27.468,71.14
27.484,68.51
27.500,64.96
27.515,62.04
27.531,60.83
27.546,61.4
27.562,62.92
27.578,64.01
27.593,63.39
27.609,60.4
27.625,55.24
27.640,48.84
27.656,42.36
27.671,36.65
27.687,31.92
27.703,27.69
27.718,23.07
27.734,17.23
27.750,9.77
27.765,0.92
27.781,-8.44
27.796,-16.99
27.812,-23.14
27.828,-25.44
27.843,-22.92
27.859,-15.44
27.875,-3.88
27.890,9.91
27.906,23.67
27.921,35.36
27.937,43.79
27.953,48.78
27.968,50.95
27.984,51.21
28.000,50.31
28.015,48.78
28.031,47.03
28.046,45.67
28.062,45.46
28.078,47.0
28.093,50.3
28.109,54.54
28.125,58.25
28.140,59.95
28.156,58.87
28.171,55.25
28.187,50.29
28.203,45.36
28.218,41.32
28.234,38.07
28.250,34.7
28.265,30.09
28.281,23.55
28.296,15.11
28.312,5.46
28.328,-4.45
28.343,-13.95
28.359,-22.8
28.375,-31.0
28.390,-38.39
28.406,-44.24
28.421,-47.38
28.437,-46.47
28.453,-40.78
28.468,-30.7
28.484,-17.77
28.500,-4.4
28.515,7.0
28.531,14.65
28.546,17.85
28.562,16.86
28.578,12.45
28.593,5.46
28.609,-3.37
28.625,-13.2
28.640,-22.85
28.656,-30.73
28.671,-35.26
28.687,-35.46
28.703,-31.46
28.718,-24.57
28.734,-16.76
28.750,-9.88
28.765,-5.0
28.781,-2.28
28.796,-1.35
28.812,-1.87
28.828,-3.91
28.843,-7.9
28.859,-14.31
28.875,-23.25
28.890,-34.3
28.906,-46.59
28.921,-58.98
28.937,-70.31
28.953,-79.51
28.968,-85.81
28.984,-88.7
29.000,-88.12
29.015,-84.37
29.031,-78.02
29.046,-69.67
29.062,-59.76
29.078,-48.44
29.093,-35.71
29.109,-21.68
29.125,-6.87
29.140,7.72
29.156,20.84
29.171,31.36
29.187,38.73
29.203,43.2
29.218,45.78
29.234,47.81
29.250,50.44
29.265,54.19
29.281,58.83
29.296,63.6
29.312,67.69
29.328,70.62
29.343,72.48
29.359,73.75
29.375,75.05
29.390,76.69
29.406,78.41
29.421,79.33
29.437,78.16
29.453,73.69
29.468,65.29
29.484,53.28
29.500,39.01
29.515,24.59
29.531,12.46
29.546,4.85
29.562,3.36
29.578,8.49
29.593,19.58
29.609,34.78
29.625,51.65
29.640,67.8
29.656,81.61
29.671,92.52
29.687,100.61
29.703,105.69
29.718,106.41
29.734,100.21
29.750,84.32
29.765,57.16
29.781,19.54
29.796,-25.25
29.812,-72.31
29.828,-116.5
29.843,-153.57
29.859,-180.49
29.875,-195.4
29.890,-197.39
29.906,-186.74
29.921,-165.17
29.937,-136.03
29.953,-103.74
29.968,-72.79
29.984,-46.69
30.000,-27.38
30.015,-15.41
30.031,-10.36
30.046,-11.24
30.062,-16.5
30.078,-23.86
30.093,-30.37
30.109,-33.09
30.125,-29.86
30.140,-20.0
30.156,-4.47
30.171,14.71
30.187,35.15
30.203,54.76
30.218,71.86
30.234,84.91
30.250,92.44
30.265,93.3
30.281,87.26
30.296,75.66
30.312,61.52
30.328,48.81
30.343,41.25
30.359,41.04
30.375,48.14
30.390,60.53
30.406,74.96
30.421,88.21
30.437,97.95
30.453,103.21
30.468,104.07
30.484,101.11
30.500,94.84
30.515,85.36
30.531,72.48
30.546,55.97
30.562,35.84
30.578,12.58
30.593,-12.79
30.609,-38.8
30.625,-63.58
30.640,-85.13
30.656,-101.58
30.671,-111.47
30.687,-114.08
30.703,-109.53
30.718,-98.71
30.734,-83.04
30.750,-64.25
30.765,-44.16
30.781,-24.56
30.796,-7.19
30.812,6.48
30.828,15.39
30.843,19.19
30.859,18.26
30.875,13.78
30.890,7.47
30.906,1.23
30.921,-3.38
30.937,-5.59
30.953,-5.71
30.968,-4.91
30.984,-4.77
31.000,-6.54
31.015,-10.47
31.031,-15.64
31.046,-20.27
31.062,-22.65
31.078,-22.04
31.093,-19.18
31.109,-16.12
31.125,-15.31
31.140,-18.62
31.156,-26.55
31.171,-38.07
31.187,-51.15
31.203,-63.48
31.218,-73.19
31.234,-79.18
31.250,-81.07
31.265,-78.95
31.281,-73.17
31.296,-64.2
31.312,-52.73
31.328,-39.71
31.343,-26.39
31.359,-14.17
31.375,-4.42
31.390,1.91
31.406,4.51
31.421,3.85
31.437,1.02
31.453,-2.63
31.468,-5.97
31.484,-8.39
31.500,-9.9
31.515,-10.96
31.531,-12.15
31.546,-13.83
31.562,-16.03
31.578,-18.39
31.593,-20.4
31.609,-21.6
31.625,-21.89
31.640,-21.56
31.656,-21.36
31.671,-22.26
31.687,-25.16
31.703,-30.5
31.718,-37.97
31.734,-46.51
31.750,-54.41
31.765,-59.86
31.781,-61.28
31.796,-57.86
31.812,-49.59
31.828,-37.25
31.843,-22.08
31.859,-5.48
31.875,11.23
31.890,26.88
31.906,40.42
31.921,50.94
31.937,57.68
31.953,60.25
31.968,58.81
31.984,54.14
32.000,47.53
32.015,40.37
32.031,33.78
32.046,28.31
32.062,23.93
32.078,20.2
32.093,16.62
32.109,12.96
32.125,9.24
32.140,5.68
32.156,2.51
32.171,-0.2
32.187,-2.6
32.203,-5.02
32.218,-7.91
32.234,-11.75
32.250,-16.95
32.265,-23.78
32.281,-32.12
32.296,-41.37
32.312,-50.41
32.328,-57.72
32.343,-61.76
32.359,-61.41
32.375,-56.27
32.390,-46.78
32.406,-34.07
32.421,-19.52
32.437,-4.48
32.453,9.9
32.468,22.71
32.484,33.17
32.500,40.69
32.515,44.93
32.531,45.96
32.546,44.42
32.562,41.33
32.578,37.94
32.593,35.23
32.609,33.75
32.625,33.48
32.640,34.03
32.656,34.84
32.671,35.48
32.687,35.76
32.703,35.63
32.718,35.18
32.734,34.45
32.750,33.38
32.765,31.76
32.781,29.3
32.796,25.65
32.812,20.5
32.828,13.69
32.843,5.32
32.859,-4.04
32.875,-13.35
32.890,-21.15
32.906,-26.0
32.921,-26.85
32.937,-23.48
32.953,-16.54
32.968,-7.39
32.984,2.44
33.000,11.76
33.015,19.87
33.031,26.59
33.046,31.94
33.062,35.82
33.078,38.03
33.093,38.36
33.109,36.82
33.125,33.87
33.140,30.25
33.156,26.75
33.171,23.84
33.187,21.62
33.203,19.79
33.218,17.98
33.234,15.91
33.250,13.57
33.265,11.19
33.281,8.98
33.296,7.01
33.312,5.13
33.328,3.01
33.343,0.25
33.359,-3.49
33.375,-8.42
33.390,-14.45
33.406,-21.11
33.421,-27.52
33.437,-32.52
33.453,-34.89
33.468,-33.82
33.484,-29.13
33.500,-21.38
33.515,-11.66
33.531,-1.22
33.546,8.94
33.562,18.14
33.578,26.06
33.593,32.55
33.609,37.5
33.625,40.8
33.640,42.4
33.656,42.47
33.671,41.37
33.687,39.64
33.703,37.79
33.718,36.22
33.734,35.09
33.750,34.29
33.765,33.58
33.781,32.64
33.796,31.28
33.812,29.5
33.828,27.49
33.843,25.51
33.859,23.8
33.875,22.38
33.890,21.06
33.906,19.52
33.921,17.39
33.937,14.37
33.953,10.36
33.968,5.44
33.984,-0.04
34.000,-5.49
34.015,-10.16
34.031,-13.22
34.046,-13.96
34.062,-12.08
34.078,-7.74
34.093,-1.61
34.109,5.43
34.125,12.59
34.140,19.42
34.156,25.86
34.171,32.09
34.187,38.23
34.203,44.06
34.218,49.08
34.234,52.63
34.250,54.33
34.265,54.23
34.281,52.82
34.296,50.77
34.312,48.66
34.328,46.75
34.343,44.95
34.359,43.03
34.375,40.76
34.390,38.06
34.406,35.01
34.421,31.76
34.437,28.41
34.453,25.08
34.468,21.79
34.484,18.51
34.500,15.19
34.515,11.74
34.531,8.12
34.546,4.35
34.562,0.52
34.578,-3.15
34.593,-6.31
34.609,-8.51
34.625,-9.3
34.640,-8.3
34.656,-5.3
34.671,-0.43
34.687,5.86
34.703,12.86
34.718,19.76
34.734,25.89
34.750,30.88
34.765,34.66
34.781,37.33
34.796,39.0
34.812,39.66
34.828,39.28
34.843,37.93
34.859,35.83
34.875,33.39
34.890,31.04
34.906,29.09
34.921,27.6
34.937,26.37
34.953,25.05
34.968,23.35
34.984,21.18
35.000,18.66
35.015,16.08
35.031,13.71
35.046,11.69
35.062,9.96
35.078,8.27
35.093,6.28
35.109,3.74
35.125,0.56
35.140,-3.21
35.156,-7.3
35.171,-11.38
35.187,-15.09
35.203,-18.01
35.218,-19.72
35.234,-19.87
35.250,-18.26
35.265,-14.87
35.281,-9.94
35.296,-3.95
35.312,2.5
35.328,8.81
35.343,14.5
35.359,19.28
35.375,23.01
35.390,25.69
35.406,27.39
35.421,28.22
35.437,28.38
35.453,28.1
35.468,27.65
35.484,27.26
35.500,27.02
35.515,26.88
35.531,26.63
35.546,26.03
35.562,24.9
35.578,23.28
35.593,21.34
35.609,19.33
35.625,17.44
35.640,15.7
35.656,13.99
35.671,12.13
35.687,10.03
35.703,7.65
35.718,5.09
35.734,2.45
35.750,-0.2
35.765,-2.88
35.781,-5.66
35.796,-8.54
35.812,-11.44
35.828,-14.11
35.843,-16.15
35.859,-17.16
35.875,-16.79
35.890,-14.86
35.906,-11.42
35.921,-6.74
35.937,-1.31
35.953,4.25
35.968,9.31
35.984,13.48
36.000,16.6
36.015,18.86
36.031,20.64
36.046,22.25
36.062,23.82
36.078,25.27
36.093,26.33
36.109,26.78
36.125,26.57
36.140,25.81
36.156,24.79
36.171,23.79
36.187,23.06
36.203,22.73
36.218,22.8
36.234,23.15
36.250,23.58
36.265,23.91
36.281,24.03
36.296,24.01
36.312,24.01
36.328,24.17
36.343,24.49
36.359,24.83
36.375,24.88
36.390,24.39
36.406,23.16
36.421,21.23
36.437,18.78
36.453,16.13
36.468,13.7
36.484,11.94
36.500,11.29
36.515,12.17
36.531,14.85
36.546,19.48
36.562,25.88
36.578,33.62
36.593,42.0
36.609,50.16
36.625,57.22
36.640,62.45
36.656,65.37
36.671,65.83
36.687,63.94
36.703,60.0
36.718,54.48
36.734,48.0
36.750,41.27
36.765,35.05
36.781,30.04
36.796,26.74
36.812,25.42
36.828,26.2
36.843,28.98
36.859,33.47
36.875,39.13
36.890,45.12
36.906,50.36
36.921,53.82
36.937,54.76
36.953,52.97
36.968,48.85
36.984,43.24
37.000,37.17
37.015,31.62
37.031,27.34
37.046,24.89
37.062,24.67
37.078,26.97
37.093,31.94
37.109,39.57
37.125,49.72
37.140,62.19
37.156,76.79
37.171,93.37
37.187,111.69
37.203,131.33
37.218,151.48
37.234,171.01
37.250,188.68
37.265,203.45
37.281,214.81
37.296,222.85
37.312,228.16
37.328,231.44
37.343,233.16
37.359,233.3
37.375,231.42
37.390,226.86
37.406,219.11
37.421,208.06
37.437,194.18
37.453,178.51
37.468,162.49
37.484,147.65
37.500,135.21
37.515,125.68
37.531,118.64
37.546,112.81
37.562,106.53
37.578,98.31
37.593,87.49
37.609,74.34
37.625,59.92
37.640,45.55
37.656,32.38
37.671,21.13
37.687,12.12
37.703,5.55
37.718,1.61
37.734,0.49
37.750,2.16
37.765,6.24
37.781,11.97
37.796,18.33
37.812,24.39
37.828,29.53
37.843,33.53
37.859,36.51
37.875,38.7
37.890,40.26
37.906,41.08
37.921,40.87
37.937,39.26
37.953,35.94
37.968,30.9
37.984,24.42
38.000,17.0
38.015,9.2
38.031,1.44
38.046,-6.18
38.062,-13.87
38.078,-22.02
38.093,-31.05
38.109,-41.2
38.125,-52.4
38.140,-64.33
38.156,-76.55
38.171,-88.69
38.187,-100.59
38.203,-112.35
38.218,-124.24
38.234,-136.65
38.250,-149.91
38.265,-164.29
38.281,-179.9
38.296,-196.51
38.312,-213.41
38.328,-229.42
38.343,-242.98
38.359,-252.6
38.375,-257.25
38.390,-256.71
38.406,-251.65
38.421,-243.3
38.437,-233.1
38.453,-222.3
38.468,-211.74
38.484,-201.85
38.500,-192.76
38.515,-184.36
38.531,-176.35
38.546,-168.26
38.562,-159.54
38.578,-149.79
38.593,-139.01
38.609,-127.7
38.625,-116.88
38.640,-107.73
38.656,-101.36
38.671,-98.42
38.687,-98.94
38.703,-102.41
38.718,-107.8
38.734,-113.78
38.750,-118.88
38.765,-121.87
38.781,-122.13
38.796,-119.91
38.812,-116.25
38.828,-112.44
38.843,-109.43
38.859,-107.3
38.875,-105.28
38.890,-102.4
38.906,-98.37
38.921,-94.05
38.937,-91.27
38.953,-92.01
38.968,-97.28
38.984,-106.55
39.000,-117.89
39.015,-128.77
39.031,-137.01
39.046,-141.35
39.062,-141.43
39.078,-137.41
39.093,-129.56
39.109,-118.08
39.125,-103.22
39.140,-85.58
39.156,-66.17
39.171,-46.3
39.187,-27.3
39.203,-10.23
39.218,4.22
39.234,15.74
39.250,24.28
39.265,29.94
39.281,32.84
39.296,33.17
39.312,31.18
39.328,27.36
39.343,22.49
39.359,17.51
39.375,13.27
39.390,10.07
39.406,7.35
39.421,3.64
39.437,-2.92
39.453,-13.82
39.468,-29.54
39.484,-49.19
39.500,-70.73
39.515,-91.76
39.531,-110.2
39.546,-124.88
39.562,-135.72
39.578,-143.53
39.593,-149.63
39.609,-155.43
39.625,-162.09
39.640,-170.26
39.656,-179.98
39.671,-190.61
39.687,-201.05
39.703,-209.86
39.718,-215.65
39.734,-217.35
39.750,-214.44
39.765,-207.05
39.781,-195.87
39.796,-182.07
39.812,-166.91
39.828,-151.54
39.843,-136.83
39.859,-123.24
39.875,-110.89
39.890,-99.64
39.906,-89.28
39.921,-79.62
39.937,-70.6
39.953,-62.26
39.968,-54.67
39.984,-47.83
40.000,-41.64
40.015,-35.92
40.031,-30.44
40.046,-25.09
40.062,-19.9
40.078,-15.07
40.093,-10.97
40.109,-7.94
40.125,-6.28
40.140,-6.1
40.156,-7.23
40.171,-9.33
40.187,-12.01
40.203,-14.92
40.218,-17.97
40.234,-21.32
40.250,-25.34
40.265,-30.48
40.281,-37.0
40.296,-44.73
40.312,-53.03
40.328,-60.7
40.343,-66.27
40.359,-68.31
40.375,-65.86
40.390,-58.67
40.406,-47.29
40.421,-32.88
40.437,-16.82
40.453,-0.38
40.468,15.58
40.484,30.6
40.500,44.42
40.515,56.81
40.531,67.39
40.546,75.74
40.562,81.59
40.578,85.03
40.593,86.53
40.609,86.82
40.625,86.61
40.640,86.29
40.656,85.94
40.671,85.36
40.687,84.32
40.703,82.73
40.718,80.63
40.734,78.12
40.750,75.23
40.765,71.91
40.781,68.04
40.796,63.58
40.812,58.53
40.828,52.99
40.843,47.03
40.859,40.63
40.875,33.68
40.890,25.94
40.906,17.24
40.921,7.62
40.937,-2.4
40.953,-11.85
40.968,-19.29
40.984,-23.23
41.000,-22.55
41.015,-16.87
41.031,-6.72
41.046,6.63
41.062,21.56
41.078,36.64
41.093,50.82
41.109,63.51
41.125,74.41
41.140,83.32
41.156,90.04
41.171,94.43
41.187,96.54
41.203,96.6
41.218,95.03
41.234,92.26
41.250,88.7
41.265,84.67
41.281,80.45
41.296,76.35
41.312,72.6
41.328,69.38
41.343,66.71
41.359,64.34
41.375,61.91
41.390,58.98
41.406,55.19
41.421,50.33
41.437,44.37
41.453,37.4
41.468,29.55
41.484,20.89
41.500,11.3
41.515,0.5
41.531,-11.77
41.546,-25.49
41.562,-40.07
41.578,-54.15
41.593,-65.77
41.609,-72.82
41.625,-73.7
41.640,-67.79
41.656,-55.76
41.671,-39.38
41.687,-20.91
41.703,-2.58
41.718,13.95
41.734,27.74
41.750,38.42
41.765,45.95
41.781,50.36
41.796,51.74
41.812,50.38
41.828,46.86
41.843,42.15
41.859,37.39
41.875,33.56
41.890,31.23
41.906,30.33
41.921,30.35
41.937,30.53
41.953,30.22
41.968,29.08
41.984,27.02
42.000,24.16
42.015,20.6
42.031,16.43
42.046,11.68
42.062,6.39
42.078,0.67
42.093,-5.37
42.109,-11.66
42.125,-18.26
42.140,-25.3
42.156,-32.99
42.171,-41.27
42.187,-49.71
42.203,-57.29
42.218,-62.63
42.234,-64.3
42.250,-61.31
42.265,-53.55
42.281,-41.81
42.296,-27.55
42.312,-12.44
42.328,2.19
42.343,15.57
42.359,27.45
42.375,37.77
42.390,46.42
42.406,53.09
42.421,57.4
42.437,59.16
42.453,58.56
42.468,56.27
42.484,53.18
42.500,50.15
42.515,47.66
42.531,45.69
42.546,43.83
42.562,41.58
42.578,38.55
42.593,34.71
42.609,30.3
42.625,25.73
42.640,21.36
42.656,17.39
42.671,13.81
42.687,10.5
42.703,7.27
42.718,3.9
42.734,0.2
42.750,-4.01
42.765,-8.82
42.781,-14.15
42.796,-19.62
42.812,-24.51
42.828,-27.83
42.843,-28.62
42.859,-26.16
42.875,-20.25
42.890,-11.32
42.906,-0.22
42.921,11.92
42.937,24.09
42.953,35.46
42.968,45.48
42.984,53.84
43.000,60.42
43.015,65.21
43.031,68.31
43.046,69.89
43.062,70.14
43.078,69.29
43.093,67.62
43.109,65.35
43.125,62.61
43.140,59.36
43.156,55.39
43.171,50.43
43.187,44.45
43.203,37.81
43.218,31.26
43.234,25.76
43.250,22.01
43.265,20.25
43.281,20.17
43.296,21.1
43.312,22.31
43.328,23.33
43.343,23.92
43.359,24.13
43.375,24.14
43.390,24.27
43.406,25.0
43.421,26.87
43.437,30.44
43.453,36.05
43.468,43.81
43.484,53.53
43.500,64.88
43.515,77.51
43.531,91.14
43.546,105.56
43.562,120.55
43.578,135.89
43.593,151.28
43.609,166.52
43.625,181.43
43.640,195.93
43.656,209.97
43.671,223.4
43.687,236.0
43.703,247.56
43.718,257.94
43.734,267.15
43.750,275.32
43.765,282.44
43.781,288.34
43.796,292.73
43.812,295.28
43.828,295.92
43.843,294.69
43.859,291.54
43.875,285.95
43.890,276.88
43.906,263.01
43.921,243.52
43.937,218.68
43.953,190.05
43.968,160.04
43.984,131.13
44.000,104.96
44.015,82.01
44.031,61.83
44.046,43.51
44.062,26.42
44.078,10.35
44.093,-4.57
44.109,-18.25
44.125,-30.91
44.140,-43.14
44.156,-55.75
44.171,-69.38
44.187,-84.38
44.203,-100.76
44.218,-118.36
44.234,-136.93
44.250,-156.21
44.265,-175.74
44.281,-194.81
44.296,-212.33
44.312,-227.03
44.328,-237.78
44.343,-243.96
44.359,-245.64
44.375,-243.52
44.390,-238.55
44.406,-231.64
44.421,-223.48
44.437,-214.6
44.453,-205.61
44.468,-197.31
44.484,-190.58
44.500,-185.91
44.515,-183.15
44.531,-181.3
44.546,-178.86
44.562,-174.31
44.578,-166.46
44.593,-154.65
44.609,-138.52
44.625,-117.8
44.640,-92.13
44.656,-61.4
44.671,-26.07
44.687,12.52
44.703,52.17
44.718,90.38
44.734,124.92
44.750,154.46
44.765,178.77
44.781,198.62
44.796,215.33
44.812,230.12
44.828,243.64
44.843,255.53
44.859,264.53
44.875,268.76
44.890,266.3
44.906,255.77
44.921,236.8
44.937,210.31
44.953,178.6
44.968,145.04
44.984,113.22
45.000,86.02
45.015,64.7
45.031,48.53
45.046,35.2
45.062,21.85
45.078,6.14
45.093,-13.06
45.109,-35.56
45.125,-60.51
45.140,-86.95
45.156,-114.32
45.171,-142.47
45.187,-171.38
45.203,-200.79
45.218,-230.11
45.234,-258.4
45.250,-284.66
45.265,-308.03
45.281,-328.0
45.296,-344.41
45.312,-357.28
45.328,-366.43
45.343,-371.33
45.359,-371.08
45.375,-364.91
45.390,-352.77
45.406,-335.74
45.421,-315.89
45.437,-295.42
45.453,-275.78
45.468,-257.06
45.484,-238.31
45.500,-218.32
45.515,-196.61
45.531,-173.92
45.546,-151.9
45.562,-132.25
45.578,-115.85
45.593,-102.34
45.609,-90.48
45.625,-78.95
45.640,-67.17
45.656,-55.65
45.671,-45.67
45.687,-38.64
45.703,-35.52
45.718,-36.57
45.734,-41.47
45.750,-49.57
45.765,-60.06
45.781,-71.81
45.796,-83.19
45.812,-91.98
45.828,-95.71
45.843,-92.34
45.859,-81.08
45.875,-62.89
45.890,-40.24
45.906,-16.35
45.921,5.85
45.937,24.65
45.953,39.75
45.968,51.97
45.984,62.49
46.000,72.16
46.015,81.23
46.031,89.42
46.046,96.36
46.062,101.89
46.078,106.24
46.093,109.77
46.109,112.77
46.125,115.19
46.140,116.66
46.156,116.78
46.171,115.35
46.187,112.47
46.203,108.38
46.218,103.18
46.234,96.53
46.250,87.7
46.265,75.83
46.281,60.47
46.296,42.0
46.312,21.68
46.328,1.42
46.343,-16.83
46.359,-31.48
46.375,-41.5
46.390,-46.29
46.406,-45.63
46.421,-39.56
46.437,-28.58
46.453,-13.79
46.468,3.16
46.484,20.48
46.500,36.77
46.515,51.51
46.531,65.08
46.546,78.3
46.562,91.78
46.578,105.4
46.593,118.11
46.609,128.31
46.625,134.49
46.640,135.87
46.656,132.83
46.671,126.86
46.687,120.08
46.703,114.55
46.718,111.57
46.734,111.3
46.750,112.84
46.765,114.72
46.781,115.59
46.796,114.67
46.812,111.88
46.828,107.49
46.843,101.77
46.859,94.62
46.875,85.62
46.890,74.31
46.906,60.62
46.921,45.07
46.937,28.89
46.953,13.68
46.968,1.07
46.984,-7.68
47.000,-11.97
47.015,-11.95
47.031,-8.36
47.046,-2.25
47.062,5.41
47.078,13.97
47.093,23.12
47.109,32.73
47.125,42.52
47.140,51.91
47.156,60.13
47.171,66.44
47.187,70.47
47.203,72.37
47.218,72.7
47.234,72.14
47.250,71.03
47.265,69.28
47.281,66.44
47.296,61.84
47.312,55.01
47.328,45.73
47.343,34.12
47.359,20.47
47.375,5.27
47.390,-10.91
47.406,-27.39
47.421,-43.58
47.437,-59.31
47.453,-75.02
47.468,-91.84
47.484,-111.22
47.500,-134.34
47.515,-161.44
47.531,-191.35
47.546,-221.45
47.562,-248.08
47.578,-267.29
47.593,-275.63
47.609,-271.06
47.625,-253.37
47.640,-224.28
47.656,-187.17
47.671,-146.36
47.687,-106.16
47.703,-70.16
47.718,-40.74
47.734,-18.95
47.750,-4.49
47.765,4.05
47.781,8.77
47.796,11.72
47.812,14.36
47.828,17.22
47.843,20.1
47.859,22.48
47.875,23.86
47.890,23.84
47.906,21.91
47.921,17.53
47.937,10.21
47.953,0.07
47.968,-11.87
47.984,-23.76
48.000,-33.44
48.015,-39.33
48.031,-41.1
48.046,-39.7
48.062,-36.99
48.078,-34.96
48.093,-35.12
48.109,-38.23
48.125,-44.25
48.140,-52.23
48.156,-60.51
48.171,-67.09
48.187,-70.15
48.203,-68.57
48.218,-62.13
48.234,-51.47
48.250,-37.72
48.265,-22.18
48.281,-6.12
48.296,9.43
48.312,23.62
48.328,35.89
48.343,46.06
48.359,54.27
48.375,60.92
48.390,66.47
48.406,71.22
48.421,75.18
48.437,78.05
48.453,79.35
48.468,78.6
48.484,75.59
48.500,70.58
48.515,64.3
48.531,57.76
48.546,51.94
48.562,47.44
48.578,44.32
48.593,42.21
48.609,40.6
48.625,39.11
48.640,37.61
48.656,35.95
48.671,33.66
48.687,29.84
48.703,23.49
48.718,14.17
48.734,2.61
48.750,-9.14
48.765,-18.16
48.781,-21.6
48.796,-17.65
48.812,-6.07
48.828,11.8
48.843,33.49
48.859,56.13
48.875,77.11
48.890,94.7
48.906,108.35
48.921,118.53
48.937,126.06
48.953,131.17
48.968,132.83
48.984,128.75
49.000,116.17
49.015,93.15
49.031,59.48
49.046,16.98
49.062,-30.93
49.078,-80.08
49.093,-126.21
49.109,-165.38
49.125,-194.35
49.140,-211.19
49.156,-216.1
49.171,-211.74
49.187,-202.65
49.203,-193.86
49.218,-189.14
49.234,-189.98
49.250,-195.79
49.265,-204.93
49.281,-215.84
49.296,-227.29
49.312,-237.91
49.328,-245.5
49.343,-247.04
49.359,-239.6
49.375,-221.78
49.390,-194.6
49.406,-161.34
49.421,-126.17
49.437,-92.41
49.453,-61.51
49.468,-33.12
49.484,-6.14
49.500,20.09
49.515,45.05
49.531,67.2
49.546,84.81
49.562,96.76
49.578,103.27
49.593,105.79
49.609,106.43
49.625,107.17
49.640,109.07
49.656,111.92
49.671,114.5
49.687,115.34
49.703,113.59
49.718,109.68
49.734,105.1
49.750,101.68
49.765,100.43
49.781,100.86
49.796,101.08
49.812,98.68
49.828,92.0
49.843,80.91
49.859,66.9
49.875,52.37
49.890,39.77
49.906,31.02
49.921,27.42
49.937,29.89
49.953,38.86
49.968,53.86
49.984,72.96
50.000,92.83
50.015,109.66
50.031,120.61
50.046,124.85
50.062,123.41
50.078,117.89
50.093,108.74
50.109,94.42
50.125,72.09
50.140,39.59
50.156,-2.44
50.171,-49.61
50.187,-94.76
50.203,-130.51
50.218,-151.97
50.234,-158.4
50.250,-152.89
50.265,-140.59
50.281,-126.46
50.296,-113.82
50.312,-104.02
50.328,-97.16
50.343,-93.11
50.359,-92.16
50.375,-94.9
50.390,-101.59
50.406,-111.54
50.421,-123.07
50.437,-134.09
50.453,-143.04
50.468,-149.42
50.484,-153.7
50.500,-156.59
50.515,-158.16
50.531,-157.43
50.546,-152.58
50.562,-141.83
50.578,-124.36
50.593,-100.84
50.609,-73.34
50.625,-44.8
50.640,-18.26
50.656,3.77
50.671,19.72
50.687,29.15
50.703,32.74
50.718,32.27
50.734,30.33
50.750,29.74
50.765,32.95
50.781,41.35
50.796,54.96
50.812,72.38
50.828,91.24
50.843,108.72
50.859,122.28
50.875,130.22
50.890,131.96
50.906,127.97
50.921,119.43
50.937,107.76
50.953,94.21
50.968,79.7
50.984,64.84
51.000,50.06
51.015,35.6
51.031,21.36
51.046,6.97
51.062,-8.12
51.078,-24.06
51.093,-40.11
51.109,-54.48
51.125,-64.64
51.140,-68.2
51.156,-63.87
51.171,-51.98
51.187,-34.27
51.203,-13.25
51.218,8.71
51.234,29.91
51.250,49.38
51.265,66.49
51.281,80.62
51.296,90.95
51.312,96.71
51.328,97.71
51.343,94.57
51.359,88.69
51.375,81.84
51.390,75.51
51.406,70.51
51.421,66.79
51.437,63.67
51.453,60.26
51.468,55.89
51.484,50.29
51.500,43.72
51.515,36.67
51.531,29.68
51.546,23.1
51.562,16.96
51.578,11.08
51.593,5.09
51.609,-1.42
51.625,-8.84
51.640,-17.41
51.656,-27.15
51.671,-37.61
51.687,-47.74
51.703,-55.92
51.718,-60.3
51.734,-59.33
51.750,-52.33
51.765,-39.83
51.781,-23.42
51.796,-5.29
51.812,12.38
51.828,27.9
51.843,40.22
51.859,48.86
51.875,53.71
51.890,54.95
51.906,53.02
51.921,48.67
51.937,42.92
51.953,36.88
51.968,31.43
51.984,27.03
52.000,23.64
52.015,20.8
52.031,17.93
52.046,14.61
52.062,10.67
52.078,6.2
52.093,1.44
52.109,-3.42
52.125,-8.34
52.140,-13.49
52.156,-19.12
52.171,-25.53
52.187,-32.91
52.203,-41.35
52.218,-50.7
52.234,-60.45
52.250,-69.66
52.265,-76.98
52.281,-80.8
52.296,-79.76
52.312,-73.19
52.328,-61.49
52.343,-46.04
52.359,-28.75
52.375,-11.54
52.390,4.28
52.406,18.14
52.421,30.02
52.437,40.02
52.453,47.98
52.468,53.52
52.484,56.2
52.500,55.96
52.515,53.24
52.531,48.89
52.546,43.84
52.562,38.7
52.578,33.68
52.593,28.72
52.609,23.78
52.625,19.09
52.640,15.03
52.656,11.99
52.671,9.99
52.687,8.64
52.703,7.21
52.718,4.91
52.734,1.18
52.750,-4.24
52.765,-11.35
52.781,-19.98
52.796,-29.82
52.812,-40.25
52.828,-50.22
52.843,-58.24
52.859,-62.6
52.875,-61.93
52.890,-55.67
52.906,-44.4
52.921,-29.69
52.937,-13.59
52.953,1.94
52.968,15.55
52.984,26.65
53.000,35.26
53.015,41.63
53.031,45.97
53.046,48.36
53.062,48.83
53.078,47.63
53.093,45.35
53.109,42.82
53.125,40.92
53.140,40.21
53.156,40.66
53.171,41.71
53.187,42.44
53.203,42.03
53.218,40.12
53.234,36.88
53.250,32.86
53.265,28.54
53.281,24.03
53.296,18.96
53.312,12.72
53.328,4.93
53.343,-4.29
53.359,-14.19
53.375,-23.61
53.390,-31.32
53.406,-36.31
53.421,-37.87
53.437,-35.7
53.453,-29.83
53.468,-20.63
53.484,-8.82
53.500,4.7
53.515,18.93
53.531,33.09
53.546,46.72
53.562,59.6
53.578,71.68
53.593,82.82
53.609,92.77
53.625,101.2
53.640,107.94
53.656,113.03
53.671,116.78
53.687,119.62
53.703,121.92
53.718,123.88
53.734,125.58
53.750,127.08
53.765,128.46
53.781,129.98
53.796,131.92
53.812,134.49
53.828,137.68
53.843,141.21
53.859,144.64
53.875,147.5
53.890,149.47
53.906,150.5
53.921,150.83
53.937,150.93
53.953,151.39
53.968,152.76
53.984,155.65
54.000,160.74
54.015,168.69
54.031,179.86
54.046,193.92
54.062,209.62
54.078,225.0
54.093,238.14
54.109,247.93
54.125,254.52
54.140,259.01
54.156,262.42
54.171,264.81
54.187,264.82
54.203,260.33
54.218,249.68
54.234,232.83
54.250,211.64
54.265,189.19
54.281,168.52
54.296,151.39
54.312,137.88
54.328,126.71
54.343,116.05
54.359,104.4
54.375,91.0
54.390,75.83
54.406,59.27
54.421,41.74
54.437,23.42
54.453,4.27
54.468,-15.93
54.484,-37.44
54.500,-60.43
54.515,-85.22
54.531,-112.26
54.546,-141.99
54.562,-174.17
54.578,-207.14
54.593,-237.41
54.609,-260.24
54.625,-271.02
54.640,-267.11
54.656,-249.05
54.671,-220.51
54.687,-186.98
54.703,-153.69
54.718,-124.14
54.734,-99.42
54.750,-79.02
54.765,-61.98
54.781,-47.78
54.796,-36.6
54.812,-28.81
54.828,-24.41
54.843,-22.7
54.859,-22.47
54.875,-22.51
54.890,-22.04
54.906,-20.93
54.921,-19.7
54.937,-19.28
54.953,-20.58
54.968,-24.29
54.984,-30.6
55.000,-39.06
55.015,-48.64
55.031,-57.88
55.046,-65.21
55.062,-69.1
55.078,-68.43
55.093,-62.67
55.109,-52.06
55.125,-37.78
55.140,-21.88
55.156,-7.05
55.171,4.02
55.187,9.41
55.203,8.64
55.218,2.86
55.234,-5.52
55.250,-13.76
55.265,-19.82
55.281,-22.93
55.296,-23.53
55.312,-22.59
55.328,-20.85
55.343,-18.48
55.359,-15.44
55.375,-12.28
55.390,-10.67
55.406,-13.18
55.421,-22.18
55.437,-38.49
55.453,-60.49
55.468,-84.37
55.484,-105.49
55.500,-120.1
55.515,-126.45
55.531,-125.09
55.546,-118.01
55.562,-107.51
55.578,-95.42
55.593,-82.98
55.609,-71.12
55.625,-60.82
55.640,-52.93
55.656,-47.71
55.671,-44.33
55.687,-40.84
55.703,-34.87
55.718,-24.93
55.734,-11.33
55.750,3.38
55.765,15.22
55.781,20.05
55.796,15.06
55.812,-0.36
55.828,-24.55
55.843,-54.16
55.859,-85.05
55.875,-113.03
55.890,-134.55
55.906,-147.15
55.921,-149.95
55.937,-143.8
55.953,-131.14
55.968,-115.34
55.984,-99.74
56.000,-86.82
56.015,-77.65
56.031,-72.03
56.046,-68.91
56.062,-67.05
56.078,-65.63
56.093,-64.64
56.109,-65.06
56.125,-68.33
56.140,-75.65
56.156,-87.1
56.171,-101.22
56.187,-115.26
56.203,-126.08
56.218,-131.45
56.234,-130.76
56.250,-125.19
56.265,-116.88
56.281,-108.03
56.296,-100.13
56.312,-93.87
56.328,-89.49
56.343,-87.18
56.359,-87.25
56.375,-89.94
56.390,-95.08
56.406,-101.83
56.421,-108.8
56.437,-114.27
56.453,-116.7
56.468,-115.06
56.484,-109.07
56.500,-99.21
56.515,-86.48
56.531,-72.06
56.546,-57.02
56.562,-42.02
56.578,-27.33
56.593,-13.03
56.609,0.77
56.625,13.69
56.640,25.07
56.656,34.19
56.671,40.57
56.687,44.1
56.703,45.18
56.718,44.49
56.734,42.77
56.750,40.55
56.765,38.11
56.781,35.49
56.796,32.64
56.812,29.53
56.828,26.24
56.843,22.86
56.859,19.46
56.875,16.04
56.890,12.51
56.906,8.79
56.921,4.83
56.937,0.65
56.953,-3.74
56.968,-8.34
56.984,-13.26
57.000,-18.69
57.015,-24.78
57.031,-31.7
57.046,-39.43
57.062,-47.73
57.078,-56.11
57.093,-63.74
57.109,-69.61
57.125,-72.61
57.140,-71.91
57.156,-67.13
57.171,-58.52
57.187,-46.86
57.203,-33.26
57.218,-18.9
57.234,-4.74
57.250,8.56
57.265,20.64
57.281,31.29
57.296,40.34
57.312,47.57
57.328,52.75
57.343,55.77
57.359,56.69
57.375,55.9
57.390,53.97
57.406,51.61
57.421,49.41
57.437,47.7
57.453,46.46
57.468,45.4
57.484,44.1
57.500,42.24
57.515,39.63
57.531,36.23
57.546,32.13
57.562,27.39
57.578,22.13
57.593,16.48
57.609,10.59
57.625,4.63
57.640,-1.39
57.656,-7.68
57.671,-14.66
57.687,-22.81
57.703,-32.4
57.718,-43.18
57.734,-54.29
57.750,-64.31
57.765,-71.58
57.781,-74.6
57.796,-72.44
57.812,-64.95
57.828,-52.82
57.843,-37.42
57.859,-20.37
57.875,-3.31
57.890,12.44
57.906,25.98
57.921,36.82
57.937,44.83
57.953,50.17
57.968,53.29
57.984,54.71
58.000,54.99
58.015,54.55
58.031,53.64
58.046,52.42
58.062,50.95
58.078,49.41
58.093,47.93
58.109,46.56
58.125,45.11
58.140,43.15
58.156,40.18
58.171,35.81
58.187,30.04
58.203,23.22
58.218,15.95
58.234,8.84
58.250,2.3
58.265,-3.49
58.281,-8.56
58.296,-13.04
58.312,-17.09
58.328,-20.95
58.343,-24.95
58.359,-29.41
58.375,-34.49
58.390,-39.89
58.406,-44.78
58.421,-47.88
58.437,-47.91
58.453,-44.09
58.468,-36.43
58.484,-25.85
58.500,-13.68
58.515,-1.27
58.531,10.49
58.546,21.23
58.562,30.88
58.578,39.36
58.593,46.36
58.609,51.36
58.625,53.9
58.640,53.89
58.656,51.74
58.671,48.24
58.687,44.28
58.703,40.53
58.718,37.2
58.734,34.16
58.750,31.18
58.765,28.07
58.781,24.91
58.796,21.95
58.812,19.52
58.828,17.85
58.843,16.97
58.859,16.77
58.875,16.97
58.890,17.24
58.906,17.27
58.921,16.75
58.937,15.43
58.953,13.12
58.968,9.84
58.984,5.93
59.000,2.21
59.015,-0.04
59.031,0.64
59.046,5.48
59.062,15.04
59.078,28.82
59.093,45.37
59.109,62.72
59.125,78.99
59.140,93.02
59.156,104.54
59.171,114.07
59.187,122.39
59.203,130.09
59.218,137.27
59.234,143.67
59.250,149.01
59.265,153.3
59.281,156.89
59.296,160.28
59.312,163.81
59.328,167.42
59.343,170.7
59.359,173.2
59.375,174.75
59.390,175.62
59.406,176.32
59.421,177.17
59.437,178.0
59.453,178.03
59.468,176.08
59.484,170.96
59.500,161.83
59.515,148.32
59.531,130.4
59.546,108.28
59.562,82.24
59.578,52.83
59.593,20.91
59.609,-12.13
59.625,-44.48
59.640,-74.17
59.656,-99.39
59.671,-118.78
59.687,-131.6
59.703,-137.69
59.718,-137.43
59.734,-131.72
59.750,-121.88
59.765,-109.58
59.781,-96.56
59.796,-84.34
59.812,-73.88
59.828,-65.42
59.843,-58.53
59.859,-52.35
59.875,-46.02
59.890,-38.92
59.906,-30.81
59.921,-21.86
59.937,-12.57
59.953,-3.65
59.968,4.08
59.984,9.94
