timestamp,value
00.000,-9.51
00.015,-2.28
00.031,4.88
00.046,11.12
00.062,15.8
00.078,18.76
00.093,20.39
00.109,21.38
00.125,22.44
00.140,23.85
00.156,25.39
00.171,26.41
00.187,26.12
00.203,24.07
00.218,20.28
00.234,15.29
00.250,9.82
00.265,4.51
00.281,-0.35
00.296,-4.87
00.312,-9.36
00.328,-14.13
00.343,-19.27
00.359,-24.61
00.375,-29.77
00.390,-34.36
00.406,-38.26
00.421,-41.61
00.437,-44.86
00.453,-48.58
00.468,-53.31
00.484,-59.36
00.500,-66.82
00.515,-75.45
00.531,-84.65
00.546,-93.44
00.562,-100.5
00.578,-104.27
00.593,-103.33
00.609,-96.84
00.625,-84.82
00.640,-68.35
00.656,-49.24
00.671,-29.6
00.687,-11.35
00.703,4.11
00.718,15.95
00.734,23.79
00.750,27.64
00.765,27.76
00.781,24.71
00.796,19.34
00.812,12.68
00.828,5.82
00.843,-0.27
00.859,-4.97
00.875,-7.96
00.890,-9.25
00.906,-9.04
00.921,-7.54
00.937,-4.85
00.953,-0.89
00.968,4.5
00.984,11.44
01.000,19.76
01.015,29.0
01.031,38.41
01.046,47.3
01.062,55.2
01.078,62.06
01.093,68.22
01.109,74.22
01.125,80.58
01.140,87.54
01.156,94.91
01.171,102.05
01.187,107.97
01.203,111.63
01.218,112.25
01.234,109.59
01.250,103.98
01.265,96.17
01.281,86.92
01.296,76.75
01.312,65.71
01.328,53.73
01.343,40.97
01.359,28.31
01.375,17.41
01.390,10.42
01.406,9.33
01.421,15.27
01.437,28.04
01.453,46.01
01.468,66.51
01.484,86.58
01.500,103.62
01.515,116.06
01.531,123.41
01.546,126.33
01.562,126.37
01.578,125.68
01.593,126.48
01.609,130.34
01.625,137.31
01.640,145.38
01.656,150.75
01.671,148.81
01.687,135.99
01.703,111.27
01.718,76.86
01.734,37.6
01.750,-0.71
01.765,-33.13
01.781,-56.99
01.796,-72.09
01.812,-80.18
01.828,-83.9
01.843,-85.8
01.859,-87.82
01.875,-90.97
01.890,-95.45
01.906,-100.8
01.921,-106.09
01.937,-110.32
01.953,-112.6
01.968,-112.57
01.984,-110.43
02.000,-107.14
02.015,-104.12
02.031,-103.13
02.046,-105.58
02.062,-112.07
02.078,-121.92
02.093,-133.31
02.109,-143.78
02.125,-151.15
02.140,-154.51
02.156,-154.4
02.171,-152.48
02.187,-150.53
02.203,-149.52
02.218,-149.05
02.234,-147.68
02.250,-143.75
02.265,-136.3
02.281,-125.63
02.296,-113.03
02.312,-100.17
02.328,-88.28
02.343,-77.66
02.359,-67.89
02.375,-58.27
02.390,-48.37
02.406,-38.24
02.421,-28.25
02.437,-18.46
02.453,-8.42
02.468,2.86
02.484,16.15
02.500,31.3
02.515,46.85
02.531,60.27
02.546,69.12
02.562,72.13
02.578,69.96
02.593,64.94
02.609,59.99
02.625,57.41
02.640,57.91
02.656,60.61
02.671,63.64
02.687,65.14
02.703,64.17
02.718,61.14
02.734,57.65
02.750,55.79
02.765,56.97
02.781,60.86
02.796,65.03
02.812,65.61
02.828,58.9
02.843,43.18
02.859,19.67
02.875,-7.89
02.890,-34.91
02.906,-57.83
02.921,-75.1
02.937,-86.89
02.953,-93.9
02.968,-96.47
02.984,-94.37
03.000,-87.66
03.015,-77.51
03.031,-66.41
03.046,-57.39
03.062,-52.59
03.078,-52.34
03.093,-55.08
03.109,-58.36
03.125,-60.11
03.140,-59.53
03.156,-57.08
03.171,-53.7
03.187,-49.8
03.203,-44.86
03.218,-37.73
03.234,-27.7
03.250,-15.42
03.265,-3.3
03.281,5.18
03.296,6.88
03.312,0.41
03.328,-13.17
03.343,-30.74
03.359,-48.44
03.375,-63.14
03.390,-73.36
03.406,-79.22
03.421,-81.87
03.437,-82.61
03.453,-82.3
03.468,-81.44
03.484,-80.3
03.500,-79.3
03.515,-78.9
03.531,-79.47
03.546,-81.04
03.562,-83.25
03.578,-85.53
03.593,-87.44
03.609,-88.93
03.625,-90.6
03.640,-93.42
03.656,-98.47
03.671,-106.24
03.687,-115.95
03.703,-125.22
03.718,-130.41
03.734,-127.67
03.750,-114.47
03.765,-90.77
03.781,-59.29
03.796,-24.71
03.812,8.1
03.828,35.62
03.843,56.59
03.859,71.69
03.875,82.55
03.890,90.59
03.906,96.33
03.921,99.65
03.937,100.29
03.953,98.5
03.968,95.15
03.984,91.48
04.000,88.5
04.015,86.69
04.031,85.91
04.046,85.6
04.062,85.18
04.078,84.29
04.093,82.96
04.109,81.35
04.125,79.64
04.140,77.81
04.156,75.69
04.171,73.04
04.187,69.73
04.203,65.87
04.218,61.81
04.234,58.01
04.250,54.88
04.265,52.59
04.281,51.04
04.296,49.91
04.312,48.79
04.328,47.38
04.343,45.57
04.359,43.44
04.375,41.23
04.390,39.17
04.406,37.58
04.421,36.64
04.437,36.49
04.453,37.18
04.468,38.61
04.484,40.6
04.500,42.85
04.515,45.07
04.531,46.97
04.546,48.36
04.562,49.13
04.578,49.22
04.593,48.66
04.609,47.49
04.625,45.83
04.640,43.89
04.656,41.86
04.671,39.97
04.687,38.38
04.703,37.19
04.718,36.41
04.734,35.93
04.750,35.63
04.765,35.26
04.781,34.46
04.796,32.82
04.812,29.9
04.828,25.47
04.843,19.58
04.859,12.65
04.875,5.4
04.890,-1.43
04.906,-7.23
04.921,-11.8
04.937,-15.35
04.953,-18.38
04.968,-21.49
04.984,-25.15
05.000,-29.6
05.015,-34.9
05.031,-40.98
05.046,-47.78
05.062,-55.21
05.078,-63.15
05.093,-71.47
05.109,-80.13
05.125,-89.23
05.140,-98.87
05.156,-108.94
05.171,-118.81
05.187,-127.07
05.203,-131.78
05.218,-131.1
05.234,-123.9
05.250,-110.43
05.265,-92.37
05.281,-72.27
05.296,-52.7
05.312,-35.55
05.328,-21.69
05.343,-11.15
05.359,-3.55
05.375,1.54
05.390,4.42
05.406,5.32
05.421,4.67
05.437,3.07
05.453,1.27
05.468,-0.02
05.484,-0.41
05.500,0.15
05.515,1.39
05.531,2.95
05.546,4.59
05.562,6.29
05.578,8.24
05.593,10.66
05.609,13.57
05.625,16.62
05.640,19.19
05.656,20.53
05.671,20.16
05.687,18.03
05.703,14.66
05.718,10.86
05.734,7.42
05.750,4.7
05.765,2.43
05.781,-0.17
05.796,-4.14
05.812,-10.31
05.828,-18.85
05.843,-29.1
05.859,-39.58
05.875,-48.34
05.890,-53.53
05.906,-53.86
05.921,-49.01
05.937,-39.67
05.953,-27.3
05.968,-13.79
05.984,-1.01
06.000,9.5
06.015,16.7
06.031,20.08
06.046,19.57
06.062,15.49
06.078,8.48
06.093,-0.67
06.109,-11.04
06.125,-21.68
06.140,-31.65
06.156,-40.04
06.171,-46.01
06.187,-48.89
06.203,-48.32
06.218,-44.39
06.234,-37.72
06.250,-29.46
06.265,-21.08
06.281,-14.03
06.296,-9.35
06.312,-7.59
06.328,-8.55
06.343,-11.61
06.359,-15.9
06.375,-20.62
06.390,-25.31
06.406,-29.87
06.421,-34.65
06.437,-40.24
06.453,-47.37
06.468,-56.45
06.484,-67.3
06.500,-78.85
06.515,-89.12
06.531,-95.62
06.546,-95.96
06.562,-88.56
06.578,-73.08
06.593,-50.54
06.609,-22.93
06.625,7.33
06.640,37.85
06.656,66.71
06.671,92.52
06.687,114.51
06.703,132.47
06.718,146.67
06.734,157.73
06.750,166.46
06.765,173.61
06.781,179.54
06.796,184.02
06.812,186.28
06.828,185.25
06.843,179.96
06.859,170.05
06.875,156.1
06.890,139.53
06.906,122.2
06.921,105.83
06.937,91.44
06.953,79.1
06.968,68.08
06.984,57.31
07.000,45.81
07.015,33.1
07.031,19.23
07.046,4.6
07.062,-10.23
07.078,-24.89
07.093,-39.28
07.109,-53.62
07.125,-68.43
07.140,-84.17
07.156,-100.95
07.171,-118.09
07.187,-134.01
07.203,-146.36
07.218,-152.61
07.234,-150.88
07.250,-140.66
07.265,-123.04
07.281,-100.39
07.296,-75.58
07.312,-51.15
07.328,-28.77
07.343,-9.12
07.359,7.7
07.375,21.78
07.390,33.1
07.406,41.46
07.421,46.83
07.437,49.45
07.453,50.09
07.468,49.76
07.484,49.44
07.500,49.7
07.515,50.56
07.531,51.63
07.546,52.37
07.562,52.43
07.578,51.83
07.593,50.87
07.609,49.89
07.625,49.0
07.640,48.0
07.656,46.43
07.671,43.73
07.687,39.52
07.703,33.7
07.718,26.47
07.734,18.27
07.750,9.64
07.765,1.05
07.781,-7.15
07.796,-14.84
07.812,-22.09
07.828,-29.14
07.843,-36.41
07.859,-44.39
07.875,-53.62
07.890,-64.45
07.906,-76.69
07.921,-89.28
07.937,-100.25
07.953,-106.97
07.968,-106.92
07.984,-98.58
08.000,-82.07
08.015,-59.14
08.031,-32.59
08.046,-5.46
08.062,19.86
08.078,41.96
08.093,60.35
08.109,75.08
08.125,86.38
08.140,94.48
08.156,99.67
08.171,102.31
08.187,102.93
08.203,102.2
08.218,100.7
08.234,98.95
08.250,97.28
08.265,95.9
08.281,94.9
08.296,94.31
08.312,94.1
08.328,94.2
08.343,94.45
08.359,94.62
08.375,94.34
08.390,93.23
08.406,90.95
08.421,87.4
08.437,82.78
08.453,77.56
08.468,72.29
08.484,67.39
08.500,62.98
08.515,58.89
08.531,54.85
08.546,50.65
08.562,46.32
08.578,42.09
08.593,38.24
08.609,34.97
08.625,32.13
08.640,29.23
08.656,25.55
08.671,20.3
08.687,12.98
08.703,3.68
08.718,-6.67
08.734,-16.36
08.750,-23.3
08.765,-25.61
08.781,-22.27
08.796,-13.51
08.812,-0.7
08.828,14.14
08.843,28.99
08.859,42.4
08.875,53.59
08.890,62.38
08.906,68.82
08.921,73.01
08.937,75.0
08.953,74.97
08.968,73.36
08.984,70.9
09.000,68.43
09.015,66.7
09.031,66.25
09.046,67.24
09.062,69.55
09.078,72.86
09.093,76.68
09.109,80.41
09.125,83.41
09.140,84.99
09.156,84.58
09.171,81.89
09.187,77.0
09.203,70.42
09.218,63.03
09.234,55.69
09.250,48.72
09.265,41.6
09.281,32.83
09.296,20.27
09.312,1.93
09.328,-23.28
09.343,-54.93
09.359,-91.1
09.375,-128.83
09.390,-164.81
09.406,-196.17
09.421,-220.95
09.437,-238.22
09.453,-248.06
09.468,-251.37
09.484,-249.69
09.500,-244.94
09.515,-239.13
09.531,-233.85
09.546,-229.75
09.562,-226.35
09.578,-222.12
09.593,-214.94
09.609,-202.88
09.625,-184.95
09.640,-161.53
09.656,-134.2
09.671,-105.19
09.687,-76.67
09.703,-50.07
09.718,-26.0
09.734,-4.4
09.750,15.05
09.765,32.71
09.781,48.96
09.796,64.38
09.812,79.77
09.828,95.91
09.843,113.11
09.859,130.82
09.875,147.46
09.890,160.95
09.906,169.44
09.921,172.14
09.937,169.61
09.953,163.62
09.968,156.43
09.984,150.02
10.000,145.58
10.015,143.27
10.031,142.32
10.046,141.35
10.062,138.76
10.078,133.12
10.093,123.59
10.109,110.07
10.125,93.26
10.140,74.47
10.156,55.36
10.171,37.56
10.187,22.33
10.203,10.25
10.218,0.96
10.234,-6.84
10.250,-15.19
10.265,-26.25
10.281,-41.65
10.296,-61.89
10.312,-86.18
10.328,-112.85
10.343,-139.95
10.359,-165.89
10.375,-189.53
10.390,-209.99
10.406,-226.21
10.421,-236.73
10.437,-239.9
10.453,-234.46
10.468,-220.17
10.484,-198.19
10.500,-170.91
10.515,-141.32
10.531,-112.23
10.546,-85.56
10.562,-62.16
10.578,-42.05
10.593,-24.92
10.609,-10.42
10.625,1.56
10.640,11.15
10.656,18.73
10.671,25.06
10.687,31.2
10.703,38.18
10.718,46.65
10.734,56.68
10.750,67.78
10.765,79.28
10.781,90.64
10.796,101.74
10.812,112.95
10.828,124.72
10.843,137.14
10.859,149.44
10.875,159.9
10.890,166.22
10.906,166.34
10.921,159.24
10.937,145.39
10.953,126.69
10.968,105.71
10.984,84.77
11.000,65.21
11.015,47.31
11.031,30.66
11.046,14.79
11.062,-0.33
11.078,-14.21
11.093,-26.24
11.109,-36.03
11.125,-43.78
11.140,-50.18
11.156,-56.2
11.171,-62.83
11.187,-70.73
11.203,-80.22
11.218,-91.2
11.234,-103.13
11.250,-114.96
11.265,-125.15
11.281,-131.82
11.296,-133.25
11.312,-128.29
11.328,-116.78
11.343,-99.72
11.359,-78.96
11.375,-56.75
11.390,-35.17
11.406,-15.72
11.421,0.84
11.437,14.34
11.453,24.91
11.468,32.8
11.484,38.29
11.500,41.76
11.515,43.73
11.531,44.87
11.546,45.88
11.562,47.31
11.578,49.42
11.593,52.12
11.609,55.08
11.625,57.85
11.640,60.06
11.656,61.5
11.671,62.12
11.687,61.98
11.703,61.12
11.718,59.52
11.734,57.01
11.750,53.46
11.765,48.86
11.781,43.45
11.796,37.66
11.812,32.0
11.828,26.8
11.843,22.06
11.859,17.49
11.875,12.61
11.890,7.09
11.906,0.89
11.921,-5.64
11.937,-11.9
11.953,-17.26
11.968,-21.37
11.984,-24.28
12.000,-26.48
12.015,-28.79
12.031,-32.11
12.046,-37.13
12.062,-44.05
12.078,-52.44
12.093,-61.22
12.109,-68.79
12.125,-73.41
12.140,-73.61
12.156,-68.67
12.171,-58.83
12.187,-45.23
12.203,-29.55
12.218,-13.51
12.234,1.53
12.250,14.86
12.265,26.29
12.281,35.92
12.296,43.87
12.312,50.15
12.328,54.68
12.343,57.4
12.359,58.43
12.375,57.99
12.390,56.46
12.406,54.19
12.421,51.43
12.437,48.32
12.453,44.99
12.468,41.58
12.484,38.29
12.500,35.37
12.515,32.96
12.531,31.02
12.546,29.24
12.562,27.14
12.578,24.27
12.593,20.32
12.609,15.29
12.625,9.46
12.640,3.32
12.656,-2.66
12.671,-8.12
12.687,-12.91
12.703,-17.14
12.718,-21.05
12.734,-24.95
12.750,-29.07
12.765,-33.45
12.781,-37.95
12.796,-42.21
12.812,-45.93
12.828,-48.94
12.843,-51.36
12.859,-53.67
12.875,-56.53
12.890,-60.62
12.906,-66.24
12.921,-73.09
12.937,-80.14
12.953,-85.74
12.968,-87.97
12.984,-85.18
13.000,-76.49
13.015,-62.06
13.031,-42.99
13.046,-21.04
13.062,1.93
13.078,24.37
13.093,45.17
13.109,63.71
13.125,79.6
13.140,92.62
13.156,102.62
13.171,109.58
13.187,113.77
13.203,115.68
13.218,116.0
13.234,115.39
13.250,114.33
13.265,113.09
13.281,111.71
13.296,110.22
13.312,108.7
13.328,107.3
13.343,106.14
13.359,105.19
13.375,104.16
13.390,102.51
13.406,99.65
13.421,95.12
13.437,88.82
13.453,81.06
13.468,72.46
13.484,63.66
13.500,55.12
13.515,46.92
13.531,38.8
13.546,30.32
13.562,21.09
13.578,10.96
13.593,0.05
13.609,-11.32
13.625,-22.74
13.640,-33.84
13.656,-44.32
13.671,-54.13
13.687,-63.37
13.703,-72.39
13.718,-81.74
13.734,-92.03
13.750,-103.59
13.765,-116.19
13.781,-128.75
13.796,-139.51
13.812,-146.43
13.828,-147.83
13.843,-142.95
13.859,-132.23
13.875,-117.16
13.890,-99.7
13.906,-81.7
13.921,-64.36
13.937,-48.13
13.953,-32.91
13.968,-18.48
13.984,-4.76
14.000,8.05
14.015,19.56
14.031,29.47
14.046,37.76
14.062,44.79
14.078,51.27
14.093,58.09
14.109,66.18
14.125,76.29
14.140,88.67
14.156,102.9
14.171,117.62
14.187,130.74
14.203,139.85
14.218,142.94
14.234,139.0
14.250,128.45
14.265,113.0
14.281,95.2
14.296,77.82
14.312,63.28
14.328,53.33
14.343,48.93
14.359,50.23
14.375,56.53
14.390,66.29
14.406,77.18
14.421,86.53
14.437,91.89
14.453,91.68
14.468,85.43
14.484,73.82
14.500,58.21
14.515,40.23
14.531,21.55
14.546,3.75
14.562,-11.62
14.578,-23.11
14.593,-29.73
14.609,-31.16
14.625,-27.78
14.640,-20.38
14.656,-9.51
14.671,4.97
14.687,23.91
14.703,48.16
14.718,77.56
14.734,110.14
14.750,141.89
14.765,167.62
14.781,182.34
14.796,182.62
14.812,167.42
14.828,138.09
14.843,97.9
14.859,51.45
14.875,4.03
14.890,-38.89
14.906,-72.49
14.921,-93.6
14.937,-101.65
14.953,-99.16
14.968,-91.1
14.984,-83.33
15.000,-80.48
15.015,-84.4
15.031,-93.74
15.046,-104.96
15.062,-114.09
15.078,-118.52
15.093,-117.79
15.109,-113.33
15.125,-107.33
15.140,-101.56
15.156,-96.8
15.171,-92.82
15.187,-88.84
15.203,-84.03
15.218,-77.7
15.234,-69.29
15.250,-58.43
15.265,-45.4
15.281,-31.69
15.296,-20.13
15.312,-14.46
15.328,-18.12
15.343,-32.87
15.359,-57.88
15.375,-89.72
15.390,-123.35
15.406,-153.46
15.421,-175.81
15.437,-187.95
15.453,-189.36
15.468,-181.1
15.484,-165.39
15.500,-144.95
15.515,-122.53
15.531,-100.4
15.546,-80.02
15.562,-61.79
15.578,-45.06
15.593,-28.47
15.609,-10.7
15.625,8.77
15.640,29.05
15.656,47.73
15.671,61.57
15.687,67.69
15.703,64.53
15.718,52.44
15.734,33.33
15.750,10.07
15.765,-14.45
15.781,-37.71
15.796,-57.77
15.812,-73.24
15.828,-83.34
15.843,-88.17
15.859,-88.78
15.875,-87.09
15.890,-85.37
15.906,-85.64
15.921,-89.2
15.937,-96.52
15.953,-107.42
15.968,-121.29
15.984,-137.13
16.000,-153.53
16.015,-168.66
16.031,-180.54
16.046,-187.55
16.062,-188.97
16.078,-185.29
16.093,-178.13
16.109,-169.77
16.125,-162.41
16.140,-157.55
16.156,-155.66
16.171,-155.97
16.187,-156.68
16.203,-155.31
16.218,-149.4
16.234,-137.28
16.250,-118.61
16.265,-94.58
16.281,-67.57
16.296,-40.31
16.312,-15.1
16.328,6.75
16.343,24.95
16.359,39.81
16.375,51.84
16.390,61.35
16.406,68.46
16.421,73.29
16.437,76.25
16.453,78.0
16.468,79.26
16.484,80.56
16.500,82.04
16.515,83.43
16.531,84.34
16.546,84.47
16.562,83.8
16.578,82.59
16.593,81.09
16.609,79.35
16.625,77.07
16.640,73.8
16.656,69.1
16.671,62.84
16.687,55.23
16.703,46.64
16.718,37.53
16.734,28.19
16.750,18.89
16.765,9.86
16.781,1.44
16.796,-5.99
16.812,-12.2
16.828,-17.24
16.843,-21.59
16.859,-26.06
16.875,-31.64
16.890,-39.1
16.906,-48.68
16.921,-59.87
16.937,-71.33
16.953,-81.2
16.968,-87.5
16.984,-88.72
17.000,-84.21
17.015,-74.27
17.031,-59.93
17.046,-42.57
17.062,-23.55
17.078,-3.96
17.093,15.26
17.109,33.26
17.125,49.12
17.140,62.04
17.156,71.54
17.171,77.84
17.187,81.99
17.203,85.75
17.218,91.19
17.234,100.09
17.250,113.5
17.265,131.34
17.281,152.47
17.296,174.81
17.312,195.7
17.328,212.37
17.343,222.52
17.359,225.02
17.375,220.34
17.390,210.64
17.406,199.2
17.421,189.33
17.437,183.27
17.453,181.45
17.468,182.47
17.484,183.91
17.500,183.4
17.515,179.62
17.531,172.71
17.546,163.89
17.562,154.78
17.578,146.59
17.593,139.76
17.609,133.95
17.625,128.45
17.640,122.47
17.656,115.37
17.671,106.72
17.687,96.32
17.703,84.22
17.718,70.78
17.734,56.72
17.750,43.02
17.765,30.66
17.781,20.33
17.796,12.26
17.812,6.19
17.828,1.6
17.843,-2.02
17.859,-5.01
17.875,-7.46
17.890,-9.27
17.906,-10.26
17.921,-10.26
17.937,-9.18
17.953,-6.98
17.968,-3.68
17.984,0.63
18.000,5.83
18.015,11.73
18.031,18.02
18.046,24.27
18.062,30.04
18.078,35.1
18.093,39.58
18.109,44.05
18.125,49.43
18.140,56.88
18.156,67.42
18.171,81.45
18.187,98.25
18.203,115.59
18.218,130.09
18.234,137.72
18.250,135.11
18.265,120.62
18.281,94.98
18.296,61.18
18.312,23.62
18.328,-12.97
18.343,-44.73
18.359,-69.31
18.375,-86.21
18.390,-96.47
18.406,-102.3
18.421,-106.25
18.437,-110.49
18.453,-116.28
18.468,-123.68
18.484,-131.95
18.500,-139.93
18.515,-146.5
18.531,-150.74
18.546,-151.95
18.562,-149.94
18.578,-145.21
18.593,-139.38
18.609,-134.95
18.625,-134.57
18.640,-139.93
18.656,-150.85
18.671,-165.12
18.687,-179.29
18.703,-190.06
18.718,-195.42
18.734,-195.22
18.750,-190.76
18.765,-183.86
18.781,-175.95
18.796,-167.62
18.812,-158.67
18.828,-148.46
18.843,-136.41
18.859,-122.22
18.875,-106.05
18.890,-88.44
18.906,-70.31
18.921,-52.78
18.937,-37.12
18.953,-24.57
18.968,-16.0
18.984,-11.71
19.000,-10.98
19.015,-12.06
19.031,-12.35
19.046,-8.89
19.062,0.6
19.078,16.92
19.093,38.93
19.109,63.79
19.125,87.96
19.140,108.32
19.156,123.02
19.171,131.74
19.187,135.07
19.203,133.82
19.218,128.49
19.234,119.24
19.250,106.31
19.265,90.39
19.281,72.81
19.296,55.35
19.312,39.78
19.328,27.42
19.343,18.74
19.359,13.19
19.375,9.26
19.390,4.89
19.406,-1.83
19.421,-11.99
19.437,-25.33
19.453,-40.32
19.468,-54.96
19.484,-67.59
19.500,-77.64
19.515,-85.53
19.531,-92.22
19.546,-98.31
19.562,-103.7
19.578,-107.66
19.593,-109.48
19.609,-109.18
19.625,-107.68
19.640,-106.7
19.656,-107.97
19.671,-112.69
19.687,-121.02
19.703,-132.09
19.718,-144.08
19.734,-154.53
19.750,-160.83
19.765,-160.52
19.781,-152.01
19.796,-134.97
19.812,-110.69
19.828,-81.83
19.843,-51.83
19.859,-24.0
19.875,-0.72
19.890,16.95
19.906,29.16
19.921,36.89
19.937,41.34
19.953,43.6
19.968,44.51
19.984,44.67
20.000,44.52
20.015,44.4
20.031,44.51
20.046,44.91
20.062,45.53
20.078,46.24
20.093,46.9
20.109,47.49
20.125,48.03
20.140,48.59
20.156,49.13
20.171,49.5
20.187,49.43
20.203,48.55
20.218,46.54
20.234,43.25
20.250,38.74
20.265,33.22
20.281,27.04
20.296,20.43
20.312,13.32
20.328,5.28
20.343,-4.45
20.359,-16.49
20.375,-30.87
20.390,-46.55
20.406,-61.39
20.421,-72.65
20.437,-77.8
20.453,-75.41
20.468,-65.68
20.484,-50.32
20.500,-31.95
20.515,-13.19
20.531,3.98
20.546,18.5
20.562,30.09
20.578,38.94
20.593,45.29
20.609,49.42
20.625,51.57
20.640,52.18
20.656,51.8
20.671,51.15
20.687,50.77
20.703,50.99
20.718,51.8
20.734,53.02
20.750,54.55
20.765,56.49
20.781,59.16
20.796,62.88
20.812,67.59
20.828,72.71
20.843,77.07
20.859,79.42
20.875,78.84
20.890,75.23
20.906,69.37
20.921,62.66
20.937,56.59
20.953,52.18
20.968,49.67
20.984,48.44
21.000,47.26
21.015,44.77
21.031,40.01
21.046,32.82
21.062,24.1
21.078,15.68
21.093,9.8
21.109,8.36
21.125,12.27
21.140,21.07
21.156,33.05
21.171,46.03
21.187,58.03
21.203,67.84
21.218,75.11
21.234,80.16
21.250,83.78
21.265,86.79
21.281,89.69
21.296,92.29
21.312,93.44
21.328,91.25
21.343,83.82
21.359,70.18
21.375,51.11
21.390,28.93
21.406,6.62
21.421,-13.58
21.437,-31.03
21.453,-46.39
21.468,-60.48
21.484,-72.8
21.500,-81.04
21.515,-81.92
21.531,-72.87
21.546,-53.65
21.562,-26.87
21.578,2.8
21.593,30.0
21.609,49.93
21.625,59.26
21.640,56.12
21.656,39.87
21.671,10.98
21.687,-28.8
21.703,-76.27
21.718,-126.89
21.734,-175.65
21.750,-218.09
21.765,-251.51
21.781,-275.42
21.796,-291.36
21.812,-301.96
21.828,-309.96
21.843,-317.47
21.859,-325.6
21.875,-334.41
21.890,-342.89
21.906,-349.06
21.921,-350.17
21.937,-343.27
21.953,-326.25
21.968,-298.75
21.984,-262.72
22.000,-221.91
22.015,-180.56
22.031,-142.0
22.046,-107.62
22.062,-77.06
22.078,-48.97
22.093,-22.21
22.109,3.38
22.125,26.96
22.140,47.34
22.156,63.6
22.171,75.66
22.187,84.22
22.203,90.42
22.218,95.36
22.234,99.74
22.250,103.76
22.265,107.34
22.281,110.35
22.296,112.89
22.312,115.13
22.328,117.22
22.343,118.99
22.359,119.88
22.375,119.12
22.390,115.96
22.406,110.01
22.421,101.31
22.437,90.27
22.453,77.43
22.468,63.37
22.484,48.52
22.500,33.26
22.515,17.9
22.531,2.74
22.546,-11.9
22.562,-25.81
22.578,-38.89
22.593,-51.22
22.609,-63.09
22.625,-74.9
22.640,-86.94
22.656,-99.06
22.671,-110.41
22.687,-119.31
22.703,-123.61
22.718,-121.22
22.734,-110.94
22.750,-92.85
22.765,-68.39
22.781,-39.91
22.796,-9.99
22.812,19.21
22.828,46.28
22.843,70.4
22.859,91.21
22.875,108.47
22.890,122.02
22.906,131.78
22.921,137.92
22.937,140.89
22.953,141.4
22.968,140.27
22.984,138.27
23.000,136.09
23.015,134.25
23.031,133.13
23.046,132.96
23.062,133.76
23.078,135.32
23.093,137.07
23.109,138.25
23.125,137.95
23.140,135.41
23.156,130.21
23.171,122.55
23.187,113.29
23.203,103.78
23.218,95.6
23.234,89.94
23.250,87.18
23.265,86.54
23.281,86.28
23.296,84.27
23.312,78.8
23.328,69.29
23.343,56.45
23.359,41.97
23.375,27.71
23.390,15.05
23.406,4.43
23.421,-4.49
23.437,-12.33
23.453,-19.64
23.468,-26.53
23.484,-32.86
23.500,-38.3
23.515,-42.5
23.531,-45.1
23.546,-45.62
23.562,-43.51
23.578,-38.23
23.593,-29.54
23.609,-17.6
23.625,-2.87
23.640,14.11
23.656,32.93
23.671,53.25
23.687,74.42
23.703,95.17
23.718,113.5
23.734,127.09
23.750,134.01
23.765,133.46
23.781,126.04
23.796,113.58
23.812,98.71
23.828,84.12
23.843,72.25
23.859,64.94
23.875,63.1
23.890,66.57
23.906,73.85
23.921,82.41
23.937,89.3
23.953,91.98
23.968,89.11
23.984,80.82
24.000,68.51
24.015,54.38
24.031,40.88
24.046,30.23
24.062,24.06
24.078,22.88
24.093,25.72
24.109,30.12
24.125,32.58
24.140,29.67
24.156,19.2
24.171,1.12
24.187,-22.54
24.203,-48.31
24.218,-72.45
24.234,-91.82
24.250,-104.46
24.265,-109.69
24.281,-108.19
24.296,-101.96
24.312,-94.06
24.328,-88.03
24.343,-86.87
24.359,-91.94
24.375,-102.31
24.390,-114.94
24.406,-125.72
24.421,-130.69
24.437,-127.14
24.453,-114.15
24.468,-92.5
24.484,-64.32
24.500,-32.61
24.515,-0.78
24.531,27.91
24.546,50.87
24.562,66.67
24.578,75.22
24.593,77.64
24.609,75.84
24.625,72.03
24.640,68.17
24.656,65.63
24.671,64.83
24.687,65.17
24.703,65.28
24.718,63.57
24.734,58.91
24.750,51.13
24.765,41.12
24.781,30.32
24.796,20.09
24.812,11.08
24.828,3.21
24.843,-3.95
24.859,-10.79
24.875,-17.25
24.890,-22.91
24.906,-27.31
24.921,-30.39
24.937,-32.59
24.953,-34.74
24.968,-37.7
24.984,-41.97
25.000,-47.35
25.015,-53.11
25.031,-58.22
25.046,-61.82
25.062,-63.58
25.078,-63.88
25.093,-63.64
25.109,-64.01
25.125,-65.9
25.140,-69.76
25.156,-75.34
25.171,-81.63
25.187,-87.02
25.203,-89.65
25.218,-87.73
25.234,-80.09
25.250,-66.56
25.265,-48.09
25.281,-26.52
25.296,-4.04
25.312,17.4
25.328,36.58
25.343,53.13
25.359,67.26
25.375,79.38
25.390,89.81
25.406,98.67
25.421,106.03
25.437,112.08
25.453,117.17
25.468,121.8
25.484,126.38
25.500,131.17
25.515,136.29
25.531,141.71
25.546,147.41
25.562,153.15
25.578,158.34
25.593,161.85
25.609,162.11
25.625,157.5
25.640,146.84
25.656,129.89
25.671,107.54
25.687,81.65
25.703,54.64
25.718,28.93
25.734,6.48
25.750,-11.44
25.765,-24.23
25.781,-31.82
25.796,-34.54
25.812,-33.09
25.828,-28.62
25.843,-22.72
25.859,-17.33
25.875,-14.43
25.890,-15.58
25.906,-21.61
25.921,-32.48
25.937,-47.48
25.953,-65.54
25.968,-85.6
25.984,-106.76
26.000,-128.12
26.015,-148.42
26.031,-165.91
26.046,-178.46
26.062,-183.93
26.078,-180.99
26.093,-169.61
26.109,-151.19
26.125,-128.26
26.140,-103.66
26.156,-79.68
26.171,-57.55
26.187,-37.47
26.203,-19.02
26.218,-1.86
26.234,13.96
26.250,27.95
26.265,39.48
26.281,48.2
26.296,54.25
26.312,58.24
26.328,60.93
26.343,62.98
26.359,64.71
26.375,66.1
26.390,67.02
26.406,67.41
26.421,67.41
26.437,67.35
26.453,67.5
26.468,67.82
26.484,67.81
26.500,66.64
26.515,63.48
26.531,57.9
26.546,50.13
26.562,41.03
26.578,31.82
26.593,23.58
26.609,16.92
26.625,11.81
26.640,7.72
26.656,3.88
26.671,-0.38
26.687,-5.45
26.703,-11.37
26.718,-17.86
26.734,-24.52
26.750,-31.05
26.765,-37.43
26.781,-44.0
26.796,-51.29
26.812,-59.83
26.828,-69.84
26.843,-81.05
26.859,-92.59
26.875,-103.1
26.890,-111.01
26.906,-114.72
26.921,-113.07
26.937,-105.59
26.953,-92.69
26.968,-75.61
26.984,-56.16
27.000,-36.3
27.015,-17.82
27.031,-2.15
27.046,9.74
27.062,17.29
27.078,20.45
27.093,19.6
27.109,15.45
27.125,9.01
27.140,1.43
27.156,-5.81
27.171,-10.82
27.187,-11.38
27.203,-5.59
27.218,7.29
27.234,26.14
27.250,48.0
27.265,69.14
27.281,86.41
27.296,98.44
27.312,105.67
27.328,109.61
27.343,111.48
27.359,111.51
27.375,109.04
27.390,103.38
27.406,94.71
27.421,84.43
27.437,74.64
27.453,67.18
27.468,62.7
27.484,60.33
27.500,58.15
27.515,53.96
27.531,46.19
27.546,34.48
27.562,19.82
27.578,4.12
27.593,-10.54
27.609,-22.7
27.625,-32.06
27.640,-39.39
27.656,-45.81
27.671,-51.9
27.687,-56.97
27.703,-59.08
27.718,-55.76
27.734,-45.11
27.750,-26.74
27.765,-2.2
27.781,25.48
27.796,52.6
27.812,75.93
27.828,93.42
27.843,104.65
27.859,110.69
27.875,113.77
27.890,116.57
27.906,121.34
27.921,129.04
27.937,138.7
27.953,147.71
27.968,152.65
27.984,150.71
28.000,140.76
28.015,123.8
28.031,102.49
28.046,80.15
28.062,59.68
28.078,42.83
28.093,29.99
28.109,20.38
28.125,12.46
28.140,4.52
28.156,-4.96
28.171,-16.94
28.187,-31.62
28.203,-48.46
28.218,-66.51
28.234,-84.84
28.250,-102.87
28.265,-120.63
28.281,-138.47
28.296,-156.74
28.312,-175.49
28.328,-194.25
28.343,-212.2
28.359,-228.39
28.375,-241.95
28.390,-252.31
28.406,-259.14
28.421,-262.32
28.437,-261.75
28.453,-257.38
28.468,-249.19
28.484,-237.24
28.500,-221.76
28.515,-203.15
28.531,-182.0
28.546,-159.06
28.562,-135.32
28.578,-112.01
28.593,-90.5
28.609,-72.1
28.625,-57.77
28.640,-47.87
28.656,-42.0
28.671,-39.21
28.687,-38.11
28.703,-37.2
28.718,-35.14
28.734,-30.91
28.750,-24.03
28.765,-14.64
28.781,-3.48
28.796,8.2
28.812,19.07
28.828,28.06
28.843,34.61
28.859,38.57
28.875,39.96
28.890,38.72
28.906,34.66
28.921,27.73
28.937,18.38
28.953,7.85
28.968,-2.05
28.984,-9.39
29.000,-12.9
29.015,-12.42
29.031,-8.9
29.046,-4.09
29.062,0.05
29.078,1.95
29.093,0.77
29.109,-3.54
29.125,-10.13
29.140,-17.35
29.156,-23.0
29.171,-24.7
29.187,-20.46
29.203,-9.05
29.218,9.49
29.234,33.91
29.250,61.88
29.265,90.53
29.281,117.03
29.296,139.22
29.312,156.02
29.328,167.62
29.343,175.27
29.359,180.86
29.375,186.31
29.390,192.94
29.406,200.97
29.421,209.35
29.437,215.7
29.453,216.76
29.468,209.11
29.484,190.24
29.500,159.58
29.515,119.15
29.531,73.3
29.546,27.63
29.562,-12.61
29.578,-44.04
29.593,-65.87
29.609,-79.65
29.625,-88.12
29.640,-93.8
29.656,-97.95
29.671,-100.09
29.687,-98.52
29.703,-91.15
29.718,-76.7
29.734,-55.44
29.750,-29.36
29.765,-1.73
29.781,23.76
29.796,43.79
29.812,56.16
29.828,60.32
29.843,57.71
29.859,51.63
29.875,46.42
29.890,45.93
29.906,51.66
29.921,61.72
29.937,71.2
29.953,74.22
29.968,66.65
29.984,48.2
30.000,22.52
30.015,-4.5
30.031,-27.54
30.046,-43.95
30.062,-54.14
30.078,-60.38
30.093,-64.86
30.109,-68.26
30.125,-69.76
30.140,-67.64
30.156,-60.35
30.171,-46.98
30.187,-27.46
30.203,-2.56
30.218,25.94
30.234,55.09
30.250,81.03
30.265,99.77
30.281,108.26
30.296,105.2
30.312,91.22
30.328,68.4
30.343,39.57
30.359,7.73
30.375,-24.27
30.390,-53.93
30.406,-79.42
30.421,-100.1
30.437,-116.8
30.453,-131.67
30.468,-147.15
30.484,-164.94
30.500,-185.19
30.515,-206.51
30.531,-226.72
30.546,-243.73
30.562,-255.97
30.578,-262.42
30.593,-262.26
30.609,-254.7
30.625,-239.34
30.640,-216.55
30.656,-187.68
30.671,-154.9
30.687,-120.61
30.703,-86.92
30.718,-55.3
30.734,-26.63
30.750,-1.59
30.765,19.24
30.781,35.29
30.796,46.36
30.812,52.74
30.828,55.31
30.843,55.35
30.859,54.19
30.875,52.85
30.890,51.89
30.906,51.45
30.921,51.23
30.937,50.68
30.953,49.11
30.968,45.9
30.984,40.66
31.000,33.41
31.015,24.48
31.031,14.35
31.046,3.36
31.062,-8.32
31.078,-20.62
31.093,-33.36
31.109,-45.99
31.125,-57.69
31.140,-67.59
31.156,-75.19
31.171,-80.66
31.187,-84.87
31.203,-89.13
31.218,-94.61
31.234,-101.87
31.250,-110.5
31.265,-119.01
31.281,-125.08
31.296,-126.18
31.312,-120.3
31.328,-106.58
31.343,-85.67
31.359,-59.53
31.375,-30.96
31.390,-2.85
31.406,22.45
31.421,43.46
31.437,59.59
31.453,70.91
31.468,77.98
31.484,81.54
31.500,82.45
31.515,81.61
31.531,79.87
31.546,78.03
31.562,76.7
31.578,76.3
31.593,76.96
31.609,78.46
31.625,80.35
31.640,82.08
31.656,83.17
31.671,83.34
31.687,82.54
31.703,80.85
31.718,78.31
31.734,74.98
31.750,70.87
31.765,66.1
31.781,60.91
31.796,55.63
31.812,50.55
31.828,45.75
31.843,41.06
31.859,36.08
31.875,30.31
31.890,23.24
31.906,14.6
31.921,4.55
31.937,-6.19
31.953,-16.25
31.968,-23.86
31.984,-27.29
32.000,-25.41
32.015,-18.0
32.031,-5.91
32.046,9.35
32.062,26.01
32.078,42.56
32.093,57.88
32.109,71.27
32.125,82.25
32.140,90.47
32.156,95.69
32.171,97.92
32.187,97.45
32.203,94.9
32.218,91.03
32.234,86.58
32.250,82.11
32.265,77.92
32.281,74.17
32.296,70.93
32.312,68.31
32.328,66.55
32.343,65.87
32.359,66.36
32.375,67.8
32.390,69.63
32.406,71.01
32.421,71.17
32.437,69.7
32.453,66.75
32.468,62.95
32.484,59.07
32.500,55.64
32.515,52.65
32.531,49.48
32.546,45.25
32.562,39.22
32.578,31.22
32.593,21.77
32.609,12.03
32.625,3.57
32.640,-2.02
32.656,-3.48
32.671,-0.3
32.687,6.98
32.703,16.71
32.718,26.38
32.734,33.36
32.750,35.66
32.765,32.56
32.781,24.74
32.796,13.83
32.812,1.72
32.828,-10.14
32.843,-21.05
32.859,-30.87
32.875,-39.79
32.890,-47.9
32.906,-55.09
32.921,-61.08
32.937,-65.55
32.953,-68.14
32.968,-68.55
32.984,-66.5
33.000,-61.87
33.015,-54.87
33.031,-46.11
33.046,-36.61
33.062,-27.57
33.078,-20.09
33.093,-14.88
33.109,-12.13
33.125,-11.58
33.140,-12.68
33.156,-14.84
33.171,-17.5
33.187,-20.32
33.203,-23.18
33.218,-26.18
33.234,-29.67
33.250,-34.12
33.265,-39.81
33.281,-46.44
33.296,-52.93
33.312,-57.41
33.328,-57.68
33.343,-52.07
33.359,-40.01
33.375,-22.47
33.390,-1.64
33.406,19.74
33.421,39.29
33.437,55.6
33.453,68.39
33.468,78.22
33.484,85.98
33.500,92.42
33.515,97.91
33.531,102.54
33.546,106.2
33.562,108.88
33.578,110.69
33.593,111.91
33.609,112.85
33.625,113.68
33.640,114.42
33.656,114.8
33.671,114.32
33.687,112.27
33.703,107.71
33.718,99.57
33.734,86.73
33.750,68.39
33.765,44.43
33.781,15.67
33.796,-16.07
33.812,-48.36
33.828,-78.78
33.843,-105.55
33.859,-128.01
33.875,-146.5
33.890,-162.01
33.906,-175.47
33.921,-187.28
33.937,-196.96
33.953,-203.34
33.968,-205.0
33.984,-200.79
34.000,-190.41
34.015,-174.53
34.031,-154.64
34.046,-132.67
34.062,-110.51
34.078,-89.56
34.093,-70.72
34.109,-54.46
34.125,-40.98
34.140,-30.32
34.156,-22.41
34.171,-16.96
34.187,-13.43
34.203,-11.12
34.218,-9.37
34.234,-7.67
34.250,-5.83
34.265,-3.85
34.281,-1.86
34.296,0.12
34.312,2.18
34.328,4.51
34.343,7.26
34.359,10.4
34.375,13.73
34.390,16.88
34.406,19.45
34.421,21.25
34.437,22.28
34.453,22.73
34.468,22.81
34.484,22.55
34.500,21.68
34.515,19.6
34.531,15.68
34.546,9.53
34.562,1.45
34.578,-7.4
34.593,-15.15
34.609,-19.66
34.625,-19.19
34.640,-12.9
34.656,-1.16
34.671,14.65
34.687,32.61
34.703,50.9
34.718,68.22
34.734,83.88
34.750,97.66
34.765,109.43
34.781,118.91
34.796,125.66
34.812,129.25
34.828,129.6
34.843,127.12
34.859,122.77
34.875,117.74
34.890,113.15
34.906,109.64
34.921,107.29
34.937,105.6
34.953,103.72
34.968,100.86
34.984,96.58
35.000,91.02
35.015,84.88
35.031,79.19
35.046,74.83
35.062,72.14
35.078,70.75
35.093,69.65
35.109,67.65
35.125,63.7
35.140,57.18
35.156,47.89
35.171,36.13
35.187,22.77
35.203,9.58
35.218,-0.75
35.234,-5.4
35.250,-2.6
35.265,7.07
35.281,20.3
35.296,32.04
35.312,37.55
35.328,34.52
35.343,23.97
35.359,9.55
35.375,-4.42
35.390,-14.93
35.406,-21.39
35.421,-25.17
35.437,-28.34
35.453,-32.36
35.468,-37.6
35.484,-43.62
35.500,-49.73
35.515,-55.32
35.531,-59.69
35.546,-61.82
35.562,-60.44
35.578,-54.65
35.593,-44.68
35.609,-32.33
35.625,-20.82
35.640,-13.89
35.656,-14.81
35.671,-25.54
35.687,-46.33
35.703,-75.75
35.718,-111.02
35.734,-148.56
35.750,-184.68
35.765,-216.42
35.781,-242.15
35.796,-261.74
35.812,-276.03
35.828,-285.81
35.843,-290.76
35.859,-289.21
35.875,-278.77
35.890,-257.74
35.906,-226.34
35.921,-187.17
35.937,-144.62
35.953,-103.44
35.968,-67.4
35.984,-38.42
36.000,-16.73
36.015,-1.41
36.031,8.85
36.046,15.33
36.062,19.27
36.078,21.96
36.093,24.78
36.109,28.97
36.125,35.15
36.140,43.1
36.156,51.76
36.171,59.69
36.187,65.67
36.203,69.19
36.218,70.6
36.234,70.88
36.250,71.15
36.265,72.27
36.281,74.56
36.296,77.94
36.312,82.09
36.328,86.85
36.343,92.35
36.359,98.92
36.375,106.8
36.390,115.7
36.406,124.73
36.421,132.44
36.437,137.24
36.453,137.92
36.468,134.04
36.484,126.12
36.500,115.56
36.515,104.38
36.531,94.86
36.546,89.21
36.562,89.1
36.578,95.39
36.593,107.74
36.609,124.7
36.625,143.98
36.640,163.01
36.656,179.61
36.671,192.42
36.687,200.97
36.703,205.44
36.718,206.21
36.734,203.56
36.750,197.59
36.765,188.42
36.781,176.42
36.796,162.29
36.812,146.9
36.828,131.14
36.843,115.65
36.859,100.62
36.875,85.82
36.890,70.6
36.906,54.25
36.921,36.3
36.937,16.79
36.953,-3.71
36.968,-24.32
36.984,-44.16
37.000,-62.55
37.015,-78.92
37.031,-92.63
37.046,-102.79
37.062,-108.5
37.078,-109.36
37.093,-105.98
37.109,-100.07
37.125,-93.9
37.140,-89.5
37.156,-87.81
37.171,-88.56
37.187,-90.81
37.203,-93.81
37.218,-97.59
37.234,-102.85
37.250,-110.36
37.265,-120.04
37.281,-130.49
37.296,-139.31
37.312,-143.98
37.328,-142.93
37.343,-136.22
37.359,-125.35
37.375,-112.62
37.390,-100.24
37.406,-89.75
37.421,-81.97
37.437,-77.29
37.453,-75.94
37.468,-78.06
37.484,-83.52
37.500,-91.66
37.515,-101.25
37.531,-110.78
37.546,-118.83
37.562,-124.49
37.578,-127.67
37.593,-129.15
37.609,-130.02
37.625,-130.8
37.640,-130.63
37.656,-127.18
37.671,-117.79
37.687,-101.31
37.703,-79.68
37.718,-57.95
37.734,-42.46
37.750,-37.96
37.765,-45.28
37.781,-60.86
37.796,-78.42
37.812,-91.68
37.828,-96.38
37.843,-91.08
37.859,-76.34
37.875,-53.74
37.890,-25.27
37.906,6.39
37.921,37.5
37.937,63.72
37.953,81.35
37.968,88.79
37.984,87.27
38.000,80.37
38.015,72.51
38.031,67.19
38.046,65.91
38.062,68.13
38.078,72.11
38.093,76.13
38.109,79.31
38.125,81.91
38.140,84.86
38.156,89.12
38.171,95.14
38.187,102.7
38.203,110.74
38.218,117.5
38.234,120.61
38.250,117.4
38.265,105.57
38.281,84.06
38.296,53.81
38.312,17.85
38.328,-19.38
38.343,-53.37
38.359,-80.88
38.375,-100.76
38.390,-113.89
38.406,-122.44
38.421,-128.87
38.437,-135.21
38.453,-142.65
38.468,-151.44
38.484,-160.95
38.500,-169.87
38.515,-176.56
38.531,-179.59
38.546,-178.16
38.562,-172.43
38.578,-163.35
38.593,-152.49
38.609,-141.62
38.625,-132.5
38.640,-126.76
38.656,-125.65
38.671,-129.6
38.687,-137.59
38.703,-146.86
38.718,-153.3
38.734,-152.58
38.750,-141.66
38.765,-119.87
38.781,-89.12
38.796,-53.05
38.812,-15.62
38.828,20.14
38.843,52.6
38.859,81.36
38.875,106.41
38.890,127.51
38.906,144.07
38.921,155.44
38.937,161.68
38.953,163.88
38.968,164.09
38.984,164.59
39.000,167.08
39.015,171.97
39.031,178.33
39.046,184.5
39.062,188.89
39.078,190.8
39.093,190.57
39.109,189.17
39.125,187.56
39.140,186.01
39.156,184.04
39.171,180.59
39.187,174.69
39.203,165.91
39.218,154.61
39.234,141.76
39.250,128.48
39.265,115.4
39.281,102.29
39.296,88.03
39.312,70.97
39.328,49.72
39.343,23.73
39.359,-6.35
39.375,-38.81
39.390,-71.38
39.406,-101.72
39.421,-127.76
39.437,-147.77
39.453,-160.42
39.468,-164.83
39.484,-160.95
39.500,-149.69
39.515,-132.9
39.531,-113.0
39.546,-92.29
39.562,-72.45
39.578,-54.3
39.593,-38.04
39.609,-23.53
39.625,-10.7
39.640,0.49
39.656,10.16
39.671,18.62
39.687,26.51
39.703,34.59
39.718,43.55
39.734,53.87
39.750,65.85
39.765,79.57
39.781,94.92
39.796,111.35
39.812,127.68
39.828,142.09
39.843,152.39
39.859,156.48
39.875,152.95
39.890,141.45
39.906,122.76
39.921,98.72
39.937,71.99
39.953,45.71
39.968,23.14
39.984,7.02
40.000,-1.04
40.015,-1.22
40.031,4.25
40.046,11.56
40.062,16.32
40.078,15.06
40.093,6.38
40.109,-8.3
40.125,-25.08
40.140,-38.68
40.156,-44.19
40.171,-38.66
40.187,-22.31
40.203,1.43
40.218,27.01
40.234,48.61
40.250,62.0
40.265,65.86
40.281,61.78
40.296,53.02
40.312,42.66
40.328,32.03
40.343,20.47
40.359,6.3
40.375,-11.49
40.390,-32.08
40.406,-52.84
40.421,-70.51
40.437,-82.85
40.453,-89.57
40.468,-92.17
40.484,-92.88
40.500,-93.38
40.515,-94.16
40.531,-94.69
40.546,-94.1
40.562,-91.73
40.578,-87.35
40.593,-81.12
40.609,-73.59
40.625,-65.9
40.640,-59.92
40.656,-58.07
40.671,-62.51
40.687,-74.15
40.703,-92.1
40.718,-113.79
40.734,-135.91
40.750,-155.75
40.765,-171.9
40.781,-184.47
40.796,-194.17
40.812,-201.32
40.828,-205.09
40.843,-203.47
40.859,-194.17
40.875,-175.78
40.890,-148.75
40.906,-115.52
40.921,-79.83
40.937,-45.43
40.953,-14.97
40.968,10.46
40.984,31.04
41.000,47.38
41.015,59.76
41.031,67.89
41.046,71.25
41.062,69.83
41.078,64.64
41.093,57.63
41.109,51.13
41.125,46.93
41.140,45.69
41.156,46.81
41.171,48.89
41.187,50.48
41.203,50.69
41.218,49.56
41.234,47.87
41.250,46.66
41.265,46.67
41.281,47.98
41.296,50.02
41.312,51.81
41.328,52.43
41.343,51.41
41.359,48.9
41.375,45.57
41.390,42.43
41.406,40.38
41.421,39.91
41.437,40.92
41.453,42.7
41.468,44.17
41.484,44.35
41.500,42.85
41.515,40.34
41.531,38.66
41.546,40.43
41.562,48.3
41.578,64.06
41.593,87.91
41.609,118.31
41.625,152.28
41.640,186.08
41.656,216.02
41.671,239.16
41.687,253.75
41.703,259.47
41.718,257.38
41.734,249.71
41.750,239.16
41.765,228.03
41.781,217.28
41.796,205.99
41.812,191.64
41.828,171.13
41.843,142.32
41.859,105.34
41.875,62.93
41.890,19.72
41.906,-19.44
41.921,-51.15
41.937,-74.46
41.953,-90.75
41.968,-102.74
41.984,-113.12
42.000,-123.65
42.015,-134.89
42.031,-146.62
42.046,-158.35
42.062,-169.62
42.078,-180.01
42.093,-189.09
42.109,-196.31
42.125,-201.29
42.140,-204.16
42.156,-205.79
42.171,-207.55
42.187,-210.78
42.203,-216.05
42.218,-222.73
42.234,-228.9
42.250,-232.01
42.265,-229.68
42.281,-220.67
42.296,-205.31
42.312,-185.44
42.328,-163.69
42.343,-142.48
42.359,-123.28
42.375,-106.22
42.390,-90.46
42.406,-74.79
42.421,-58.32
42.437,-40.84
42.453,-22.73
42.468,-4.72
42.484,12.54
42.500,28.64
42.515,43.44
42.531,57.03
42.546,69.49
42.562,81.02
42.578,91.79
42.593,101.92
42.609,111.37
42.625,119.82
42.640,126.6
42.656,130.92
42.671,132.08
42.687,129.85
42.703,124.77
42.718,118.02
42.734,111.03
42.750,104.94
42.765,100.14
42.781,96.09
42.796,91.6
42.812,85.34
42.828,76.36
42.843,64.44
42.859,50.23
42.875,35.27
42.890,21.7
42.906,11.77
42.921,7.21
42.937,8.57
42.953,14.82
42.968,23.57
42.984,31.83
43.000,36.97
43.015,37.56
43.031,33.57
43.046,25.95
43.062,16.05
43.078,5.02
43.093,-6.35
43.109,-17.5
43.125,-28.02
43.140,-37.57
43.156,-45.98
43.171,-53.33
43.187,-59.79
43.203,-65.51
43.218,-70.37
43.234,-74.07
43.250,-76.27
43.265,-76.76
43.281,-75.6
43.296,-73.14
43.312,-69.9
43.328,-66.5
43.343,-63.58
43.359,-61.78
43.375,-61.58
43.390,-63.25
43.406,-66.69
43.421,-71.42
43.437,-76.78
43.453,-82.13
43.468,-87.03
43.484,-91.34
43.500,-95.22
43.515,-99.01
43.531,-103.17
43.546,-108.15
43.562,-114.29
43.578,-121.56
43.593,-129.45
43.609,-136.73
43.625,-141.73
43.640,-142.64
43.656,-138.14
43.671,-127.83
43.687,-112.44
43.703,-93.56
43.718,-73.13
43.734,-52.88
43.750,-34.07
43.765,-17.48
43.781,-3.61
43.796,7.15
43.812,14.4
43.828,17.92
43.843,17.82
43.859,14.67
43.875,9.35
43.890,2.85
43.906,-4.03
43.921,-10.77
43.937,-17.09
43.953,-22.91
43.968,-28.07
43.984,-32.28
44.000,-35.12
44.015,-36.15
44.031,-35.1
44.046,-32.06
44.062,-27.56
44.078,-22.53
44.093,-18.06
44.109,-15.09
44.125,-14.14
44.140,-15.08
44.156,-17.31
44.171,-20.01
44.187,-22.45
44.203,-24.33
44.218,-25.78
44.234,-27.34
44.250,-29.72
44.265,-33.63
44.281,-39.56
44.296,-47.53
44.312,-56.87
44.328,-66.12
44.343,-73.22
44.359,-75.9
44.375,-72.41
44.390,-62.02
44.406,-45.32
44.421,-24.03
44.437,-0.39
44.453,23.36
44.468,45.58
44.484,65.28
44.500,82.02
44.515,95.64
44.531,106.03
44.546,113.22
44.562,117.45
44.578,119.28
44.593,119.59
44.609,119.37
44.625,119.51
44.640,120.47
44.656,122.31
44.671,124.62
44.687,126.82
44.703,128.41
44.718,129.16
44.734,129.16
44.750,128.69
44.765,128.01
44.781,127.15
44.796,125.89
44.812,123.82
44.828,120.64
44.843,116.35
44.859,111.38
44.875,106.5
44.890,102.49
44.906,99.82
44.921,98.39
44.937,97.61
44.953,96.64
44.968,94.77
44.984,91.66
45.000,87.34
45.015,82.07
45.031,76.16
45.046,69.96
45.062,64.03
45.078,59.45
45.093,57.88
45.109,61.31
45.125,71.54
45.140,89.51
45.156,114.88
45.171,146.11
45.187,180.87
45.203,216.58
45.218,250.65
45.234,280.46
45.250,303.32
45.265,316.73
45.281,319.05
45.296,310.29
45.312,292.39
45.328,268.71
45.343,242.86
45.359,217.4
45.375,193.12
45.390,169.36
45.406,144.98
45.421,119.58
45.437,94.17
45.453,71.0
45.468,52.73
45.484,41.31
45.500,37.04
45.515,38.32
45.531,41.98
45.546,44.23
45.562,41.88
45.578,33.5
45.593,19.81
45.609,3.32
45.625,-12.82
45.640,-26.04
45.656,-35.06
45.671,-40.16
45.687,-42.72
45.703,-44.83
45.718,-48.77
45.734,-56.75
45.750,-70.52
45.765,-91.0
45.781,-117.83
45.796,-149.24
45.812,-182.27
45.828,-213.41
45.843,-239.39
45.859,-257.91
45.875,-267.98
45.890,-270.05
45.906,-265.67
45.921,-257.06
45.937,-246.55
45.953,-235.94
45.968,-226.1
45.984,-216.92
46.000,-207.58
46.015,-197.03
46.031,-184.48
46.046,-169.61
46.062,-152.57
46.078,-133.87
46.093,-114.3
46.109,-94.7
46.125,-75.92
46.140,-58.62
46.156,-43.09
46.171,-29.21
46.187,-16.48
46.203,-4.28
46.218,7.81
46.234,19.87
46.250,31.62
46.265,42.53
46.281,52.17
46.296,60.27
46.312,66.8
46.328,71.87
46.343,75.53
46.359,77.72
46.375,78.31
46.390,77.28
46.406,74.77
46.421,71.09
46.437,66.61
46.453,61.51
46.468,55.7
46.484,48.68
46.500,39.82
46.515,28.52
46.531,14.52
46.546,-1.95
46.562,-20.08
46.578,-38.45
46.593,-55.12
46.609,-67.91
46.625,-74.81
46.640,-74.58
46.656,-67.14
46.671,-53.75
46.687,-36.67
46.703,-18.51
46.718,-1.55
46.734,12.82
46.750,24.16
46.765,32.68
46.781,38.9
46.796,43.23
46.812,45.86
46.828,46.85
46.843,46.24
46.859,44.19
46.875,41.04
46.890,37.24
46.906,33.2
46.921,29.24
46.937,25.41
46.953,21.6
46.968,17.64
46.984,13.44
47.000,9.19
47.015,5.29
47.031,2.17
47.046,0.05
47.062,-1.28
47.078,-2.46
47.093,-4.27
47.109,-7.36
47.125,-11.86
47.140,-17.38
47.156,-23.15
47.171,-28.43
47.187,-32.85
47.203,-36.62
47.218,-40.39
47.234,-44.98
47.250,-51.06
47.265,-58.88
47.281,-68.27
47.296,-78.6
47.312,-88.9
47.328,-97.79
47.343,-103.52
47.359,-104.24
47.375,-98.32
47.390,-84.89
47.406,-64.28
47.421,-37.95
47.437,-8.1
47.453,22.94
47.468,53.26
47.484,81.6
47.500,107.13
47.515,129.14
47.531,146.9
47.546,159.74
47.562,167.51
47.578,170.97
47.593,171.97
47.609,173.07
47.625,176.71
47.640,184.18
47.656,194.79
47.671,205.64
47.687,212.38
47.703,210.74
47.718,198.22
47.734,175.23
47.750,145.11
47.765,112.93
47.781,83.76
47.796,61.08
47.812,45.93
47.828,37.0
47.843,31.41
47.859,25.78
47.875,17.08
47.890,3.32
47.906,-16.11
47.921,-40.37
47.937,-67.4
47.953,-94.53
47.968,-119.18
47.984,-139.69
48.000,-155.5
48.015,-167.17
48.031,-175.94
48.046,-183.15
48.062,-189.87
48.078,-196.7
48.093,-203.73
48.109,-210.58
48.125,-216.58
48.140,-221.0
48.156,-223.12
48.171,-222.49
48.187,-218.96
48.203,-212.7
48.218,-204.23
48.234,-194.3
48.250,-183.7
48.265,-173.07
48.281,-162.71
48.296,-152.44
48.312,-141.64
48.328,-129.44
48.343,-115.07
48.359,-98.23
48.375,-79.35
48.390,-59.67
48.406,-41.01
48.421,-25.31
48.437,-14.03
48.453,-7.71
48.468,-5.82
48.484,-7.0
48.500,-9.63
48.515,-12.41
48.531,-14.76
48.546,-16.81
48.562,-19.05
48.578,-21.81
48.593,-24.91
48.609,-27.6
48.625,-28.76
48.640,-27.36
48.656,-22.8
48.671,-15.1
48.687,-4.95
48.703,6.59
48.718,18.24
48.734,28.64
48.750,36.56
48.765,41.14
48.781,42.3
48.796,41.2
48.812,40.15
48.828,42.15
48.843,49.84
48.859,64.47
48.875,85.16
48.890,109.21
48.906,133.08
48.921,153.62
48.937,169.05
48.953,179.14
48.968,184.68
48.984,186.63
49.000,185.4
49.015,180.5
49.031,170.74
49.046,154.73
49.062,131.46
49.078,100.81
49.093,63.78
49.109,22.45
49.125,-20.23
49.140,-60.81
49.156,-95.68
49.171,-121.55
49.187,-135.99
49.203,-138.1
49.218,-128.79
49.234,-110.73
49.250,-87.45
49.265,-62.2
49.281,-37.03
49.296,-12.45
49.312,11.83
49.328,35.99
49.343,59.16
49.359,79.65
49.375,95.69
49.390,106.4
49.406,112.18
49.421,114.28
49.437,113.78
49.453,110.92
49.468,105.05
49.484,95.46
49.500,82.1
49.515,66.06
49.531,49.15
49.546,33.13
49.562,19.06
49.578,7.06
49.593,-3.42
49.609,-13.08
49.625,-22.43
49.640,-31.76
49.656,-41.31
49.671,-51.29
49.687,-61.81
49.703,-72.65
49.718,-83.23
49.734,-92.81
49.750,-100.81
49.765,-107.15
49.781,-112.28
49.796,-117.01
49.812,-122.1
49.828,-127.87
49.843,-134.05
49.859,-139.9
49.875,-144.5
49.890,-147.18
49.906,-147.86
49.921,-147.08
49.937,-145.79
49.953,-144.96
49.968,-145.01
49.984,-145.73
50.000,-146.26
50.015,-145.58
50.031,-142.89
50.046,-138.07
50.062,-131.59
50.078,-124.46
50.093,-117.77
50.109,-112.48
50.125,-109.04
50.140,-107.34
50.156,-106.63
50.171,-105.62
50.187,-102.73
50.203,-96.38
50.218,-85.44
50.234,-69.58
50.250,-49.49
50.265,-26.79
50.281,-3.68
50.296,17.63
50.312,35.53
50.328,49.45
50.343,59.81
50.359,67.88
50.375,75.04
50.390,82.38
50.406,90.26
50.421,98.27
50.437,105.52
50.453,111.04
50.468,114.21
50.484,115.0
50.500,114.03
50.515,112.23
50.531,110.53
50.546,109.47
50.562,108.97
50.578,108.39
50.593,106.78
50.609,103.28
50.625,97.38
50.640,89.11
50.656,79.0
50.671,67.9
50.687,56.62
50.703,45.7
50.718,35.16
50.734,24.52
50.750,13.0
50.765,-0.02
50.781,-14.59
50.796,-29.98
50.812,-44.8
50.828,-57.39
50.843,-66.39
50.859,-71.09
50.875,-71.48
50.890,-68.1
50.906,-61.71
50.921,-53.16
50.937,-43.25
50.953,-32.78
50.968,-22.62
50.984,-13.6
51.000,-6.36
51.015,-1.24
51.031,1.8
51.046,3.21
51.062,3.63
51.078,3.64
51.093,3.64
51.109,3.74
51.125,3.81
51.140,3.61
51.156,2.9
51.171,1.51
51.187,-0.58
51.203,-3.27
51.218,-6.37
51.234,-9.61
51.250,-12.84
51.265,-15.92
51.281,-18.79
51.296,-21.5
51.312,-24.14
51.328,-26.89
51.343,-30.03
51.359,-33.93
51.375,-39.08
51.390,-45.92
51.406,-54.63
51.421,-64.87
51.437,-75.6
51.453,-85.11
51.468,-91.37
51.484,-92.52
51.500,-87.41
51.515,-75.98
51.531,-59.28
51.546,-39.19
51.562,-17.85
51.578,2.8
51.593,21.47
51.609,37.61
51.625,51.2
51.640,62.5
51.656,71.77
51.671,79.18
51.687,84.83
51.703,88.9
51.718,91.79
51.734,94.06
51.750,96.29
51.765,98.87
51.781,101.93
51.796,105.37
51.812,109.02
51.828,112.77
51.843,116.58
51.859,120.44
51.875,124.19
51.890,127.54
51.906,130.15
51.921,131.78
51.937,132.43
51.953,132.33
51.968,131.86
51.984,131.35
52.000,130.96
52.015,130.52
52.031,129.68
52.046,127.97
52.062,125.07
52.078,120.99
52.093,116.17
52.109,111.54
52.125,108.27
52.140,107.41
52.156,109.37
52.171,113.66
52.187,118.81
52.203,122.73
52.218,123.32
52.234,119.15
52.250,109.98
52.265,96.76
52.281,81.32
52.296,65.73
52.312,51.67
52.328,40.08
52.343,31.1
52.359,24.38
52.375,19.43
52.390,15.86
52.406,13.4
52.421,11.82
52.437,10.8
52.453,9.77
52.468,8.18
52.484,5.6
52.500,1.91
52.515,-2.71
52.531,-7.92
52.546,-13.45
52.562,-19.29
52.578,-25.66
52.593,-32.9
52.609,-41.26
52.625,-50.73
52.640,-60.86
52.656,-70.74
52.671,-79.12
52.687,-84.64
52.703,-86.17
52.718,-83.04
52.734,-75.33
52.750,-63.78
52.765,-49.75
52.781,-34.99
52.796,-21.46
52.812,-11.24
52.828,-6.15
52.843,-7.38
52.859,-14.97
52.875,-27.47
52.890,-42.09
52.906,-55.3
52.921,-63.77
52.937,-65.17
52.953,-58.84
52.968,-45.8
52.984,-28.56
53.000,-10.58
53.015,4.54
53.031,13.7
53.046,15.05
53.062,8.42
53.078,-4.67
53.093,-21.54
53.109,-39.12
53.125,-54.8
53.140,-66.87
53.156,-74.55
53.171,-77.78
53.187,-76.83
53.203,-72.23
53.218,-64.69
53.234,-55.2
53.250,-44.93
53.265,-35.12
53.281,-26.79
53.296,-20.61
53.312,-16.82
53.328,-15.22
53.343,-15.34
53.359,-16.55
53.375,-18.31
53.390,-20.24
53.406,-22.22
53.421,-24.35
53.437,-26.77
53.453,-29.56
53.468,-32.62
53.484,-35.65
53.500,-38.29
53.515,-40.16
53.531,-41.15
53.546,-41.37
53.562,-41.26
53.578,-41.45
53.593,-42.57
53.609,-45.16
53.625,-49.45
53.640,-55.17
53.656,-61.56
53.671,-67.31
53.687,-70.82
53.703,-70.52
53.718,-65.27
53.734,-54.67
53.750,-39.28
53.765,-20.42
53.781,0.22
53.796,21.07
53.812,41.09
53.828,59.8
53.843,77.12
53.859,93.13
53.875,107.75
53.890,120.83
53.906,132.24
53.921,142.05
53.937,150.51
53.953,158.04
53.968,164.96
53.984,171.45
54.000,177.49
54.015,183.1
54.031,188.4
54.046,193.52
54.062,198.47
54.078,202.75
54.093,205.3
54.109,204.7
54.125,199.62
54.140,189.4
54.156,174.36
54.171,155.78
54.187,135.58
54.203,115.67
54.218,97.43
54.234,81.47
54.250,67.74
54.265,55.75
54.281,44.94
54.296,34.82
54.312,24.99
54.328,15.03
54.343,4.52
54.359,-6.81
54.375,-19.01
54.390,-31.8
54.406,-44.79
54.421,-57.76
54.437,-70.96
54.453,-85.09
54.468,-100.9
54.484,-118.53
54.500,-136.98
54.515,-153.96
54.531,-166.27
54.546,-170.61
54.562,-164.48
54.578,-146.97
54.593,-119.12
54.609,-83.91
54.625,-45.68
54.640,-9.33
54.656,20.79
54.671,41.72
54.687,52.58
54.703,54.47
54.718,49.97
54.734,42.16
54.750,33.69
54.765,26.16
54.781,20.08
54.796,15.11
54.812,10.65
54.828,6.26
54.843,1.83
54.859,-2.39
54.875,-6.01
54.890,-8.7
54.906,-10.31
54.921,-11.01
54.937,-11.11
54.953,-10.99
54.968,-10.86
54.984,-10.68
55.000,-10.12
55.015,-8.67
55.031,-5.89
55.046,-1.67
55.062,3.61
55.078,9.09
55.093,13.6
55.109,16.07
55.125,15.88
55.140,13.19
55.156,9.06
55.171,5.12
55.187,3.09
55.203,4.11
55.218,8.15
55.234,13.84
55.250,18.73
55.265,20.06
55.281,15.61
55.296,4.54
55.312,-12.38
55.328,-32.82
55.343,-53.46
55.359,-70.78
55.375,-81.94
55.390,-85.34
55.406,-80.98
55.421,-70.27
55.437,-55.49
55.453,-38.94
55.468,-22.34
55.484,-6.49
55.500,8.52
55.515,22.81
55.531,36.28
55.546,48.5
55.562,58.95
55.578,67.38
55.593,74.1
55.609,79.91
55.625,85.76
55.640,92.35
55.656,99.76
55.671,107.32
55.687,113.64
55.703,116.92
55.718,115.57
55.734,108.98
55.750,97.9
55.765,84.4
55.781,71.08
55.796,59.8
55.812,50.88
55.828,42.96
55.843,33.89
55.859,22.13
55.875,7.62
55.890,-8.37
55.906,-24.13
55.921,-38.74
55.937,-52.55
55.953,-66.55
55.968,-81.18
55.984,-95.14
56.000,-105.29
56.015,-107.76
56.031,-99.88
56.046,-81.95
56.062,-57.75
56.078,-33.62
56.093,-16.27
56.109,-10.34
56.125,-16.84
56.140,-33.09
56.156,-53.98
56.171,-73.93
56.187,-88.63
56.203,-96.03
56.218,-96.28
56.234,-91.02
56.250,-82.51
56.265,-72.93
56.281,-64.07
56.296,-57.16
56.312,-52.84
56.328,-51.15
56.343,-51.6
56.359,-53.34
56.375,-55.35
56.390,-56.56
56.406,-55.99
56.421,-52.95
56.437,-47.29
56.453,-39.57
56.468,-31.1
56.484,-23.68
56.500,-19.03
56.515,-18.2
56.531,-21.31
56.546,-27.4
56.562,-34.86
56.578,-41.89
56.593,-47.14
56.609,-50.05
56.625,-50.84
56.640,-50.29
56.656,-49.27
56.671,-48.4
56.687,-47.7
56.703,-46.66
56.718,-44.35
56.734,-39.84
56.750,-32.59
56.765,-22.62
56.781,-10.5
56.796,2.86
56.812,16.43
56.828,29.24
56.843,40.22
56.859,48.15
56.875,51.6
56.890,49.27
56.906,40.53
56.921,25.7
56.937,6.08
56.953,-16.59
56.968,-40.8
56.984,-65.64
57.000,-90.78
57.015,-115.91
57.031,-140.15
57.046,-161.94
57.062,-179.35
57.078,-190.76
57.093,-195.48
57.109,-193.81
57.125,-186.85
57.140,-175.97
57.156,-162.39
57.171,-147.13
57.187,-131.05
57.203,-115.02
57.218,-99.87
57.234,-86.19
57.250,-74.1
57.265,-63.03
57.281,-51.74
57.296,-38.73
57.312,-22.9
57.328,-4.24
57.343,15.8
57.359,34.47
57.375,48.55
57.390,55.39
57.406,53.93
57.421,45.04
57.437,31.15
57.453,15.39
57.468,0.6
57.484,-11.39
57.500,-19.9
57.515,-25.09
57.531,-27.55
57.546,-27.82
57.562,-26.43
57.578,-23.88
57.593,-20.83
57.609,-18.09
57.625,-16.33
57.640,-15.86
57.656,-16.33
57.671,-16.96
57.687,-16.86
57.703,-15.62
57.718,-13.59
57.734,-11.87
57.750,-11.97
57.765,-15.1
57.781,-21.65
57.796,-30.79
57.812,-40.56
57.828,-48.3
57.843,-51.29
57.859,-47.43
57.875,-35.94
57.890,-17.66
57.906,5.12
57.921,29.17
57.937,51.08
57.953,68.21
57.968,79.13
57.984,83.68
58.000,82.71
58.015,77.55
58.031,69.58
58.046,60.06
58.062,50.14
58.078,40.93
58.093,33.51
58.109,28.84
58.125,27.61
58.140,30.08
58.156,36.07
58.171,44.9
58.187,55.55
58.203,66.82
58.218,77.41
58.234,86.29
58.250,92.78
58.265,96.66
58.281,98.05
58.296,97.13
58.312,93.97
58.328,88.37
58.343,80.04
58.359,68.89
58.375,55.3
58.390,40.17
58.406,24.76
58.421,10.36
58.437,-2.12
58.453,-12.31
58.468,-20.36
58.484,-26.71
58.500,-31.97
58.515,-36.68
58.531,-41.33
58.546,-46.33
58.562,-51.77
58.578,-57.32
58.593,-62.05
58.609,-64.56
58.625,-63.38
58.640,-57.39
58.656,-46.35
58.671,-31.06
58.687,-13.12
58.703,5.56
58.718,23.25
58.734,38.84
58.750,51.94
58.765,62.63
58.781,71.21
58.796,77.9
58.812,82.76
58.828,85.75
58.843,86.88
58.859,86.32
58.875,84.47
58.890,81.96
58.906,79.43
58.921,77.59
58.937,77.01
58.953,78.12
58.968,81.0
58.984,85.36
59.000,90.44
59.015,95.2
59.031,98.62
59.046,99.98
59.062,99.12
59.078,96.34
59.093,92.14
59.109,86.87
59.125,80.54
59.140,72.89
59.156,63.69
59.171,52.98
59.187,41.14
59.203,28.67
59.218,15.87
59.234,2.63
59.250,-11.49
59.265,-26.93
59.281,-43.88
59.296,-62.08
59.312,-80.98
59.328,-100.01
59.343,-118.55
59.359,-135.83
59.375,-150.49
59.390,-160.35
59.406,-162.69
59.421,-155.13
59.437,-136.8
59.453,-109.18
59.468,-76.13
59.484,-42.87
59.500,-14.36
59.515,6.35
59.531,18.82
59.546,24.93
59.562,27.73
59.578,29.96
59.593,33.14
59.609,37.23
59.625,41.06
59.640,43.06
59.656,41.83
59.671,36.54
59.687,27.08
59.703,14.06
59.718,-1.35
59.734,-17.45
59.750,-32.29
59.765,-44.0
59.781,-51.18
59.796,-53.38
59.812,-51.33
59.828,-46.87
59.843,-42.44
59.859,-40.21
59.875,-41.23
59.890,-44.92
59.906,-49.16
59.921,-51.09
59.937,-48.27
59.953,-39.82
59.968,-26.91
59.984,-12.52
