timestamp,value
00.000,12.64
00.015,9.77
00.031,5.64
00.046,0.44
00.062,-5.34
00.078,-11.12
00.093,-16.38
00.109,-20.96
00.125,-25.01
00.140,-28.96
00.156,-33.32
00.171,-38.37
00.187,-44.02
00.203,-49.68
00.218,-54.42
00.234,-57.26
00.250,-57.43
00.265,-54.6
00.281,-48.95
00.296,-41.07
00.312,-31.75
00.328,-21.81
00.343,-11.92
00.359,-2.62
00.375,5.66
00.390,12.6
00.406,17.94
00.421,21.55
00.437,23.46
00.453,23.92
00.468,23.36
00.484,22.29
00.500,21.1
00.515,19.99
00.531,18.95
00.546,17.85
00.562,16.53
00.578,14.84
00.593,12.75
00.609,10.32
00.625,7.66
00.640,4.97
00.656,2.45
00.671,0.24
00.687,-1.7
00.703,-3.64
00.718,-6.11
00.734,-9.68
00.750,-14.83
00.765,-21.64
00.781,-29.76
00.796,-38.42
00.812,-46.5
00.828,-52.86
00.843,-56.44
00.859,-56.64
00.875,-53.3
00.890,-46.78
00.906,-37.83
00.921,-27.35
00.937,-16.26
00.953,-5.26
00.968,5.15
00.984,14.64
01.000,22.9
01.015,29.6
01.031,34.45
01.046,37.27
01.062,38.19
01.078,37.63
01.093,36.16
01.109,34.36
01.125,32.63
01.140,31.1
01.156,29.67
01.171,28.12
01.187,26.19
01.203,23.8
01.218,20.94
01.234,17.79
01.250,14.49
01.265,11.3
01.281,8.34
01.296,5.51
01.312,2.53
01.328,-1.16
01.343,-6.05
01.359,-12.44
01.375,-20.18
01.390,-28.64
01.406,-36.86
01.421,-43.73
01.437,-48.33
01.453,-49.94
01.468,-48.33
01.484,-43.49
01.500,-35.78
01.515,-25.77
01.531,-14.23
01.546,-2.1
01.562,9.72
01.578,20.47
01.593,29.7
01.609,37.19
01.625,42.95
01.640,47.06
01.656,49.58
01.671,50.62
01.687,50.4
01.703,49.24
01.718,47.57
01.734,45.7
01.750,43.62
01.765,41.09
01.781,37.78
01.796,33.49
01.812,28.42
01.828,23.04
01.843,17.94
01.859,13.44
01.875,9.45
01.890,5.48
01.906,0.89
01.921,-4.81
01.937,-11.78
01.953,-19.75
01.968,-28.1
01.984,-35.96
02.000,-42.31
02.015,-46.24
02.031,-47.04
02.046,-44.41
02.062,-38.58
02.078,-30.19
02.093,-20.08
02.109,-9.12
02.125,2.02
02.140,12.88
02.156,23.14
02.171,32.47
02.187,40.54
02.203,47.0
02.218,51.66
02.234,54.47
02.250,55.58
02.265,55.26
02.281,53.85
02.296,51.7
02.312,49.05
02.328,46.07
02.343,42.8
02.359,39.23
02.375,35.33
02.390,31.1
02.406,26.63
02.421,22.06
02.437,17.5
02.453,12.95
02.468,8.35
02.484,3.46
02.500,-1.99
02.515,-8.17
02.531,-15.07
02.546,-22.36
02.562,-29.35
02.578,-35.09
02.593,-38.62
02.609,-39.14
02.625,-36.33
02.640,-30.46
02.656,-22.18
02.671,-12.42
02.687,-2.02
02.703,8.44
02.718,18.66
02.734,28.36
02.750,37.16
02.765,44.47
02.781,49.62
02.796,52.23
02.812,52.35
02.828,50.57
02.843,47.8
02.859,44.9
02.875,42.28
02.890,39.88
02.906,37.29
02.921,34.09
02.937,30.16
02.953,25.66
02.968,20.99
02.984,16.45
03.000,12.12
03.015,7.84
03.031,3.34
03.046,-1.65
03.062,-7.3
03.078,-13.62
03.093,-20.46
03.109,-27.47
03.125,-33.95
03.140,-38.99
03.156,-41.56
03.171,-40.87
03.187,-36.64
03.203,-29.28
03.218,-19.7
03.234,-9.05
03.250,1.78
03.265,12.23
03.281,22.11
03.296,31.36
03.312,39.77
03.328,46.92
03.343,52.26
03.359,55.44
03.375,56.44
03.390,55.7
03.406,53.91
03.421,51.69
03.437,49.48
03.453,47.3
03.468,44.93
03.484,42.06
03.500,38.52
03.515,34.37
03.531,29.86
03.546,25.29
03.562,20.88
03.578,16.67
03.593,12.48
03.609,7.96
03.625,2.76
03.640,-3.35
03.656,-10.41
03.671,-18.22
03.687,-26.33
03.703,-34.13
03.718,-40.84
03.734,-45.66
03.750,-47.8
03.765,-46.67
03.781,-42.07
03.796,-34.29
03.812,-24.12
03.828,-12.65
03.843,-1.02
03.859,9.95
03.875,19.85
03.890,28.55
03.906,36.02
03.921,42.09
03.937,46.48
03.953,48.85
03.968,49.13
03.984,47.57
04.000,44.76
04.015,41.43
04.031,38.23
04.046,35.46
04.062,33.06
04.078,30.76
04.093,28.13
04.109,24.83
04.125,20.72
04.140,15.81
04.156,10.27
04.171,4.4
04.187,-1.49
04.203,-7.24
04.218,-12.76
04.234,-18.12
04.250,-23.51
04.265,-29.1
04.281,-35.05
04.296,-41.4
04.312,-47.93
04.328,-54.13
04.343,-59.25
04.359,-62.32
04.375,-62.46
04.390,-59.17
04.406,-52.46
04.421,-42.97
04.437,-31.69
04.453,-19.61
04.468,-7.55
04.484,4.01
04.500,14.89
04.515,24.9
04.531,33.67
04.546,40.71
04.562,45.49
04.578,47.81
04.593,47.86
04.609,46.23
04.625,43.74
04.640,41.11
04.656,38.67
04.671,36.37
04.687,33.88
04.703,30.82
04.718,27.04
04.734,22.65
04.750,17.93
04.765,13.18
04.781,8.61
04.796,4.19
04.812,-0.17
04.828,-4.57
04.843,-9.03
04.859,-13.62
04.875,-18.46
04.890,-23.71
04.906,-29.47
04.921,-35.62
04.937,-41.65
04.953,-46.74
04.968,-49.95
04.984,-50.52
05.000,-48.17
05.015,-43.1
05.031,-35.83
05.046,-26.96
05.062,-17.07
05.078,-6.57
05.093,4.09
05.109,14.5
05.125,24.11
05.140,32.45
05.156,39.16
05.171,44.03
05.187,47.07
05.203,48.37
05.218,48.15
05.234,46.73
05.250,44.47
05.265,41.7
05.281,38.75
05.296,35.79
05.312,32.91
05.328,30.09
05.343,27.29
05.359,24.4
05.375,21.35
05.390,18.01
05.406,14.29
05.421,10.14
05.437,5.64
05.453,0.91
05.468,-3.88
05.484,-8.62
05.500,-13.31
05.515,-18.11
05.531,-23.23
05.546,-28.88
05.562,-35.22
05.578,-42.12
05.593,-49.16
05.609,-55.61
05.625,-60.46
05.640,-62.75
05.656,-61.8
05.671,-57.39
05.687,-49.86
05.703,-39.97
05.718,-28.64
05.734,-16.76
05.750,-4.96
05.765,6.22
05.781,16.41
05.796,25.23
05.812,32.3
05.828,37.36
05.843,40.3
05.859,41.32
05.875,40.83
05.890,39.46
05.906,37.81
05.921,36.3
05.937,35.05
05.953,33.81
05.968,32.18
05.984,29.81
06.000,26.6
06.015,22.76
06.031,18.66
06.046,14.69
06.062,11.02
06.078,7.57
06.093,4.07
06.109,0.37
06.125,-3.53
06.140,-7.36
06.156,-10.91
06.171,-14.07
06.187,-17.01
06.203,-20.16
06.218,-23.95
06.234,-28.73
06.250,-34.46
06.265,-40.69
06.281,-46.58
06.296,-51.06
06.312,-53.1
06.328,-51.98
06.343,-47.59
06.359,-40.38
06.375,-31.24
06.390,-21.11
06.406,-10.73
06.421,-0.45
06.437,9.62
06.453,19.4
06.468,28.63
06.484,36.76
06.500,43.22
06.515,47.67
06.531,50.16
06.546,51.16
06.562,51.29
06.578,51.09
06.593,50.88
06.609,50.68
06.625,50.35
06.640,49.77
06.656,48.83
06.671,47.6
06.687,46.26
06.703,45.02
06.718,44.09
06.734,43.61
06.750,43.57
06.765,43.83
06.781,44.27
06.796,44.75
06.812,45.15
06.828,45.46
06.843,45.62
06.859,45.56
06.875,45.21
06.890,44.6
06.906,43.76
06.921,42.83
06.937,41.74
06.953,40.23
06.968,37.91
06.984,34.37
07.000,29.46
07.015,23.34
07.031,16.43
07.046,9.24
07.062,2.26
07.078,-4.19
07.093,-9.81
07.109,-14.32
07.125,-17.46
07.140,-19.06
07.156,-19.34
07.171,-18.81
07.187,-18.16
07.203,-17.84
07.218,-17.83
07.234,-17.64
07.250,-16.56
07.265,-14.13
07.281,-10.44
07.296,-6.18
07.312,-2.41
07.328,-0.09
07.343,0.18
07.359,-1.75
07.375,-5.7
07.390,-11.28
07.406,-18.01
07.421,-25.3
07.437,-32.45
07.453,-38.7
07.468,-43.51
07.484,-46.75
07.500,-48.88
07.515,-50.82
07.531,-53.61
07.546,-57.99
07.562,-64.0
07.578,-70.85
07.593,-77.09
07.609,-81.03
07.625,-81.29
07.640,-77.13
07.656,-68.69
07.671,-56.86
07.687,-43.03
07.703,-28.68
07.718,-15.12
07.734,-3.21
07.750,6.63
07.765,14.3
07.781,19.8
07.796,23.26
07.812,24.82
07.828,24.67
07.843,22.96
07.859,19.63
07.875,14.24
07.890,5.96
07.906,-6.18
07.921,-22.93
07.937,-44.43
07.953,-69.98
07.968,-97.97
07.984,-126.2
08.000,-152.21
08.015,-173.76
08.031,-189.15
08.046,-197.47
08.062,-198.77
08.078,-193.99
08.093,-184.7
08.109,-172.78
08.125,-159.99
08.140,-147.9
08.156,-137.85
08.171,-130.99
08.187,-128.06
08.203,-129.08
08.218,-133.01
08.234,-137.82
08.250,-140.76
08.265,-139.07
08.281,-130.86
08.296,-115.52
08.312,-93.88
08.328,-67.77
08.343,-39.47
08.359,-11.05
08.375,15.89
08.390,40.28
08.406,61.4
08.421,78.69
08.437,91.83
08.453,100.84
08.468,106.23
08.484,109.04
08.500,110.51
08.515,111.7
08.531,113.01
08.546,114.14
08.562,114.3
08.578,112.81
08.593,109.59
08.609,105.23
08.625,100.73
08.640,96.93
08.656,94.1
08.671,91.89
08.687,89.69
08.703,87.17
08.718,84.52
08.734,82.38
08.750,81.38
08.765,81.69
08.781,82.82
08.796,83.68
08.812,83.22
08.828,80.9
08.843,77.08
08.859,72.81
08.875,69.34
08.890,67.51
08.906,67.37
08.921,68.27
08.937,69.2
08.953,69.4
08.968,68.63
08.984,67.24
09.000,65.75
09.015,64.44
09.031,63.0
09.046,60.5
09.062,55.86
09.078,48.31
09.093,37.91
09.109,25.62
09.125,13.14
09.140,2.16
09.156,-6.12
09.171,-11.66
09.187,-15.57
09.203,-19.68
09.218,-25.84
09.234,-35.12
09.250,-47.16
09.265,-60.3
09.281,-72.53
09.296,-82.33
09.312,-89.75
09.328,-96.51
09.343,-105.1
09.359,-117.63
09.375,-134.84
09.390,-155.74
09.406,-177.95
09.421,-198.33
09.437,-213.58
09.453,-220.56
09.468,-216.78
09.484,-201.32
09.500,-175.79
09.515,-144.55
09.531,-113.66
09.546,-88.48
09.562,-71.26
09.578,-59.77
09.593,-48.4
09.609,-31.13
09.625,-4.99
09.640,28.06
09.656,61.8
09.671,88.72
09.687,103.41
09.703,104.84
09.718,96.24
09.734,83.05
09.750,70.29
09.765,60.91
09.781,55.15
09.796,51.93
09.812,50.08
09.828,49.22
09.843,49.67
09.859,51.79
09.875,55.16
09.890,58.38
09.906,59.57
09.921,57.26
09.937,51.01
09.953,41.48
09.968,30.13
09.984,18.53
10.000,7.79
10.015,-1.75
10.031,-10.4
10.046,-18.7
10.062,-27.0
10.078,-34.99
10.093,-41.67
10.109,-45.61
10.125,-45.43
10.140,-40.47
10.156,-31.11
10.171,-18.76
10.187,-5.34
10.203,7.36
10.218,18.21
10.234,26.84
10.250,33.42
10.265,38.38
10.281,41.9
10.296,43.95
10.312,44.34
10.328,42.96
10.343,39.98
10.359,35.84
10.375,31.11
10.390,26.37
10.406,22.1
10.421,18.56
10.437,15.85
10.453,13.88
10.468,12.41
10.484,11.09
10.500,9.51
10.515,7.39
10.531,4.58
10.546,1.18
10.562,-2.74
10.578,-7.17
10.593,-12.24
10.609,-18.08
10.625,-24.57
10.640,-31.22
10.656,-37.08
10.671,-41.0
10.687,-41.96
10.703,-39.43
10.718,-33.46
10.734,-24.64
10.750,-13.91
10.765,-2.22
10.781,9.53
10.796,20.68
10.812,30.65
10.828,38.97
10.843,45.29
10.859,49.41
10.875,51.37
10.890,51.5
10.906,50.32
10.921,48.31
10.937,45.82
10.953,42.9
10.968,39.46
10.984,35.4
11.000,30.82
11.015,26.04
11.031,21.43
11.046,17.34
11.062,13.78
11.078,10.61
11.093,7.49
11.109,4.13
11.125,0.3
11.140,-4.17
11.156,-9.41
11.171,-15.46
11.187,-22.18
11.203,-29.16
11.218,-35.54
11.234,-40.27
11.250,-42.29
11.265,-40.94
11.281,-36.14
11.296,-28.48
11.312,-18.92
11.328,-8.51
11.343,1.89
11.359,11.81
11.375,20.96
11.390,29.1
11.406,35.91
11.421,41.05
11.437,44.22
11.453,45.45
11.468,45.04
11.484,43.52
11.500,41.44
11.515,39.13
11.531,36.6
11.546,33.73
11.562,30.32
11.578,26.36
11.593,22.03
11.609,17.66
11.625,13.59
11.640,10.02
11.656,6.95
11.671,4.11
11.687,1.2
11.703,-2.13
11.718,-6.09
11.734,-10.74
11.750,-15.96
11.765,-21.47
11.781,-26.75
11.796,-31.08
11.812,-33.64
11.828,-33.56
11.843,-30.37
11.859,-24.08
11.875,-15.29
11.890,-5.03
11.906,5.55
11.921,15.58
11.937,24.51
11.953,32.17
11.968,38.5
11.984,43.36
12.000,46.48
12.015,47.67
12.031,46.92
12.046,44.55
12.062,41.16
12.078,37.39
12.093,33.7
12.109,30.31
12.125,27.22
12.140,24.28
12.156,21.41
12.171,18.44
12.187,15.27
12.203,11.78
12.218,7.92
12.234,3.71
12.250,-0.75
12.265,-5.33
12.281,-9.98
12.296,-14.71
12.312,-19.65
12.328,-24.9
12.343,-30.44
12.359,-36.07
12.375,-41.37
12.390,-45.69
12.406,-48.29
12.421,-48.48
12.437,-45.88
12.453,-40.51
12.468,-32.85
12.484,-23.69
12.500,-13.84
12.515,-4.0
12.531,5.39
12.546,14.05
12.562,21.7
12.578,28.1
12.593,32.9
12.609,35.84
12.625,36.75
12.640,35.79
12.656,33.29
12.671,29.8
12.687,26.0
12.703,22.47
12.718,19.61
12.734,17.55
12.750,16.18
12.765,15.14
12.781,14.14
12.796,12.81
12.812,10.9
12.828,8.29
12.843,4.9
12.859,0.83
12.875,-3.69
12.890,-8.31
12.906,-12.69
12.921,-16.67
12.937,-20.36
12.953,-24.08
12.968,-28.04
12.984,-32.32
13.000,-36.52
13.015,-39.96
13.031,-41.75
13.046,-41.14
13.062,-37.66
13.078,-31.36
13.093,-22.76
13.109,-12.71
13.125,-2.27
13.140,7.64
13.156,16.37
13.171,23.62
13.187,29.38
13.203,33.77
13.218,36.88
13.234,38.67
13.250,39.11
13.265,38.19
13.281,36.07
13.296,33.14
13.312,29.79
13.328,26.47
13.343,23.48
13.359,20.97
13.375,18.91
13.390,17.22
13.406,15.69
13.421,14.13
13.437,12.36
13.453,10.18
13.468,7.48
13.484,4.2
13.500,0.37
13.515,-3.87
13.531,-8.23
13.546,-12.44
13.562,-16.25
13.578,-19.68
13.593,-22.97
13.609,-26.53
13.625,-30.65
13.640,-35.34
13.656,-40.05
13.671,-43.84
13.687,-45.67
13.703,-44.7
13.718,-40.72
13.734,-34.14
13.750,-25.82
13.765,-16.63
13.781,-7.28
13.796,1.87
13.812,10.67
13.828,18.86
13.843,26.17
13.859,32.15
13.875,36.41
13.890,38.82
13.906,39.56
13.921,39.04
13.937,37.77
13.953,36.17
13.968,34.4
13.984,32.44
14.000,30.13
14.015,27.39
14.031,24.25
14.046,20.98
14.062,17.96
14.078,15.59
14.093,14.06
14.109,13.17
14.125,12.49
14.140,11.43
14.156,9.57
14.171,6.73
14.187,3.09
14.203,-1.04
14.218,-5.26
14.234,-9.26
14.250,-12.97
14.265,-16.35
14.281,-19.5
14.296,-22.55
14.312,-25.68
14.328,-29.07
14.343,-32.87
14.359,-36.97
14.375,-40.99
14.390,-44.31
14.406,-46.16
14.421,-45.85
14.437,-43.04
14.453,-37.74
14.468,-30.37
14.484,-21.56
14.500,-12.0
14.515,-2.35
14.531,6.78
14.546,14.85
14.562,21.38
14.578,26.06
14.593,28.8
14.609,29.78
14.625,29.4
14.640,28.19
14.656,26.7
14.671,25.38
14.687,24.58
14.703,24.39
14.718,24.77
14.734,25.5
14.750,26.19
14.765,26.43
14.781,25.91
14.796,24.52
14.812,22.36
14.828,19.68
14.843,16.75
14.859,13.79
14.875,10.97
14.890,8.35
14.906,5.94
14.921,3.74
14.937,1.7
14.953,-0.31
14.968,-2.5
14.984,-5.08
15.000,-8.23
15.015,-12.01
15.031,-16.27
15.046,-20.75
15.062,-25.12
15.078,-29.18
15.093,-32.85
15.109,-36.23
15.125,-39.46
15.140,-42.57
15.156,-45.41
15.171,-47.49
15.187,-48.23
15.203,-46.97
15.218,-43.33
15.234,-37.27
15.250,-29.19
15.265,-19.85
15.281,-10.17
15.296,-0.99
15.312,7.11
15.328,13.79
15.343,19.01
15.359,22.81
15.375,25.32
15.390,26.65
15.406,26.94
15.421,26.44
15.437,25.47
15.453,24.32
15.468,23.18
15.484,22.17
15.500,21.2
15.515,20.21
15.531,19.14
15.546,18.04
15.562,17.03
15.578,16.27
15.593,15.82
15.609,15.58
15.625,15.3
15.640,14.61
15.656,13.18
15.671,10.9
15.687,7.83
15.703,4.29
15.718,0.6
15.734,-2.99
15.750,-6.42
15.765,-9.68
15.781,-12.82
15.796,-15.85
15.812,-18.7
15.828,-21.4
15.843,-24.0
15.859,-26.66
15.875,-29.63
15.890,-33.06
15.906,-36.91
15.921,-40.86
15.937,-44.37
15.953,-46.73
15.968,-47.23
15.984,-45.28
16.000,-40.62
16.015,-33.38
16.031,-24.15
16.046,-13.9
16.062,-3.74
16.078,5.33
16.093,12.59
16.109,17.76
16.125,20.95
16.140,22.46
16.156,22.65
16.171,21.85
16.187,20.36
16.203,18.5
16.218,16.73
16.234,15.46
16.250,15.0
16.265,15.33
16.281,16.13
16.296,16.88
16.312,17.03
16.328,16.24
16.343,14.47
16.359,12.03
16.375,9.38
16.390,6.93
16.406,4.93
16.421,3.31
16.437,1.82
16.453,0.14
16.468,-1.99
16.484,-4.6
16.500,-7.54
16.515,-10.5
16.531,-13.26
16.546,-15.72
16.562,-17.99
16.578,-20.24
16.593,-22.63
16.609,-25.28
16.625,-28.24
16.640,-31.52
16.656,-35.03
16.671,-38.59
16.687,-41.75
16.703,-43.89
16.718,-44.24
16.734,-42.1
16.750,-37.09
16.765,-29.32
16.781,-19.42
16.796,-8.41
16.812,2.52
16.828,12.37
16.843,20.47
16.859,26.63
16.875,31.16
16.890,34.55
16.906,37.24
16.921,39.5
16.937,41.35
16.953,42.75
16.968,43.81
16.984,44.76
17.000,45.87
17.015,47.34
17.031,49.06
17.046,50.73
17.062,51.98
17.078,52.66
17.093,52.98
17.109,53.39
17.125,54.38
17.140,56.18
17.156,58.63
17.171,61.19
17.187,63.22
17.203,64.23
17.218,64.04
17.234,62.81
17.250,60.87
17.265,58.48
17.281,55.71
17.296,52.37
17.312,48.15
17.328,42.8
17.343,36.28
17.359,28.62
17.375,19.91
17.390,10.25
17.406,-0.26
17.421,-11.28
17.437,-22.18
17.453,-32.12
17.468,-40.28
17.484,-46.1
17.500,-49.62
17.515,-51.27
17.531,-51.7
17.546,-51.43
17.562,-50.76
17.578,-49.65
17.593,-47.97
17.609,-45.68
17.625,-42.8
17.640,-39.55
17.656,-36.08
17.671,-32.56
17.687,-29.12
17.703,-25.78
17.718,-22.63
17.734,-19.8
17.750,-17.41
17.765,-15.55
17.781,-14.2
17.796,-13.07
17.812,-11.8
17.828,-10.05
17.843,-7.68
17.859,-4.83
17.875,-1.91
17.890,0.5
17.906,1.96
17.921,2.28
17.937,1.58
17.953,0.26
17.968,-1.32
17.984,-2.83
18.000,-4.09
18.015,-5.08
18.031,-5.74
18.046,-6.05
18.062,-6.08
18.078,-5.87
18.093,-5.61
18.109,-5.52
18.125,-5.81
18.140,-6.73
18.156,-8.5
18.171,-11.28
18.187,-15.26
18.203,-20.55
18.218,-26.92
18.234,-33.78
18.250,-40.15
18.265,-44.85
18.281,-46.83
18.296,-45.45
18.312,-40.64
18.328,-32.94
18.343,-23.41
18.359,-13.25
18.375,-3.59
18.390,4.67
18.406,11.03
18.421,15.34
18.437,17.71
18.453,18.48
18.468,18.01
18.484,16.67
18.500,14.85
18.515,12.79
18.531,10.64
18.546,8.39
18.562,5.89
18.578,3.03
18.593,-0.15
18.609,-3.35
18.625,-6.16
18.640,-8.15
18.656,-9.15
18.671,-9.27
18.687,-8.83
18.703,-8.2
18.718,-7.63
18.734,-7.26
18.750,-7.22
18.765,-7.78
18.781,-9.26
18.796,-11.95
18.812,-15.91
18.828,-20.81
18.843,-26.15
18.859,-31.45
18.875,-36.42
18.890,-41.08
18.906,-45.59
18.921,-50.05
18.937,-54.4
18.953,-58.51
18.968,-62.21
18.984,-65.37
19.000,-67.87
19.015,-69.42
19.031,-69.51
19.046,-67.51
19.062,-62.97
19.078,-55.83
19.093,-46.55
19.109,-35.96
19.125,-24.96
19.140,-14.26
19.156,-4.31
19.171,4.57
19.187,12.16
19.203,18.14
19.218,22.26
19.234,24.44
19.250,24.89
19.265,24.05
19.281,22.49
19.296,20.72
19.312,19.03
19.328,17.51
19.343,16.09
19.359,14.67
19.375,13.21
19.390,11.76
19.406,10.42
19.421,9.22
19.437,8.13
19.453,6.99
19.468,5.49
19.484,3.25
19.500,0.09
19.515,-3.92
19.531,-8.42
19.546,-12.83
19.562,-16.69
19.578,-19.8
19.593,-22.33
19.609,-24.67
19.625,-27.3
19.640,-30.46
19.656,-34.13
19.671,-38.17
19.687,-42.36
19.703,-46.53
19.718,-50.36
19.734,-53.29
19.750,-54.44
19.765,-52.84
19.781,-47.81
19.796,-39.29
19.812,-28.05
19.828,-15.35
19.843,-2.62
19.859,8.94
19.875,18.66
19.890,26.26
19.906,31.72
19.921,35.15
19.937,36.66
19.953,36.51
19.968,35.16
19.984,33.22
20.000,31.31
20.015,29.83
20.031,28.9
20.046,28.35
20.062,27.86
20.078,27.15
20.093,26.05
20.109,24.6
20.125,22.89
20.140,20.99
20.156,18.85
20.171,16.3
20.187,13.1
20.203,9.16
20.218,4.6
20.234,-0.26
20.250,-4.96
20.265,-9.14
20.281,-12.62
20.296,-15.46
20.312,-17.94
20.328,-20.43
20.343,-23.31
20.359,-26.92
20.375,-31.61
20.390,-37.52
20.406,-44.5
20.421,-51.95
20.437,-58.76
20.453,-63.58
20.468,-65.17
20.484,-62.77
20.500,-56.26
20.515,-46.21
20.531,-33.66
20.546,-19.82
20.562,-5.93
20.578,7.01
20.593,18.23
20.609,27.31
20.625,34.14
20.640,39.01
20.656,42.37
20.671,44.72
20.687,46.43
20.703,47.65
20.718,48.38
20.734,48.54
20.750,48.16
20.765,47.35
20.781,46.25
20.796,44.96
20.812,43.47
20.828,41.66
20.843,39.43
20.859,36.75
20.875,33.72
20.890,30.57
20.906,27.48
20.921,24.55
20.937,21.68
20.953,18.7
20.968,15.51
20.984,12.03
21.000,8.36
21.015,4.59
21.031,0.69
21.046,-3.49
21.062,-8.16
21.078,-13.46
21.093,-19.3
21.109,-25.36
21.125,-31.34
21.140,-36.99
21.156,-42.18
21.171,-46.86
21.187,-50.71
21.203,-53.11
21.218,-53.19
21.234,-50.21
21.250,-43.87
21.265,-34.52
21.281,-23.08
21.296,-10.68
21.312,1.61
21.328,13.13
21.343,23.54
21.359,32.74
21.375,40.61
21.390,46.98
21.406,51.58
21.421,54.26
21.437,55.1
21.453,54.39
21.468,52.64
21.484,50.41
21.500,48.11
21.515,46.02
21.531,44.22
21.546,42.71
21.562,41.5
21.578,40.52
21.593,39.69
21.609,38.88
21.625,37.91
21.640,36.57
21.656,34.78
21.671,32.54
21.687,29.87
21.703,26.77
21.718,23.1
21.734,18.66
21.750,13.34
21.765,7.13
21.781,0.26
21.796,-6.84
21.812,-13.64
21.828,-19.74
21.843,-24.88
21.859,-29.08
21.875,-32.63
21.890,-35.97
21.906,-39.59
21.921,-43.8
21.937,-48.65
21.953,-53.65
21.968,-57.93
21.984,-60.28
22.000,-59.59
22.015,-55.12
22.031,-46.86
22.046,-35.52
22.062,-22.3
22.078,-8.63
22.093,4.31
22.109,15.61
22.125,24.81
22.140,31.68
22.156,36.15
22.171,38.31
22.187,38.44
22.203,37.04
22.218,34.75
22.234,32.29
22.250,30.21
22.265,28.83
22.281,28.24
22.296,28.32
22.312,28.84
22.328,29.48
22.343,29.92
22.359,29.85
22.375,29.09
22.390,27.5
22.406,25.12
22.421,22.08
22.437,18.6
22.453,14.9
22.468,11.17
22.484,7.55
22.500,4.05
22.515,0.65
22.531,-2.68
22.546,-5.95
22.562,-9.05
22.578,-11.91
22.593,-14.54
22.609,-17.18
22.625,-20.18
22.640,-23.99
22.656,-28.85
22.671,-34.67
22.687,-40.98
22.703,-46.87
22.718,-51.21
22.734,-52.89
22.750,-51.08
22.765,-45.48
22.781,-36.49
22.796,-25.09
22.812,-12.61
22.828,-0.36
22.843,10.64
22.859,19.8
22.875,26.91
22.890,32.01
22.906,35.33
22.921,37.1
22.937,37.62
22.953,37.23
22.968,36.29
22.984,35.2
23.000,34.26
23.015,33.67
23.031,33.49
23.046,33.55
23.062,33.53
23.078,33.04
23.093,31.76
23.109,29.61
23.125,26.84
23.140,23.88
23.156,21.14
23.171,18.88
23.187,17.07
23.203,15.46
23.218,13.74
23.234,11.63
23.250,8.95
23.265,5.61
23.281,1.62
23.296,-2.91
23.312,-7.83
23.328,-12.93
23.343,-18.11
23.359,-23.34
23.375,-28.66
23.390,-34.07
23.406,-39.42
23.421,-44.38
23.437,-48.43
23.453,-51.09
23.468,-51.85
23.484,-50.39
23.500,-46.53
23.515,-40.36
23.531,-32.18
23.546,-22.61
23.562,-12.44
23.578,-2.41
23.593,6.88
23.609,15.25
23.625,22.71
23.640,29.37
23.656,35.15
23.671,39.84
23.687,43.15
23.703,45.0
23.718,45.52
23.734,45.07
23.750,44.13
23.765,42.99
23.781,41.82
23.796,40.69
23.812,39.65
23.828,38.88
23.843,38.54
23.859,38.69
23.875,39.21
23.890,39.91
23.906,40.47
23.921,40.72
23.937,40.56
23.953,39.92
23.968,38.76
23.984,36.98
24.000,34.65
24.015,31.89
24.031,29.07
24.046,26.49
24.062,24.36
24.078,22.67
24.093,21.2
24.109,19.8
24.125,18.38
24.140,16.99
24.156,15.73
24.171,14.61
24.187,13.46
24.203,12.09
24.218,10.4
24.234,8.39
24.250,6.28
24.265,4.3
24.281,2.61
24.296,1.3
24.312,0.26
24.328,-0.66
24.343,-1.64
24.359,-2.83
24.375,-4.26
24.390,-5.91
24.406,-7.74
24.421,-9.74
24.437,-11.93
24.453,-14.33
24.468,-16.9
24.484,-19.46
24.500,-21.68
24.515,-23.22
24.531,-23.86
24.546,-23.68
24.562,-23.07
24.578,-22.55
24.593,-22.63
24.609,-23.51
24.625,-25.08
24.640,-27.05
24.656,-29.07
24.671,-30.93
24.687,-32.62
24.703,-34.35
24.718,-36.34
24.734,-38.75
24.750,-41.55
24.765,-44.57
24.781,-47.62
24.796,-50.59
24.812,-53.56
24.828,-56.68
24.843,-60.17
24.859,-64.2
24.875,-68.8
24.890,-73.86
24.906,-79.09
24.921,-84.06
24.937,-88.16
24.953,-90.67
24.968,-90.81
24.984,-87.92
25.000,-81.7
25.015,-72.36
25.031,-60.6
25.046,-47.5
25.062,-34.2
25.078,-21.74
25.093,-10.75
25.109,-1.56
25.125,5.85
25.140,11.6
25.156,15.8
25.171,18.47
25.187,19.69
25.203,19.65
25.218,18.68
25.234,17.25
25.250,15.79
25.265,14.55
25.281,13.57
25.296,12.69
25.312,11.78
25.328,10.85
25.343,10.08
25.359,9.71
25.375,9.81
25.390,10.25
25.406,10.61
25.421,10.43
25.437,9.38
25.453,7.38
25.468,4.6
25.484,1.33
25.500,-2.08
25.515,-5.49
25.531,-8.81
25.546,-12.08
25.562,-15.33
25.578,-18.61
25.593,-21.94
25.609,-25.27
25.625,-28.46
25.640,-31.15
25.656,-32.83
25.671,-32.92
25.687,-30.97
25.703,-26.83
25.718,-20.75
25.734,-13.29
25.750,-5.15
25.765,3.03
25.781,10.89
25.796,18.29
25.812,25.16
25.828,31.47
25.843,37.08
25.859,41.8
25.875,45.5
25.890,48.16
25.906,49.92
25.921,51.06
25.937,51.89
25.953,52.7
25.968,53.66
25.984,54.77
26.000,55.91
26.015,56.92
26.031,57.64
26.046,58.04
26.062,58.15
26.078,58.01
26.093,57.61
26.109,56.9
26.125,55.76
26.140,54.2
26.156,52.33
26.171,50.31
26.187,48.38
26.203,46.68
26.218,45.2
26.234,43.81
26.250,42.36
26.265,40.75
26.281,39.04
26.296,37.37
26.312,35.88
26.328,34.61
26.343,33.4
26.359,31.96
26.375,29.92
26.390,27.13
26.406,23.61
26.421,19.65
26.437,15.6
26.453,11.77
26.468,8.31
26.484,5.17
26.500,2.25
26.515,-0.55
26.531,-3.21
26.546,-5.7
26.562,-8.05
26.578,-10.38
26.593,-12.96
26.609,-15.97
26.625,-19.48
26.640,-23.36
26.656,-27.29
26.671,-30.94
26.687,-34.07
26.703,-36.63
26.718,-38.75
26.734,-40.71
26.750,-42.77
26.765,-45.13
26.781,-47.83
26.796,-50.81
26.812,-53.92
26.828,-57.04
26.843,-60.14
26.859,-63.33
26.875,-66.84
26.890,-70.98
26.906,-75.99
26.921,-81.94
26.937,-88.53
26.953,-95.01
26.968,-100.27
26.984,-102.98
27.000,-102.04
27.015,-96.88
27.031,-87.65
27.046,-75.23
27.062,-60.91
27.078,-46.08
27.093,-31.88
27.109,-19.09
27.125,-8.09
27.140,0.93
27.156,7.95
27.171,13.11
27.187,16.65
27.203,18.91
27.218,20.26
27.234,20.97
27.250,21.22
27.265,21.06
27.281,20.47
27.296,19.45
27.312,18.03
27.328,16.31
27.343,14.44
27.359,12.52
27.375,10.64
27.390,8.77
27.406,6.81
27.421,4.7
27.437,2.36
27.453,-0.24
27.468,-3.16
27.484,-6.46
27.500,-10.26
27.515,-14.62
27.531,-19.59
27.546,-25.07
27.562,-30.84
27.578,-36.61
27.593,-41.95
27.609,-46.35
27.625,-49.13
27.640,-49.58
27.656,-47.09
27.671,-41.43
27.687,-32.91
27.703,-22.38
27.718,-10.96
27.734,0.17
27.750,10.09
27.765,18.35
27.781,24.82
27.796,29.66
27.812,33.05
27.828,35.16
27.843,36.1
27.859,36.04
27.875,35.22
27.890,34.04
27.906,32.87
27.921,31.95
27.937,31.33
27.953,30.83
27.968,30.09
27.984,28.78
28.000,26.75
28.015,24.04
28.031,20.84
28.046,17.43
28.062,14.01
28.078,10.69
28.093,7.52
28.109,4.44
28.125,1.29
28.140,-2.05
28.156,-5.77
28.171,-10.03
28.187,-14.82
28.203,-20.01
28.218,-25.17
28.234,-29.66
28.250,-32.65
28.265,-33.31
28.281,-31.0
28.296,-25.41
28.312,-16.8
28.328,-5.9
28.343,6.12
28.359,18.06
28.375,28.91
28.390,38.08
28.406,45.49
28.421,51.32
28.437,55.85
28.453,59.26
28.468,61.56
28.484,62.71
28.500,62.73
28.515,61.81
28.531,60.2
28.546,58.08
28.562,55.52
28.578,52.43
28.593,48.75
28.609,44.57
28.625,40.19
28.640,36.03
28.656,32.42
28.671,29.44
28.687,26.81
28.703,24.15
28.718,21.1
28.734,17.49
28.750,13.41
28.765,9.09
28.781,4.76
28.796,0.57
28.812,-3.55
28.828,-7.82
28.843,-12.52
28.859,-17.93
28.875,-24.08
28.890,-30.65
28.906,-36.9
28.921,-41.76
28.937,-44.07
28.953,-42.87
28.968,-37.76
28.984,-29.0
29.000,-17.51
29.015,-4.53
29.031,8.71
29.046,21.27
29.062,32.63
29.078,42.67
29.093,51.5
29.109,59.14
29.125,65.46
29.140,70.1
29.156,72.76
29.171,73.41
29.187,72.38
29.203,70.29
29.218,67.71
29.234,64.98
29.250,62.1
29.265,58.94
29.281,55.45
29.296,51.89
29.312,48.69
29.328,46.32
29.343,44.95
29.359,44.33
29.375,43.88
29.390,43.0
29.406,41.31
29.421,38.78
29.437,35.62
29.453,32.15
29.468,28.63
29.484,25.3
29.500,22.28
29.515,19.68
29.531,17.63
29.546,16.13
29.562,15.1
29.578,14.35
29.593,13.63
29.609,12.74
29.625,11.62
29.640,10.32
29.656,8.92
29.671,7.46
29.687,5.89
29.703,4.12
29.718,2.09
29.734,-0.19
29.750,-2.56
29.765,-4.72
29.781,-6.38
29.796,-7.39
29.812,-7.78
29.828,-7.76
29.843,-7.7
29.859,-7.95
29.875,-8.79
29.890,-10.23
29.906,-12.19
29.921,-14.45
29.937,-16.78
29.953,-19.01
29.968,-21.05
29.984,-22.91
30.000,-24.69
30.015,-26.5
30.031,-28.38
30.046,-30.25
30.062,-31.96
30.078,-33.37
30.093,-34.49
30.109,-35.55
30.125,-36.89
30.140,-38.87
30.156,-41.66
30.171,-45.23
30.187,-49.31
30.203,-53.51
30.218,-57.45
30.234,-60.92
30.250,-63.92
30.265,-66.64
30.281,-69.53
30.296,-73.07
30.312,-77.67
30.328,-83.34
30.343,-89.55
30.359,-95.11
30.375,-98.57
30.390,-98.53
30.406,-94.15
30.421,-85.41
30.437,-73.11
30.453,-58.56
30.468,-43.24
30.484,-28.42
30.500,-14.97
30.515,-3.37
30.531,6.23
30.546,13.79
30.562,19.37
30.578,23.09
30.593,25.21
30.609,26.08
30.625,26.22
30.640,26.17
30.656,26.32
30.671,26.88
30.687,27.75
30.703,28.67
30.718,29.34
30.734,29.52
30.750,29.17
30.765,28.38
30.781,27.32
30.796,25.99
30.812,24.39
30.828,22.35
30.843,19.75
30.859,16.61
30.875,13.09
30.890,9.43
30.906,5.83
30.921,2.41
30.937,-0.9
30.953,-4.23
30.968,-7.76
30.984,-11.63
31.000,-15.89
31.015,-20.4
31.031,-24.82
31.046,-28.6
31.062,-31.02
31.078,-31.39
31.093,-29.16
31.109,-24.22
31.125,-16.98
31.140,-8.25
31.156,0.91
31.171,9.55
31.187,17.05
31.203,23.18
31.218,28.06
31.234,31.96
31.250,35.12
31.265,37.56
31.281,39.2
31.296,39.81
31.312,39.26
31.328,37.63
31.343,35.15
31.359,32.12
31.375,28.86
31.390,25.54
31.406,22.2
31.421,18.91
31.437,15.73
31.453,12.76
31.468,10.08
31.484,7.67
31.500,5.44
31.515,3.28
31.531,1.16
31.546,-0.87
31.562,-2.7
31.578,-4.32
31.593,-5.86
31.609,-7.6
31.625,-9.93
31.640,-13.06
31.656,-17.02
31.671,-21.53
31.687,-26.11
31.703,-30.09
31.718,-32.77
31.734,-33.51
31.750,-31.81
31.765,-27.52
31.781,-20.84
31.796,-12.39
31.812,-3.11
31.828,5.98
31.843,14.04
31.859,20.57
31.875,25.47
31.890,28.95
31.906,31.29
31.921,32.74
31.937,33.42
31.953,33.34
31.968,32.52
31.984,31.09
32.000,29.22
32.015,27.1
32.031,24.87
32.046,22.54
32.062,20.05
32.078,17.39
32.093,14.54
32.109,11.61
32.125,8.66
32.140,5.77
32.156,2.89
32.171,-0.07
32.187,-3.15
32.203,-6.35
32.218,-9.56
32.234,-12.72
32.250,-15.78
32.265,-18.84
32.281,-22.1
32.296,-25.89
32.312,-30.48
32.328,-36.0
32.343,-42.26
32.359,-48.69
32.375,-54.43
32.390,-58.48
32.406,-59.96
32.421,-58.41
32.437,-53.84
32.453,-46.79
32.468,-38.12
32.484,-28.82
32.500,-19.75
32.515,-11.5
32.531,-4.37
32.546,1.66
32.562,6.71
32.578,11.0
32.593,14.63
32.609,17.64
32.625,19.93
32.640,21.47
32.656,22.25
32.671,22.35
32.687,21.87
32.703,20.84
32.718,19.29
32.734,17.24
32.750,14.81
32.765,12.12
32.781,9.32
32.796,6.44
32.812,3.48
32.828,0.4
32.843,-2.84
32.859,-6.14
32.875,-9.41
32.890,-12.63
32.906,-16.03
32.921,-20.0
32.937,-25.01
32.953,-31.31
32.968,-38.72
32.984,-46.6
33.000,-54.01
33.015,-59.9
33.031,-63.39
33.046,-63.98
33.062,-61.53
33.078,-56.27
33.093,-48.67
33.109,-39.31
33.125,-28.85
33.140,-18.0
33.156,-7.51
33.171,1.92
33.187,9.75
33.203,15.75
33.218,19.99
33.234,22.8
33.250,24.63
33.265,25.82
33.281,26.49
33.296,26.54
33.312,25.8
33.328,24.16
33.343,21.74
33.359,18.76
33.375,15.49
33.390,12.15
33.406,8.88
33.421,5.82
33.437,3.07
33.453,0.69
33.468,-1.34
33.484,-3.16
33.500,-4.94
33.515,-6.84
33.531,-8.88
33.546,-11.07
33.562,-13.4
33.578,-16.03
33.593,-19.21
33.609,-23.22
33.625,-28.1
33.640,-33.61
33.656,-39.08
33.671,-43.62
33.687,-46.32
33.703,-46.45
33.718,-43.61
33.734,-37.81
33.750,-29.5
33.765,-19.47
33.781,-8.71
33.796,1.88
33.812,11.73
33.828,20.64
33.843,28.68
33.859,35.94
33.875,42.35
33.890,47.64
33.906,51.46
33.921,53.66
33.937,54.46
33.953,54.29
33.968,53.67
33.984,52.89
34.000,51.94
34.015,50.58
34.031,48.53
34.046,45.7
34.062,42.21
34.078,38.32
34.093,34.34
34.109,30.55
34.125,27.13
34.140,24.18
34.156,21.62
34.171,19.21
34.187,16.61
34.203,13.45
34.218,9.46
34.234,4.57
34.250,-1.04
34.265,-6.97
34.281,-12.84
34.296,-18.31
34.312,-23.27
34.328,-27.77
34.343,-32.06
34.359,-36.43
34.375,-41.16
34.390,-46.24
34.406,-51.36
34.421,-55.81
34.437,-58.64
34.453,-58.94
34.468,-56.14
34.484,-50.17
34.500,-41.46
34.515,-30.86
34.531,-19.27
34.546,-7.59
34.562,3.53
34.578,13.62
34.593,22.36
34.609,29.52
34.625,34.94
34.640,38.55
34.656,40.39
34.671,40.75
34.687,40.02
34.703,38.78
34.718,37.57
34.734,36.7
34.750,36.27
34.765,36.13
34.781,36.0
34.796,35.69
34.812,35.15
34.828,34.33
34.843,33.21
34.859,31.67
34.875,29.52
34.890,26.64
34.906,23.01
34.921,18.76
34.937,14.14
34.953,9.46
34.968,4.91
34.984,0.7
35.000,-3.11
35.015,-6.48
35.031,-9.45
35.046,-12.15
35.062,-14.75
35.078,-17.42
35.093,-20.36
35.109,-23.73
35.125,-27.66
35.140,-32.22
35.156,-37.35
35.171,-42.69
35.187,-47.6
35.203,-51.21
35.218,-52.59
35.234,-51.12
35.250,-46.58
35.265,-39.29
35.281,-29.99
35.296,-19.64
35.312,-9.14
35.328,0.77
35.343,9.63
35.359,17.26
35.375,23.64
35.390,28.9
35.406,33.22
35.421,36.76
35.437,39.62
35.453,41.92
35.468,43.7
35.484,45.02
35.500,45.83
35.515,46.07
35.531,45.65
35.546,44.51
35.562,42.72
35.578,40.5
35.593,38.14
35.609,35.88
35.625,33.84
35.640,31.91
35.656,29.89
35.671,27.49
35.687,24.57
35.703,21.14
35.718,17.35
35.734,13.44
35.750,9.59
35.765,5.86
35.781,2.18
35.796,-1.59
35.812,-5.55
35.828,-9.65
35.843,-13.73
35.859,-17.59
35.875,-21.1
35.890,-24.34
35.906,-27.55
35.921,-31.07
35.937,-35.21
35.953,-40.16
35.968,-45.87
35.984,-51.96
36.000,-57.77
36.015,-62.29
36.031,-64.43
36.046,-63.24
36.062,-58.27
36.078,-49.76
36.093,-38.68
36.109,-26.44
36.125,-14.43
36.140,-3.7
36.156,5.25
36.171,12.42
36.187,18.07
36.203,22.54
36.218,26.04
36.234,28.71
36.250,30.68
36.265,32.11
36.281,33.24
36.296,34.23
36.312,35.12
36.328,35.67
36.343,35.57
36.359,34.57
36.375,32.66
36.390,30.11
36.406,27.34
36.421,24.73
36.437,22.49
36.453,20.56
36.468,18.72
36.484,16.75
36.500,14.55
36.515,12.2
36.531,9.86
36.546,7.74
36.562,5.98
36.578,4.56
36.593,3.26
36.609,1.75
36.625,-0.41
36.640,-3.5
36.656,-7.55
36.671,-12.26
36.687,-17.13
36.703,-21.64
36.718,-25.48
36.734,-28.7
36.750,-31.57
36.765,-34.45
36.781,-37.65
36.796,-41.21
36.812,-44.97
36.828,-48.55
36.843,-51.39
36.859,-52.85
36.875,-52.3
36.890,-49.26
36.906,-43.63
36.921,-35.68
36.937,-26.03
36.953,-15.53
36.968,-5.03
36.984,4.74
37.000,13.22
37.015,20.02
37.031,24.94
37.046,27.95
37.062,29.28
37.078,29.41
37.093,28.88
37.109,28.26
37.125,27.9
37.140,27.84
37.156,27.93
37.171,27.97
37.187,27.77
37.203,27.35
37.218,26.77
37.234,26.13
37.250,25.39
37.265,24.45
37.281,23.13
37.296,21.27
37.312,18.84
37.328,15.94
37.343,12.77
37.359,9.61
37.375,6.79
37.390,4.52
37.406,2.83
37.421,1.53
37.437,0.21
37.453,-1.55
37.468,-4.06
37.484,-7.38
37.500,-11.36
37.515,-15.67
37.531,-19.99
37.546,-24.1
37.562,-27.96
37.578,-31.67
37.593,-35.44
37.609,-39.4
37.625,-43.47
37.640,-47.29
37.656,-50.24
37.671,-51.58
37.687,-50.74
37.703,-47.42
37.718,-41.76
37.734,-34.26
37.750,-25.57
37.765,-16.34
37.781,-7.13
37.796,1.58
37.812,9.45
37.828,16.26
37.843,21.89
37.859,26.22
37.875,29.23
37.890,30.97
37.906,31.58
37.921,31.36
37.937,30.74
37.953,30.12
37.968,29.8
37.984,29.81
38.000,29.94
38.015,29.89
38.031,29.45
38.046,28.59
38.062,27.39
38.078,25.97
38.093,24.31
38.109,22.28
38.125,19.75
38.140,16.68
38.156,13.25
38.171,9.78
38.187,6.62
38.203,4.0
38.218,2.03
38.234,0.53
38.250,-0.73
38.265,-2.05
38.281,-3.71
38.296,-5.87
38.312,-8.64
38.328,-11.96
38.343,-15.68
38.359,-19.5
38.375,-23.16
38.390,-26.45
38.406,-29.34
38.421,-32.05
38.437,-34.93
38.453,-38.39
38.468,-42.57
38.484,-47.24
38.500,-51.72
38.515,-55.07
38.531,-56.43
38.546,-55.18
38.562,-51.21
38.578,-44.76
38.593,-36.36
38.609,-26.63
38.625,-16.19
38.640,-5.67
38.656,4.35
38.671,13.3
38.687,20.78
38.703,26.61
38.718,30.87
38.734,33.75
38.750,35.52
38.765,36.4
38.781,36.59
38.796,36.29
38.812,35.71
38.828,35.03
38.843,34.38
38.859,33.8
38.875,33.22
38.890,32.6
38.906,31.86
38.921,30.96
38.937,29.88
38.953,28.51
38.968,26.83
38.984,24.75
39.000,22.27
39.015,19.46
39.031,16.39
39.046,13.19
39.062,9.97
39.078,6.87
39.093,4.04
39.109,1.52
39.125,-0.77
39.140,-3.14
39.156,-5.96
39.171,-9.5
39.187,-13.79
39.203,-18.61
39.218,-23.52
39.234,-28.12
39.250,-32.21
39.265,-35.83
39.281,-39.22
39.296,-42.68
39.312,-46.43
39.328,-50.53
39.343,-54.83
39.359,-58.87
39.375,-62.03
39.390,-63.48
39.406,-62.51
39.421,-58.7
39.437,-52.05
39.453,-43.13
39.468,-32.77
39.484,-21.86
39.500,-11.13
39.515,-1.05
39.531,8.07
39.546,16.0
39.562,22.49
39.578,27.32
39.593,30.42
39.609,31.97
39.625,32.43
39.640,32.3
39.656,32.06
39.671,31.91
39.687,31.89
39.703,31.86
39.718,31.67
39.734,31.28
39.750,30.71
39.765,30.11
39.781,29.56
39.796,29.1
39.812,28.63
39.828,27.97
39.843,26.86
39.859,25.08
39.875,22.55
39.890,19.4
39.906,15.91
39.921,12.42
39.937,9.2
39.953,6.33
39.968,3.71
39.984,1.15
40.000,-1.65
40.015,-4.89
40.031,-8.64
40.046,-12.88
40.062,-17.43
40.078,-21.99
40.093,-26.3
40.109,-30.15
40.125,-33.5
40.140,-36.58
40.156,-39.71
40.171,-43.21
40.187,-47.22
40.203,-51.55
40.218,-55.69
40.234,-58.89
40.250,-60.44
40.265,-59.71
40.281,-56.43
40.296,-50.61
40.312,-42.61
40.328,-32.95
40.343,-22.28
40.359,-11.26
40.375,-0.56
40.390,9.2
40.406,17.49
40.421,23.93
40.437,28.4
40.453,31.04
40.468,32.21
40.484,32.49
40.500,32.41
40.515,32.36
40.531,32.52
40.546,32.87
40.562,33.28
40.578,33.64
40.593,33.84
40.609,33.83
40.625,33.58
40.640,32.99
40.656,32.0
40.671,30.52
40.687,28.56
40.703,26.11
40.718,23.24
40.734,20.06
40.750,16.62
40.765,13.08
40.781,9.58
40.796,6.26
40.812,3.14
40.828,0.16
40.843,-2.87
40.859,-6.09
40.875,-9.56
40.890,-13.19
40.906,-16.82
40.921,-20.32
40.937,-23.64
40.953,-26.86
40.968,-30.09
40.984,-33.45
41.000,-37.0
41.015,-40.83
41.031,-44.97
41.046,-49.31
41.062,-53.41
41.078,-56.54
41.093,-57.77
41.109,-56.24
41.125,-51.63
41.140,-44.13
41.156,-34.54
41.171,-23.87
41.187,-13.04
41.203,-2.73
41.218,6.67
41.234,14.87
41.250,21.65
41.265,26.77
41.281,30.16
41.296,31.93
41.312,32.42
41.328,32.13
41.343,31.49
41.359,30.82
41.375,30.25
41.390,29.81
41.406,29.45
41.421,29.14
41.437,28.91
41.453,28.76
41.468,28.64
41.484,28.35
41.500,27.66
41.515,26.32
41.531,24.24
41.546,21.44
41.562,18.11
41.578,14.5
41.593,10.83
41.609,7.29
41.625,3.94
41.640,0.84
41.656,-2.03
41.671,-4.75
41.687,-7.42
41.703,-10.16
41.718,-13.06
41.734,-16.21
41.750,-19.59
41.765,-23.16
41.781,-26.84
41.796,-30.58
41.812,-34.46
41.828,-38.55
41.843,-42.84
41.859,-47.1
41.875,-50.8
41.890,-53.13
41.906,-53.22
41.921,-50.41
41.937,-44.52
41.953,-36.01
41.968,-25.82
41.984,-15.13
42.000,-5.01
42.015,3.87
42.031,11.31
42.046,17.39
42.062,22.37
42.078,26.41
42.093,29.56
42.109,31.82
42.125,33.24
42.140,33.96
42.156,34.23
42.171,34.3
42.187,34.31
42.203,34.25
42.218,34.04
42.234,33.52
42.250,32.68
42.265,31.58
42.281,30.34
42.296,29.09
42.312,27.9
42.328,26.73
42.343,25.51
42.359,24.13
42.375,22.45
42.390,20.33
42.406,17.63
42.421,14.16
42.437,9.86
42.453,4.81
42.468,-0.72
42.484,-6.26
42.500,-11.38
42.515,-15.84
42.531,-19.64
42.546,-22.98
42.562,-26.22
42.578,-29.69
42.593,-33.66
42.609,-38.17
42.625,-43.07
42.640,-47.86
42.656,-51.75
42.671,-53.73
42.687,-52.85
42.703,-48.55
42.718,-40.87
42.734,-30.49
42.750,-18.52
42.765,-6.19
42.781,5.44
42.796,15.62
42.812,23.9
42.828,30.12
42.843,34.26
42.859,36.58
42.875,37.47
42.890,37.42
42.906,36.97
42.921,36.52
42.937,36.32
42.953,36.43
42.968,36.71
42.984,36.99
43.000,37.04
43.015,36.7
43.031,35.82
43.046,34.36
43.062,32.3
43.078,29.71
43.093,26.63
43.109,23.19
43.125,19.56
43.140,15.95
43.156,12.49
43.171,9.26
43.187,6.16
43.203,3.0
43.218,-0.44
43.234,-4.28
43.250,-8.51
43.265,-13.01
43.281,-17.6
43.296,-22.14
43.312,-26.53
43.328,-30.81
43.343,-35.1
43.359,-39.57
43.375,-44.36
43.390,-49.48
43.406,-54.78
43.421,-59.81
43.437,-63.9
43.453,-66.24
43.468,-66.07
43.484,-62.85
43.500,-56.49
43.515,-47.38
43.531,-36.27
43.546,-24.18
43.562,-12.14
43.578,-1.0
43.593,8.73
43.609,16.82
43.625,23.27
43.640,28.21
43.656,31.79
43.671,34.19
43.687,35.62
43.703,36.35
43.718,36.67
43.734,36.84
43.750,37.06
43.765,37.33
43.781,37.57
43.796,37.56
43.812,37.18
43.828,36.37
43.843,35.15
43.859,33.53
43.875,31.45
43.890,28.86
43.906,25.69
43.921,22.05
43.937,18.12
43.953,14.14
43.968,10.19
43.984,6.22
44.000,2.07
44.015,-2.4
44.031,-7.13
44.046,-11.9
44.062,-16.41
44.078,-20.51
44.093,-24.26
44.109,-27.87
44.125,-31.63
44.140,-35.78
44.156,-40.41
44.171,-45.47
44.187,-50.83
44.203,-56.17
44.218,-61.01
44.234,-64.67
44.250,-66.4
44.265,-65.56
44.281,-61.88
44.296,-55.46
44.312,-46.82
44.328,-36.71
44.343,-25.89
44.359,-15.06
44.375,-4.75
44.390,4.72
44.406,13.16
44.421,20.46
44.437,26.63
44.453,31.7
44.468,35.74
44.484,38.85
44.500,41.14
44.515,42.7
44.531,43.65
44.546,44.05
44.562,43.95
44.578,43.36
44.593,42.35
44.609,41.02
44.625,39.51
44.640,37.98
44.656,36.51
44.671,35.05
44.687,33.47
44.703,31.59
44.718,29.24
44.734,26.37
44.750,23.01
44.765,19.27
44.781,15.19
44.796,10.82
44.812,6.21
44.828,1.5
44.843,-3.11
44.859,-7.37
44.875,-11.1
44.890,-14.34
44.906,-17.31
44.921,-20.35
44.937,-23.76
44.953,-27.74
44.968,-32.3
44.984,-37.31
45.000,-42.46
45.015,-47.27
45.031,-51.06
45.046,-53.07
45.062,-52.58
45.078,-49.2
45.093,-43.05
45.109,-34.77
45.125,-25.28
45.140,-15.5
45.156,-6.11
45.171,2.45
45.187,10.06
45.203,16.69
45.218,22.38
45.234,27.13
45.250,30.98
45.265,34.02
45.281,36.3
45.296,37.9
45.312,38.77
45.328,38.95
45.343,38.52
45.359,37.67
45.375,36.71
45.390,35.88
45.406,35.18
45.421,34.37
45.437,33.04
45.453,30.88
45.468,27.89
45.484,24.39
45.500,20.89
45.515,17.86
45.531,15.49
45.546,13.67
45.562,12.03
45.578,10.24
45.593,8.12
45.609,5.63
45.625,2.81
45.640,-0.28
45.656,-3.58
45.671,-7.01
45.687,-10.42
45.703,-13.65
45.718,-16.63
45.734,-19.4
45.750,-22.16
45.765,-25.09
45.781,-28.2
45.796,-31.09
45.812,-33.18
45.828,-33.75
45.843,-32.24
45.859,-28.41
45.875,-22.36
45.890,-14.42
45.906,-5.16
45.921,4.82
45.937,14.85
45.953,24.24
45.968,32.44
45.984,39.08
46.000,44.04
46.015,47.54
46.031,49.93
46.046,51.62
46.062,52.87
46.078,53.81
46.093,54.41
46.109,54.65
46.125,54.58
46.140,54.23
46.156,53.72
46.171,53.24
46.187,52.98
46.203,53.15
46.218,53.78
46.234,54.59
46.250,55.0
46.265,54.24
46.281,51.58
46.296,46.75
46.312,40.1
46.328,32.62
46.343,25.64
46.359,20.26
46.375,16.76
46.390,14.31
46.406,10.92
46.421,3.95
46.437,-9.15
46.453,-29.87
46.468,-57.88
46.484,-90.8
46.500,-124.64
46.515,-154.82
46.531,-177.38
46.546,-190.04
46.562,-192.6
46.578,-186.77
46.593,-175.59
46.609,-162.45
46.625,-150.14
46.640,-140.23
46.656,-132.69
46.671,-126.03
46.687,-117.93
46.703,-106.09
46.718,-89.05
46.734,-66.83
46.750,-40.96
46.765,-13.84
46.781,11.98
46.796,34.58
46.812,53.07
46.828,67.53
46.843,78.73
46.859,87.81
46.875,95.95
46.890,104.09
46.906,112.67
46.921,121.5
46.937,129.8
46.953,136.43
46.968,140.32
46.984,140.75
47.000,137.62
47.015,131.45
47.031,123.12
47.046,113.68
47.062,104.03
47.078,94.82
47.093,86.31
47.109,78.42
47.125,70.77
47.140,63.04
47.156,55.12
47.171,47.34
47.187,40.27
47.203,34.49
47.218,30.21
47.234,27.26
47.250,25.15
47.265,23.3
47.281,21.29
47.296,18.67
47.312,14.89
47.328,9.25
47.343,1.13
47.359,-9.58
47.375,-22.0
47.390,-34.35
47.406,-44.37
47.421,-50.2
47.437,-51.03
47.453,-47.39
47.468,-40.89
47.484,-33.62
47.500,-27.42
47.515,-23.43
47.531,-21.93
47.546,-22.46
47.562,-24.1
47.578,-25.92
47.593,-27.26
47.609,-27.84
47.625,-27.89
47.640,-27.81
47.656,-28.01
47.671,-28.56
47.687,-29.25
47.703,-29.63
47.718,-29.55
47.734,-29.19
47.750,-29.09
47.765,-29.93
47.781,-32.01
47.796,-35.21
47.812,-39.03
47.828,-43.09
47.843,-47.41
47.859,-52.3
47.875,-57.71
47.890,-62.73
47.906,-65.84
47.921,-65.97
47.937,-63.61
47.953,-61.02
47.968,-61.05
47.984,-65.09
48.000,-71.59
48.015,-76.54
48.031,-75.5
48.046,-66.24
48.062,-50.04
48.078,-30.68
48.093,-11.98
48.109,4.48
48.125,19.83
48.140,36.58
48.156,56.17
48.171,77.78
48.187,98.56
48.203,115.5
48.218,126.95
48.234,133.17
48.250,135.39
48.265,134.47
48.281,130.32
48.296,121.85
48.312,108.15
48.328,89.29
48.343,66.93
48.359,44.01
48.375,24.04
48.390,10.15
48.406,4.02
48.421,5.29
48.437,11.61
48.453,19.63
48.468,26.25
48.484,29.94
48.500,31.28
48.515,32.44
48.531,36.09
48.546,44.16
48.562,57.1
48.578,74.01
48.593,93.5
48.609,114.31
48.625,135.83
48.640,157.9
48.656,179.92
48.671,200.13
48.687,215.11
48.703,220.3
48.718,211.54
48.734,187.13
48.750,149.23
48.765,103.73
48.781,58.25
48.796,19.01
48.812,-11.38
48.828,-34.32
48.843,-53.46
48.859,-72.06
48.875,-91.27
48.890,-110.09
48.906,-127.07
48.921,-141.84
48.937,-155.58
48.953,-169.8
48.968,-184.65
48.984,-198.12
49.000,-206.85
49.015,-207.96
49.031,-200.89
49.046,-187.86
49.062,-172.89
49.078,-160.0
49.093,-151.73
49.109,-148.4
49.125,-148.52
49.140,-149.45
49.156,-148.48
49.171,-143.45
49.187,-133.3
49.203,-118.23
49.218,-99.53
49.234,-79.25
49.250,-59.58
49.265,-42.26
49.281,-28.1
49.296,-16.96
49.312,-8.02
49.328,-0.26
49.343,7.07
49.359,14.18
49.375,20.57
49.390,25.24
49.406,26.99
49.421,24.85
49.437,18.35
49.453,7.6
49.468,-6.69
49.484,-23.35
49.500,-40.87
49.515,-57.69
49.531,-72.49
49.546,-84.4
49.562,-93.19
49.578,-99.13
49.593,-102.61
49.609,-103.61
49.625,-101.32
49.640,-94.4
49.656,-81.72
49.671,-63.33
49.687,-41.16
49.703,-18.89
49.718,-1.06
49.734,8.44
49.750,8.04
49.765,-0.64
49.781,-13.04
49.796,-23.19
49.812,-26.24
49.828,-20.42
49.843,-7.64
49.859,7.8
49.875,21.6
49.890,31.83
49.906,39.64
49.921,48.08
49.937,59.78
49.953,75.05
49.968,92.26
49.984,109.37
50.000,125.47
50.015,140.64
50.031,154.45
50.046,164.25
50.062,165.3
50.078,153.07
50.093,126.4
50.109,89.23
50.125,49.5
50.140,15.53
50.156,-7.89
50.171,-21.12
50.187,-28.53
50.203,-35.16
50.218,-43.92
50.234,-54.77
50.250,-65.92
50.265,-76.06
50.281,-85.57
50.296,-96.06
50.312,-108.97
50.328,-124.49
50.343,-141.15
50.359,-156.39
50.375,-167.95
50.390,-174.74
50.406,-177.33
50.421,-177.46
50.437,-176.81
50.453,-176.15
50.468,-174.87
50.484,-171.27
50.500,-163.43
50.515,-150.24
50.531,-131.97
50.546,-110.32
50.562,-87.56
50.578,-65.72
50.593,-45.94
50.609,-28.32
50.625,-12.23
50.640,3.02
50.656,17.71
50.671,31.51
50.687,43.6
50.703,53.16
50.718,59.73
50.734,63.51
50.750,65.24
50.765,65.99
50.781,66.72
50.796,68.0
50.812,69.82
50.828,71.75
50.843,73.3
50.859,74.14
50.875,74.27
50.890,73.9
50.906,73.29
50.921,72.49
50.937,71.31
50.953,69.37
50.968,66.31
50.984,61.96
51.000,56.36
51.015,49.77
51.031,42.58
51.046,35.17
51.062,27.8
51.078,20.63
51.093,13.68
51.109,6.92
51.125,0.27
51.140,-6.44
51.156,-13.38
51.171,-20.68
51.187,-28.26
51.203,-35.71
51.218,-42.17
51.234,-46.52
51.250,-47.67
51.265,-44.86
51.281,-38.01
51.296,-27.7
51.312,-14.99
51.328,-0.99
51.343,13.36
51.359,27.44
51.375,40.86
51.390,53.17
51.406,63.93
51.421,72.62
51.437,78.9
51.453,82.72
51.468,84.42
51.484,84.59
51.500,83.9
51.515,82.87
51.531,81.78
51.546,80.63
51.562,79.33
51.578,77.74
51.593,75.88
51.609,73.92
51.625,72.02
51.640,70.26
51.656,68.56
51.671,66.58
51.687,63.98
51.703,60.51
51.718,56.08
51.734,50.91
51.750,45.32
51.765,39.66
51.781,34.1
51.796,28.63
51.812,22.97
51.828,16.87
51.843,10.23
51.859,3.15
51.875,-4.0
51.890,-10.81
51.906,-17.05
51.921,-22.74
51.937,-28.15
51.953,-33.72
51.968,-39.74
51.984,-46.21
52.000,-52.79
52.015,-58.79
52.031,-63.36
52.046,-65.73
52.062,-65.19
52.078,-61.4
52.093,-54.35
52.109,-44.43
52.125,-32.38
52.140,-19.14
52.156,-5.62
52.171,7.43
52.187,19.57
52.203,30.63
52.218,40.56
52.234,49.29
52.250,56.61
52.265,62.22
52.281,65.89
52.296,67.65
52.312,67.8
52.328,66.83
52.343,65.21
52.359,63.3
52.375,61.21
52.390,59.05
52.406,56.9
52.421,54.88
52.437,53.12
52.453,51.63
52.468,50.22
52.484,48.63
52.500,46.5
52.515,43.63
52.531,39.97
52.546,35.6
52.562,30.68
52.578,25.38
52.593,19.83
52.609,14.16
52.625,8.5
52.640,2.94
52.656,-2.43
52.671,-7.55
52.687,-12.4
52.703,-17.01
52.718,-21.48
52.734,-25.93
52.750,-30.55
52.765,-35.51
52.781,-40.98
52.796,-47.0
52.812,-53.36
52.828,-59.53
52.843,-64.61
52.859,-67.51
52.875,-67.25
52.890,-63.22
52.906,-55.39
52.921,-44.43
52.937,-31.42
52.953,-17.66
52.968,-4.24
52.984,8.05
53.000,18.74
53.015,27.65
53.031,34.7
53.046,39.95
53.062,43.48
53.078,45.53
53.093,46.42
53.109,46.51
53.125,46.16
53.140,45.6
53.156,44.94
53.171,44.1
53.187,43.02
53.203,41.65
53.218,40.08
53.234,38.44
53.250,36.8
53.265,35.16
53.281,33.43
53.296,31.46
53.312,29.17
53.328,26.59
53.343,23.83
53.359,20.99
53.375,18.09
53.390,15.0
53.406,11.52
53.421,7.45
53.437,2.65
53.453,-2.87
53.468,-8.91
53.484,-15.11
53.500,-21.08
53.515,-26.48
53.531,-31.14
53.546,-35.14
53.562,-38.74
53.578,-42.3
53.593,-46.15
53.609,-50.45
53.625,-55.15
53.640,-59.9
53.656,-64.05
53.671,-66.74
53.687,-67.05
53.703,-64.27
53.718,-58.08
53.734,-48.78
53.750,-37.13
53.765,-24.17
53.781,-10.97
53.796,1.64
53.812,13.04
53.828,22.78
53.843,30.49
53.859,35.94
53.875,39.1
53.890,40.29
53.906,40.12
53.921,39.31
53.937,38.5
53.953,38.06
53.968,38.03
53.984,38.21
54.000,38.4
54.015,38.48
54.031,38.47
54.046,38.42
54.062,38.29
54.078,37.94
54.093,37.1
54.109,35.5
54.125,33.05
54.140,29.8
54.156,26.0
54.171,21.99
54.187,18.09
54.203,14.47
54.218,11.23
54.234,8.38
54.250,5.89
54.265,3.7
54.281,1.7
54.296,-0.22
54.312,-2.23
54.328,-4.41
54.343,-6.82
54.359,-9.33
54.375,-11.83
54.390,-14.22
54.406,-16.48
54.421,-18.66
54.437,-20.84
54.453,-23.01
54.468,-25.0
54.484,-26.51
54.500,-27.06
54.515,-26.14
54.531,-23.27
54.546,-18.01
54.562,-10.12
54.578,0.41
54.593,13.3
54.609,28.0
54.625,43.7
54.640,59.35
54.656,73.69
54.671,85.45
54.687,93.32
54.703,96.31
54.718,93.94
54.734,86.49
54.750,75.11
54.765,61.54
54.781,47.75
54.796,35.35
54.812,25.28
54.828,17.68
54.843,12.09
54.859,7.73
54.875,3.87
54.890,-0.15
54.906,-4.87
54.921,-10.72
54.937,-17.96
54.953,-26.51
54.968,-35.77
54.984,-44.7
55.000,-52.09
55.015,-57.04
55.031,-59.32
55.046,-59.41
55.062,-58.28
55.078,-56.88
55.093,-55.75
55.109,-54.85
55.125,-53.81
55.140,-52.19
55.156,-49.89
55.171,-47.12
55.187,-44.34
55.203,-41.97
55.218,-40.23
55.234,-39.07
55.250,-38.34
55.265,-37.96
55.281,-37.98
55.296,-38.49
55.312,-39.43
55.328,-40.46
55.343,-40.8
55.359,-39.45
55.375,-35.42
55.390,-28.11
55.406,-17.52
55.421,-4.19
55.437,10.93
55.453,26.72
55.468,42.03
55.484,55.85
55.500,67.17
55.515,75.03
55.531,78.72
55.546,77.92
55.562,72.98
55.578,64.87
55.593,55.04
55.609,45.02
55.625,36.12
55.640,29.07
55.656,23.98
55.671,20.49
55.687,18.08
55.703,16.28
55.718,14.78
55.734,13.44
55.750,12.2
55.765,10.87
55.781,9.18
55.796,6.78
55.812,3.42
55.828,-0.92
55.843,-6.06
55.859,-11.66
55.875,-17.52
55.890,-23.69
55.906,-30.47
55.921,-38.23
55.937,-47.17
55.953,-57.26
55.968,-68.22
55.984,-79.57
56.000,-90.73
56.015,-101.07
56.031,-109.98
56.046,-116.93
56.062,-121.51
56.078,-123.65
56.093,-123.63
56.109,-122.1
56.125,-119.87
56.140,-117.58
56.156,-115.44
56.171,-113.13
56.187,-109.89
56.203,-104.83
56.218,-97.32
56.234,-87.19
56.250,-74.9
56.265,-61.25
56.281,-47.19
56.296,-33.52
56.312,-20.74
56.328,-9.1
56.343,1.23
56.359,10.14
56.375,17.55
56.390,23.42
56.406,27.92
56.421,31.4
56.437,34.22
56.453,36.68
56.468,38.86
56.484,40.62
56.500,41.79
56.515,42.29
56.531,42.2
56.546,41.79
56.562,41.38
56.578,41.22
56.593,41.47
56.609,42.02
56.625,42.67
56.640,43.08
56.656,42.98
56.671,42.2
56.687,40.73
56.703,38.79
56.718,36.64
56.734,34.56
56.750,32.71
56.765,31.05
56.781,29.43
56.796,27.71
56.812,25.8
56.828,23.73
56.843,21.64
56.859,19.66
56.875,17.87
56.890,16.24
56.906,14.66
56.921,12.95
56.937,10.97
56.953,8.71
56.968,6.44
56.984,4.75
57.000,4.43
57.015,6.25
57.031,10.75
57.046,18.02
57.062,27.62
57.078,38.64
57.093,49.86
57.109,59.99
57.125,67.87
57.140,72.72
57.156,74.2
57.171,72.51
57.187,68.26
57.203,62.3
57.218,55.48
57.234,48.46
57.250,41.58
57.265,35.0
57.281,28.68
57.296,22.53
57.312,16.47
57.328,10.34
57.343,4.0
57.359,-2.63
57.375,-9.53
57.390,-16.48
57.406,-23.16
57.421,-29.24
57.437,-34.49
57.453,-38.77
57.468,-42.1
57.484,-44.45
57.500,-45.81
57.515,-46.2
57.531,-45.73
57.546,-44.72
57.562,-43.7
57.578,-43.19
57.593,-43.6
57.609,-45.12
57.625,-47.59
57.640,-50.59
57.656,-53.59
57.671,-56.1
57.687,-57.82
57.703,-58.7
57.718,-59.0
57.734,-59.1
57.750,-59.6
57.765,-61.0
57.781,-63.58
57.796,-67.19
57.812,-71.12
57.828,-74.12
57.843,-74.73
57.859,-71.71
57.875,-64.45
57.890,-53.36
57.906,-39.67
57.921,-25.0
57.937,-10.92
57.953,1.54
57.968,12.02
57.984,20.54
58.000,27.29
58.015,32.35
58.031,35.7
58.046,37.4
58.062,37.69
58.078,37.04
58.093,36.05
58.109,35.2
58.125,34.75
58.140,34.71
58.156,34.85
58.171,34.89
58.187,34.64
58.203,34.03
58.218,33.14
58.234,32.02
58.250,30.65
58.265,28.82
58.281,26.28
58.296,22.82
58.312,18.45
58.328,13.51
58.343,8.51
58.359,3.96
58.375,0.18
58.390,-2.9
58.406,-5.58
58.421,-8.22
58.437,-11.05
58.453,-14.12
58.468,-17.41
58.484,-20.95
58.500,-24.88
58.515,-29.36
58.531,-34.43
58.546,-39.75
58.562,-44.63
58.578,-48.09
58.593,-49.19
58.609,-47.3
58.625,-42.33
58.640,-34.68
58.656,-25.17
58.671,-14.77
58.687,-4.38
58.703,5.27
58.718,13.66
58.734,20.4
58.750,25.28
58.765,28.26
58.781,29.51
58.796,29.41
58.812,28.47
58.828,27.22
58.843,26.09
58.859,25.31
58.875,24.94
58.890,24.83
58.906,24.81
58.921,24.58
58.937,23.89
58.953,22.55
58.968,20.56
58.984,18.1
59.000,15.48
59.015,12.95
59.031,10.54
59.046,8.09
59.062,5.32
59.078,2.04
59.093,-1.74
59.109,-5.84
59.125,-10.09
59.140,-14.42
59.156,-18.89
59.171,-23.74
59.187,-29.15
59.203,-35.22
59.218,-41.8
59.234,-48.53
59.250,-54.83
59.265,-59.95
59.281,-63.11
59.296,-63.57
59.312,-60.87
59.328,-54.93
59.343,-46.09
59.359,-35.07
59.375,-22.85
59.390,-10.5
59.406,0.98
59.421,10.84
59.437,18.71
59.453,24.6
59.468,28.77
59.484,31.56
59.500,33.22
59.515,33.9
59.531,33.67
59.546,32.66
59.562,31.11
59.578,29.37
59.593,27.71
59.609,26.26
59.625,25.0
59.640,23.82
59.656,22.63
59.671,21.51
59.687,20.53
59.703,19.69
59.718,18.74
59.734,17.22
59.750,14.64
59.765,10.78
59.781,5.74
59.812,-5.85
59.828,-11.36
59.843,-16.34
59.859,-20.86
59.875,-25.17
59.890,-29.48
59.906,-33.94
59.921,-38.69
59.937,-43.78
59.953,-49.1
59.968,-54.19
59.984,-58.13
