timestamp,value
00.000,104.26
00.015,134.9
00.031,159.13
00.046,177.0
00.062,189.52
00.078,198.04
00.093,203.92
00.109,208.31
00.125,212.02
00.140,215.37
00.156,217.84
00.171,218.12
00.187,214.47
00.203,205.33
00.218,190.21
00.234,170.23
00.250,147.88
00.265,126.33
00.281,108.42
00.296,95.6
00.312,87.93
00.328,84.29
00.343,82.95
00.359,82.15
00.375,80.29
00.390,76.17
00.406,68.91
00.421,58.2
00.437,44.28
00.453,27.96
00.468,10.47
00.484,-6.91
00.500,-23.01
00.515,-37.05
00.531,-48.69
00.546,-58.13
00.562,-65.88
00.578,-72.59
00.593,-78.56
00.609,-83.46
00.625,-86.46
00.640,-86.55
00.656,-83.45
00.671,-77.98
00.687,-71.99
00.703,-67.7
00.718,-66.81
00.734,-69.84
00.750,-76.14
00.765,-84.37
00.781,-93.13
00.796,-101.48
00.812,-108.79
00.828,-114.58
00.843,-118.1
00.859,-118.52
00.875,-115.29
00.890,-108.41
00.906,-98.71
00.921,-87.58
00.937,-76.55
00.953,-66.77
00.968,-58.75
00.984,-52.3
01.000,-46.78
01.015,-41.49
01.031,-35.86
01.046,-29.63
01.062,-22.82
01.078,-15.61
01.093,-8.19
01.109,-0.85
01.125,6.04
01.140,12.03
01.156,16.58
01.171,19.31
01.187,20.15
01.203,19.55
01.218,18.63
01.234,18.97
01.250,22.26
01.265,29.84
01.281,42.25
01.296,59.02
01.312,78.89
01.328,100.11
01.343,120.86
01.359,139.74
01.375,155.82
01.390,168.69
01.406,178.34
01.421,185.12
01.437,189.65
01.453,192.87
01.468,195.81
01.484,199.37
01.500,204.0
01.515,209.51
01.531,215.04
01.546,219.2
01.562,220.31
01.578,216.68
01.593,206.94
01.609,190.35
01.625,166.91
01.640,137.37
01.656,103.15
01.671,65.95
01.687,27.45
01.703,-11.21
01.718,-49.42
01.734,-86.93
01.750,-123.46
01.765,-158.43
01.781,-190.88
01.796,-219.8
01.812,-244.54
01.828,-265.2
01.843,-282.58
01.859,-297.59
01.875,-310.44
01.890,-320.19
01.906,-324.97
01.921,-322.81
01.937,-312.75
01.953,-295.55
01.968,-273.51
01.984,-249.63
02.000,-226.31
02.015,-204.63
02.031,-184.31
02.046,-164.36
02.062,-144.0
02.078,-123.27
02.093,-102.99
02.109,-84.19
02.125,-67.5
02.140,-52.73
02.156,-38.89
02.171,-24.72
02.187,-9.24
02.203,7.84
02.218,25.93
02.234,43.95
02.250,60.94
02.265,76.54
02.281,91.14
02.296,105.52
02.312,120.23
02.328,135.05
02.343,148.78
02.359,159.59
02.375,165.72
02.390,166.33
02.406,161.86
02.421,153.97
02.437,145.0
02.453,137.28
02.468,132.6
02.484,131.8
02.500,134.28
02.515,137.89
02.531,139.08
02.546,133.71
02.562,118.59
02.578,93.01
02.593,59.63
02.609,24.11
02.625,-6.69
02.640,-27.34
02.656,-35.78
02.671,-34.03
02.687,-26.93
02.703,-20.05
02.718,-17.42
02.734,-20.54
02.750,-28.62
02.765,-39.76
02.781,-52.17
02.796,-64.66
02.812,-76.55
02.828,-87.1
02.843,-95.23
02.859,-99.73
02.875,-100.07
02.890,-96.99
02.906,-92.57
02.921,-89.43
02.937,-89.3
02.953,-92.04
02.968,-95.4
02.984,-95.99
03.000,-90.9
03.015,-79.26
03.031,-62.75
03.046,-45.01
03.062,-30.25
03.078,-21.62
03.093,-20.44
03.109,-26.05
03.125,-36.38
03.140,-48.89
03.156,-61.33
03.171,-72.01
03.187,-79.94
03.203,-84.68
03.218,-86.2
03.234,-85.02
03.250,-82.03
03.265,-78.28
03.281,-74.57
03.296,-70.82
03.312,-65.86
03.328,-57.78
03.343,-44.7
03.359,-25.8
03.375,-1.87
03.390,24.86
03.406,51.64
03.421,76.22
03.437,97.75
03.453,116.52
03.468,133.18
03.484,147.77
03.500,159.33
03.515,166.08
03.531,166.37
03.546,159.64
03.562,146.72
03.578,129.62
03.593,110.56
03.609,91.2
03.625,72.42
03.640,54.64
03.656,38.37
03.671,24.44
03.687,13.6
03.703,5.67
03.718,-0.88
03.734,-8.62
03.750,-20.01
03.765,-35.9
03.781,-54.72
03.796,-72.85
03.812,-86.08
03.828,-91.53
03.843,-88.97
03.859,-80.8
03.875,-70.97
03.890,-63.18
03.906,-59.39
03.921,-59.41
03.937,-61.42
03.953,-63.18
03.968,-63.47
03.984,-62.67
04.000,-62.53
04.015,-65.14
04.031,-71.66
04.046,-81.43
04.062,-92.06
04.078,-100.21
04.093,-102.79
04.109,-98.08
04.125,-86.17
04.140,-68.55
04.156,-47.4
04.171,-24.81
04.187,-2.18
04.203,19.62
04.218,39.95
04.234,58.14
04.250,73.42
04.265,85.19
04.281,93.37
04.296,98.39
04.312,100.94
04.328,101.63
04.343,100.63
04.359,97.82
04.375,93.21
04.390,87.33
04.406,81.35
04.421,76.86
04.437,75.28
04.453,77.34
04.468,82.8
04.484,90.6
04.500,99.24
04.515,107.26
04.531,113.56
04.546,117.69
04.562,119.85
04.578,120.87
04.593,121.87
04.609,123.85
04.625,127.25
04.640,131.76
04.656,136.38
04.671,139.8
04.687,140.95
04.703,139.37
04.718,135.14
04.734,128.65
04.750,120.13
04.765,109.43
04.781,96.15
04.796,79.96
04.812,60.94
04.828,39.75
04.843,17.43
04.859,-4.88
04.875,-26.11
04.890,-45.45
04.906,-62.3
04.921,-76.38
04.937,-87.75
04.953,-96.98
04.968,-104.93
04.984,-112.48
05.000,-120.06
05.015,-127.4
05.031,-133.6
05.046,-137.66
05.062,-139.04
05.078,-137.81
05.093,-134.47
05.109,-129.43
05.125,-122.66
05.140,-113.69
05.156,-102.11
05.171,-88.03
05.187,-72.41
05.203,-56.68
05.218,-42.1
05.234,-29.15
05.250,-17.42
05.265,-5.97
05.281,5.99
05.296,18.49
05.312,30.7
05.328,41.17
05.343,48.44
05.359,51.6
05.375,50.62
05.390,46.43
05.406,40.9
05.421,36.18
05.437,34.26
05.453,35.97
05.468,40.34
05.484,44.51
05.500,44.65
05.515,37.43
05.531,21.47
05.546,-1.75
05.562,-28.31
05.578,-52.83
05.593,-70.07
05.609,-76.06
05.625,-69.13
05.640,-50.2
05.656,-22.96
05.671,6.68
05.687,31.57
05.703,44.89
05.718,42.06
05.734,21.96
05.750,-12.64
05.765,-56.02
05.781,-100.97
05.796,-140.51
05.812,-169.08
05.828,-183.5
05.843,-183.33
05.859,-170.76
05.875,-150.11
05.890,-126.56
05.906,-104.87
05.921,-88.33
05.937,-78.14
05.953,-73.61
05.968,-72.8
05.984,-73.32
06.000,-73.03
06.015,-70.54
06.031,-65.38
06.046,-57.93
06.062,-49.28
06.078,-40.94
06.093,-34.34
06.109,-30.46
06.125,-29.54
06.140,-31.14
06.156,-34.57
06.171,-39.47
06.187,-46.25
06.203,-56.28
06.218,-71.39
06.234,-92.82
06.250,-120.06
06.265,-150.34
06.281,-179.0
06.296,-201.08
06.312,-213.07
06.328,-214.19
06.343,-206.24
06.359,-192.39
06.375,-175.54
06.390,-157.12
06.406,-137.3
06.421,-115.69
06.437,-92.42
06.453,-68.55
06.468,-45.71
06.484,-25.28
06.500,-7.7
06.515,7.56
06.531,21.61
06.546,35.25
06.562,48.65
06.578,61.32
06.593,72.43
06.609,81.44
06.625,88.26
06.640,93.44
06.656,97.71
06.671,101.88
06.687,106.37
06.703,111.25
06.718,116.26
06.734,121.04
06.750,125.3
06.765,129.13
06.781,132.9
06.796,137.04
06.812,141.69
06.828,146.19
06.843,149.04
06.859,148.06
06.875,141.08
06.890,126.67
06.906,104.74
06.921,76.41
06.937,43.68
06.953,8.7
06.968,-26.49
06.984,-59.84
07.000,-89.03
07.015,-111.53
07.031,-125.0
07.046,-128.23
07.062,-121.87
07.078,-108.41
07.093,-91.53
07.109,-74.83
07.125,-60.89
07.140,-50.8
07.156,-44.49
07.171,-41.22
07.187,-39.94
07.203,-39.45
07.218,-38.46
07.234,-35.79
07.250,-30.81
07.265,-23.92
07.281,-16.53
07.296,-10.69
07.312,-8.28
07.328,-10.27
07.343,-16.37
07.359,-25.11
07.375,-34.3
07.390,-41.57
07.406,-45.02
07.421,-43.57
07.437,-37.28
07.453,-27.43
07.468,-16.22
07.484,-6.16
07.500,0.8
07.515,4.03
07.531,4.45
07.546,4.13
07.562,5.28
07.578,9.34
07.593,16.08
07.609,23.72
07.625,29.43
07.640,30.34
07.656,24.57
07.671,11.93
07.687,-5.83
07.703,-25.3
07.718,-42.14
07.734,-52.06
07.750,-51.71
07.765,-39.58
07.781,-16.22
07.796,15.99
07.812,53.53
07.828,92.67
07.843,130.25
07.859,164.14
07.875,193.11
07.890,216.87
07.906,235.59
07.921,249.68
07.937,259.68
07.953,266.21
07.968,270.16
07.984,272.66
08.000,274.99
08.015,278.03
08.031,281.62
08.046,284.02
08.062,282.0
08.078,271.65
08.093,249.69
08.109,214.86
08.125,168.6
08.140,114.89
08.156,59.04
08.171,6.17
08.187,-40.0
08.203,-77.63
08.218,-106.42
08.234,-126.87
08.250,-139.61
08.265,-145.34
08.281,-145.14
08.296,-140.94
08.312,-135.61
08.328,-132.42
08.343,-133.9
08.359,-140.92
08.375,-152.53
08.390,-166.64
08.406,-181.17
08.421,-194.76
08.437,-206.52
08.453,-215.08
08.468,-217.81
08.484,-211.0
08.500,-191.41
08.515,-158.44
08.531,-115.46
08.546,-69.43
08.562,-28.76
08.578,-0.23
08.593,13.24
08.609,13.24
08.625,4.42
08.640,-7.71
08.656,-18.97
08.671,-27.42
08.687,-33.01
08.703,-36.51
08.718,-38.45
08.734,-38.78
08.750,-37.05
08.765,-33.08
08.781,-27.44
08.796,-21.39
08.812,-16.33
08.828,-13.22
08.843,-12.12
08.859,-12.22
08.875,-12.43
08.890,-12.0
08.906,-11.02
08.921,-10.41
08.937,-11.44
08.953,-15.05
08.968,-21.43
08.984,-29.79
09.000,-38.79
09.015,-47.07
09.031,-53.78
09.046,-58.81
09.062,-62.75
09.078,-66.5
09.093,-70.92
09.109,-76.56
09.125,-83.63
09.140,-92.2
09.156,-102.23
09.171,-113.44
09.187,-125.15
09.203,-135.9
09.218,-143.53
09.234,-145.45
09.250,-139.59
09.265,-125.0
09.281,-102.47
09.296,-74.35
09.312,-43.79
09.328,-13.86
09.343,13.26
09.359,36.52
09.375,55.92
09.390,71.9
09.406,84.99
09.421,95.42
09.437,103.29
09.453,108.74
09.468,112.12
09.484,114.09
09.500,115.48
09.515,117.1
09.531,119.47
09.546,122.78
09.562,126.82
09.578,131.2
09.593,135.44
09.609,139.17
09.625,142.11
09.640,144.01
09.656,144.63
09.671,143.76
09.687,141.39
09.703,137.74
09.718,133.25
09.734,128.55
09.750,124.24
09.765,120.68
09.781,117.9
09.796,115.61
09.812,113.37
09.828,110.82
09.843,107.83
09.859,104.57
09.875,101.46
09.890,99.05
09.906,97.73
09.921,97.52
09.937,97.99
09.953,98.28
09.968,97.48
09.984,94.73
10.000,89.6
10.015,82.11
10.031,72.77
10.046,62.35
10.062,51.73
10.078,41.67
10.093,32.65
10.109,24.88
10.125,18.29
10.140,12.62
10.156,7.55
10.171,2.7
10.187,-2.23
10.203,-7.4
10.218,-12.8
10.234,-18.33
10.250,-23.81
10.265,-29.08
10.281,-34.12
10.296,-39.05
10.312,-44.05
10.328,-49.21
10.343,-54.41
10.359,-59.33
10.375,-63.66
10.390,-67.25
10.406,-70.33
10.421,-73.4
10.437,-77.0
10.453,-81.49
10.468,-86.77
10.484,-92.38
10.500,-97.67
10.515,-102.1
10.531,-105.52
10.546,-108.17
10.562,-110.6
10.578,-113.53
10.593,-117.73
10.609,-123.66
10.625,-131.29
10.640,-139.71
10.656,-147.02
10.671,-150.64
10.687,-147.91
10.703,-137.05
10.718,-117.77
10.734,-91.55
10.750,-61.26
10.765,-30.26
10.781,-1.49
10.796,23.05
10.812,42.5
10.828,56.88
10.843,66.64
10.859,72.36
10.875,74.7
10.890,74.46
10.906,72.58
10.921,70.18
10.937,68.23
10.953,67.36
10.968,67.66
10.984,68.64
11.000,69.51
11.015,69.61
11.031,68.68
11.046,66.94
11.062,64.92
11.078,63.1
11.093,61.62
11.109,60.09
11.125,57.82
11.140,54.11
11.156,48.61
11.171,41.53
11.187,33.49
11.203,25.35
11.218,17.83
11.234,11.29
11.250,5.54
11.265,0.03
11.281,-5.92
11.296,-12.91
11.312,-21.15
11.328,-30.3
11.343,-39.38
11.359,-46.93
11.375,-51.22
11.390,-50.75
11.406,-44.62
11.421,-33.01
11.437,-17.11
11.453,1.08
11.468,19.35
11.484,35.81
11.500,49.26
11.515,59.22
11.531,65.79
11.546,69.28
11.562,70.07
11.578,68.56
11.593,65.23
11.609,60.71
11.625,55.74
11.640,50.98
11.656,46.86
11.671,43.56
11.687,40.91
11.703,38.64
11.718,36.46
11.734,34.26
11.750,32.02
11.765,29.76
11.781,27.42
11.796,24.76
11.812,21.43
11.828,17.09
11.843,11.56
11.859,4.98
11.875,-2.23
11.890,-9.49
11.906,-16.27
11.921,-22.27
11.937,-27.57
11.953,-32.6
11.968,-38.0
11.984,-44.35
12.000,-51.79
12.015,-59.83
12.031,-67.14
12.046,-71.87
12.062,-72.15
12.078,-66.71
12.093,-55.39
12.109,-39.29
12.125,-20.41
12.140,-1.12
12.156,16.53
12.171,31.26
12.187,42.56
12.203,50.52
12.218,55.55
12.234,58.09
12.250,58.62
12.265,57.63
12.281,55.64
12.296,53.15
12.312,50.57
12.328,48.12
12.343,45.83
12.359,43.65
12.375,41.42
12.390,39.1
12.406,36.71
12.421,34.31
12.437,31.95
12.453,29.59
12.468,27.05
12.484,24.05
12.500,20.26
12.515,15.44
12.531,9.62
12.546,3.13
12.562,-3.52
12.578,-9.77
12.593,-15.28
12.609,-20.08
12.625,-24.61
12.640,-29.51
12.656,-35.43
12.671,-42.59
12.687,-50.61
12.703,-58.33
12.718,-64.04
12.734,-65.9
12.750,-62.52
12.765,-53.52
12.781,-39.66
12.796,-22.77
12.812,-5.09
12.828,11.35
12.843,25.3
12.859,36.35
12.875,44.8
12.890,51.12
12.906,55.67
12.921,58.53
12.937,59.68
12.953,59.28
12.968,57.76
12.984,55.71
13.000,53.71
13.015,52.02
13.031,50.53
13.046,48.91
13.062,46.84
13.078,44.22
13.093,41.27
13.109,38.3
13.125,35.59
13.140,33.16
13.156,30.66
13.171,27.61
13.187,23.48
13.203,18.01
13.218,11.27
13.234,3.72
13.250,-4.03
13.265,-11.35
13.281,-17.86
13.296,-23.58
13.312,-28.83
13.328,-34.16
13.343,-40.1
13.359,-46.99
13.375,-54.85
13.390,-63.24
13.406,-71.13
13.421,-77.03
13.437,-79.3
13.453,-76.61
13.468,-68.42
13.484,-55.23
13.500,-38.56
13.515,-20.44
13.531,-2.85
13.546,12.74
13.562,25.68
13.578,35.93
13.593,43.84
13.609,49.73
13.625,53.78
13.640,56.07
13.656,56.62
13.671,55.66
13.687,53.64
13.703,51.14
13.718,48.74
13.734,46.85
13.750,45.51
13.765,44.47
13.781,43.38
13.796,41.86
13.812,39.72
13.828,37.0
13.843,33.9
13.859,30.59
13.875,27.21
13.890,23.75
13.906,20.09
13.921,16.07
13.937,11.59
13.953,6.6
13.968,1.2
13.984,-4.47
14.000,-10.23
14.015,-15.94
14.031,-21.46
14.046,-26.75
14.062,-31.8
14.078,-36.71
14.093,-41.62
14.109,-46.75
14.125,-52.34
14.140,-58.59
14.156,-65.44
14.171,-72.36
14.187,-78.27
14.203,-81.65
14.218,-81.04
14.234,-75.41
14.250,-64.72
14.265,-49.94
14.281,-32.84
14.296,-15.4
14.312,0.76
14.328,14.65
14.343,26.04
14.359,35.03
14.375,41.86
14.390,46.73
14.406,49.83
14.421,51.32
14.437,51.61
14.453,51.14
14.468,50.37
14.484,49.58
14.500,48.88
14.515,48.06
14.531,46.91
14.546,45.28
14.562,43.15
14.578,40.67
14.593,38.02
14.609,35.29
14.625,32.47
14.640,29.41
14.656,25.88
14.671,21.75
14.687,17.04
14.703,12.01
14.718,7.0
14.734,2.37
14.750,-1.78
14.765,-5.56
14.781,-9.29
14.796,-13.41
14.812,-18.16
14.828,-23.57
14.843,-29.36
14.859,-35.14
14.875,-40.54
14.890,-45.43
14.906,-49.91
14.921,-54.23
14.937,-58.79
14.953,-63.9
14.968,-69.62
14.984,-75.66
15.000,-81.16
15.015,-84.85
15.031,-85.28
15.046,-81.22
15.062,-72.21
15.078,-58.82
15.093,-42.55
15.109,-25.39
15.125,-9.29
15.140,4.48
15.156,15.4
15.171,23.57
15.187,29.5
15.203,33.67
15.218,36.4
15.234,37.88
15.250,38.29
15.265,37.89
15.281,37.12
15.296,36.37
15.312,35.85
15.328,35.58
15.343,35.36
15.359,34.9
15.375,34.04
15.390,32.75
15.406,31.13
15.421,29.28
15.437,27.18
15.453,24.69
15.468,21.57
15.484,17.64
15.500,13.0
15.515,7.92
15.531,2.76
15.546,-2.22
15.562,-6.87
15.578,-11.26
15.593,-15.5
15.609,-19.65
15.625,-23.67
15.640,-27.37
15.656,-30.57
15.671,-33.24
15.687,-35.5
15.703,-37.76
15.718,-40.45
15.734,-44.03
15.750,-48.71
15.765,-54.3
15.781,-60.02
15.796,-64.58
15.812,-66.48
15.828,-64.41
15.843,-57.69
15.859,-46.59
15.875,-32.23
15.890,-16.37
15.906,-0.79
15.921,13.09
15.937,24.53
15.953,33.38
15.968,39.87
15.984,44.31
16.000,46.91
16.015,47.9
16.031,47.48
16.046,46.04
16.062,44.09
16.078,42.21
16.093,40.73
16.109,39.77
16.125,39.1
16.140,38.31
16.156,37.03
16.171,35.09
16.187,32.56
16.203,29.7
16.218,26.81
16.234,24.06
16.250,21.47
16.265,18.91
16.281,16.15
16.296,13.04
16.312,9.46
16.328,5.41
16.343,0.98
16.359,-3.7
16.375,-8.47
16.390,-13.14
16.406,-17.58
16.421,-21.75
16.437,-25.62
16.453,-29.33
16.468,-33.12
16.484,-37.31
16.500,-42.17
16.515,-47.83
16.531,-54.01
16.546,-59.97
16.562,-64.54
16.578,-66.37
16.593,-64.38
16.609,-58.13
16.625,-48.04
16.640,-35.24
16.656,-21.22
16.671,-7.42
16.687,5.14
16.703,15.97
16.718,24.99
16.734,32.33
16.750,38.11
16.765,42.38
16.781,45.08
16.796,46.23
16.812,46.0
16.828,44.73
16.843,42.86
16.859,40.86
16.875,39.02
16.890,37.5
16.906,36.25
16.921,35.09
16.937,33.91
16.953,32.6
16.968,31.1
16.984,29.3
17.000,27.05
17.015,24.15
17.031,20.5
17.046,16.16
17.062,11.36
17.078,6.4
17.093,1.54
17.109,-3.1
17.125,-7.63
17.140,-12.16
17.156,-16.83
17.171,-21.59
17.187,-26.28
17.203,-30.71
17.218,-34.72
17.234,-38.38
17.250,-41.86
17.265,-45.48
17.281,-49.51
17.296,-54.17
17.312,-59.47
17.328,-65.07
17.343,-70.29
17.359,-74.06
17.375,-75.16
17.390,-72.55
17.406,-65.74
17.421,-54.99
17.437,-41.36
17.453,-26.35
17.468,-11.47
17.484,2.04
17.500,13.56
17.515,22.84
17.531,29.95
17.546,35.04
17.562,38.36
17.578,40.14
17.593,40.67
17.609,40.29
17.625,39.33
17.640,38.12
17.656,36.85
17.671,35.68
17.687,34.69
17.703,33.97
17.718,33.55
17.734,33.42
17.750,33.49
17.765,33.55
17.781,33.27
17.796,32.27
17.812,30.2
17.828,26.87
17.843,22.35
17.859,16.97
17.875,11.21
17.890,5.6
17.906,0.44
17.921,-4.26
17.937,-8.62
17.953,-12.88
17.968,-17.19
17.984,-21.54
18.000,-25.77
18.015,-29.76
18.031,-33.37
18.046,-36.67
18.062,-39.84
18.078,-43.14
18.093,-46.93
18.109,-51.45
18.125,-56.67
18.140,-62.12
18.156,-66.88
18.171,-69.64
18.187,-69.12
18.203,-64.45
18.218,-55.6
18.234,-43.4
18.250,-29.35
18.265,-15.14
18.281,-2.21
18.296,8.67
18.312,17.29
18.328,23.86
18.343,28.78
18.359,32.32
18.375,34.72
18.390,36.13
18.406,36.8
18.421,36.89
18.437,36.63
18.453,36.11
18.468,35.3
18.484,34.14
18.500,32.6
18.515,30.74
18.531,28.71
18.546,26.75
18.562,24.91
18.578,23.22
18.593,21.51
18.609,19.62
18.625,17.43
18.640,14.88
18.656,11.98
18.671,8.76
18.687,5.28
18.703,1.54
18.718,-2.42
18.734,-6.64
18.750,-11.06
18.765,-15.68
18.781,-20.46
18.796,-25.23
18.812,-29.82
18.828,-34.03
18.843,-37.74
18.859,-41.02
18.875,-44.17
18.890,-47.6
18.906,-51.66
18.921,-56.37
18.937,-61.15
18.953,-64.9
18.968,-66.25
18.984,-64.08
19.000,-57.82
19.015,-47.88
19.031,-35.34
19.046,-21.78
19.062,-8.65
19.078,3.0
19.093,12.63
19.109,20.13
19.125,25.61
19.140,29.24
19.156,31.22
19.171,31.88
19.187,31.62
19.203,30.94
19.218,30.29
19.234,29.92
19.250,29.84
19.265,29.92
19.281,29.92
19.296,29.67
19.312,29.13
19.328,28.28
19.343,27.18
19.359,25.82
19.375,24.2
19.390,22.28
19.406,20.06
19.421,17.49
19.437,14.58
19.453,11.32
19.468,7.69
19.484,3.65
19.500,-0.81
19.515,-5.63
19.531,-10.63
19.546,-15.51
19.562,-19.97
19.578,-23.79
19.593,-26.97
19.609,-29.78
19.625,-32.6
19.640,-35.89
19.656,-39.98
19.671,-44.92
19.687,-50.44
19.703,-55.91
19.718,-60.28
19.734,-62.3
19.750,-60.82
19.765,-55.13
19.781,-45.33
19.796,-32.41
19.812,-17.93
19.828,-3.62
19.843,9.17
19.859,19.7
19.875,27.95
19.890,34.2
19.906,38.82
19.921,42.0
19.937,43.89
19.953,44.55
19.968,44.28
19.984,43.44
20.000,42.48
20.015,41.74
20.031,41.3
20.046,41.01
20.062,40.62
20.078,39.85
20.093,38.55
20.109,36.72
20.125,34.47
20.140,31.93
20.156,29.17
20.171,26.16
20.187,22.81
20.203,18.96
20.218,14.52
20.234,9.45
20.250,3.89
20.265,-1.98
20.281,-7.86
20.296,-13.48
20.312,-18.68
20.328,-23.33
20.343,-27.5
20.359,-31.34
20.375,-35.12
20.390,-39.12
20.406,-43.68
20.421,-48.93
20.437,-54.8
20.453,-60.78
20.468,-65.88
20.484,-68.88
20.500,-68.61
20.515,-64.29
20.531,-55.88
20.546,-44.13
20.562,-30.3
20.578,-15.85
20.593,-2.06
20.609,10.23
20.625,20.61
20.640,28.97
20.656,35.36
20.671,39.85
20.687,42.56
20.703,43.69
20.718,43.56
20.734,42.54
20.750,41.05
20.765,39.42
20.781,37.89
20.796,36.52
20.812,35.28
20.828,34.05
20.843,32.73
20.859,31.16
20.875,29.28
20.890,27.09
20.906,24.62
20.921,21.87
20.937,18.85
20.953,15.56
20.968,12.03
20.984,8.31
21.000,4.4
21.015,0.3
21.031,-4.03
21.046,-8.65
21.062,-13.51
21.078,-18.51
21.093,-23.47
21.109,-28.24
21.125,-32.74
21.140,-37.11
21.156,-41.57
21.171,-46.43
21.187,-51.93
21.203,-58.02
21.218,-64.25
21.234,-69.71
21.250,-73.17
21.265,-73.26
21.281,-69.01
21.296,-60.15
21.312,-47.35
21.328,-32.08
21.343,-16.12
21.359,-1.13
21.375,11.85
21.390,22.35
21.406,30.5
21.421,36.56
21.437,40.83
21.453,43.48
21.468,44.66
21.484,44.64
21.500,43.79
21.515,42.56
21.531,41.36
21.546,40.49
21.562,39.98
21.578,39.72
21.593,39.51
21.609,39.09
21.625,38.34
21.640,37.19
21.656,35.59
21.671,33.55
21.687,31.01
21.703,27.93
21.718,24.35
21.734,20.33
21.750,15.99
21.765,11.47
21.781,6.83
21.796,2.06
21.812,-2.88
21.828,-7.96
21.843,-13.11
21.859,-18.18
21.875,-23.01
21.890,-27.57
21.906,-31.93
21.921,-36.28
21.937,-40.89
21.953,-46.02
21.968,-51.78
21.984,-58.08
22.000,-64.45
22.015,-70.03
22.031,-73.64
22.046,-74.07
22.062,-70.39
22.078,-62.38
22.093,-50.66
22.109,-36.52
22.125,-21.61
22.140,-7.38
22.156,5.26
22.171,15.92
22.187,24.7
22.203,31.84
22.218,37.48
22.234,41.7
22.250,44.48
22.265,45.83
22.281,45.96
22.296,45.17
22.312,43.77
22.328,42.1
22.343,40.36
22.359,38.66
22.375,37.05
22.390,35.53
22.406,34.03
22.421,32.53
22.437,30.98
22.453,29.29
22.468,27.35
22.484,25.07
22.500,22.29
22.515,19.02
22.531,15.33
22.546,11.32
22.562,7.16
22.578,2.89
22.593,-1.63
22.609,-6.54
22.625,-11.94
22.640,-17.74
22.656,-23.67
22.671,-29.34
22.687,-34.5
22.703,-38.99
22.718,-42.97
22.734,-46.77
22.750,-50.75
22.765,-55.23
22.781,-60.26
22.796,-65.45
22.812,-69.95
22.828,-72.56
22.843,-72.01
22.859,-67.42
22.875,-58.67
22.890,-46.46
22.906,-32.19
22.921,-17.5
22.937,-3.79
22.953,8.07
22.968,17.72
22.984,25.24
23.000,30.81
23.015,34.65
23.031,36.93
23.046,37.83
23.062,37.63
23.078,36.74
23.093,35.64
23.109,34.72
23.125,34.17
23.140,33.98
23.156,33.91
23.171,33.68
23.187,33.11
23.203,32.23
23.218,31.22
23.234,30.28
23.250,29.48
23.265,28.71
23.281,27.75
23.296,26.35
23.312,24.38
23.328,21.86
23.343,18.89
23.359,15.6
23.375,12.06
23.390,8.33
23.406,4.49
23.421,0.7
23.437,-2.78
23.453,-5.7
23.468,-7.83
23.484,-9.23
23.500,-10.13
23.515,-10.95
23.531,-12.02
23.546,-13.41
23.562,-14.63
23.578,-14.64
23.593,-12.1
23.609,-5.7
23.625,5.23
23.640,20.51
23.656,39.02
23.671,59.04
23.687,78.66
23.703,96.32
23.718,111.14
23.734,123.07
23.750,132.79
23.765,141.5
23.781,150.66
23.796,161.55
23.812,174.75
23.828,189.8
23.843,205.04
23.859,218.05
23.875,226.25
23.890,227.71
23.906,221.58
23.921,208.28
23.937,189.13
23.953,165.79
23.968,139.92
23.984,112.67
24.000,84.73
24.015,56.18
24.031,26.81
24.046,-3.67
24.062,-35.11
24.078,-66.62
24.093,-96.42
24.109,-122.0
24.125,-140.92
24.140,-151.56
24.156,-153.9
24.171,-149.54
24.187,-141.27
24.203,-132.1
24.218,-124.38
24.234,-119.31
24.250,-116.88
24.265,-116.34
24.281,-116.58
24.296,-116.44
24.312,-114.79
24.328,-110.39
24.343,-102.19
24.359,-89.53
24.375,-72.65
24.390,-52.81
24.406,-32.07
24.421,-12.57
24.437,4.15
24.453,17.64
24.468,28.55
24.484,37.98
24.500,47.05
24.515,56.11
24.531,64.64
24.546,71.39
24.562,74.87
24.578,73.94
24.593,68.23
24.609,58.37
24.625,45.69
24.640,31.97
24.656,18.67
24.671,6.69
24.687,-3.86
24.703,-13.4
24.718,-22.49
24.734,-31.57
24.750,-40.82
24.765,-50.39
24.781,-60.51
24.796,-71.64
24.812,-84.1
24.828,-97.81
24.843,-112.07
24.859,-125.72
24.875,-137.6
24.890,-147.11
24.906,-154.5
24.921,-160.63
24.937,-166.73
24.953,-173.8
24.968,-182.21
24.984,-191.67
25.000,-201.07
25.015,-208.62
25.031,-212.26
25.046,-210.14
25.062,-201.19
25.078,-185.69
25.093,-165.15
25.109,-141.97
25.125,-118.6
25.140,-96.89
25.156,-77.68
25.171,-60.93
25.187,-46.26
25.203,-33.22
25.218,-21.69
25.234,-11.74
25.250,-3.49
25.265,3.14
25.281,8.41
25.296,12.66
25.312,16.16
25.328,18.9
25.343,20.82
25.359,21.77
25.375,21.91
25.390,21.68
25.406,21.79
25.421,22.87
25.437,25.24
25.453,28.63
25.468,32.32
25.484,35.45
25.500,37.44
25.515,38.34
25.531,38.92
25.546,40.27
25.562,43.46
25.578,48.99
25.593,56.5
25.609,64.81
25.625,72.24
25.640,77.18
25.656,78.72
25.671,77.14
25.687,74.06
25.703,72.09
25.718,74.11
25.734,82.32
25.750,97.34
25.765,118.13
25.781,142.23
25.796,166.76
25.812,189.45
25.828,209.22
25.843,226.3
25.859,241.68
25.875,256.36
25.890,270.75
25.906,284.5
25.921,296.46
25.937,304.88
25.953,307.75
25.968,303.13
25.984,289.64
26.000,267.01
26.015,236.34
26.031,199.81
26.046,160.12
26.062,119.63
26.078,79.76
26.093,41.15
26.109,4.29
26.125,-29.88
26.140,-59.88
26.156,-84.06
26.171,-101.59
26.187,-112.71
26.203,-118.7
26.218,-121.37
26.234,-122.52
26.250,-123.93
26.265,-127.61
26.281,-135.68
26.296,-149.76
26.312,-169.96
26.328,-193.92
26.343,-216.96
26.359,-233.41
26.375,-238.4
26.390,-229.63
26.406,-207.86
26.421,-176.28
26.437,-139.28
26.453,-101.17
26.468,-65.46
26.484,-34.73
26.500,-10.59
26.515,6.37
26.531,16.55
26.546,21.29
26.562,22.57
26.578,22.39
26.593,22.31
26.609,23.09
26.625,24.71
26.640,26.45
26.656,27.25
26.671,25.84
26.687,21.09
26.703,12.3
26.718,-0.71
26.734,-17.51
26.750,-37.15
26.765,-58.5
26.781,-80.58
26.796,-102.68
26.812,-124.46
26.828,-145.67
26.843,-165.82
26.859,-184.1
26.875,-199.35
26.890,-210.44
26.906,-216.91
26.921,-219.23
26.937,-218.7
26.953,-216.74
26.968,-213.93
26.984,-209.24
27.000,-200.28
27.015,-184.33
27.031,-159.61
27.046,-126.45
27.062,-87.3
27.078,-45.8
27.093,-5.55
27.109,30.97
27.125,62.6
27.140,88.98
27.156,109.93
27.171,125.02
27.187,133.79
27.203,136.43
27.218,134.28
27.234,129.78
27.250,125.68
27.265,123.85
27.281,124.12
27.296,124.09
27.312,119.97
27.328,108.35
27.343,88.0
27.359,60.91
27.375,31.75
27.390,6.32
27.406,-10.61
27.421,-16.91
27.437,-13.48
27.453,-3.41
27.468,9.3
27.484,20.99
27.500,29.1
27.515,32.1
27.531,29.5
27.546,21.68
27.562,9.71
27.578,-4.68
27.593,-19.63
27.609,-33.53
27.625,-45.6
27.640,-55.84
27.656,-64.86
27.671,-73.25
27.687,-81.14
27.703,-88.04
27.718,-92.93
27.734,-94.65
27.750,-92.41
27.765,-86.09
27.781,-76.28
27.796,-64.27
27.812,-51.7
27.828,-40.19
27.843,-31.09
27.859,-25.17
27.875,-22.45
27.890,-22.4
27.906,-24.08
27.921,-26.4
27.937,-28.38
27.953,-29.23
27.968,-28.39
27.984,-25.74
28.000,-21.53
28.015,-16.45
28.031,-11.37
28.046,-7.18
28.062,-4.49
28.078,-3.57
28.093,-4.36
28.109,-6.61
28.125,-10.23
28.140,-15.27
28.156,-22.01
28.171,-30.7
28.187,-41.41
28.203,-53.89
28.218,-67.4
28.234,-80.71
28.250,-92.13
28.265,-99.78
28.281,-102.02
28.296,-97.79
28.312,-86.99
28.328,-70.51
28.343,-50.04
28.359,-27.71
28.375,-5.57
28.390,14.68
28.406,31.8
28.421,44.92
28.437,53.58
28.453,57.73
28.468,57.8
28.484,54.76
28.500,50.04
28.515,45.22
28.531,41.67
28.546,40.28
28.562,41.29
28.578,44.48
28.593,49.34
28.609,55.41
28.625,62.34
28.640,69.94
28.656,78.02
28.671,86.27
28.687,94.2
28.703,101.17
28.718,106.57
28.734,110.0
28.750,111.38
28.765,111.02
28.781,109.46
28.796,107.24
28.812,104.69
28.828,101.78
28.843,97.95
28.859,92.24
28.875,83.71
28.890,72.06
28.906,58.08
28.921,43.9
28.937,32.56
28.953,27.01
28.968,29.1
28.984,38.71
29.000,53.65
29.015,70.46
29.031,85.56
29.046,96.36
29.062,101.66
29.078,101.53
29.093,96.62
29.109,87.51
29.125,74.59
29.140,58.05
29.156,38.45
29.171,16.91
29.187,-4.87
29.203,-25.04
29.218,-42.09
29.234,-55.23
29.250,-64.66
29.265,-71.24
29.281,-76.06
29.296,-79.87
29.312,-82.97
29.328,-85.25
29.343,-86.59
29.359,-87.25
29.375,-87.87
29.390,-89.12
29.406,-91.28
29.421,-93.89
29.437,-95.96
29.453,-96.45
29.468,-94.94
29.484,-91.96
29.500,-88.84
29.515,-87.18
29.531,-88.06
29.546,-91.54
29.562,-96.47
29.578,-100.75
29.593,-101.79
29.609,-97.29
29.625,-85.81
29.640,-67.26
29.656,-42.82
29.671,-14.56
29.687,15.28
29.703,44.91
29.718,73.25
29.734,99.71
29.750,123.8
29.765,144.77
29.781,161.59
29.796,173.21
29.812,179.07
29.828,179.32
29.843,174.86
29.859,167.15
29.875,157.77
29.890,148.0
29.906,138.52
29.921,129.39
29.937,120.09
29.953,109.95
29.968,98.59
29.984,86.42
30.000,74.85
30.015,66.12
30.031,62.57
30.046,65.73
30.062,75.42
30.078,89.27
30.093,103.01
30.109,111.64
30.125,111.02
30.140,99.35
30.156,78.21
30.171,52.08
30.187,26.9
30.203,7.7
30.218,-3.45
30.234,-8.51
30.250,-12.65
30.265,-21.94
30.281,-40.56
30.296,-68.47
30.312,-101.13
30.328,-131.01
30.343,-150.35
30.359,-153.87
30.375,-140.5
30.390,-113.48
30.406,-78.91
30.421,-43.85
30.437,-14.24
30.453,6.18
30.468,16.29
30.484,17.2
30.500,11.45
30.515,2.23
30.531,-7.58
30.546,-15.96
30.562,-22.42
30.578,-28.1
30.593,-35.39
30.609,-47.05
30.625,-64.88
30.640,-88.78
30.656,-116.07
30.671,-142.03
30.687,-161.12
30.703,-168.76
30.718,-162.85
30.734,-144.34
30.750,-116.88
30.765,-85.59
30.781,-55.73
30.796,-31.18
30.812,-13.75
30.828,-3.03
30.843,3.07
30.859,7.38
30.875,12.42
30.890,19.59
30.906,28.87
30.921,38.96
30.937,47.94
30.953,53.67
30.968,54.56
30.984,50.06
31.000,40.89
31.015,29.06
31.031,17.21
31.046,7.84
31.062,2.32
31.078,0.3
31.093,0.01
31.109,-0.45
31.125,-1.49
31.140,-1.15
31.156,4.56
31.171,19.48
31.187,44.73
31.203,76.84
31.218,107.97
31.234,128.4
31.250,130.06
31.265,109.65
31.281,69.71
31.296,17.61
31.312,-37.33
31.328,-86.68
31.343,-124.96
31.359,-149.99
31.375,-162.21
31.390,-163.48
31.406,-156.14
31.421,-142.75
31.437,-125.8
31.453,-107.72
31.468,-90.64
31.484,-76.01
31.500,-64.48
31.515,-55.76
31.531,-49.22
31.546,-44.11
31.562,-40.26
31.578,-38.08
31.593,-38.56
31.609,-42.87
31.625,-51.93
31.640,-66.08
31.656,-84.74
31.671,-106.58
31.687,-129.73
31.703,-152.26
31.718,-172.58
31.734,-189.69
31.750,-203.0
31.765,-212.13
31.781,-216.69
31.796,-216.34
31.812,-211.05
31.828,-201.36
31.843,-188.48
31.859,-174.03
31.875,-159.51
31.890,-145.97
31.906,-133.79
31.921,-122.95
31.937,-113.38
31.953,-105.22
31.968,-98.62
31.984,-93.62
32.000,-89.8
32.015,-86.33
32.031,-82.16
32.046,-76.5
32.062,-69.17
32.078,-60.64
32.093,-51.73
32.109,-43.08
32.125,-34.81
32.140,-26.35
32.156,-16.94
32.171,-6.05
32.187,6.1
32.203,18.47
32.218,29.55
32.234,37.91
32.250,42.78
32.265,44.23
32.281,43.07
32.296,40.41
32.312,37.22
32.328,34.05
32.343,30.98
32.359,27.77
32.375,24.02
32.390,19.32
32.406,13.27
32.421,5.6
32.437,-3.65
32.453,-14.05
32.468,-24.48
32.484,-33.16
32.500,-37.89
32.515,-36.73
32.531,-28.54
32.546,-13.48
32.562,7.05
32.578,30.76
32.593,55.08
32.609,77.81
32.625,97.35
32.640,112.89
32.656,124.11
32.671,131.08
32.687,134.09
32.703,133.65
32.718,130.54
32.734,125.74
32.750,120.37
32.765,115.36
32.781,111.27
32.796,108.21
32.812,105.86
32.828,103.75
32.843,101.57
32.859,99.28
32.875,97.09
32.890,95.28
32.906,93.79
32.921,92.21
32.937,89.9
32.953,86.23
32.968,80.9
32.984,74.11
33.000,66.43
33.015,58.53
33.031,51.01
33.046,43.96
33.062,37.21
33.078,30.31
33.093,22.73
33.109,14.09
33.125,4.33
33.140,-6.13
33.156,-16.28
33.171,-24.5
33.187,-28.91
33.203,-27.86
33.218,-20.45
33.234,-7.0
33.250,11.0
33.265,31.42
33.281,51.97
33.296,70.8
33.312,86.81
33.328,99.49
33.343,108.75
33.359,114.71
33.375,117.57
33.390,117.66
33.406,115.55
33.421,111.86
33.437,107.22
33.453,102.16
33.468,96.96
33.484,91.76
33.500,86.65
33.515,81.74
33.531,77.19
33.546,73.16
33.562,69.76
33.578,66.94
33.593,64.52
33.609,62.14
33.625,59.33
33.640,55.63
33.656,50.73
33.671,44.56
33.687,37.34
33.703,29.61
33.718,21.94
33.734,14.87
33.750,8.54
33.765,2.73
33.781,-3.19
33.796,-9.88
33.812,-17.78
33.828,-26.68
33.843,-35.5
33.859,-42.58
33.875,-45.94
33.890,-44.07
33.906,-36.32
33.921,-23.2
33.937,-6.23
33.953,12.53
33.968,31.0
33.984,47.5
34.000,60.96
34.015,70.86
34.031,77.16
34.046,80.14
34.062,80.29
34.078,78.29
34.093,74.9
34.109,70.83
34.125,66.67
34.140,62.82
34.156,59.41
34.171,56.37
34.187,53.47
34.203,50.43
34.218,47.11
34.234,43.51
34.250,39.73
34.265,35.99
34.281,32.34
34.296,28.67
34.312,24.72
34.328,20.19
34.343,14.93
34.359,9.05
34.375,2.88
34.390,-3.18
34.406,-8.85
34.421,-14.1
34.437,-19.12
34.453,-24.29
34.468,-29.96
34.484,-36.48
34.500,-43.9
34.515,-51.99
34.531,-60.07
34.546,-66.94
34.562,-71.15
34.578,-71.22
34.593,-66.17
34.609,-55.85
34.625,-41.17
34.640,-23.77
34.656,-5.62
34.671,11.42
34.687,26.04
34.703,37.51
34.718,45.62
34.734,50.49
34.750,52.46
34.765,52.0
34.781,49.71
34.796,46.31
34.812,42.44
34.828,38.64
34.843,35.15
34.859,32.0
34.875,29.09
34.890,26.31
34.906,23.61
34.921,21.06
34.937,18.76
34.953,16.7
34.968,14.74
34.984,12.6
35.000,9.93
35.015,6.51
35.031,2.34
35.046,-2.34
35.062,-7.09
35.078,-11.46
35.093,-15.18
35.109,-18.22
35.125,-20.85
35.140,-23.63
35.156,-27.14
35.171,-31.83
35.187,-37.75
35.203,-44.32
35.218,-50.41
35.234,-54.51
35.250,-55.08
35.265,-51.06
35.281,-42.29
35.296,-29.5
35.312,-14.24
35.328,1.57
35.343,16.12
35.359,28.09
35.375,36.84
35.390,42.36
35.406,45.05
35.421,45.5
35.437,44.31
35.453,41.97
35.468,38.93
35.484,35.66
35.500,32.5
35.515,29.72
35.531,27.39
35.546,25.39
35.562,23.53
35.578,21.68
35.593,19.8
35.609,17.93
35.625,16.1
35.640,14.12
35.656,11.74
35.671,8.68
35.687,4.9
35.703,0.56
35.718,-3.9
35.734,-8.05
35.750,-11.62
35.765,-14.58
35.781,-17.16
35.796,-19.67
35.812,-22.48
35.828,-25.8
35.843,-29.52
35.859,-33.14
35.875,-35.8
35.890,-36.4
35.906,-33.92
35.921,-27.78
35.937,-17.96
35.953,-5.18
35.968,9.42
35.984,24.46
36.000,38.65
36.015,50.97
36.031,60.76
36.046,67.73
36.062,71.89
36.078,73.65
36.093,73.57
36.109,72.36
36.125,70.65
36.140,68.91
36.156,67.46
36.171,66.42
36.187,65.86
36.203,65.83
36.218,66.48
36.234,67.89
36.250,70.13
36.265,73.14
36.281,76.73
36.296,80.6
36.312,84.26
36.328,87.01
36.343,88.07
36.359,86.67
36.375,82.29
36.390,74.77
36.406,64.44
36.421,51.95
36.437,38.05
36.453,23.36
36.468,8.28
36.484,-6.88
36.500,-21.63
36.515,-35.14
36.531,-46.27
36.546,-53.82
36.562,-56.94
36.578,-55.45
36.593,-49.87
36.609,-41.34
36.625,-31.3
36.640,-21.22
36.656,-12.39
36.671,-5.78
36.687,-1.88
36.703,-0.71
36.718,-1.72
36.734,-3.93
36.750,-6.19
36.765,-7.58
36.781,-7.6
36.796,-6.32
36.812,-4.12
36.828,-1.49
36.843,1.2
36.859,3.84
36.875,6.52
36.890,9.3
36.906,12.2
36.921,15.15
36.937,18.06
36.953,20.87
36.968,23.45
36.984,25.55
37.000,26.57
37.015,25.73
37.031,22.25
37.046,15.8
37.062,6.66
37.078,-4.21
37.093,-15.53
37.109,-26.27
37.125,-36.05
37.140,-45.34
37.156,-55.08
37.171,-66.06
37.187,-78.28
37.203,-90.64
37.218,-101.28
37.234,-108.01
37.250,-109.27
37.265,-104.52
37.281,-94.3
37.296,-80.1
37.312,-63.72
37.328,-46.98
37.343,-31.35
37.359,-18.02
37.375,-7.81
37.390,-1.23
37.406,1.56
37.421,0.85
37.437,-2.66
37.453,-7.9
37.468,-13.83
37.484,-19.45
37.500,-24.2
37.515,-27.9
37.531,-30.62
37.546,-32.49
37.562,-33.47
37.578,-33.29
37.593,-31.45
37.609,-27.59
37.625,-21.71
37.640,-14.24
37.656,-6.01
37.671,1.85
37.687,8.36
37.703,12.72
37.718,14.54
37.734,13.85
37.750,11.02
37.765,6.77
37.781,2.04
37.796,-2.14
37.812,-4.97
37.828,-5.99
37.843,-5.26
37.859,-3.22
37.875,-0.51
37.890,2.31
37.906,4.98
37.921,7.57
37.937,10.31
37.953,13.42
37.968,16.96
37.984,20.77
38.000,24.64
38.015,28.38
38.031,32.0
38.046,35.69
38.062,39.79
38.078,44.56
38.093,50.15
38.109,56.53
38.125,63.4
38.140,70.32
38.156,76.81
38.171,82.45
38.187,87.05
38.203,90.76
38.218,93.99
38.234,97.2
38.250,100.47
38.265,103.3
38.281,104.61
38.296,103.15
38.312,97.99
38.328,88.97
38.343,76.76
38.359,62.58
38.375,47.71
38.390,33.14
38.406,19.37
38.421,6.44
38.437,-5.98
38.453,-18.64
38.468,-32.69
38.484,-49.58
38.500,-70.4
38.515,-95.16
38.531,-122.12
38.546,-147.99
38.562,-168.89
38.578,-181.75
38.593,-185.51
38.609,-181.38
38.625,-172.34
38.640,-161.82
38.656,-152.63
38.671,-146.33
38.687,-143.38
38.703,-143.61
38.718,-146.59
38.734,-151.74
38.750,-158.14
38.765,-164.41
38.781,-168.91
38.796,-170.25
38.812,-167.73
38.828,-161.74
38.843,-153.46
38.859,-144.3
38.875,-135.48
38.890,-127.59
38.906,-120.61
38.921,-114.23
38.937,-108.31
38.953,-102.92
38.968,-98.38
38.984,-94.98
39.000,-92.83
39.015,-91.76
39.031,-91.46
39.046,-91.57
39.062,-91.86
39.078,-92.33
39.093,-93.07
39.109,-94.29
39.125,-96.2
39.140,-98.88
39.156,-102.23
39.171,-105.69
39.187,-108.23
39.203,-108.52
39.218,-105.16
39.234,-97.16
39.250,-84.33
39.265,-67.4
39.281,-47.85
39.296,-27.63
39.312,-8.52
39.328,8.13
39.343,21.58
39.359,31.7
39.375,38.73
39.390,43.09
39.406,45.21
39.421,45.56
39.437,44.54
39.453,42.62
39.468,40.27
39.484,37.94
39.500,35.95
39.515,34.49
39.531,33.53
39.546,32.85
39.562,32.22
39.578,31.39
39.593,30.15
39.609,28.38
39.625,25.98
39.640,22.95
39.656,19.36
39.671,15.31
39.687,10.96
39.703,6.42
39.718,1.65
39.734,-3.55
39.750,-9.57
39.765,-16.74
39.781,-25.05
39.796,-33.89
39.812,-41.97
39.828,-47.54
39.843,-48.87
39.859,-44.82
39.875,-35.23
39.890,-20.99
39.906,-3.78
39.921,14.45
39.937,31.94
39.953,47.51
39.968,60.49
39.984,70.7
40.000,78.18
40.015,83.13
40.031,85.8
40.046,86.53
40.062,85.68
40.078,83.7
40.093,80.95
40.109,77.73
40.125,74.26
40.140,70.7
40.156,67.22
40.171,63.91
40.187,60.78
40.203,57.7
40.218,54.41
40.234,50.61
40.250,46.1
40.265,40.83
40.281,34.94
40.296,28.66
40.312,22.22
40.328,15.77
40.343,9.35
40.359,2.85
40.375,-3.88
40.390,-11.0
40.406,-18.63
40.421,-26.61
40.437,-34.43
40.453,-40.97
40.468,-44.79
40.484,-44.38
40.500,-38.77
40.515,-27.88
40.531,-12.66
40.546,5.11
40.562,23.41
40.578,40.37
40.593,54.76
40.609,66.06
40.625,74.27
40.640,79.62
40.656,82.45
40.671,83.06
40.687,81.84
40.703,79.25
40.718,75.87
40.734,72.28
40.750,68.9
40.765,65.84
40.781,62.94
40.796,59.94
40.812,56.66
40.828,53.15
40.843,49.64
40.859,46.33
40.875,43.23
40.890,40.06
40.906,36.38
40.921,31.81
40.937,26.19
40.953,19.71
40.968,12.83
40.984,6.08
41.000,-0.09
41.015,-5.51
41.031,-10.3
41.046,-14.87
41.062,-19.76
41.078,-25.47
41.093,-32.25
41.109,-39.85
41.125,-47.37
41.140,-53.34
41.156,-56.02
41.171,-53.94
41.187,-46.35
41.203,-33.61
41.218,-17.1
41.234,1.17
41.250,19.13
41.265,35.26
41.281,48.8
41.296,59.65
41.312,68.07
41.328,74.32
41.343,78.51
41.359,80.68
41.375,80.9
41.390,79.47
41.406,76.94
41.421,73.89
41.437,70.82
41.453,67.93
41.468,65.15
41.484,62.25
41.500,59.01
41.515,55.4
41.531,51.52
41.546,47.66
41.562,44.01
41.578,40.64
41.593,37.44
41.609,34.09
41.625,30.2
41.640,25.52
41.656,19.98
41.671,13.72
41.687,7.11
41.703,0.53
41.718,-5.67
41.734,-11.35
41.750,-16.6
41.765,-21.69
41.781,-26.99
41.796,-32.91
41.812,-39.68
41.828,-47.25
41.843,-55.09
41.859,-62.23
41.875,-67.33
41.890,-68.99
41.906,-66.14
41.921,-58.4
41.937,-46.28
41.953,-30.98
41.968,-14.08
41.984,2.81
42.000,18.42
42.015,31.94
42.031,42.89
42.046,51.1
42.062,56.54
42.078,59.31
42.093,59.7
42.109,58.17
42.125,55.28
42.140,51.61
42.156,47.68
42.171,43.83
42.187,40.3
42.203,37.18
42.218,34.48
42.234,32.18
42.250,30.19
42.265,28.42
42.281,26.77
42.296,25.15
42.312,23.4
42.328,21.36
42.343,18.86
42.359,15.8
42.375,12.1
42.390,7.77
42.406,2.89
42.421,-2.4
42.437,-7.93
42.453,-13.5
42.468,-19.0
42.484,-24.35
42.500,-29.51
42.515,-34.42
42.531,-39.0
42.546,-43.17
42.562,-47.01
42.578,-50.72
42.593,-54.61
42.609,-58.78
42.625,-62.86
42.640,-65.89
42.656,-66.49
42.671,-63.41
42.687,-55.95
42.703,-44.42
42.718,-30.0
42.734,-14.38
42.750,0.85
42.765,14.52
42.781,26.01
42.796,35.19
42.812,42.0
42.828,46.46
42.843,48.58
42.859,48.51
42.875,46.63
42.890,43.6
42.906,40.14
42.921,36.94
42.937,34.44
42.953,32.72
42.968,31.63
42.984,30.8
43.000,29.89
43.015,28.65
43.031,27.05
43.046,25.16
43.062,23.17
43.078,21.26
43.093,19.39
43.109,17.44
43.125,15.16
43.140,12.28
43.156,8.67
43.171,4.41
43.187,-0.29
43.203,-5.12
43.218,-9.78
43.234,-14.16
43.250,-18.24
43.265,-22.18
43.281,-26.22
43.296,-30.54
43.312,-35.26
43.328,-40.34
43.343,-45.63
43.359,-50.8
43.375,-55.31
43.390,-58.37
43.406,-59.06
43.421,-56.56
43.437,-50.42
43.453,-40.77
43.468,-28.42
43.484,-14.64
43.500,-0.78
43.515,11.94
43.531,22.86
43.546,31.75
43.562,38.61
43.578,43.55
43.593,46.62
43.609,47.82
43.625,47.28
43.640,45.27
43.656,42.22
43.671,38.74
43.687,35.34
43.703,32.44
43.718,30.25
43.734,28.76
43.750,27.79
43.765,27.11
43.781,26.45
43.796,25.58
43.812,24.38
43.828,22.69
43.843,20.46
43.859,17.6
43.875,14.13
43.890,10.07
43.906,5.61
43.921,0.94
43.937,-3.75
43.953,-8.28
43.968,-12.58
43.984,-16.66
44.000,-20.57
44.015,-24.38
44.031,-28.17
44.046,-31.99
44.062,-35.89
44.078,-39.98
44.093,-44.37
44.109,-49.14
44.125,-54.24
44.140,-59.31
44.156,-63.62
44.171,-66.14
44.187,-65.84
44.203,-61.96
44.218,-54.4
44.234,-43.74
44.250,-31.16
44.265,-17.96
44.281,-5.26
44.296,6.24
44.312,16.3
44.328,24.89
44.343,32.0
44.359,37.59
44.375,41.6
44.390,44.03
44.406,45.01
44.421,44.84
44.437,43.85
44.453,42.29
44.468,40.36
44.484,38.09
44.500,35.49
44.515,32.61
44.531,29.57
44.546,26.57
44.562,23.8
44.578,21.31
44.593,18.97
44.609,16.6
44.625,13.98
44.640,11.0
44.656,7.74
44.671,4.42
44.687,1.19
44.703,-1.9
44.718,-5.01
44.734,-8.34
44.750,-12.04
44.765,-16.13
44.781,-20.5
44.796,-24.94
44.812,-29.35
44.828,-33.67
44.843,-37.96
44.859,-42.37
44.875,-46.96
44.890,-51.76
44.906,-56.65
44.921,-61.26
44.937,-64.98
44.953,-66.92
44.968,-66.12
44.984,-61.87
45.000,-54.04
45.015,-43.21
45.031,-30.62
45.046,-17.74
45.062,-5.89
45.078,4.19
45.093,12.28
45.109,18.63
45.125,23.56
45.140,27.27
45.156,29.78
45.171,31.04
45.187,31.13
45.203,30.25
45.218,28.8
45.234,27.13
45.250,25.53
45.265,24.09
45.281,22.77
45.296,21.49
45.312,20.22
45.328,18.95
45.343,17.77
45.359,16.62
45.375,15.42
45.390,13.94
45.406,11.94
45.421,9.28
45.437,6.01
45.453,2.3
45.468,-1.61
45.484,-5.45
45.500,-9.12
45.515,-12.6
45.531,-15.95
45.546,-19.25
45.562,-22.58
45.578,-26.0
45.593,-29.56
45.609,-33.3
45.625,-37.22
45.640,-41.3
45.656,-45.53
45.671,-49.97
45.687,-54.53
45.703,-58.91
45.718,-62.48
45.734,-64.27
45.750,-63.32
45.765,-58.94
45.781,-51.08
45.796,-40.43
45.812,-28.17
45.828,-15.62
45.843,-3.86
45.859,6.48
45.875,15.17
45.890,22.24
45.906,27.8
45.921,31.91
45.937,34.59
45.953,35.88
45.968,35.89
45.984,34.85
46.000,33.07
46.015,30.94
46.031,28.85
46.046,27.07
46.062,25.7
46.078,24.72
46.093,24.0
46.109,23.38
46.125,22.75
46.140,22.09
46.156,21.41
46.171,20.7
46.187,19.87
46.203,18.72
46.218,17.05
46.234,14.74
46.250,11.72
46.265,8.07
46.281,3.95
46.296,-0.48
46.312,-5.04
46.328,-9.55
46.343,-13.93
46.359,-18.13
46.375,-22.21
46.390,-26.36
46.406,-30.86
46.421,-35.93
46.437,-41.57
46.453,-47.41
46.468,-52.71
46.484,-56.43
46.500,-57.51
46.515,-55.18
46.531,-49.23
46.546,-40.06
46.562,-28.63
46.578,-16.16
46.593,-3.87
46.609,7.28
46.625,16.7
46.640,24.18
46.656,29.87
46.671,34.0
46.687,36.94
46.703,38.92
46.718,40.13
46.734,40.65
46.750,40.56
46.765,39.93
46.781,38.93
46.796,37.72
46.812,36.41
46.828,35.07
46.843,33.65
46.859,32.09
46.875,30.34
46.890,28.42
46.906,26.33
46.921,24.0
46.937,21.37
46.953,18.31
46.968,14.73
46.984,10.62
47.000,6.01
47.015,1.08
47.031,-3.97
47.046,-8.93
47.062,-13.66
47.078,-18.04
47.093,-22.0
47.109,-25.51
47.125,-28.61
47.140,-31.47
47.156,-34.38
47.171,-37.76
47.187,-41.99
47.203,-47.27
47.218,-53.37
47.234,-59.54
47.250,-64.59
47.265,-67.11
47.281,-65.94
47.296,-60.47
47.312,-50.95
47.328,-38.36
47.343,-24.15
47.359,-9.87
47.375,3.23
47.390,14.42
47.406,23.49
47.421,30.62
47.437,36.14
47.453,40.32
47.468,43.3
47.484,45.08
47.500,45.7
47.515,45.23
47.531,43.91
47.546,42.02
47.562,39.87
47.578,37.61
47.593,35.33
47.609,32.98
47.625,30.58
47.640,28.22
47.656,26.03
47.671,24.11
47.687,22.38
47.703,20.68
47.718,18.71
47.734,16.32
47.750,13.38
47.765,9.9
47.781,5.88
47.796,1.27
47.812,-4.0
47.828,-9.89
47.843,-16.18
47.859,-22.49
47.875,-28.35
47.890,-33.41
47.906,-37.56
47.921,-40.95
47.937,-44.0
47.953,-47.2
47.968,-51.01
47.984,-55.7
48.000,-61.16
48.015,-66.86
48.031,-71.75
48.046,-74.46
48.062,-73.69
48.078,-68.66
48.093,-59.44
48.109,-46.96
48.125,-32.72
48.140,-18.29
48.156,-4.97
48.171,6.55
48.187,16.13
48.203,23.91
48.218,30.14
48.234,35.0
48.250,38.53
48.265,40.79
48.281,41.87
48.296,41.94
48.312,41.3
48.328,40.28
48.343,39.19
48.359,38.18
48.375,37.29
48.390,36.42
48.406,35.49
48.421,34.47
48.437,33.5
48.453,32.7
48.468,32.21
48.484,31.96
48.500,31.75
48.515,31.35
48.531,30.53
48.546,29.21
48.562,27.42
48.578,25.38
48.593,23.25
48.609,21.26
48.625,19.56
48.640,18.3
48.656,17.66
48.671,17.71
48.687,18.35
48.703,19.26
48.718,19.98
48.734,20.18
48.750,19.94
48.765,20.0
48.781,21.63
48.796,26.34
48.812,35.25
48.828,48.68
48.843,66.0
48.859,85.75
48.875,106.09
48.890,125.27
48.906,141.95
48.921,155.27
48.937,165.01
48.953,171.3
48.968,174.61
48.984,175.59
49.000,174.66
49.015,171.83
49.031,166.74
49.046,158.81
49.062,147.69
49.078,133.66
49.093,117.56
49.109,100.79
49.125,84.78
49.140,70.68
49.156,59.22
49.171,50.82
49.187,45.72
49.203,43.95
49.218,45.22
49.234,48.6
49.250,52.55
49.265,55.04
49.281,54.03
49.296,47.82
49.312,35.37
49.328,16.36
49.343,-8.78
49.359,-38.77
49.375,-71.63
49.390,-104.85
49.406,-135.98
49.421,-163.29
49.437,-186.22
49.453,-205.35
49.468,-221.77
49.484,-236.09
49.500,-247.75
49.515,-255.16
49.531,-256.37
49.546,-250.14
49.562,-236.71
49.578,-217.84
49.593,-196.25
49.609,-174.64
49.625,-154.98
49.640,-138.12
49.656,-123.94
49.671,-111.9
49.687,-101.37
49.703,-92.02
49.718,-83.81
49.734,-76.79
49.750,-70.82
49.765,-65.54
49.781,-60.39
49.796,-54.77
49.812,-48.36
49.828,-41.27
49.843,-33.97
49.859,-26.99
49.875,-20.69
49.890,-15.12
49.906,-10.04
49.921,-5.27
49.937,-0.85
49.953,2.83
49.968,5.15
49.984,5.56
50.000,3.83
50.015,0.24
50.031,-4.51
50.046,-9.38
50.062,-13.35
50.078,-15.68
50.093,-16.08
50.109,-14.79
50.125,-12.43
50.140,-9.9
50.156,-8.03
50.171,-7.5
50.187,-8.6
50.203,-11.13
50.218,-14.42
50.234,-17.34
50.250,-18.52
50.265,-16.58
50.281,-10.57
50.296,-0.27
50.312,13.58
50.328,29.46
50.343,45.4
50.359,59.6
50.375,70.85
50.390,78.72
50.406,83.47
50.421,85.7
50.437,85.96
50.453,84.49
50.468,81.27
50.484,76.24
50.500,69.57
50.515,61.85
50.531,53.96
50.546,46.88
50.562,41.38
50.578,37.82
50.593,36.07
50.609,35.7
50.625,36.28
50.640,37.39
50.656,38.93
50.671,40.89
50.687,43.23
50.703,45.83
50.718,48.36
50.734,50.5
50.750,52.06
50.765,53.1
50.781,53.77
50.796,54.24
50.812,54.49
50.828,54.35
50.843,53.55
50.859,51.86
50.875,49.24
50.890,45.59
50.906,40.64
50.921,33.76
50.937,24.21
50.953,11.48
50.968,-4.17
50.984,-21.44
51.000,-38.16
51.015,-51.84
51.031,-60.39
51.046,-62.71
51.062,-59.04
51.078,-50.57
51.093,-39.02
51.109,-26.22
51.125,-13.75
51.140,-3.08
51.156,4.48
51.171,7.87
51.187,6.56
51.203,0.89
51.218,-7.92
51.234,-18.01
51.250,-27.46
51.265,-34.86
51.281,-39.62
51.296,-41.87
51.312,-42.12
51.328,-40.93
51.343,-38.66
51.359,-35.53
51.375,-31.77
51.390,-27.62
51.406,-23.41
51.421,-19.4
51.437,-15.78
51.453,-12.46
51.468,-9.21
51.484,-5.57
51.500,-1.06
51.515,4.69
51.531,11.77
51.546,19.85
51.562,28.25
51.578,36.13
51.593,42.88
51.609,48.36
51.625,53.0
51.640,57.6
51.656,63.02
51.671,69.74
51.687,77.55
51.703,85.52
51.718,92.16
51.734,95.8
51.750,94.89
51.765,88.39
51.781,76.06
51.796,58.58
51.812,37.77
51.828,16.14
51.843,-3.68
51.859,-19.89
51.875,-32.22
51.890,-41.99
51.906,-51.53
51.921,-62.95
51.937,-77.07
51.953,-92.88
51.968,-108.02
51.984,-119.76
52.000,-126.2
52.015,-126.97
52.031,-123.07
52.046,-116.25
52.062,-108.22
52.078,-100.11
52.093,-92.36
52.109,-84.96
52.125,-77.77
52.140,-70.77
52.156,-64.19
52.171,-58.36
52.187,-53.5
52.203,-49.63
52.218,-46.51
52.234,-43.82
52.250,-41.34
52.265,-39.06
52.281,-37.09
52.296,-35.54
52.312,-34.34
52.328,-33.19
52.343,-31.86
52.359,-30.3
52.375,-28.75
52.390,-27.4
52.406,-26.02
52.421,-23.57
52.437,-18.35
52.453,-8.58
52.468,6.76
52.484,27.06
52.500,50.09
52.515,72.29
52.531,89.88
52.546,99.8
52.562,100.4
52.578,91.51
52.593,74.25
52.609,50.68
52.625,23.25
52.640,-5.55
52.656,-33.65
52.671,-59.65
52.687,-82.96
52.703,-103.68
52.718,-122.28
52.734,-139.26
52.750,-154.76
52.765,-168.59
52.781,-180.24
52.796,-189.12
52.812,-194.77
52.828,-196.99
52.843,-196.02
52.859,-192.52
52.875,-187.52
52.890,-182.23
52.906,-177.67
52.921,-174.31
52.937,-171.96
52.953,-169.89
52.968,-167.2
52.984,-163.29
53.000,-158.15
53.015,-152.38
53.031,-147.16
53.046,-143.79
53.062,-143.27
53.078,-145.88
53.093,-150.83
53.109,-156.17
53.125,-159.11
53.140,-156.77
53.156,-146.98
53.171,-129.14
53.187,-104.42
53.203,-75.4
53.218,-45.28
53.234,-16.94
53.250,7.74
53.265,27.97
53.281,43.87
53.296,55.96
53.312,64.9
53.328,71.22
53.343,75.47
53.359,78.25
53.375,80.2
53.390,81.87
53.406,83.63
53.421,85.61
53.437,87.79
53.453,90.1
53.468,92.47
53.484,94.99
53.500,97.75
53.515,100.75
53.531,103.82
53.546,106.57
53.562,108.49
53.578,109.13
53.593,108.21
53.609,105.76
53.625,102.17
53.640,98.05
53.656,94.02
53.671,90.54
53.687,87.8
53.703,85.72
53.718,84.0
53.734,82.36
53.750,80.52
53.765,78.28
53.781,75.61
53.796,72.49
53.812,69.05
53.828,65.46
53.843,61.91
53.859,58.53
53.875,55.34
53.890,52.25
53.906,49.04
53.921,45.53
53.937,41.68
53.953,37.63
53.968,33.67
53.984,30.05
54.000,26.85
54.015,24.02
54.031,21.34
54.046,18.55
54.062,15.39
54.078,11.74
54.093,7.66
54.109,3.36
54.125,-0.92
54.140,-4.89
54.156,-8.43
54.171,-11.67
54.187,-14.97
54.203,-18.82
54.218,-23.62
54.234,-29.53
54.250,-36.34
54.265,-43.63
54.281,-50.9
54.296,-57.73
54.312,-63.96
54.328,-69.65
54.343,-75.03
54.359,-80.58
54.375,-86.86
54.390,-94.35
54.406,-103.09
54.421,-112.21
54.437,-119.91
54.453,-123.7
54.468,-121.17
54.484,-110.85
54.500,-92.85
54.515,-68.95
54.531,-42.04
54.546,-15.21
54.562,9.03
54.578,29.13
54.593,44.55
54.609,55.39
54.625,62.17
54.640,65.52
54.656,66.21
54.671,65.02
54.687,62.79
54.703,60.17
54.718,57.57
54.734,55.22
54.750,53.16
54.765,51.36
54.781,49.82
54.796,48.49
54.812,47.24
54.828,45.88
54.843,44.13
54.859,41.69
54.875,38.38
54.890,34.19
54.906,29.23
54.921,23.7
54.937,17.8
54.953,11.68
54.968,5.48
54.984,-0.75
55.000,-7.11
55.015,-13.81
55.031,-21.17
55.046,-29.21
55.062,-37.41
55.078,-44.48
55.093,-48.54
55.109,-47.67
55.125,-40.63
55.140,-27.49
55.156,-9.64
55.171,10.5
55.187,30.4
55.203,48.05
55.218,62.39
55.234,73.28
55.250,81.09
55.265,86.33
55.281,89.37
55.296,90.44
55.312,89.69
55.328,87.35
55.343,83.84
55.359,79.63
55.375,75.22
55.390,70.96
55.406,67.07
55.421,63.55
55.437,60.32
55.453,57.14
55.468,53.79
55.484,50.09
55.500,45.89
55.515,41.12
55.531,35.77
55.546,29.84
55.562,23.32
55.578,16.28
55.593,8.77
55.609,0.88
55.625,-7.33
55.640,-15.83
55.656,-24.61
55.671,-33.5
55.687,-41.91
55.703,-48.74
55.718,-52.42
55.734,-51.45
55.750,-44.86
55.765,-32.77
55.781,-16.44
55.796,2.09
55.812,20.64
55.828,37.47
55.843,51.67
55.859,63.1
55.875,72.01
55.890,78.82
55.906,83.85
55.921,87.25
55.937,89.21
55.953,89.91
55.968,89.64
55.984,88.6
56.000,87.02
56.015,84.99
56.031,82.55
56.046,79.81
56.062,76.94
56.078,74.22
56.093,71.88
56.109,69.98
56.125,68.34
56.140,66.62
56.156,64.43
56.171,61.55
56.187,58.13
56.203,54.61
56.218,51.58
56.234,49.55
56.250,48.68
56.265,48.73
56.281,49.13
56.296,49.25
56.312,48.47
56.328,46.58
56.343,43.77
56.359,40.93
56.375,39.5
56.390,41.11
56.406,47.22
56.421,58.55
56.437,74.77
56.453,94.55
56.468,116.1
56.484,137.58
56.500,157.85
56.515,176.5
56.531,193.67
56.546,209.66
56.562,224.48
56.578,237.55
56.593,247.73
56.609,253.61
56.625,253.91
56.640,248.06
56.656,236.43
56.671,220.35
56.687,201.74
56.703,182.66
56.718,164.67
56.734,148.69
56.750,134.94
56.765,123.18
56.781,113.02
56.796,104.01
56.812,95.62
56.828,87.17
56.843,77.8
56.859,66.62
56.875,52.97
56.890,36.64
56.906,17.99
56.921,-2.14
56.937,-22.72
56.953,-42.85
56.968,-61.89
56.984,-79.6
57.000,-95.81
57.015,-110.34
57.031,-122.9
57.046,-133.33
57.062,-141.8
57.078,-148.96
57.093,-155.8
57.109,-163.09
57.125,-171.14
57.140,-179.45
57.156,-187.09
57.171,-193.07
57.187,-196.72
57.203,-197.69
57.218,-195.9
57.234,-191.45
57.250,-184.71
57.265,-176.75
57.281,-169.08
57.296,-163.5
57.312,-161.21
57.328,-162.32
57.343,-165.61
57.359,-169.09
57.375,-170.82
57.390,-169.73
57.406,-165.92
57.421,-160.21
57.437,-153.65
57.453,-146.95
57.468,-140.43
57.484,-134.16
57.500,-128.23
57.515,-122.85
57.531,-118.24
57.546,-114.54
57.562,-111.69
57.578,-109.44
57.593,-107.57
57.609,-105.92
57.625,-104.55
57.640,-103.58
57.656,-103.21
57.671,-103.49
57.687,-104.32
57.703,-105.34
57.718,-106.02
57.734,-105.82
57.750,-104.35
57.765,-101.56
57.781,-97.83
57.796,-93.92
57.812,-90.7
57.828,-88.87
57.843,-88.69
57.859,-89.84
57.875,-91.34
57.890,-91.75
57.906,-89.52
57.921,-83.29
57.937,-72.37
57.953,-56.98
57.968,-38.16
57.984,-17.6
58.000,2.95
58.015,22.1
58.031,39.01
58.046,53.44
58.062,65.52
58.078,75.49
58.093,83.43
58.109,89.36
58.125,93.21
58.140,95.09
58.156,95.3
58.171,94.32
58.187,92.64
58.203,90.7
58.218,88.7
58.234,86.62
58.250,84.21
58.265,81.22
58.281,77.42
58.296,72.81
58.312,67.59
58.328,62.1
58.343,56.71
58.359,51.63
58.375,46.95
58.390,42.56
58.406,38.25
58.421,33.81
58.437,29.18
58.453,24.44
58.468,19.77
58.484,15.4
58.500,11.41
58.515,7.74
58.531,4.13
58.546,0.27
58.562,-4.18
58.578,-9.37
58.593,-15.3
58.609,-21.67
58.625,-27.97
58.640,-33.43
58.656,-37.1
58.671,-37.98
58.687,-35.24
58.703,-28.53
58.718,-18.09
58.734,-4.79
58.750,10.11
58.765,25.26
58.781,39.46
58.796,51.81
58.812,61.76
58.828,69.08
58.843,73.75
58.859,75.98
58.875,76.17
58.890,74.78
58.906,72.32
58.921,69.23
58.937,65.79
58.953,62.22
58.968,58.65
58.984,55.22
59.000,52.1
59.015,49.41
59.031,47.11
59.046,45.01
59.062,42.79
59.078,40.06
59.093,36.56
59.109,32.27
59.125,27.42
59.140,22.4
59.156,17.64
59.171,13.3
59.187,9.36
59.203,5.56
59.218,1.52
59.234,-3.0
59.250,-8.13
59.265,-13.75
59.281,-19.51
59.296,-25.03
59.312,-29.95
59.328,-34.06
59.343,-37.34
59.359,-39.97
59.375,-42.24
59.390,-44.55
59.406,-47.17
59.421,-50.13
59.437,-53.01
59.453,-54.85
59.468,-54.36
59.484,-50.25
59.500,-41.72
59.515,-28.69
59.531,-11.98
59.546,7.08
59.562,26.96
59.578,46.39
59.593,64.68
59.609,81.61
59.625,97.34
59.640,112.04
59.656,125.82
59.671,138.63
59.687,150.29
59.703,160.67
59.718,169.66
59.734,177.24
59.750,183.35
59.765,187.91
59.781,190.67
59.796,191.47
59.812,190.19
59.828,187.06
59.843,182.51
59.859,177.19
59.875,171.68
59.890,166.37
59.906,161.28
59.921,156.06
59.937,150.16
59.953,143.12
59.968,134.81
59.984,125.53
