timestamp,value
00.000,24.4
00.015,20.59
00.031,15.54
00.046,8.87
00.062,0.64
00.078,-8.67
00.093,-18.38
00.109,-27.83
00.125,-36.49
00.140,-44.14
00.156,-50.85
00.171,-56.91
00.187,-62.75
00.203,-68.84
00.218,-75.6
00.234,-83.15
00.250,-91.16
00.265,-98.53
00.281,-103.47
00.296,-103.72
00.312,-97.27
00.328,-83.07
00.343,-61.61
00.359,-34.95
00.375,-6.25
00.390,21.13
00.406,44.52
00.421,62.43
00.437,74.57
00.453,81.51
00.468,84.17
00.484,83.52
00.500,80.4
00.515,75.66
00.531,70.24
00.546,65.12
00.562,61.22
00.578,59.11
00.593,58.83
00.609,59.86
00.625,61.29
00.640,62.17
00.656,61.8
00.671,59.91
00.687,56.72
00.703,52.77
00.718,48.66
00.734,44.85
00.750,41.44
00.765,38.25
00.781,34.84
00.796,30.62
00.812,25.01
00.828,17.5
00.843,7.86
00.859,-3.72
00.875,-16.4
00.890,-28.61
00.906,-38.15
00.921,-42.7
00.937,-40.5
00.953,-31.02
00.968,-15.28
00.984,4.39
01.000,24.94
01.015,43.46
01.031,57.81
01.046,66.94
01.062,70.81
01.078,70.07
01.093,65.75
01.109,58.91
01.125,50.61
01.140,41.77
01.156,33.25
01.171,25.75
01.187,19.76
01.203,15.47
01.218,12.75
01.234,11.18
01.250,10.09
01.265,8.74
01.281,6.56
01.296,3.21
01.312,-1.32
01.328,-6.72
01.343,-12.55
01.359,-18.41
01.375,-23.96
01.390,-29.14
01.406,-34.07
01.421,-39.08
01.437,-44.65
01.453,-51.32
01.468,-59.45
01.484,-68.9
01.500,-78.79
01.515,-87.4
01.531,-92.47
01.546,-91.88
01.562,-84.44
01.578,-70.49
01.593,-51.91
01.609,-31.58
01.625,-12.45
01.640,3.26
01.656,14.59
01.671,21.75
01.687,25.77
01.703,27.94
01.718,29.37
01.734,30.82
01.750,32.63
01.765,34.8
01.781,37.1
01.796,39.23
01.812,40.77
01.828,41.28
01.843,40.27
01.859,37.23
01.875,31.79
01.890,23.88
01.906,13.9
01.921,2.84
01.937,-7.87
01.953,-16.68
01.968,-22.29
01.984,-24.0
02.000,-21.96
02.015,-17.15
02.031,-11.29
02.046,-6.38
02.062,-4.31
02.078,-6.31
02.093,-12.51
02.109,-21.9
02.125,-32.54
02.140,-42.15
02.156,-48.64
02.171,-50.59
02.187,-47.25
02.203,-38.51
02.218,-24.75
02.234,-6.79
02.250,13.97
02.265,35.67
02.281,56.19
02.296,73.72
02.312,87.31
02.328,97.12
02.343,104.18
02.359,109.75
02.375,114.62
02.390,118.76
02.406,121.46
02.421,121.88
02.437,119.62
02.453,114.98
02.468,108.83
02.484,102.11
02.500,95.45
02.515,88.91
02.531,82.05
02.546,74.24
02.562,64.99
02.578,54.18
02.593,42.12
02.609,29.56
02.625,17.44
02.640,6.6
02.656,-2.4
02.671,-9.48
02.687,-15.04
02.703,-19.79
02.718,-24.48
02.734,-29.75
02.750,-35.8
02.765,-42.36
02.781,-48.55
02.796,-53.03
02.812,-54.27
02.828,-51.04
02.843,-42.92
02.859,-30.55
02.875,-15.6
02.890,-0.21
02.906,13.64
02.921,24.6
02.937,32.16
02.953,36.32
02.968,37.24
02.984,35.09
03.000,30.1
03.015,22.75
03.031,13.92
03.046,4.71
03.062,-3.87
03.078,-11.25
03.093,-17.39
03.109,-22.67
03.125,-27.63
03.140,-32.79
03.156,-38.56
03.171,-45.28
03.187,-53.14
03.203,-62.12
03.218,-71.81
03.234,-81.39
03.250,-89.83
03.265,-96.23
03.281,-100.24
03.296,-102.29
03.312,-103.59
03.328,-105.92
03.343,-111.07
03.359,-120.36
03.375,-134.03
03.390,-150.93
03.406,-168.5
03.421,-183.32
03.437,-192.01
03.453,-192.25
03.468,-183.5
03.484,-167.11
03.500,-145.66
03.515,-121.86
03.531,-97.49
03.546,-72.99
03.562,-47.79
03.578,-21.25
03.593,6.4
03.609,33.65
03.625,58.24
03.640,78.13
03.656,92.46
03.671,101.88
03.687,107.93
03.703,111.91
03.718,113.81
03.734,112.14
03.750,104.51
03.765,88.87
03.781,64.61
03.796,33.12
03.812,-2.53
03.828,-38.29
03.843,-69.95
03.859,-93.97
03.875,-107.95
03.890,-111.2
03.906,-105.04
03.921,-92.82
03.937,-79.28
03.953,-69.38
03.968,-66.91
03.984,-73.42
04.000,-87.88
04.015,-107.2
04.031,-127.19
04.046,-143.61
04.062,-152.97
04.078,-153.08
04.093,-143.47
04.109,-125.37
04.125,-101.56
04.140,-75.71
04.156,-51.38
04.171,-31.05
04.187,-15.52
04.203,-3.96
04.218,5.45
04.234,14.74
04.250,25.37
04.265,37.96
04.281,52.34
04.296,67.82
04.312,83.42
04.328,98.15
04.343,111.1
04.359,121.61
04.375,129.29
04.390,133.99
04.406,135.77
04.421,134.82
04.437,131.42
04.453,125.95
04.468,118.94
04.484,111.0
04.500,102.72
04.515,94.64
04.531,87.17
04.546,80.6
04.562,75.1
04.578,70.73
04.593,67.41
04.609,65.14
04.625,64.18
04.640,65.19
04.656,69.14
04.671,76.97
04.687,88.95
04.703,104.16
04.718,120.37
04.734,134.35
04.750,142.78
04.765,143.07
04.781,134.13
04.796,116.55
04.812,92.4
04.828,64.51
04.843,35.76
04.859,8.54
04.875,-15.69
04.890,-36.22
04.906,-52.91
04.921,-65.79
04.937,-74.8
04.953,-79.85
04.968,-80.96
04.984,-78.42
05.000,-72.95
05.015,-65.6
05.031,-57.59
05.046,-50.1
05.062,-44.07
05.078,-40.08
05.093,-38.32
05.109,-38.56
05.125,-40.26
05.140,-42.8
05.156,-45.68
05.171,-48.74
05.187,-52.16
05.203,-56.24
05.218,-61.11
05.234,-66.45
05.250,-71.44
05.265,-74.89
05.281,-75.54
05.296,-72.49
05.312,-65.32
05.328,-54.28
05.343,-40.15
05.359,-24.17
05.375,-7.82
05.390,7.44
05.406,20.29
05.421,29.73
05.437,35.14
05.453,36.37
05.468,33.94
05.484,29.03
05.500,23.45
05.515,19.17
05.531,17.78
05.546,19.86
05.562,24.82
05.578,31.22
05.593,37.57
05.609,43.15
05.625,48.53
05.640,55.32
05.656,65.46
05.671,80.41
05.687,100.47
05.703,124.41
05.718,149.76
05.734,173.19
05.750,191.19
05.765,200.88
05.781,201.04
05.796,193.01
05.812,181.02
05.828,171.5
05.843,171.23
05.859,184.98
05.875,213.76
05.890,254.34
05.906,300.37
05.921,344.33
05.937,379.55
05.953,401.51
05.968,407.91
05.984,398.44
06.000,374.18
06.015,337.18
06.031,290.23
06.046,236.44
06.062,178.4
06.078,117.34
06.093,53.18
06.109,-14.56
06.125,-84.78
06.140,-153.31
06.156,-213.03
06.171,-255.92
06.187,-276.34
06.203,-273.74
06.218,-253.0
06.234,-222.29
06.250,-189.69
06.265,-160.15
06.281,-134.83
06.296,-112.68
06.312,-92.84
06.328,-76.17
06.343,-64.82
06.359,-60.42
06.375,-62.39
06.390,-67.76
06.406,-72.63
06.421,-74.5
06.437,-73.66
06.453,-72.86
06.468,-75.83
06.484,-85.18
06.500,-101.32
06.515,-122.87
06.531,-147.89
06.546,-174.74
06.562,-202.09
06.578,-227.81
06.593,-248.07
06.609,-257.89
06.625,-253.24
06.640,-233.66
06.656,-203.46
06.671,-170.46
06.687,-142.35
06.703,-123.12
06.718,-111.6
06.734,-103.0
06.750,-92.57
06.765,-78.69
06.781,-63.66
06.796,-51.81
06.812,-46.38
06.828,-47.46
06.843,-51.91
06.859,-55.16
06.875,-53.47
06.890,-45.11
06.906,-30.21
06.921,-9.93
06.937,14.54
06.953,42.28
06.968,72.51
06.984,104.08
07.000,135.34
07.015,164.43
07.031,189.8
07.046,210.9
07.062,228.34
07.078,243.8
07.093,259.1
07.109,275.26
07.125,291.74
07.140,306.61
07.156,317.41
07.171,322.32
07.187,320.93
07.203,314.29
07.218,304.32
07.234,293.22
07.250,282.86
07.265,274.65
07.281,269.24
07.296,266.22
07.312,263.94
07.328,259.79
07.343,251.06
07.359,236.09
07.375,214.97
07.390,189.44
07.406,162.05
07.421,135.03
07.437,109.78
07.453,86.87
07.468,66.8
07.484,50.39
07.500,38.47
07.515,31.37
07.531,28.16
07.546,26.69
07.562,24.24
07.578,18.57
07.593,8.46
07.609,-6.39
07.625,-25.77
07.640,-49.12
07.656,-75.07
07.671,-100.81
07.687,-121.9
07.703,-133.09
07.718,-130.26
07.734,-112.21
07.750,-81.5
07.765,-43.72
07.781,-5.66
07.796,26.79
07.812,49.64
07.828,60.91
07.843,59.91
07.859,46.73
07.875,22.27
07.890,-11.36
07.906,-50.79
07.921,-92.06
07.937,-131.81
07.953,-168.56
07.968,-203.04
07.984,-237.71
08.000,-275.75
08.015,-319.73
08.031,-370.49
08.046,-426.39
08.062,-483.14
08.078,-534.45
08.093,-573.5
08.109,-594.88
08.125,-596.12
08.140,-578.34
08.156,-545.32
08.171,-501.84
08.187,-451.87
08.203,-397.67
08.218,-340.15
08.234,-280.01
08.250,-219.05
08.265,-160.58
08.281,-108.84
08.296,-67.31
08.312,-37.32
08.328,-17.01
08.343,-1.65
08.359,15.09
08.375,38.95
08.390,72.93
08.406,116.07
08.421,163.6
08.437,208.7
08.453,244.79
08.468,267.51
08.484,275.5
08.500,269.79
08.515,252.63
08.531,226.16
08.546,192.07
08.562,151.84
08.578,107.78
08.593,63.37
08.609,23.16
08.625,-8.51
08.640,-29.12
08.656,-39.16
08.671,-42.13
08.687,-43.03
08.703,-46.27
08.718,-53.78
08.734,-64.59
08.750,-75.83
08.765,-84.67
08.781,-89.96
08.796,-92.75
08.812,-95.76
08.828,-101.85
08.843,-112.64
08.859,-127.65
08.875,-144.25
08.890,-158.61
08.906,-167.01
08.921,-167.21
08.937,-159.26
08.953,-145.35
08.968,-128.65
08.984,-111.76
09.000,-95.71
09.015,-79.95
09.031,-63.37
09.046,-45.64
09.062,-27.71
09.078,-11.23
09.093,2.7
09.109,14.34
09.125,25.22
09.140,36.93
09.156,49.96
09.171,63.27
09.187,74.81
09.203,82.68
09.218,86.11
09.234,85.69
09.250,82.8
09.265,78.86
09.281,74.74
09.296,70.72
09.312,66.66
09.328,62.37
09.343,57.75
09.359,52.87
09.375,47.89
09.390,42.94
09.406,38.06
09.421,33.13
09.437,27.94
09.453,22.35
09.468,16.53
09.484,11.09
09.500,7.01
09.515,5.26
09.531,6.47
09.546,10.62
09.562,16.93
09.578,24.04
09.593,30.3
09.609,33.98
09.625,33.58
09.640,28.08
09.656,17.4
09.671,2.74
09.687,-13.41
09.703,-27.75
09.718,-37.16
09.734,-39.72
09.750,-35.42
09.765,-25.97
09.781,-14.18
09.796,-2.99
09.812,5.37
09.828,9.64
09.843,9.65
09.859,6.25
09.875,1.21
09.890,-2.94
09.906,-3.55
09.921,1.29
09.937,11.85
09.953,26.43
09.968,41.82
09.984,54.48
10.000,61.77
10.015,62.81
10.031,58.3
10.046,50.02
10.062,39.96
10.078,29.9
10.093,21.39
10.109,15.92
10.125,14.87
10.140,19.28
10.156,29.27
10.171,43.73
10.187,60.48
10.203,76.84
10.218,90.35
10.234,99.46
10.250,103.74
10.265,103.73
10.281,100.51
10.296,95.21
10.312,88.57
10.328,80.93
10.343,72.28
10.359,62.61
10.375,52.13
10.390,41.46
10.406,31.51
10.421,23.21
10.437,17.06
10.453,12.93
10.468,10.07
10.484,7.37
10.500,3.87
10.515,-0.92
10.531,-6.81
10.546,-13.15
10.562,-19.11
10.578,-24.05
10.593,-27.73
10.609,-30.31
10.625,-32.27
10.640,-34.22
10.656,-36.72
10.671,-40.2
10.687,-44.83
10.703,-50.4
10.718,-56.26
10.734,-61.35
10.750,-64.51
10.765,-64.85
10.781,-62.13
10.796,-56.94
10.812,-50.5
10.828,-44.31
10.843,-39.58
10.859,-36.89
10.875,-36.13
10.890,-36.72
10.906,-38.02
10.921,-39.68
10.937,-41.7
10.953,-44.24
10.968,-47.34
10.984,-50.64
11.000,-53.5
11.015,-55.12
11.031,-55.02
11.046,-53.21
11.062,-50.21
11.078,-46.87
11.093,-44.02
11.109,-42.21
11.125,-41.52
11.140,-41.57
11.156,-41.67
11.171,-41.22
11.187,-39.94
11.203,-38.09
11.218,-36.37
11.234,-35.63
11.250,-36.51
11.265,-39.2
11.281,-43.6
11.296,-49.48
11.312,-56.71
11.328,-65.1
11.343,-74.0
11.359,-82.01
11.375,-87.08
11.390,-87.12
11.406,-80.84
11.421,-68.33
11.437,-51.1
11.453,-31.45
11.468,-11.6
11.484,6.85
11.500,23.09
11.515,36.83
11.531,47.9
11.546,56.04
11.562,61.03
11.578,62.91
11.593,62.15
11.609,59.75
11.625,56.89
11.640,54.72
11.656,53.99
11.671,54.89
11.687,56.96
11.703,59.28
11.718,60.82
11.734,60.74
11.750,58.52
11.765,53.94
11.781,46.82
11.796,36.88
11.812,23.78
11.828,7.43
11.843,-11.73
11.859,-32.59
11.875,-53.77
11.890,-74.09
11.906,-93.03
11.921,-110.79
11.937,-127.7
11.953,-143.63
11.968,-157.56
11.984,-167.87
12.000,-172.96
12.015,-171.94
12.031,-164.8
12.046,-152.12
12.062,-134.69
12.078,-113.34
12.093,-89.26
12.109,-64.36
12.125,-41.3
12.140,-22.82
12.156,-10.74
12.171,-5.14
12.187,-4.28
12.203,-5.44
12.218,-6.05
12.234,-4.66
12.250,-1.19
12.265,3.57
12.281,8.58
12.296,12.94
12.312,15.94
12.328,16.93
12.343,15.42
12.359,11.28
12.375,5.07
12.390,-2.01
12.406,-8.45
12.421,-13.05
12.437,-15.41
12.453,-16.01
12.468,-15.86
12.484,-15.96
12.500,-16.85
12.515,-18.52
12.531,-20.57
12.546,-22.57
12.562,-24.38
12.578,-26.17
12.593,-28.34
12.609,-31.23
12.625,-34.72
12.640,-38.03
12.656,-39.76
12.671,-38.17
12.687,-31.77
12.703,-19.93
12.718,-3.17
12.734,16.97
12.750,38.46
12.765,59.54
12.781,79.18
12.796,97.21
12.812,113.9
12.828,129.42
12.843,143.4
12.859,154.91
12.875,162.7
12.890,165.79
12.906,163.97
12.921,158.03
12.937,149.57
12.953,140.65
12.968,133.01
12.984,127.52
13.000,123.75
13.015,120.14
13.031,114.65
13.046,105.61
13.062,92.72
13.078,77.65
13.093,64.25
13.109,58.1
13.125,65.37
13.140,91.46
13.156,139.11
13.171,207.05
13.187,289.32
13.203,376.02
13.218,455.4
13.234,516.81
13.250,553.44
13.265,563.67
13.281,550.77
13.296,520.93
13.312,480.81
13.328,435.62
13.343,388.42
13.359,340.67
13.375,293.15
13.390,246.84
13.406,202.9
13.421,162.37
13.437,125.47
13.453,91.47
13.468,58.9
13.484,26.13
13.500,-8.23
13.515,-45.24
13.531,-85.36
13.546,-128.21
13.562,-172.1
13.578,-213.85
13.593,-249.29
13.609,-274.63
13.625,-288.25
13.640,-291.9
13.656,-290.69
13.671,-291.47
13.687,-300.48
13.703,-321.24
13.718,-353.57
13.734,-394.01
13.750,-437.07
13.765,-476.91
13.781,-508.46
13.796,-528.37
13.812,-535.52
13.828,-531.39
13.843,-519.75
13.859,-505.67
13.875,-493.95
13.890,-487.38
13.906,-485.91
13.921,-486.72
13.937,-485.47
13.953,-478.01
13.968,-461.76
13.984,-436.33
14.000,-403.25
14.015,-365.11
14.031,-324.76
14.046,-284.73
14.062,-246.84
14.078,-212.28
14.093,-181.54
14.109,-154.47
14.125,-130.39
14.140,-108.21
14.156,-86.77
14.171,-65.14
14.187,-42.83
14.203,-19.83
14.218,3.58
14.234,27.02
14.250,50.17
14.265,72.72
14.281,94.09
14.296,113.42
14.312,129.53
14.328,141.37
14.343,148.28
14.359,150.37
14.375,148.44
14.390,143.72
14.406,137.51
14.421,130.92
14.437,124.71
14.453,119.33
14.468,114.89
14.484,111.15
14.500,107.51
14.515,103.15
14.531,97.31
14.546,89.6
14.562,80.24
14.578,70.1
14.593,60.52
14.609,52.94
14.625,48.49
14.640,47.78
14.656,50.79
14.671,56.96
14.687,65.34
14.703,74.74
14.718,83.92
14.734,91.67
14.750,96.99
14.765,99.2
14.781,98.04
14.796,93.77
14.812,87.11
14.828,79.1
14.843,70.87
14.859,63.43
14.875,57.52
14.890,53.5
14.906,51.34
14.921,50.59
14.937,50.56
14.953,50.46
14.968,49.65
14.984,47.85
15.000,45.19
15.015,42.11
15.031,39.13
15.046,36.58
15.062,34.37
15.078,32.02
15.093,28.84
15.109,24.14
15.125,17.63
15.140,9.55
15.156,0.76
15.171,-7.47
15.187,-13.7
15.203,-16.65
15.218,-15.54
15.234,-10.21
15.250,-1.16
15.265,10.6
15.281,23.87
15.296,37.44
15.312,50.33
15.328,61.8
15.343,71.31
15.359,78.45
15.375,82.95
15.390,84.67
15.406,83.76
15.421,80.75
15.437,76.51
15.453,72.15
15.468,68.71
15.484,66.79
15.500,66.37
15.515,66.74
15.531,66.7
15.546,65.08
15.562,61.05
15.578,54.41
15.593,45.59
15.609,35.38
15.625,24.6
15.640,13.87
15.656,3.45
15.671,-6.7
15.687,-16.77
15.703,-26.89
15.718,-36.97
15.734,-46.55
15.750,-54.79
15.765,-60.63
15.781,-63.06
15.796,-61.44
15.812,-55.84
15.828,-46.96
15.843,-36.0
15.859,-24.35
15.875,-13.14
15.890,-3.15
15.906,5.19
15.921,11.71
15.937,16.32
15.953,19.12
15.968,20.31
15.984,20.35
16.000,19.78
16.015,19.09
16.031,18.61
16.046,18.43
16.062,18.55
16.078,18.98
16.093,19.84
16.109,21.3
16.125,23.36
16.140,25.72
16.156,27.74
16.171,28.59
16.187,27.59
16.203,24.38
16.218,19.01
16.234,11.83
16.250,3.27
16.265,-6.15
16.281,-15.85
16.296,-25.0
16.312,-32.49
16.328,-36.98
16.343,-37.25
16.359,-32.6
16.375,-23.16
16.390,-9.94
16.406,5.48
16.421,21.41
16.437,36.52
16.453,50.08
16.468,61.89
16.484,71.95
16.500,80.14
16.515,86.11
16.531,89.38
16.546,89.7
16.562,87.31
16.578,82.97
16.593,77.7
16.609,72.34
16.625,67.22
16.640,62.13
16.656,56.52
16.671,49.88
16.687,42.02
16.703,33.19
16.718,23.97
16.734,14.91
16.750,6.45
16.765,-1.36
16.781,-8.71
16.796,-16.03
16.812,-23.77
16.828,-32.21
16.843,-41.29
16.859,-50.49
16.875,-58.86
16.890,-65.21
16.906,-68.4
16.921,-67.63
16.937,-62.63
16.953,-53.72
16.968,-41.69
16.984,-27.67
17.000,-12.92
17.015,1.34
17.031,14.06
17.046,24.49
17.062,32.19
17.078,37.12
17.093,39.65
17.109,40.5
17.125,40.63
17.140,41.07
17.156,42.58
17.171,45.41
17.187,49.13
17.203,52.75
17.218,54.97
17.234,54.65
17.250,51.24
17.265,44.98
17.281,36.87
17.296,28.24
17.312,20.24
17.328,13.42
17.343,7.59
17.359,1.98
17.375,-4.32
17.390,-11.81
17.406,-20.26
17.421,-28.68
17.437,-35.59
17.453,-39.42
17.468,-39.05
17.484,-34.05
17.500,-24.82
17.515,-12.45
17.531,1.62
17.546,15.92
17.562,29.19
17.578,40.53
17.593,49.38
17.609,55.49
17.625,58.8
17.640,59.54
17.656,58.13
17.671,55.28
17.687,51.75
17.703,48.22
17.718,45.02
17.734,42.11
17.750,39.17
17.765,35.88
17.781,32.13
17.796,28.23
17.812,24.72
17.828,22.15
17.843,20.7
17.859,20.08
17.875,19.5
17.890,18.07
17.906,15.1
17.921,10.38
17.937,4.15
17.953,-3.0
17.968,-10.46
17.984,-17.66
18.000,-24.13
18.015,-29.39
18.031,-32.88
18.046,-34.11
18.062,-32.74
18.078,-28.86
18.093,-22.99
18.109,-15.96
18.125,-8.72
18.140,-2.06
18.156,3.53
18.171,7.81
18.187,10.72
18.203,12.22
18.218,12.31
18.234,11.12
18.250,8.9
18.265,6.1
18.281,3.21
18.296,0.61
18.312,-1.57
18.328,-3.41
18.343,-5.18
18.359,-7.09
18.375,-9.2
18.390,-11.4
18.406,-13.46
18.421,-15.3
18.437,-17.1
18.453,-19.34
18.468,-22.61
18.484,-27.46
18.500,-34.06
18.515,-42.03
18.531,-50.43
18.546,-57.89
18.562,-62.91
18.578,-64.19
18.593,-61.03
18.609,-53.43
18.625,-42.09
18.640,-28.26
18.656,-13.38
18.671,1.13
18.687,14.15
18.703,24.91
18.718,32.97
18.734,38.24
18.750,40.86
18.765,41.13
18.781,39.55
18.796,36.75
18.812,33.42
18.828,30.24
18.843,27.8
18.859,26.5
18.875,26.46
18.890,27.54
18.906,29.32
18.921,31.25
18.937,32.73
18.953,33.23
18.968,32.37
18.984,29.95
19.000,25.99
19.015,20.76
19.031,14.76
19.046,8.6
19.062,2.84
19.078,-2.22
19.093,-6.7
19.109,-11.1
19.125,-16.09
19.140,-22.18
19.156,-29.33
19.171,-36.87
19.187,-43.6
19.203,-48.11
19.218,-49.26
19.234,-46.51
19.250,-40.01
19.265,-30.5
19.281,-19.0
19.296,-6.63
19.312,5.62
19.328,16.87
19.343,26.39
19.359,33.64
19.375,38.42
19.390,40.91
19.406,41.72
19.421,41.75
19.437,41.87
19.453,42.7
19.468,44.44
19.484,46.82
19.500,49.31
19.515,51.23
19.531,52.07
19.546,51.47
19.562,49.36
19.578,45.82
19.593,41.09
19.609,35.49
19.625,29.4
19.640,23.24
19.656,17.39
19.671,12.13
19.687,7.6
19.703,3.72
19.718,0.31
19.734,-2.89
19.750,-6.13
19.765,-9.63
19.781,-13.52
19.796,-17.89
19.812,-22.68
19.828,-27.69
19.843,-32.49
19.859,-36.53
19.875,-39.24
19.890,-40.21
19.906,-39.29
19.921,-36.63
19.937,-32.57
19.953,-27.45
19.968,-21.54
19.984,-15.01
20.000,-7.82
20.015,0.04
20.031,8.5
20.046,17.24
20.062,25.63
20.078,32.75
20.093,37.59
20.109,39.43
20.125,38.09
20.140,34.15
20.156,28.75
20.171,23.31
20.187,19.06
20.203,16.68
20.218,16.29
20.234,17.55
20.250,19.98
20.265,23.14
20.281,26.87
20.296,31.06
20.312,35.67
20.328,40.49
20.343,45.11
20.359,49.06
20.375,51.82
20.390,53.02
20.406,52.44
20.421,50.0
20.437,45.76
20.453,39.87
20.468,32.69
20.484,24.78
20.500,16.89
20.515,9.97
20.531,4.97
20.546,2.94
20.562,4.93
20.578,12.01
20.593,25.04
20.609,44.31
20.625,69.13
20.640,97.65
20.656,127.12
20.671,154.53
20.687,177.45
20.703,194.54
20.718,205.56
20.734,210.86
20.750,210.71
20.765,204.96
20.781,193.17
20.796,175.16
20.812,151.5
20.828,123.74
20.843,94.19
20.859,65.17
20.875,38.5
20.890,15.07
20.906,-5.19
20.921,-23.15
20.937,-40.21
20.953,-58.31
20.968,-79.75
20.984,-106.95
21.000,-141.5
21.015,-182.9
21.031,-227.75
21.046,-269.95
21.062,-302.15
21.078,-318.22
21.093,-315.55
21.109,-296.05
21.125,-265.47
21.140,-231.19
21.156,-199.61
21.171,-174.31
21.187,-155.63
21.203,-141.49
21.218,-128.89
21.234,-115.25
21.250,-99.3
21.265,-81.29
21.281,-62.78
21.296,-46.2
21.312,-34.1
21.328,-28.42
21.343,-29.82
21.359,-37.48
21.375,-49.28
21.390,-62.43
21.406,-74.22
21.421,-82.69
21.437,-86.89
21.453,-86.88
21.468,-83.35
21.484,-77.31
21.500,-69.85
21.515,-61.93
21.531,-54.37
21.546,-47.69
21.562,-42.13
21.578,-37.59
21.593,-33.76
21.609,-30.29
21.625,-27.04
21.640,-24.2
21.656,-22.28
21.671,-21.86
21.687,-23.24
21.703,-26.26
21.718,-30.25
21.734,-34.35
21.750,-37.86
21.765,-40.59
21.781,-42.96
21.796,-45.66
21.812,-49.07
21.828,-52.82
21.843,-55.62
21.859,-55.69
21.875,-51.43
21.890,-42.15
21.906,-28.46
21.921,-12.06
21.937,4.86
21.953,20.3
21.968,32.99
21.984,42.42
22.000,48.63
22.015,51.87
22.031,52.41
22.046,50.54
22.062,46.67
22.078,41.47
22.093,35.82
22.109,30.7
22.125,26.94
22.140,25.03
22.156,24.99
22.171,26.46
22.187,28.71
22.203,30.99
22.218,32.63
22.234,33.22
22.250,32.62
22.265,30.93
22.281,28.28
22.296,24.78
22.312,20.47
22.328,15.39
22.343,9.59
22.359,3.23
22.375,-3.59
22.390,-10.78
22.406,-18.27
22.421,-25.82
22.437,-32.81
22.453,-38.23
22.468,-40.86
22.484,-39.67
22.500,-34.26
22.515,-25.1
22.531,-13.39
22.546,-0.74
22.562,11.38
22.578,21.89
22.593,30.23
22.609,36.22
22.625,39.9
22.640,41.45
22.656,41.11
22.671,39.32
22.687,36.65
22.703,33.86
22.718,31.67
22.734,30.58
22.750,30.72
22.765,31.83
22.781,33.35
22.796,34.71
22.812,35.45
22.828,35.4
22.843,34.62
22.859,33.2
22.875,31.31
22.890,29.06
22.906,26.63
22.921,24.32
22.937,22.5
22.953,21.43
22.968,21.06
22.984,21.0
23.000,20.56
23.015,19.11
23.031,16.38
23.046,12.7
23.062,8.86
23.078,5.97
23.093,5.04
23.109,6.67
23.125,10.85
23.140,17.02
23.156,24.26
23.171,31.49
23.187,37.65
23.203,41.93
23.218,43.8
23.234,43.1
23.250,40.07
23.265,35.3
23.281,29.58
23.296,23.7
23.312,18.24
23.328,13.48
23.343,9.32
23.359,5.48
23.375,1.63
23.390,-2.42
23.406,-6.68
23.421,-10.95
23.437,-14.96
23.453,-18.41
23.468,-21.1
23.484,-23.0
23.500,-24.25
23.515,-25.07
23.531,-25.76
23.546,-26.54
23.562,-27.62
23.578,-29.16
23.593,-31.39
23.609,-34.49
23.625,-38.5
23.640,-43.02
23.656,-47.2
23.671,-49.8
23.687,-49.59
23.703,-45.8
23.718,-38.49
23.734,-28.47
23.750,-17.08
23.765,-5.71
23.781,4.61
23.796,13.37
23.812,20.47
23.828,26.03
23.843,30.16
23.859,32.88
23.875,34.15
23.890,33.98
23.906,32.56
23.921,30.2
23.937,27.34
23.953,24.39
23.968,21.71
23.984,19.4
24.000,17.48
24.015,15.82
24.031,14.3
24.046,12.86
24.062,11.5
24.078,10.24
24.093,9.08
24.109,7.96
24.125,6.71
24.140,5.17
24.156,3.16
24.171,0.52
24.187,-2.87
24.203,-7.14
24.218,-12.26
24.234,-17.92
24.250,-23.43
24.265,-27.73
24.281,-29.65
24.296,-28.22
24.312,-23.04
24.328,-14.5
24.343,-3.67
24.359,8.01
24.375,19.08
24.390,28.43
24.406,35.46
24.421,39.97
24.437,42.09
24.453,42.04
24.468,40.18
24.484,36.9
24.500,32.75
24.515,28.44
24.531,24.68
24.546,22.06
24.562,20.82
24.578,20.81
24.593,21.51
24.609,22.3
24.625,22.67
24.640,22.45
24.656,21.84
24.671,21.26
24.687,21.13
24.703,21.7
24.718,22.87
24.734,24.3
24.750,25.51
24.765,26.04
24.781,25.59
24.796,24.16
24.812,22.0
24.828,19.69
24.843,18.05
24.859,18.05
24.875,20.62
24.890,26.38
24.906,35.33
24.921,46.78
24.937,59.39
24.953,71.53
24.968,81.79
24.984,89.38
25.000,94.25
25.015,96.92
25.031,98.1
25.046,98.38
25.062,98.03
25.078,97.11
25.093,95.63
25.109,93.69
25.125,91.49
25.140,89.32
25.156,87.47
25.171,86.26
25.187,86.04
25.203,87.14
25.218,89.78
25.234,94.07
25.250,99.95
25.265,107.29
25.281,115.98
25.296,125.97
25.312,137.12
25.328,149.1
25.343,161.3
25.359,172.91
25.375,183.18
25.390,191.66
25.406,198.21
25.421,202.86
25.437,205.64
25.453,206.37
25.468,204.8
25.484,200.74
25.500,194.25
25.515,185.73
25.531,175.8
25.546,165.09
25.562,154.06
25.578,142.84
25.593,131.29
25.609,119.07
25.625,105.75
25.640,90.91
25.656,74.19
25.671,55.45
25.687,34.74
25.703,12.26
25.718,-11.75
25.734,-37.01
25.750,-63.1
25.765,-89.2
25.781,-114.08
25.796,-136.42
25.812,-155.33
25.828,-171.08
25.843,-185.3
25.859,-200.41
25.875,-218.59
25.890,-240.65
25.906,-265.55
25.921,-290.88
25.937,-313.94
25.953,-332.85
25.968,-346.86
25.984,-355.81
26.000,-359.33
26.015,-356.29
26.031,-345.18
26.046,-325.05
26.062,-296.4
26.078,-261.37
26.093,-222.94
26.109,-183.8
26.125,-145.45
26.140,-108.04
26.156,-71.12
26.171,-34.57
26.187,0.94
26.203,34.08
26.218,63.53
26.234,88.65
26.250,109.75
26.265,127.78
26.281,143.7
26.296,157.74
26.312,169.26
26.328,176.95
26.343,179.5
26.359,176.29
26.375,167.64
26.390,154.83
26.406,139.48
26.421,122.96
26.437,105.89
26.453,87.97
26.468,68.22
26.484,45.62
26.500,19.78
26.515,-8.44
26.531,-36.75
26.546,-61.81
26.562,-80.06
26.578,-88.8
26.593,-87.15
26.609,-76.32
26.625,-59.07
26.640,-38.51
26.656,-16.83
26.671,5.39
26.687,28.87
26.703,54.72
26.718,83.23
26.734,113.18
26.750,142.03
26.765,166.7
26.781,184.67
26.796,194.84
26.812,197.61
26.828,194.45
26.843,186.95
26.859,176.1
26.875,162.02
26.890,144.37
26.906,123.01
26.921,98.55
26.937,72.46
26.953,46.52
26.968,22.02
26.984,-0.9
27.000,-23.38
27.015,-47.29
27.031,-74.44
27.046,-105.78
27.062,-141.07
27.078,-178.96
27.093,-217.47
27.109,-254.39
27.125,-287.65
27.140,-315.65
27.156,-337.43
27.171,-352.81
27.187,-362.41
27.203,-367.41
27.218,-369.11
27.234,-368.38
27.250,-365.2
27.265,-358.71
27.281,-347.75
27.296,-331.62
27.312,-310.75
27.328,-286.71
27.343,-261.64
27.359,-237.33
27.375,-214.58
27.390,-193.04
27.406,-171.67
27.421,-149.38
27.437,-125.5
27.453,-99.88
27.468,-72.8
27.484,-44.73
27.500,-16.45
27.515,10.92
27.531,35.94
27.546,57.19
27.562,73.72
27.578,85.34
27.593,92.53
27.609,96.14
27.625,97.04
27.640,95.87
27.656,92.96
27.671,88.39
27.687,82.0
27.703,73.56
27.718,63.01
27.734,50.82
27.750,38.19
27.765,26.86
27.781,18.56
27.796,14.4
27.812,14.49
27.828,18.05
27.843,23.83
27.859,30.52
27.875,36.73
27.890,40.72
27.906,40.25
27.921,32.87
27.937,16.95
27.953,-7.25
27.968,-37.1
27.984,-67.96
28.000,-94.63
28.015,-112.94
28.031,-121.04
28.046,-119.65
28.062,-111.4
28.078,-99.66
28.093,-87.33
28.109,-76.06
28.125,-66.14
28.140,-56.73
28.156,-46.62
28.171,-34.82
28.187,-21.03
28.203,-5.76
28.218,9.75
28.234,23.8
28.250,34.66
28.265,40.79
28.281,41.25
28.296,36.05
28.312,26.59
28.328,15.62
28.343,6.88
28.359,4.05
28.375,9.46
28.390,23.16
28.406,42.8
28.421,64.55
28.437,84.62
28.453,100.71
28.468,112.65
28.484,122.08
28.500,131.46
28.515,142.86
28.531,157.14
28.546,173.86
28.562,191.77
28.578,209.54
28.593,226.44
28.609,242.7
28.625,259.41
28.640,278.01
28.656,299.35
28.671,322.82
28.687,345.71
28.703,363.64
28.718,371.52
28.734,365.34
28.750,343.7
28.765,308.43
28.781,263.97
28.796,215.76
28.812,168.46
28.828,124.57
28.843,84.13
28.859,45.42
28.875,5.95
28.890,-36.65
28.906,-84.27
28.921,-138.06
28.937,-197.71
28.953,-260.53
28.968,-320.82
28.984,-370.5
29.000,-401.37
29.015,-408.49
29.031,-392.92
29.046,-362.23
29.062,-327.93
29.078,-300.8
29.093,-286.24
29.109,-282.51
29.125,-282.42
29.140,-277.68
29.156,-263.12
29.171,-238.54
29.187,-207.48
29.203,-174.25
29.218,-141.4
29.234,-109.22
29.250,-77.14
29.265,-45.75
29.281,-17.68
29.296,3.03
29.312,12.94
29.328,10.92
29.343,-1.22
29.359,-19.54
29.375,-39.64
29.390,-57.98
29.406,-72.77
29.421,-83.89
29.437,-92.41
29.453,-99.74
29.468,-107.04
29.484,-114.7
29.500,-122.19
29.515,-128.48
29.531,-132.62
29.546,-134.18
29.562,-133.5
29.578,-131.43
29.593,-128.84
29.609,-126.32
29.625,-123.99
29.640,-121.64
29.656,-118.86
29.671,-115.2
29.687,-110.15
29.703,-103.28
29.718,-94.27
29.734,-82.99
29.750,-69.47
29.765,-53.89
29.781,-36.39
29.796,-17.26
29.812,2.96
29.828,23.26
29.843,42.09
29.859,57.6
29.875,68.16
29.890,72.99
29.906,72.61
29.921,68.89
29.937,64.46
29.953,61.88
29.968,62.75
29.984,67.03
30.000,73.12
30.015,78.31
30.031,79.77
30.046,75.23
30.062,63.57
30.078,44.74
30.093,19.51
30.109,-10.91
30.125,-45.08
30.140,-81.41
30.156,-118.11
30.171,-153.24
30.187,-184.9
30.203,-211.44
30.218,-231.62
30.234,-244.69
30.250,-250.34
30.265,-248.65
30.281,-240.1
30.296,-225.65
30.312,-206.66
30.328,-184.76
30.343,-161.49
30.359,-138.08
30.375,-115.11
30.390,-92.66
30.406,-70.45
30.421,-48.19
30.437,-25.93
30.453,-4.07
30.468,16.61
30.484,35.3
30.500,51.36
30.515,64.58
30.531,75.11
30.546,83.41
30.562,90.0
30.578,95.29
30.593,99.56
30.609,102.93
30.625,105.51
30.640,107.37
30.656,108.6
30.671,109.2
30.687,109.14
30.703,108.33
30.718,106.71
30.734,104.3
30.750,101.15
30.765,97.28
30.781,92.52
30.796,86.55
30.812,78.88
30.828,69.14
30.843,57.34
30.859,44.24
30.875,31.35
30.890,20.7
30.906,14.39
30.921,13.82
30.937,19.34
30.953,30.01
30.968,44.04
30.984,59.31
31.000,74.0
31.015,86.98
31.031,97.87
31.046,106.73
31.062,113.67
31.078,118.7
31.093,121.71
31.109,122.64
31.125,121.74
31.140,119.66
31.156,117.24
31.171,115.18
31.187,113.78
31.203,112.74
31.218,111.36
31.234,108.9
31.250,104.89
31.265,99.35
31.281,92.72
31.296,85.57
31.312,78.34
31.328,71.23
31.343,64.16
31.359,56.94
31.375,49.34
31.390,40.94
31.406,31.19
31.421,19.37
31.437,5.01
31.453,-11.52
31.468,-28.62
31.484,-43.63
31.500,-53.72
31.515,-57.05
31.531,-53.72
31.546,-45.68
31.562,-35.9
31.578,-26.86
31.593,-19.51
31.609,-13.12
31.625,-6.19
31.640,2.5
31.656,13.01
31.671,24.4
31.687,35.34
31.703,45.0
31.718,53.4
31.734,61.14
31.750,68.83
31.765,76.59
31.781,84.08
31.796,90.84
31.812,96.62
31.828,101.47
31.843,105.52
31.859,108.61
31.875,110.17
31.890,109.36
31.906,105.54
31.921,98.59
31.937,88.97
31.953,77.56
31.968,65.18
31.984,52.49
32.000,39.97
32.015,28.16
32.031,17.89
32.046,10.27
32.062,6.34
32.078,6.71
32.093,11.19
32.109,18.9
32.125,28.51
32.140,38.66
32.156,48.34
32.171,57.05
32.187,64.65
32.203,71.07
32.218,76.05
32.234,79.13
32.250,79.82
32.265,77.99
32.281,74.11
32.296,69.29
32.312,64.91
32.328,62.13
32.343,61.36
32.359,62.13
32.375,63.25
32.390,63.31
32.406,61.12
32.421,56.11
32.437,48.3
32.453,38.22
32.468,26.66
32.484,14.42
32.500,2.18
32.515,-9.59
32.531,-20.74
32.546,-31.4
32.562,-41.86
32.578,-52.29
32.593,-62.5
32.609,-71.71
32.625,-78.71
32.640,-82.1
32.656,-80.91
32.671,-74.97
32.687,-65.01
32.703,-52.44
32.718,-38.86
32.734,-25.63
32.750,-13.61
32.765,-3.22
32.781,5.35
32.796,11.92
32.812,16.28
32.828,18.36
32.843,18.35
32.859,16.81
32.875,14.53
32.890,12.37
32.906,10.96
32.921,10.5
32.937,10.84
32.953,11.57
32.968,12.24
32.984,12.55
33.000,12.42
33.015,11.98
33.031,11.46
33.046,11.06
33.062,10.87
33.078,10.84
33.093,10.78
33.109,10.44
33.125,9.42
33.140,7.37
33.156,3.99
33.171,-0.76
33.187,-6.53
33.203,-12.49
33.218,-17.49
33.234,-20.31
33.250,-20.07
33.265,-16.49
33.281,-9.99
33.296,-1.48
33.312,7.92
33.328,17.26
33.343,25.91
33.359,33.55
33.375,40.01
33.390,45.12
33.406,48.7
33.421,50.63
33.437,50.97
33.453,50.04
33.468,48.36
33.484,46.48
33.500,44.75
33.515,43.27
33.531,41.82
33.546,40.13
33.562,37.96
33.578,35.33
33.593,32.57
33.609,30.14
33.625,28.41
33.640,27.45
33.656,26.91
33.671,26.16
33.687,24.52
33.703,21.53
33.718,17.16
33.734,11.66
33.750,5.44
33.765,-1.17
33.781,-7.85
33.796,-14.18
33.812,-19.41
33.828,-22.39
33.843,-21.77
33.859,-16.52
33.875,-6.33
33.890,8.05
33.906,25.0
33.921,42.54
33.937,58.91
33.953,73.03
33.968,84.68
33.984,94.1
34.000,101.79
34.015,108.15
34.031,113.51
34.046,118.34
34.062,123.41
34.078,129.61
34.093,137.55
34.109,147.1
34.125,157.05
34.140,165.39
34.156,169.9
34.171,168.94
34.187,161.98
34.203,149.75
34.218,133.89
34.234,116.45
34.250,99.31
34.265,83.95
34.281,71.22
34.296,61.28
34.312,53.58
34.328,46.67
34.343,38.2
34.359,24.94
34.375,3.42
34.390,-28.74
34.406,-71.14
34.421,-119.23
34.437,-164.41
34.453,-196.08
34.468,-205.19
34.484,-187.83
34.500,-147.14
34.515,-92.32
34.531,-35.18
34.546,14.38
34.562,51.43
34.578,76.47
34.593,93.05
34.609,104.46
34.625,111.16
34.640,110.45
34.656,98.5
34.671,73.15
34.687,36.06
34.703,-7.12
34.718,-48.68
34.734,-81.74
34.750,-103.0
34.765,-113.7
34.781,-118.68
34.796,-124.16
34.812,-135.78
34.828,-157.21
34.843,-189.83
34.859,-232.76
34.875,-282.45
34.890,-332.4
34.906,-373.47
34.921,-395.83
34.937,-392.75
34.953,-364.5
34.968,-320.24
34.984,-275.94
35.000,-248.52
35.015,-248.55
35.031,-275.46
35.046,-317.77
35.062,-358.34
35.078,-381.94
35.093,-381.02
35.109,-357.16
35.125,-317.96
35.140,-272.18
35.156,-225.81
35.171,-181.16
35.187,-138.37
35.203,-97.64
35.218,-60.47
35.234,-28.98
35.250,-4.53
35.265,13.26
35.281,26.35
35.296,37.23
35.312,47.44
35.328,57.09
35.343,65.23
35.359,70.55
35.375,72.41
35.390,71.02
35.406,67.26
35.421,62.26
35.437,56.78
35.453,50.93
35.468,44.1
35.484,35.21
35.500,23.27
35.515,8.15
35.531,-8.95
35.546,-25.56
35.562,-38.49
35.578,-44.78
35.593,-42.85
35.609,-33.13
35.625,-18.02
35.640,-1.19
35.656,13.71
35.671,24.29
35.687,30.12
35.703,32.62
35.718,34.12
35.734,36.61
35.750,40.84
35.765,45.97
35.781,50.15
35.796,51.45
35.812,48.79
35.828,42.35
35.843,33.41
35.859,23.81
35.875,15.23
35.890,8.8
35.906,5.01
35.921,4.0
35.937,5.74
35.953,10.14
35.968,16.91
35.984,25.41
36.000,34.59
36.015,43.11
36.031,49.71
36.046,53.6
36.062,54.74
36.078,53.96
36.093,52.73
36.109,52.61
36.125,54.82
36.140,59.81
36.156,67.24
36.171,76.22
36.187,85.65
36.203,94.67
36.218,102.8
36.234,109.91
36.250,116.02
36.265,120.94
36.281,124.26
36.296,125.41
36.312,123.96
36.328,119.91
36.343,113.71
36.359,106.14
36.375,98.01
36.390,89.89
36.406,81.91
36.421,73.85
36.437,65.33
36.453,56.08
36.468,46.09
36.484,35.67
36.500,25.29
36.515,15.4
36.531,6.29
36.546,-1.96
36.562,-9.41
36.578,-16.25
36.593,-22.69
36.609,-29.01
36.625,-35.58
36.640,-42.81
36.656,-50.95
36.671,-59.83
36.687,-68.7
36.703,-76.24
36.718,-80.84
36.734,-81.11
36.750,-76.35
36.765,-66.84
36.781,-53.8
36.796,-39.05
36.812,-24.6
36.828,-12.07
36.843,-2.59
36.859,3.38
36.875,5.85
36.890,5.24
36.906,2.23
36.921,-2.23
36.937,-7.05
36.953,-11.1
36.968,-13.51
36.984,-13.89
37.000,-12.48
37.015,-10.0
37.031,-7.24
37.046,-4.69
37.062,-2.34
37.078,0.17
37.093,3.15
37.109,6.48
37.125,9.41
37.140,10.74
37.156,9.3
37.171,4.39
37.187,-3.98
37.203,-14.94
37.218,-26.89
37.234,-37.71
37.250,-45.14
37.265,-47.37
37.281,-43.7
37.296,-34.96
37.312,-23.26
37.328,-11.12
37.343,-0.39
37.359,8.4
37.375,15.96
37.390,23.55
37.406,32.08
37.421,41.57
37.437,51.26
37.453,60.14
37.468,67.45
37.484,72.82
37.500,76.16
37.515,77.45
37.531,76.65
37.546,73.91
37.562,69.72
37.578,64.9
37.593,60.32
37.609,56.71
37.625,54.36
37.640,53.24
37.656,53.03
37.671,53.34
37.687,53.79
37.703,54.08
37.718,54.11
37.734,53.96
37.750,53.75
37.765,53.57
37.781,53.28
37.796,52.55
37.812,50.99
37.828,48.23
37.843,44.17
37.859,38.95
37.875,33.04
37.890,27.21
37.906,22.44
37.921,19.64
37.937,19.46
37.953,22.05
37.968,27.12
37.984,34.26
38.000,43.29
38.015,54.34
38.031,67.53
38.046,82.34
38.062,97.13
38.078,109.17
38.093,115.49
38.109,113.94
38.125,104.09
38.140,87.37
38.156,66.42
38.171,44.04
38.187,22.33
38.203,2.41
38.218,-15.37
38.234,-30.82
38.250,-43.65
38.265,-53.4
38.281,-59.69
38.296,-62.47
38.312,-62.09
38.328,-59.23
38.343,-54.73
38.359,-49.46
38.375,-44.27
38.390,-39.91
38.406,-36.84
38.421,-35.18
38.437,-34.67
38.453,-34.9
38.468,-35.55
38.484,-36.61
38.500,-38.35
38.515,-41.07
38.531,-44.64
38.546,-48.32
38.562,-50.79
38.578,-50.56
38.593,-46.57
38.609,-38.58
38.625,-27.29
38.640,-13.94
38.656,0.12
38.671,13.9
38.687,26.82
38.703,38.47
38.718,48.35
38.734,55.76
38.750,59.99
38.765,60.7
38.781,58.36
38.796,54.19
38.812,49.86
38.828,46.83
38.843,45.84
38.859,46.64
38.875,48.25
38.890,49.43
38.906,49.18
38.921,47.06
38.937,43.22
38.953,38.21
38.968,32.75
38.984,27.4
39.000,22.43
39.015,17.74
39.031,12.9
39.046,7.32
39.062,0.54
39.078,-7.6
39.093,-16.8
39.109,-26.38
39.125,-35.43
39.140,-43.0
39.156,-48.22
39.171,-50.33
39.187,-48.69
39.203,-42.98
39.218,-33.24
39.234,-20.01
39.250,-4.44
39.265,11.8
39.281,26.66
39.296,37.86
39.312,43.3
39.328,41.59
39.343,32.51
39.359,17.39
39.375,-0.99
39.390,-19.17
39.406,-34.11
39.421,-44.15
39.437,-49.49
39.453,-51.7
39.468,-52.87
39.484,-54.6
39.500,-57.48
39.515,-61.19
39.531,-65.07
39.546,-68.58
39.562,-71.48
39.578,-73.71
39.593,-75.11
39.609,-75.27
39.625,-73.65
39.640,-70.0
39.656,-64.57
39.671,-58.26
39.687,-52.28
39.703,-47.84
39.718,-45.69
39.734,-45.95
39.750,-48.08
39.765,-51.05
39.781,-53.51
39.796,-54.13
39.812,-51.87
39.828,-46.16
39.843,-37.11
39.859,-25.47
39.875,-12.51
39.890,0.34
39.906,11.89
39.921,21.36
39.937,28.52
39.953,33.5
39.968,36.63
39.984,38.14
40.000,38.19
40.015,36.82
40.031,34.23
40.046,30.72
40.062,26.84
40.078,23.22
40.093,20.36
40.109,18.42
40.125,17.23
40.140,16.28
40.156,15.04
40.171,13.17
40.187,10.68
40.203,7.93
40.218,5.38
40.234,3.38
40.250,2.02
40.265,1.04
40.281,0.04
40.296,-1.42
40.312,-3.6
40.328,-6.48
40.343,-9.9
40.359,-13.56
40.375,-17.07
40.390,-19.96
40.406,-21.71
40.421,-21.72
40.437,-19.49
40.453,-14.79
40.468,-7.8
40.484,0.82
40.500,10.17
40.515,19.25
40.531,27.3
40.546,33.87
40.562,38.78
40.578,42.06
40.593,43.79
40.609,44.03
40.625,42.91
40.640,40.68
40.656,37.75
40.671,34.67
40.687,32.04
40.703,30.41
40.718,30.09
40.734,31.21
40.750,33.65
40.765,37.17
40.781,41.45
40.796,46.19
40.812,51.12
40.828,55.99
40.843,60.58
40.859,64.64
40.875,68.04
40.890,70.69
40.906,72.65
40.921,74.08
40.937,75.26
40.953,76.52
40.968,78.15
40.984,80.32
41.000,83.1
41.015,86.43
41.031,90.15
41.046,94.17
41.062,98.43
41.078,102.95
41.093,107.79
41.109,112.88
41.125,118.18
41.140,123.68
41.156,129.68
41.171,136.78
41.187,145.7
41.203,156.78
41.218,169.41
41.234,181.95
41.250,191.87
41.265,196.59
41.281,194.25
41.296,184.25
41.312,167.07
41.328,143.84
41.343,115.89
41.359,84.83
41.375,53.01
41.390,23.77
41.406,0.98
41.421,-12.27
41.437,-15.14
41.453,-9.71
41.468,-0.3
41.484,8.14
41.500,12.07
41.515,10.18
41.531,3.11
41.546,-7.69
41.562,-21.04
41.578,-36.32
41.593,-52.88
41.609,-69.4
41.625,-83.8
41.640,-93.82
41.656,-98.03
41.671,-96.46
41.687,-90.48
41.703,-82.09
41.718,-73.09
41.734,-64.57
41.750,-56.89
41.765,-50.04
41.781,-44.0
41.796,-38.9
41.812,-35.0
41.828,-32.54
41.843,-31.54
41.859,-31.75
41.875,-32.68
41.890,-33.79
41.906,-34.72
41.921,-35.41
41.937,-36.11
41.953,-37.25
41.968,-39.14
41.984,-41.79
42.000,-44.84
42.015,-47.62
42.031,-49.37
42.046,-49.46
42.062,-47.61
42.078,-43.92
42.093,-38.9
42.109,-33.22
42.125,-27.49
42.140,-21.88
42.156,-16.07
42.171,-9.39
42.187,-1.19
42.203,8.71
42.218,19.81
42.234,31.12
42.250,41.67
42.265,50.9
42.281,58.93
42.296,66.26
42.312,73.41
42.328,80.53
42.343,87.32
42.359,93.16
42.375,97.17
42.390,98.38
42.406,95.75
42.421,88.47
42.437,76.44
42.453,60.61
42.468,42.94
42.484,25.77
42.500,10.81
42.515,-1.78
42.531,-13.29
42.546,-25.74
42.562,-40.56
42.578,-57.71
42.593,-75.88
42.609,-93.49
42.625,-109.9
42.640,-125.97
42.656,-143.56
42.671,-164.13
42.687,-187.54
42.703,-211.68
42.718,-233.17
42.734,-248.78
42.750,-256.59
42.765,-256.44
42.781,-249.49
42.796,-237.48
42.812,-222.01
42.828,-204.35
42.843,-185.64
42.859,-166.96
42.875,-149.28
42.890,-133.11
42.906,-118.34
42.921,-104.31
42.937,-90.21
42.953,-75.62
42.968,-60.83
42.984,-46.71
43.000,-34.25
43.015,-24.01
43.031,-15.86
43.046,-9.21
43.062,-3.47
43.078,1.55
43.093,5.49
43.109,7.72
43.125,7.82
43.140,5.83
43.156,2.0
43.171,-3.64
43.187,-11.64
43.203,-22.96
43.218,-38.06
43.234,-56.19
43.250,-75.03
43.265,-91.34
43.281,-102.3
43.296,-106.74
43.312,-105.5
43.328,-100.78
43.343,-94.83
43.359,-88.9
43.375,-83.02
43.390,-76.61
43.406,-69.37
43.421,-61.81
43.437,-55.01
43.453,-49.97
43.468,-47.03
43.484,-45.74
43.500,-45.41
43.515,-45.6
43.531,-46.33
43.546,-47.78
43.562,-49.78
43.578,-51.65
43.593,-52.41
43.609,-51.38
43.625,-48.75
43.640,-45.64
43.656,-43.61
43.671,-43.97
43.687,-47.26
43.703,-53.19
43.718,-60.92
43.734,-69.43
43.750,-77.73
43.765,-84.84
43.781,-89.76
43.796,-91.5
43.812,-89.32
43.828,-83.03
43.843,-73.14
43.859,-60.7
43.875,-47.15
43.890,-33.93
43.906,-22.31
43.921,-13.15
43.937,-6.75
43.953,-2.76
43.968,-0.24
43.984,2.05
44.000,5.21
44.015,9.74
44.031,15.34
44.046,21.1
44.062,26.05
44.078,29.63
44.093,31.93
44.109,33.5
44.125,35.0
44.140,36.74
44.156,38.56
44.171,40.06
44.187,40.87
44.203,40.87
44.218,40.17
44.234,38.84
44.250,36.75
44.265,33.7
44.281,29.59
44.296,24.82
44.312,20.35
44.328,17.38
44.343,17.01
44.359,19.73
44.375,25.2
44.390,32.44
44.406,40.19
44.421,47.29
44.437,53.02
44.453,57.1
44.468,59.59
44.484,60.59
44.500,60.17
44.515,58.14
44.531,54.24
44.546,48.24
44.562,40.28
44.578,31.01
44.593,21.66
44.609,13.77
44.625,8.71
44.640,7.19
44.656,8.94
44.671,12.65
44.687,16.51
44.703,18.78
44.718,18.43
44.734,15.29
44.750,9.96
44.765,3.36
44.781,-3.68
44.796,-10.52
44.812,-16.57
44.828,-21.08
44.843,-22.97
44.859,-20.98
44.875,-14.08
44.890,-2.02
44.906,14.42
44.921,33.49
44.937,52.8
44.953,69.93
44.968,82.92
44.984,90.76
45.000,93.56
45.015,92.57
45.031,89.88
45.046,87.99
45.062,89.15
45.078,94.64
45.093,104.35
45.109,116.7
45.125,129.1
45.140,138.79
45.156,143.7
45.171,142.98
45.187,136.98
45.203,126.77
45.218,113.59
45.234,98.34
45.250,81.51
45.265,63.36
45.281,44.26
45.296,25.09
45.312,7.22
45.328,-7.6
45.343,-17.73
45.359,-22.13
45.375,-20.7
45.390,-14.4
45.406,-4.86
45.421,6.09
45.437,16.98
45.453,26.92
45.468,35.49
45.484,42.48
45.500,47.62
45.515,50.54
45.531,50.95
45.546,48.87
45.562,44.68
45.578,39.01
45.593,32.44
45.609,25.37
45.625,17.97
45.640,10.31
45.656,2.53
45.671,-5.11
45.687,-12.31
45.703,-18.84
45.718,-24.65
45.734,-29.88
45.750,-34.83
45.765,-39.88
45.781,-45.49
45.796,-52.0
45.812,-59.52
45.828,-67.66
45.843,-75.49
45.859,-81.7
45.875,-84.94
45.890,-84.35
45.906,-79.8
45.921,-71.93
45.937,-61.84
45.953,-50.65
45.968,-39.18
45.984,-27.99
46.000,-17.36
46.015,-7.5
46.031,1.39
46.046,9.26
46.062,16.21
46.078,22.52
46.093,28.4
46.109,33.95
46.125,39.08
46.140,43.51
46.156,46.99
46.171,49.22
46.187,50.01
46.203,49.1
46.218,46.23
46.234,41.23
46.250,34.15
46.265,25.32
46.281,15.26
46.296,4.64
46.312,-5.96
46.328,-16.01
46.343,-24.98
46.359,-32.26
46.375,-37.1
46.390,-38.76
46.406,-36.78
46.421,-31.33
46.437,-23.39
46.453,-14.64
46.468,-7.09
46.484,-2.43
46.500,-1.46
46.515,-3.77
46.531,-7.94
46.546,-12.08
46.562,-14.56
46.578,-14.54
46.593,-12.2
46.609,-8.54
46.625,-4.88
46.640,-2.44
46.656,-2.01
46.671,-3.81
46.687,-7.46
46.703,-12.12
46.718,-16.6
46.734,-19.69
46.750,-20.54
46.765,-19.03
46.781,-15.96
46.796,-12.94
46.812,-11.83
46.828,-14.03
46.843,-19.95
46.859,-28.68
46.875,-38.29
46.890,-46.42
46.906,-50.92
46.921,-50.43
46.937,-44.66
46.953,-34.28
46.968,-20.6
46.984,-5.22
47.000,10.43
47.015,25.17
47.031,38.2
47.046,48.99
47.062,57.29
47.078,63.02
47.093,66.33
47.109,67.54
47.125,67.05
47.140,65.23
47.156,62.32
47.171,58.4
47.187,53.46
47.203,47.54
47.218,40.87
47.234,33.78
47.250,26.65
47.265,19.85
47.281,13.65
47.296,8.2
47.312,3.58
47.328,-0.29
47.343,-3.77
47.359,-7.53
47.375,-12.36
47.390,-18.92
47.406,-27.26
47.421,-36.54
47.437,-45.13
47.453,-51.01
47.468,-52.61
47.484,-49.39
47.500,-42.13
47.515,-32.59
47.531,-22.81
47.546,-14.29
47.562,-7.65
47.578,-2.64
47.593,1.42
47.609,5.25
47.625,9.33
47.640,13.8
47.656,18.58
47.671,23.42
47.687,27.91
47.703,31.47
47.718,33.57
47.734,33.96
47.750,32.99
47.765,31.65
47.781,31.14
47.796,32.26
47.812,34.69
47.828,36.91
47.843,36.65
47.859,31.88
47.875,21.77
47.890,7.21
47.906,-9.55
47.921,-25.66
47.937,-38.75
47.953,-47.52
47.968,-51.84
47.984,-52.23
48.000,-49.39
48.015,-43.8
48.031,-35.82
48.046,-25.85
48.062,-14.53
48.078,-2.73
48.093,8.58
48.109,18.64
48.125,27.02
48.140,33.63
48.156,38.63
48.171,42.19
48.187,44.38
48.203,45.13
48.218,44.31
48.234,41.85
48.250,38.0
48.265,33.46
48.281,29.29
48.296,26.67
48.312,26.38
48.328,28.5
48.343,32.17
48.359,35.84
48.375,37.74
48.390,36.44
48.406,31.2
48.421,22.08
48.437,9.78
48.453,-4.57
48.468,-19.61
48.484,-33.8
48.500,-45.58
48.515,-53.58
48.531,-56.83
48.546,-54.98
48.562,-48.3
48.578,-37.51
48.593,-23.65
48.609,-7.84
48.625,8.77
48.640,25.09
48.656,40.17
48.671,53.31
48.687,64.11
48.703,72.59
48.718,79.01
48.734,83.85
48.750,87.67
48.765,91.09
48.781,94.72
48.796,99.03
48.812,104.28
48.828,110.37
48.843,116.9
48.859,123.26
48.875,128.78
48.890,132.85
48.906,134.92
48.921,134.63
48.937,131.8
48.953,126.56
48.968,119.4
48.984,111.13
49.000,102.74
49.015,95.07
49.031,88.44
49.046,82.44
49.062,76.02
49.078,68.02
49.093,57.9
49.109,46.36
49.125,35.42
49.140,27.82
49.156,25.94
49.171,30.66
49.187,40.76
49.203,53.13
49.218,63.89
49.234,69.63
49.250,68.67
49.265,61.3
49.281,49.39
49.296,35.44
49.312,21.48
49.328,8.42
49.343,-4.21
49.359,-17.95
49.375,-34.67
49.390,-55.59
49.406,-80.49
49.421,-107.1
49.437,-131.23
49.453,-147.68
49.468,-151.91
49.484,-141.91
49.500,-119.64
49.515,-91.03
49.531,-64.42
49.546,-48.19
49.562,-48.42
49.578,-67.63
49.593,-104.38
49.609,-153.61
49.625,-207.34
49.640,-255.8
49.656,-289.16
49.671,-299.88
49.687,-285.02
49.703,-247.24
49.718,-194.14
49.734,-135.78
49.750,-81.35
49.765,-36.71
49.781,-3.64
49.796,19.19
49.812,34.49
49.828,45.0
49.843,53.03
49.859,60.55
49.875,69.3
49.890,80.58
49.906,94.68
49.921,110.84
49.937,127.52
49.953,143.26
49.968,157.21
49.984,169.45
50.000,180.66
50.015,191.54
50.031,202.35
50.046,212.63
50.062,221.39
50.078,227.4
50.093,229.5
50.109,226.84
50.125,219.02
50.140,206.04
50.156,188.4
50.171,167.01
50.187,143.02
50.203,117.71
50.218,92.17
50.234,67.12
50.250,42.94
50.265,19.55
50.281,-3.43
50.296,-26.74
50.312,-51.4
50.328,-78.71
50.343,-110.15
50.359,-146.84
50.375,-188.67
50.390,-233.43
50.406,-276.55
50.421,-311.75
50.437,-332.94
50.453,-336.36
50.468,-322.09
50.484,-294.07
50.500,-258.57
50.515,-221.88
50.531,-188.48
50.546,-160.39
50.562,-137.75
50.578,-120.12
50.593,-107.37
50.609,-99.76
50.625,-97.29
50.640,-98.93
50.656,-102.37
50.671,-104.47
50.687,-102.3
50.703,-94.21
50.718,-80.5
50.734,-63.44
50.750,-46.52
50.765,-33.37
50.781,-26.72
50.796,-27.7
50.812,-35.68
50.828,-48.58
50.843,-63.6
50.859,-78.02
50.875,-89.92
50.890,-98.54
50.906,-104.21
50.921,-107.81
50.937,-110.09
50.953,-111.11
50.968,-110.24
50.984,-106.49
51.000,-99.03
51.015,-87.47
51.031,-71.74
51.046,-51.85
51.062,-27.69
51.078,0.77
51.093,33.21
51.109,68.63
51.125,105.48
51.140,141.98
51.156,176.49
51.171,207.55
51.187,233.72
51.203,253.37
51.218,264.9
51.234,267.15
51.250,259.92
51.265,244.22
51.281,221.82
51.296,194.52
51.312,163.44
51.328,128.62
51.343,89.15
51.359,43.49
51.375,-9.64
51.390,-70.27
51.406,-136.03
51.421,-201.47
51.437,-258.58
51.453,-298.68
51.468,-315.4
51.484,-307.36
51.500,-279.18
51.515,-240.13
51.531,-200.81
51.546,-169.39
51.562,-149.12
51.578,-138.31
51.593,-132.26
51.609,-126.29
51.625,-118.07
51.640,-108.47
51.656,-100.54
51.671,-97.64
51.687,-101.24
51.703,-109.77
51.718,-118.82
51.734,-122.43
51.750,-115.03
51.765,-93.03
51.781,-55.69
51.796,-5.6
51.812,51.44
51.828,106.98
51.843,151.21
51.859,175.19
51.875,173.44
51.890,146.13
51.906,99.5
51.921,44.19
51.937,-8.07
51.953,-47.82
51.968,-70.0
51.984,-74.14
52.000,-63.14
52.015,-41.61
52.031,-14.89
52.046,11.53
52.062,32.42
52.078,43.59
52.093,42.86
52.109,30.7
52.125,10.0
52.140,-15.1
52.156,-40.44
52.171,-63.07
52.187,-81.61
52.203,-95.79
52.218,-105.92
52.234,-112.1
52.250,-114.05
52.265,-111.16
52.281,-102.88
52.296,-89.11
52.312,-70.57
52.328,-48.84
52.343,-26.16
52.359,-4.97
52.375,12.69
52.390,25.48
52.406,33.05
52.421,35.77
52.437,34.45
52.453,29.98
52.468,23.28
52.484,15.3
52.500,7.22
52.515,0.42
52.531,-3.81
52.546,-4.64
52.562,-2.02
52.578,3.18
52.593,9.49
52.609,15.34
52.625,19.35
52.640,20.57
52.656,18.49
52.671,12.94
52.687,4.05
52.703,-7.53
52.718,-20.68
52.734,-33.87
52.750,-45.46
52.765,-54.14
52.781,-59.25
52.796,-60.77
52.812,-59.26
52.828,-55.49
52.843,-50.15
52.859,-43.78
52.875,-36.82
52.890,-29.64
52.906,-22.68
52.921,-16.45
52.937,-11.5
52.953,-8.26
52.968,-6.83
52.984,-6.99
53.000,-8.27
53.015,-10.21
53.031,-12.62
53.046,-15.67
53.062,-19.64
53.078,-24.48
53.093,-29.37
53.109,-32.61
53.125,-32.08
53.140,-26.0
53.156,-13.69
53.171,4.16
53.187,25.82
53.203,49.18
53.218,72.47
53.234,94.51
53.250,114.6
53.265,132.18
53.281,146.66
53.296,157.51
53.312,164.66
53.328,168.72
53.343,170.88
53.359,172.6
53.375,174.88
53.390,177.87
53.406,180.8
53.421,182.32
53.437,181.16
53.453,176.57
53.468,168.59
53.484,157.83
53.500,145.09
53.515,130.98
53.531,115.85
53.546,99.93
53.562,83.63
53.578,67.63
53.593,52.76
53.609,39.52
53.625,27.73
53.640,16.54
53.656,4.81
53.671,-8.06
53.687,-21.4
53.703,-33.15
53.718,-40.32
53.734,-40.05
53.750,-30.76
53.765,-12.85
53.781,11.37
53.796,38.48
53.812,65.11
53.828,88.92
53.843,108.97
53.859,125.55
53.875,139.48
53.890,151.36
53.906,161.1
53.921,167.89
53.937,170.59
53.953,168.29
53.968,160.76
53.984,148.66
54.000,133.45
54.015,116.95
54.031,100.85
54.046,86.32
54.062,73.7
54.078,62.58
54.093,52.05
54.109,41.12
54.125,29.04
54.140,15.62
54.156,1.25
54.171,-13.23
54.187,-26.94
54.203,-39.23
54.218,-50.09
54.234,-60.16
54.250,-70.57
54.265,-82.45
54.281,-96.27
54.296,-111.34
54.312,-125.61
54.328,-136.04
54.343,-139.46
54.359,-133.69
54.375,-118.58
54.390,-96.35
54.406,-71.14
54.421,-47.86
54.437,-30.67
54.453,-21.89
54.468,-21.55
54.484,-27.78
54.500,-37.78
54.515,-48.75
54.531,-58.51
54.546,-65.55
54.562,-68.89
54.578,-67.86
54.593,-62.31
54.609,-53.25
54.625,-43.1
54.640,-35.34
54.656,-33.25
54.671,-38.27
54.687,-49.06
54.703,-61.93
54.718,-72.43
54.734,-77.53
54.750,-76.89
54.765,-72.87
54.781,-69.02
54.796,-68.31
54.812,-71.92
54.828,-79.25
54.843,-88.8
54.859,-99.24
54.875,-109.86
54.890,-120.19
54.906,-129.42
54.921,-135.97
54.937,-137.83
54.953,-133.42
54.968,-122.38
54.984,-105.93
55.000,-86.54
55.015,-67.03
55.031,-49.62
55.046,-35.34
55.062,-24.11
55.078,-15.28
55.093,-8.27
55.109,-2.96
55.125,0.41
55.140,1.57
55.156,0.74
55.171,-1.34
55.187,-3.59
55.203,-5.0
55.218,-5.06
55.234,-3.92
55.250,-2.18
55.265,-0.64
55.281,0.12
55.296,-0.1
55.312,-1.11
55.328,-2.5
55.343,-3.86
55.359,-5.02
55.375,-6.1
55.390,-7.48
55.406,-9.66
55.421,-13.2
55.437,-18.43
55.453,-25.22
55.468,-32.82
55.484,-39.8
55.500,-44.22
55.515,-44.16
55.531,-38.22
55.546,-26.0
55.562,-8.16
55.578,13.75
55.593,37.85
55.609,62.37
55.625,85.89
55.640,107.36
55.656,126.04
55.671,141.42
55.687,153.29
55.703,161.84
55.718,167.67
55.734,171.74
55.750,175.11
55.765,178.68
55.781,182.97
55.796,187.99
55.812,193.22
55.828,197.72
55.843,200.22
55.859,199.45
55.875,194.42
55.890,184.74
55.906,170.86
55.921,153.94
55.937,135.39
55.953,116.48
55.968,97.95
55.984,80.03
56.000,62.64
56.015,45.81
56.031,29.82
56.046,15.16
56.062,2.38
56.078,-8.07
56.093,-15.82
56.109,-20.49
56.125,-21.68
56.140,-19.16
56.156,-13.25
56.171,-4.98
56.187,3.93
56.203,11.39
56.218,15.59
56.234,15.5
56.250,11.27
56.265,4.14
56.281,-4.0
56.296,-11.25
56.312,-16.52
56.328,-19.88
56.343,-22.71
56.359,-26.84
56.375,-33.82
56.390,-44.09
56.406,-56.65
56.421,-69.55
56.437,-80.65
56.453,-88.24
56.468,-91.23
56.484,-89.15
56.500,-82.3
56.515,-72.15
56.531,-61.28
56.546,-52.93
56.562,-49.77
56.578,-52.55
56.593,-59.62
56.609,-67.61
56.625,-73.16
56.640,-74.6
56.656,-72.81
56.671,-70.47
56.687,-70.53
56.703,-74.63
56.718,-82.4
56.734,-91.71
56.750,-99.58
56.765,-103.16
56.781,-100.34
56.796,-90.17
56.812,-73.01
56.828,-50.51
56.843,-25.51
56.859,-1.1
56.875,19.98
56.890,35.85
56.906,45.79
56.921,49.99
56.937,49.23
56.953,44.63
56.968,37.52
56.984,29.36
57.000,21.62
57.015,15.42
57.031,11.24
57.046,8.81
57.062,7.29
57.078,5.64
57.093,3.15
57.109,-0.33
57.125,-4.31
57.140,-7.99
57.156,-10.59
57.171,-11.69
57.187,-11.32
57.203,-9.96
57.218,-8.29
57.234,-7.09
57.250,-7.01
57.265,-8.51
57.281,-11.73
57.296,-16.32
57.312,-21.33
57.328,-25.17
57.343,-25.92
57.359,-21.89
57.375,-12.23
57.390,2.61
57.406,20.95
57.421,40.3
57.437,58.18
57.453,72.71
57.468,83.08
57.484,89.36
57.500,92.17
57.515,92.25
57.531,90.24
57.546,86.62
57.562,81.78
57.578,76.06
57.593,69.72
57.609,62.9
57.625,55.62
57.640,47.83
57.656,39.46
57.671,30.48
57.687,20.81
57.703,10.35
57.718,-0.93
57.734,-12.92
57.750,-25.15
57.765,-36.9
57.781,-47.39
57.796,-56.09
57.812,-62.99
57.828,-68.69
57.843,-74.26
57.859,-80.88
57.875,-89.54
57.890,-100.77
57.906,-114.56
57.921,-130.32
57.937,-146.89
57.953,-162.6
57.968,-175.21
57.984,-182.31
58.000,-181.75
58.015,-172.26
58.031,-153.99
58.046,-128.63
58.062,-99.01
58.078,-68.35
58.093,-39.45
58.109,-14.18
58.125,6.59
58.140,22.62
58.156,33.86
58.171,40.35
58.187,42.29
58.203,40.44
58.218,36.26
58.234,31.65
58.250,28.27
58.265,26.94
58.281,27.3
58.296,28.09
58.312,27.81
58.328,25.49
58.343,21.1
58.359,15.44
58.375,9.62
58.390,4.55
58.406,0.64
58.421,-2.12
58.437,-3.86
58.453,-4.54
58.468,-3.99
58.484,-2.16
58.500,0.68
58.515,3.89
58.531,6.79
58.546,9.08
58.562,11.16
58.578,13.99
58.593,18.52
58.609,25.11
58.625,33.17
58.640,41.45
58.656,48.64
58.671,54.03
58.687,57.83
58.703,60.81
58.718,63.75
58.734,66.84
58.750,69.55
58.765,70.99
58.781,70.34
58.796,67.3
58.812,62.16
58.828,55.61
58.843,48.41
58.859,41.22
58.875,34.42
58.890,28.17
58.906,22.39
58.921,16.81
58.937,10.95
58.953,4.18
58.968,-4.12
58.984,-14.39
59.000,-26.63
59.015,-40.21
59.031,-53.93
59.046,-66.2
59.062,-75.45
59.078,-80.63
59.093,-81.51
59.109,-78.76
59.125,-73.79
59.140,-68.42
59.156,-64.4
59.171,-62.9
59.187,-64.02
59.203,-66.55
59.218,-67.99
59.234,-65.23
59.250,-55.57
59.265,-37.75
59.281,-12.59
59.296,17.2
59.312,47.85
59.328,75.68
59.343,97.95
59.359,113.26
59.375,121.29
59.390,122.45
59.406,117.54
59.421,107.67
59.437,94.25
59.453,78.89
59.468,63.18
59.484,48.51
59.500,35.95
59.515,26.32
59.531,20.38
59.546,18.74
59.562,21.5
59.578,27.99
59.593,36.51
59.609,44.56
59.625,49.57
59.640,49.63
59.656,44.19
59.671,34.06
59.687,21.15
59.703,7.72
59.718,-4.2
59.734,-13.31
59.750,-19.14
59.765,-21.9
59.781,-22.17
59.796,-20.68
59.812,-18.04
59.828,-14.78
59.843,-11.38
59.859,-8.3
59.875,-5.87
59.890,-4.19
59.906,-2.99
59.921,-1.74
59.937,0.02
59.953,2.33
59.968,4.74
59.984,6.67
