timestamp,value
00.000,48.17
00.015,44.25
00.031,38.94
00.046,32.88
00.062,26.72
00.078,20.85
00.093,15.23
00.109,9.49
00.125,3.03
00.140,-4.65
00.156,-13.72
00.171,-23.88
00.187,-34.27
00.203,-43.63
00.218,-50.48
00.234,-53.58
00.250,-52.12
00.265,-46.06
00.281,-36.02
00.296,-23.15
00.312,-8.81
00.328,5.74
00.343,19.53
00.359,31.91
00.375,42.49
00.390,51.0
00.406,57.29
00.421,61.29
00.437,63.17
00.453,63.25
00.468,61.98
00.484,59.87
00.500,57.33
00.515,54.7
00.531,52.26
00.546,50.25
00.562,48.89
00.578,48.27
00.593,48.29
00.609,48.56
00.625,48.51
00.640,47.56
00.656,45.3
00.671,41.62
00.687,36.7
00.703,30.85
00.718,24.37
00.734,17.42
00.750,9.97
00.765,1.88
00.781,-7.02
00.796,-16.86
00.812,-27.64
00.828,-39.06
00.843,-50.49
00.859,-60.89
00.875,-68.93
00.890,-73.25
00.906,-72.79
00.921,-67.11
00.937,-56.54
00.953,-42.21
00.968,-25.71
00.984,-8.84
01.000,6.84
01.015,20.12
01.031,30.31
01.046,37.09
01.062,40.48
01.078,40.68
01.093,38.13
01.109,33.46
01.125,27.43
01.140,20.93
01.156,14.76
01.171,9.54
01.187,5.52
01.203,2.67
01.218,0.71
01.234,-0.61
01.250,-1.4
01.265,-1.52
01.281,-0.72
01.296,1.25
01.312,4.39
01.328,8.38
01.343,12.6
01.359,16.23
01.375,18.52
01.390,18.92
01.406,17.17
01.421,13.27
01.437,7.39
01.453,-0.23
01.468,-9.36
01.484,-19.6
01.500,-30.26
01.515,-40.15
01.531,-47.62
01.546,-50.95
01.562,-48.75
01.578,-40.56
01.593,-27.0
01.609,-9.64
01.625,9.51
01.640,28.57
01.656,46.09
01.671,61.19
01.687,73.24
01.703,81.79
01.718,86.48
01.734,87.24
01.750,84.43
01.765,78.96
01.781,72.03
01.796,64.88
01.812,58.41
01.828,53.04
01.843,48.88
01.859,45.83
01.875,43.83
01.890,42.88
01.906,42.9
01.921,43.65
01.937,44.63
01.953,45.26
01.968,44.95
01.984,43.4
02.000,40.55
02.015,36.56
02.031,31.73
02.046,26.29
02.062,20.37
02.078,13.91
02.093,6.72
02.109,-1.47
02.125,-10.79
02.140,-21.16
02.156,-31.96
02.171,-42.02
02.187,-49.73
02.203,-53.36
02.218,-51.83
02.234,-45.16
02.250,-34.73
02.265,-22.9
02.281,-12.27
02.296,-4.75
02.312,-1.01
02.328,-0.43
02.343,-1.6
02.359,-2.94
02.375,-3.33
02.390,-2.16
02.406,0.75
02.421,5.52
02.437,12.17
02.453,20.61
02.468,30.35
02.484,40.41
02.500,49.5
02.515,56.37
02.531,60.15
02.546,60.59
02.562,58.03
02.578,53.09
02.593,46.4
02.609,38.38
02.625,29.25
02.640,19.23
02.656,8.77
02.671,-1.19
02.687,-9.32
02.703,-14.16
02.718,-14.52
02.734,-9.94
02.750,-0.96
02.765,10.93
02.781,23.64
02.796,34.95
02.812,43.04
02.828,46.84
02.843,46.13
02.859,41.57
02.875,34.43
02.890,26.42
02.906,19.3
02.921,14.66
02.937,13.5
02.953,16.1
02.968,21.89
02.984,29.6
03.000,37.58
03.015,44.21
03.031,48.36
03.046,49.54
03.062,48.04
03.078,44.58
03.093,40.04
03.109,35.09
03.125,30.1
03.140,25.12
03.156,20.17
03.171,15.42
03.187,11.21
03.203,7.94
03.218,5.85
03.234,4.84
03.250,4.44
03.265,4.0
03.281,2.95
03.296,0.98
03.312,-1.9
03.328,-5.46
03.343,-9.46
03.359,-13.76
03.375,-18.37
03.390,-23.36
03.406,-28.85
03.421,-35.02
03.437,-42.24
03.453,-50.96
03.468,-61.54
03.484,-73.81
03.500,-86.7
03.515,-98.23
03.531,-105.93
03.546,-107.65
03.562,-102.37
03.578,-90.65
03.593,-74.46
03.609,-56.53
03.625,-39.41
03.640,-24.86
03.656,-13.67
03.671,-5.86
03.687,-1.1
03.703,0.94
03.718,0.54
03.734,-1.93
03.750,-5.78
03.765,-10.02
03.781,-13.48
03.796,-15.21
03.812,-14.79
03.828,-12.47
03.843,-9.04
03.859,-5.51
03.875,-2.72
03.890,-1.12
03.906,-0.79
03.921,-1.49
03.937,-3.0
03.953,-5.12
03.968,-7.81
03.984,-11.06
04.000,-14.88
04.015,-19.25
04.031,-24.22
04.046,-29.92
04.062,-36.58
04.078,-44.43
04.093,-53.47
04.109,-63.21
04.125,-72.54
04.140,-79.87
04.156,-83.44
04.171,-81.9
04.187,-74.76
04.203,-62.58
04.218,-46.87
04.234,-29.51
04.250,-12.33
04.265,3.35
04.281,16.81
04.296,27.79
04.312,36.28
04.328,42.34
04.343,46.13
04.359,47.95
04.375,48.33
04.390,47.97
04.406,47.57
04.421,47.67
04.437,48.48
04.453,49.85
04.468,51.43
04.484,52.82
04.500,53.75
04.515,54.07
04.531,53.8
04.546,52.91
04.562,51.3
04.578,48.78
04.593,45.11
04.609,40.07
04.625,33.47
04.640,25.18
04.656,15.19
04.671,3.59
04.687,-9.18
04.703,-22.25
04.718,-34.31
04.734,-43.81
04.750,-49.36
04.765,-50.17
04.781,-46.31
04.796,-38.67
04.812,-28.66
04.828,-17.72
04.843,-7.02
04.859,2.73
04.875,11.19
04.890,18.07
04.906,23.1
04.921,25.88
04.937,26.15
04.953,23.92
04.968,19.57
04.984,13.82
05.000,7.56
05.015,1.59
05.031,-3.69
05.046,-8.33
05.062,-12.85
05.078,-17.94
05.093,-24.14
05.109,-31.57
05.125,-39.81
05.140,-48.07
05.156,-55.51
05.171,-61.62
05.187,-66.44
05.203,-70.52
05.218,-74.75
05.234,-79.98
05.250,-86.83
05.265,-95.54
05.281,-105.91
05.296,-117.22
05.312,-128.23
05.328,-137.13
05.343,-141.82
05.359,-140.39
05.375,-131.68
05.390,-115.71
05.406,-93.7
05.421,-67.72
05.437,-40.07
05.453,-12.8
05.468,12.49
05.484,34.65
05.500,52.8
05.515,66.25
05.531,74.63
05.546,78.06
05.562,77.34
05.578,73.81
05.593,69.1
05.609,64.8
05.625,62.13
05.640,61.81
05.656,63.99
05.671,68.25
05.687,73.69
05.703,79.01
05.718,82.8
05.734,83.84
05.750,81.47
05.765,75.66
05.781,66.99
05.796,56.34
05.812,44.54
05.828,32.15
05.843,19.35
05.859,6.02
05.875,-8.09
05.890,-23.14
05.906,-38.99
05.921,-55.0
05.937,-69.81
05.953,-81.47
05.968,-87.64
05.984,-86.33
06.000,-76.47
06.015,-58.5
06.031,-34.36
06.046,-7.12
06.062,19.9
06.078,43.87
06.093,63.04
06.109,76.82
06.125,85.51
06.140,89.88
06.156,90.79
06.171,88.98
06.187,85.11
06.203,79.7
06.218,73.31
06.234,66.44
06.250,59.59
06.265,53.16
06.281,47.53
06.296,42.94
06.312,39.49
06.328,37.1
06.343,35.46
06.359,34.09
06.375,32.42
06.390,29.97
06.406,26.48
06.421,21.91
06.437,16.4
06.453,10.13
06.468,3.32
06.484,-3.85
06.500,-11.27
06.515,-19.01
06.531,-27.4
06.546,-37.02
06.562,-48.4
06.578,-61.56
06.593,-75.52
06.609,-88.15
06.625,-96.56
06.640,-97.93
06.656,-90.65
06.671,-74.86
06.687,-52.57
06.703,-26.97
06.718,-1.51
06.734,21.04
06.750,38.96
06.765,51.58
06.781,59.0
06.796,61.72
06.812,60.46
06.828,55.97
06.843,48.92
06.859,39.89
06.875,29.31
06.890,17.66
06.906,5.52
06.921,-6.08
06.937,-15.82
06.953,-22.38
06.968,-24.88
06.984,-23.37
07.000,-18.81
07.015,-12.89
07.031,-7.47
07.046,-4.1
07.062,-3.71
07.078,-6.64
07.093,-12.78
07.109,-21.81
07.125,-33.4
07.140,-47.5
07.156,-64.58
07.171,-85.93
07.187,-113.44
07.203,-148.93
07.218,-192.93
07.234,-243.55
07.250,-296.06
07.265,-343.74
07.281,-379.58
07.296,-398.49
07.312,-398.75
07.328,-382.17
07.343,-353.12
07.359,-316.73
07.375,-277.4
07.390,-237.98
07.406,-199.88
07.421,-163.55
07.437,-129.1
07.453,-96.57
07.468,-65.87
07.484,-36.63
07.500,-8.15
07.515,20.4
07.531,49.46
07.546,78.52
07.562,105.85
07.578,128.77
07.593,144.54
07.609,151.39
07.625,149.28
07.640,140.04
07.656,126.6
07.671,111.89
07.687,97.97
07.703,85.72
07.718,75.22
07.734,66.56
07.750,60.28
07.765,57.22
07.781,57.77
07.796,61.14
07.812,65.16
07.828,66.93
07.843,64.08
07.859,55.94
07.875,44.04
07.890,31.68
07.906,22.64
07.921,19.64
07.937,23.51
07.953,33.02
07.968,45.75
07.984,59.14
08.000,71.4
08.015,81.77
08.031,90.27
08.046,97.1
08.062,102.24
08.078,105.34
08.093,105.92
08.109,103.79
08.125,99.22
08.140,92.91
08.156,85.74
08.171,78.34
08.187,70.96
08.203,63.45
08.218,55.61
08.234,47.41
08.250,39.2
08.265,31.59
08.281,25.22
08.296,20.52
08.312,17.52
08.328,15.84
08.343,14.88
08.359,13.99
08.375,12.62
08.390,10.45
08.406,7.36
08.421,3.38
08.437,-1.32
08.453,-6.58
08.468,-12.27
08.484,-18.3
08.500,-24.5
08.515,-30.49
08.531,-35.57
08.546,-38.79
08.562,-39.22
08.578,-36.19
08.593,-29.64
08.609,-20.06
08.625,-8.33
08.640,4.71
08.656,18.53
08.671,33.0
08.687,48.15
08.703,63.76
08.718,79.17
08.734,93.35
08.750,105.17
08.765,113.83
08.781,118.96
08.796,120.63
08.812,119.12
08.828,115.05
08.843,109.5
08.859,104.06
08.875,100.62
08.890,100.64
08.906,104.55
08.921,111.34
08.937,119.03
08.953,125.45
08.968,129.24
08.984,130.15
09.000,128.74
09.015,125.67
09.031,121.19
09.046,115.12
09.062,107.31
09.078,98.14
09.093,88.58
09.109,79.79
09.125,72.54
09.140,66.79
09.156,61.86
09.171,56.94
09.187,51.69
09.203,46.64
09.218,43.08
09.234,42.56
09.250,46.35
09.265,54.89
09.281,67.66
09.296,83.35
09.312,100.32
09.328,117.01
09.343,132.28
09.359,145.5
09.375,156.39
09.390,164.82
09.406,170.7
09.421,174.03
09.437,175.12
09.453,174.58
09.468,173.32
09.484,172.17
09.500,171.56
09.515,171.39
09.531,171.19
09.546,170.45
09.562,168.93
09.578,166.71
09.593,163.98
09.609,160.65
09.625,156.26
09.640,149.97
09.656,140.97
09.671,128.75
09.687,113.33
09.703,95.17
09.718,74.99
09.734,53.48
09.750,31.17
09.765,8.38
09.781,-14.82
09.796,-38.61
09.812,-63.37
09.828,-89.47
09.843,-116.98
09.859,-145.3
09.875,-173.04
09.890,-198.12
09.906,-218.27
09.921,-231.61
09.937,-237.29
09.953,-235.68
09.968,-228.28
09.984,-217.18
10.000,-204.59
10.015,-192.35
10.031,-181.65
10.046,-173.06
10.062,-166.65
10.078,-162.14
10.093,-158.96
10.109,-156.29
10.125,-153.17
10.140,-148.74
10.156,-142.48
10.171,-134.34
10.187,-124.73
10.203,-114.39
10.218,-104.22
10.234,-95.04
10.250,-87.47
10.265,-81.8
10.281,-77.94
10.296,-75.44
10.312,-73.64
10.328,-71.97
10.343,-70.13
10.359,-68.24
10.375,-66.72
10.390,-66.07
10.406,-66.53
10.421,-67.8
10.437,-69.16
10.453,-69.61
10.468,-68.22
10.484,-64.32
10.500,-57.72
10.515,-48.72
10.531,-38.04
10.546,-26.65
10.562,-15.5
10.578,-5.38
10.593,3.22
10.609,10.08
10.625,15.1
10.640,18.25
10.656,19.57
10.671,19.24
10.687,17.61
10.703,15.18
10.718,12.47
10.734,9.89
10.750,7.64
10.765,5.79
10.781,4.23
10.796,2.84
10.812,1.51
10.828,0.23
10.843,-0.81
10.859,-1.35
10.875,-1.11
10.890,0.03
10.906,1.83
10.921,3.73
10.937,5.01
10.953,5.06
10.968,3.59
10.984,0.64
11.000,-3.58
11.015,-8.85
11.031,-15.05
11.046,-21.96
11.062,-29.06
11.078,-35.37
11.093,-39.7
11.109,-41.07
11.125,-39.16
11.140,-34.47
11.156,-28.11
11.171,-21.21
11.187,-14.44
11.203,-7.87
11.218,-1.15
11.234,5.95
11.250,13.24
11.265,20.14
11.281,25.91
11.296,29.97
11.312,32.14
11.328,32.58
11.343,31.65
11.359,29.77
11.375,27.27
11.390,24.39
11.406,21.29
11.421,17.93
11.437,14.19
11.453,9.98
11.468,5.41
11.484,0.76
11.500,-3.49
11.515,-6.99
11.531,-9.72
11.546,-12.02
11.562,-14.47
11.578,-17.59
11.593,-21.63
11.609,-26.47
11.625,-31.76
11.640,-36.94
11.656,-41.29
11.671,-44.01
11.687,-44.24
11.703,-41.39
11.718,-35.27
11.734,-26.34
11.750,-15.65
11.765,-4.55
11.781,5.67
11.796,14.06
11.812,20.15
11.828,23.86
11.843,25.32
11.859,24.73
11.875,22.33
11.890,18.46
11.906,13.65
11.921,8.66
11.937,4.22
11.953,0.96
11.968,-0.83
11.984,-1.27
12.000,-0.75
12.015,0.22
12.031,1.17
12.046,1.78
12.062,1.98
12.078,1.86
12.093,1.71
12.109,1.88
12.125,2.66
12.140,4.25
12.156,6.54
12.171,9.21
12.187,11.75
12.203,13.6
12.218,14.39
12.234,14.16
12.250,13.52
12.265,13.74
12.281,16.48
12.296,23.3
12.312,35.16
12.328,51.94
12.343,72.36
12.359,94.39
12.375,115.91
12.390,135.36
12.406,152.19
12.421,166.76
12.437,179.9
12.453,192.44
12.468,204.66
12.484,216.1
12.500,225.52
12.515,231.16
12.531,231.06
12.546,223.44
12.562,207.09
12.578,181.75
12.593,148.44
12.609,109.52
12.625,68.52
12.640,29.48
12.656,-3.82
12.671,-28.67
12.687,-44.05
12.703,-50.66
12.718,-50.65
12.734,-46.86
12.750,-42.2
12.765,-39.11
12.781,-39.27
12.796,-43.54
12.812,-51.81
12.828,-62.88
12.843,-74.47
12.859,-83.61
12.875,-87.35
12.890,-83.83
12.906,-72.88
12.921,-56.2
12.937,-36.75
12.953,-17.74
12.968,-1.62
12.984,10.47
13.000,18.5
13.015,23.13
13.031,25.1
13.046,24.86
13.062,22.52
13.078,17.69
13.093,9.55
13.109,-3.19
13.125,-21.82
13.140,-47.15
13.156,-78.71
13.171,-114.44
13.187,-150.89
13.203,-184.1
13.218,-210.59
13.234,-228.24
13.250,-236.49
13.265,-236.05
13.281,-228.36
13.296,-215.02
13.312,-197.6
13.328,-177.6
13.343,-156.46
13.359,-135.57
13.375,-116.08
13.390,-98.71
13.406,-83.55
13.421,-69.91
13.437,-56.33
13.453,-40.87
13.468,-21.67
13.484,2.24
13.500,30.15
13.515,59.4
13.531,85.64
13.546,103.96
13.562,110.35
13.578,103.03
13.593,82.99
13.609,53.65
13.625,19.8
13.640,-13.79
13.656,-43.31
13.671,-66.3
13.687,-81.51
13.703,-88.53
13.718,-87.52
13.734,-79.24
13.750,-65.11
13.765,-47.28
13.781,-28.39
13.796,-10.92
13.812,3.32
13.828,13.63
13.843,20.45
13.859,24.99
13.875,28.63
13.890,32.32
13.906,36.23
13.921,39.69
13.937,41.49
13.953,40.42
13.968,35.84
13.984,27.98
14.000,17.94
14.015,7.47
14.031,-1.42
14.046,-6.9
14.062,-7.58
14.078,-2.74
14.093,7.59
14.109,22.66
14.125,41.04
14.140,60.76
14.156,79.57
14.171,95.32
14.187,106.36
14.203,111.88
14.218,112.07
14.234,107.95
14.250,101.08
14.265,93.02
14.281,84.97
14.296,77.71
14.312,71.77
14.328,67.78
14.343,66.41
14.359,67.94
14.375,71.56
14.390,74.92
14.406,74.37
14.421,66.11
14.437,47.76
14.453,19.51
14.468,-15.7
14.484,-53.23
14.500,-88.28
14.515,-117.27
14.531,-138.31
14.546,-150.98
14.562,-155.89
14.578,-154.48
14.593,-149.18
14.609,-143.27
14.625,-140.1
14.640,-141.76
14.656,-147.91
14.671,-155.72
14.687,-161.21
14.703,-161.3
14.718,-155.49
14.734,-146.02
14.750,-136.51
14.765,-129.86
14.781,-126.64
14.796,-125.07
14.812,-122.31
14.828,-116.25
14.843,-106.68
14.859,-95.1
14.875,-83.58
14.890,-73.36
14.906,-64.12
14.921,-54.3
14.937,-42.13
14.953,-26.9
14.968,-9.36
14.984,8.5
15.000,24.55
15.015,37.46
15.031,47.11
15.046,54.37
15.062,60.29
15.078,65.51
15.093,69.88
15.109,72.74
15.125,73.34
15.140,71.29
15.156,66.82
15.171,60.82
15.187,54.73
15.203,50.41
15.218,49.91
15.234,55.17
15.250,67.44
15.265,86.7
15.281,111.26
15.296,137.68
15.312,161.34
15.328,177.33
15.343,181.69
15.359,172.44
15.375,150.02
15.390,117.23
15.406,78.32
15.421,38.04
15.437,0.62
15.453,-30.78
15.468,-54.26
15.484,-69.08
15.500,-75.58
15.515,-75.06
15.531,-69.53
15.546,-61.44
15.562,-53.13
15.578,-46.42
15.593,-42.17
15.609,-40.26
15.625,-39.95
15.640,-40.22
15.656,-40.31
15.671,-40.01
15.687,-39.67
15.703,-40.01
15.718,-41.88
15.734,-45.82
15.750,-51.84
15.765,-59.15
15.781,-66.25
15.796,-71.13
15.812,-71.87
15.828,-67.22
15.843,-57.06
15.859,-42.45
15.875,-25.32
15.890,-7.8
15.906,8.34
15.921,22.1
15.937,33.15
15.953,41.63
15.968,47.74
15.984,51.53
16.000,53.0
16.015,52.21
16.031,49.53
16.046,45.66
16.062,41.56
16.078,38.15
16.093,36.05
16.109,35.36
16.125,35.65
16.140,36.22
16.156,36.36
16.171,35.67
16.187,34.21
16.203,32.39
16.218,30.67
16.234,29.32
16.250,28.23
16.265,27.04
16.281,25.36
16.296,23.0
16.312,20.04
16.328,16.66
16.343,12.92
16.359,8.77
16.375,4.38
16.390,0.47
16.406,-1.49
16.421,0.3
16.437,7.11
16.453,18.82
16.468,33.59
16.484,48.34
16.500,59.78
16.515,65.6
16.531,65.16
16.546,59.43
16.562,50.49
16.578,40.79
16.593,32.69
16.609,28.0
16.625,27.66
16.640,31.39
16.656,37.63
16.671,43.66
16.687,46.48
16.703,43.7
16.718,34.4
16.734,19.35
16.750,0.74
16.765,-18.4
16.781,-34.95
16.796,-46.35
16.812,-51.13
16.828,-49.29
16.843,-42.45
16.859,-33.61
16.875,-26.45
16.890,-24.2
16.906,-28.7
16.921,-39.85
16.937,-55.65
16.953,-72.91
16.968,-88.21
16.984,-98.95
17.000,-104.02
17.015,-103.94
17.031,-100.51
17.046,-95.93
17.062,-91.99
17.078,-89.37
17.093,-87.5
17.109,-84.91
17.125,-79.7
17.140,-70.23
17.156,-55.49
17.171,-35.5
17.187,-11.48
17.203,14.1
17.218,37.83
17.234,55.98
17.250,65.49
17.265,64.94
17.281,55.19
17.296,39.22
17.312,21.43
17.328,6.26
17.343,-2.95
17.359,-5.01
17.375,-1.05
17.390,5.82
17.406,11.61
17.421,12.64
17.437,6.62
17.453,-6.82
17.468,-26.18
17.484,-48.72
17.500,-71.27
17.515,-90.92
17.531,-105.65
17.546,-114.68
17.562,-118.57
17.578,-119.2
17.593,-119.26
17.609,-121.5
17.625,-127.7
17.640,-137.96
17.656,-150.51
17.671,-162.29
17.687,-170.03
17.703,-171.34
17.718,-165.38
17.734,-152.9
17.750,-135.69
17.765,-115.82
17.781,-94.99
17.796,-74.3
17.812,-54.25
17.828,-35.17
17.843,-17.42
17.859,-1.59
17.875,11.62
17.890,21.72
17.906,28.7
17.921,33.26
17.937,36.6
17.953,40.06
17.968,44.52
17.984,50.07
18.000,56.0
18.015,61.21
18.031,64.76
18.046,66.26
18.062,65.79
18.078,63.71
18.093,60.23
18.109,55.46
18.125,49.5
18.140,42.78
18.156,36.04
18.171,30.06
18.187,25.2
18.203,21.09
18.218,16.88
18.234,11.71
18.250,5.53
18.265,-0.53
18.281,-4.3
18.296,-3.12
18.312,5.44
18.328,22.96
18.343,49.81
18.359,85.03
18.375,126.32
18.390,169.97
18.406,211.31
18.421,245.25
18.437,267.33
18.453,274.72
18.468,266.88
18.484,245.56
18.500,214.23
18.515,177.27
18.531,139.2
18.546,104.28
18.562,76.13
18.578,57.42
18.593,49.31
18.609,51.0
18.625,59.64
18.640,71.01
18.656,80.67
18.671,85.13
18.687,82.84
18.703,74.21
18.718,61.21
18.734,46.57
18.750,33.1
18.765,23.17
18.781,18.31
18.796,18.81
18.812,23.49
18.828,29.81
18.843,34.33
18.859,33.62
18.875,25.26
18.890,8.5
18.906,-15.48
18.921,-43.78
18.937,-72.41
18.953,-97.03
18.968,-113.85
18.984,-120.43
19.000,-116.32
19.015,-103.2
19.031,-84.35
19.046,-63.71
19.062,-44.72
19.078,-29.42
19.093,-17.99
19.109,-9.12
19.125,-0.71
19.140,9.09
19.156,21.1
19.171,34.61
19.187,47.64
19.203,57.57
19.218,62.07
19.234,59.92
19.250,51.41
19.265,38.25
19.281,23.04
19.296,8.77
19.312,-1.78
19.328,-6.46
19.343,-4.27
19.359,4.23
19.375,16.68
19.390,29.3
19.406,37.8
19.421,38.6
19.437,30.09
19.453,13.02
19.468,-9.73
19.484,-34.11
19.500,-56.09
19.515,-72.78
19.531,-82.98
19.546,-87.39
19.562,-88.16
19.578,-88.24
19.593,-90.55
19.609,-97.16
19.625,-108.8
19.640,-124.76
19.656,-143.26
19.671,-162.09
19.687,-179.21
19.703,-193.32
19.718,-204.06
19.734,-211.87
19.750,-217.56
19.765,-221.79
19.781,-224.54
19.796,-224.95
19.812,-221.57
19.828,-212.84
19.843,-197.75
19.859,-176.32
19.875,-149.53
19.890,-119.11
19.906,-86.94
19.921,-54.8
19.937,-24.11
19.953,4.01
19.968,28.71
19.984,49.43
20.000,65.97
20.015,78.53
20.031,87.66
20.046,94.1
20.062,98.55
20.078,101.54
20.093,103.45
20.109,104.51
20.125,105.0
20.140,105.19
20.156,105.27
20.171,105.35
20.187,105.35
20.203,105.01
20.218,104.0
20.234,101.93
20.250,98.44
20.265,93.29
20.281,86.38
20.296,77.85
20.312,68.05
20.328,57.54
20.343,47.04
20.359,37.19
20.375,28.46
20.390,20.94
20.406,14.44
20.421,8.47
20.437,2.58
20.453,-3.55
20.468,-9.9
20.484,-16.24
20.500,-22.2
20.515,-27.56
20.531,-32.34
20.546,-36.9
20.562,-41.86
20.578,-47.87
20.593,-55.38
20.609,-64.43
20.625,-74.47
20.640,-84.31
20.656,-92.29
20.671,-96.6
20.687,-95.78
20.703,-89.13
20.718,-76.99
20.734,-60.58
20.750,-41.7
20.765,-22.2
20.781,-3.55
20.796,13.39
20.812,28.35
20.828,41.35
20.843,52.49
20.859,61.72
20.875,68.91
20.890,73.95
20.906,76.95
20.921,78.26
20.937,78.37
20.953,77.78
20.968,76.8
20.984,75.59
21.000,74.17
21.015,72.68
21.031,71.46
21.046,71.0
21.062,71.69
21.078,73.59
21.093,76.31
21.109,79.07
21.125,81.04
21.140,81.58
21.156,80.44
21.171,77.8
21.187,74.06
21.203,69.65
21.218,64.93
21.234,60.07
21.250,55.13
21.265,50.18
21.281,45.28
21.296,40.55
21.312,36.15
21.328,32.21
21.343,28.88
21.359,26.22
21.375,24.16
21.390,22.49
21.406,20.86
21.421,18.75
21.437,15.54
21.453,10.53
21.468,3.14
21.484,-6.82
21.500,-18.96
21.515,-32.12
21.531,-44.58
21.546,-54.47
21.562,-60.36
21.578,-61.71
21.593,-58.98
21.609,-53.33
21.625,-46.1
21.640,-38.31
21.656,-30.42
21.671,-22.46
21.687,-14.28
21.703,-5.88
21.718,2.55
21.734,10.78
21.750,18.66
21.765,26.32
21.781,34.01
21.796,41.93
21.812,50.02
21.828,57.94
21.843,65.2
21.859,71.41
21.875,76.45
21.890,80.49
21.906,83.83
21.921,86.63
21.937,88.65
21.953,89.19
21.968,87.23
21.984,81.75
22.000,72.05
22.015,58.08
22.031,40.47
22.046,20.31
22.062,-1.1
22.078,-22.65
22.093,-43.65
22.109,-63.85
22.125,-83.23
22.140,-101.78
22.156,-119.31
22.171,-135.35
22.187,-149.25
22.203,-160.38
22.218,-168.24
22.234,-172.62
22.250,-173.69
22.265,-172.02
22.281,-168.6
22.296,-164.74
22.312,-161.91
22.328,-161.31
22.343,-163.46
22.359,-167.85
22.375,-172.89
22.390,-176.26
22.406,-175.58
22.421,-169.16
22.437,-156.53
22.453,-138.51
22.468,-116.84
22.484,-93.56
22.500,-70.46
22.515,-48.79
22.531,-29.28
22.546,-12.37
22.562,1.71
22.578,12.87
22.593,21.29
22.609,27.41
22.625,31.94
22.640,35.6
22.656,38.92
22.671,42.14
22.687,45.26
22.703,48.14
22.718,50.67
22.734,52.88
22.750,54.93
22.765,57.06
22.781,59.42
22.796,62.04
22.812,64.64
22.828,66.8
22.843,68.01
22.859,67.98
22.875,66.75
22.890,64.74
22.906,62.54
22.921,60.61
22.937,59.06
22.953,57.57
22.968,55.6
22.984,52.62
23.000,48.41
23.015,43.11
23.031,37.07
23.046,30.7
23.062,24.28
23.078,17.83
23.093,11.21
23.109,4.14
23.125,-3.69
23.140,-12.56
23.156,-22.54
23.171,-33.39
23.187,-44.36
23.203,-54.24
23.218,-61.52
23.234,-64.78
23.250,-63.11
23.265,-56.42
23.281,-45.41
23.296,-31.4
23.312,-16.03
23.328,-0.75
23.343,13.28
23.359,25.41
23.375,35.37
23.390,43.19
23.406,48.98
23.421,52.94
23.437,55.17
23.453,55.78
23.468,54.99
23.484,53.12
23.500,50.64
23.515,48.09
23.531,45.88
23.546,44.27
23.562,43.29
23.578,42.87
23.593,42.87
23.609,43.21
23.625,43.8
23.640,44.5
23.656,45.04
23.671,45.1
23.687,44.36
23.703,42.65
23.718,40.03
23.734,36.64
23.750,32.74
23.765,28.49
23.781,23.98
23.796,19.24
23.812,14.32
23.828,9.34
23.843,4.43
23.859,-0.28
23.875,-4.74
23.890,-9.01
23.906,-13.24
23.921,-17.66
23.937,-22.56
23.953,-28.2
23.968,-34.57
23.984,-41.23
24.000,-47.24
24.015,-51.25
24.031,-51.92
24.046,-48.41
24.062,-40.7
24.078,-29.62
24.093,-16.63
24.109,-3.24
24.125,9.33
24.140,20.43
24.156,29.8
24.171,37.45
24.187,43.42
24.203,47.76
24.218,50.58
24.234,52.11
24.250,52.7
24.265,52.75
24.281,52.57
24.296,52.28
24.312,51.82
24.328,51.05
24.343,49.91
24.359,48.5
24.375,47.04
24.390,45.84
24.406,45.06
24.421,44.64
24.437,44.28
24.453,43.55
24.468,42.04
24.484,39.61
24.500,36.36
24.515,32.6
24.531,28.69
24.546,24.83
24.562,21.0
24.578,17.0
24.593,12.62
24.609,7.73
24.625,2.44
24.640,-3.04
24.656,-8.48
24.671,-13.68
24.687,-18.61
24.703,-23.3
24.718,-27.86
24.734,-32.39
24.750,-37.06
24.765,-42.12
24.781,-47.86
24.796,-54.42
24.812,-61.54
24.828,-68.43
24.843,-73.73
24.859,-75.88
24.875,-73.64
24.890,-66.5
24.906,-54.98
24.921,-40.43
24.937,-24.62
24.953,-9.2
24.968,4.71
24.984,16.62
25.000,26.52
25.015,34.58
25.031,40.91
25.046,45.49
25.062,48.29
25.078,49.42
25.093,49.21
25.109,48.22
25.125,47.08
25.140,46.28
25.156,46.0
25.171,46.15
25.187,46.5
25.203,46.77
25.218,46.92
25.234,46.99
25.250,47.12
25.265,47.3
25.281,47.3
25.296,46.67
25.312,44.89
25.328,41.63
25.343,36.87
25.359,30.98
25.375,24.58
25.390,18.29
25.406,12.52
25.421,7.29
25.437,2.4
25.453,-2.43
25.468,-7.32
25.484,-12.14
25.500,-16.61
25.515,-20.48
25.531,-23.79
25.546,-26.91
25.562,-30.51
25.578,-35.28
25.593,-41.68
25.609,-49.72
25.625,-58.87
25.640,-68.02
25.656,-75.71
25.671,-80.43
25.687,-80.89
25.703,-76.44
25.718,-67.19
25.734,-54.05
25.750,-38.49
25.765,-22.23
25.781,-6.81
25.796,6.67
25.812,17.65
25.828,26.11
25.843,32.35
25.859,36.83
25.875,40.01
25.890,42.25
25.906,43.8
25.921,44.81
25.937,45.34
25.953,45.42
25.968,45.17
25.984,44.69
26.000,44.19
26.015,43.86
26.031,43.84
26.046,44.17
26.062,44.78
26.078,45.51
26.093,46.2
26.109,46.7
26.125,46.88
26.140,46.68
26.156,46.11
26.171,45.17
26.187,43.89
26.203,42.32
26.218,40.47
26.234,38.36
26.250,36.02
26.265,33.51
26.281,30.99
26.296,28.65
26.312,26.68
26.328,25.25
26.343,24.42
26.359,24.18
26.375,24.5
26.390,25.25
26.406,26.24
26.421,27.18
26.437,27.87
26.453,28.38
26.468,29.24
26.484,31.51
26.500,36.6
26.515,45.89
26.531,60.24
26.546,79.75
26.562,103.63
26.578,130.37
26.593,158.01
26.609,184.43
26.625,207.54
26.640,225.49
26.656,236.89
26.671,241.04
26.687,238.25
26.703,229.94
26.718,218.59
26.734,207.12
26.750,198.11
26.765,192.81
26.781,190.5
26.796,188.66
26.812,183.79
26.828,172.68
26.843,153.54
26.859,126.56
26.875,93.6
26.890,57.59
26.906,21.62
26.921,-11.6
26.937,-39.98
26.953,-62.13
26.968,-77.31
26.984,-85.57
27.000,-87.75
27.015,-85.46
27.031,-80.75
27.046,-75.67
27.062,-71.85
27.078,-70.32
27.093,-71.47
27.109,-75.22
27.125,-81.24
27.140,-89.01
27.156,-97.86
27.171,-107.09
27.187,-116.22
27.203,-125.27
27.218,-134.93
27.234,-146.53
27.250,-161.45
27.265,-180.49
27.281,-203.25
27.296,-227.96
27.312,-251.79
27.328,-271.62
27.343,-284.68
27.359,-289.09
27.375,-284.11
27.390,-270.2
27.406,-248.87
27.421,-222.54
27.437,-194.0
27.453,-165.98
27.468,-140.5
27.484,-118.71
27.500,-100.91
27.515,-86.95
27.531,-76.56
27.546,-69.51
27.562,-65.52
27.578,-64.14
27.593,-64.7
27.609,-66.42
27.625,-68.69
27.640,-71.23
27.656,-74.02
27.671,-77.1
27.687,-80.22
27.703,-82.76
27.718,-83.81
27.734,-82.49
27.750,-78.36
27.765,-71.68
27.781,-63.33
27.796,-54.59
27.812,-46.75
27.828,-40.73
27.843,-36.94
27.859,-35.31
27.875,-35.54
27.890,-37.2
27.906,-39.96
27.921,-43.57
27.937,-47.78
27.953,-52.28
27.968,-56.69
27.984,-60.65
28.000,-63.93
28.015,-66.56
28.031,-68.86
28.046,-71.35
28.062,-74.62
28.078,-79.13
28.093,-84.91
28.109,-91.52
28.125,-97.93
28.140,-102.7
28.156,-104.25
28.171,-101.21
28.187,-92.87
28.203,-79.32
28.218,-61.56
28.234,-41.2
28.250,-20.1
28.265,0.07
28.281,18.04
28.296,33.11
28.312,45.01
28.328,53.84
28.343,59.9
28.359,63.65
28.375,65.57
28.390,66.11
28.406,65.68
28.421,64.56
28.437,63.01
28.453,61.25
28.468,59.51
28.484,57.96
28.500,56.66
28.515,55.57
28.531,54.5
28.546,53.29
28.562,51.9
28.578,50.46
28.593,49.16
28.609,48.19
28.625,47.58
28.640,47.17
28.656,46.76
28.671,46.19
28.687,45.41
28.703,44.42
28.718,43.11
28.734,41.18
28.750,38.17
28.765,33.63
28.781,27.39
28.796,19.69
28.812,11.14
28.828,2.56
28.843,-5.34
28.859,-12.14
28.875,-17.88
28.890,-22.92
28.906,-27.87
28.921,-33.35
28.937,-39.73
28.953,-46.94
28.968,-54.29
28.984,-60.51
29.000,-64.02
29.015,-63.35
29.031,-57.76
29.046,-47.36
29.062,-33.21
29.078,-16.94
29.093,-0.28
29.109,15.37
29.125,29.1
29.140,40.5
29.156,49.43
29.171,55.9
29.187,60.01
29.203,62.06
29.218,62.55
29.234,62.12
29.250,61.39
29.265,60.84
29.281,60.61
29.296,60.59
29.312,60.62
29.328,60.57
29.343,60.52
29.359,60.6
29.375,60.88
29.390,61.24
29.406,61.37
29.421,60.83
29.437,59.33
29.453,56.78
29.468,53.31
29.484,49.21
29.500,44.77
29.515,40.17
29.531,35.41
29.546,30.45
29.562,25.23
29.578,19.8
29.593,14.31
29.609,8.94
29.625,3.8
29.640,-1.07
29.656,-5.8
29.671,-10.54
29.687,-15.55
29.703,-21.02
29.718,-27.16
29.734,-34.13
29.750,-41.98
29.765,-50.51
29.781,-59.1
29.796,-66.67
29.812,-71.78
29.828,-72.99
29.843,-69.3
29.859,-60.5
29.875,-47.4
29.890,-31.57
29.906,-14.98
29.921,0.56
29.937,13.79
29.953,24.21
29.968,31.92
29.984,37.37
30.000,41.12
30.015,43.52
30.031,44.78
30.046,45.05
30.062,44.52
30.078,43.52
30.093,42.49
30.109,41.78
30.125,41.56
30.140,41.67
30.156,41.76
30.171,41.44
30.187,40.49
30.203,38.97
30.218,37.18
30.234,35.43
30.250,33.86
30.265,32.36
30.281,30.63
30.296,28.31
30.312,25.14
30.328,21.12
30.343,16.39
30.359,11.22
30.375,5.84
30.390,0.4
30.406,-5.05
30.421,-10.55
30.437,-16.11
30.453,-21.77
30.468,-27.6
30.484,-33.69
30.500,-40.2
30.515,-47.12
30.531,-54.18
30.546,-60.63
30.562,-65.35
30.578,-67.05
30.593,-64.7
30.609,-57.94
30.625,-47.21
30.640,-33.66
30.656,-18.78
30.671,-4.05
30.687,9.43
30.703,21.03
30.718,30.45
30.734,37.61
30.750,42.54
30.765,45.32
30.781,46.1
30.796,45.18
30.812,42.93
30.828,39.88
30.843,36.56
30.859,33.48
30.875,30.96
30.890,29.1
30.906,27.76
30.921,26.65
30.937,25.47
30.953,24.11
30.968,22.57
30.984,21.01
31.000,19.55
31.015,18.21
31.031,16.86
31.046,15.24
31.062,13.08
31.078,10.16
31.093,6.46
31.109,2.14
31.125,-2.48
31.140,-7.06
31.156,-11.34
31.171,-15.25
31.187,-18.94
31.203,-22.72
31.218,-26.94
31.234,-31.92
31.250,-37.89
31.265,-44.93
31.281,-52.85
31.296,-61.02
31.312,-68.32
31.328,-73.16
31.343,-73.94
31.359,-69.54
31.375,-59.77
31.390,-45.53
31.406,-28.56
31.421,-10.91
31.437,5.63
31.453,19.9
31.468,31.49
31.484,40.45
31.500,47.06
31.515,51.57
31.531,54.2
31.546,55.19
31.562,54.98
31.578,54.21
31.593,53.62
31.609,53.82
31.625,55.07
31.640,57.21
31.656,59.81
31.671,62.41
31.687,64.81
31.703,67.14
31.718,69.65
31.734,72.5
31.750,75.49
31.765,78.16
31.781,79.97
31.796,80.66
31.812,80.45
31.828,79.94
31.843,79.86
31.859,80.59
31.875,82.06
31.890,83.76
31.906,85.02
31.921,85.44
31.937,85.12
31.953,84.63
31.968,84.79
31.984,86.24
32.000,89.11
32.015,92.98
32.031,96.97
32.046,100.17
32.062,101.92
32.078,102.17
32.093,101.41
32.109,100.47
32.125,100.12
32.140,100.69
32.156,101.87
32.171,102.75
32.187,102.13
32.203,99.01
32.218,93.06
32.234,84.88
32.250,75.99
32.265,68.41
32.281,64.12
32.296,64.22
32.312,68.41
32.328,74.63
32.343,79.49
32.359,79.06
32.375,70.17
32.390,51.51
32.406,24.15
32.421,-8.73
32.437,-42.8
32.453,-73.93
32.468,-99.25
32.484,-117.63
32.500,-129.45
32.515,-135.82
32.531,-137.74
32.546,-135.58
32.562,-129.1
32.578,-118.1
32.593,-103.18
32.609,-86.33
32.625,-70.9
32.640,-60.78
32.656,-59.21
32.671,-67.53
32.687,-84.66
32.703,-107.42
32.718,-131.65
32.734,-153.63
32.750,-171.11
32.765,-183.6
32.781,-191.85
32.796,-197.03
32.812,-199.98
32.828,-200.92
32.843,-199.61
32.859,-195.75
32.875,-189.3
32.890,-180.46
32.906,-169.54
32.921,-156.71
32.937,-141.97
32.953,-125.42
32.968,-107.56
32.984,-89.41
33.000,-72.46
33.015,-58.17
33.031,-47.52
33.046,-40.67
33.062,-36.88
33.078,-34.78
33.093,-32.9
33.109,-30.13
33.125,-25.97
33.140,-20.63
33.156,-14.71
33.171,-8.9
33.187,-3.6
33.203,1.12
33.218,5.45
33.234,9.61
33.250,13.63
33.265,17.3
33.281,20.33
33.296,22.49
33.312,23.88
33.328,24.9
33.343,26.07
33.359,27.84
33.375,30.26
33.390,32.98
33.406,35.31
33.421,36.47
33.437,35.86
33.453,33.22
33.468,28.61
33.484,22.37
33.500,14.87
33.515,6.59
33.531,-2.05
33.546,-10.65
33.562,-18.94
33.578,-26.88
33.593,-34.69
33.609,-42.68
33.625,-51.03
33.640,-59.43
33.656,-66.95
33.671,-72.26
33.687,-73.98
33.703,-71.37
33.718,-64.56
33.734,-54.64
33.750,-43.21
33.765,-31.93
33.781,-21.98
33.796,-13.87
33.812,-7.51
33.828,-2.49
33.843,1.67
33.859,5.3
33.875,8.52
33.890,11.38
33.906,13.88
33.921,16.11
33.937,18.25
33.953,20.53
33.968,23.13
33.984,26.12
34.000,29.41
34.015,32.78
34.031,35.94
34.046,38.61
34.062,40.59
34.078,41.81
34.093,42.3
34.109,42.12
34.125,41.31
34.140,39.82
34.156,37.52
34.171,34.31
34.187,30.25
34.203,25.58
34.218,20.72
34.234,16.09
34.250,11.98
34.265,8.44
34.281,5.26
34.296,2.13
34.312,-1.31
34.328,-5.33
34.343,-10.17
34.359,-16.01
34.375,-22.93
34.390,-30.64
34.406,-38.38
34.421,-44.83
34.437,-48.37
34.453,-47.58
34.468,-41.77
34.484,-31.28
34.500,-17.43
34.515,-2.12
34.531,12.81
34.546,25.99
34.562,36.76
34.578,44.99
34.593,50.79
34.609,54.29
34.625,55.59
34.640,54.83
34.656,52.4
34.671,48.97
34.687,45.35
34.703,42.3
34.718,40.3
34.734,39.35
34.750,39.12
34.765,39.04
34.781,38.69
34.796,37.9
34.812,36.74
34.828,35.47
34.843,34.24
34.859,33.0
34.875,31.44
34.890,29.14
34.906,25.77
34.921,21.3
34.937,16.05
34.953,10.62
34.968,5.61
34.984,1.4
35.000,-2.07
35.015,-5.18
35.031,-8.49
35.046,-12.57
35.062,-17.74
35.078,-24.07
35.093,-31.3
35.109,-38.82
35.125,-45.67
35.140,-50.58
35.156,-52.28
35.171,-49.77
35.187,-42.68
35.203,-31.51
35.218,-17.53
35.234,-2.45
35.250,12.05
35.265,24.66
35.281,34.68
35.296,41.97
35.312,46.76
35.328,49.4
35.343,50.29
35.359,49.77
35.375,48.22
35.390,46.07
35.406,43.82
35.421,41.98
35.437,40.96
35.453,40.97
35.468,41.93
35.484,43.5
35.500,45.21
35.515,46.59
35.531,47.26
35.546,47.05
35.562,45.93
35.578,44.08
35.593,41.73
35.609,39.15
35.625,36.54
35.640,34.08
35.656,31.88
35.671,30.05
35.687,28.67
35.703,27.77
35.718,27.25
35.734,26.84
35.750,26.15
35.765,24.83
35.781,22.72
35.796,19.91
35.812,16.77
35.828,13.71
35.843,11.02
35.859,8.75
35.875,6.66
35.890,4.46
35.906,1.94
35.921,-0.89
35.937,-3.81
35.953,-6.57
35.968,-9.1
35.984,-11.6
36.000,-14.5
36.015,-18.3
36.031,-23.21
36.046,-29.09
36.062,-35.36
36.078,-41.28
36.093,-46.2
36.109,-49.89
36.125,-52.57
36.140,-54.74
36.156,-56.88
36.171,-59.24
36.187,-61.69
36.203,-63.83
36.218,-65.23
36.234,-65.59
36.250,-64.87
36.265,-63.28
36.281,-61.2
36.296,-59.06
36.312,-57.23
36.328,-55.98
36.343,-55.42
36.359,-55.47
36.375,-55.86
36.390,-56.26
36.406,-56.29
36.421,-55.65
36.437,-54.24
36.453,-52.18
36.468,-49.88
36.484,-47.88
36.500,-46.53
36.515,-45.64
36.531,-44.34
36.546,-41.09
36.562,-34.26
36.578,-22.76
36.593,-6.47
36.609,13.59
36.625,35.71
36.640,58.09
36.656,79.4
36.671,98.96
36.687,116.49
36.703,131.77
36.718,144.41
36.734,153.94
36.750,160.1
36.765,163.25
36.781,164.41
36.796,165.07
36.812,166.71
36.828,170.31
36.843,175.99
36.859,183.15
36.875,190.83
36.890,198.21
36.906,205.01
36.921,211.56
36.937,218.5
36.953,226.45
36.968,235.52
36.984,245.15
37.000,254.18
37.015,261.01
37.031,263.96
37.046,261.49
37.062,252.54
37.078,236.92
37.093,215.44
37.109,189.85
37.125,162.34
37.140,134.79
37.156,108.1
37.171,81.89
37.187,54.74
37.203,24.92
37.218,-8.65
37.234,-45.58
37.250,-83.73
37.265,-119.64
37.281,-149.5
37.296,-170.42
37.312,-181.21
37.328,-182.6
37.343,-176.7
37.359,-166.13
37.375,-153.37
37.390,-140.46
37.406,-129.24
37.421,-121.45
37.437,-118.71
37.453,-121.91
37.468,-130.69
37.484,-143.17
37.500,-156.31
37.515,-166.94
37.531,-172.7
37.546,-172.61
37.562,-167.01
37.578,-157.07
37.593,-144.22
37.609,-129.77
37.625,-114.76
37.640,-99.93
37.656,-85.91
37.671,-73.14
37.687,-61.96
37.703,-52.54
37.718,-44.94
37.734,-39.12
37.750,-34.93
37.765,-32.26
37.781,-31.01
37.796,-31.29
37.812,-33.38
37.828,-37.62
37.843,-44.23
37.859,-52.88
37.875,-62.5
37.890,-71.36
37.906,-77.53
37.921,-79.48
37.937,-76.61
37.953,-69.44
37.968,-59.4
37.984,-48.3
38.000,-37.72
38.015,-28.63
38.031,-21.35
38.046,-15.75
38.062,-11.66
38.078,-9.13
38.093,-8.5
38.109,-10.22
38.125,-14.58
38.140,-21.4
38.156,-29.92
38.171,-38.94
38.187,-47.15
38.203,-53.65
38.218,-58.15
38.234,-61.01
38.250,-62.94
38.265,-64.65
38.281,-66.47
38.296,-68.28
38.312,-69.62
38.328,-69.93
38.343,-68.85
38.359,-66.26
38.375,-62.34
38.390,-57.4
38.406,-51.83
38.421,-46.11
38.437,-40.95
38.453,-37.16
38.468,-35.53
38.484,-36.4
38.500,-39.28
38.515,-42.78
38.531,-44.9
38.546,-43.65
38.562,-37.79
38.578,-27.28
38.593,-13.3
38.609,2.28
38.625,17.48
38.640,30.89
38.656,41.78
38.671,50.08
38.687,56.03
38.703,59.89
38.718,61.8
38.734,61.75
38.750,59.74
38.765,55.88
38.781,50.47
38.796,44.1
38.812,37.49
38.828,31.47
38.843,26.69
38.859,23.54
38.875,22.06
38.890,22.01
38.906,22.96
38.921,24.49
38.937,26.31
38.953,28.2
38.968,29.96
38.984,31.3
39.000,31.8
39.015,30.97
39.031,28.36
39.046,23.66
39.062,16.8
39.078,8.03
39.093,-2.01
39.109,-12.2
39.125,-21.08
39.140,-26.97
39.156,-28.59
39.171,-25.36
39.187,-17.72
39.203,-6.94
39.218,5.33
39.234,17.66
39.250,29.28
39.265,40.06
39.281,50.2
39.296,59.81
39.312,68.63
39.328,76.09
39.343,81.72
39.359,85.47
39.375,87.83
39.390,89.67
39.406,92.02
39.421,95.86
39.437,101.95
39.453,110.52
39.468,120.83
39.484,130.74
39.500,136.7
39.515,134.4
39.531,120.13
39.546,92.18
39.562,51.71
39.578,2.51
39.593,-50.2
39.609,-101.39
39.625,-147.36
39.640,-185.9
39.656,-215.9
39.671,-236.75
39.687,-248.13
39.703,-250.47
39.718,-245.39
39.734,-235.82
39.750,-225.35
39.765,-217.01
39.781,-212.13
39.796,-209.82
39.812,-207.33
39.828,-201.31
39.843,-189.21
39.859,-170.29
39.875,-145.85
39.890,-118.61
39.906,-91.55
39.921,-66.88
39.937,-45.41
39.953,-26.62
39.968,-9.45
39.984,6.86
40.000,22.24
40.015,35.6
40.031,45.45
40.046,50.69
40.062,51.25
40.078,48.3
40.093,43.86
40.109,40.05
40.125,38.18
40.140,38.37
40.156,39.59
40.171,40.18
40.187,38.56
40.203,33.94
40.218,26.65
40.234,18.1
40.250,10.42
40.265,5.85
40.281,6.02
40.296,11.28
40.312,20.41
40.328,30.8
40.343,39.28
40.359,43.31
40.375,42.08
40.390,36.86
40.406,30.45
40.421,25.88
40.437,24.89
40.453,27.16
40.468,30.62
40.484,32.41
40.500,30.26
40.515,23.46
40.531,13.18
40.546,2.41
40.562,-4.48
40.578,-2.48
40.593,12.54
40.609,41.91
40.625,82.34
40.640,125.75
40.656,161.27
40.671,179.13
40.687,174.69
40.703,150.44
40.718,114.83
40.734,78.38
40.750,49.3
40.765,30.87
40.781,21.67
40.796,18.06
40.812,16.99
40.828,17.44
40.843,19.85
40.859,24.58
40.875,30.63
40.890,35.57
40.906,36.88
40.921,33.39
40.937,25.99
40.953,17.13
40.968,9.59
40.984,5.03
41.000,3.26
41.015,2.6
41.031,0.86
41.046,-3.44
41.062,-10.38
41.078,-18.66
41.093,-26.35
41.109,-31.83
41.125,-34.62
41.140,-35.66
41.156,-36.83
41.171,-40.14
41.187,-46.72
41.203,-56.14
41.218,-66.34
41.234,-74.23
41.250,-76.72
41.265,-71.86
41.281,-59.48
41.296,-41.23
41.312,-19.96
41.328,1.18
41.343,19.63
41.359,33.88
41.375,43.47
41.390,48.73
41.406,50.36
41.421,49.17
41.437,45.99
41.453,41.67
41.468,37.12
41.484,33.18
41.500,30.49
41.515,29.36
41.531,29.66
41.546,30.99
41.562,32.76
41.578,34.52
41.593,36.02
41.609,37.25
41.625,38.32
41.640,39.38
41.656,40.42
41.671,41.27
41.687,41.58
41.703,40.88
41.718,38.74
41.734,34.85
41.750,29.2
41.765,22.0
41.781,13.68
41.796,4.61
41.812,-4.99
41.828,-15.18
41.843,-26.1
41.859,-37.54
41.875,-48.79
41.890,-58.39
41.906,-64.49
41.921,-65.44
41.937,-60.38
41.953,-49.67
41.968,-34.7
41.984,-17.55
42.000,-0.31
42.015,15.41
42.031,28.56
42.046,38.63
42.062,45.36
42.078,48.64
42.093,48.63
42.109,45.84
42.125,41.21
42.140,35.96
42.156,31.25
42.171,27.8
42.187,25.78
42.203,24.79
42.218,24.29
42.234,23.82
42.250,23.27
42.265,22.79
42.281,22.58
42.296,22.62
42.312,22.65
42.328,22.24
42.343,21.0
42.359,18.83
42.375,15.9
42.390,12.63
42.406,9.47
42.421,6.65
42.437,4.14
42.453,1.6
42.468,-1.43
42.484,-5.39
42.500,-10.47
42.515,-16.41
42.531,-22.42
42.546,-27.23
42.562,-29.37
42.578,-27.52
42.593,-20.87
42.609,-9.3
42.625,6.57
42.640,25.6
42.656,46.38
42.671,67.47
42.687,87.56
42.703,105.5
42.718,120.45
42.734,131.9
42.750,139.86
42.765,144.9
42.781,148.17
42.796,151.09
42.812,155.01
42.828,160.59
42.843,167.42
42.859,173.7
42.875,176.59
42.890,172.82
42.906,159.66
42.921,135.7
42.937,101.38
42.953,58.87
42.968,11.56
42.984,-36.62
43.000,-82.09
43.015,-122.2
43.031,-155.57
43.046,-182.12
43.062,-202.67
43.078,-218.4
43.093,-230.3
43.109,-238.95
43.125,-244.55
43.140,-247.36
43.156,-248.07
43.171,-247.91
43.187,-248.41
43.203,-250.77
43.218,-255.32
43.234,-261.09
43.250,-265.76
43.265,-266.15
43.281,-258.88
43.296,-241.37
43.312,-212.73
43.328,-174.22
43.343,-129.07
43.359,-81.65
43.375,-36.23
43.390,4.02
43.406,37.58
43.421,64.39
43.437,85.21
43.453,100.96
43.468,112.36
43.484,120.01
43.500,124.61
43.515,127.21
43.531,128.99
43.546,131.0
43.562,133.92
43.578,137.99
43.593,143.41
43.609,150.61
43.625,160.35
43.640,173.08
43.656,188.07
43.671,202.53
43.687,211.78
43.703,210.52
43.718,194.86
43.734,164.24
43.750,121.94
43.765,74.01
43.781,27.02
43.796,-13.97
43.812,-46.33
43.828,-69.3
43.843,-82.87
43.859,-87.15
43.875,-82.66
43.890,-71.27
43.906,-56.72
43.921,-43.98
43.937,-37.52
43.953,-39.46
43.968,-48.67
43.984,-61.48
44.000,-73.43
44.015,-80.93
44.031,-82.04
44.046,-76.21
44.062,-63.73
44.078,-45.6
44.093,-23.94
44.109,-2.35
44.125,14.45
44.140,22.01
44.156,17.98
44.171,3.26
44.187,-18.18
44.203,-40.92
44.218,-60.27
44.234,-73.73
44.250,-81.25
44.265,-84.25
44.281,-84.26
44.296,-82.08
44.312,-77.79
44.328,-71.38
44.343,-63.38
44.359,-54.99
44.375,-47.55
44.390,-41.98
44.406,-38.31
44.421,-35.79
44.437,-33.36
44.453,-30.3
44.468,-26.61
44.484,-23.0
44.500,-20.6
44.515,-20.42
44.531,-23.0
44.546,-28.22
44.562,-35.35
44.578,-43.32
44.593,-51.12
44.609,-58.04
44.625,-63.93
44.640,-69.19
44.656,-74.58
44.671,-80.98
44.687,-89.15
44.703,-99.43
44.718,-111.56
44.734,-124.47
44.750,-136.33
44.765,-144.73
44.781,-147.25
44.796,-142.04
44.812,-128.5
44.828,-107.51
44.843,-81.2
44.859,-52.43
44.875,-23.92
44.890,2.23
44.906,24.78
44.921,43.18
44.937,57.28
44.953,67.16
44.968,73.03
44.984,75.43
45.000,75.19
45.015,73.42
45.031,71.2
45.046,69.31
45.062,68.14
45.078,67.65
45.093,67.62
45.109,67.83
45.125,68.28
45.140,69.08
45.156,70.32
45.171,71.84
45.187,73.24
45.203,73.92
45.218,73.28
45.234,70.89
45.250,66.63
45.265,60.59
45.281,53.09
45.296,44.52
45.312,35.4
45.328,26.25
45.343,17.63
45.359,9.9
45.375,3.09
45.390,-3.19
45.406,-9.78
45.421,-17.67
45.437,-27.78
45.453,-40.55
45.468,-55.74
45.484,-72.24
45.500,-88.14
45.515,-101.08
45.531,-108.72
45.546,-109.4
45.562,-102.61
45.578,-89.22
45.593,-71.1
45.609,-50.63
45.625,-30.06
45.640,-11.06
45.656,5.36
45.671,18.62
45.687,28.45
45.703,34.74
45.718,37.62
45.734,37.51
45.750,35.21
45.765,31.65
45.781,27.75
45.796,24.18
45.812,21.21
45.828,18.87
45.843,16.98
45.859,15.3
45.875,13.6
45.890,11.67
45.906,9.3
45.921,6.3
45.937,2.56
45.953,-1.91
45.968,-7.0
45.984,-12.53
46.000,-18.4
46.015,-24.6
46.031,-31.28
46.046,-38.63
46.062,-46.78
46.078,-55.69
46.093,-65.12
46.109,-74.75
46.125,-84.31
46.140,-93.7
46.156,-103.07
46.171,-112.71
46.187,-122.99
46.203,-134.06
46.218,-145.69
46.234,-157.02
46.250,-166.51
46.265,-172.17
46.281,-171.93
46.296,-164.26
46.312,-148.72
46.328,-126.15
46.343,-98.57
46.359,-68.69
46.375,-39.2
46.390,-12.26
46.406,10.82
46.421,29.55
46.437,44.07
46.453,54.83
46.468,62.47
46.484,67.67
46.500,71.13
46.515,73.49
46.531,75.22
46.546,76.56
46.562,77.53
46.578,78.07
46.593,78.22
46.609,78.17
46.625,78.29
46.640,78.96
46.656,80.43
46.671,82.62
46.687,85.22
46.703,87.73
46.718,89.63
46.734,90.49
46.750,90.0
46.765,88.09
46.781,84.86
46.796,80.55
46.812,75.5
46.828,70.01
46.843,64.23
46.859,58.13
46.875,51.62
46.890,44.65
46.906,37.39
46.921,30.14
46.937,23.16
46.953,16.56
46.968,10.06
46.984,3.12
47.000,-4.92
47.015,-14.46
47.031,-25.33
47.046,-36.58
47.062,-46.45
47.078,-52.73
47.093,-53.26
47.109,-46.52
47.125,-32.14
47.140,-11.07
47.156,14.53
47.171,41.79
47.187,67.62
47.203,89.36
47.218,105.11
47.234,113.95
47.250,115.91
47.265,111.8
47.281,103.07
47.296,91.52
47.312,79.11
47.328,67.76
47.343,59.11
47.359,54.31
47.375,53.75
47.390,57.03
47.406,62.95
47.421,69.88
47.437,76.2
47.453,80.66
47.468,82.64
47.484,82.08
47.500,79.33
47.515,74.88
47.531,69.22
47.546,62.79
47.562,56.07
47.578,49.56
47.593,43.73
47.609,38.89
47.625,35.03
47.640,31.86
47.656,28.93
47.671,25.84
47.687,22.42
47.703,18.8
47.718,15.35
47.734,12.51
47.750,10.55
47.765,9.48
47.781,9.01
47.796,8.65
47.812,7.95
47.828,6.7
47.843,5.14
47.859,4.05
47.875,4.65
47.890,8.21
47.906,15.68
47.921,27.34
47.937,42.63
47.953,60.45
47.968,79.53
47.984,98.84
48.000,117.93
48.015,136.76
48.031,155.44
48.046,173.88
48.062,191.4
48.078,206.75
48.093,218.21
48.109,223.95
48.125,222.42
48.140,212.75
48.156,195.1
48.171,170.69
48.187,141.71
48.203,110.8
48.218,80.49
48.234,52.71
48.250,28.57
48.265,8.36
48.281,-8.19
48.296,-21.72
48.312,-33.01
48.328,-42.88
48.343,-52.11
48.359,-61.25
48.375,-70.45
48.390,-79.51
48.406,-87.92
48.421,-95.2
48.437,-101.16
48.453,-106.03
48.468,-110.34
48.484,-114.67
48.500,-119.33
48.515,-124.25
48.531,-128.98
48.546,-132.84
48.562,-135.21
48.578,-135.69
48.593,-134.26
48.609,-131.37
48.625,-127.9
48.640,-125.03
48.656,-123.91
48.671,-125.32
48.687,-129.13
48.703,-134.16
48.718,-138.28
48.734,-139.0
48.750,-134.24
48.765,-123.14
48.781,-106.38
48.796,-85.86
48.812,-64.06
48.828,-43.16
48.843,-24.47
48.859,-8.34
48.875,5.53
48.890,17.63
48.906,28.25
48.921,37.46
48.937,45.29
48.953,51.9
48.968,57.64
48.984,62.87
49.000,67.73
49.015,72.07
49.031,75.53
49.046,77.84
49.062,79.07
49.078,79.73
49.093,80.59
49.109,82.38
49.125,85.5
49.140,89.92
49.156,95.28
49.171,101.02
49.187,106.56
49.203,111.31
49.218,114.65
49.234,115.96
49.250,114.69
49.265,110.29
49.281,102.25
49.296,90.04
49.312,73.23
49.328,51.77
49.343,26.25
49.359,-1.87
49.375,-30.48
49.390,-57.3
49.406,-80.49
49.421,-99.11
49.437,-113.25
49.453,-123.73
49.468,-131.56
49.484,-137.48
49.500,-141.61
49.515,-143.44
49.531,-142.06
49.546,-136.51
49.562,-126.23
49.578,-111.33
49.593,-92.69
49.609,-71.78
49.625,-50.36
49.640,-29.98
49.656,-11.83
49.671,3.38
49.687,15.32
49.703,23.87
49.718,29.07
49.734,31.07
49.750,30.22
49.765,27.05
49.781,22.24
49.796,16.57
49.812,10.68
49.828,5.11
49.843,0.08
49.859,-4.38
49.875,-8.43
49.890,-12.3
49.906,-16.19
49.921,-20.19
49.937,-24.32
49.953,-28.58
49.968,-33.06
49.984,-37.9
50.000,-43.28
50.015,-49.2
50.031,-55.29
50.046,-60.78
50.062,-64.67
50.078,-66.06
50.093,-64.53
50.109,-60.38
50.125,-54.52
50.140,-48.23
50.156,-42.73
50.171,-38.76
50.187,-36.52
50.203,-35.71
50.218,-35.86
50.234,-36.55
50.250,-37.62
50.265,-39.2
50.281,-41.6
50.296,-45.16
50.312,-50.07
50.328,-56.14
50.343,-62.71
50.359,-68.62
50.375,-72.44
50.390,-72.79
50.406,-68.76
50.421,-60.16
50.437,-47.59
50.453,-32.24
50.468,-15.56
50.484,1.06
50.500,16.54
50.515,30.1
50.531,41.27
50.546,49.79
50.562,55.63
50.578,59.0
50.593,60.37
50.609,60.32
50.625,59.46
50.640,58.31
50.656,57.13
50.671,56.05
50.687,55.09
50.703,54.25
50.718,53.54
50.734,52.98
50.750,52.59
50.765,52.28
50.781,51.92
50.796,51.29
50.812,50.2
50.828,48.53
50.843,46.24
50.859,43.36
50.875,39.93
50.890,35.95
50.906,31.36
50.921,26.11
50.937,20.22
50.953,13.88
50.968,7.45
50.984,1.31
51.000,-4.17
51.015,-8.86
51.031,-12.9
51.046,-16.56
51.062,-20.23
51.078,-24.25
51.093,-28.89
51.109,-34.31
51.125,-40.48
51.140,-47.12
51.156,-53.53
51.171,-58.64
51.187,-61.11
51.203,-59.66
51.218,-53.55
51.234,-42.81
51.250,-28.36
51.265,-11.73
51.281,5.34
51.296,21.32
51.312,35.18
51.328,46.4
51.343,54.9
51.359,60.8
51.375,64.37
51.390,65.94
51.406,66.05
51.421,65.35
51.437,64.59
51.453,64.45
51.468,65.35
51.484,67.3
51.500,69.96
51.515,72.78
51.531,75.28
51.546,77.16
51.562,78.45
51.578,79.33
51.593,80.02
51.609,80.53
51.625,80.76
51.640,80.57
51.656,79.89
51.671,78.8
51.687,77.51
51.703,76.15
51.718,74.78
51.734,73.29
51.750,71.54
51.765,69.44
51.781,66.98
51.796,64.23
51.812,61.18
51.828,57.72
51.843,53.57
51.859,48.29
51.875,41.4
51.890,32.48
51.906,21.36
51.921,8.26
51.937,-6.05
51.953,-20.42
51.968,-33.48
51.984,-43.97
52.000,-51.12
52.015,-54.84
52.031,-55.68
52.046,-54.7
52.062,-53.11
52.078,-52.05
52.093,-52.3
52.109,-54.2
52.125,-57.61
52.140,-61.96
52.156,-66.48
52.171,-70.33
52.187,-72.89
52.203,-73.8
52.218,-73.03
52.234,-70.78
52.250,-67.36
52.265,-63.07
52.281,-58.05
52.296,-52.25
52.312,-45.53
52.328,-37.78
52.343,-29.06
52.359,-19.76
52.375,-10.5
52.390,-2.02
52.406,5.05
52.421,10.33
52.437,13.77
52.453,15.53
52.468,15.82
52.484,14.8
52.500,12.56
52.515,9.19
52.531,4.89
52.546,-0.01
52.562,-5.1
52.578,-9.99
52.593,-14.46
52.609,-18.41
52.625,-21.9
52.640,-25.06
52.656,-28.06
52.671,-31.13
52.687,-34.48
52.703,-38.28
52.718,-42.51
52.734,-46.71
52.750,-49.98
52.765,-51.1
52.781,-48.81
52.796,-42.35
52.812,-31.68
52.828,-17.64
52.843,-1.71
52.859,14.44
52.875,29.33
52.890,42.03
52.906,52.22
52.921,60.06
52.937,65.93
52.953,70.26
52.968,73.36
52.984,75.44
53.000,76.67
53.015,77.29
53.031,77.69
53.046,78.34
53.062,79.77
53.078,82.32
53.093,86.02
53.109,90.49
53.125,94.95
53.140,98.32
53.156,99.42
53.171,97.16
53.187,90.76
53.203,79.93
53.218,65.01
53.234,46.94
53.250,27.13
53.265,7.06
53.281,-12.15
53.296,-30.06
53.312,-46.83
53.328,-62.91
53.343,-78.45
53.359,-93.03
53.375,-105.65
53.390,-115.12
53.406,-120.65
53.421,-122.18
53.437,-120.44
53.453,-116.64
53.468,-112.07
53.484,-107.67
53.500,-103.84
53.515,-100.27
53.531,-96.06
53.546,-89.85
53.562,-80.15
53.578,-65.85
53.593,-46.62
53.609,-23.2
53.625,2.77
53.640,29.21
53.656,54.23
53.671,76.56
53.687,95.67
53.703,111.7
53.718,125.14
53.734,136.69
53.750,147.11
53.765,157.08
53.781,166.84
53.796,175.8
53.812,182.48
53.828,184.74
53.843,180.49
53.859,168.47
53.875,148.68
53.890,122.46
53.906,91.98
53.921,59.61
53.937,27.36
53.953,-3.21
53.968,-31.07
53.984,-55.57
54.000,-76.41
54.015,-93.63
54.031,-107.57
54.046,-118.7
54.062,-127.5
54.078,-134.35
54.093,-139.58
54.109,-143.61
54.125,-147.0
54.140,-150.37
54.156,-154.3
54.171,-159.22
54.187,-165.42
54.203,-172.94
54.218,-181.48
54.234,-190.18
54.250,-197.54
54.265,-201.54
54.281,-200.16
54.296,-192.04
54.312,-177.05
54.328,-156.46
54.343,-132.57
54.359,-107.91
54.375,-84.6
54.390,-63.79
54.406,-45.75
54.421,-30.23
54.437,-16.89
54.453,-5.56
54.468,3.68
54.484,10.72
54.500,15.66
54.515,18.9
54.531,21.17
54.546,23.27
54.562,25.81
54.578,29.09
54.593,32.97
54.609,37.07
54.625,40.94
54.640,44.36
54.656,47.35
54.671,50.17
54.687,53.07
54.703,56.15
54.718,59.16
54.734,61.68
54.750,63.21
54.765,63.44
54.781,62.38
54.796,60.38
54.812,57.98
54.828,55.8
54.843,54.27
54.859,53.45
54.875,52.97
54.890,52.08
54.906,50.01
54.921,46.38
54.937,41.63
54.953,37.23
54.968,35.42
54.984,38.56
55.000,48.29
55.015,64.78
55.031,86.45
55.046,110.32
55.062,132.83
55.078,150.74
55.093,161.95
55.109,165.74
55.125,162.78
55.140,154.73
55.156,143.95
55.171,132.94
55.187,123.8
55.203,117.5
55.218,113.36
55.234,109.05
55.250,101.3
55.265,87.16
55.281,65.35
55.296,37.01
55.312,5.38
55.328,-25.32
55.343,-51.44
55.359,-70.95
55.375,-83.65
55.390,-90.58
55.406,-93.06
55.421,-92.08
55.437,-88.1
55.453,-81.39
55.468,-72.43
55.484,-62.01
55.500,-51.14
55.515,-40.56
55.531,-30.42
55.546,-20.27
55.562,-9.33
55.578,3.03
55.593,16.76
55.609,30.96
55.625,44.0
55.640,53.92
55.656,59.09
55.671,58.9
55.687,54.09
55.703,46.68
55.718,39.38
55.734,34.7
55.750,34.18
55.765,37.98
55.781,45.09
55.796,53.96
55.812,63.28
55.828,72.3
55.843,80.88
55.859,89.01
55.875,96.43
55.890,102.4
55.906,105.95
55.921,106.22
55.937,103.04
55.953,97.09
55.968,89.75
55.984,82.75
56.000,77.75
56.015,75.98
56.031,78.05
56.046,83.86
56.062,92.49
56.078,102.07
56.093,109.92
56.109,112.97
56.125,108.56
56.140,95.34
56.156,73.85
56.171,46.42
56.187,16.48
56.203,-12.37
56.218,-37.11
56.234,-55.6
56.250,-66.61
56.265,-69.98
56.281,-66.89
56.296,-60.14
56.312,-53.92
56.328,-52.79
56.343,-60.18
56.359,-77.03
56.375,-101.27
56.390,-128.65
56.406,-154.37
56.421,-174.73
56.437,-188.29
56.453,-195.88
56.468,-199.93
56.484,-203.31
56.500,-208.44
56.515,-216.57
56.531,-227.4
56.546,-239.19
56.562,-249.12
56.578,-254.04
56.593,-251.52
56.609,-240.48
56.625,-221.53
56.640,-196.46
56.656,-167.53
56.671,-136.62
56.687,-104.82
56.703,-72.35
56.718,-38.98
56.734,-4.54
56.750,30.5
56.765,64.54
56.781,94.81
56.796,117.88
56.812,130.66
56.828,131.63
56.843,121.66
56.859,103.93
56.875,82.83
56.890,62.43
56.906,45.29
56.921,32.2
56.937,22.81
56.953,16.64
56.968,13.6
56.984,13.77
57.000,16.81
57.015,21.52
57.031,26.15
57.046,29.06
57.062,29.46
57.078,27.55
57.093,24.18
57.109,20.22
57.125,16.25
57.140,12.58
57.156,9.41
57.171,6.91
57.187,5.04
57.203,3.37
57.218,1.16
57.234,-2.32
57.250,-7.35
57.265,-13.72
57.281,-20.95
57.296,-28.72
57.312,-37.19
57.328,-46.92
57.343,-58.49
57.359,-71.99
57.375,-86.75
57.390,-101.25
57.406,-113.26
57.421,-120.14
57.437,-119.19
57.453,-108.25
57.468,-86.45
57.484,-54.94
57.500,-16.96
57.515,22.65
57.531,58.61
57.546,86.44
57.562,103.29
57.578,108.09
57.593,101.45
57.609,85.28
57.625,62.57
57.640,36.98
57.656,12.34
57.671,-8.18
57.687,-22.79
57.703,-31.38
57.718,-35.27
57.734,-36.49
57.750,-36.91
57.765,-37.77
57.781,-39.62
57.796,-42.68
57.812,-47.24
57.828,-53.79
57.843,-62.96
57.859,-75.08
57.875,-89.94
57.890,-106.55
57.906,-123.17
57.921,-137.78
57.937,-148.64
57.953,-154.87
57.968,-156.8
57.984,-155.79
58.000,-153.59
58.015,-151.68
58.031,-150.65
58.046,-150.16
58.062,-149.35
58.078,-147.35
58.093,-143.72
58.109,-138.63
58.125,-132.7
58.140,-126.87
58.156,-122.14
58.171,-119.39
58.187,-119.02
58.203,-120.72
58.218,-123.1
58.234,-123.87
58.250,-120.39
58.265,-110.6
58.281,-93.84
58.296,-71.08
58.312,-44.68
58.328,-17.53
58.343,7.8
58.359,29.65
58.375,47.25
58.390,60.56
58.406,69.89
58.421,75.76
58.437,78.79
58.453,79.81
58.468,79.71
58.484,79.26
58.500,78.99
58.515,79.06
58.531,79.36
58.546,79.64
58.562,79.66
58.578,79.27
58.593,78.43
58.609,77.17
58.625,75.57
58.640,73.66
58.656,71.46
58.671,68.98
58.687,66.25
58.703,63.38
58.718,60.48
58.734,57.69
58.750,55.07
58.765,52.52
58.781,49.78
58.796,46.48
58.812,42.26
58.828,36.95
58.843,30.61
58.859,23.66
58.875,16.7
58.890,10.33
58.906,4.96
58.921,0.58
58.937,-3.24
58.953,-7.33
58.968,-12.54
58.984,-19.46
59.000,-28.04
59.015,-37.34
59.031,-45.75
59.046,-51.28
59.062,-52.26
59.078,-47.8
59.093,-38.13
59.109,-24.49
59.125,-8.67
59.140,7.45
59.156,22.4
59.171,35.3
59.187,45.78
59.203,53.78
59.218,59.27
59.234,62.22
59.250,62.63
59.265,60.71
59.281,57.04
59.296,52.48
59.312,48.05
59.328,44.58
59.343,42.49
59.359,41.74
59.375,41.98
59.390,42.75
59.406,43.76
59.421,44.96
59.437,46.44
59.453,48.27
59.468,50.35
59.484,52.41
59.500,54.05
59.515,54.93
59.531,54.79
59.546,53.55
59.562,51.23
59.578,47.96
59.593,43.85
59.609,38.94
59.625,33.22
59.640,26.57
59.656,18.88
59.671,10.09
59.687,0.27
59.703,-10.44
59.718,-21.87
59.734,-33.79
59.750,-45.79
59.765,-57.08
59.781,-66.41
59.796,-72.12
59.812,-72.69
59.828,-67.19
59.843,-55.77
59.859,-39.75
59.875,-21.3
59.890,-2.87
59.906,13.46
59.921,26.3
59.937,35.11
59.953,39.97
59.968,41.4
59.984,40.16
