timestamp,value
00.000,2.02
00.015,-1.11
00.031,-4.47
00.046,-8.06
00.062,-11.74
00.078,-15.26
00.093,-18.35
00.109,-20.93
00.125,-23.03
00.140,-24.85
00.156,-26.64
00.171,-28.57
00.187,-30.8
00.203,-33.35
00.218,-36.16
00.234,-39.07
00.250,-41.69
00.265,-43.51
00.281,-43.98
00.296,-42.68
00.312,-39.45
00.328,-34.48
00.343,-28.25
00.359,-21.36
00.375,-14.38
00.390,-7.72
00.406,-1.61
00.421,3.85
00.437,8.59
00.453,12.65
00.468,16.04
00.484,18.77
00.500,20.85
00.515,22.29
00.531,23.15
00.546,23.53
00.562,23.62
00.578,23.57
00.593,23.58
00.609,23.77
00.625,24.22
00.640,24.95
00.656,25.9
00.671,26.89
00.687,27.71
00.703,28.16
00.718,28.1
00.734,27.49
00.750,26.47
00.765,25.29
00.781,24.21
00.796,23.43
00.812,23.04
00.828,23.01
00.843,23.29
00.859,23.78
00.875,24.34
00.890,24.79
00.906,24.93
00.921,24.58
00.937,23.69
00.953,22.41
00.968,21.08
00.984,20.1
01.000,19.74
01.015,19.99
01.031,20.53
01.046,20.85
01.062,20.46
01.078,19.03
01.093,16.5
01.109,13.06
01.125,8.94
01.140,4.46
01.156,-0.03
01.171,-4.24
01.187,-7.89
01.203,-10.76
01.218,-12.69
01.234,-13.61
01.250,-13.47
01.265,-12.25
01.281,-9.95
01.296,-6.58
01.312,-2.27
01.328,2.75
01.343,8.17
01.359,13.64
01.375,18.86
01.390,23.65
01.406,27.92
01.421,31.63
01.437,34.69
01.453,36.89
01.468,37.91
01.484,37.31
01.500,34.63
01.515,29.56
01.531,22.05
01.546,12.36
01.562,1.03
01.578,-11.19
01.593,-23.52
01.609,-35.23
01.625,-45.86
01.640,-55.26
01.656,-63.55
01.671,-70.93
01.687,-77.58
01.703,-83.4
01.718,-88.07
01.734,-91.14
01.750,-92.3
01.765,-91.53
01.781,-89.13
01.796,-85.59
01.812,-81.35
01.828,-76.66
01.843,-71.63
01.859,-66.27
01.875,-60.75
01.890,-55.4
01.906,-50.68
01.921,-46.91
01.937,-44.15
01.953,-42.13
01.968,-40.42
01.984,-38.67
02.000,-36.76
02.015,-35.0
02.031,-33.89
02.046,-33.83
02.062,-34.98
02.078,-37.1
02.093,-39.66
02.109,-41.99
02.125,-43.48
02.140,-43.61
02.156,-42.14
02.171,-38.95
02.187,-34.15
02.203,-28.07
02.218,-21.3
02.234,-14.48
02.250,-8.17
02.265,-2.71
02.281,1.92
02.296,5.91
02.312,9.53
02.328,12.91
02.343,15.98
02.359,18.6
02.375,20.7
02.390,22.37
02.406,23.85
02.421,25.42
02.437,27.22
02.453,29.2
02.468,31.13
02.484,32.72
02.500,33.9
02.515,34.74
02.531,35.48
02.546,36.38
02.562,37.55
02.578,38.93
02.593,40.31
02.609,41.49
02.625,42.41
02.640,43.23
02.656,44.3
02.671,46.0
02.687,48.5
02.703,51.75
02.718,55.41
02.734,58.99
02.750,62.15
02.765,64.78
02.781,67.07
02.796,69.43
02.812,72.28
02.828,75.9
02.843,80.29
02.859,85.31
02.875,90.69
02.890,96.24
02.906,101.84
02.921,107.36
02.937,112.73
02.953,117.86
02.968,122.74
02.984,127.54
03.000,132.53
03.015,137.8
03.031,142.94
03.046,146.8
03.062,147.51
03.078,143.12
03.093,132.41
03.109,115.5
03.125,93.94
03.140,70.13
03.156,46.31
03.171,23.91
03.187,3.36
03.203,-15.64
03.218,-33.41
03.234,-49.92
03.250,-64.86
03.265,-77.93
03.281,-89.18
03.296,-99.06
03.312,-108.14
03.328,-116.67
03.343,-124.51
03.359,-131.08
03.375,-135.79
03.390,-138.32
03.406,-138.76
03.421,-137.64
03.437,-135.7
03.453,-133.64
03.468,-131.93
03.484,-130.65
03.500,-129.5
03.515,-128.01
03.531,-125.77
03.546,-122.66
03.562,-118.89
03.578,-114.93
03.593,-111.16
03.609,-107.72
03.625,-104.45
03.640,-101.0
03.656,-96.97
03.671,-92.23
03.687,-86.82
03.703,-80.93
03.718,-74.78
03.734,-68.46
03.750,-61.96
03.765,-55.3
03.781,-48.66
03.796,-42.29
03.812,-36.54
03.828,-31.63
03.843,-27.6
03.859,-24.16
03.875,-20.94
03.890,-17.64
03.906,-14.23
03.921,-10.94
03.937,-8.18
03.953,-6.25
03.968,-5.17
03.984,-4.6
04.000,-3.93
04.015,-2.45
04.031,0.42
04.046,5.07
04.062,11.61
04.078,19.84
04.093,29.29
04.109,39.29
04.125,49.02
04.140,57.58
04.156,64.11
04.171,67.95
04.187,68.73
04.203,66.47
04.218,61.55
04.234,54.64
04.250,46.52
04.265,37.9
04.281,29.3
04.296,21.12
04.312,13.73
04.328,7.51
04.343,2.78
04.359,-0.27
04.375,-1.67
04.390,-1.7
04.406,-0.74
04.421,0.88
04.437,2.95
04.453,5.43
04.468,8.24
04.484,11.25
04.500,14.18
04.515,16.66
04.531,18.38
04.546,19.16
04.562,19.02
04.578,18.15
04.593,16.76
04.609,15.07
04.625,13.29
04.640,11.58
04.656,9.99
04.671,8.52
04.687,7.02
04.703,5.26
04.718,2.96
04.734,-0.1
04.750,-4.07
04.765,-8.91
04.781,-14.51
04.796,-20.78
04.812,-27.66
04.828,-35.06
04.843,-42.85
04.859,-50.72
04.875,-58.2
04.890,-64.65
04.906,-69.37
04.921,-71.74
04.937,-71.32
04.953,-68.0
04.968,-61.97
04.984,-53.7
05.000,-43.87
05.015,-33.27
05.031,-22.63
05.046,-12.54
05.062,-3.39
05.078,4.69
05.093,11.73
05.109,17.76
05.125,22.81
05.140,26.8
05.156,29.67
05.171,31.45
05.187,32.3
05.203,32.5
05.218,32.39
05.234,32.22
05.250,32.07
05.265,31.92
05.281,31.68
05.296,31.28
05.312,30.65
05.328,29.74
05.343,28.45
05.359,26.71
05.375,24.5
05.390,21.84
05.406,18.89
05.421,15.77
05.437,12.5
05.453,8.97
05.468,5.01
05.484,0.43
05.500,-4.9
05.515,-11.12
05.531,-18.33
05.546,-26.58
05.562,-35.78
05.578,-45.69
05.593,-55.8
05.609,-65.53
05.625,-74.27
05.640,-81.58
05.656,-87.24
05.671,-91.25
05.687,-93.78
05.703,-95.08
05.718,-95.48
05.734,-95.3
05.750,-94.85
05.765,-94.25
05.781,-93.33
05.796,-91.66
05.812,-88.59
05.828,-83.5
05.843,-76.06
05.859,-66.33
05.875,-54.79
05.890,-42.23
05.906,-29.43
05.921,-16.98
05.937,-5.22
05.953,5.72
05.968,15.85
05.984,25.06
06.000,33.13
06.015,39.73
06.031,44.5
06.046,47.19
06.062,47.84
06.078,46.75
06.093,44.44
06.109,41.52
06.125,38.52
06.140,35.79
06.156,33.52
06.171,31.7
06.187,30.33
06.203,29.39
06.218,28.95
06.234,28.99
06.250,29.42
06.265,30.03
06.281,30.52
06.296,30.49
06.312,29.59
06.328,27.66
06.343,24.75
06.359,21.2
06.375,17.48
06.390,13.97
06.406,10.86
06.421,7.98
06.437,5.04
06.453,1.7
06.468,-2.15
06.484,-6.34
06.500,-10.55
06.515,-14.5
06.531,-18.08
06.546,-21.43
06.562,-24.74
06.578,-28.08
06.593,-31.45
06.609,-34.73
06.625,-37.81
06.640,-40.67
06.656,-43.22
06.671,-45.18
06.687,-45.96
06.703,-44.86
06.718,-41.31
06.734,-35.12
06.750,-26.73
06.765,-17.02
06.781,-7.08
06.796,2.22
06.812,10.39
06.828,17.37
06.843,23.37
06.859,28.57
06.875,33.09
06.890,36.82
06.906,39.64
06.921,41.5
06.937,42.5
06.953,42.9
06.968,42.98
06.984,43.03
07.000,43.18
07.015,43.52
07.031,44.07
07.046,44.84
07.062,45.81
07.078,46.94
07.093,48.12
07.109,49.12
07.125,49.75
07.140,49.81
07.156,49.19
07.171,47.77
07.187,45.52
07.203,42.42
07.218,38.47
07.234,33.79
07.250,28.6
07.265,23.2
07.281,17.87
07.296,12.8
07.312,7.97
07.328,3.24
07.343,-1.59
07.359,-6.6
07.375,-11.75
07.390,-16.84
07.406,-21.59
07.421,-25.8
07.437,-29.44
07.453,-32.66
07.468,-35.77
07.484,-39.13
07.500,-43.03
07.515,-47.7
07.531,-53.19
07.546,-59.33
07.562,-65.65
07.578,-71.34
07.593,-75.3
07.609,-76.4
07.625,-73.82
07.640,-67.31
07.656,-57.34
07.671,-45.04
07.687,-31.76
07.703,-18.73
07.718,-6.73
07.734,3.92
07.750,13.31
07.765,21.65
07.781,29.16
07.796,35.93
07.812,41.96
07.828,47.26
07.843,51.8
07.859,55.58
07.875,58.55
07.890,60.64
07.906,61.75
07.921,61.92
07.937,61.3
07.953,60.2
07.968,58.98
07.984,57.91
08.000,57.12
08.015,56.56
08.031,56.08
08.046,55.55
08.062,54.84
08.078,53.84
08.093,52.4
08.109,50.4
08.125,47.75
08.140,44.57
08.156,41.09
08.171,37.64
08.187,34.51
08.203,31.74
08.218,29.19
08.234,26.56
08.250,23.63
08.265,20.36
08.281,16.89
08.296,13.41
08.312,10.1
08.328,6.94
08.343,3.87
08.359,0.7
08.375,-2.76
08.390,-6.66
08.406,-11.08
08.421,-15.99
08.437,-21.27
08.453,-26.53
08.468,-31.13
08.484,-34.29
08.500,-35.19
08.515,-33.37
08.531,-28.88
08.546,-22.35
08.562,-14.81
08.578,-7.35
08.593,-0.74
08.609,4.69
08.625,9.03
08.640,12.63
08.656,15.85
08.671,18.91
08.687,21.93
08.703,24.95
08.718,28.02
08.734,31.23
08.750,34.6
08.765,38.0
08.781,41.21
08.796,43.9
08.812,45.74
08.828,46.54
08.843,46.27
08.859,45.05
08.875,43.09
08.890,40.56
08.906,37.54
08.921,34.09
08.937,30.2
08.953,25.92
08.968,21.31
08.984,16.51
09.000,11.64
09.015,6.87
09.031,2.42
09.046,-1.43
09.062,-4.38
09.078,-6.32
09.093,-7.32
09.109,-7.77
09.125,-8.25
09.140,-9.38
09.156,-11.51
09.171,-14.69
09.187,-18.63
09.203,-22.89
09.218,-27.06
09.234,-30.9
09.250,-34.42
09.265,-37.79
09.281,-41.23
09.296,-44.95
09.312,-49.09
09.328,-53.66
09.343,-58.48
09.359,-63.1
09.375,-66.75
09.390,-68.56
09.406,-67.72
09.421,-63.79
09.437,-56.85
09.453,-47.49
09.468,-36.65
09.484,-25.33
09.500,-14.36
09.515,-4.28
09.531,4.72
09.546,12.65
09.562,19.65
09.578,25.84
09.593,31.26
09.609,35.91
09.625,39.82
09.640,43.05
09.656,45.81
09.671,48.28
09.687,50.63
09.703,52.92
09.718,55.0
09.734,56.71
09.750,57.96
09.765,58.86
09.781,59.63
09.796,60.56
09.812,61.8
09.828,63.3
09.843,64.83
09.859,66.06
09.875,66.7
09.890,66.64
09.906,65.84
09.921,64.3
09.937,61.98
09.953,58.67
09.968,54.15
09.984,48.27
10.000,41.04
10.015,32.68
10.031,23.55
10.046,13.98
10.062,4.24
10.078,-5.44
10.093,-14.87
10.109,-23.79
10.125,-31.9
10.140,-38.94
10.156,-44.77
10.171,-49.55
10.187,-53.61
10.203,-57.33
10.218,-60.96
10.234,-64.49
10.250,-67.58
10.265,-69.69
10.281,-70.17
10.296,-68.44
10.312,-64.13
10.328,-57.15
10.343,-47.73
10.359,-36.41
10.375,-23.96
10.390,-11.24
10.406,0.95
10.421,11.97
10.437,21.52
10.453,29.52
10.468,36.1
10.484,41.49
10.500,45.88
10.515,49.37
10.531,51.99
10.546,53.7
10.562,54.46
10.578,54.36
10.593,53.53
10.609,52.28
10.625,50.91
10.640,49.61
10.656,48.45
10.671,47.32
10.687,46.06
10.703,44.59
10.718,42.97
10.734,41.35
10.750,39.9
10.765,38.63
10.781,37.34
10.796,35.72
10.812,33.55
10.828,30.78
10.843,27.61
10.859,24.34
10.875,21.2
10.890,18.21
10.906,15.17
10.921,11.79
10.937,7.87
10.953,3.29
10.968,-1.95
10.984,-7.91
11.000,-14.73
11.015,-22.57
11.031,-31.51
11.046,-41.38
11.062,-51.72
11.078,-61.9
11.093,-71.32
11.109,-79.46
11.125,-85.97
11.140,-90.58
11.156,-93.07
11.171,-93.31
11.187,-91.42
11.203,-87.69
11.218,-82.72
11.234,-77.2
11.250,-71.69
11.265,-66.55
11.281,-61.87
11.296,-57.58
11.312,-53.5
11.328,-49.48
11.343,-45.32
11.359,-40.92
11.375,-36.24
11.390,-31.34
11.406,-26.32
11.421,-21.39
11.437,-16.72
11.453,-12.41
11.468,-8.52
11.484,-4.98
11.500,-1.77
11.515,1.1
11.531,3.58
11.546,5.57
11.562,6.98
11.578,7.77
11.593,7.96
11.609,7.63
11.625,6.89
11.640,5.83
11.656,4.51
11.671,3.02
11.687,1.41
11.703,-0.27
11.718,-1.92
11.734,-3.47
11.750,-4.88
11.765,-6.22
11.781,-7.69
11.796,-9.55
11.812,-11.93
11.828,-14.85
11.843,-18.06
11.859,-21.21
11.875,-23.98
11.890,-26.28
11.906,-28.31
11.921,-30.44
11.937,-33.02
11.953,-36.12
11.968,-39.44
11.984,-42.36
12.000,-44.16
12.015,-44.26
12.031,-42.39
12.046,-38.55
12.062,-33.0
12.078,-26.19
12.093,-18.57
12.109,-10.67
12.125,-2.99
12.140,4.15
12.156,10.5
12.171,15.95
12.187,20.48
12.203,24.09
12.218,26.75
12.234,28.47
12.250,29.32
12.265,29.46
12.281,29.15
12.296,28.6
12.312,27.94
12.328,27.22
12.343,26.43
12.359,25.58
12.375,24.65
12.390,23.62
12.406,22.42
12.421,20.99
12.437,19.28
12.453,17.32
12.468,15.19
12.484,12.97
12.500,10.63
12.515,8.14
12.531,5.46
12.546,2.61
12.562,-0.27
12.578,-3.13
12.593,-5.86
12.609,-8.49
12.625,-11.09
12.640,-13.78
12.656,-16.61
12.671,-19.64
12.687,-22.95
12.703,-26.63
12.718,-30.81
12.734,-35.47
12.750,-40.43
12.765,-45.23
12.781,-49.19
12.796,-51.55
12.812,-51.66
12.828,-49.23
12.843,-44.46
12.859,-37.96
12.875,-30.59
12.890,-23.19
12.906,-16.33
12.921,-10.11
12.937,-4.37
12.953,1.23
12.968,6.85
12.984,12.35
13.000,17.44
13.015,21.74
13.031,25.09
13.046,27.59
13.062,29.6
13.078,31.44
13.093,33.28
13.109,34.92
13.125,36.02
13.140,36.31
13.156,35.73
13.171,34.53
13.187,33.14
13.203,31.91
13.218,30.93
13.234,30.03
13.250,28.88
13.265,27.21
13.281,24.98
13.296,22.33
13.312,19.55
13.328,16.88
13.343,14.37
13.359,11.94
13.375,9.42
13.390,6.7
13.406,3.73
13.421,0.6
13.437,-2.59
13.453,-5.74
13.468,-8.74
13.484,-11.57
13.500,-14.29
13.515,-17.03
13.531,-19.95
13.546,-23.23
13.562,-26.95
13.578,-31.03
13.593,-35.11
13.609,-38.55
13.625,-40.63
13.640,-40.68
13.656,-38.36
13.671,-33.71
13.687,-27.16
13.703,-19.38
13.718,-11.22
13.734,-3.4
13.750,3.61
13.765,9.63
13.781,14.74
13.796,19.19
13.812,23.22
13.828,26.92
13.843,30.25
13.859,32.97
13.875,34.82
13.890,35.67
13.906,35.61
13.921,34.92
13.937,33.99
13.953,33.07
13.968,32.27
13.984,31.55
14.000,30.79
14.015,29.88
14.031,28.76
14.046,27.43
14.062,25.91
14.078,24.17
14.093,22.14
14.109,19.73
14.125,17.02
14.140,14.14
14.156,11.26
14.171,8.52
14.187,5.86
14.203,3.13
14.218,0.11
14.234,-3.35
14.250,-7.26
14.265,-11.41
14.281,-15.51
14.296,-19.23
14.312,-22.39
14.328,-25.01
14.343,-27.26
14.359,-29.44
14.375,-31.79
14.390,-34.45
14.406,-37.31
14.421,-40.04
14.437,-42.16
14.453,-43.06
14.468,-42.31
14.484,-39.62
14.500,-35.01
14.515,-28.78
14.531,-21.42
14.546,-13.57
14.562,-5.79
14.578,1.45
14.593,7.89
14.609,13.4
14.625,18.05
14.640,21.88
14.656,24.97
14.671,27.27
14.687,28.7
14.703,29.29
14.718,29.16
14.734,28.64
14.750,28.08
14.765,27.82
14.781,27.99
14.796,28.51
14.812,29.09
14.828,29.38
14.843,29.15
14.859,28.22
14.875,26.61
14.890,24.41
14.906,21.78
14.921,18.85
14.937,15.76
14.953,12.6
14.968,9.45
14.984,6.4
15.000,3.49
15.015,0.74
15.031,-1.88
15.046,-4.42
15.062,-6.92
15.078,-9.43
15.093,-11.93
15.109,-14.43
15.125,-16.93
15.140,-19.59
15.156,-22.62
15.171,-26.24
15.187,-30.46
15.203,-34.95
15.218,-39.03
15.234,-41.81
15.250,-42.51
15.265,-40.71
15.281,-36.5
15.296,-30.4
15.312,-23.16
15.328,-15.5
15.343,-7.91
15.359,-0.67
15.375,6.06
15.390,12.13
15.406,17.39
15.421,21.66
15.437,24.9
15.453,27.19
15.468,28.68
15.484,29.6
15.500,30.11
15.515,30.3
15.531,30.22
15.546,29.91
15.562,29.42
15.578,28.86
15.593,28.26
15.609,27.6
15.625,26.72
15.640,25.51
15.656,23.9
15.671,21.94
15.687,19.79
15.703,17.59
15.718,15.44
15.734,13.33
15.750,11.23
15.765,9.01
15.781,6.6
15.796,4.02
15.812,1.32
15.828,-1.43
15.843,-4.21
15.859,-7.02
15.875,-9.94
15.890,-12.99
15.906,-16.17
15.921,-19.42
15.937,-22.66
15.953,-25.81
15.968,-28.89
15.984,-31.99
16.000,-35.1
16.015,-38.04
16.031,-40.29
16.046,-41.17
16.062,-40.05
16.078,-36.67
16.093,-31.27
16.109,-24.52
16.125,-17.33
16.140,-10.39
16.156,-4.08
16.171,1.65
16.187,7.03
16.203,12.22
16.218,17.2
16.234,21.73
16.250,25.51
16.265,28.37
16.281,30.34
16.296,31.55
16.312,32.19
16.328,32.4
16.343,32.24
16.359,31.75
16.375,30.97
16.390,29.97
16.406,28.92
16.421,27.9
16.437,26.98
16.453,26.13
16.468,25.22
16.484,24.06
16.500,22.52
16.515,20.59
16.531,18.45
16.546,16.36
16.562,14.58
16.578,13.15
16.593,11.89
16.609,10.43
16.625,8.37
16.640,5.58
16.656,2.14
16.671,-1.59
16.687,-5.18
16.703,-8.36
16.718,-11.05
16.734,-13.36
16.750,-15.48
16.765,-17.56
16.781,-19.67
16.796,-21.92
16.812,-24.45
16.828,-27.4
16.843,-30.71
16.859,-34.04
16.875,-36.7
16.890,-37.83
16.906,-36.73
16.921,-33.16
16.937,-27.47
16.953,-20.41
16.968,-12.88
16.984,-5.58
17.000,1.14
17.015,7.24
17.031,12.81
17.046,17.84
17.062,22.19
17.078,25.66
17.093,28.08
17.109,29.48
17.125,30.1
17.140,30.25
17.156,30.25
17.171,30.21
17.187,30.1
17.203,29.79
17.218,29.2
17.234,28.38
17.250,27.47
17.265,26.67
17.281,26.06
17.296,25.61
17.312,25.1
17.328,24.32
17.343,23.11
17.359,21.42
17.375,19.35
17.390,17.04
17.406,14.61
17.421,12.13
17.437,9.58
17.453,6.96
17.468,4.26
17.484,1.5
17.500,-1.3
17.515,-4.11
17.531,-6.96
17.546,-9.82
17.562,-12.69
17.578,-15.57
17.593,-18.38
17.609,-21.02
17.625,-23.4
17.640,-25.54
17.656,-27.5
17.671,-29.48
17.687,-31.69
17.703,-34.24
17.718,-37.02
17.734,-39.56
17.750,-41.2
17.765,-41.29
17.781,-39.41
17.796,-35.65
17.812,-30.49
17.828,-24.58
17.843,-18.51
17.859,-12.62
17.875,-6.94
17.890,-1.41
17.906,3.98
17.921,9.12
17.937,13.75
17.953,17.59
17.968,20.51
17.984,22.49
18.000,23.65
18.015,24.16
18.031,24.21
18.046,23.94
18.062,23.43
18.078,22.75
18.093,21.91
18.109,21.01
18.125,20.14
18.140,19.38
18.156,18.8
18.171,18.4
18.187,18.08
18.203,17.63
18.218,16.85
18.234,15.57
18.250,13.78
18.265,11.57
18.281,9.14
18.296,6.7
18.312,4.36
18.328,2.15
18.343,0.02
18.359,-2.1
18.375,-4.23
18.390,-6.33
18.406,-8.36
18.421,-10.23
18.437,-11.91
18.453,-13.41
18.468,-14.77
18.484,-16.01
18.500,-17.26
18.515,-18.68
18.531,-20.5
18.546,-22.93
18.562,-26.04
18.578,-29.67
18.593,-33.41
18.609,-36.6
18.625,-38.51
18.640,-38.59
18.656,-36.64
18.671,-32.88
18.687,-27.85
18.703,-22.16
18.718,-16.37
18.734,-10.75
18.750,-5.41
18.765,-0.41
18.781,4.19
18.796,8.22
18.812,11.5
18.828,13.92
18.843,15.54
18.859,16.52
18.875,17.1
18.890,17.41
18.906,17.47
18.921,17.26
18.937,16.75
18.953,16.07
18.968,15.42
18.984,15.04
19.000,15.0
19.015,15.28
19.031,15.67
19.046,15.95
19.062,15.96
19.078,15.71
19.093,15.25
19.109,14.61
19.125,13.76
19.140,12.64
19.156,11.16
19.171,9.38
19.187,7.39
19.203,5.32
19.218,3.23
19.234,1.05
19.250,-1.36
19.265,-4.08
19.281,-7.13
19.296,-10.43
19.312,-13.83
19.328,-17.21
19.343,-20.47
19.359,-23.59
19.375,-26.58
19.390,-29.38
19.406,-31.77
19.421,-33.44
19.437,-33.98
19.453,-33.04
19.468,-30.48
19.484,-26.43
19.500,-21.36
19.515,-15.82
19.531,-10.32
19.546,-5.19
19.562,-0.53
19.578,3.73
19.593,7.67
19.609,11.34
19.625,14.69
19.640,17.58
19.656,19.9
19.671,21.63
19.687,22.82
19.703,23.57
19.718,24.05
19.734,24.37
19.750,24.53
19.765,24.54
19.781,24.34
19.796,23.99
19.812,23.63
19.828,23.48
19.843,23.65
19.859,24.09
19.875,24.54
19.890,24.64
19.906,24.17
19.921,23.11
19.937,21.66
19.953,20.15
19.968,18.9
19.984,18.05
20.000,17.56
20.015,17.27
20.031,17.03
20.046,16.69
20.062,16.2
20.078,15.56
20.093,14.91
20.109,14.53
20.125,14.73
20.140,15.73
20.156,17.47
20.171,19.63
20.187,21.7
20.203,23.3
20.218,24.53
20.234,26.08
20.250,29.1
20.265,34.81
20.281,43.91
20.296,56.25
20.312,70.78
20.328,85.91
20.343,100.12
20.359,112.51
20.375,123.07
20.390,132.42
20.406,141.47
20.421,150.9
20.437,160.87
20.453,170.95
20.468,180.14
20.484,186.95
20.500,189.59
20.515,186.16
20.531,175.07
20.546,155.58
20.562,128.17
20.578,94.72
20.593,58.03
20.609,21.03
20.625,-14.18
20.640,-46.94
20.656,-77.7
20.671,-106.98
20.687,-134.12
20.703,-156.6
20.718,-170.49
20.734,-172.08
20.750,-159.87
20.765,-135.65
20.781,-104.2
20.796,-71.52
20.812,-42.4
20.828,-19.11
20.843,-1.32
20.859,12.67
20.875,24.22
20.890,33.48
20.906,39.57
20.921,41.49
20.937,39.18
20.953,33.73
20.968,26.8
20.984,19.86
21.000,13.52
21.015,7.51
21.031,1.19
21.046,-5.8
21.062,-13.17
21.078,-19.98
21.093,-24.93
21.109,-26.91
21.125,-25.28
21.140,-20.21
21.156,-12.63
21.171,-3.96
21.187,4.31
21.203,10.98
21.218,15.39
21.234,17.57
21.250,17.89
21.265,16.82
21.281,14.6
21.296,11.16
21.312,6.31
21.328,-0.02
21.343,-7.58
21.359,-15.86
21.375,-24.24
21.390,-32.27
21.406,-39.82
21.421,-47.06
21.437,-54.3
21.453,-61.81
21.468,-69.67
21.484,-77.88
21.500,-86.33
21.515,-94.99
21.531,-103.83
21.546,-112.77
21.562,-121.52
21.578,-129.56
21.593,-136.13
21.609,-140.35
21.625,-141.42
21.640,-138.82
21.656,-132.45
21.671,-122.77
21.687,-110.72
21.703,-97.61
21.718,-84.81
21.734,-73.3
21.750,-63.52
21.765,-55.1
21.781,-47.18
21.796,-38.87
21.812,-29.69
21.828,-19.94
21.843,-10.43
21.859,-2.15
21.875,4.39
21.890,9.38
21.906,13.52
21.921,17.77
21.937,22.82
21.953,29.09
21.968,36.75
21.984,45.85
22.000,56.39
22.015,68.12
22.031,80.55
22.046,92.9
22.062,104.57
22.078,115.58
22.093,126.76
22.109,139.53
22.125,155.27
22.140,174.39
22.156,195.95
22.171,217.63
22.187,236.39
22.203,249.39
22.218,254.71
22.234,251.84
22.250,241.56
22.265,225.52
22.281,205.74
22.296,184.07
22.312,161.84
22.328,139.75
22.343,117.75
22.359,95.34
22.375,71.89
22.390,47.25
22.406,22.0
22.421,-2.43
22.437,-24.23
22.453,-41.74
22.468,-54.08
22.484,-61.43
22.500,-64.88
22.515,-66.07
22.531,-66.61
22.546,-67.69
22.562,-69.99
22.578,-73.5
22.593,-77.75
22.609,-81.89
22.625,-84.94
22.640,-86.09
22.656,-84.98
22.671,-81.78
22.687,-77.1
22.703,-71.68
22.718,-66.15
22.734,-60.83
22.750,-55.8
22.765,-51.01
22.781,-46.39
22.796,-41.77
22.812,-36.87
22.828,-31.15
22.843,-23.93
22.859,-14.76
22.875,-3.65
22.890,8.7
22.906,21.04
22.921,31.77
22.937,39.32
22.953,42.5
22.968,40.7
22.984,33.88
23.000,22.49
23.015,7.39
23.031,-10.19
23.046,-28.45
23.062,-45.34
23.078,-59.05
23.093,-68.85
23.109,-75.69
23.125,-82.23
23.140,-91.9
23.156,-107.38
23.171,-129.18
23.187,-155.16
23.203,-181.24
23.218,-202.95
23.234,-217.07
23.250,-222.43
23.265,-219.66
23.281,-210.53
23.296,-197.04
23.312,-181.42
23.328,-166.3
23.343,-154.75
23.359,-149.7
23.375,-152.7
23.390,-162.76
23.406,-175.97
23.421,-186.59
23.437,-189.01
23.453,-180.07
23.468,-160.26
23.484,-133.44
23.500,-105.12
23.515,-80.17
23.531,-61.18
23.546,-48.03
23.562,-38.67
23.578,-30.66
23.593,-22.48
23.609,-14.02
23.625,-6.2
23.640,-0.1
23.656,3.81
23.671,5.74
23.687,6.26
23.703,5.63
23.718,3.48
23.734,-0.92
23.750,-8.0
23.765,-17.25
23.781,-27.2
23.796,-35.95
23.812,-42.13
23.828,-45.54
23.843,-47.2
23.859,-48.66
23.875,-51.15
23.890,-55.07
23.906,-59.95
23.921,-65.08
23.937,-69.86
23.953,-74.08
23.968,-77.56
23.984,-79.97
24.000,-80.77
24.015,-79.55
24.031,-76.59
24.046,-72.93
24.062,-70.13
24.078,-69.4
24.093,-70.92
24.109,-73.66
24.125,-75.96
24.140,-76.29
24.156,-73.97
24.171,-69.29
24.187,-62.89
24.203,-55.05
24.218,-45.41
24.234,-33.2
24.250,-18.02
24.265,-0.51
24.281,17.52
24.296,33.65
24.312,45.81
24.328,53.1
24.343,55.95
24.359,55.58
24.375,53.25
24.390,49.67
24.406,45.06
24.421,39.59
24.437,33.92
24.453,29.3
24.468,27.1
24.484,28.15
24.500,32.05
24.515,37.37
24.531,42.08
24.546,44.44
24.562,43.55
24.578,39.45
24.593,32.78
24.609,24.25
24.625,14.42
24.640,3.71
24.656,-7.16
24.671,-17.1
24.687,-24.79
24.703,-29.22
24.718,-30.3
24.734,-29.14
24.750,-27.77
24.765,-28.36
24.781,-32.35
24.796,-39.81
24.812,-49.43
24.828,-59.14
24.843,-66.79
24.859,-70.87
24.875,-70.73
24.890,-66.35
24.906,-58.02
24.921,-46.09
24.937,-31.06
24.953,-13.81
24.968,4.29
24.984,21.56
25.000,36.38
25.015,47.66
25.031,55.0
25.046,58.66
25.062,59.2
25.078,57.2
25.093,53.21
25.109,47.86
25.125,42.15
25.140,37.39
25.156,34.98
25.171,35.83
25.187,39.95
25.203,46.18
25.218,52.6
25.234,57.19
25.250,58.55
25.265,56.36
25.281,51.25
25.296,44.37
25.312,36.77
25.328,29.1
25.343,21.58
25.359,14.37
25.375,7.99
25.390,3.27
25.406,0.99
25.421,1.26
25.437,3.25
25.453,5.3
25.468,5.54
25.484,2.63
25.500,-3.89
25.515,-13.53
25.531,-25.35
25.546,-38.29
25.562,-51.39
25.578,-63.42
25.593,-72.75
25.609,-77.39
25.625,-75.51
25.640,-66.28
25.656,-50.38
25.671,-30.13
25.687,-8.64
25.703,11.05
25.718,26.95
25.734,38.43
25.750,45.92
25.765,50.36
25.781,52.55
25.796,53.02
25.812,52.17
25.828,50.77
25.843,49.98
25.859,51.13
25.875,55.13
25.890,61.9
25.906,70.28
25.921,78.39
25.937,84.44
25.953,87.32
25.968,86.94
25.984,84.0
26.000,79.44
26.015,74.01
26.031,68.21
26.046,62.48
26.062,57.45
26.078,54.07
26.093,53.22
26.109,55.27
26.125,59.77
26.140,65.41
26.156,70.54
26.171,73.68
26.187,74.08
26.203,71.78
26.218,67.32
26.234,61.44
26.250,54.73
26.265,47.68
26.281,40.79
26.296,34.85
26.312,30.72
26.328,29.18
26.343,30.5
26.359,34.11
26.375,38.8
26.390,43.02
26.406,45.43
26.421,45.31
26.437,42.66
26.453,37.96
26.468,31.88
26.484,25.02
26.500,17.84
26.515,10.87
26.531,4.87
26.546,0.86
26.562,-0.21
26.578,2.09
26.593,7.29
26.609,13.94
26.625,20.12
26.640,24.03
26.656,24.66
26.671,22.01
26.687,16.9
26.703,10.42
26.718,3.43
26.734,-3.53
26.750,-10.07
26.765,-15.64
26.781,-19.35
26.796,-20.27
26.812,-17.95
26.828,-12.88
26.843,-6.61
26.859,-1.24
26.875,1.27
26.890,-0.19
26.906,-5.54
26.921,-13.87
26.937,-23.91
26.953,-34.54
26.968,-44.96
26.984,-54.47
27.000,-62.23
27.015,-67.36
27.031,-69.31
27.046,-68.38
27.062,-65.89
27.078,-63.84
27.093,-63.97
27.109,-66.81
27.125,-71.33
27.140,-75.3
27.156,-76.4
27.171,-73.2
27.187,-65.66
27.203,-54.82
27.218,-42.01
27.234,-28.08
27.250,-13.32
27.265,2.14
27.281,17.78
27.296,32.37
27.312,44.29
27.328,52.16
27.343,55.49
27.359,54.84
27.375,51.47
27.390,46.71
27.406,41.57
27.421,36.64
27.437,32.52
27.453,29.89
27.468,29.61
27.484,32.21
27.500,37.45
27.515,44.09
27.531,50.24
27.546,54.07
27.562,54.51
27.578,51.58
27.593,46.05
27.609,39.1
27.625,31.59
27.640,24.12
27.656,17.14
27.671,11.33
27.687,7.7
27.703,7.15
27.718,9.86
27.734,14.85
27.750,20.2
27.765,23.72
27.781,23.79
27.796,19.92
27.812,12.72
27.828,3.36
27.843,-6.99
27.859,-17.44
27.875,-27.24
27.890,-35.47
27.906,-41.04
27.921,-43.21
27.937,-42.06
27.953,-38.88
27.968,-35.83
27.984,-35.03
28.000,-37.55
28.015,-42.95
28.031,-49.51
28.046,-55.09
28.062,-58.04
28.078,-57.53
28.093,-53.5
28.109,-46.14
28.125,-35.71
28.140,-22.45
28.156,-7.06
28.171,9.13
28.187,24.22
28.203,36.28
28.218,44.04
28.234,47.13
28.250,46.09
28.265,41.86
28.281,35.51
28.296,28.11
28.312,20.9
28.328,15.33
28.343,12.87
28.359,14.42
28.375,19.77
28.390,27.45
28.406,35.19
28.421,40.81
28.437,42.95
28.453,41.41
28.468,36.83
28.484,30.15
28.500,22.19
28.515,13.57
28.531,4.97
28.546,-2.61
28.562,-7.97
28.578,-10.2
28.593,-9.28
28.609,-6.19
28.625,-2.74
28.640,-0.87
28.656,-1.88
28.671,-6.16
28.687,-13.25
28.703,-22.33
28.718,-32.5
28.734,-42.92
28.750,-52.51
28.765,-59.83
28.781,-63.24
28.796,-61.43
28.812,-54.03
28.828,-42.06
28.843,-27.64
28.859,-13.35
28.875,-1.33
28.890,7.34
28.906,12.64
28.921,15.26
28.937,16.1
28.953,15.89
28.968,15.34
28.984,15.13
29.000,16.13
29.015,19.03
29.031,24.03
29.046,30.53
29.062,37.23
29.078,42.63
29.093,45.53
29.109,45.49
29.125,42.78
29.140,38.1
29.156,32.12
29.171,25.46
29.187,18.75
29.203,12.75
29.218,8.45
29.234,6.64
29.250,7.6
29.265,10.7
29.281,14.55
29.296,17.44
29.312,18.02
29.328,15.67
29.343,10.6
29.359,3.57
29.375,-4.59
29.390,-13.14
29.406,-21.5
29.421,-29.06
29.437,-35.12
29.453,-39.0
29.468,-40.45
29.484,-39.91
29.500,-38.49
29.515,-37.63
29.531,-38.33
29.546,-40.77
29.562,-44.06
29.578,-46.78
29.593,-47.52
29.609,-45.62
29.625,-41.15
29.640,-34.75
29.656,-27.04
29.671,-18.3
29.687,-8.57
29.703,2.09
29.718,13.15
29.734,23.63
29.750,32.35
29.765,38.42
29.781,41.65
29.796,42.49
29.812,41.72
29.828,40.0
29.843,37.76
29.859,35.23
29.875,32.75
29.890,30.9
29.906,30.36
29.921,31.54
29.937,34.24
29.953,37.62
29.968,40.57
29.984,42.16
30.000,41.92
30.015,39.86
30.031,36.31
30.046,31.54
30.062,25.8
30.078,19.41
30.093,12.96
30.109,7.27
30.125,3.18
30.140,1.14
30.156,0.9
30.171,1.55
30.187,1.91
30.203,1.03
30.218,-1.49
30.234,-5.44
30.250,-10.3
30.265,-15.55
30.281,-20.99
30.296,-26.68
30.312,-32.72
30.328,-38.9
30.343,-44.7
30.359,-49.3
30.375,-51.9
30.390,-52.03
30.406,-49.64
30.421,-45.12
30.437,-39.04
30.453,-32.03
30.468,-24.66
30.484,-17.46
30.500,-10.94
30.515,-5.44
30.531,-1.01
30.546,2.69
30.562,6.4
30.578,11.02
30.593,17.2
30.609,24.92
30.625,33.43
30.640,41.41
30.656,47.48
30.671,50.72
30.687,50.95
30.703,48.71
30.718,44.84
30.734,40.19
30.750,35.32
30.765,30.69
30.781,26.79
30.796,24.26
30.812,23.69
30.828,25.27
30.843,28.49
30.859,32.24
30.875,35.07
30.890,35.86
30.906,34.14
30.921,30.21
30.937,24.81
30.953,18.8
30.968,12.79
30.984,7.22
31.000,2.39
31.015,-1.35
31.031,-3.62
31.046,-4.31
31.062,-3.68
31.078,-2.47
31.093,-1.63
31.109,-1.98
31.125,-3.97
31.140,-7.55
31.156,-12.37
31.171,-17.94
31.187,-23.83
31.203,-29.65
31.218,-35.01
31.234,-39.44
31.250,-42.43
31.265,-43.59
31.281,-42.84
31.296,-40.45
31.312,-36.83
31.328,-32.46
31.343,-27.66
31.359,-22.63
31.375,-17.57
31.390,-12.67
31.406,-8.1
31.421,-3.88
31.437,0.26
31.453,4.86
31.468,10.49
31.484,17.4
31.500,25.31
31.515,33.26
31.531,40.06
31.546,44.63
31.562,46.44
31.578,45.61
31.593,42.76
31.609,38.65
31.625,34.01
31.640,29.43
31.656,25.39
31.671,22.4
31.687,20.98
31.703,21.42
31.718,23.63
31.734,26.99
31.750,30.46
31.765,32.99
31.781,33.84
31.796,32.72
31.812,29.92
31.828,25.97
31.843,21.45
31.859,16.78
31.875,12.24
31.890,8.06
31.906,4.55
31.921,2.12
31.937,1.0
31.953,1.18
31.968,2.17
31.984,3.16
32.000,3.29
32.015,1.94
32.031,-1.01
32.046,-5.32
32.062,-10.51
32.078,-16.13
32.093,-21.8
32.109,-27.22
32.125,-32.03
32.140,-35.75
32.156,-38.0
32.171,-38.66
32.187,-37.97
32.203,-36.48
32.218,-34.77
32.234,-33.15
32.250,-31.57
32.265,-29.77
32.281,-27.48
32.296,-24.68
32.312,-21.53
32.328,-18.28
32.343,-14.94
32.359,-11.21
32.375,-6.53
32.390,-0.46
32.406,6.99
32.421,15.27
32.437,23.44
32.453,30.46
32.468,35.61
32.484,38.68
32.500,39.85
32.515,39.54
32.531,38.12
32.546,35.76
32.562,32.66
32.578,29.22
32.593,26.05
32.609,23.94
32.625,23.48
32.640,24.76
32.656,27.26
32.671,30.02
32.687,32.04
32.703,32.62
32.718,31.48
32.734,28.65
32.750,24.34
32.765,18.87
32.781,12.7
32.796,6.54
32.812,1.34
32.828,-1.98
32.843,-2.86
32.859,-1.5
32.875,1.18
32.890,3.89
32.906,5.41
32.921,4.96
32.937,2.32
32.953,-2.26
32.968,-8.2
32.984,-14.71
33.000,-20.86
33.015,-25.77
33.031,-28.73
33.046,-29.58
33.062,-28.81
33.078,-27.38
33.093,-26.39
33.109,-26.55
33.125,-28.04
33.140,-30.47
33.156,-33.18
33.171,-35.41
33.187,-36.49
33.203,-35.81
33.218,-32.87
33.234,-27.48
33.250,-19.87
33.265,-10.84
33.281,-1.44
33.296,7.22
33.312,14.41
33.328,19.74
33.343,23.12
33.359,24.55
33.375,24.16
33.390,22.31
33.406,19.76
33.421,17.59
33.437,16.8
33.453,17.92
33.468,20.7
33.484,24.24
33.500,27.43
33.515,29.5
33.531,30.13
33.546,29.37
33.562,27.36
33.578,24.21
33.593,20.13
33.609,15.64
33.625,11.65
33.640,9.2
33.656,8.94
33.671,10.75
33.687,13.76
33.703,16.65
33.718,18.33
33.734,18.24
33.750,16.39
33.765,13.13
33.781,8.84
33.796,3.87
33.812,-1.27
33.828,-5.85
33.843,-8.99
33.859,-10.09
33.875,-9.08
33.890,-6.67
33.906,-4.05
33.921,-2.42
33.937,-2.5
33.953,-4.37
33.968,-7.7
33.984,-11.98
34.000,-16.91
34.015,-22.31
34.031,-27.93
34.046,-33.23
34.062,-37.41
34.078,-39.71
34.093,-39.74
34.109,-37.65
34.125,-34.05
34.140,-29.71
34.156,-25.25
34.171,-21.0
34.187,-17.13
34.203,-13.75
34.218,-11.01
34.234,-8.94
34.250,-7.24
34.265,-5.25
34.281,-2.19
34.296,2.43
34.312,8.52
34.328,15.32
34.343,21.71
34.359,26.65
34.375,29.57
34.390,30.43
34.406,29.46
34.421,27.03
34.437,23.52
34.453,19.5
34.468,15.77
34.484,13.36
34.500,13.08
34.515,15.16
34.531,19.08
34.546,23.61
34.562,27.41
34.578,29.46
34.593,29.35
34.609,27.2
34.625,23.45
34.640,18.58
34.656,13.14
34.671,7.81
34.687,3.44
34.703,0.92
34.718,0.7
34.734,2.64
34.750,5.88
34.765,9.22
34.781,11.52
34.796,12.17
34.812,11.07
34.828,8.49
34.843,4.87
34.859,0.58
34.875,-4.04
34.890,-8.49
34.906,-12.11
34.921,-14.25
34.937,-14.5
34.953,-13.05
34.968,-10.7
34.984,-8.5
35.000,-7.44
35.015,-8.1
35.031,-10.57
35.046,-14.64
35.062,-19.92
35.078,-25.83
35.093,-31.62
35.109,-36.24
35.125,-38.47
35.140,-37.36
35.156,-32.62
35.171,-24.93
35.187,-15.72
35.203,-6.64
35.218,1.01
35.234,6.64
35.250,10.33
35.265,12.45
35.281,13.34
35.296,13.21
35.312,12.23
35.328,10.85
35.343,9.89
35.359,10.26
35.375,12.53
35.390,16.56
35.406,21.47
35.421,25.96
35.437,29.02
35.453,30.2
35.468,29.66
35.484,27.93
35.500,25.44
35.515,22.34
35.531,18.73
35.546,14.88
35.562,11.46
35.578,9.37
35.593,9.24
35.609,11.08
35.625,14.15
35.640,17.24
35.656,19.26
35.671,19.67
35.687,18.49
35.703,16.12
35.718,12.93
35.734,9.18
35.750,5.08
35.765,1.09
35.781,-2.04
35.796,-3.51
35.812,-2.82
35.828,-0.2
35.843,3.41
35.859,6.68
35.875,8.51
35.890,8.3
35.906,6.12
35.921,2.4
35.937,-2.38
35.953,-7.88
35.968,-13.79
35.984,-19.57
36.000,-24.49
36.015,-27.73
36.031,-28.77
36.046,-27.73
36.062,-25.32
36.078,-22.46
36.093,-19.87
36.109,-17.75
36.125,-15.81
36.140,-13.7
36.156,-11.35
36.171,-9.05
36.187,-7.25
36.203,-6.1
36.218,-5.24
36.234,-3.81
36.250,-0.98
36.265,3.62
36.281,9.49
36.296,15.53
36.312,20.44
36.328,23.29
36.343,23.89
36.359,22.59
36.375,20.02
36.390,16.65
36.406,12.82
36.421,8.86
36.437,5.37
36.453,3.25
36.468,3.33
36.484,5.89
36.500,10.42
36.515,15.67
36.531,20.18
36.546,22.85
36.562,23.23
36.578,21.48
36.593,18.04
36.609,13.42
36.625,8.13
36.640,2.92
36.656,-1.24
36.671,-3.35
36.687,-2.96
36.703,-0.39
36.718,3.22
36.734,6.46
36.750,8.11
36.765,7.64
36.781,5.15
36.796,1.05
36.812,-4.15
36.828,-10.05
36.843,-16.0
36.859,-21.11
36.875,-24.32
36.890,-24.86
36.906,-22.73
36.921,-18.83
36.937,-14.69
36.953,-11.71
36.968,-10.55
36.984,-11.05
37.000,-12.46
37.015,-13.98
37.031,-15.15
37.046,-15.8
37.062,-15.79
37.078,-14.71
37.093,-11.99
37.109,-7.2
37.125,-0.53
37.140,7.12
37.156,14.39
37.171,20.09
37.187,23.55
37.203,24.76
37.218,24.02
37.234,21.68
37.250,18.06
37.265,13.56
37.281,9.01
37.296,5.58
37.312,4.42
37.328,6.11
37.343,10.23
37.359,15.5
37.375,20.34
37.390,23.46
37.406,24.24
37.421,22.72
37.437,19.3
37.453,14.39
37.468,8.51
37.484,2.4
37.500,-2.88
37.515,-6.08
37.531,-6.32
37.546,-3.56
37.562,1.23
37.578,6.43
37.593,10.4
37.609,12.11
37.625,11.36
37.640,8.54
37.656,4.2
37.671,-1.13
37.687,-6.91
37.703,-12.42
37.718,-16.65
37.734,-18.64
37.750,-17.81
37.765,-14.57
37.781,-10.09
37.796,-6.02
37.812,-3.74
37.828,-3.97
37.843,-6.66
37.859,-11.28
37.875,-17.12
37.890,-23.4
37.906,-29.22
37.921,-33.44
37.937,-34.82
37.953,-32.51
37.968,-26.5
37.984,-17.76
38.000,-8.03
38.015,0.86
38.031,7.61
38.046,11.76
38.062,13.48
38.078,13.34
38.093,11.9
38.109,9.72
38.125,7.46
38.140,6.0
38.156,6.17
38.171,8.45
38.187,12.63
38.203,17.73
38.218,22.46
38.234,25.61
38.250,26.63
38.265,25.63
38.281,23.23
38.296,20.21
38.312,17.23
38.328,14.75
38.343,13.08
38.359,12.41
38.375,12.76
38.390,13.89
38.406,15.3
38.421,16.3
38.437,16.31
38.453,15.06
38.468,12.65
38.484,9.48
38.500,6.13
38.515,3.16
38.531,0.94
38.546,-0.34
38.562,-0.83
38.578,-0.99
38.593,-1.41
38.609,-2.63
38.625,-4.93
38.640,-8.12
38.656,-11.67
38.671,-15.02
38.687,-17.71
38.703,-19.66
38.718,-20.99
38.734,-22.02
38.750,-23.01
38.765,-24.27
38.781,-26.01
38.796,-28.38
38.812,-31.25
38.828,-34.08
38.843,-35.93
38.859,-35.78
38.875,-33.02
38.890,-27.72
38.906,-20.69
38.921,-13.15
38.937,-6.29
38.953,-0.85
38.968,2.9
38.984,5.14
39.000,6.28
39.015,6.91
39.031,7.64
39.046,9.05
39.062,11.46
39.078,14.81
39.093,18.65
39.109,22.26
39.125,24.86
39.140,25.92
39.156,25.2
39.171,22.82
39.187,19.22
39.203,15.11
39.218,11.38
39.234,8.88
39.250,8.24
39.265,9.49
39.281,12.06
39.296,14.97
39.312,17.13
39.328,17.67
39.343,16.16
39.359,12.65
39.375,7.58
39.390,1.76
39.406,-3.83
39.421,-8.16
39.437,-10.52
39.453,-10.68
39.468,-9.12
39.484,-6.78
39.500,-4.76
39.515,-3.97
39.531,-4.92
39.546,-7.7
39.562,-12.14
39.578,-17.75
39.593,-23.74
39.609,-29.08
39.625,-32.71
39.640,-33.97
39.656,-32.9
39.671,-30.19
39.687,-26.84
39.703,-23.77
39.718,-21.37
39.734,-19.63
39.750,-18.35
39.765,-17.3
39.781,-16.33
39.796,-15.13
39.812,-13.2
39.828,-9.94
39.843,-5.01
39.859,1.37
39.875,8.32
39.890,14.74
39.906,19.72
39.921,22.81
39.937,23.98
39.953,23.35
39.968,21.07
39.984,17.44
40.000,13.18
40.015,9.47
40.031,7.67
40.046,8.67
40.062,12.31
40.078,17.38
40.093,22.08
40.109,24.88
40.125,25.05
40.140,22.68
40.156,18.33
40.171,12.68
40.187,6.33
40.203,-0.01
40.218,-5.33
40.234,-8.52
40.250,-8.86
40.265,-6.47
40.281,-2.58
40.296,1.05
40.312,2.82
40.328,1.84
40.343,-1.82
40.359,-7.49
40.375,-14.22
40.390,-21.07
40.406,-27.08
40.421,-31.36
40.437,-33.15
40.453,-32.16
40.468,-28.8
40.484,-24.09
40.500,-19.29
40.515,-15.35
40.531,-12.62
40.546,-11.0
40.562,-10.24
40.578,-10.2
40.593,-10.81
40.609,-11.7
40.625,-12.01
40.640,-10.54
40.656,-6.4
40.671,0.48
40.687,9.04
40.703,17.48
40.718,24.08
40.734,27.84
40.750,28.64
40.765,27.0
40.781,23.52
40.796,18.6
40.812,12.7
40.828,6.62
40.843,1.66
40.859,-0.76
40.875,0.22
40.890,4.28
40.906,9.94
40.921,15.11
40.937,18.03
40.953,17.95
40.968,15.11
40.984,10.33
41.000,4.33
41.015,-2.43
41.031,-9.58
41.046,-16.3
41.062,-21.31
41.078,-23.2
41.093,-21.27
41.109,-16.15
41.125,-9.76
41.140,-4.59
41.156,-2.58
41.171,-4.47
41.187,-9.63
41.203,-16.69
41.218,-24.3
41.234,-31.49
41.250,-37.55
41.265,-41.7
41.281,-42.84
41.296,-39.95
41.312,-32.68
41.328,-21.88
41.343,-9.52
41.359,1.95
41.375,10.61
41.390,15.73
41.406,17.71
41.421,17.49
41.437,15.93
41.453,13.46
41.468,10.27
41.484,6.83
41.500,4.12
41.515,3.35
41.531,5.29
41.546,9.72
41.562,15.28
41.578,20.12
41.593,22.68
41.609,22.32
41.625,19.3
41.640,14.46
41.656,8.64
41.671,2.45
41.687,-3.57
41.703,-8.67
41.718,-11.78
41.734,-11.95
41.750,-8.92
41.765,-3.46
41.781,2.69
41.796,7.52
41.812,9.54
41.828,8.27
41.843,4.15
41.859,-1.91
41.875,-9.03
41.890,-16.56
41.906,-23.9
41.921,-30.22
41.937,-34.47
41.953,-35.67
41.968,-33.49
41.984,-28.6
42.000,-22.59
42.015,-17.29
42.031,-13.98
42.046,-12.88
42.062,-13.25
42.078,-13.9
42.093,-13.91
42.109,-12.97
42.125,-11.28
42.140,-9.08
42.156,-6.21
42.171,-2.03
42.187,4.0
42.203,11.87
42.218,20.56
42.234,28.29
42.250,33.18
42.265,34.14
42.281,31.24
42.296,25.61
42.312,18.84
42.328,12.29
42.343,6.84
42.359,3.0
42.375,1.17
42.390,1.77
42.406,5.04
42.421,10.71
42.437,17.71
42.453,24.37
42.468,29.01
42.484,30.54
42.500,28.78
42.515,24.34
42.531,18.2
42.546,11.45
42.562,5.08
42.578,0.1
42.593,-2.44
42.609,-1.74
42.625,2.36
42.640,8.97
42.656,16.41
42.671,22.63
42.687,26.1
42.703,26.1
42.718,22.87
42.734,17.2
42.750,10.06
42.765,2.39
42.781,-4.82
42.796,-10.33
42.812,-12.91
42.828,-11.7
42.843,-6.88
42.859,0.26
42.875,7.68
42.890,13.39
42.906,16.18
42.921,15.8
42.937,12.8
42.953,7.88
42.968,1.81
42.984,-4.74
43.000,-10.81
43.015,-15.12
43.031,-16.46
43.046,-14.21
43.062,-8.92
43.078,-2.16
43.093,4.02
43.109,8.02
43.125,9.12
43.140,7.5
43.156,3.88
43.171,-1.08
43.187,-6.76
43.203,-12.46
43.218,-17.18
43.234,-19.75
43.250,-19.3
43.265,-15.83
43.281,-10.43
43.296,-4.89
43.312,-1.02
43.328,0.12
43.343,-1.59
43.359,-5.61
43.375,-11.23
43.390,-17.85
43.406,-24.88
43.421,-31.44
43.437,-36.31
43.453,-38.27
43.468,-36.71
43.484,-32.09
43.500,-25.93
43.515,-20.2
43.531,-16.45
43.546,-15.16
43.562,-15.85
43.578,-17.5
43.593,-19.2
43.609,-20.44
43.625,-20.92
43.640,-20.28
43.656,-17.91
43.671,-13.22
43.687,-6.12
43.703,2.7
43.718,11.76
43.734,19.46
43.750,24.54
43.765,26.51
43.781,25.58
43.796,22.32
43.812,17.33
43.828,11.3
43.843,5.13
43.859,0.07
43.875,-2.49
43.890,-1.61
43.906,2.71
43.921,9.31
43.937,16.3
43.953,21.76
43.968,24.51
43.984,24.29
44.000,21.51
44.015,16.81
44.031,10.73
44.046,3.78
44.062,-3.17
44.078,-8.85
44.093,-11.85
44.109,-11.23
44.125,-7.2
44.140,-1.16
44.156,4.78
44.171,8.68
44.187,9.45
44.203,7.09
44.218,2.26
44.234,-4.23
44.250,-11.62
44.265,-19.28
44.281,-26.29
44.296,-31.42
44.312,-33.44
44.328,-31.71
44.343,-26.73
44.359,-20.15
44.375,-14.21
44.390,-10.88
44.406,-11.13
44.421,-14.82
44.437,-20.98
44.453,-28.29
44.468,-35.53
44.484,-41.53
44.500,-45.18
44.515,-45.43
44.531,-41.6
44.546,-33.86
44.562,-23.39
44.578,-12.13
44.593,-2.17
44.609,5.06
44.625,9.15
44.640,10.6
44.656,10.25
44.671,8.77
44.687,6.56
44.703,3.95
44.718,1.57
44.734,0.38
44.750,1.32
44.765,4.69
44.781,9.83
44.796,15.27
44.812,19.37
44.828,21.01
44.843,20.02
44.859,16.91
44.875,12.46
44.890,7.3
44.906,1.95
44.921,-2.96
44.937,-6.53
44.953,-7.75
44.968,-6.04
44.984,-1.8
45.000,3.57
45.015,8.12
45.031,10.24
45.046,9.21
45.062,5.33
45.078,-0.44
45.093,-7.13
45.109,-13.99
45.125,-20.39
45.140,-25.6
45.156,-28.72
45.171,-29.05
45.187,-26.54
45.203,-22.12
45.218,-17.39
45.234,-13.94
45.250,-12.66
45.265,-13.52
45.281,-15.76
45.296,-18.5
45.312,-21.12
45.328,-23.22
45.343,-24.4
45.359,-23.97
45.375,-21.12
45.390,-15.4
45.406,-7.16
45.421,2.31
45.437,11.25
45.453,18.01
45.468,21.71
45.484,22.24
45.500,20.0
45.515,15.7
45.531,10.19
45.546,4.57
45.562,0.21
45.578,-1.52
45.593,0.22
45.609,5.17
45.625,11.96
45.640,18.56
45.656,23.09
45.671,24.62
45.687,23.27
45.703,19.8
45.718,15.02
45.734,9.46
45.750,3.5
45.765,-2.17
45.781,-6.45
45.796,-8.02
45.812,-6.12
45.828,-1.13
45.843,5.29
45.859,10.84
45.875,13.59
45.890,12.65
45.906,8.35
45.921,1.68
45.937,-6.29
45.953,-14.84
45.968,-23.35
45.984,-30.95
46.000,-36.37
46.015,-38.26
46.031,-35.89
46.046,-29.7
46.062,-21.17
46.078,-12.27
46.093,-4.7
46.109,0.69
46.125,3.83
46.140,5.09
46.156,4.97
46.171,3.95
46.187,2.75
46.203,2.38
46.218,3.89
46.234,7.92
46.250,14.21
46.265,21.6
46.281,28.43
46.296,33.2
46.312,35.09
46.328,34.02
46.343,30.54
46.359,25.41
46.375,19.59
46.390,14.08
46.406,9.97
46.421,8.12
46.437,8.81
46.453,11.55
46.468,15.15
46.484,18.22
46.500,19.67
46.515,19.01
46.531,16.28
46.546,11.77
46.562,5.81
46.578,-1.1
46.593,-8.17
46.609,-14.26
46.625,-18.12
46.640,-19.02
46.656,-17.15
46.671,-13.69
46.687,-10.29
46.703,-8.35
46.718,-8.54
46.734,-10.76
46.750,-14.52
46.765,-19.38
46.781,-24.91
46.796,-30.55
46.812,-35.27
46.828,-37.66
46.843,-36.41
46.859,-31.07
46.875,-22.36
46.890,-11.98
46.906,-1.91
46.921,6.4
46.937,12.4
46.953,16.22
46.968,18.24
46.984,18.72
47.000,17.9
47.015,16.29
47.031,14.89
47.046,14.97
47.062,17.46
47.078,22.29
47.093,28.35
47.109,33.88
47.125,37.32
47.140,37.94
47.156,35.97
47.171,32.17
47.187,27.34
47.203,22.01
47.218,16.65
47.234,12.0
47.250,9.11
47.265,9.0
47.281,11.99
47.296,17.21
47.312,22.81
47.328,26.62
47.343,27.17
47.359,24.17
47.375,18.4
47.390,11.03
47.406,3.0
47.421,-5.19
47.437,-13.16
47.453,-20.16
47.468,-24.94
47.484,-26.17
47.500,-23.33
47.515,-17.19
47.531,-9.81
47.546,-3.76
47.562,-0.96
47.578,-2.11
47.593,-6.67
47.609,-13.52
47.625,-21.64
47.640,-30.43
47.656,-39.32
47.671,-47.35
47.687,-52.94
47.703,-54.25
47.718,-50.19
47.734,-41.12
47.750,-28.95
47.765,-16.44
47.781,-6.05
47.796,0.91
47.812,4.43
47.828,5.37
47.843,4.75
47.859,3.34
47.875,1.81
47.890,0.99
47.906,1.92
47.921,5.53
47.937,11.99
47.953,20.27
47.968,28.43
47.984,34.4
48.000,36.82
48.015,35.49
48.031,31.2
48.046,25.07
48.062,18.06
48.078,10.83
48.093,4.06
48.109,-1.22
48.125,-3.84
48.140,-2.99
48.156,1.17
48.171,7.32
48.187,13.39
48.203,17.43
48.218,18.4
48.234,16.27
48.250,11.73
48.265,5.53
48.281,-1.78
48.296,-9.72
48.312,-17.44
48.328,-23.62
48.343,-26.88
48.359,-26.35
48.375,-22.35
48.390,-16.41
48.406,-10.62
48.421,-6.75
48.437,-5.68
48.453,-7.32
48.468,-11.08
48.484,-16.4
48.500,-22.8
48.515,-29.67
48.531,-35.92
48.546,-40.07
48.562,-40.66
48.578,-37.07
48.593,-29.89
48.609,-20.78
48.625,-11.72
48.640,-4.22
48.656,1.06
48.671,4.26
48.687,5.79
48.703,6.0
48.718,5.25
48.734,4.15
48.750,3.8
48.765,5.49
48.781,10.15
48.796,17.56
48.812,26.38
48.828,34.56
48.843,40.2
48.859,42.3
48.875,40.87
48.890,36.59
48.906,30.29
48.921,22.76
48.937,14.85
48.953,7.78
48.968,3.07
48.984,2.0
49.000,4.87
49.015,10.62
49.031,17.15
49.046,22.14
49.062,24.09
49.078,22.7
49.093,18.63
49.109,12.91
49.125,6.33
49.140,-0.52
49.156,-6.96
49.171,-11.95
49.187,-14.2
49.203,-12.92
49.218,-8.33
49.234,-1.9
49.250,4.26
49.265,8.19
49.281,8.94
49.296,6.55
49.312,1.66
49.328,-5.08
49.343,-13.26
49.359,-22.42
49.375,-31.62
49.390,-39.26
49.406,-43.49
49.421,-42.96
49.437,-37.58
49.453,-28.57
49.468,-17.99
49.484,-7.82
49.500,0.59
49.515,6.7
49.531,10.44
49.546,11.96
49.562,11.52
49.578,9.79
49.593,7.93
49.609,7.48
49.625,9.71
49.640,14.95
49.656,22.26
49.671,29.75
49.687,35.42
49.703,37.94
49.718,37.1
49.734,33.46
49.750,27.97
49.765,21.44
49.781,14.56
49.796,8.19
49.812,3.47
49.828,1.64
49.843,3.43
49.859,8.52
49.875,15.44
49.890,22.02
49.906,26.29
49.921,27.14
49.937,24.53
49.953,19.21
49.968,12.15
49.984,4.31
50.000,-3.39
50.015,-9.93
50.031,-14.2
50.046,-15.41
50.062,-13.57
50.078,-9.64
50.093,-5.34
50.109,-2.41
50.125,-1.96
50.140,-4.18
50.156,-8.53
50.171,-14.27
50.187,-20.82
50.203,-27.68
50.218,-34.19
50.234,-39.32
50.250,-41.9
50.265,-41.13
50.281,-37.19
50.296,-31.25
50.312,-25.01
50.328,-19.93
50.343,-16.65
50.359,-14.88
50.375,-14.0
50.390,-13.46
50.406,-13.11
50.421,-12.88
50.437,-12.34
50.453,-10.58
50.468,-6.54
50.484,0.21
50.500,9.03
50.515,18.2
50.531,25.71
50.546,30.1
50.562,30.93
50.578,28.75
50.593,24.48
50.609,18.94
50.625,12.72
50.640,6.55
50.656,1.53
50.671,-0.94
50.687,0.16
50.703,4.82
50.718,11.71
50.734,18.68
50.750,23.61
50.765,25.32
50.781,23.76
50.796,19.63
50.812,13.8
50.828,6.92
50.843,-0.44
50.859,-7.41
50.875,-12.71
50.890,-14.97
50.906,-13.43
50.921,-8.57
50.937,-2.01
50.953,4.04
50.968,7.78
50.984,8.42
51.000,6.23
51.015,1.94
51.031,-3.69
51.046,-10.13
51.062,-16.87
51.078,-23.04
51.093,-27.44
51.109,-29.01
51.125,-27.44
51.140,-23.54
51.156,-19.12
51.171,-16.13
51.187,-15.92
51.203,-18.74
51.218,-23.9
51.234,-30.17
51.250,-36.34
51.265,-41.34
51.281,-44.16
51.296,-43.9
51.312,-39.79
51.328,-31.72
51.343,-20.49
51.359,-7.73
51.375,4.53
51.390,14.6
51.406,21.52
51.421,25.17
51.437,25.85
51.453,24.02
51.468,20.1
51.484,14.74
51.500,9.07
51.515,4.62
51.531,2.91
51.546,4.69
51.562,9.57
51.578,16.0
51.593,22.0
51.609,25.91
51.625,26.95
51.640,25.33
51.656,21.7
51.671,16.75
51.687,11.07
51.703,5.26
51.718,0.2
51.734,-2.94
51.750,-3.18
51.765,-0.32
51.781,4.77
51.796,10.33
51.812,14.42
51.828,15.78
51.843,14.11
51.859,9.96
51.875,4.19
51.890,-2.41
51.906,-9.25
51.921,-15.6
51.937,-20.5
51.953,-22.9
51.968,-22.16
51.984,-18.51
52.000,-13.23
52.015,-8.21
52.031,-5.22
52.046,-5.27
52.062,-8.42
52.078,-13.94
52.093,-20.73
52.109,-27.59
52.125,-33.3
52.140,-36.7
52.156,-36.77
52.171,-33.02
52.187,-25.71
52.203,-15.98
52.218,-5.48
52.234,4.16
52.250,11.77
52.265,16.82
52.281,19.28
52.296,19.52
52.312,18.07
52.328,15.78
52.343,13.66
52.359,12.77
52.375,13.8
52.390,16.74
52.406,20.82
52.421,24.78
52.437,27.41
52.453,28.05
52.468,26.68
52.484,23.68
52.500,19.57
52.515,14.84
52.531,9.99
52.546,5.74
52.562,2.98
52.578,2.43
52.593,4.28
52.609,7.93
52.625,12.05
52.640,15.17
52.656,16.28
52.671,15.02
52.687,11.65
52.703,6.7
52.718,0.75
52.734,-5.59
52.750,-11.49
52.765,-15.87
52.781,-17.76
52.796,-16.66
52.812,-13.14
52.828,-8.64
52.843,-4.99
52.859,-3.59
52.875,-4.97
52.890,-8.77
52.906,-14.25
52.921,-20.75
52.937,-27.84
52.953,-35.1
52.968,-41.72
52.984,-46.55
53.000,-48.35
53.015,-46.53
53.031,-41.43
53.046,-34.32
53.062,-26.85
53.078,-20.45
53.093,-15.94
53.109,-13.4
53.125,-12.51
53.140,-12.72
53.156,-13.38
53.171,-13.69
53.187,-12.89
53.203,-10.35
53.218,-5.91
53.234,-0.05
53.250,6.17
53.265,11.48
53.281,14.87
53.296,15.97
53.312,15.33
53.328,14.2
53.343,14.23
53.359,16.87
53.375,22.81
53.390,31.81
53.406,42.79
53.421,54.38
53.437,65.53
53.453,75.85
53.468,85.61
53.484,95.28
53.500,105.06
53.515,114.6
53.531,123.11
53.546,129.87
53.562,134.52
53.578,137.38
53.593,139.31
53.609,141.37
53.625,144.51
53.640,149.27
53.656,155.65
53.671,163.08
53.687,170.58
53.703,177.12
53.718,182.08
53.734,185.6
53.750,188.64
53.765,192.62
53.781,198.84
53.796,207.86
53.812,219.2
53.828,231.42
53.843,242.49
53.859,250.39
53.875,253.53
53.890,251.3
53.906,244.29
53.921,234.12
53.937,222.93
53.953,212.52
53.968,203.55
53.984,195.17
54.000,185.3
54.015,171.64
54.031,152.78
54.046,129.02
54.062,102.35
54.078,75.55
54.093,51.2
54.109,30.96
54.125,15.38
54.140,4.24
54.156,-2.9
54.171,-6.39
54.187,-6.36
54.203,-3.08
54.218,2.66
54.234,9.33
54.250,14.79
54.265,16.66
54.281,12.97
54.296,2.55
54.312,-14.81
54.328,-38.73
54.343,-68.61
54.359,-103.62
54.375,-142.11
54.390,-180.93
54.406,-215.47
54.421,-240.55
54.437,-252.55
54.453,-251.4
54.468,-241.02
54.484,-228.21
54.500,-219.93
54.515,-220.67
54.531,-231.25
54.546,-249.72
54.562,-273.1
54.578,-299.18
54.593,-326.92
54.609,-355.34
54.625,-382.32
54.640,-404.17
54.656,-416.68
54.671,-417.14
54.687,-405.97
54.703,-386.68
54.718,-364.46
54.734,-343.82
54.750,-326.71
54.765,-312.2
54.781,-297.55
54.796,-280.05
54.812,-258.63
54.828,-234.26
54.843,-209.18
54.859,-185.72
54.875,-165.22
54.890,-147.66
54.906,-132.18
54.921,-117.68
54.937,-103.48
54.953,-89.64
54.968,-76.66
54.984,-65.08
55.000,-55.11
55.015,-46.58
55.031,-38.94
55.046,-31.73
55.062,-24.66
55.078,-17.7
55.093,-11.06
55.109,-4.99
55.125,0.46
55.140,5.3
55.156,9.66
55.171,13.73
55.187,17.53
55.203,21.07
55.218,24.26
55.234,26.95
55.250,29.07
55.265,30.71
55.281,32.01
55.296,33.2
55.312,34.56
55.328,36.23
55.343,38.24
55.359,40.47
55.375,42.75
55.390,44.94
55.406,47.02
55.421,49.12
55.437,51.33
55.453,53.67
55.468,55.93
55.484,57.79
55.500,58.99
55.515,59.52
55.531,59.84
55.546,60.76
55.562,63.33
55.578,68.39
55.593,76.38
55.609,87.13
55.625,100.06
55.640,114.33
55.656,129.11
55.671,143.65
55.687,157.23
55.703,169.17
55.718,178.87
55.734,185.93
55.750,190.11
55.765,191.46
55.781,189.94
55.796,185.31
55.812,177.04
55.828,164.3
55.843,146.39
55.859,123.11
55.875,95.04
55.890,63.44
55.906,30.11
55.921,-2.87
55.937,-33.29
55.953,-58.87
55.968,-77.36
55.984,-86.83
56.000,-86.12
56.015,-75.43
56.031,-56.52
56.046,-32.49
56.062,-6.93
56.078,16.99
56.093,37.31
56.109,53.42
56.125,65.75
56.140,75.16
56.156,82.31
56.171,87.54
56.187,90.93
56.203,92.63
56.218,92.97
56.234,92.52
56.250,91.71
56.265,90.86
56.281,90.01
56.296,89.08
56.312,87.77
56.328,85.3
56.343,80.1
56.359,70.12
56.375,53.26
56.390,28.08
56.406,-5.33
56.421,-45.38
56.437,-89.57
56.453,-135.59
56.468,-181.99
56.484,-227.68
56.500,-270.75
56.515,-307.47
56.531,-332.9
56.546,-342.62
56.562,-335.3
56.578,-313.87
56.593,-284.67
56.609,-254.74
56.625,-228.89
56.640,-208.07
56.656,-190.03
56.671,-171.71
56.687,-151.54
56.703,-130.6
56.718,-111.75
56.734,-97.64
56.750,-89.09
56.765,-84.57
56.781,-81.13
56.796,-75.87
56.812,-67.19
56.828,-55.17
56.843,-41.45
56.859,-28.21
56.875,-17.08
56.890,-8.64
56.906,-2.34
56.921,2.84
56.937,7.75
56.953,12.5
56.968,16.46
56.984,18.77
57.000,18.94
57.015,17.26
57.031,14.59
57.046,12.1
57.062,10.6
57.078,10.29
57.093,10.72
57.109,11.11
57.125,10.72
57.140,9.11
57.156,6.26
57.171,2.36
57.187,-2.34
57.203,-7.69
57.218,-13.58
57.234,-19.78
57.250,-25.8
57.265,-30.81
57.281,-33.8
57.296,-33.86
57.312,-30.44
57.328,-23.58
57.343,-13.9
57.359,-2.41
57.375,9.79
57.390,21.74
57.406,32.75
57.421,42.43
57.437,50.65
57.453,57.47
57.468,63.04
57.484,67.54
57.500,71.1
57.515,73.78
57.531,75.6
57.546,76.58
57.562,76.82
57.578,76.5
57.593,75.84
57.609,75.02
57.625,74.12
57.640,73.18
57.656,72.2
57.671,71.13
57.687,69.86
57.703,68.17
57.718,65.78
57.734,62.44
57.750,58.13
57.765,53.0
57.781,47.34
57.796,41.35
57.812,35.17
57.828,28.79
57.843,22.25
57.859,15.66
57.875,9.22
57.890,3.24
57.906,-2.08
57.921,-6.63
57.937,-10.41
57.953,-13.47
57.968,-15.97
57.984,-18.25
58.000,-20.79
58.015,-24.17
58.031,-28.73
58.046,-34.35
58.062,-40.32
58.078,-45.43
58.093,-48.33
58.109,-47.87
58.125,-43.53
58.140,-35.46
58.156,-24.57
58.171,-12.18
58.187,0.27
58.203,11.6
58.218,21.19
58.234,29.0
58.250,35.41
58.265,40.89
58.281,45.72
58.296,49.88
58.312,53.15
58.328,55.39
58.343,56.63
58.359,57.08
58.375,57.0
58.390,56.5
58.406,55.63
58.421,54.37
58.437,52.82
58.453,51.18
58.468,49.68
58.484,48.38
58.500,47.21
58.515,45.94
58.531,44.36
58.546,42.34
58.562,39.84
58.578,36.79
58.593,33.14
58.609,28.93
58.625,24.35
58.640,19.74
58.656,15.37
58.671,11.29
58.687,7.28
58.703,3.08
58.718,-1.43
58.734,-6.01
58.750,-10.2
58.765,-13.61
58.781,-16.32
58.796,-18.82
58.812,-21.87
58.828,-26.08
58.843,-31.55
58.859,-37.93
58.875,-44.44
58.890,-50.2
58.906,-54.24
58.921,-55.68
58.937,-53.79
58.953,-48.22
58.968,-39.23
58.984,-27.78
59.000,-15.36
59.015,-3.48
59.031,6.83
59.046,15.2
59.062,21.94
59.078,27.6
59.093,32.62
59.109,37.17
59.125,41.16
59.140,44.49
59.156,47.13
59.171,49.09
59.187,50.34
59.203,50.67
59.218,49.95
59.234,48.2
59.250,45.8
59.265,43.36
59.281,41.42
59.296,40.24
59.312,39.69
59.328,39.41
59.343,39.04
59.359,38.38
59.375,37.36
59.390,35.84
59.406,33.56
59.421,30.22
59.437,25.74
59.453,20.42
59.468,15.0
59.484,10.29
59.500,6.76
59.515,4.31
59.531,2.39
59.546,0.38
59.562,-2.04
59.578,-4.79
59.593,-7.65
59.609,-10.45
59.625,-13.33
59.640,-16.62
59.656,-20.6
59.671,-25.21
59.687,-30.1
59.703,-34.88
59.718,-39.27
59.734,-43.15
59.750,-46.29
59.765,-48.13
59.781,-47.84
59.796,-44.65
59.812,-38.35
59.828,-29.56
59.843,-19.6
59.859,-9.96
59.875,-1.68
59.890,4.95
59.906,10.27
59.921,14.89
59.937,19.25
59.953,23.41
59.968,27.12
59.984,30.05
