timestamp,value
00.000,-66.66
00.015,-76.31
00.031,-83.13
00.046,-85.84
00.062,-84.07
00.078,-78.51
00.093,-70.61
00.109,-62.23
00.125,-55.25
00.140,-51.26
00.156,-51.37
00.171,-55.98
00.187,-64.5
00.203,-75.22
00.218,-85.4
00.234,-91.88
00.250,-91.98
00.265,-84.48
00.281,-70.03
00.296,-51.0
00.312,-30.61
00.328,-11.86
00.343,3.28
00.359,14.1
00.375,20.88
00.390,24.45
00.406,25.68
00.421,25.33
00.437,24.09
00.453,22.48
00.468,20.86
00.484,19.24
00.500,17.33
00.515,14.65
00.531,10.95
00.546,6.32
00.562,1.34
00.578,-3.24
00.593,-6.77
00.609,-9.03
00.625,-10.29
00.640,-11.14
00.656,-12.32
00.671,-14.47
00.687,-18.06
00.703,-23.38
00.718,-30.43
00.734,-38.82
00.750,-47.49
00.765,-54.68
00.781,-58.19
00.796,-56.06
00.812,-47.31
00.828,-32.41
00.843,-13.29
00.859,7.31
00.875,26.74
00.890,43.14
00.906,55.8
00.921,64.87
00.937,70.88
00.953,74.34
00.968,75.65
00.984,75.21
01.000,73.53
01.015,71.22
01.031,68.79
01.046,66.4
01.062,63.84
01.078,60.63
01.093,56.37
01.109,51.01
01.125,44.87
01.140,38.61
01.156,32.9
01.171,28.13
01.187,24.32
01.203,21.11
01.218,17.92
01.234,14.16
01.250,9.37
01.265,3.41
01.281,-3.51
01.296,-10.7
01.312,-17.13
01.328,-21.53
01.343,-22.75
01.359,-20.19
01.375,-13.94
01.390,-4.91
01.406,5.45
01.421,15.62
01.437,24.34
01.453,30.88
01.468,34.98
01.484,36.69
01.500,36.2
01.515,33.83
01.531,29.98
01.546,25.27
01.562,20.4
01.578,16.1
01.593,12.85
01.609,10.88
01.625,10.06
01.640,10.0
01.656,10.23
01.671,10.23
01.687,9.62
01.703,8.12
01.718,5.6
01.734,1.96
01.750,-2.86
01.765,-8.95
01.781,-16.43
01.796,-25.23
01.812,-34.86
01.828,-44.24
01.843,-51.75
01.859,-55.59
01.875,-54.37
01.890,-47.59
01.906,-35.88
01.921,-20.85
01.937,-4.5
01.953,11.24
01.968,24.94
01.984,35.76
02.000,43.29
02.015,47.49
02.031,48.58
02.046,47.09
02.062,43.83
02.078,39.76
02.093,35.75
02.109,32.26
02.125,29.42
02.140,26.96
02.156,24.57
02.171,22.06
02.187,19.46
02.203,17.0
02.218,14.93
02.234,13.32
02.250,12.09
02.265,10.99
02.281,9.63
02.296,7.67
02.312,4.78
02.328,0.8
02.343,-4.18
02.359,-9.58
02.375,-14.27
02.390,-16.63
02.406,-15.03
02.421,-8.25
02.437,3.94
02.453,20.62
02.468,39.94
02.484,59.6
02.500,77.33
02.515,91.22
02.531,99.84
02.546,102.33
02.562,98.55
02.578,89.3
02.593,76.35
02.609,62.13
02.625,49.0
02.640,38.37
02.656,30.35
02.671,23.92
02.687,17.69
02.703,10.81
02.718,3.54
02.734,-2.9
02.750,-6.97
02.765,-7.63
02.781,-4.94
02.796,-0.27
02.812,3.79
02.828,3.92
02.843,-3.1
02.859,-19.42
02.875,-45.17
02.890,-77.9
02.906,-112.98
02.921,-144.67
02.937,-167.82
02.953,-179.29
02.968,-178.68
02.984,-168.01
03.000,-150.73
03.015,-130.4
03.031,-109.92
03.046,-91.07
03.062,-74.81
03.078,-61.57
03.093,-51.57
03.109,-44.84
03.125,-41.14
03.140,-39.79
03.156,-39.66
03.171,-39.38
03.187,-37.79
03.203,-34.39
03.218,-29.51
03.234,-24.17
03.250,-19.56
03.265,-16.46
03.281,-14.96
03.296,-14.44
03.312,-14.06
03.328,-13.33
03.343,-12.46
03.359,-12.37
03.375,-14.38
03.390,-19.6
03.406,-28.27
03.421,-39.41
03.437,-50.84
03.453,-59.7
03.468,-63.28
03.484,-59.88
03.500,-49.36
03.515,-33.05
03.531,-13.35
03.546,7.17
03.562,26.36
03.578,42.79
03.593,55.69
03.609,64.74
03.625,69.84
03.640,71.22
03.656,69.44
03.671,65.43
03.687,60.38
03.703,55.42
03.718,51.29
03.734,48.2
03.750,45.92
03.765,44.1
03.781,42.5
03.796,41.17
03.812,40.35
03.828,40.22
03.843,40.74
03.859,41.48
03.875,41.76
03.890,40.89
03.906,38.29
03.921,33.84
03.937,27.92
03.953,21.51
03.968,16.03
03.984,13.09
04.000,14.01
04.015,19.21
04.031,27.97
04.046,38.38
04.062,47.95
04.078,54.45
04.093,56.61
04.109,54.4
04.125,48.75
04.140,40.86
04.156,31.7
04.171,21.72
04.187,11.04
04.203,-0.14
04.218,-11.45
04.234,-22.3
04.250,-32.31
04.265,-41.47
04.281,-50.18
04.296,-58.89
04.312,-67.73
04.328,-76.33
04.343,-83.93
04.359,-89.85
04.375,-93.79
04.390,-95.98
04.406,-97.14
04.421,-98.15
04.437,-99.85
04.453,-102.68
04.468,-106.7
04.484,-111.39
04.500,-115.67
04.515,-117.86
04.531,-116.1
04.546,-108.71
04.562,-94.91
04.578,-75.08
04.593,-50.77
04.609,-24.24
04.625,2.14
04.640,26.37
04.656,47.05
04.671,63.26
04.687,74.44
04.703,80.28
04.718,80.9
04.734,76.96
04.750,69.75
04.765,61.07
04.781,52.69
04.796,45.98
04.812,41.41
04.828,38.64
04.843,36.79
04.859,34.92
04.875,32.45
04.890,29.31
04.906,25.85
04.921,22.48
04.937,19.4
04.953,16.41
04.968,13.1
04.984,8.9
05.000,3.39
05.015,-3.62
05.031,-12.01
05.046,-21.36
05.062,-30.9
05.078,-39.43
05.093,-45.53
05.109,-47.81
05.125,-45.28
05.140,-37.8
05.156,-26.11
05.171,-11.73
05.187,3.54
05.203,18.02
05.218,30.51
05.234,40.26
05.250,46.88
05.265,50.19
05.281,50.19
05.296,47.26
05.312,42.14
05.328,35.93
05.343,29.8
05.359,24.66
05.375,20.84
05.390,18.09
05.406,15.8
05.421,13.38
05.437,10.54
05.453,7.43
05.468,4.47
05.484,2.07
05.500,0.43
05.515,-0.67
05.531,-1.81
05.546,-3.73
05.562,-7.25
05.578,-12.98
05.593,-21.21
05.609,-31.62
05.625,-43.18
05.640,-54.15
05.656,-62.27
05.671,-65.42
05.687,-62.16
05.703,-52.31
05.718,-37.1
05.734,-18.72
05.750,0.31
05.765,17.8
05.781,32.41
05.796,43.53
05.812,51.07
05.828,55.14
05.843,55.91
05.859,53.74
05.875,49.3
05.890,43.63
05.906,37.87
05.921,32.97
05.937,29.35
05.953,26.83
05.968,24.77
05.984,22.49
06.000,19.57
06.015,16.14
06.031,12.79
06.046,10.37
06.062,9.52
06.078,10.26
06.093,11.78
06.109,12.55
06.125,10.7
06.140,4.62
06.156,-6.43
06.171,-21.93
06.187,-40.06
06.203,-58.08
06.218,-72.93
06.234,-82.05
06.250,-83.92
06.265,-78.41
06.281,-66.67
06.296,-50.8
06.312,-33.16
06.328,-15.93
06.343,-0.75
06.359,11.43
06.375,20.25
06.390,25.74
06.406,28.26
06.421,28.34
06.437,26.66
06.453,23.95
06.468,20.85
06.484,17.91
06.500,15.44
06.515,13.49
06.531,11.84
06.546,10.09
06.562,7.86
06.578,4.86
06.593,1.18
06.609,-2.77
06.625,-6.46
06.640,-9.5
06.656,-11.92
06.671,-14.1
06.687,-16.68
06.703,-20.22
06.718,-25.0
06.734,-31.07
06.750,-38.26
06.765,-46.27
06.781,-54.58
06.796,-62.2
06.812,-67.64
06.828,-69.16
06.843,-65.29
06.859,-55.5
06.875,-40.49
06.890,-22.05
06.906,-2.47
06.921,16.19
06.937,32.56
06.953,46.04
06.968,56.41
06.984,63.59
07.000,67.43
07.015,67.86
07.031,65.11
07.046,59.93
07.062,53.54
07.078,47.29
07.093,42.28
07.109,39.04
07.125,37.46
07.140,36.95
07.156,36.69
07.171,35.95
07.187,34.29
07.203,31.55
07.218,27.88
07.234,23.53
07.250,18.79
07.265,13.93
07.281,9.1
07.296,4.34
07.312,-0.44
07.328,-5.52
07.343,-11.33
07.359,-18.27
07.375,-26.45
07.390,-35.45
07.406,-44.13
07.421,-50.71
07.437,-53.25
07.453,-50.23
07.468,-41.09
07.484,-26.55
07.500,-8.27
07.515,11.57
07.531,30.93
07.546,48.29
07.562,62.63
07.578,73.35
07.593,80.05
07.609,82.52
07.625,80.92
07.640,76.08
07.656,69.43
07.671,62.83
07.687,58.03
07.703,56.13
07.718,57.28
07.734,60.76
07.750,65.35
07.765,69.86
07.781,73.55
07.796,76.17
07.812,77.91
07.828,78.98
07.843,79.34
07.859,78.62
07.875,76.39
07.890,72.39
07.906,66.83
07.921,60.46
07.937,54.18
07.953,48.76
07.968,44.51
07.984,41.2
08.000,38.35
08.015,35.54
08.031,32.6
08.046,29.58
08.062,26.64
08.078,23.72
08.093,20.59
08.109,16.92
08.125,12.54
08.140,7.66
08.156,2.83
08.171,-1.22
08.187,-3.94
08.203,-5.1
08.218,-4.94
08.234,-4.12
08.250,-3.38
08.265,-3.46
08.281,-4.8
08.296,-7.49
08.312,-11.28
08.328,-15.72
08.343,-20.34
08.359,-24.75
08.375,-28.72
08.390,-32.1
08.406,-34.89
08.421,-37.16
08.437,-39.09
08.453,-41.07
08.468,-43.65
08.484,-47.28
08.500,-52.22
08.515,-58.26
08.531,-64.86
08.546,-71.36
08.562,-77.32
08.578,-82.63
08.593,-87.22
08.609,-90.62
08.625,-91.6
08.640,-88.32
08.656,-79.0
08.671,-62.84
08.687,-40.7
08.703,-15.04
08.718,10.95
08.734,34.35
08.750,53.48
08.765,68.07
08.781,78.81
08.796,86.57
08.812,91.91
08.828,95.01
08.843,95.97
08.859,95.3
08.875,93.95
08.890,93.15
08.906,93.84
08.921,96.36
08.937,100.22
08.953,104.42
08.968,107.84
08.984,109.74
09.000,109.82
09.015,108.09
09.031,104.59
09.046,99.11
09.062,91.18
09.078,80.3
09.093,66.29
09.109,49.41
09.125,30.39
09.140,10.15
09.156,-10.43
09.171,-30.6
09.187,-49.62
09.203,-66.6
09.218,-80.34
09.234,-89.61
09.250,-93.69
09.265,-92.79
09.281,-88.23
09.296,-82.05
09.312,-76.26
09.328,-72.17
09.343,-70.13
09.359,-69.74
09.375,-70.4
09.390,-71.68
09.406,-73.48
09.421,-75.73
09.437,-78.06
09.453,-79.87
09.468,-80.47
09.484,-79.63
09.500,-77.74
09.515,-75.66
09.531,-74.35
09.546,-74.37
09.562,-75.63
09.578,-77.61
09.593,-79.58
09.609,-81.01
09.625,-81.79
09.640,-82.21
09.656,-82.9
09.671,-84.59
09.687,-87.93
09.703,-93.27
09.718,-100.51
09.734,-108.72
09.750,-116.12
09.765,-120.18
09.781,-118.23
09.796,-108.41
09.812,-90.44
09.828,-66.06
09.843,-38.49
09.859,-11.56
09.875,11.57
09.890,29.03
09.906,40.44
09.921,46.33
09.937,47.6
09.953,44.98
09.968,39.12
09.984,30.75
10.000,20.92
10.015,10.93
10.031,2.03
10.046,-4.95
10.062,-9.81
10.078,-12.85
10.093,-14.64
10.109,-15.74
10.125,-16.49
10.140,-16.99
10.156,-17.32
10.171,-17.64
10.187,-18.32
10.203,-19.96
10.218,-23.32
10.234,-29.02
10.250,-37.27
10.265,-47.55
10.281,-58.37
10.296,-67.5
10.312,-72.43
10.328,-71.23
10.343,-63.28
10.359,-49.53
10.375,-32.19
10.390,-13.96
10.406,2.94
10.421,17.27
10.437,28.77
10.453,37.67
10.468,44.1
10.484,47.81
10.500,48.35
10.515,45.54
10.531,39.84
10.546,32.38
10.562,24.62
10.578,17.69
10.593,12.05
10.609,7.41
10.625,3.12
10.640,-1.33
10.656,-6.05
10.671,-10.71
10.687,-14.86
10.703,-18.29
10.718,-21.28
10.734,-24.51
10.750,-28.84
10.765,-35.05
10.781,-43.46
10.796,-53.99
10.812,-65.92
10.828,-77.96
10.843,-88.36
10.859,-95.19
10.875,-96.81
10.890,-92.32
10.906,-81.92
10.921,-66.79
10.937,-48.8
10.953,-29.92
10.968,-11.91
10.984,4.14
11.000,17.54
11.015,28.06
11.031,35.64
11.046,40.41
11.062,42.63
11.078,42.71
11.093,41.29
11.109,39.03
11.125,36.6
11.140,34.45
11.156,32.76
11.171,31.39
11.187,29.97
11.203,28.08
11.218,25.38
11.234,21.8
11.250,17.51
11.265,12.92
11.281,8.5
11.296,4.53
11.312,0.99
11.328,-2.48
11.343,-6.47
11.359,-11.62
11.375,-18.39
11.390,-26.93
11.406,-36.98
11.421,-47.81
11.437,-58.2
11.453,-66.44
11.468,-70.6
11.484,-68.94
11.500,-60.47
11.515,-45.29
11.531,-24.7
11.546,-0.8
11.562,24.12
11.578,48.13
11.593,69.98
11.609,88.97
11.625,104.74
11.640,116.96
11.656,125.46
11.671,130.33
11.687,132.2
11.703,132.18
11.718,131.52
11.734,131.31
11.750,132.1
11.765,133.88
11.781,136.32
11.796,138.99
11.812,141.67
11.828,144.39
11.843,147.39
11.859,150.86
11.875,154.69
11.890,158.41
11.906,161.16
11.921,161.96
11.937,159.99
11.953,154.85
11.968,146.67
11.984,135.97
12.000,123.22
12.015,108.51
12.031,91.37
12.046,70.87
12.062,46.22
12.078,17.06
12.093,-16.11
12.109,-51.91
12.125,-88.27
12.140,-122.57
12.156,-151.92
12.171,-173.4
12.187,-184.68
12.203,-184.52
12.218,-173.35
12.234,-153.36
12.250,-128.08
12.265,-101.42
12.281,-76.79
12.296,-56.37
12.312,-41.09
12.328,-30.89
12.343,-25.12
12.359,-22.69
12.375,-22.05
12.390,-21.32
12.406,-18.65
12.421,-13.0
12.437,-4.62
12.453,4.7
12.468,12.35
12.484,15.9
12.500,14.01
12.515,6.81
12.531,-4.49
12.546,-18.33
12.562,-33.45
12.578,-48.98
12.593,-64.17
12.609,-78.08
12.625,-89.54
12.640,-97.52
12.656,-101.58
12.671,-102.07
12.687,-99.94
12.703,-96.23
12.718,-91.54
12.734,-85.97
12.750,-79.31
12.765,-71.53
12.781,-63.21
12.796,-55.57
12.812,-50.19
12.828,-48.35
12.843,-50.34
12.859,-55.08
12.875,-60.14
12.890,-62.35
12.906,-58.7
12.921,-47.44
12.937,-28.66
12.953,-4.36
12.968,22.35
12.984,48.33
13.000,71.44
13.015,91.02
13.031,107.55
13.046,121.96
13.062,134.79
13.078,145.86
13.093,154.44
13.109,159.89
13.125,162.29
13.140,162.68
13.156,162.78
13.171,164.25
13.187,168.05
13.203,173.9
13.218,180.45
13.234,185.78
13.250,188.11
13.265,186.53
13.281,181.24
13.296,173.44
13.312,165.03
13.328,157.93
13.343,153.69
13.359,153.19
13.375,156.33
13.390,162.01
13.406,168.18
13.421,172.17
13.437,171.51
13.453,164.73
13.468,151.99
13.484,135.1
13.500,116.72
13.515,99.1
13.531,82.85
13.546,66.56
13.562,47.32
13.578,22.33
13.593,-9.33
13.609,-45.47
13.625,-81.0
13.640,-109.41
13.656,-125.14
13.671,-125.89
13.687,-113.56
13.703,-93.63
13.718,-73.06
13.734,-57.58
13.750,-49.76
13.765,-48.58
13.781,-50.6
13.796,-52.07
13.812,-50.66
13.828,-46.19
13.843,-40.13
13.859,-34.42
13.875,-30.55
13.890,-29.24
13.906,-30.77
13.921,-35.35
13.937,-43.12
13.953,-53.8
13.968,-66.16
13.984,-77.97
14.000,-86.61
14.015,-89.9
14.031,-87.12
14.046,-79.08
14.062,-67.81
14.078,-55.52
14.093,-43.95
14.109,-33.89
14.125,-25.45
14.140,-18.51
14.156,-13.03
14.171,-9.29
14.187,-7.65
14.203,-8.31
14.218,-11.06
14.234,-15.3
14.250,-20.23
14.265,-25.1
14.281,-29.43
14.296,-33.09
14.312,-36.31
14.328,-39.72
14.343,-44.5
14.359,-52.5
14.375,-66.05
14.390,-87.31
14.406,-117.13
14.421,-154.21
14.437,-194.83
14.453,-233.84
14.468,-266.18
14.484,-288.45
14.500,-299.49
14.515,-299.75
14.531,-290.07
14.546,-270.81
14.562,-242.15
14.578,-205.34
14.593,-163.91
14.609,-123.72
14.625,-91.25
14.640,-71.02
14.656,-63.44
14.671,-64.54
14.687,-67.88
14.703,-67.5
14.718,-60.51
14.734,-47.73
14.750,-32.56
14.765,-18.71
14.781,-8.27
14.796,-1.02
14.812,4.9
14.828,11.66
14.843,20.53
14.859,31.3
14.875,42.65
14.890,52.88
14.906,60.72
14.921,65.83
14.937,68.68
14.953,70.12
14.968,70.8
14.984,70.8
15.000,69.64
15.015,66.76
15.031,62.08
15.046,56.32
15.062,50.87
15.078,47.07
15.093,45.59
15.109,45.83
15.125,46.22
15.140,44.66
15.156,39.26
15.171,29.07
15.187,14.37
15.203,-3.31
15.218,-21.49
15.234,-37.31
15.250,-48.24
15.265,-52.65
15.281,-50.25
15.296,-42.02
15.312,-29.77
15.328,-15.62
15.343,-1.33
15.359,11.91
15.375,23.48
15.390,33.12
15.406,40.75
15.421,46.37
15.437,50.15
15.453,52.48
15.468,54.02
15.484,55.59
15.500,57.91
15.515,61.35
15.531,65.78
15.546,70.53
15.562,74.6
15.578,76.92
15.593,76.75
15.609,73.93
15.625,68.8
15.640,62.19
15.656,55.02
15.671,48.09
15.687,41.89
15.703,36.48
15.718,31.62
15.734,26.87
15.750,21.73
15.765,15.76
15.781,8.71
15.796,0.58
15.812,-8.37
15.828,-17.68
15.843,-26.84
15.859,-35.47
15.875,-43.48
15.890,-51.03
15.906,-58.55
15.921,-66.48
15.937,-75.04
15.953,-83.97
15.968,-92.39
15.984,-98.83
16.000,-101.59
16.015,-99.17
16.031,-90.85
16.046,-76.99
16.062,-58.99
16.078,-38.88
16.093,-18.76
16.109,-0.18
16.125,16.03
16.140,29.74
16.156,41.17
16.171,50.52
16.187,57.89
16.203,63.25
16.218,66.64
16.234,68.26
16.250,68.49
16.265,67.85
16.281,66.8
16.296,65.75
16.312,64.92
16.328,64.4
16.343,64.17
16.359,64.13
16.375,64.2
16.390,64.28
16.406,64.35
16.421,64.39
16.437,64.32
16.453,63.92
16.468,62.99
16.484,61.35
16.500,58.97
16.515,56.03
16.531,52.75
16.546,49.26
16.562,45.46
16.578,40.96
16.593,35.2
16.609,27.73
16.625,18.35
16.640,7.31
16.656,-4.66
16.671,-16.47
16.687,-26.71
16.703,-33.93
16.718,-36.94
16.734,-35.08
16.750,-28.55
16.765,-18.43
16.781,-6.52
16.796,5.23
16.812,15.12
16.828,22.25
16.843,26.57
16.859,28.67
16.875,29.43
16.890,29.62
16.906,29.77
16.921,30.25
16.937,31.37
16.953,33.38
16.968,36.53
16.984,40.82
17.000,46.02
17.015,51.8
17.031,57.77
17.046,63.77
17.062,69.72
17.078,75.58
17.093,81.15
17.109,85.98
17.125,89.49
17.140,91.15
17.156,90.67
17.171,88.04
17.187,83.51
17.203,77.49
17.218,70.37
17.234,62.61
17.250,54.69
17.265,47.02
17.281,39.91
17.296,33.41
17.312,27.39
17.328,21.71
17.343,16.22
17.359,10.95
17.375,5.98
17.390,1.51
17.406,-2.12
17.421,-4.35
17.437,-4.23
17.453,-0.62
17.468,7.41
17.484,20.12
17.500,36.54
17.515,54.54
17.531,71.29
17.546,84.16
17.562,91.49
17.578,93.03
17.593,89.75
17.609,83.23
17.625,74.9
17.640,65.44
17.656,54.63
17.671,41.66
17.687,25.7
17.703,6.41
17.718,-15.72
17.734,-39.46
17.750,-63.23
17.765,-85.39
17.781,-104.53
17.796,-119.4
17.812,-129.1
17.828,-133.48
17.843,-133.84
17.859,-133.35
17.875,-136.83
17.890,-149.35
17.906,-174.16
17.921,-211.12
17.937,-256.08
17.953,-302.16
17.968,-341.87
17.984,-369.51
18.000,-382.4
18.015,-380.88
18.031,-367.44
18.046,-345.56
18.062,-319.09
18.078,-291.88
18.093,-267.56
18.109,-248.78
18.125,-236.17
18.140,-227.82
18.156,-219.59
18.171,-206.7
18.187,-185.56
18.203,-155.27
18.218,-117.83
18.234,-77.14
18.250,-37.39
18.265,-1.72
18.281,28.41
18.296,52.85
18.312,72.11
18.328,86.72
18.343,97.02
18.359,103.4
18.375,106.46
18.390,107.09
18.406,106.26
18.421,104.79
18.437,103.2
18.453,101.68
18.468,100.16
18.484,98.5
18.500,96.56
18.515,94.3
18.531,91.85
18.546,89.44
18.562,87.28
18.578,85.35
18.593,83.25
18.609,80.35
18.625,75.85
18.640,69.2
18.656,60.41
18.671,50.21
18.687,39.86
18.703,30.83
18.718,24.2
18.734,20.32
18.750,18.7
18.765,18.16
18.781,17.33
18.796,15.07
18.812,10.89
18.828,5.13
18.843,-1.12
18.859,-6.28
18.875,-8.55
18.890,-6.35
18.906,1.29
18.921,14.52
18.937,32.56
18.953,53.91
18.968,76.58
18.984,98.6
19.000,118.36
19.015,134.83
19.031,147.49
19.046,156.07
19.062,160.04
19.078,158.5
19.093,150.43
19.109,135.31
19.125,113.83
19.140,88.28
19.156,62.01
19.171,38.44
19.187,19.87
19.203,6.74
19.218,-2.27
19.234,-9.3
19.250,-16.24
19.265,-23.92
19.281,-32.13
19.296,-40.17
19.312,-47.48
19.328,-54.0
19.343,-60.11
19.359,-66.14
19.375,-71.96
19.390,-76.93
19.406,-80.18
19.421,-81.11
19.437,-79.86
19.453,-77.48
19.468,-75.6
19.484,-75.85
19.500,-79.14
19.515,-85.1
19.531,-91.93
19.546,-96.92
19.562,-97.2
19.578,-90.83
19.593,-77.47
19.609,-58.45
19.625,-36.29
19.640,-13.7
19.656,7.21
19.671,25.39
19.687,40.6
19.703,53.03
19.718,62.74
19.734,69.57
19.750,73.3
19.765,73.99
19.781,72.27
19.796,69.15
19.812,65.79
19.828,62.94
19.843,60.84
19.859,59.24
19.875,57.77
19.890,56.26
19.906,54.83
19.921,53.79
19.937,53.18
19.953,52.59
19.968,51.09
19.984,47.68
20.000,41.71
20.015,33.27
20.031,23.29
20.046,13.12
20.062,4.06
20.078,-3.12
20.093,-8.36
20.109,-12.2
20.125,-15.5
20.140,-19.19
20.156,-23.97
20.171,-30.2
20.187,-37.65
20.203,-45.29
20.218,-51.39
20.234,-53.78
20.250,-50.44
20.265,-40.33
20.281,-23.72
20.296,-2.27
20.312,21.54
20.328,45.17
20.343,66.58
20.359,84.5
20.375,98.23
20.390,107.44
20.406,112.09
20.421,112.47
20.437,109.42
20.453,104.33
20.468,98.82
20.484,94.32
20.500,91.57
20.515,90.52
20.531,90.65
20.546,91.36
20.562,92.47
20.578,94.29
20.593,97.28
20.609,101.62
20.625,106.85
20.640,111.8
20.656,114.94
20.671,114.99
20.687,111.26
20.703,103.79
20.718,93.19
20.734,80.34
20.750,66.14
20.765,51.47
20.781,37.13
20.796,23.71
20.812,11.39
20.828,-0.3
20.843,-12.34
20.859,-25.65
20.875,-40.27
20.890,-54.75
20.906,-66.19
20.921,-71.16
20.937,-67.23
20.953,-54.17
20.968,-34.42
20.984,-12.38
21.000,7.06
21.015,20.05
21.031,24.68
21.046,20.98
21.062,10.32
21.078,-5.45
21.093,-24.54
21.109,-45.42
21.125,-66.57
21.140,-86.38
21.156,-103.13
21.171,-115.4
21.187,-122.58
21.203,-125.3
21.218,-125.29
21.234,-124.87
21.250,-126.0
21.265,-129.53
21.281,-134.86
21.296,-140.31
21.312,-144.04
21.328,-144.73
21.343,-142.29
21.359,-137.58
21.375,-131.83
21.390,-126.05
21.406,-120.59
21.421,-115.31
21.437,-110.0
21.453,-104.74
21.468,-99.99
21.484,-96.41
21.500,-94.48
21.515,-94.36
21.531,-95.9
21.546,-98.75
21.562,-102.39
21.578,-105.97
21.593,-108.15
21.609,-107.16
21.625,-101.26
21.640,-89.31
21.656,-71.43
21.671,-49.1
21.687,-24.69
21.703,-0.75
21.718,20.88
21.734,39.24
21.750,54.16
21.765,65.79
21.781,74.32
21.796,79.92
21.812,82.83
21.828,83.61
21.843,83.06
21.859,82.03
21.875,81.24
21.890,80.98
21.906,81.18
21.921,81.41
21.937,81.14
21.953,79.89
21.968,77.37
21.984,73.52
22.000,68.52
22.015,62.64
22.031,56.22
22.046,49.49
22.062,42.62
22.078,35.69
22.093,28.8
22.109,22.08
22.125,15.7
22.140,9.7
22.156,3.84
22.171,-2.33
22.187,-9.45
22.203,-18.08
22.218,-28.37
22.234,-39.89
22.250,-51.49
22.265,-61.43
22.281,-67.8
22.296,-68.98
22.312,-64.23
22.328,-53.83
22.343,-39.21
22.359,-22.43
22.375,-5.58
22.390,9.66
22.406,22.35
22.421,32.23
22.437,39.34
22.453,43.83
22.468,45.83
22.484,45.56
22.500,43.49
22.515,40.4
22.531,37.19
22.546,34.65
22.562,33.11
22.578,32.48
22.593,32.26
22.609,31.94
22.625,31.15
22.640,29.88
22.656,28.3
22.671,26.62
22.687,24.89
22.703,22.97
22.718,20.63
22.734,17.69
22.750,14.12
22.765,10.05
22.781,5.65
22.796,1.02
22.812,-3.91
22.828,-9.3
22.843,-15.45
22.859,-22.68
22.875,-31.25
22.890,-41.17
22.906,-52.03
22.921,-62.76
22.937,-71.72
22.953,-76.98
22.968,-76.91
22.984,-70.7
23.000,-58.74
23.015,-42.57
23.031,-24.34
23.046,-6.21
23.062,10.14
23.078,23.78
23.093,34.38
23.109,41.97
23.125,46.71
23.140,48.88
23.156,48.9
23.171,47.35
23.187,45.04
23.203,42.76
23.218,41.07
23.234,40.17
23.250,39.85
23.265,39.64
23.281,39.18
23.296,38.3
23.312,37.09
23.328,35.77
23.343,34.44
23.359,32.98
23.375,31.0
23.390,28.05
23.406,23.83
23.421,18.4
23.437,12.13
23.453,5.59
23.468,-0.78
23.484,-6.86
23.500,-12.93
23.515,-19.57
23.531,-27.42
23.546,-36.91
23.562,-47.96
23.578,-59.89
23.593,-71.38
23.609,-80.63
23.625,-85.8
23.640,-85.45
23.656,-79.01
23.671,-66.99
23.687,-50.87
23.703,-32.66
23.718,-14.33
23.734,2.56
23.750,17.1
23.765,28.83
23.781,37.58
23.796,43.3
23.812,46.15
23.828,46.6
23.843,45.46
23.859,43.76
23.875,42.42
23.890,41.9
23.906,42.14
23.921,42.62
23.937,42.82
23.953,42.36
23.968,41.32
23.984,40.02
24.000,38.83
24.015,37.82
24.031,36.73
24.046,35.02
24.062,32.18
24.078,27.93
24.093,22.38
24.109,15.99
24.125,9.36
24.140,2.98
24.156,-2.91
24.171,-8.32
24.187,-13.6
24.203,-19.25
24.218,-25.87
24.234,-34.03
24.250,-43.87
24.265,-54.91
24.281,-65.74
24.296,-74.28
24.312,-78.25
24.328,-75.97
24.343,-66.97
24.359,-52.28
24.375,-33.99
24.390,-14.54
24.406,4.03
24.421,20.51
24.437,34.51
24.453,46.09
24.468,55.34
24.484,62.23
24.500,66.64
24.515,68.6
24.531,68.58
24.546,67.35
24.562,65.85
24.578,64.83
24.593,64.7
24.609,65.39
24.625,66.58
24.640,67.84
24.656,68.86
24.671,69.5
24.687,69.75
24.703,69.71
24.718,69.35
24.734,68.58
24.750,67.26
24.765,65.26
24.781,62.62
24.796,59.53
24.812,56.28
24.828,53.23
24.843,50.65
24.859,48.7
24.875,47.36
24.890,46.42
24.906,45.66
24.921,44.82
24.937,43.8
24.953,42.65
24.968,41.55
24.984,40.72
25.000,40.29
25.015,40.25
25.031,40.37
25.046,40.35
25.062,39.94
25.078,39.14
25.093,38.2
25.109,37.45
25.125,37.21
25.140,37.54
25.156,38.2
25.171,38.76
25.187,38.86
25.203,38.42
25.218,37.71
25.234,37.2
25.250,37.33
25.265,38.29
25.281,39.89
25.296,41.74
25.312,43.4
25.328,44.6
25.343,45.28
25.359,45.62
25.375,45.97
25.390,46.75
25.406,48.48
25.421,51.56
25.437,56.05
25.453,61.34
25.468,66.05
25.484,68.35
25.500,66.48
25.515,59.51
25.531,47.83
25.546,33.08
25.562,17.62
25.578,3.59
25.593,-7.77
25.609,-16.53
25.625,-23.88
25.640,-31.58
25.656,-41.09
25.671,-52.82
25.687,-65.61
25.703,-76.89
25.718,-83.32
25.734,-81.98
25.750,-71.51
25.765,-52.64
25.781,-28.09
25.796,-1.65
25.812,23.09
25.828,43.66
25.843,59.05
25.859,69.45
25.875,75.53
25.890,77.97
25.906,77.27
25.921,73.86
25.937,68.36
25.953,61.65
25.968,54.65
25.984,48.0
26.000,41.77
26.015,35.28
26.031,27.32
26.046,16.52
26.062,1.92
26.078,-16.67
26.093,-38.48
26.109,-61.85
26.125,-84.67
26.140,-104.89
26.156,-120.96
26.171,-132.21
26.187,-138.97
26.203,-142.56
26.218,-145.12
26.234,-149.29
26.250,-157.65
26.265,-172.18
26.281,-193.57
26.296,-220.93
26.312,-251.81
26.328,-282.8
26.343,-310.28
26.359,-331.24
26.375,-343.66
26.390,-346.57
26.406,-339.65
26.421,-323.06
26.437,-297.24
26.453,-263.08
26.468,-222.03
26.484,-176.2
26.500,-128.25
26.515,-81.09
26.531,-37.6
26.546,-0.17
26.562,29.55
26.578,50.87
26.593,64.13
26.609,70.49
26.625,71.62
26.640,69.34
26.656,65.28
26.671,60.85
26.687,57.12
26.703,54.88
26.718,54.37
26.734,55.17
26.750,56.2
26.765,56.02
26.781,53.26
26.796,47.17
26.812,37.93
26.828,26.45
26.843,14.14
26.859,2.21
26.875,-8.61
26.890,-18.36
26.906,-27.6
26.921,-37.16
26.937,-47.65
26.953,-59.32
26.968,-71.78
26.984,-84.07
27.000,-94.82
27.015,-102.38
27.031,-105.23
27.046,-102.22
27.062,-92.93
27.078,-77.85
27.093,-58.34
27.109,-36.35
27.125,-13.99
27.140,6.94
27.156,25.28
27.171,40.56
27.187,52.77
27.203,62.13
27.218,68.86
27.234,73.23
27.250,75.63
27.265,76.67
27.281,77.08
27.296,77.59
27.312,78.67
27.328,80.47
27.343,82.78
27.359,85.23
27.375,87.41
27.390,89.05
27.406,90.04
27.421,90.32
27.437,89.89
27.453,88.73
27.468,86.84
27.484,84.29
27.500,81.19
27.515,77.78
27.531,74.3
27.546,70.94
27.562,67.78
27.578,64.82
27.593,61.95
27.609,59.06
27.625,56.14
27.640,53.17
27.656,50.18
27.671,47.17
27.687,44.13
27.703,41.08
27.718,38.14
27.734,35.45
27.750,33.08
27.765,30.98
27.781,28.93
27.796,26.67
27.812,24.05
27.828,21.13
27.843,18.15
27.859,15.43
27.875,13.13
27.890,11.14
27.906,9.18
27.921,6.8
27.937,3.68
27.953,-0.26
27.968,-4.85
27.984,-9.75
28.000,-14.55
28.015,-19.02
28.031,-23.17
28.046,-27.22
28.062,-31.57
28.078,-36.54
28.093,-42.22
28.109,-48.49
28.125,-54.98
28.140,-61.28
28.156,-67.15
28.171,-72.47
28.187,-77.37
28.203,-82.1
28.218,-87.1
28.234,-92.98
28.250,-100.4
28.265,-109.84
28.281,-121.03
28.296,-132.62
28.312,-142.11
28.328,-146.44
28.343,-142.99
28.359,-130.65
28.375,-110.34
28.390,-84.84
28.406,-57.74
28.421,-32.37
28.437,-10.84
28.453,6.19
28.468,19.07
28.484,28.52
28.500,35.09
28.515,39.03
28.531,40.51
28.546,39.91
28.562,37.97
28.578,35.65
28.593,33.85
28.609,33.15
28.625,33.57
28.640,34.71
28.656,35.95
28.671,36.72
28.687,36.62
28.703,35.52
28.718,33.47
28.734,30.64
28.750,27.2
28.765,23.3
28.781,19.04
28.796,14.49
28.812,9.68
28.828,4.6
28.843,-0.9
28.859,-7.17
28.875,-14.67
28.890,-23.92
28.906,-35.02
28.921,-47.39
28.937,-59.5
28.953,-69.09
28.968,-73.77
28.984,-71.89
29.000,-63.11
29.015,-48.66
29.031,-30.91
29.046,-12.51
29.062,4.39
29.078,18.61
29.093,29.96
29.109,38.79
29.125,45.42
29.140,49.97
29.156,52.27
29.171,52.31
29.187,50.39
29.203,47.3
29.218,43.96
29.234,41.25
29.250,39.62
29.265,38.95
29.281,38.74
29.296,38.38
29.312,37.4
29.328,35.66
29.343,33.22
29.359,30.26
29.375,26.86
29.390,22.94
29.406,18.39
29.421,13.12
29.437,7.19
29.453,0.82
29.468,-5.82
29.484,-12.76
29.500,-20.38
29.515,-29.21
29.531,-39.51
29.546,-50.75
29.562,-61.39
29.578,-69.19
29.593,-71.8
29.609,-67.73
29.625,-56.94
29.640,-40.87
29.656,-21.97
29.671,-2.81
29.687,14.63
29.703,29.26
29.718,40.79
29.734,49.38
29.750,55.27
29.765,58.72
29.781,60.01
29.796,59.54
29.812,57.88
29.828,55.67
29.843,53.49
29.859,51.72
29.875,50.51
29.890,49.73
29.906,49.06
29.921,48.1
29.937,46.46
29.953,43.9
29.968,40.31
29.984,35.77
30.000,30.47
30.015,24.59
30.031,18.32
30.046,11.77
30.062,5.05
30.078,-1.76
30.093,-8.63
30.109,-15.62
30.125,-22.96
30.140,-30.99
30.156,-39.95
30.171,-49.76
30.187,-59.67
30.203,-68.27
30.218,-73.68
30.234,-74.14
30.250,-68.65
30.265,-57.35
30.281,-41.55
30.296,-23.28
30.312,-4.65
30.328,12.67
30.343,27.67
30.359,39.93
30.375,49.31
30.390,55.81
30.406,59.48
30.421,60.65
30.437,59.95
30.453,58.27
30.468,56.51
30.484,55.29
30.500,54.71
30.515,54.43
30.531,53.88
30.546,52.68
30.562,50.77
30.578,48.49
30.593,46.3
30.609,44.43
30.625,42.77
30.640,40.74
30.656,37.66
30.671,33.03
30.687,26.81
30.703,19.48
30.718,11.78
30.734,4.43
30.750,-2.23
30.765,-8.25
30.781,-14.07
30.796,-20.34
30.812,-27.75
30.828,-36.74
30.843,-47.36
30.859,-59.04
30.875,-70.45
30.890,-79.77
30.906,-85.03
30.921,-84.75
30.937,-78.4
30.953,-66.58
30.968,-50.77
30.984,-32.86
31.000,-14.57
31.015,2.87
31.031,18.72
31.046,32.58
31.062,44.16
31.078,53.27
31.093,59.8
31.109,63.88
31.125,65.91
31.140,66.47
31.156,66.17
31.171,65.51
31.187,64.82
31.203,64.24
31.218,63.71
31.234,63.05
31.250,62.02
31.265,60.4
31.281,58.07
31.296,55.08
31.312,51.61
31.328,47.92
31.343,44.11
31.359,40.1
31.375,35.67
31.390,30.56
31.406,24.63
31.421,18.01
31.437,11.01
31.453,4.06
31.468,-2.52
31.484,-8.53
31.500,-14.07
31.515,-19.4
31.531,-24.97
31.546,-31.27
31.562,-38.79
31.578,-47.84
31.593,-58.34
31.609,-69.61
31.625,-80.29
31.640,-88.57
31.656,-92.6
31.671,-91.04
31.687,-83.56
31.703,-70.87
31.718,-54.47
31.734,-36.13
31.750,-17.41
31.765,0.6
31.781,17.25
31.796,32.07
31.812,44.63
31.828,54.56
31.843,61.65
31.859,66.03
31.875,68.27
31.890,69.12
31.906,69.33
31.921,69.33
31.937,69.21
31.953,68.83
31.968,68.01
31.984,66.71
32.000,65.11
32.015,63.52
32.031,62.12
32.046,60.93
32.062,59.68
32.078,57.99
32.093,55.5
32.109,52.01
32.125,47.58
32.140,42.44
32.156,36.96
32.171,31.43
32.187,26.02
32.203,20.76
32.218,15.54
32.234,10.2
32.250,4.6
32.265,-1.24
32.281,-7.24
32.296,-13.19
32.312,-18.95
32.328,-24.42
32.343,-29.7
32.359,-34.99
32.375,-40.66
32.390,-47.16
32.406,-54.91
32.421,-64.07
32.437,-74.29
32.453,-84.52
32.468,-93.09
32.484,-98.07
32.500,-97.88
32.515,-91.85
32.531,-80.38
32.546,-64.88
32.562,-47.16
32.578,-28.92
32.593,-11.39
32.609,4.74
32.625,19.09
32.640,31.4
32.656,41.4
32.671,48.84
32.687,53.71
32.703,56.28
32.718,57.12
32.734,56.96
32.750,56.46
32.765,56.08
32.781,56.06
32.796,56.37
32.812,56.84
32.828,57.22
32.843,57.33
32.859,57.08
32.875,56.47
32.890,55.55
32.906,54.29
32.921,52.59
32.937,50.24
32.953,47.07
32.968,42.96
32.984,38.04
33.000,32.61
33.015,27.14
33.031,22.11
33.046,17.76
33.062,14.07
33.078,10.68
33.093,7.07
33.109,2.79
33.125,-2.35
33.140,-8.22
33.156,-14.38
33.171,-20.37
33.187,-25.86
33.203,-30.76
33.218,-35.27
33.234,-39.74
33.250,-44.61
33.265,-50.32
33.281,-57.22
33.296,-65.49
33.312,-74.85
33.328,-84.44
33.343,-92.79
33.359,-98.08
33.375,-98.64
33.390,-93.63
33.406,-83.28
33.421,-68.9
33.437,-52.4
33.453,-35.65
33.468,-20.02
33.484,-6.09
33.500,6.06
33.515,16.56
33.531,25.41
33.546,32.43
33.562,37.43
33.578,40.39
33.593,41.66
33.609,41.83
33.625,41.63
33.640,41.59
33.656,41.88
33.671,42.35
33.687,42.7
33.703,42.7
33.718,42.37
33.734,41.95
33.750,41.69
33.765,41.64
33.781,41.53
33.796,40.76
33.812,38.82
33.828,35.52
33.843,31.12
33.859,26.27
33.875,21.71
33.890,17.86
33.906,14.71
33.921,11.83
33.937,8.65
33.953,4.8
33.968,0.26
33.984,-4.69
34.000,-9.59
34.015,-14.15
34.031,-18.24
34.046,-22.06
34.062,-25.92
34.078,-30.23
34.093,-35.36
34.109,-41.55
34.125,-48.89
34.140,-57.06
34.156,-65.27
34.171,-72.26
34.187,-76.47
34.203,-76.49
34.218,-71.49
34.234,-61.6
34.250,-47.91
34.265,-32.21
34.281,-16.36
34.296,-1.91
34.312,10.26
34.328,19.87
34.343,27.03
34.359,32.04
34.375,35.15
34.390,36.62
34.406,36.78
34.421,36.06
34.437,34.97
34.453,33.98
34.468,33.42
34.484,33.34
34.500,33.64
34.515,34.1
34.531,34.54
34.546,34.86
34.562,34.98
34.578,34.81
34.593,34.13
34.609,32.66
34.625,30.2
34.640,26.74
34.656,22.52
34.671,17.98
34.687,13.57
34.703,9.59
34.718,6.06
34.734,2.71
34.750,-0.8
34.765,-4.84
34.781,-9.56
34.796,-14.94
34.812,-20.76
34.828,-26.66
34.843,-32.33
34.859,-37.54
34.875,-42.28
34.890,-46.81
34.906,-51.63
34.921,-57.31
34.937,-64.24
34.953,-72.28
34.968,-80.55
34.984,-87.56
35.000,-91.46
35.015,-90.68
35.031,-84.45
35.046,-73.09
35.062,-57.92
35.078,-40.85
35.093,-23.77
35.109,-8.09
35.125,5.43
35.140,16.61
35.156,25.57
35.171,32.42
35.187,37.25
35.203,40.18
35.218,41.45
35.234,41.56
35.250,41.17
35.265,40.91
35.281,41.13
35.296,41.83
35.312,42.69
35.328,43.32
35.343,43.44
35.359,43.04
35.375,42.3
35.390,41.41
35.406,40.4
35.421,39.1
35.437,37.17
35.453,34.36
35.468,30.65
35.484,26.29
35.500,21.7
35.515,17.28
35.531,13.21
35.546,9.34
35.562,5.25
35.578,0.48
35.593,-5.22
35.609,-11.69
35.625,-18.39
35.640,-24.68
35.656,-30.11
35.671,-34.71
35.687,-38.98
35.703,-43.74
35.718,-49.74
35.734,-57.33
35.750,-66.24
35.765,-75.6
35.781,-84.07
35.796,-90.07
35.812,-92.2
35.828,-89.45
35.843,-81.61
35.859,-69.28
35.875,-53.8
35.890,-36.88
35.906,-20.16
35.921,-4.9
35.937,8.22
35.953,19.01
35.968,27.52
35.984,33.88
36.000,38.25
36.015,40.83
36.031,41.94
36.046,42.06
36.062,41.75
36.078,41.42
36.093,41.28
36.109,41.32
36.125,41.43
36.140,41.47
36.156,41.37
36.171,41.15
36.187,40.82
36.203,40.33
36.218,39.51
36.234,38.12
36.250,35.92
36.265,32.81
36.281,28.88
36.296,24.43
36.312,19.82
36.328,15.41
36.343,11.27
36.359,7.26
36.375,3.05
36.390,-1.66
36.406,-7.0
36.421,-12.79
36.437,-18.68
36.453,-24.27
36.468,-29.34
36.484,-33.89
36.500,-38.22
36.515,-42.84
36.531,-48.31
36.546,-55.09
36.562,-63.26
36.578,-72.24
36.593,-80.77
36.609,-87.08
36.625,-89.3
36.640,-86.15
36.656,-77.37
36.671,-63.88
36.687,-47.48
36.703,-30.29
36.718,-14.11
36.734,-0.09
36.750,11.41
36.765,20.49
36.781,27.44
36.796,32.5
36.812,35.78
36.828,37.41
36.843,37.69
36.859,37.12
36.875,36.36
36.890,35.95
36.906,36.21
36.921,37.04
36.937,38.12
36.953,38.97
36.968,39.32
36.984,39.09
37.000,38.42
37.015,37.49
37.031,36.34
37.046,34.85
37.062,32.8
37.078,29.93
37.093,26.15
37.109,21.53
37.125,16.29
37.140,10.71
37.156,5.06
37.171,-0.5
37.187,-5.88
37.203,-11.1
37.218,-16.16
37.234,-21.04
37.250,-25.75
37.265,-30.33
37.281,-34.93
37.296,-39.89
37.312,-45.62
37.328,-52.41
37.343,-60.1
37.359,-67.86
37.375,-74.18
37.390,-77.3
37.406,-75.73
37.421,-68.89
37.437,-57.28
37.453,-42.4
37.468,-26.15
37.484,-10.32
37.500,3.85
37.515,15.72
37.531,25.02
37.546,31.7
37.562,35.75
37.578,37.28
37.593,36.68
37.609,34.68
37.625,32.16
37.640,29.99
37.656,28.7
37.671,28.41
37.687,28.77
37.703,29.31
37.718,29.54
37.734,29.25
37.750,28.54
37.765,27.63
37.781,26.79
37.796,26.07
37.812,25.2
37.828,23.72
37.843,21.12
37.859,17.14
37.875,11.87
37.890,5.79
37.906,-0.44
37.921,-6.19
37.937,-11.11
37.953,-15.24
37.968,-18.91
37.984,-22.68
38.000,-27.14
38.015,-32.77
38.031,-39.81
38.046,-48.08
38.062,-56.84
38.078,-64.77
38.093,-70.23
38.109,-71.61
38.125,-67.91
38.140,-59.11
38.156,-46.25
38.171,-31.11
38.187,-15.6
38.203,-1.29
38.218,10.93
38.234,20.66
38.250,27.88
38.265,32.57
38.281,34.8
38.296,34.8
38.312,33.11
38.328,30.59
38.343,28.2
38.359,26.69
38.375,26.33
38.390,26.85
38.406,27.63
38.421,28.01
38.437,27.57
38.453,26.28
38.468,24.43
38.484,22.45
38.500,20.67
38.515,19.08
38.531,17.36
38.546,14.98
38.562,11.42
38.578,6.53
38.593,0.55
38.609,-5.89
38.625,-11.99
38.640,-17.16
38.656,-21.27
38.671,-24.72
38.687,-28.3
38.703,-32.88
38.718,-39.11
38.734,-47.1
38.750,-56.37
38.765,-65.83
38.781,-73.93
38.796,-78.99
38.812,-79.59
38.828,-74.91
38.843,-65.05
38.859,-51.05
38.875,-34.56
38.890,-17.5
38.906,-1.55
38.921,12.15
38.937,23.08
38.953,31.17
38.968,36.57
38.984,39.59
39.000,40.6
39.015,40.09
39.031,38.66
39.046,36.98
39.062,35.5
39.078,34.45
39.093,33.72
39.109,33.01
39.125,32.08
39.140,30.85
39.156,29.46
39.171,28.13
39.187,26.97
39.203,25.88
39.218,24.52
39.234,22.49
39.250,19.45
39.265,15.29
39.281,10.11
39.296,4.22
39.312,-2.0
39.328,-8.14
39.343,-13.94
39.359,-19.3
39.375,-24.35
39.390,-29.55
39.406,-35.53
39.421,-42.94
39.437,-52.07
39.453,-62.5
39.468,-73.04
39.484,-81.8
39.500,-86.7
39.515,-86.09
39.531,-79.39
39.546,-67.19
39.562,-51.18
39.578,-33.49
39.593,-16.11
39.609,-0.39
39.625,13.03
39.640,24.05
39.656,32.71
39.671,39.06
39.687,43.05
39.703,44.78
39.718,44.66
39.734,43.46
39.750,42.05
39.765,41.21
39.781,41.21
39.796,41.79
39.812,42.34
39.828,42.22
39.843,41.14
39.859,39.3
39.875,37.23
39.890,35.5
39.906,34.33
39.921,33.41
39.937,31.98
39.953,29.23
39.968,24.63
39.984,18.26
40.000,10.75
40.015,3.02
40.031,-4.05
40.046,-10.02
40.062,-15.0
40.078,-19.58
40.093,-24.61
40.109,-30.9
40.125,-38.94
40.140,-48.68
40.156,-59.42
40.171,-69.8
40.187,-78.07
40.203,-82.35
40.218,-81.24
40.234,-74.2
40.250,-61.82
40.265,-45.74
40.281,-28.09
40.296,-10.95
40.312,4.15
40.328,16.52
40.343,26.09
40.359,33.18
40.375,38.2
40.390,41.53
40.406,43.48
40.421,44.43
40.437,44.73
40.453,44.72
40.468,44.63
40.484,44.53
40.500,44.34
40.515,43.95
40.531,43.27
40.546,42.28
40.562,41.07
40.578,39.71
40.593,38.26
40.609,36.64
40.625,34.65
40.640,31.97
40.656,28.31
40.671,23.48
40.687,17.54
40.703,10.85
40.718,3.99
40.734,-2.43
40.750,-7.92
40.765,-12.4
40.781,-16.18
40.796,-20.01
40.812,-24.81
40.828,-31.34
40.843,-39.91
40.859,-50.09
40.875,-60.65
40.890,-69.73
40.906,-75.36
40.921,-75.92
40.937,-70.75
40.953,-60.32
40.968,-46.14
40.984,-30.2
41.000,-14.5
41.015,-0.46
41.031,11.18
41.046,20.26
41.062,26.97
41.078,31.51
41.093,34.09
41.109,34.96
41.125,34.49
41.140,33.25
41.156,31.91
41.171,30.99
41.187,30.7
41.203,30.85
41.218,30.99
41.234,30.6
41.250,29.45
41.265,27.67
41.281,25.69
41.296,23.94
41.312,22.51
41.328,21.16
41.343,19.31
41.359,16.44
41.375,12.33
41.390,7.25
41.406,1.76
41.421,-3.48
41.437,-8.1
41.453,-12.09
41.468,-15.8
41.484,-19.75
41.500,-24.45
41.515,-30.31
41.531,-37.54
41.546,-46.0
41.562,-54.98
41.578,-63.15
41.593,-68.71
41.609,-69.81
41.625,-65.24
41.640,-54.92
41.656,-40.06
41.671,-22.81
41.687,-5.54
41.703,9.93
41.718,22.65
41.734,32.57
41.750,40.07
41.765,45.58
41.781,49.36
41.796,51.48
41.812,52.09
41.828,51.52
41.843,50.38
41.859,49.35
41.875,48.99
41.890,49.56
41.906,50.89
41.921,52.57
41.937,54.1
41.953,55.08
41.968,55.37
41.984,55.06
42.000,54.34
42.015,53.34
42.031,52.06
42.046,50.35
42.062,48.0
42.078,44.93
42.093,41.24
42.109,37.29
42.125,33.56
42.140,30.52
42.156,28.44
42.171,27.28
42.187,26.73
42.203,26.34
42.218,25.75
42.234,24.82
42.250,23.67
42.265,22.55
42.281,21.65
42.296,20.97
42.312,20.27
42.328,19.18
42.343,17.43
42.359,14.98
42.375,12.07
42.390,9.12
42.406,6.53
42.421,4.48
42.437,2.94
42.453,1.6
42.468,0.14
42.484,-1.62
42.500,-3.59
42.515,-5.49
42.531,-7.01
42.546,-8.02
42.562,-8.79
42.578,-9.81
42.593,-11.64
42.609,-14.55
42.625,-18.39
42.640,-22.61
42.656,-26.51
42.671,-29.6
42.687,-31.87
42.703,-33.77
42.718,-36.0
42.734,-39.23
42.750,-43.79
42.765,-49.59
42.781,-56.11
42.796,-62.68
42.812,-68.71
42.828,-73.9
42.843,-78.29
42.859,-82.25
42.875,-86.35
42.890,-91.28
42.906,-97.72
42.921,-106.09
42.937,-116.31
42.953,-127.41
42.968,-137.5
42.984,-143.97
43.000,-144.25
43.015,-136.69
43.031,-121.19
43.046,-99.37
43.062,-74.1
43.078,-48.53
43.093,-25.22
43.109,-5.65
43.125,9.81
43.140,21.4
43.156,29.6
43.171,34.88
43.187,37.62
43.203,38.35
43.218,37.73
43.234,36.59
43.250,35.66
43.265,35.39
43.281,35.78
43.296,36.47
43.312,36.97
43.328,36.89
43.343,36.17
43.359,35.02
43.375,33.78
43.390,32.58
43.406,31.28
43.421,29.44
43.437,26.58
43.453,22.38
43.468,16.86
43.484,10.37
43.500,3.48
43.515,-3.24
43.531,-9.39
43.546,-14.86
43.562,-19.95
43.578,-25.27
43.593,-31.6
43.609,-39.47
43.625,-48.82
43.640,-58.66
43.656,-67.18
43.671,-72.18
43.687,-71.84
43.703,-65.36
43.718,-53.35
43.734,-37.6
43.750,-20.44
43.765,-4.05
43.781,10.09
43.796,21.3
43.812,29.62
43.828,35.39
43.843,39.01
43.859,40.77
43.875,40.96
43.890,39.88
43.906,37.83
43.921,35.24
43.937,32.49
43.953,29.9
43.968,27.73
43.984,26.1
44.000,24.98
44.015,24.2
44.031,23.44
44.046,22.35
44.062,20.6
44.078,18.01
44.093,14.52
44.109,10.29
44.125,5.57
44.140,0.66
44.156,-4.17
44.171,-8.86
44.187,-13.52
44.203,-18.52
44.218,-24.33
44.234,-31.41
44.250,-39.98
44.265,-49.81
44.281,-59.96
44.296,-68.86
44.312,-74.53
44.328,-75.15
44.343,-69.64
44.359,-58.2
44.375,-42.32
44.390,-24.33
44.406,-6.71
44.421,8.69
44.437,20.95
44.453,30.01
44.468,36.23
44.484,40.02
44.500,41.66
44.515,41.38
44.531,39.59
44.546,36.92
44.562,34.14
44.578,31.85
44.593,30.23
44.609,29.14
44.625,28.29
44.640,27.48
44.656,26.71
44.671,26.04
44.687,25.36
44.703,24.35
44.718,22.49
44.734,19.35
44.750,14.84
44.765,9.23
44.781,3.04
44.796,-3.28
44.812,-9.47
44.828,-15.61
44.843,-21.94
44.859,-28.86
44.875,-36.72
44.890,-45.73
44.906,-55.81
44.921,-66.38
44.937,-76.19
44.953,-83.48
44.968,-86.32
44.984,-83.34
45.000,-74.17
45.015,-59.71
45.031,-41.84
45.046,-22.84
45.062,-4.76
45.078,11.07
45.093,24.03
45.109,34.03
45.125,41.2
45.140,45.72
45.156,47.87
45.171,48.09
45.187,46.99
45.203,45.24
45.218,43.48
45.234,42.05
45.250,41.03
45.265,40.26
45.281,39.49
45.296,38.54
45.312,37.35
45.328,35.87
45.343,34.05
45.359,31.73
45.375,28.62
45.390,24.48
45.406,19.19
45.421,12.88
45.437,5.93
45.453,-1.15
45.468,-7.86
45.484,-14.0
45.500,-19.67
45.515,-25.35
45.531,-31.74
45.546,-39.56
45.562,-49.21
45.578,-60.48
45.593,-72.29
45.609,-82.67
45.625,-89.21
45.640,-89.77
45.656,-83.21
45.671,-69.88
45.687,-51.52
45.703,-30.64
45.718,-9.64
45.734,9.84
45.750,27.17
45.765,42.35
45.781,55.58
45.796,66.75
45.812,75.55
45.828,81.74
45.843,85.55
45.859,87.87
45.875,89.95
45.890,92.87
45.906,97.06
45.921,102.11
45.937,107.09
45.953,111.18
45.968,114.19
45.984,116.62
46.000,119.36
46.015,122.95
46.031,127.03
46.046,130.39
46.062,131.46
46.078,129.11
46.093,123.19
46.109,114.56
46.125,104.6
46.140,94.64
46.156,85.58
46.171,77.8
46.187,71.35
46.203,65.8
46.218,60.08
46.234,52.24
46.250,39.67
46.265,19.98
46.281,-7.7
46.296,-41.68
46.312,-77.61
46.328,-109.65
46.343,-132.42
46.359,-142.93
46.375,-141.45
46.390,-131.09
46.406,-116.23
46.421,-100.84
46.437,-87.29
46.453,-76.3
46.468,-67.56
46.484,-60.72
46.500,-55.81
46.515,-53.14
46.531,-52.79
46.546,-54.12
46.562,-55.73
46.578,-56.03
46.593,-53.85
46.609,-49.04
46.625,-42.4
46.640,-35.25
46.656,-28.64
46.671,-22.9
46.687,-17.59
46.703,-11.91
46.718,-5.4
46.734,1.62
46.750,8.06
46.765,12.41
46.781,13.36
46.796,10.31
46.812,3.62
46.828,-5.51
46.843,-15.49
46.859,-24.89
46.875,-32.83
46.890,-39.14
46.906,-44.23
46.921,-48.8
46.937,-53.47
46.953,-58.64
46.968,-64.36
46.984,-70.34
47.000,-75.9
47.015,-79.94
47.031,-81.03
47.046,-77.69
47.062,-68.89
47.078,-54.55
47.093,-35.71
47.109,-14.29
47.125,7.53
47.140,28.01
47.156,46.14
47.171,61.69
47.187,74.78
47.203,85.54
47.218,93.91
47.234,99.8
47.250,103.35
47.265,105.06
47.281,105.76
47.296,106.27
47.312,107.03
47.328,107.97
47.343,108.54
47.359,108.07
47.375,106.12
47.390,102.76
47.406,98.48
47.421,93.92
47.437,89.42
47.453,84.83
47.468,79.51
47.484,72.72
47.500,64.01
47.515,53.52
47.531,42.01
47.546,30.55
47.562,20.14
47.578,11.32
47.593,4.15
47.609,-1.75
47.625,-7.06
47.640,-12.43
47.656,-18.54
47.671,-25.93
47.687,-34.9
47.703,-45.26
47.718,-56.13
47.734,-65.98
47.750,-72.88
47.765,-75.07
47.781,-71.43
47.796,-61.85
47.812,-47.09
47.828,-28.54
47.843,-7.86
47.859,13.19
47.875,32.81
47.890,49.23
47.906,60.86
47.921,66.68
47.937,66.52
47.953,61.2
47.968,52.39
47.984,42.06
48.000,32.03
48.015,23.54
48.031,17.13
48.046,12.8
48.062,10.14
48.078,8.65
48.093,7.85
48.109,7.36
48.125,6.84
48.140,6.05
48.156,4.74
48.171,2.7
48.187,-0.21
48.203,-4.05
48.218,-8.7
48.234,-13.95
48.250,-19.46
48.265,-24.86
48.281,-29.79
48.296,-34.05
48.312,-37.63
48.328,-40.77
48.343,-43.97
48.359,-47.86
48.375,-53.1
48.390,-60.15
48.406,-69.02
48.421,-79.03
48.437,-88.72
48.453,-96.07
48.468,-98.96
48.484,-95.98
48.500,-86.92
48.515,-72.88
48.531,-55.91
48.546,-38.27
48.562,-21.68
48.578,-7.0
48.593,5.64
48.609,16.43
48.625,25.33
48.640,32.02
48.656,36.08
48.671,37.42
48.687,36.61
48.703,34.9
48.718,33.95
48.734,35.22
48.750,39.61
48.765,47.13
48.781,56.87
48.796,67.4
48.812,77.04
48.828,84.34
48.843,88.35
48.859,88.68
48.875,85.47
48.890,79.16
48.906,70.3
48.921,59.34
48.937,46.66
48.953,32.6
48.968,17.7
48.984,2.83
49.000,-10.78
49.015,-21.72
49.031,-28.82
49.046,-31.67
49.062,-31.06
49.078,-29.13
49.093,-29.06
49.109,-34.27
49.125,-47.49
49.140,-69.75
49.156,-99.77
49.171,-134.01
49.187,-167.32
49.203,-194.29
49.218,-210.58
49.234,-214.01
49.250,-204.98
49.265,-185.96
49.281,-160.58
49.296,-132.42
49.312,-104.29
49.328,-77.87
49.343,-53.94
49.359,-32.84
49.375,-14.75
49.390,0.2
49.406,12.09
49.421,21.25
49.437,28.39
49.453,34.26
49.468,39.51
49.484,44.45
49.500,49.02
49.515,52.95
49.531,55.87
49.546,57.56
49.562,57.91
49.578,57.01
49.593,55.13
49.609,52.64
49.625,49.95
49.640,47.39
49.656,45.17
49.671,43.36
49.687,41.85
49.703,40.46
49.718,39.0
49.734,37.29
49.750,35.25
49.765,32.91
49.781,30.41
49.796,27.97
49.812,25.78
49.828,23.8
49.843,21.66
49.859,18.65
49.875,13.85
49.890,6.47
49.906,-3.84
49.921,-16.71
49.937,-30.89
49.953,-44.37
49.968,-54.88
49.984,-60.49
50.000,-60.28
50.015,-54.72
50.031,-45.52
50.046,-35.04
50.062,-25.59
50.078,-18.73
50.093,-15.09
50.109,-14.61
50.125,-16.89
50.140,-21.58
50.156,-28.45
50.171,-37.14
50.187,-47.0
50.203,-57.02
50.218,-65.93
50.234,-72.61
50.250,-76.33
50.265,-76.96
50.281,-74.97
50.296,-71.16
50.312,-66.38
50.328,-61.27
50.343,-56.17
50.359,-51.08
50.375,-46.0
50.390,-41.06
50.406,-36.61
50.421,-33.16
50.437,-31.12
50.453,-30.48
50.468,-30.77
50.484,-31.21
50.500,-31.02
50.515,-29.79
50.531,-27.7
50.546,-25.51
50.562,-24.25
50.578,-24.9
50.593,-28.07
50.609,-33.88
50.625,-41.87
50.640,-51.1
50.656,-60.15
50.671,-67.21
50.687,-70.48
50.703,-68.48
50.718,-60.61
50.734,-47.32
50.750,-30.1
50.765,-11.04
50.781,7.74
50.796,24.61
50.812,38.63
50.828,49.57
50.843,57.56
50.859,62.91
50.875,66.0
50.890,67.25
50.906,67.14
50.921,66.22
50.937,64.93
50.953,63.57
50.968,62.2
50.984,60.69
51.000,58.87
51.015,56.67
51.031,54.17
51.046,51.53
51.062,48.89
51.078,46.2
51.093,43.2
51.109,39.52
51.125,34.9
51.140,29.29
51.156,22.93
51.171,16.24
51.187,9.67
51.203,3.5
51.218,-2.19
51.234,-7.64
51.250,-13.22
51.265,-19.47
51.281,-26.9
51.296,-35.73
51.312,-45.7
51.328,-55.76
51.343,-64.18
51.359,-68.9
51.375,-68.24
51.390,-61.41
51.406,-48.98
51.421,-32.6
51.437,-14.48
51.453,3.34
51.468,19.42
51.484,33.05
51.500,44.0
51.515,52.27
51.531,57.87
51.546,60.87
51.562,61.56
51.578,60.49
51.593,58.46
51.609,56.28
51.625,54.5
51.640,53.37
51.656,52.69
51.671,52.15
51.687,51.37
51.703,50.22
51.718,48.71
51.734,46.99
51.750,45.13
51.765,43.0
51.781,40.29
51.796,36.59
51.812,31.62
51.828,25.36
51.843,18.15
51.859,10.54
51.875,3.12
51.890,-3.73
51.906,-9.97
51.921,-15.97
51.937,-22.38
51.953,-29.96
51.968,-39.27
51.984,-50.29
52.000,-62.17
52.015,-73.25
52.031,-81.28
52.046,-84.13
52.062,-80.45
52.078,-70.18
52.093,-54.64
52.109,-36.05
52.125,-16.78
52.140,1.27
52.156,17.04
52.171,30.18
52.187,40.73
52.203,48.8
52.218,54.38
52.234,57.51
52.250,58.46
52.265,57.86
52.281,56.54
52.296,55.23
52.312,54.23
52.328,53.42
52.343,52.33
52.359,50.57
52.375,48.11
52.390,45.28
52.406,42.61
52.421,40.44
52.437,38.68
52.453,36.74
52.468,33.85
52.484,29.41
52.500,23.35
52.515,16.12
52.531,8.48
52.546,1.16
52.562,-5.4
52.578,-11.17
52.593,-16.45
52.609,-21.85
52.625,-27.96
52.640,-35.36
52.656,-44.27
52.671,-54.39
52.687,-64.73
52.703,-73.57
52.718,-78.84
52.734,-78.72
52.750,-72.29
52.765,-59.95
52.781,-43.31
52.796,-24.66
52.812,-6.24
52.828,10.38
52.843,24.47
52.859,36.03
52.875,45.33
52.890,52.55
52.906,57.68
52.921,60.63
52.937,61.48
52.953,60.66
52.968,58.9
52.984,56.99
53.000,55.55
53.015,54.8
53.031,54.5
53.046,54.17
53.062,53.31
53.078,51.65
53.093,49.29
53.109,46.58
53.125,43.85
53.140,41.18
53.156,38.29
53.171,34.6
53.187,29.58
53.203,22.99
53.218,15.16
53.234,6.84
53.250,-1.06
53.265,-7.86
53.281,-13.37
53.296,-17.97
53.312,-22.36
53.328,-27.39
53.343,-33.77
53.359,-41.94
53.375,-51.78
53.390,-62.5
53.406,-72.57
53.421,-79.97
53.437,-82.72
53.453,-79.53
53.468,-70.23
53.484,-55.86
53.500,-38.35
53.515,-19.8
53.531,-2.02
53.546,13.79
53.562,26.96
53.578,37.14
53.593,44.1
53.609,47.83
53.625,48.61
53.640,47.09
53.656,44.27
53.671,41.19
53.687,38.62
53.703,36.92
53.718,35.9
53.734,35.13
53.750,34.17
53.765,32.8
53.781,31.15
53.796,29.49
53.812,28.03
53.828,26.72
53.843,25.22
53.859,23.07
53.875,19.93
53.890,15.74
53.906,10.77
53.921,5.48
53.937,0.33
53.953,-4.42
53.968,-8.73
53.984,-12.83
54.000,-17.12
54.015,-22.14
54.031,-28.39
54.046,-36.14
54.062,-45.17
54.078,-54.51
54.093,-62.5
54.109,-67.14
54.125,-66.67
54.140,-60.27
54.156,-48.41
54.171,-32.7
54.187,-15.46
54.203,1.05
54.218,15.19
54.234,26.18
54.250,33.95
54.265,38.84
54.281,41.24
54.296,41.55
54.312,40.17
54.328,37.6
54.343,34.52
54.359,31.63
54.375,29.45
54.390,28.2
54.406,27.71
54.421,27.56
54.437,27.24
54.453,26.4
54.468,24.94
54.484,22.99
54.500,20.74
54.515,18.29
54.531,15.58
54.546,12.44
54.562,8.73
54.578,4.45
54.593,-0.19
54.609,-4.96
54.625,-9.66
54.640,-14.33
54.656,-19.28
54.671,-25.01
54.687,-32.0
54.703,-40.34
54.718,-49.4
54.734,-57.76
54.750,-63.45
54.765,-64.58
54.781,-60.05
54.796,-50.03
54.812,-36.0
54.828,-20.2
54.843,-4.86
54.859,8.47
54.875,19.12
54.890,27.14
54.906,32.82
54.921,36.35
54.937,37.78
54.953,37.16
54.968,34.78
54.984,31.27
55.000,27.43
55.015,23.94
55.031,21.26
55.046,19.42
55.062,18.16
55.078,17.17
55.093,16.09
55.109,14.69
55.125,12.86
55.140,10.59
55.156,7.88
55.171,4.77
55.187,1.25
55.203,-2.69
55.218,-7.03
55.234,-11.71
55.250,-16.59
55.265,-21.51
55.281,-26.44
55.296,-31.58
55.312,-37.41
55.328,-44.41
55.343,-52.75
55.359,-61.79
55.375,-70.02
55.390,-75.32
55.406,-75.67
55.421,-69.9
55.437,-58.29
55.453,-42.43
55.468,-24.7
55.484,-7.45
55.500,7.74
55.515,20.18
55.531,29.89
55.546,37.11
55.562,42.0
55.578,44.59
55.593,44.99
55.609,43.56
55.625,41.05
55.640,38.27
55.656,35.89
55.671,34.15
55.687,32.86
55.703,31.61
55.718,30.04
55.734,28.0
55.750,25.53
55.765,22.74
55.781,19.65
55.796,16.13
55.812,11.96
55.828,7.04
55.843,1.44
55.859,-4.56
55.875,-10.54
55.890,-16.18
55.906,-21.42
55.921,-26.55
55.937,-32.2
55.953,-39.03
55.968,-47.41
55.984,-57.08
56.000,-66.97
56.015,-75.32
56.031,-80.18
56.046,-79.93
56.062,-73.92
56.078,-62.62
56.093,-47.51
56.109,-30.57
56.125,-13.77
56.140,1.48
56.156,14.4
56.171,24.73
56.187,32.52
56.203,37.87
56.218,40.93
56.234,41.95
56.250,41.32
56.265,39.6
56.281,37.42
56.296,35.22
56.312,33.28
56.328,31.62
56.343,30.17
56.359,28.88
56.375,27.76
56.390,26.85
56.406,26.03
56.421,25.03
56.437,23.43
56.453,20.84
56.468,17.07
56.484,12.17
56.500,6.51
56.515,0.55
56.531,-5.26
56.546,-10.64
56.562,-15.59
56.578,-20.37
56.593,-25.47
56.609,-31.48
56.625,-38.83
56.640,-47.51
56.656,-56.8
56.671,-65.21
56.687,-70.77
56.703,-71.54
56.718,-66.31
56.734,-55.02
56.750,-38.81
56.765,-19.73
56.781,-0.08
56.796,18.13
56.812,33.65
56.828,46.05
56.843,55.52
56.859,62.66
56.875,68.14
56.890,72.52
56.906,76.08
56.921,78.89
56.937,80.93
56.953,82.25
56.968,83.08
56.984,83.83
57.000,85.04
57.015,87.18
57.031,90.44
57.046,94.6
57.062,99.09
57.078,103.08
57.093,105.82
57.109,106.91
57.125,106.49
57.140,105.32
57.156,104.69
57.171,106.04
57.187,110.37
57.203,117.44
57.218,125.39
57.234,130.73
57.250,129.08
57.265,116.35
57.281,90.16
57.296,50.73
57.312,1.22
57.328,-52.76
57.343,-104.41
57.359,-147.32
57.375,-176.85
57.390,-191.0
57.406,-190.57
57.421,-178.55
57.437,-158.95
57.453,-135.76
57.468,-112.09
57.484,-90.0
57.500,-70.81
57.515,-55.43
57.531,-44.55
57.546,-38.47
57.562,-36.56
57.578,-37.26
57.593,-38.44
57.609,-38.12
57.625,-35.31
57.640,-30.33
57.656,-24.5
57.671,-19.41
57.687,-16.12
57.703,-14.82
57.718,-15.07
57.734,-16.33
57.750,-18.43
57.765,-21.71
57.781,-26.68
57.796,-33.52
57.812,-41.84
57.828,-50.65
57.843,-58.76
57.859,-65.23
57.875,-69.76
57.890,-72.66
57.906,-74.82
57.921,-77.3
57.937,-81.02
57.953,-86.35
57.968,-92.88
57.984,-99.33
58.000,-103.81
58.015,-104.37
58.031,-99.64
58.046,-89.33
58.062,-74.27
58.078,-56.12
58.093,-36.8
58.109,-17.94
58.125,-0.66
58.140,14.41
58.156,26.92
58.171,36.7
58.187,43.73
58.203,48.2
58.218,50.62
58.234,51.68
58.250,52.04
58.265,52.19
58.281,52.28
58.296,52.27
58.312,52.03
58.328,51.47
58.343,50.52
58.359,49.08
58.375,47.01
58.390,44.04
58.406,39.98
58.421,34.74
58.437,28.51
58.453,21.7
58.468,14.92
58.484,8.71
58.500,3.43
58.515,-0.9
58.531,-4.71
58.546,-8.75
58.562,-13.93
58.578,-21.05
58.593,-30.41
58.609,-41.54
58.625,-53.02
58.640,-62.63
58.656,-67.92
58.671,-66.93
58.687,-58.87
58.703,-44.49
58.718,-25.76
58.734,-5.13
58.750,15.16
58.765,33.65
58.781,49.59
58.796,62.66
58.812,72.59
58.828,79.08
58.843,81.99
58.859,81.54
58.875,78.51
58.890,74.01
58.906,69.26
58.921,65.23
58.937,62.49
58.953,61.09
58.968,60.7
58.984,60.7
59.000,60.47
59.015,59.59
59.031,57.86
59.046,55.31
59.062,51.94
59.078,47.6
59.093,41.91
59.109,34.46
59.125,25.14
59.140,14.38
59.156,3.08
59.171,-7.67
59.187,-16.99
59.203,-24.61
59.218,-30.93
59.234,-36.89
59.250,-43.49
59.265,-51.36
59.281,-60.36
59.296,-69.39
59.312,-76.6
59.328,-79.77
59.343,-77.11
59.359,-67.91
59.375,-52.91
59.390,-34.19
59.406,-14.54
59.421,3.48
59.437,18.27
59.453,29.72
59.468,38.87
59.484,47.28
59.500,56.15
59.515,65.72
59.531,75.23
59.546,83.32
59.562,88.85
59.578,91.3
59.593,90.94
59.609,88.42
59.625,84.37
59.640,79.03
59.656,72.41
59.671,64.62
59.687,56.17
59.703,48.19
59.718,41.94
59.734,38.42
59.750,37.75
59.765,39.12
59.781,41.06
59.796,42.04
59.812,41.05
59.828,37.92
59.843,33.3
59.859,28.21
59.875,23.57
59.890,19.78
59.906,16.66
59.921,13.61
59.937,9.88
59.953,4.75
59.968,-2.54
59.984,-12.73
