timestamp,value
00.000,-52.56
00.015,-48.35
00.031,-46.63
00.046,-47.7
00.062,-51.59
00.078,-57.69
00.093,-64.57
00.109,-70.16
00.125,-72.28
00.140,-69.41
00.156,-61.18
00.171,-48.41
00.187,-32.72
00.203,-15.91
00.218,0.58
00.234,15.87
00.250,29.6
00.265,41.69
00.281,52.17
00.296,61.02
00.312,68.23
00.328,73.86
00.343,78.06
00.359,81.11
00.375,83.34
00.390,84.96
00.406,85.96
00.421,86.13
00.437,85.17
00.453,82.93
00.468,79.64
00.484,75.87
00.500,72.45
00.515,70.13
00.531,69.25
00.546,69.56
00.562,70.25
00.578,70.21
00.593,68.42
00.609,64.36
00.625,58.15
00.640,50.45
00.656,42.2
00.671,34.17
00.687,26.73
00.703,19.88
00.718,13.38
00.734,7.08
00.750,0.99
00.765,-4.74
00.781,-10.02
00.796,-14.99
00.812,-20.06
00.828,-25.68
00.843,-32.16
00.859,-39.47
00.875,-47.2
00.890,-54.78
00.906,-61.56
00.921,-66.99
00.937,-70.62
00.953,-72.12
00.968,-71.28
00.984,-67.99
01.000,-62.39
01.015,-54.77
01.031,-45.67
01.046,-35.7
01.062,-25.54
01.078,-15.85
01.093,-7.22
01.109,-0.09
01.125,5.27
01.140,8.86
01.156,10.92
01.171,11.86
01.187,12.12
01.203,12.05
01.218,11.81
01.234,11.38
01.250,10.69
01.265,9.69
01.281,8.41
01.296,6.98
01.312,5.53
01.328,4.1
01.343,2.69
01.359,1.21
01.375,-0.38
01.390,-2.13
01.406,-4.07
01.421,-6.3
01.437,-9.02
01.453,-12.42
01.468,-16.64
01.484,-21.6
01.500,-27.08
01.515,-32.76
01.531,-38.41
01.546,-43.99
01.562,-49.68
01.578,-55.69
01.593,-62.18
01.609,-69.11
01.625,-76.11
01.640,-82.5
01.656,-87.35
01.671,-89.68
01.687,-88.59
01.703,-83.6
01.718,-74.75
01.734,-62.67
01.750,-48.38
01.765,-33.05
01.781,-17.61
01.796,-2.66
01.812,11.43
01.828,24.44
01.843,36.07
01.859,45.95
01.875,53.71
01.890,59.17
01.906,62.37
01.921,63.67
01.937,63.55
01.953,62.47
01.968,60.77
01.984,58.63
02.000,56.09
02.015,53.11
02.031,49.67
02.046,45.78
02.062,41.59
02.078,37.26
02.093,33.02
02.109,28.95
02.125,24.95
02.140,20.76
02.156,16.05
02.171,10.6
02.187,4.43
02.203,-2.19
02.218,-8.81
02.234,-15.05
02.250,-20.71
02.265,-25.86
02.281,-30.76
02.296,-35.64
02.312,-40.7
02.328,-46.07
02.343,-51.83
02.359,-58.07
02.375,-64.67
02.390,-71.19
02.406,-76.68
02.421,-79.8
02.437,-79.19
02.453,-74.03
02.468,-64.32
02.484,-51.02
02.500,-35.69
02.515,-19.95
02.531,-5.02
02.546,8.5
02.562,20.51
02.578,31.14
02.593,40.45
02.609,48.4
02.625,54.8
02.640,59.52
02.656,62.66
02.671,64.46
02.687,65.25
02.703,65.34
02.718,64.94
02.734,64.11
02.750,62.87
02.765,61.24
02.781,59.23
02.796,56.93
02.812,54.36
02.828,51.5
02.843,48.26
02.859,44.46
02.875,40.0
02.890,34.79
02.906,28.86
02.921,22.26
02.937,15.1
02.953,7.54
02.968,-0.2
02.984,-7.84
03.000,-15.14
03.015,-21.9
03.031,-28.07
03.046,-33.77
03.062,-39.26
03.078,-44.81
03.093,-50.73
03.109,-57.28
03.125,-64.62
03.140,-72.7
03.156,-81.04
03.171,-88.57
03.187,-93.76
03.203,-94.99
03.218,-91.03
03.234,-81.58
03.250,-67.37
03.265,-49.94
03.281,-31.03
03.296,-12.15
03.312,5.78
03.328,22.33
03.343,37.24
03.359,50.28
03.375,61.07
03.390,69.31
03.406,74.96
03.421,78.39
03.437,80.27
03.453,81.43
03.468,82.5
03.484,83.86
03.500,85.55
03.515,87.37
03.531,89.06
03.546,90.45
03.562,91.49
03.578,92.1
03.593,92.14
03.609,91.25
03.625,88.96
03.640,84.84
03.656,78.66
03.671,70.55
03.687,60.96
03.703,50.45
03.718,39.46
03.734,28.17
03.750,16.62
03.765,4.8
03.781,-7.05
03.796,-18.49
03.812,-28.97
03.828,-38.11
03.843,-45.89
03.859,-52.75
03.875,-59.43
03.890,-66.64
03.906,-74.91
03.921,-84.45
03.937,-95.18
03.953,-106.72
03.968,-118.38
03.984,-129.0
04.000,-137.02
04.015,-140.72
04.031,-138.7
04.046,-130.31
04.062,-116.02
04.078,-97.29
04.093,-76.15
04.109,-54.66
04.125,-34.43
04.140,-16.42
04.156,-0.99
04.171,11.89
04.187,22.44
04.203,30.86
04.218,37.34
04.234,41.99
04.250,44.92
04.265,46.28
04.281,46.34
04.296,45.52
04.312,44.31
04.328,43.16
04.343,42.4
04.359,42.16
04.375,42.37
04.390,42.86
04.406,43.42
04.421,43.82
04.437,43.77
04.453,42.93
04.468,40.97
04.484,37.66
04.500,33.06
04.515,27.48
04.531,21.46
04.546,15.47
04.562,9.7
04.578,3.91
04.593,-2.39
04.609,-9.7
04.625,-18.19
04.640,-27.62
04.656,-37.36
04.671,-46.72
04.687,-55.13
04.703,-62.37
04.718,-68.54
04.734,-73.93
04.750,-78.98
04.765,-84.04
04.781,-89.34
04.796,-94.8
04.812,-99.91
04.828,-103.73
04.843,-105.02
04.859,-102.67
04.875,-96.05
04.890,-85.31
04.906,-71.37
04.921,-55.65
04.937,-39.56
04.953,-24.17
04.968,-10.0
04.984,2.89
05.000,14.6
05.015,25.25
05.031,34.74
05.046,42.84
05.062,49.32
05.078,54.07
05.093,57.16
05.109,58.86
05.125,59.52
05.140,59.51
05.156,59.18
05.171,58.8
05.187,58.55
05.203,58.51
05.218,58.65
05.234,58.78
05.250,58.63
05.265,57.9
05.281,56.34
05.296,53.83
05.312,50.4
05.328,46.21
05.343,41.54
05.359,36.75
05.375,32.18
05.390,28.1
05.406,24.55
05.421,21.32
05.437,18.04
05.453,14.33
05.468,9.99
05.484,5.07
05.500,-0.18
05.515,-5.5
05.531,-10.75
05.546,-16.02
05.562,-21.52
05.578,-27.51
05.593,-34.13
05.609,-41.36
05.625,-48.94
05.640,-56.33
05.656,-62.71
05.671,-67.05
05.687,-68.34
05.703,-65.92
05.718,-59.64
05.734,-50.06
05.750,-38.14
05.765,-25.03
05.781,-11.68
05.796,1.27
05.812,13.55
05.828,24.99
05.843,35.46
05.859,44.7
05.875,52.41
05.890,58.34
05.906,62.31
05.921,64.36
05.937,64.69
05.953,63.75
05.968,62.09
05.984,60.3
06.000,58.93
06.015,58.18
06.031,57.99
06.046,57.95
06.062,57.4
06.078,55.66
06.093,52.23
06.109,46.91
06.125,39.9
06.140,31.73
06.156,23.14
06.171,14.93
06.187,7.8
06.203,2.22
06.218,-1.63
06.234,-3.83
06.250,-4.71
06.265,-4.64
06.281,-3.91
06.296,-2.63
06.312,-0.58
06.328,2.66
06.343,7.61
06.359,14.64
06.375,23.7
06.390,34.32
06.406,45.58
06.421,56.39
06.437,65.64
06.453,72.53
06.468,76.64
06.484,78.08
06.500,77.54
06.515,76.16
06.531,75.28
06.546,76.13
06.562,79.49
06.578,85.5
06.593,93.77
06.609,103.59
06.625,114.25
06.640,125.15
06.656,135.74
06.671,145.44
06.687,153.72
06.703,160.19
06.718,164.82
06.734,167.87
06.750,169.75
06.765,170.69
06.781,170.65
06.796,169.34
06.812,166.5
06.828,162.15
06.843,156.57
06.859,150.11
06.875,142.9
06.890,134.86
06.906,125.83
06.921,115.8
06.937,104.79
06.953,92.85
06.968,79.89
06.984,65.82
07.000,50.85
07.015,35.67
07.031,21.35
07.046,8.93
07.062,-1.09
07.078,-9.03
07.093,-15.97
07.109,-23.27
07.125,-32.11
07.140,-43.08
07.156,-56.11
07.171,-70.53
07.187,-85.15
07.203,-98.64
07.218,-110.04
07.234,-119.49
07.250,-128.38
07.265,-138.93
07.281,-152.99
07.296,-171.01
07.312,-191.59
07.328,-212.09
07.343,-229.82
07.359,-243.08
07.375,-251.46
07.390,-255.27
07.406,-254.84
07.421,-250.16
07.437,-241.19
07.453,-228.52
07.468,-213.63
07.484,-198.61
07.500,-185.33
07.515,-174.64
07.531,-166.07
07.546,-158.39
07.562,-150.36
07.578,-141.37
07.593,-131.56
07.609,-121.53
07.625,-111.84
07.640,-102.71
07.656,-93.92
07.671,-85.04
07.687,-75.77
07.703,-66.09
07.718,-56.31
07.734,-46.86
07.750,-38.09
07.765,-30.14
07.781,-22.92
07.796,-16.23
07.812,-9.89
07.828,-3.89
07.843,1.7
07.859,6.71
07.875,10.99
07.890,14.47
07.906,17.19
07.921,19.22
07.937,20.61
07.953,21.27
07.968,20.93
07.984,19.22
08.000,15.91
08.015,10.97
08.031,4.78
08.046,-2.03
08.062,-8.79
08.078,-15.09
08.093,-20.95
08.109,-26.81
08.125,-33.29
08.140,-41.0
08.156,-50.32
08.171,-61.27
08.187,-73.5
08.203,-86.3
08.218,-98.5
08.234,-108.71
08.250,-115.44
08.265,-117.49
08.281,-114.27
08.296,-105.98
08.312,-93.54
08.328,-78.34
08.343,-61.84
08.359,-45.33
08.375,-29.78
08.390,-15.79
08.406,-3.71
08.421,6.33
08.437,14.38
08.453,20.65
08.468,25.43
08.484,29.05
08.500,31.8
08.515,33.88
08.531,35.4
08.546,36.39
08.562,36.87
08.578,36.83
08.593,36.3
08.609,35.29
08.625,33.89
08.640,32.17
08.656,30.18
08.671,27.95
08.687,25.43
08.703,22.52
08.718,19.14
08.734,15.27
08.750,10.98
08.765,6.45
08.781,1.88
08.796,-2.68
08.812,-7.26
08.828,-12.06
08.843,-17.22
08.859,-22.75
08.875,-28.47
08.890,-34.11
08.906,-39.49
08.921,-44.53
08.937,-49.43
08.953,-54.49
08.968,-60.02
08.984,-66.19
09.000,-73.0
09.015,-80.11
09.031,-86.86
09.046,-92.25
09.062,-95.12
09.078,-94.36
09.093,-89.24
09.109,-79.69
09.125,-66.33
09.140,-50.28
09.156,-32.91
09.171,-15.46
09.187,1.16
09.203,16.37
09.218,29.89
09.234,41.65
09.250,51.56
09.265,59.61
09.281,65.83
09.296,70.3
09.312,73.28
09.328,75.08
09.343,76.11
09.359,76.68
09.375,77.04
09.390,77.24
09.406,77.29
09.421,77.14
09.437,76.72
09.453,76.01
09.468,74.92
09.484,73.34
09.500,71.1
09.515,68.11
09.531,64.36
09.546,60.02
09.562,55.38
09.578,50.68
09.593,46.04
09.609,41.39
09.625,36.49
09.640,31.09
09.656,25.01
09.671,18.28
09.687,11.12
09.703,3.9
09.718,-3.04
09.734,-9.47
09.750,-15.36
09.765,-20.98
09.781,-26.74
09.796,-33.21
09.812,-40.76
09.828,-49.37
09.843,-58.33
09.859,-66.35
09.875,-71.75
09.890,-72.96
09.906,-68.97
09.921,-59.63
09.937,-45.67
09.953,-28.39
09.968,-9.34
09.984,9.98
10.000,28.41
10.015,45.18
10.031,59.85
10.046,72.3
10.062,82.63
10.078,91.05
10.093,97.8
10.109,103.06
10.125,106.91
10.140,109.45
10.156,110.77
10.171,111.03
10.187,110.36
10.203,108.87
10.218,106.57
10.234,103.46
10.250,99.61
10.265,95.09
10.281,90.02
10.296,84.49
10.312,78.4
10.328,71.62
10.343,64.02
10.359,55.58
10.375,46.52
10.390,37.2
10.406,28.09
10.421,19.49
10.437,11.51
10.453,3.95
10.468,-3.59
10.484,-11.56
10.500,-20.23
10.515,-29.6
10.531,-39.36
10.546,-49.04
10.562,-58.17
10.578,-66.5
10.593,-74.09
10.609,-81.36
10.625,-88.87
10.640,-97.08
10.656,-105.99
10.671,-114.97
10.687,-122.73
10.703,-127.59
10.718,-128.0
10.734,-123.04
10.750,-112.71
10.765,-97.87
10.781,-79.94
10.796,-60.46
10.812,-40.69
10.828,-21.57
10.843,-3.69
10.859,12.56
10.875,26.93
10.890,39.2
10.906,49.31
10.921,57.2
10.937,62.97
10.953,66.86
10.968,69.29
10.984,70.87
11.000,72.23
11.015,73.86
11.031,75.91
11.046,78.15
11.062,80.19
11.078,81.65
11.093,82.41
11.109,82.6
11.125,82.48
11.140,82.17
11.156,81.59
11.171,80.5
11.187,78.71
11.203,76.25
11.218,73.45
11.234,70.81
11.250,68.82
11.265,67.78
11.281,67.62
11.296,67.96
11.312,68.21
11.328,67.79
11.343,66.35
11.359,63.89
11.375,60.83
11.390,57.88
11.406,55.84
11.421,55.27
11.437,56.33
11.453,58.68
11.468,61.64
11.484,64.42
11.500,66.36
11.515,67.21
11.531,67.23
11.546,67.16
11.562,68.13
11.578,71.37
11.593,77.84
11.609,87.81
11.625,100.48
11.640,113.98
11.656,125.63
11.671,132.62
11.687,132.76
11.703,125.19
11.718,110.65
11.734,91.23
11.750,69.73
11.765,48.88
11.781,30.76
11.796,16.46
11.812,6.26
11.828,-0.15
11.843,-3.38
11.859,-4.22
11.875,-3.65
11.890,-2.77
11.906,-2.71
11.921,-4.28
11.937,-7.76
11.953,-12.67
11.968,-18.02
11.984,-22.67
12.000,-25.86
12.015,-27.57
12.031,-28.56
12.046,-30.05
12.062,-33.25
12.078,-38.83
12.093,-46.75
12.109,-56.29
12.125,-66.44
12.140,-76.29
12.156,-85.4
12.171,-93.84
12.187,-102.01
12.203,-110.34
12.218,-118.95
12.234,-127.55
12.250,-135.51
12.265,-142.11
12.281,-146.79
12.296,-149.4
12.312,-150.23
12.328,-150.04
12.343,-149.81
12.359,-150.47
12.375,-152.51
12.390,-155.76
12.406,-159.25
12.421,-161.38
12.437,-160.39
12.453,-154.86
12.468,-144.25
12.484,-129.02
12.500,-110.52
12.515,-90.57
12.531,-70.87
12.546,-52.65
12.562,-36.52
12.578,-22.52
12.593,-10.4
12.609,0.13
12.625,9.26
12.640,16.98
12.656,23.26
12.671,28.15
12.687,31.9
12.703,34.9
12.718,37.56
12.734,40.17
12.750,42.75
12.765,45.08
12.781,46.91
12.796,48.12
12.812,48.72
12.828,48.91
12.843,48.86
12.859,48.57
12.875,47.88
12.890,46.51
12.906,44.26
12.921,41.14
12.937,37.42
12.953,33.42
12.968,29.39
12.984,25.24
13.000,20.6
13.015,14.95
13.031,7.92
13.046,-0.44
13.062,-9.62
13.078,-18.78
13.093,-27.17
13.109,-34.31
13.125,-40.32
13.140,-45.77
13.156,-51.48
13.171,-58.27
13.187,-66.58
13.203,-76.32
13.218,-86.73
13.234,-96.39
13.250,-103.48
13.265,-106.22
13.281,-103.4
13.296,-94.77
13.312,-81.28
13.328,-64.68
13.343,-47.05
13.359,-30.12
13.375,-14.92
13.390,-1.67
13.406,9.85
13.421,19.94
13.437,28.77
13.453,36.26
13.468,42.24
13.484,46.67
13.500,49.65
13.515,51.45
13.531,52.34
13.546,52.52
13.562,52.07
13.578,51.04
13.593,49.51
13.609,47.66
13.625,45.81
13.640,44.34
13.656,43.57
13.671,43.64
13.687,44.4
13.703,45.51
13.718,46.47
13.734,46.83
13.750,46.36
13.765,45.05
13.781,43.13
13.796,40.92
13.812,38.71
13.828,36.63
13.843,34.73
13.859,32.95
13.875,31.27
13.890,29.67
13.906,28.19
13.921,26.83
13.937,25.56
13.953,24.27
13.968,22.91
13.984,21.43
14.000,19.88
14.015,18.32
14.031,16.78
14.046,15.19
14.062,13.4
14.078,11.28
14.093,8.81
14.109,6.21
14.125,3.84
14.140,2.07
14.156,1.06
14.171,0.7
14.187,0.6
14.203,0.38
14.218,-0.23
14.234,-1.26
14.250,-2.56
14.265,-3.98
14.281,-5.36
14.296,-6.66
14.312,-7.85
14.328,-8.87
14.343,-9.68
14.359,-10.33
14.375,-11.02
14.390,-12.05
14.406,-13.69
14.421,-16.01
14.437,-18.88
14.453,-22.06
14.468,-25.35
14.484,-28.71
14.500,-32.26
14.515,-36.15
14.531,-40.34
14.546,-44.59
14.562,-48.5
14.578,-51.69
14.593,-54.11
14.609,-56.01
14.625,-57.93
14.640,-60.47
14.656,-64.07
14.671,-68.85
14.687,-74.53
14.703,-80.68
14.718,-86.78
14.734,-92.54
14.750,-97.89
14.765,-103.07
14.781,-108.52
14.796,-114.81
14.812,-122.53
14.828,-131.99
14.843,-142.93
14.859,-154.24
14.875,-163.96
14.890,-169.57
14.906,-168.75
14.921,-160.16
14.937,-143.94
14.953,-121.76
14.968,-96.25
14.984,-70.27
15.000,-46.11
15.015,-25.15
15.031,-7.84
15.046,5.88
15.062,16.32
15.078,23.8
15.093,28.61
15.109,31.19
15.125,32.05
15.140,31.88
15.156,31.31
15.171,30.85
15.187,30.71
15.203,30.8
15.218,30.84
15.234,30.46
15.250,29.42
15.265,27.67
15.281,25.39
15.296,22.88
15.312,20.43
15.328,18.18
15.343,16.08
15.359,13.91
15.375,11.34
15.390,8.1
15.406,3.98
15.421,-1.09
15.437,-7.03
15.453,-13.68
15.468,-20.86
15.484,-28.35
15.500,-35.95
15.515,-43.43
15.531,-50.59
15.546,-57.24
15.562,-63.37
15.578,-69.09
15.593,-74.59
15.609,-79.86
15.625,-84.44
15.640,-87.25
15.656,-86.77
15.671,-81.45
15.687,-70.3
15.703,-53.36
15.718,-31.77
15.734,-7.48
15.750,17.32
15.765,40.78
15.781,61.67
15.796,79.44
15.812,93.96
15.828,105.38
15.843,113.9
15.859,119.74
15.875,123.11
15.890,124.3
15.906,123.62
15.921,121.46
15.937,118.26
15.953,114.53
15.968,110.73
15.984,107.18
16.000,104.0
16.015,101.12
16.031,98.33
16.046,95.46
16.062,92.39
16.078,89.13
16.093,85.73
16.109,82.26
16.125,78.72
16.140,75.11
16.156,71.42
16.171,67.68
16.187,63.96
16.203,60.27
16.218,56.55
16.234,52.68
16.250,48.47
16.265,43.86
16.281,38.91
16.296,33.89
16.312,29.18
16.328,25.1
16.343,21.79
16.359,19.21
16.375,17.1
16.390,15.22
16.406,13.4
16.421,11.66
16.437,10.17
16.453,9.17
16.468,8.87
16.484,9.43
16.500,10.84
16.515,12.95
16.531,15.5
16.546,18.18
16.562,20.71
16.578,22.89
16.593,24.62
16.609,25.86
16.625,26.55
16.640,26.6
16.656,25.93
16.671,24.56
16.687,22.69
16.703,20.69
16.718,18.97
16.734,17.82
16.750,17.25
16.765,16.91
16.781,16.29
16.796,14.86
16.812,12.37
16.828,8.87
16.843,4.62
16.859,-0.08
16.875,-5.0
16.890,-10.07
16.906,-15.26
16.921,-20.5
16.937,-25.65
16.953,-30.51
16.968,-35.03
16.984,-39.42
17.000,-44.2
17.015,-50.1
17.031,-57.84
17.046,-68.0
17.062,-80.96
17.078,-96.91
17.093,-115.74
17.109,-136.81
17.125,-158.63
17.140,-178.83
17.156,-194.41
17.171,-202.56
17.187,-201.53
17.203,-191.27
17.218,-173.46
17.234,-150.86
17.250,-126.36
17.265,-102.14
17.281,-79.32
17.296,-58.1
17.312,-38.27
17.328,-19.68
17.343,-2.45
17.359,13.01
17.375,26.24
17.390,36.89
17.406,44.86
17.421,50.31
17.437,53.57
17.453,55.1
17.468,55.26
17.484,54.32
17.500,52.53
17.515,50.22
17.531,47.95
17.546,46.37
17.562,46.06
17.578,47.21
17.593,49.52
17.609,52.17
17.625,54.12
17.640,54.42
17.656,52.47
17.671,48.11
17.687,41.65
17.703,33.67
17.718,24.85
17.734,15.9
17.750,7.3
17.765,-0.73
17.781,-8.41
17.796,-16.38
17.812,-25.49
17.828,-36.47
17.843,-49.61
17.859,-64.43
17.875,-79.59
17.890,-93.05
17.906,-102.5
17.921,-105.94
17.937,-102.24
17.953,-91.44
17.968,-74.69
17.984,-53.93
18.000,-31.39
18.015,-9.03
18.031,11.68
18.046,29.94
18.062,45.5
18.078,58.5
18.093,69.28
18.109,78.24
18.125,85.69
18.140,91.76
18.156,96.51
18.171,99.83
18.187,101.64
18.203,102.0
18.218,101.06
18.234,99.05
18.250,96.23
18.265,92.84
18.281,89.06
18.296,85.11
18.312,81.16
18.328,77.35
18.343,73.75
18.359,70.29
18.375,66.68
18.390,62.52
18.406,57.37
18.421,50.93
18.437,43.27
18.453,34.75
18.468,25.93
18.484,17.32
18.500,9.07
18.515,0.98
18.531,-7.53
18.546,-17.12
18.562,-28.36
18.578,-41.53
18.593,-56.47
18.609,-72.43
18.625,-88.05
18.640,-101.43
18.656,-110.56
18.671,-113.75
18.687,-110.31
18.703,-100.71
18.718,-86.5
18.734,-69.73
18.750,-52.3
18.765,-35.45
18.781,-19.64
18.796,-4.81
18.812,9.26
18.828,22.68
18.843,35.26
18.859,46.73
18.875,56.82
18.890,65.32
18.906,72.15
18.921,77.29
18.937,80.7
18.953,82.52
18.968,83.05
18.984,82.81
19.000,82.39
19.015,82.25
19.031,82.49
19.046,82.73
19.062,82.26
19.078,80.25
19.093,76.14
19.109,69.75
19.125,61.32
19.140,51.47
19.156,40.84
19.171,30.05
19.187,19.48
19.203,9.28
19.218,-0.63
19.234,-10.46
19.250,-20.46
19.265,-30.81
19.281,-41.54
19.296,-52.51
19.312,-63.47
19.328,-74.26
19.343,-84.91
19.359,-95.71
19.375,-107.09
19.390,-119.39
19.406,-132.49
19.421,-145.59
19.437,-157.09
19.453,-164.93
19.468,-167.02
19.484,-162.0
19.500,-149.63
19.515,-130.92
19.531,-107.82
19.546,-82.62
19.562,-57.32
19.578,-33.28
19.593,-11.14
19.609,9.02
19.625,27.33
19.640,43.87
19.656,58.49
19.671,70.84
19.687,80.52
19.703,87.17
19.718,90.77
19.734,91.69
19.750,90.68
19.765,88.75
19.781,86.79
19.796,85.4
19.812,84.68
19.828,84.3
19.843,83.7
19.859,82.36
19.875,79.96
19.890,76.42
19.906,71.92
19.921,66.68
19.937,60.83
19.953,54.47
19.968,47.64
19.984,40.43
20.000,32.96
20.015,25.28
20.031,17.31
20.046,8.77
20.062,-0.69
20.078,-11.31
20.093,-22.96
20.109,-34.99
20.125,-46.38
20.140,-56.04
20.156,-63.19
20.171,-67.61
20.187,-69.66
20.203,-70.07
20.218,-69.77
20.234,-69.78
20.250,-71.18
20.265,-75.15
20.281,-82.67
20.296,-94.13
20.312,-108.72
20.328,-124.18
20.343,-136.97
20.359,-143.12
20.375,-139.38
20.390,-124.39
20.406,-99.18
20.421,-66.85
20.437,-31.63
20.453,2.45
20.468,32.58
20.484,57.61
20.500,77.81
20.515,94.22
20.531,107.93
20.546,119.65
20.562,129.75
20.578,138.44
20.593,146.11
20.609,153.43
20.625,161.14
20.640,169.77
20.656,179.45
20.671,189.96
20.687,200.94
20.703,212.16
20.718,223.62
20.734,235.41
20.750,247.35
20.765,258.78
20.781,268.58
20.796,275.41
20.812,278.27
20.828,276.96
20.843,272.28
20.859,265.89
20.875,259.86
20.890,256.07
20.906,255.5
20.921,257.67
20.937,260.48
20.953,260.54
20.968,254.11
20.984,238.29
21.000,212.11
21.015,176.88
21.031,135.65
21.046,92.14
21.062,49.42
21.078,9.17
21.093,-28.4
21.109,-64.09
21.125,-99.11
21.140,-134.68
21.156,-171.84
21.171,-211.13
21.187,-252.04
21.203,-292.65
21.218,-329.65
21.234,-359.08
21.250,-377.57
21.265,-383.43
21.281,-377.07
21.296,-360.6
21.312,-336.92
21.328,-308.7
21.343,-277.98
21.359,-246.12
21.375,-214.04
21.390,-182.49
21.406,-152.07
21.421,-123.16
21.437,-95.98
21.453,-70.68
21.468,-47.35
21.484,-26.11
21.500,-6.89
21.515,10.42
21.531,25.67
21.546,38.18
21.562,46.67
21.578,49.68
21.593,46.23
21.609,36.55
21.625,22.24
21.640,5.86
21.656,-9.96
21.671,-23.45
21.687,-34.05
21.703,-42.17
21.718,-48.46
21.734,-53.09
21.750,-55.48
21.765,-54.48
21.781,-48.86
21.796,-37.67
21.812,-20.4
21.828,3.04
21.843,32.08
21.859,65.05
21.875,98.9
21.890,129.27
21.906,151.51
21.921,162.04
21.937,159.65
21.953,145.79
21.968,123.97
21.984,98.21
22.000,71.73
22.015,46.17
22.031,21.8
22.046,-1.77
22.062,-24.68
22.078,-46.46
22.093,-66.04
22.109,-82.05
22.125,-93.41
22.140,-99.5
22.156,-100.18
22.171,-95.58
22.187,-85.79
22.203,-70.64
22.218,-49.88
22.234,-23.45
22.250,8.23
22.265,44.14
22.281,82.92
22.296,123.24
22.312,164.07
22.328,204.56
22.343,243.56
22.359,279.0
22.375,307.8
22.390,326.23
22.406,331.12
22.421,321.03
22.437,296.96
22.453,262.12
22.468,220.87
22.484,177.12
22.500,133.17
22.515,89.53
22.531,45.88
22.546,2.48
22.562,-38.89
22.578,-75.28
22.593,-104.07
22.609,-124.71
22.625,-139.58
22.640,-153.32
22.656,-170.67
22.671,-194.28
22.687,-223.35
22.703,-254.04
22.718,-281.21
22.734,-300.44
22.750,-309.26
22.765,-307.24
22.781,-295.26
22.796,-274.73
22.812,-247.49
22.828,-216.15
22.843,-184.31
22.859,-155.97
22.875,-134.18
22.890,-119.49
22.906,-109.36
22.921,-99.18
22.937,-84.79
22.953,-64.98
22.968,-42.51
22.984,-23.05
23.000,-12.29
23.015,-13.15
23.031,-24.44
23.046,-41.62
23.062,-59.01
23.078,-71.97
23.093,-78.06
23.109,-76.92
23.125,-69.39
23.140,-56.96
23.156,-41.61
23.171,-26.04
23.187,-13.38
23.203,-6.51
23.218,-6.98
23.234,-14.31
23.250,-25.89
23.265,-37.65
23.281,-45.11
23.296,-44.58
23.312,-34.16
23.328,-14.46
23.343,11.27
23.359,38.11
23.375,60.98
23.390,76.48
23.406,83.86
23.421,84.66
23.437,81.17
23.453,74.65
23.468,64.33
23.484,47.95
23.500,23.25
23.515,-10.35
23.531,-51.02
23.546,-94.89
23.562,-137.26
23.578,-173.72
23.593,-201.01
23.609,-217.32
23.625,-222.28
23.640,-216.94
23.656,-203.48
23.671,-184.73
23.687,-163.29
23.703,-140.78
23.718,-117.67
23.734,-93.69
23.750,-68.95
23.765,-44.89
23.781,-24.73
23.796,-12.76
23.812,-13.06
23.828,-27.82
23.843,-56.26
23.859,-94.4
23.875,-135.73
23.890,-172.88
23.906,-199.44
23.921,-211.54
23.937,-208.44
23.953,-192.26
23.968,-166.75
23.984,-136.03
24.000,-103.56
24.015,-71.71
24.031,-41.84
24.046,-14.73
24.062,9.28
24.078,30.26
24.093,48.71
24.109,65.56
24.125,81.8
24.140,98.03
24.156,114.02
24.171,128.73
24.187,140.74
24.203,148.88
24.218,152.85
24.234,153.35
24.250,151.69
24.265,149.38
24.281,147.49
24.296,146.46
24.312,146.14
24.328,146.0
24.343,145.46
24.359,144.09
24.375,141.62
24.390,137.92
24.406,133.0
24.421,126.95
24.437,120.01
24.453,112.42
24.468,104.45
24.484,96.23
24.500,87.78
24.515,79.0
24.531,69.75
24.546,59.97
24.562,49.69
24.578,39.12
24.593,28.6
24.609,18.54
24.625,9.31
24.640,1.0
24.656,-6.6
24.671,-14.06
24.687,-22.17
24.703,-31.7
24.718,-43.17
24.734,-56.49
24.750,-70.98
24.765,-85.35
24.781,-97.87
24.796,-106.7
24.812,-110.26
24.828,-107.65
24.843,-98.94
24.859,-85.18
24.875,-68.13
24.890,-49.73
24.906,-31.59
24.921,-14.63
24.937,0.97
24.953,15.49
24.968,29.28
24.984,42.47
25.000,54.81
25.015,65.87
25.031,75.19
25.046,82.43
25.062,87.51
25.078,90.48
25.093,91.63
25.109,91.36
25.125,90.19
25.140,88.74
25.156,87.61
25.171,87.24
25.187,87.78
25.203,89.07
25.218,90.62
25.234,91.75
25.250,91.71
25.265,89.89
25.281,85.97
25.296,79.99
25.312,72.37
25.328,63.8
25.343,55.0
25.359,46.46
25.375,38.38
25.390,30.58
25.406,22.78
25.421,14.7
25.437,6.23
25.453,-2.63
25.468,-11.78
25.484,-21.18
25.500,-30.86
25.515,-40.91
25.531,-51.34
25.546,-62.2
25.562,-73.49
25.578,-85.31
25.593,-97.81
25.609,-111.1
25.625,-124.91
25.640,-138.5
25.656,-150.54
25.671,-159.49
25.687,-163.96
25.703,-163.34
25.718,-158.09
25.734,-149.66
25.750,-140.09
25.765,-131.4
25.781,-125.14
25.796,-122.19
25.812,-122.87
25.828,-127.12
25.843,-134.56
25.859,-144.38
25.875,-154.97
25.890,-163.86
25.906,-167.98
25.921,-164.35
25.937,-150.93
25.953,-127.3
25.968,-94.84
25.984,-56.33
26.000,-15.18
26.015,25.16
26.031,61.83
26.046,92.65
26.062,116.27
26.078,132.16
26.093,140.73
26.109,143.34
26.125,142.17
26.140,139.88
26.156,139.16
26.171,142.09
26.187,149.77
26.203,161.97
26.218,177.08
26.234,192.46
26.250,205.06
26.265,212.26
26.281,212.62
26.296,206.36
26.312,195.1
26.328,181.28
26.343,167.28
26.359,154.62
26.375,143.75
26.390,134.24
26.406,125.23
26.421,115.87
26.437,105.52
26.453,93.62
26.468,79.48
26.484,62.43
26.500,42.14
26.515,19.23
26.531,-4.4
26.546,-25.83
26.562,-41.94
26.578,-50.54
26.593,-51.17
26.609,-45.26
26.625,-35.42
26.640,-24.37
26.656,-13.95
26.671,-4.94
26.687,2.77
26.703,9.6
26.718,15.82
26.734,21.48
26.750,26.57
26.765,31.18
26.781,35.45
26.796,39.5
26.812,43.14
26.828,45.9
26.843,47.06
26.859,45.96
26.875,42.21
26.890,35.86
26.906,27.56
26.921,18.39
26.937,9.73
26.953,2.91
26.968,-1.11
26.984,-2.02
27.000,-0.16
27.015,3.65
27.031,8.42
27.046,13.36
27.062,17.99
27.078,22.19
27.093,26.03
27.109,29.61
27.125,32.94
27.140,35.88
27.156,38.14
27.171,39.45
27.187,39.64
27.203,38.78
27.218,37.19
27.234,35.39
27.250,33.9
27.265,33.0
27.281,32.57
27.296,32.16
27.312,31.21
27.328,29.24
27.343,26.11
27.359,22.14
27.375,18.1
27.390,15.13
27.406,14.53
27.421,17.54
27.437,25.0
27.453,37.18
27.468,53.59
27.484,73.15
27.500,94.34
27.515,115.67
27.531,136.0
27.546,154.7
27.562,171.63
27.578,186.76
27.593,199.77
27.609,209.75
27.625,215.24
27.640,214.59
27.656,206.63
27.671,191.26
27.687,169.72
27.703,144.36
27.718,118.08
27.734,93.51
27.750,72.39
27.765,55.43
27.781,42.35
27.796,32.3
27.812,24.18
27.828,17.04
27.843,10.17
27.859,3.19
27.875,-4.11
27.890,-11.87
27.906,-20.23
27.921,-29.46
27.937,-39.83
27.953,-51.53
27.968,-64.6
27.984,-78.93
28.000,-94.3
28.015,-110.52
28.031,-127.33
28.046,-144.33
28.062,-160.85
28.078,-175.93
28.093,-188.51
28.109,-197.71
28.125,-203.16
28.140,-205.14
28.156,-204.48
28.171,-202.31
28.187,-199.78
28.203,-197.75
28.218,-196.65
28.234,-196.34
28.250,-196.24
28.265,-195.35
28.281,-192.6
28.296,-187.12
28.312,-178.67
28.328,-167.8
28.343,-155.73
28.359,-144.03
28.375,-134.04
28.390,-126.45
28.406,-121.04
28.421,-116.75
28.437,-111.93
28.453,-104.95
28.468,-94.62
28.484,-80.75
28.500,-64.23
28.515,-46.78
28.531,-30.35
28.546,-16.36
28.562,-5.24
28.578,3.56
28.593,11.13
28.609,18.45
28.625,26.03
28.640,33.84
28.656,41.72
28.671,49.65
28.687,57.88
28.703,66.72
28.718,76.09
28.734,85.3
28.750,93.09
28.765,98.03
28.781,99.08
28.796,96.02
28.812,89.54
28.828,80.98
28.843,71.84
28.859,63.29
28.875,55.95
28.890,49.8
28.906,44.47
28.921,39.52
28.937,34.68
28.953,29.83
28.968,24.9
28.984,19.72
29.000,13.89
29.015,7.0
29.031,-1.2
29.046,-10.62
29.062,-20.81
29.078,-31.16
29.093,-41.17
29.109,-50.61
29.125,-59.45
29.140,-67.57
29.156,-74.51
29.171,-79.27
29.187,-80.62
29.203,-77.5
29.218,-69.48
29.234,-56.95
29.250,-41.05
29.265,-23.25
29.281,-4.94
29.296,12.74
29.312,28.96
29.328,43.14
29.343,54.84
29.359,63.88
29.375,70.4
29.390,74.82
29.406,77.69
29.421,79.55
29.437,80.65
29.453,80.99
29.468,80.42
29.484,78.82
29.500,76.29
29.515,73.14
29.531,69.79
29.546,66.54
29.562,63.45
29.578,60.31
29.593,56.72
29.609,52.28
29.625,46.68
29.640,39.85
29.656,31.86
29.671,22.92
29.687,13.38
29.703,3.68
29.718,-5.59
29.734,-13.84
29.750,-20.68
29.765,-26.09
29.781,-30.4
29.796,-34.14
29.812,-37.7
29.828,-41.14
29.843,-44.15
29.859,-46.44
29.875,-48.05
29.890,-49.58
29.906,-52.09
29.921,-56.54
29.937,-63.29
29.953,-71.72
29.968,-80.31
29.984,-87.11
30.000,-90.34
30.015,-88.91
30.031,-82.58
30.046,-71.84
30.062,-57.59
30.078,-40.86
30.093,-22.58
30.109,-3.61
30.125,15.19
30.140,32.96
30.156,48.89
30.171,62.34
30.187,72.97
30.203,80.73
30.218,85.79
30.234,88.34
30.250,88.54
30.265,86.42
30.281,82.05
30.296,75.65
30.312,67.69
30.328,58.94
30.343,50.28
30.359,42.51
30.375,36.08
30.390,30.97
30.406,26.69
30.421,22.45
30.437,17.46
30.453,11.2
30.468,3.57
30.484,-5.18
30.500,-14.55
30.515,-23.97
30.531,-32.89
30.546,-40.89
30.562,-47.63
30.578,-52.88
30.593,-56.66
30.609,-59.15
30.625,-60.86
30.640,-62.31
30.656,-64.04
30.671,-66.4
30.687,-69.55
30.703,-73.52
30.718,-78.26
30.734,-83.77
30.750,-89.89
30.765,-96.28
30.781,-102.16
30.796,-106.39
30.812,-107.66
30.828,-104.86
30.843,-97.47
30.859,-85.75
30.875,-70.72
30.890,-53.74
30.906,-36.2
30.921,-19.11
30.937,-3.03
30.953,11.87
30.968,25.56
30.984,37.98
31.000,48.89
31.015,57.95
31.031,64.92
31.046,69.77
31.062,72.73
31.078,74.2
31.093,74.63
31.109,74.38
31.125,73.66
31.140,72.54
31.156,71.07
31.171,69.35
31.187,67.53
31.203,65.82
31.218,64.43
31.234,63.41
31.250,62.73
31.265,62.29
31.281,61.99
31.296,61.84
31.312,61.91
31.328,62.33
31.343,63.12
31.359,64.24
31.375,65.42
31.390,66.34
31.406,66.7
31.421,66.29
31.437,65.07
31.453,63.05
31.468,60.18
31.484,56.24
31.500,50.86
31.515,43.58
31.531,34.06
31.546,22.18
31.562,8.1
31.578,-7.7
31.593,-24.48
31.609,-41.19
31.625,-56.5
31.640,-68.97
31.656,-77.36
31.671,-80.95
31.687,-79.79
31.703,-74.83
31.718,-67.57
31.734,-59.66
31.750,-52.53
31.765,-47.11
31.781,-43.75
31.796,-42.32
31.812,-42.34
31.828,-43.09
31.843,-43.69
31.859,-43.2
31.875,-40.77
31.890,-35.83
31.906,-28.14
31.921,-17.83
31.937,-5.3
31.953,8.89
31.968,24.1
31.984,39.67
32.000,54.93
32.015,69.33
32.031,82.55
32.046,94.58
32.062,105.67
32.078,116.29
32.093,126.77
32.109,137.2
32.125,147.29
32.140,156.37
32.156,163.51
32.171,167.62
32.187,167.58
32.203,162.43
32.218,151.51
32.234,134.76
32.250,112.85
32.265,87.24
32.281,59.93
32.296,33.08
32.312,8.51
32.328,-12.74
32.343,-30.46
32.359,-45.11
32.375,-57.33
32.390,-67.54
32.406,-75.78
32.421,-81.75
32.437,-85.27
32.453,-86.47
32.468,-85.92
32.484,-84.27
32.500,-81.75
32.515,-77.89
32.531,-71.65
32.546,-61.94
32.562,-48.37
32.578,-31.63
32.593,-13.44
32.609,4.07
32.625,19.09
32.640,30.8
32.656,39.43
32.671,45.87
32.687,51.08
32.703,55.51
32.718,59.02
32.734,61.15
32.750,61.52
32.765,60.03
32.781,56.86
32.796,52.26
32.812,46.34
32.828,39.26
32.843,31.38
32.859,23.52
32.875,16.78
32.890,12.2
32.906,10.15
32.921,10.0
32.937,10.14
32.953,8.56
32.968,3.52
32.984,-5.82
33.000,-19.23
33.015,-35.65
33.031,-53.63
33.046,-71.74
33.062,-88.79
33.078,-103.81
33.093,-116.01
33.109,-124.76
33.125,-129.74
33.140,-131.12
33.156,-129.71
33.171,-126.79
33.187,-123.76
33.203,-121.67
33.218,-120.91
33.234,-121.34
33.250,-122.48
33.265,-123.93
33.281,-125.37
33.296,-126.42
33.312,-126.39
33.328,-124.22
33.343,-118.66
33.359,-108.71
33.375,-94.01
33.390,-75.07
33.406,-53.1
33.421,-29.6
33.437,-5.85
33.453,17.31
33.468,39.57
33.484,60.92
33.500,81.37
33.515,100.73
33.531,118.71
33.546,135.04
33.562,149.63
33.578,162.51
33.593,173.7
33.609,182.98
33.625,189.91
33.640,194.14
33.656,195.79
33.671,195.74
33.687,195.57
33.703,197.06
33.718,201.51
33.734,209.25
33.750,219.68
33.765,231.78
33.781,244.62
33.796,257.65
33.812,270.41
33.828,281.93
33.843,290.26
33.859,292.65
33.875,286.35
33.890,269.77
33.906,243.31
33.921,209.37
33.937,171.62
33.953,133.72
33.968,98.23
33.984,66.17
34.000,37.16
34.015,10.12
34.031,-16.15
34.046,-42.56
34.062,-69.7
34.078,-98.1
34.093,-128.23
34.109,-160.2
34.125,-193.09
34.140,-224.57
34.156,-251.16
34.171,-269.44
34.187,-277.59
34.203,-276.44
34.218,-269.35
34.234,-260.79
34.250,-254.37
34.265,-251.26
34.281,-250.08
34.296,-247.84
34.312,-241.63
34.328,-229.68
34.343,-211.34
34.359,-186.09
34.375,-152.56
34.390,-108.48
34.406,-51.92
34.421,16.64
34.437,92.71
34.453,167.81
34.468,231.34
34.484,273.85
34.500,290.12
34.515,280.55
34.531,250.52
34.546,208.11
34.562,161.45
34.578,116.88
34.593,78.35
34.609,47.57
34.625,24.44
34.640,7.41
34.656,-6.22
34.671,-19.91
34.687,-36.95
34.703,-59.79
34.718,-89.4
34.734,-125.3
34.750,-165.8
34.765,-208.11
34.781,-248.66
34.796,-283.47
34.812,-309.31
34.828,-324.93
34.843,-332.14
34.859,-335.68
34.875,-341.61
34.890,-354.96
34.906,-377.57
34.921,-407.33
34.937,-438.96
34.953,-465.96
34.968,-482.52
34.984,-484.87
35.000,-471.49
35.015,-442.75
35.031,-400.27
35.046,-346.65
35.062,-285.44
35.078,-221.09
35.093,-158.58
35.109,-102.61
35.125,-56.73
35.140,-22.56
35.156,0.37
35.171,14.21
35.187,21.95
35.203,26.52
35.218,30.15
35.234,34.06
35.250,38.64
35.265,43.66
35.281,48.59
35.296,52.77
35.312,55.46
35.328,56.12
35.343,54.64
35.359,51.72
35.375,48.68
35.390,47.01
35.406,47.45
35.421,49.17
35.437,49.67
35.453,45.57
35.468,34.16
35.484,14.79
35.500,-10.55
35.515,-37.85
35.531,-62.49
35.546,-80.58
35.562,-89.65
35.578,-88.51
35.593,-76.84
35.609,-55.08
35.625,-24.93
35.640,9.99
35.656,44.05
35.671,70.58
35.687,83.72
35.703,80.39
35.718,61.42
35.734,31.19
35.750,-3.83
35.765,-37.16
35.781,-63.86
35.796,-81.23
35.812,-88.49
35.828,-86.02
35.843,-74.74
35.859,-55.98
35.875,-31.79
35.890,-4.94
35.906,21.53
35.921,45.34
35.937,65.94
35.953,84.73
35.968,104.25
35.984,126.15
36.000,149.38
36.015,169.75
36.031,181.23
36.046,178.73
36.062,160.68
36.078,130.03
36.093,92.96
36.109,56.21
36.125,24.5
36.140,-0.55
36.156,-19.62
36.171,-33.94
36.187,-43.92
36.203,-48.89
36.218,-48.02
36.234,-41.53
36.250,-31.13
36.265,-19.45
36.281,-8.75
36.296,0.12
36.312,7.81
36.328,15.65
36.343,24.42
36.359,33.46
36.375,40.7
36.390,43.4
36.406,39.38
36.421,27.96
36.437,10.28
36.453,-11.26
36.468,-33.98
36.484,-55.77
36.500,-75.55
36.515,-92.94
36.531,-107.6
36.546,-118.62
36.562,-124.39
36.578,-123.1
36.593,-113.54
36.609,-95.88
36.625,-71.72
36.640,-43.7
36.656,-14.68
36.671,13.07
36.687,38.24
36.703,60.47
36.718,79.93
36.734,96.83
36.750,111.13
36.765,122.4
36.781,130.03
36.796,133.63
36.812,133.34
36.828,130.05
36.843,125.17
36.859,120.25
36.875,116.52
36.890,114.49
36.906,113.96
36.921,114.29
36.937,114.87
36.953,115.36
36.968,115.77
36.984,116.25
37.000,116.75
37.015,116.86
37.031,115.95
37.046,113.38
37.062,108.89
37.078,102.84
37.093,96.05
37.109,89.54
37.125,84.11
37.140,80.0
37.156,76.9
37.171,74.07
37.187,70.78
37.203,66.56
37.218,61.32
37.234,55.28
37.250,48.74
37.265,41.97
37.281,35.09
37.296,28.26
37.312,21.68
37.328,15.65
37.343,10.53
37.359,6.58
37.375,3.94
37.390,2.64
37.406,2.67
37.421,4.05
37.437,6.79
37.453,10.84
37.468,15.98
37.484,21.75
37.500,27.54
37.515,32.7
37.531,36.71
37.546,39.3
37.562,40.46
37.578,40.4
37.593,39.47
37.609,38.02
37.625,36.42
37.640,34.93
37.656,33.8
37.671,33.21
37.687,33.18
37.703,33.58
37.718,34.06
37.734,34.2
37.750,33.65
37.765,32.26
37.781,30.08
37.796,27.38
37.812,24.53
37.828,21.88
37.843,19.65
37.859,17.88
37.875,16.41
37.890,14.93
37.906,13.11
37.921,10.65
37.937,7.49
37.953,3.81
37.968,-0.11
37.984,-4.02
38.000,-7.88
38.015,-11.95
38.031,-16.55
38.046,-21.86
38.062,-27.72
38.078,-33.54
38.093,-38.53
38.109,-41.95
38.125,-43.44
38.140,-43.07
38.156,-41.31
38.171,-38.77
38.187,-35.92
38.203,-32.94
38.218,-29.77
38.234,-26.19
38.250,-22.01
38.265,-17.13
38.281,-11.56
38.296,-5.31
38.312,1.56
38.328,8.98
38.343,16.85
38.359,24.96
38.375,33.03
38.390,40.75
38.406,47.85
38.421,54.11
38.437,59.41
38.453,63.76
38.468,67.34
38.484,70.49
38.500,73.62
38.515,77.11
38.531,81.11
38.546,85.55
38.562,90.2
38.578,94.75
38.593,98.99
38.609,102.83
38.625,106.26
38.640,109.28
38.656,111.84
38.671,113.86
38.687,115.29
38.703,116.14
38.718,116.42
38.734,116.12
38.750,115.15
38.765,113.29
38.781,110.25
38.796,105.79
38.812,99.94
38.828,92.94
38.843,85.3
38.859,77.32
38.875,68.92
38.890,59.55
38.906,48.57
38.921,35.88
38.937,22.5
38.953,10.67
38.968,3.21
38.984,2.46
39.000,9.22
39.015,22.39
39.031,39.45
39.046,57.46
39.062,73.95
39.078,87.05
39.093,95.42
39.109,98.23
39.125,95.57
39.140,89.08
39.156,82.05
39.171,78.53
39.187,81.71
39.203,92.25
39.218,107.74
39.234,123.58
39.250,135.04
39.265,139.16
39.281,135.71
39.296,126.64
39.312,114.64
39.328,101.75
39.343,88.81
39.359,75.68
39.375,62.2
39.390,48.89
39.406,37.2
39.421,28.89
39.437,25.18
39.453,25.66
39.468,27.9
39.484,27.99
39.500,21.95
39.515,7.46
39.531,-15.01
39.546,-42.24
39.562,-69.32
39.578,-91.21
39.593,-103.96
39.609,-105.37
39.625,-95.11
39.640,-74.68
39.656,-47.51
39.671,-18.75
39.687,5.65
39.703,20.61
39.718,23.94
39.734,17.51
39.750,6.81
39.765,-1.3
39.781,-1.78
39.796,6.27
39.812,19.25
39.828,30.83
39.843,34.94
39.859,28.17
39.875,10.66
39.890,-14.98
39.906,-45.44
39.921,-78.32
39.937,-112.61
39.953,-148.11
39.968,-184.33
39.984,-219.84
40.000,-252.34
40.015,-279.4
40.031,-299.4
40.046,-312.08
40.062,-318.52
40.078,-320.54
40.093,-319.97
40.109,-318.0
40.125,-314.91
40.140,-310.36
40.156,-303.82
40.171,-295.11
40.187,-284.39
40.203,-271.79
40.218,-256.85
40.234,-238.29
40.250,-214.29
40.265,-183.38
40.281,-145.19
40.296,-100.82
40.312,-52.5
40.328,-2.94
40.343,44.78
40.359,87.17
40.375,119.99
40.390,138.64
40.406,139.25
40.421,120.52
40.437,84.97
40.453,39.18
40.468,-7.59
40.484,-45.86
40.500,-68.48
40.515,-72.38
40.531,-59.02
40.546,-33.57
40.562,-3.28
40.578,24.59
40.593,44.42
40.609,53.46
40.625,52.03
40.640,42.8
40.656,29.56
40.671,16.01
40.687,4.86
40.703,-2.37
40.718,-5.4
40.734,-5.01
40.750,-3.01
40.765,-2.11
40.781,-5.38
40.796,-15.41
40.812,-33.43
40.828,-58.65
40.843,-88.41
40.859,-118.84
40.875,-146.13
40.890,-167.49
40.906,-181.68
40.921,-188.86
40.937,-190.0
40.953,-186.32
40.968,-178.82
40.984,-168.31
41.000,-155.43
41.015,-140.96
41.031,-125.83
41.046,-111.07
41.062,-97.6
41.078,-86.15
41.093,-77.2
41.109,-70.99
41.125,-67.53
41.140,-66.5
41.156,-67.28
41.171,-69.03
41.187,-70.9
41.203,-72.17
41.218,-72.36
41.234,-71.03
41.250,-67.65
41.265,-61.42
41.281,-51.56
41.296,-37.57
41.312,-19.6
41.328,1.44
41.343,24.08
41.359,46.75
41.375,68.31
41.390,88.31
41.406,107.03
41.421,125.21
41.437,143.62
41.453,162.79
41.468,182.79
41.484,203.13
41.500,222.8
41.515,240.43
41.531,254.41
41.546,263.35
41.562,266.57
41.578,264.5
41.593,258.93
41.609,252.56
41.625,248.08
41.640,247.05
41.656,249.09
41.671,251.9
41.687,252.1
41.703,246.79
41.718,234.78
41.734,217.31
41.750,197.6
41.765,179.62
41.781,166.47
41.796,159.01
41.812,155.47
41.828,151.94
41.843,143.75
41.859,126.94
41.875,99.49
41.890,61.74
41.906,16.1
41.921,-33.64
41.937,-83.27
41.953,-128.93
41.968,-167.78
41.984,-198.48
42.000,-221.41
42.015,-238.44
42.031,-252.17
42.046,-264.72
42.062,-276.59
42.078,-286.16
42.093,-290.29
42.109,-285.72
42.125,-270.58
42.140,-245.15
42.156,-211.41
42.171,-172.12
42.187,-129.79
42.203,-86.33
42.218,-43.43
42.234,-3.04
42.250,32.49
42.265,60.98
42.281,81.32
42.296,94.25
42.312,102.08
42.328,107.61
42.343,112.69
42.359,117.06
42.375,118.47
42.390,113.78
42.406,100.66
42.421,78.8
42.437,50.27
42.453,18.92
42.468,-10.97
42.484,-35.92
42.500,-53.94
42.515,-64.39
42.531,-67.54
42.546,-64.09
42.562,-55.15
42.578,-42.63
42.593,-29.38
42.609,-18.97
42.625,-14.77
42.640,-18.82
42.656,-31.11
42.671,-49.67
42.687,-71.45
42.703,-93.41
42.718,-113.48
42.734,-130.73
42.750,-145.16
42.765,-157.33
42.781,-168.15
42.796,-178.67
42.812,-189.86
42.828,-201.81
42.843,-213.06
42.859,-220.27
42.875,-218.89
42.890,-204.6
42.906,-174.92
42.921,-130.36
42.937,-74.48
42.953,-12.84
42.968,48.59
42.984,104.81
43.000,152.6
43.015,190.82
43.031,219.97
43.046,241.7
43.062,258.17
43.078,271.43
43.093,282.97
43.109,293.2
43.125,301.18
43.140,304.64
43.156,300.55
43.171,286.09
43.187,259.86
43.203,222.76
43.218,178.05
43.234,130.44
43.250,84.72
43.265,44.53
43.281,11.87
43.296,-12.52
43.312,-28.61
43.328,-36.67
43.343,-37.54
43.359,-33.26
43.375,-27.38
43.390,-24.51
43.406,-28.97
43.421,-43.35
43.437,-67.35
43.453,-97.72
43.468,-129.02
43.484,-154.93
43.500,-169.95
43.515,-170.85
43.531,-157.86
43.546,-135.01
43.562,-109.33
43.578,-88.83
43.593,-79.78
43.609,-84.39
43.625,-99.74
43.640,-118.77
43.656,-132.95
43.671,-135.55
43.687,-124.06
43.703,-100.73
43.718,-71.07
43.734,-41.12
43.750,-14.99
43.765,6.34
43.781,24.52
43.796,42.32
43.812,61.84
43.828,83.36
43.843,105.03
43.859,123.31
43.875,133.99
43.890,133.33
43.906,119.25
43.921,92.14
43.937,55.23
43.953,13.91
43.968,-25.59
43.984,-58.02
44.000,-80.56
44.015,-93.27
44.031,-98.42
44.046,-99.1
44.062,-98.02
44.078,-96.79
44.093,-96.23
44.109,-96.89
44.125,-99.44
44.140,-104.39
44.156,-111.47
44.171,-118.99
44.187,-123.8
44.203,-122.11
44.218,-110.97
44.234,-89.78
44.250,-61.05
44.265,-29.93
44.281,-2.65
44.296,15.56
44.312,21.94
44.328,16.77
44.343,2.76
44.359,-16.38
44.375,-37.26
44.390,-57.71
44.406,-76.79
44.421,-94.4
44.437,-110.62
44.453,-125.33
44.468,-138.02
44.484,-148.01
44.500,-154.51
44.515,-156.83
44.531,-154.47
44.546,-147.26
44.562,-135.31
44.578,-119.09
44.593,-99.39
44.609,-77.26
44.625,-53.92
44.640,-30.72
44.656,-8.94
44.671,10.43
44.687,26.84
44.703,40.31
44.718,51.38
44.734,60.69
44.750,68.71
44.765,75.43
44.781,80.31
44.796,82.65
44.812,81.96
44.828,78.26
44.843,72.11
44.859,64.48
44.875,56.43
44.890,48.92
44.906,42.72
44.921,38.38
44.937,36.17
44.953,36.01
44.968,37.41
44.984,39.51
45.000,41.41
45.015,42.46
45.031,42.5
45.046,41.94
45.062,41.48
45.078,41.83
45.093,43.34
45.109,45.96
45.125,49.29
45.140,52.84
45.156,56.26
45.171,59.48
45.187,62.66
45.203,66.14
45.218,70.2
45.234,74.87
45.250,79.75
45.265,83.99
45.281,86.6
45.296,86.86
45.312,84.93
45.328,82.18
45.343,81.11
45.359,84.74
45.375,95.59
45.390,114.75
45.406,141.32
45.421,172.41
45.437,203.8
45.453,230.89
45.468,249.59
45.484,257.18
45.500,252.69
45.515,237.03
45.531,212.6
45.546,182.6
45.562,150.13
45.578,117.61
45.593,86.62
45.609,58.36
45.625,34.21
45.640,16.06
45.656,5.8
45.671,4.38
45.687,10.88
45.703,22.23
45.718,34.11
45.734,42.53
45.750,45.32
45.765,42.77
45.781,37.11
45.796,31.15
45.812,26.92
45.828,24.94
45.843,24.39
45.859,23.98
45.875,22.86
45.890,21.15
45.906,20.06
45.921,21.5
45.937,27.51
45.953,39.46
45.968,57.16
45.984,78.21
46.000,97.91
46.015,110.19
46.031,109.2
46.046,91.31
46.062,56.52
46.078,8.94
46.093,-43.95
46.109,-93.01
46.125,-129.91
46.140,-149.54
46.156,-151.88
46.171,-142.24
46.187,-129.73
46.203,-124.15
46.218,-132.41
46.234,-156.09
46.250,-190.94
46.265,-228.68
46.281,-260.11
46.296,-278.13
46.312,-279.51
46.328,-265.02
46.343,-238.56
46.359,-205.76
46.375,-172.83
46.390,-145.53
46.406,-128.18
46.421,-122.87
46.437,-129.0
46.453,-143.57
46.468,-162.07
46.484,-179.73
46.500,-192.69
46.515,-198.74
46.531,-197.48
46.546,-190.11
46.562,-178.97
46.578,-166.76
46.593,-155.92
46.609,-148.05
46.625,-143.62
46.640,-141.96
46.656,-141.59
46.671,-140.8
46.687,-138.15
46.703,-132.97
46.718,-125.52
46.734,-116.81
46.750,-108.24
46.765,-101.06
46.781,-96.01
46.796,-93.1
46.812,-91.64
46.828,-90.71
46.843,-89.5
46.859,-87.74
46.875,-85.73
46.890,-84.22
46.906,-84.0
46.921,-85.67
46.937,-89.41
46.953,-95.06
46.968,-102.13
46.984,-109.83
47.000,-116.93
47.015,-121.87
47.031,-122.85
47.046,-118.34
47.062,-107.56
47.078,-90.81
47.093,-69.38
47.109,-45.02
47.125,-19.38
47.140,6.46
47.156,32.05
47.171,57.21
47.187,81.65
47.203,104.69
47.218,125.34
47.234,142.69
47.250,156.25
47.265,166.12
47.281,172.88
47.296,177.28
47.312,180.0
47.328,181.43
47.343,181.84
47.359,181.37
47.375,180.28
47.390,178.92
47.406,177.66
47.421,176.77
47.437,176.28
47.453,176.02
47.468,175.63
47.484,174.71
47.500,172.86
47.515,169.82
47.531,165.48
47.546,159.88
47.562,153.14
47.578,145.43
47.593,136.9
47.609,127.61
47.625,117.62
47.640,107.02
47.656,96.0
47.671,84.88
47.687,74.06
47.703,63.96
47.718,54.82
47.734,46.63
47.750,39.05
47.765,31.53
47.781,23.4
47.796,14.03
47.812,3.05
47.828,-9.66
47.843,-23.67
47.859,-38.04
47.875,-51.25
47.890,-61.43
47.906,-66.75
47.921,-65.9
47.937,-58.48
47.953,-45.17
47.968,-27.54
47.984,-7.63
48.000,12.57
48.015,31.57
48.031,48.54
48.046,63.31
48.062,76.08
48.078,87.15
48.093,96.68
48.109,104.59
48.125,110.7
48.140,114.87
48.156,117.22
48.171,118.09
48.187,117.95
48.203,117.19
48.218,115.99
48.234,114.41
48.250,112.48
48.265,110.37
48.281,108.44
48.296,106.99
48.312,106.18
48.328,105.8
48.343,105.32
48.359,104.04
48.375,101.42
48.390,97.19
48.406,91.42
48.421,84.5
48.437,76.99
48.453,69.44
48.468,62.23
48.484,55.48
48.500,49.04
48.515,42.58
48.531,35.79
48.546,28.55
48.562,21.0
48.578,13.44
48.593,6.2
48.609,-0.62
48.625,-7.22
48.640,-14.08
48.656,-21.75
48.671,-30.67
48.687,-40.81
48.703,-51.67
48.718,-62.2
48.734,-70.97
48.750,-76.42
48.765,-77.18
48.781,-72.49
48.796,-62.41
48.812,-47.95
48.828,-30.83
48.843,-13.01
48.859,3.79
48.875,18.52
48.890,30.86
48.906,41.07
48.921,49.6
48.937,56.74
48.953,62.48
48.968,66.58
48.984,68.82
49.000,69.19
49.015,68.05
49.031,66.02
49.046,63.74
49.062,61.73
49.078,60.21
49.093,59.17
49.109,58.49
49.125,58.03
49.140,57.66
49.156,57.27
49.171,56.68
49.187,55.61
49.203,53.82
49.218,51.1
49.234,47.44
49.250,43.0
49.265,38.05
49.281,32.87
49.296,27.68
49.312,22.58
49.328,17.61
49.343,12.79
49.359,8.17
49.375,3.82
49.390,-0.23
49.406,-4.02
49.421,-7.73
49.437,-11.64
49.453,-16.06
49.468,-21.25
49.484,-27.25
49.500,-33.79
49.515,-40.26
49.531,-45.66
49.546,-48.77
49.562,-48.3
49.578,-43.25
49.593,-33.15
49.609,-18.3
49.625,0.28
49.640,21.11
49.656,42.6
49.671,63.48
49.687,82.92
49.703,100.46
49.718,115.75
49.734,128.24
49.750,137.14
49.765,141.56
49.781,140.87
49.796,134.87
49.812,123.92
49.828,108.9
49.843,91.22
49.859,72.94
49.875,56.68
49.890,45.47
49.906,42.05
49.921,48.04
49.937,63.12
49.953,84.55
49.968,107.54
49.984,126.19
50.000,134.92
50.015,129.77
50.031,109.16
50.046,74.03
50.062,27.35
50.078,-26.7
50.093,-83.7
50.109,-139.71
50.125,-191.65
50.140,-237.46
50.156,-276.11
50.171,-307.41
50.187,-331.5
50.203,-348.31
50.218,-357.04
50.234,-356.41
50.250,-345.3
50.265,-323.93
50.281,-294.46
50.296,-260.78
50.312,-227.26
50.328,-197.27
50.343,-172.05
50.359,-150.82
50.375,-131.65
50.390,-112.68
50.406,-92.91
50.421,-72.25
50.437,-51.02
50.453,-29.46
50.468,-7.59
50.484,14.51
50.500,36.44
50.515,57.36
50.531,76.29
50.546,92.42
50.562,105.4
50.578,115.44
50.593,123.15
50.609,129.34
50.625,134.79
50.640,140.02
50.656,145.17
50.671,150.02
50.687,153.96
50.703,156.21
50.718,156.14
50.734,153.45
50.750,148.47
50.765,141.95
50.781,134.84
50.796,127.81
50.812,120.98
50.828,113.8
50.843,105.37
50.859,94.88
50.875,82.04
50.890,67.22
50.906,51.29
50.921,35.17
50.937,19.48
50.953,4.28
50.968,-10.75
50.984,-26.03
51.000,-41.6
51.015,-57.05
51.031,-71.61
51.046,-84.5
51.062,-95.39
51.078,-104.53
51.093,-112.64
51.109,-120.63
51.125,-129.23
51.140,-138.85
51.156,-149.56
51.171,-161.02
51.187,-172.34
51.203,-182.08
51.218,-188.22
51.234,-188.65
51.250,-181.79
51.265,-167.26
51.281,-146.08
51.296,-120.39
51.312,-92.7
51.328,-65.1
51.343,-38.89
51.359,-14.55
51.375,7.67
51.390,27.43
51.406,44.02
51.421,56.73
51.437,65.2
51.453,69.78
51.468,71.51
51.484,71.76
51.500,71.77
51.515,72.27
51.531,73.35
51.546,74.66
51.562,75.68
51.578,76.04
51.593,75.62
51.609,74.55
51.625,73.11
51.640,71.6
51.656,70.25
51.671,69.24
51.687,68.62
51.703,68.35
51.718,68.28
51.734,68.14
51.750,67.59
51.765,66.35
51.781,64.24
51.796,61.14
51.812,57.02
51.828,51.81
51.843,45.41
51.859,37.74
51.875,28.93
51.890,19.41
51.906,10.04
51.921,1.99
51.937,-3.39
51.953,-4.99
51.968,-2.21
51.984,4.71
52.000,14.69
52.015,26.0
52.031,36.73
52.046,45.3
52.062,50.8
52.078,53.21
52.093,53.19
52.109,51.86
52.125,50.28
52.140,49.15
52.156,48.58
52.171,48.21
52.187,47.49
52.203,46.04
52.218,43.84
52.234,41.27
52.250,38.88
52.265,37.27
52.281,36.95
52.296,38.45
52.312,42.3
52.328,48.9
52.343,58.26
52.359,69.69
52.375,81.88
52.390,93.22
52.406,102.43
52.421,108.99
52.437,113.17
52.453,115.67
52.468,117.07
52.484,117.59
52.500,117.29
52.515,116.59
52.531,116.5
52.546,118.43
52.562,123.43
52.578,131.38
52.593,140.61
52.609,148.31
52.625,151.65
52.640,148.99
52.656,140.6
52.671,128.49
52.687,115.6
52.703,104.71
52.718,97.78
52.734,95.73
52.750,98.79
52.765,106.75
52.781,119.02
52.796,134.33
52.812,150.46
52.828,164.29
52.843,172.41
52.859,172.14
52.875,162.4
52.890,144.13
52.906,119.82
52.921,92.66
52.937,65.4
52.953,39.76
52.968,16.25
52.984,-5.43
53.000,-25.86
53.015,-45.55
53.031,-64.71
53.046,-83.48
53.062,-102.04
53.078,-120.73
53.093,-139.9
53.109,-159.7
53.125,-179.92
53.140,-199.97
53.156,-219.14
53.171,-236.86
53.187,-252.92
53.203,-267.47
53.218,-280.78
53.234,-292.89
53.250,-303.42
53.265,-311.66
53.281,-316.91
53.296,-319.03
53.312,-318.69
53.328,-317.39
53.343,-316.96
53.359,-318.98
53.375,-324.24
53.390,-332.5
53.406,-342.66
53.421,-353.08
53.437,-361.88
53.453,-367.33
53.468,-367.97
53.484,-362.9
53.500,-351.99
53.515,-335.95
53.531,-316.2
53.546,-294.51
53.562,-272.48
53.578,-251.13
53.593,-230.71
53.609,-210.82
53.625,-190.74
53.640,-169.81
53.656,-147.72
53.671,-124.54
53.687,-100.87
53.703,-77.58
53.718,-55.76
53.734,-36.43
53.750,-20.36
53.765,-7.91
53.781,0.99
53.796,6.73
53.812,9.86
53.828,10.85
53.843,10.13
53.859,8.13
53.875,5.47
53.890,2.96
53.906,1.54
53.921,2.03
53.937,4.86
53.953,9.99
53.968,16.86
53.984,24.68
54.000,32.55
54.015,39.66
54.031,45.33
54.046,49.13
54.062,51.04
54.078,51.5
54.093,51.42
54.109,51.76
54.125,53.28
54.140,56.11
54.156,59.83
54.171,63.67
54.187,66.94
54.203,69.27
54.218,70.65
54.234,71.36
54.250,71.72
54.265,72.04
54.281,72.64
54.296,73.86
54.312,76.0
54.328,79.2
54.343,83.34
54.359,88.13
54.375,93.27
54.390,98.67
54.406,104.34
54.421,110.27
54.437,116.03
54.453,120.6
54.468,122.52
54.484,120.41
54.500,113.59
54.515,102.5
54.531,88.64
54.546,74.09
54.562,60.7
54.578,49.53
54.593,40.58
54.609,33.21
54.625,26.56
54.640,20.14
54.656,13.95
54.671,8.33
54.687,3.65
54.703,0.02
54.718,-2.73
54.734,-4.87
54.750,-6.53
54.765,-7.62
54.781,-7.96
54.796,-7.55
54.812,-6.81
54.828,-6.65
54.843,-8.29
54.859,-12.75
54.875,-20.4
54.890,-30.63
54.906,-41.97
54.921,-52.52
54.937,-60.66
54.953,-65.59
54.968,-67.5
54.984,-67.33
55.000,-66.0
55.015,-63.77
55.031,-59.86
55.046,-52.87
55.062,-41.59
55.078,-25.8
55.093,-6.64
55.109,13.79
55.125,33.3
55.140,50.48
55.156,64.95
55.171,77.18
55.187,87.91
55.203,97.53
55.218,106.01
55.234,113.02
55.250,118.16
55.265,121.15
55.281,121.95
55.296,120.64
55.312,117.55
55.328,113.24
55.343,108.45
55.359,103.89
55.375,99.91
55.390,96.31
55.406,92.34
55.421,87.11
55.437,79.89
55.453,70.48
55.468,59.26
55.484,47.07
55.500,34.82
55.515,23.37
55.531,13.08
55.546,3.77
55.562,-5.39
55.578,-15.64
55.593,-28.23
55.609,-43.96
55.625,-62.81
55.640,-83.54
55.656,-103.66
55.671,-120.12
55.687,-130.31
55.703,-133.22
55.718,-129.87
55.734,-122.79
55.750,-114.81
55.765,-107.61
55.781,-101.06
55.796,-93.48
55.812,-82.82
55.828,-68.05
55.843,-49.79
55.859,-30.12
55.875,-11.51
55.890,4.37
55.906,17.24
55.921,28.04
55.937,38.18
55.953,48.67
55.968,59.74
55.984,70.93
56.000,81.55
56.015,91.22
56.031,100.06
56.046,108.59
56.062,117.18
56.078,125.67
56.093,133.21
56.109,138.7
56.125,141.31
56.140,140.94
56.156,138.44
56.171,135.19
56.187,132.66
56.203,131.71
56.218,132.3
56.234,133.57
56.250,134.17
56.265,132.82
56.281,128.55
56.296,121.01
56.312,110.33
56.328,96.99
56.343,81.58
56.359,64.69
56.375,46.89
56.390,28.72
56.406,10.84
56.421,-6.06
56.437,-21.14
56.453,-33.58
56.468,-42.76
56.484,-48.57
56.500,-51.58
56.515,-52.99
56.531,-54.3
56.546,-56.87
56.562,-61.38
56.578,-67.6
56.593,-74.5
56.609,-80.67
56.625,-84.87
56.640,-86.35
56.656,-84.94
56.671,-80.9
56.687,-74.63
56.703,-66.53
56.718,-56.87
56.734,-45.92
56.750,-33.91
56.765,-21.03
56.781,-7.41
56.796,6.8
56.812,21.2
56.828,34.8
56.843,45.92
56.859,52.56
56.875,53.23
56.890,47.97
56.906,38.85
56.921,29.56
56.937,24.29
56.953,26.14
56.968,36.09
56.984,52.74
57.000,73.25
57.015,94.48
57.031,114.23
57.046,131.47
57.062,146.08
57.078,158.32
57.093,168.22
57.109,175.64
57.125,180.5
57.140,183.27
57.156,185.05
57.171,187.33
57.187,191.32
57.203,197.41
57.218,204.9
57.234,212.27
57.250,217.91
57.265,220.88
57.281,221.14
57.296,219.44
57.312,216.8
57.328,214.01
57.343,211.41
57.359,208.87
57.375,205.91
57.390,201.92
57.406,196.24
57.421,188.37
57.437,178.06
57.453,165.53
57.468,151.42
57.484,136.43
57.500,121.06
57.515,105.25
57.531,88.52
57.546,70.25
57.562,50.11
57.578,28.21
57.593,4.98
57.609,-19.02
57.625,-43.45
57.640,-68.02
57.656,-92.44
57.671,-116.19
57.687,-138.66
57.703,-159.24
57.718,-177.71
57.734,-194.22
57.750,-209.27
57.765,-223.31
57.781,-236.53
57.796,-248.79
57.812,-259.7
57.828,-269.0
57.843,-276.59
57.859,-282.58
57.875,-287.05
57.890,-289.85
57.906,-290.59
57.921,-288.68
57.937,-283.68
57.953,-275.36
57.968,-263.96
57.984,-249.99
58.000,-234.23
58.015,-217.58
58.031,-200.97
58.046,-185.22
58.062,-170.92
58.078,-158.47
58.093,-147.99
58.109,-139.47
58.125,-132.81
58.140,-127.93
58.156,-124.88
58.171,-123.79
58.187,-124.88
58.203,-128.35
58.218,-134.15
58.234,-141.68
58.250,-149.74
58.265,-156.52
58.281,-160.07
58.296,-158.9
58.312,-152.49
58.328,-141.47
58.343,-127.43
58.359,-112.23
58.375,-97.42
58.390,-83.85
58.406,-71.68
58.421,-60.66
58.437,-50.57
58.453,-41.36
58.468,-33.25
58.484,-26.54
58.500,-21.35
58.515,-17.56
58.531,-14.83
58.546,-12.75
58.562,-10.91
58.578,-9.05
58.593,-7.02
58.609,-4.76
58.625,-2.2
58.640,0.78
58.656,4.27
58.671,8.27
58.687,12.6
58.703,16.93
58.718,20.76
58.734,23.62
58.750,25.16
58.765,25.24
58.781,23.99
58.796,21.68
58.812,18.66
58.828,15.25
58.843,11.65
58.859,7.96
58.875,4.13
58.890,0.08
58.906,-4.36
58.921,-9.37
58.937,-15.07
58.953,-21.5
58.968,-28.52
58.984,-35.8
59.000,-42.76
59.015,-48.58
59.031,-52.27
59.046,-52.98
59.062,-50.15
59.078,-43.79
59.093,-34.47
59.109,-23.23
59.125,-11.21
59.140,0.58
59.156,11.51
59.171,21.29
59.187,29.82
59.203,37.06
59.218,42.91
59.234,47.29
59.250,50.2
59.265,51.84
59.281,52.56
59.296,52.71
59.312,52.52
59.328,52.03
59.343,51.14
59.359,49.69
59.375,47.61
59.390,44.98
59.406,42.0
59.421,38.91
59.437,35.9
59.453,33.05
59.468,30.32
59.484,27.58
59.500,24.65
59.515,21.33
59.531,17.44
59.546,12.89
59.562,7.67
59.578,1.9
59.593,-4.23
59.609,-10.55
59.625,-16.99
59.640,-23.56
59.656,-30.44
59.671,-37.78
59.687,-45.68
59.703,-54.07
59.718,-62.62
59.734,-70.74
59.750,-77.56
59.765,-82.09
59.781,-83.4
59.796,-80.96
59.812,-74.75
59.828,-65.31
59.843,-53.59
59.859,-40.69
59.875,-27.59
59.890,-14.97
59.906,-3.19
59.921,7.65
59.937,17.55
59.953,26.47
59.968,34.32
59.984,40.91
