timestamp,value
00.000,3.73
00.015,-2.12
00.031,-6.98
00.046,-11.06
00.062,-14.96
00.078,-19.43
00.093,-25.1
00.109,-32.25
00.125,-40.67
00.140,-49.6
00.156,-57.78
00.171,-63.67
00.187,-65.81
00.203,-63.27
00.218,-55.97
00.234,-44.72
00.250,-31.0
00.265,-16.52
00.281,-2.74
00.296,9.34
00.312,19.27
00.328,26.94
00.343,32.41
00.359,35.79
00.375,37.26
00.390,37.13
00.406,35.91
00.421,34.17
00.437,32.46
00.453,31.16
00.468,30.44
00.484,30.14
00.500,29.99
00.515,29.68
00.531,29.02
00.546,28.05
00.562,26.94
00.578,25.93
00.593,25.1
00.609,24.33
00.625,23.32
00.640,21.65
00.656,19.0
00.671,15.26
00.687,10.63
00.703,5.55
00.718,0.54
00.734,-4.0
00.750,-7.97
00.765,-11.61
00.781,-15.46
00.796,-20.17
00.812,-26.23
00.828,-33.72
00.843,-42.14
00.859,-50.42
00.875,-57.08
00.890,-60.63
00.906,-59.95
00.921,-54.66
00.937,-45.17
00.953,-32.58
00.968,-18.32
00.984,-3.79
01.000,9.92
01.015,22.11
01.031,32.42
01.046,40.65
01.062,46.79
01.078,50.97
01.093,53.56
01.109,55.17
01.125,56.46
01.140,58.01
01.156,60.09
01.171,62.6
01.187,65.23
01.203,67.61
01.218,69.48
01.234,70.74
01.250,71.4
01.265,71.47
01.281,70.83
01.296,69.28
01.312,66.64
01.328,62.88
01.343,58.14
01.359,52.76
01.375,47.11
01.390,41.49
01.406,36.02
01.421,30.76
01.437,25.6
01.453,20.39
01.468,14.92
01.484,9.02
01.500,2.55
01.515,-4.38
01.531,-11.33
01.546,-17.54
01.562,-22.06
01.578,-23.98
01.593,-22.74
01.609,-18.32
01.625,-11.26
01.640,-2.5
01.656,6.92
01.671,16.09
01.687,24.38
01.703,31.45
01.718,37.13
01.734,41.3
01.750,43.85
01.765,44.67
01.781,43.8
01.796,41.48
01.812,38.2
01.828,34.51
01.843,30.89
01.859,27.6
01.875,24.68
01.890,21.96
01.906,19.26
01.921,16.46
01.937,13.56
01.953,10.58
01.968,7.53
01.984,4.33
02.000,0.87
02.015,-3.04
02.031,-7.54
02.046,-12.74
02.062,-18.7
02.078,-25.34
02.093,-32.52
02.109,-39.95
02.125,-47.38
02.140,-54.63
02.156,-61.71
02.171,-68.66
02.187,-75.46
02.203,-81.84
02.218,-87.17
02.234,-90.6
02.250,-91.3
02.265,-88.8
02.281,-83.21
02.296,-75.12
02.312,-65.47
02.328,-55.18
02.343,-44.98
02.359,-35.38
02.375,-26.72
02.390,-19.27
02.406,-13.3
02.421,-9.0
02.437,-6.36
02.453,-5.14
02.468,-4.89
02.484,-5.15
02.500,-5.47
02.515,-5.5
02.531,-5.05
02.546,-4.0
02.562,-2.31
02.578,-0.09
02.593,2.43
02.609,4.88
02.625,6.81
02.640,7.86
02.656,7.86
02.671,6.85
02.687,5.07
02.703,2.89
02.718,0.59
02.734,-1.68
02.750,-3.92
02.765,-6.28
02.781,-8.97
02.796,-12.25
02.812,-16.39
02.828,-21.57
02.843,-27.72
02.859,-34.41
02.875,-40.8
02.890,-45.72
02.906,-48.1
02.921,-47.22
02.937,-42.99
02.953,-35.9
02.968,-26.86
02.984,-16.84
03.000,-6.76
03.015,2.72
03.031,11.16
03.046,18.23
03.062,23.75
03.078,27.6
03.093,29.76
03.109,30.31
03.125,29.45
03.140,27.48
03.156,24.86
03.171,22.23
03.187,20.25
03.203,19.51
03.218,20.34
03.234,22.69
03.250,26.09
03.265,29.83
03.281,33.1
03.296,35.24
03.312,35.9
03.328,35.1
03.343,33.22
03.359,30.93
03.375,29.03
03.390,28.25
03.406,29.01
03.421,31.12
03.437,33.58
03.453,34.66
03.468,32.22
03.484,24.43
03.500,10.41
03.515,-9.2
03.531,-32.3
03.546,-55.8
03.562,-76.45
03.578,-91.78
03.593,-100.58
03.609,-103.02
03.625,-100.24
03.640,-93.83
03.656,-85.3
03.671,-75.79
03.687,-65.98
03.703,-56.32
03.718,-47.11
03.734,-38.65
03.750,-31.16
03.765,-24.73
03.781,-19.18
03.796,-14.16
03.812,-9.25
03.828,-4.14
03.843,1.17
03.859,6.35
03.875,10.86
03.890,14.19
03.906,16.1
03.921,16.7
03.937,16.4
03.953,15.64
03.968,14.68
03.984,13.47
04.000,11.78
04.015,9.36
04.031,6.19
04.046,2.48
04.062,-1.46
04.078,-5.41
04.093,-9.47
04.109,-13.99
04.125,-19.37
04.140,-25.63
04.156,-32.27
04.171,-38.15
04.187,-41.94
04.203,-42.46
04.218,-39.17
04.234,-32.34
04.250,-22.94
04.265,-12.29
04.281,-1.62
04.296,8.15
04.312,16.58
04.328,23.5
04.343,28.9
04.359,32.77
04.375,35.07
04.390,35.84
04.406,35.26
04.421,33.76
04.437,31.88
04.453,30.16
04.468,28.93
04.484,28.25
04.500,27.94
04.515,27.67
04.531,27.12
04.546,26.08
04.562,24.46
04.578,22.28
04.593,19.71
04.609,16.97
04.625,14.4
04.640,12.27
04.656,10.72
04.671,9.61
04.687,8.55
04.703,6.98
04.718,4.27
04.734,0.05
04.750,-5.69
04.765,-12.48
04.781,-19.39
04.796,-25.16
04.812,-28.52
04.828,-28.44
04.843,-24.49
04.859,-16.99
04.875,-6.97
04.890,4.11
04.906,14.74
04.921,23.75
04.937,30.47
04.953,34.81
04.968,37.09
04.984,37.74
05.000,37.22
05.015,35.85
05.031,33.82
05.046,31.32
05.062,28.62
05.078,26.05
05.093,23.98
05.109,22.68
05.125,22.18
05.140,22.2
05.156,22.27
05.171,21.81
05.187,20.37
05.203,17.8
05.218,14.29
05.234,10.23
05.250,6.02
05.265,1.89
05.281,-2.16
05.296,-6.31
05.312,-10.78
05.328,-15.74
05.343,-21.28
05.359,-27.45
05.375,-34.21
05.390,-41.32
05.406,-48.24
05.421,-54.04
05.437,-57.58
05.453,-57.82
05.468,-54.16
05.484,-46.68
05.500,-36.21
05.515,-24.03
05.531,-11.55
05.546,0.04
05.562,9.96
05.578,17.85
05.593,23.65
05.609,27.42
05.625,29.32
05.640,29.49
05.656,28.18
05.671,25.71
05.687,22.57
05.703,19.35
05.718,16.52
05.734,14.32
05.750,12.71
05.765,11.37
05.781,9.9
05.796,8.02
05.812,5.68
05.828,2.99
05.843,0.2
05.859,-2.55
05.875,-5.23
05.890,-7.97
05.906,-10.89
05.921,-14.13
05.937,-17.65
05.953,-21.34
05.968,-25.08
05.984,-28.84
06.000,-32.69
06.015,-36.68
06.031,-40.72
06.046,-44.35
06.062,-46.86
06.078,-47.39
06.093,-45.23
06.109,-40.14
06.125,-32.41
06.140,-22.81
06.156,-12.27
06.171,-1.68
06.187,8.3
06.203,17.24
06.218,24.87
06.234,30.91
06.250,35.13
06.265,37.41
06.281,37.78
06.296,36.56
06.312,34.26
06.328,31.47
06.343,28.75
06.359,26.47
06.375,24.75
06.390,23.49
06.406,22.5
06.421,21.53
06.437,20.4
06.453,18.96
06.468,17.1
06.484,14.75
06.500,11.84
06.515,8.43
06.531,4.65
06.546,0.7
06.562,-3.26
06.578,-7.15
06.593,-11.05
06.609,-15.1
06.625,-19.54
06.640,-24.57
06.656,-30.31
06.671,-36.69
06.687,-43.34
06.703,-49.5
06.718,-54.17
06.734,-56.28
06.750,-55.07
06.765,-50.32
06.781,-42.5
06.796,-32.52
06.812,-21.39
06.828,-9.95
06.843,1.32
06.859,12.15
06.875,22.21
06.890,31.0
06.906,37.8
06.921,41.95
06.937,43.14
06.953,41.69
06.968,38.42
06.984,34.45
07.000,30.75
07.015,27.9
07.031,26.0
07.046,24.77
07.062,23.82
07.078,22.85
07.093,21.77
07.109,20.55
07.125,19.2
07.140,17.54
07.156,15.32
07.171,12.31
07.187,8.47
07.203,3.98
07.218,-0.78
07.234,-5.36
07.250,-9.49
07.265,-13.11
07.281,-16.46
07.296,-19.91
07.312,-23.85
07.328,-28.5
07.343,-33.98
07.359,-40.12
07.375,-46.59
07.390,-52.84
07.406,-58.01
07.421,-61.17
07.437,-61.37
07.453,-58.07
07.468,-51.23
07.484,-41.41
07.500,-29.57
07.515,-16.85
07.531,-4.23
07.546,7.54
07.562,17.96
07.578,26.65
07.593,33.34
07.609,37.9
07.625,40.42
07.640,41.29
07.656,41.09
07.671,40.46
07.687,39.87
07.703,39.49
07.718,39.25
07.734,38.89
07.750,38.25
07.765,37.27
07.781,36.04
07.796,34.72
07.812,33.4
07.828,32.02
07.843,30.35
07.859,28.08
07.875,24.93
07.890,20.84
07.906,15.98
07.921,10.71
07.937,5.49
07.953,0.63
07.968,-3.73
07.984,-7.79
08.000,-11.99
08.015,-16.91
08.031,-23.14
08.046,-30.96
08.062,-40.23
08.078,-50.21
08.093,-59.69
08.109,-67.19
08.125,-71.36
08.140,-71.41
08.156,-67.28
08.171,-59.64
08.187,-49.53
08.203,-38.1
08.218,-26.28
08.234,-14.79
08.250,-4.07
08.265,5.47
08.281,13.49
08.296,19.66
08.312,23.84
08.328,26.18
08.343,27.17
08.359,27.49
08.375,27.81
08.390,28.62
08.406,30.07
08.421,32.0
08.437,34.08
08.453,36.02
08.468,37.67
08.484,39.06
08.500,40.3
08.515,41.43
08.531,42.36
08.546,42.9
08.562,42.84
08.578,42.1
08.593,40.77
08.609,39.08
08.625,37.33
08.640,35.75
08.656,34.42
08.671,33.29
08.687,32.22
08.703,31.06
08.718,29.73
08.734,28.26
08.750,26.73
08.765,25.25
08.781,23.9
08.796,22.75
08.812,21.94
08.828,21.56
08.843,21.74
08.859,22.47
08.875,23.54
08.890,24.64
08.906,25.39
08.921,25.57
08.937,25.15
08.953,24.25
08.968,23.04
08.984,21.6
09.000,20.0
09.015,18.32
09.031,16.74
09.046,15.57
09.062,15.11
09.078,15.51
09.093,16.69
09.109,18.3
09.125,19.85
09.140,20.85
09.156,20.93
09.171,19.89
09.187,17.82
09.203,15.02
09.218,11.91
09.234,8.9
09.250,6.25
09.265,3.96
09.281,1.77
09.296,-0.8
09.312,-4.2
09.328,-8.75
09.343,-14.31
09.359,-20.26
09.375,-25.52
09.390,-28.71
09.406,-28.56
09.421,-24.27
09.437,-15.81
09.453,-3.86
09.468,10.43
09.484,25.76
09.500,41.08
09.515,55.64
09.531,69.04
09.546,81.05
09.562,91.62
09.578,100.82
09.593,108.95
09.609,116.45
09.625,123.89
09.640,131.77
09.656,140.46
09.671,150.11
09.687,160.76
09.703,172.26
09.718,184.21
09.734,195.73
09.750,205.22
09.765,210.52
09.781,209.38
09.796,200.21
09.812,182.76
09.828,158.34
09.843,129.4
09.859,98.58
09.875,67.88
09.890,38.09
09.906,8.93
09.921,-20.34
09.937,-50.52
09.953,-82.38
09.968,-116.82
09.984,-154.9
10.000,-197.1
10.015,-242.28
10.031,-286.78
10.046,-324.78
10.062,-349.91
10.078,-357.62
10.093,-346.78
10.109,-319.9
10.125,-281.82
10.140,-237.69
10.156,-191.68
10.171,-146.82
10.187,-105.8
10.203,-71.49
10.218,-46.63
10.234,-32.58
10.250,-28.16
10.265,-29.56
10.281,-31.65
10.296,-30.17
10.312,-23.48
10.328,-12.74
10.343,-0.86
10.359,9.32
10.375,16.46
10.390,21.19
10.406,25.24
10.421,30.24
10.437,36.49
10.453,42.59
10.468,45.85
10.484,43.21
10.500,32.31
10.515,12.33
10.531,-15.68
10.546,-49.08
10.562,-84.18
10.578,-117.06
10.593,-144.36
10.609,-163.83
10.625,-174.47
10.640,-176.49
10.656,-171.17
10.671,-160.59
10.687,-147.35
10.703,-134.14
10.718,-123.24
10.734,-116.02
10.750,-112.69
10.765,-112.49
10.781,-114.01
10.796,-115.63
10.812,-115.91
10.828,-113.59
10.843,-107.7
10.859,-97.73
10.875,-83.99
10.890,-67.82
10.906,-51.46
10.921,-37.41
10.937,-27.52
10.953,-22.15
10.968,-19.88
10.984,-18.0
11.000,-13.58
11.015,-4.5
11.031,9.88
11.046,28.62
11.062,49.69
11.078,70.52
11.093,88.68
11.109,102.14
11.125,109.6
11.140,110.62
11.156,105.7
11.171,96.2
11.187,84.04
11.203,71.3
11.218,59.74
11.234,50.48
11.250,44.05
11.265,40.51
11.281,39.77
11.296,41.53
11.312,45.27
11.328,50.05
11.343,54.73
11.359,58.27
11.375,60.15
11.390,60.58
11.406,60.35
11.421,60.49
11.437,61.77
11.453,64.56
11.468,68.84
11.484,74.44
11.500,81.11
11.515,88.58
11.531,96.42
11.546,104.02
11.562,110.85
11.578,116.68
11.593,121.78
11.609,126.81
11.625,132.35
11.640,138.42
11.656,144.32
11.671,148.98
11.687,151.58
11.703,152.38
11.718,152.9
11.734,155.56
11.750,162.88
11.765,176.42
11.781,196.11
11.796,220.05
11.812,244.93
11.828,266.85
11.843,282.31
11.859,289.01
11.875,286.27
11.890,274.92
11.906,256.77
11.921,233.84
11.937,207.78
11.953,179.78
11.968,150.64
11.984,121.22
12.000,92.55
12.015,65.69
12.031,41.23
12.046,18.83
12.062,-2.91
12.078,-26.2
12.093,-53.32
12.109,-85.5
12.125,-122.09
12.140,-160.06
12.156,-194.35
12.171,-218.85
12.187,-228.03
12.203,-218.29
12.218,-189.11
12.234,-143.26
12.250,-86.29
12.265,-25.4
12.281,32.22
12.296,80.68
12.312,116.39
12.328,138.2
12.343,147.08
12.359,145.17
12.375,135.08
12.390,119.34
12.406,100.2
12.421,79.63
12.437,59.19
12.453,39.8
12.468,21.36
12.484,2.8
12.500,-17.54
12.515,-41.03
12.531,-68.02
12.546,-97.55
12.562,-127.76
12.578,-156.78
12.593,-183.7
12.609,-209.16
12.625,-235.23
12.640,-264.6
12.656,-299.18
12.671,-339.08
12.687,-382.02
12.703,-423.9
12.718,-459.81
12.734,-485.41
12.750,-497.91
12.765,-496.66
12.781,-483.24
12.796,-461.15
12.812,-435.16
12.828,-410.15
12.843,-389.9
12.859,-375.91
12.875,-366.96
12.890,-359.54
12.906,-349.13
12.921,-331.74
12.937,-305.14
12.953,-269.08
12.968,-224.69
12.984,-173.62
13.000,-117.43
13.015,-57.82
13.031,2.77
13.046,60.75
13.062,111.56
13.078,150.56
13.093,174.42
13.109,182.18
13.125,175.57
13.140,158.4
13.156,135.29
13.171,110.27
13.187,86.14
13.203,64.58
13.218,46.8
13.234,34.08
13.250,27.9
13.265,29.22
13.281,37.81
13.296,51.81
13.312,67.99
13.328,82.65
13.343,92.72
13.359,96.59
13.375,94.41
13.390,87.8
13.406,79.14
13.421,70.72
13.437,64.16
13.453,59.95
13.468,57.47
13.484,55.28
13.500,51.64
13.515,45.13
13.531,34.95
13.546,21.12
13.562,4.35
13.578,-14.13
13.593,-32.67
13.609,-49.29
13.625,-61.94
13.640,-68.86
13.656,-69.1
13.671,-62.9
13.687,-51.69
13.703,-37.67
13.718,-23.24
13.734,-10.42
13.750,-0.49
13.765,5.89
13.781,8.39
13.796,6.63
13.812,0.2
13.828,-11.06
13.843,-26.44
13.859,-43.92
13.875,-60.32
13.890,-72.14
13.906,-76.74
13.921,-73.39
13.937,-63.46
13.953,-49.69
13.968,-34.95
13.984,-21.04
14.000,-8.41
14.015,3.33
14.031,14.5
14.046,24.61
14.062,32.39
14.078,36.39
14.093,35.88
14.109,31.36
14.125,24.42
14.140,17.05
14.156,10.75
14.171,5.78
14.187,0.98
14.203,-5.59
14.218,-15.69
14.234,-29.95
14.250,-47.54
14.265,-66.46
14.281,-84.45
14.296,-99.74
14.312,-111.38
14.328,-119.08
14.343,-122.75
14.359,-122.31
14.375,-117.81
14.390,-109.87
14.406,-99.85
14.421,-89.59
14.437,-80.79
14.453,-74.14
14.468,-68.93
14.484,-63.37
14.500,-55.3
14.515,-43.28
14.531,-27.08
14.546,-7.8
14.562,12.64
14.578,32.14
14.593,49.05
14.609,62.44
14.625,72.05
14.640,78.2
14.656,81.51
14.671,82.89
14.687,83.45
14.703,84.33
14.718,86.46
14.734,90.14
14.750,94.98
14.765,99.96
14.781,103.88
14.796,105.72
14.812,104.99
14.828,101.71
14.843,96.23
14.859,89.08
14.875,80.91
14.890,72.34
14.906,63.9
14.921,55.96
14.937,48.6
14.953,41.55
14.968,34.31
14.984,26.28
15.000,16.97
15.015,6.21
15.031,-5.78
15.046,-18.3
15.062,-30.22
15.078,-40.04
15.093,-46.19
15.109,-47.42
15.125,-43.18
15.140,-33.91
15.156,-20.84
15.171,-5.71
15.187,9.78
15.203,24.39
15.218,37.37
15.234,48.37
15.250,57.14
15.265,63.38
15.281,66.81
15.296,67.33
15.312,65.28
15.328,61.36
15.343,56.46
15.359,51.37
15.375,46.56
15.390,42.24
15.406,38.5
15.421,35.5
15.437,33.6
15.453,33.16
15.468,34.41
15.484,37.14
15.500,40.72
15.515,44.22
15.531,46.68
15.546,47.43
15.562,46.19
15.578,43.13
15.593,38.79
15.609,33.86
15.625,29.07
15.640,24.95
15.656,21.78
15.671,19.41
15.687,17.31
15.703,14.67
15.718,10.64
15.734,4.64
15.750,-3.36
15.765,-12.67
15.781,-21.91
15.796,-29.35
15.812,-33.29
15.828,-32.59
15.843,-26.97
15.859,-17.01
15.875,-4.03
15.890,10.32
15.906,24.5
15.921,37.3
15.937,47.96
15.953,56.16
15.968,61.83
15.984,65.13
16.000,66.3
16.015,65.76
16.031,64.04
16.046,61.81
16.062,59.75
16.078,58.37
16.093,57.87
16.109,58.04
16.125,58.41
16.140,58.44
16.156,57.76
16.171,56.34
16.187,54.45
16.203,52.41
16.218,50.33
16.234,48.06
16.250,45.22
16.265,41.44
16.281,36.65
16.296,31.1
16.312,25.29
16.328,19.82
16.343,15.05
16.359,11.11
16.375,7.84
16.390,4.84
16.406,1.61
16.421,-2.32
16.437,-7.2
16.453,-12.83
16.468,-18.46
16.484,-22.86
16.500,-24.64
16.515,-22.72
16.531,-16.69
16.546,-6.99
16.562,5.25
16.578,18.57
16.593,31.62
16.609,43.37
16.625,53.13
16.640,60.47
16.656,65.01
16.671,66.54
16.687,65.15
16.703,61.39
16.718,56.37
16.734,51.42
16.750,47.65
16.765,45.6
16.781,44.98
16.796,44.95
16.812,44.59
16.828,43.31
16.843,41.11
16.859,38.45
16.875,35.84
16.890,33.49
16.906,31.14
16.921,28.2
16.937,24.02
16.953,18.21
16.968,10.91
16.984,2.61
17.000,-5.91
17.015,-13.96
17.031,-21.09
17.046,-27.22
17.062,-32.63
17.078,-37.76
17.093,-43.07
17.109,-48.86
17.125,-55.14
17.140,-61.53
17.156,-67.23
17.171,-71.12
17.187,-71.91
17.203,-68.53
17.218,-60.55
17.234,-48.38
17.250,-33.27
17.265,-16.96
17.281,-1.16
17.296,12.9
17.312,24.61
17.328,33.89
17.343,40.88
17.359,45.67
17.375,48.33
17.390,48.99
17.406,48.05
17.421,46.13
17.437,43.93
17.453,41.92
17.468,40.24
17.484,38.73
17.500,37.16
17.515,35.48
17.531,33.92
17.546,32.85
17.562,32.52
17.578,32.85
17.593,33.39
17.609,33.46
17.625,32.5
17.640,30.3
17.656,27.16
17.671,23.76
17.687,20.92
17.703,19.28
17.718,18.96
17.734,19.26
17.750,18.74
17.765,15.52
17.781,7.86
17.796,-5.09
17.812,-22.86
17.828,-43.52
17.843,-64.18
17.859,-81.67
17.875,-93.41
17.890,-97.96
17.906,-95.33
17.921,-86.72
17.937,-74.11
17.953,-59.69
17.968,-45.38
17.984,-32.6
18.000,-22.17
18.015,-14.38
18.031,-9.17
18.046,-6.22
18.062,-4.98
18.078,-4.82
18.093,-4.98
18.109,-4.85
18.125,-4.05
18.140,-2.48
18.156,-0.35
18.171,2.14
18.187,4.9
18.203,7.97
18.218,11.45
18.234,15.26
18.250,18.94
18.265,21.77
18.281,22.94
18.296,21.9
18.312,18.56
18.328,13.32
18.343,6.87
18.359,-0.15
18.375,-7.33
18.390,-14.47
18.406,-21.53
18.421,-28.51
18.437,-35.36
18.453,-42.03
18.468,-48.51
18.484,-54.8
18.500,-60.71
18.515,-65.69
18.531,-68.82
18.546,-69.02
18.562,-65.4
18.578,-57.69
18.593,-46.41
18.609,-32.76
18.625,-18.19
18.640,-4.02
18.656,8.92
18.671,20.33
18.687,30.34
18.703,39.27
18.718,47.39
18.734,54.86
18.750,61.7
18.765,67.87
18.781,73.37
18.796,78.19
18.812,82.27
18.828,85.43
18.843,87.27
18.859,87.32
18.875,85.18
18.890,80.74
18.906,74.27
18.921,66.33
18.937,57.61
18.953,48.74
18.968,40.1
18.984,31.88
19.000,24.18
19.015,17.03
19.031,10.52
19.046,4.6
19.062,-0.98
19.078,-6.64
19.093,-12.94
19.109,-20.36
19.125,-29.0
19.140,-38.4
19.156,-47.55
19.171,-55.01
19.187,-59.36
19.203,-59.66
19.218,-55.78
19.234,-48.45
19.250,-38.99
19.265,-28.77
19.281,-18.88
19.296,-9.91
19.312,-2.06
19.328,4.6
19.343,9.96
19.359,13.79
19.375,15.95
19.390,16.48
19.406,15.79
19.421,14.42
19.437,12.96
19.453,11.78
19.468,11.0
19.484,10.46
19.500,9.96
19.515,9.32
19.531,8.4
19.546,7.12
19.562,5.36
19.578,2.93
19.593,-0.3
19.609,-4.36
19.625,-9.1
19.640,-14.19
19.656,-19.3
19.671,-24.17
19.687,-28.78
19.703,-33.27
19.718,-37.98
19.734,-43.19
19.750,-48.99
19.765,-55.16
19.781,-61.07
19.796,-65.78
19.812,-68.26
19.828,-67.66
19.843,-63.54
19.859,-56.05
19.875,-45.84
19.890,-33.86
19.906,-21.15
19.921,-8.66
19.937,2.86
19.953,12.83
19.968,20.92
19.984,26.93
20.000,30.91
20.015,33.03
20.031,33.55
20.046,32.83
20.062,31.23
20.078,29.19
20.093,27.08
20.109,25.25
20.125,23.89
20.140,23.03
20.156,22.53
20.171,22.11
20.187,21.42
20.203,20.13
20.218,17.98
20.234,14.84
20.250,10.75
20.265,5.9
20.281,0.61
20.296,-4.79
20.312,-9.98
20.328,-14.77
20.343,-19.19
20.359,-23.42
20.375,-27.85
20.390,-32.87
20.406,-38.62
20.421,-44.86
20.437,-50.84
20.453,-55.43
20.468,-57.43
20.484,-55.95
20.500,-50.75
20.515,-42.31
20.531,-31.53
20.546,-19.53
20.562,-7.28
20.578,4.48
20.593,15.21
20.609,24.43
20.625,31.71
20.640,36.68
20.656,39.2
20.671,39.51
20.687,38.18
20.703,36.01
20.718,33.75
20.734,31.95
20.750,30.84
20.765,30.4
20.781,30.39
20.796,30.5
20.812,30.42
20.828,29.85
20.843,28.64
20.859,26.68
20.875,24.02
20.890,20.76
20.906,17.12
20.921,13.3
20.937,9.49
20.953,5.76
20.968,2.05
20.984,-1.88
21.000,-6.37
21.015,-11.78
21.031,-18.37
21.046,-26.17
21.062,-34.85
21.078,-43.69
21.093,-51.56
21.109,-57.16
21.125,-59.23
21.140,-57.02
21.156,-50.46
21.171,-40.28
21.187,-27.74
21.203,-14.34
21.218,-1.34
21.234,10.36
21.250,20.27
21.265,28.18
21.281,33.99
21.296,37.7
21.312,39.52
21.328,39.85
21.343,39.32
21.359,38.58
21.375,38.12
21.390,38.2
21.406,38.77
21.421,39.67
21.437,40.7
21.453,41.73
21.468,42.62
21.484,43.25
21.500,43.49
21.515,43.26
21.531,42.59
21.546,41.59
21.562,40.49
21.578,39.5
21.593,38.79
21.609,38.43
21.625,38.39
21.640,38.57
21.656,38.79
21.671,38.75
21.687,38.14
21.703,36.73
21.718,34.44
21.734,31.51
21.750,28.39
21.765,25.56
21.781,23.36
21.796,21.78
21.812,20.49
21.828,19.0
21.843,16.88
21.859,14.03
21.875,10.76
21.890,7.63
21.906,5.26
21.921,4.06
21.937,4.1
21.953,5.11
21.968,6.64
21.984,8.24
22.000,9.44
22.015,9.96
22.031,9.6
22.046,8.32
22.062,6.18
22.078,3.43
22.093,0.41
22.109,-2.56
22.125,-5.16
22.140,-7.31
22.156,-9.05
22.171,-10.62
22.187,-12.3
22.203,-14.37
22.218,-17.07
22.234,-20.45
22.250,-24.44
22.265,-28.82
22.281,-33.31
22.296,-37.66
22.312,-41.79
22.328,-45.83
22.343,-50.14
22.359,-55.12
22.375,-61.05
22.390,-67.82
22.406,-74.75
22.421,-80.66
22.437,-84.15
22.453,-84.04
22.468,-79.81
22.484,-71.74
22.500,-60.91
22.515,-48.74
22.531,-36.59
22.546,-25.44
22.562,-15.83
22.578,-8.0
22.593,-2.15
22.609,1.53
22.625,2.91
22.640,2.06
22.656,-0.56
22.671,-4.14
22.687,-7.73
22.703,-10.47
22.718,-11.81
22.734,-11.61
22.750,-10.07
22.765,-7.55
22.781,-4.45
22.796,-1.17
22.812,1.95
22.828,4.57
22.843,6.39
22.859,7.17
22.875,6.88
22.890,5.69
22.906,3.93
22.921,1.97
22.937,-0.02
22.953,-2.13
22.968,-4.74
22.984,-8.3
23.000,-13.2
23.015,-19.43
23.031,-26.55
23.046,-33.65
23.062,-39.54
23.078,-43.05
23.093,-43.33
23.109,-40.17
23.125,-33.9
23.140,-25.41
23.156,-15.74
23.171,-5.87
23.187,3.46
23.203,11.75
23.218,18.66
23.234,23.93
23.250,27.44
23.265,29.23
23.281,29.64
23.296,29.23
23.312,28.59
23.328,28.23
23.343,28.35
23.359,28.98
23.375,29.94
23.390,31.07
23.406,32.24
23.421,33.33
23.437,34.28
23.453,34.99
23.468,35.42
23.484,35.57
23.500,35.49
23.515,35.21
23.531,34.75
23.546,34.02
23.562,32.96
23.578,31.51
23.593,29.75
23.609,27.82
23.625,25.83
23.640,23.88
23.656,21.86
23.671,19.64
23.687,17.13
23.703,14.37
23.718,11.65
23.734,9.31
23.750,7.64
23.765,6.68
23.781,6.2
23.796,5.74
23.812,4.85
23.828,3.2
23.843,0.77
23.859,-2.23
23.875,-5.44
23.890,-8.55
23.906,-11.37
23.921,-13.79
23.937,-15.83
23.953,-17.44
23.968,-18.66
23.984,-19.53
24.000,-20.24
24.015,-21.08
24.031,-22.4
24.046,-24.52
24.062,-27.64
24.078,-31.8
24.093,-36.79
24.109,-42.29
24.125,-47.87
24.140,-53.2
24.156,-58.06
24.171,-62.46
24.187,-66.71
24.203,-71.36
24.218,-77.04
24.234,-84.19
24.250,-92.71
24.265,-101.81
24.281,-110.0
24.296,-115.51
24.312,-116.73
24.328,-112.81
24.343,-103.85
24.359,-90.9
24.375,-75.55
24.390,-59.41
24.406,-43.8
24.421,-29.52
24.437,-17.01
24.453,-6.49
24.468,1.89
24.484,8.02
24.500,11.93
24.515,13.93
24.531,14.56
24.546,14.56
24.562,14.6
24.578,15.12
24.593,16.26
24.609,17.77
24.625,19.28
24.640,20.28
24.656,20.43
24.671,19.56
24.687,17.69
24.703,15.05
24.718,11.9
24.734,8.49
24.750,4.97
24.765,1.29
24.781,-2.73
24.796,-7.4
24.812,-12.99
24.828,-19.66
24.843,-27.26
24.859,-35.31
24.875,-42.94
24.890,-49.02
24.906,-52.41
24.921,-52.25
24.937,-48.2
24.953,-40.55
24.968,-30.16
24.984,-18.1
25.000,-5.41
25.015,7.11
25.031,18.91
25.046,29.57
25.062,38.69
25.078,45.81
25.093,50.57
25.109,52.79
25.125,52.74
25.140,50.96
25.156,48.29
25.171,45.55
25.187,43.33
25.203,41.86
25.218,41.0
25.234,40.42
25.250,39.7
25.265,38.54
25.281,36.83
25.296,34.65
25.312,32.13
25.328,29.34
25.343,26.23
25.359,22.63
25.375,18.33
25.390,13.15
25.406,6.99
25.421,-0.19
25.437,-8.28
25.453,-16.98
25.468,-25.59
25.484,-33.01
25.500,-37.81
25.515,-38.65
25.531,-34.78
25.546,-26.25
25.562,-14.09
25.578,0.2
25.593,14.92
25.609,28.74
25.625,40.79
25.640,50.59
25.656,57.83
25.671,62.31
25.687,63.97
25.703,63.01
25.718,59.9
25.734,55.41
25.750,50.32
25.765,45.28
25.781,40.68
25.796,36.63
25.812,33.09
25.828,29.94
25.843,27.13
25.859,24.6
25.875,22.33
25.890,20.16
25.906,17.88
25.921,15.2
25.937,11.86
25.953,7.62
25.968,2.34
25.984,-4.05
26.000,-11.54
26.015,-20.08
26.031,-29.55
26.046,-39.7
26.062,-50.05
26.078,-59.73
26.093,-67.6
26.109,-72.35
26.125,-72.91
26.140,-68.77
26.156,-60.19
26.171,-48.21
26.187,-34.31
26.203,-20.01
26.218,-6.47
26.234,5.64
26.250,16.08
26.265,24.83
26.281,31.89
26.296,37.22
26.312,40.78
26.328,42.58
26.343,42.79
26.359,41.65
26.375,39.46
26.390,36.5
26.406,33.04
26.421,29.39
26.437,25.88
26.453,22.76
26.468,20.16
26.484,17.96
26.500,15.84
26.515,13.38
26.531,10.22
26.546,6.14
26.562,1.19
26.578,-4.36
26.593,-10.07
26.609,-15.53
26.625,-20.46
26.640,-24.87
26.656,-29.07
26.671,-33.53
26.687,-38.75
26.703,-44.98
26.718,-52.08
26.734,-59.42
26.750,-66.0
26.765,-70.56
26.781,-71.87
26.796,-69.0
26.812,-61.59
26.828,-50.07
26.843,-35.54
26.859,-19.53
26.875,-3.56
26.890,11.23
26.906,24.23
26.921,35.27
26.937,44.37
26.953,51.53
26.968,56.64
26.984,59.63
27.000,60.62
27.015,60.03
27.031,58.5
27.046,56.65
27.062,54.9
27.078,53.34
27.093,51.82
27.109,50.04
27.125,47.84
27.140,45.24
27.156,42.47
27.171,39.83
27.187,37.5
27.203,35.45
27.218,33.36
27.234,30.79
27.250,27.37
27.265,23.0
27.281,17.85
27.296,12.33
27.312,6.87
27.328,1.74
27.343,-3.05
27.359,-7.73
27.375,-12.72
27.390,-18.4
27.406,-25.04
27.421,-32.71
27.437,-41.27
27.453,-50.24
27.468,-58.8
27.484,-65.83
27.500,-70.06
27.515,-70.39
27.531,-66.22
27.546,-57.68
27.562,-45.59
27.578,-31.28
27.593,-16.17
27.609,-1.48
27.625,11.93
27.640,23.59
27.656,33.27
27.671,40.89
27.687,46.37
27.703,49.8
27.718,51.38
27.734,51.52
27.750,50.79
27.765,49.69
27.781,48.62
27.796,47.76
27.812,47.05
27.828,46.34
27.843,45.5
27.859,44.43
27.875,43.12
27.890,41.63
27.906,39.99
27.921,38.18
27.937,36.09
27.953,33.59
27.968,30.51
27.984,26.72
28.000,22.19
28.015,17.0
28.031,11.41
28.046,5.75
28.062,0.38
28.078,-4.51
28.093,-8.94
28.109,-13.13
28.125,-17.39
28.140,-21.95
28.156,-26.96
28.171,-32.48
28.187,-38.56
28.203,-45.18
28.218,-52.12
28.234,-58.78
28.250,-64.13
28.265,-66.88
28.281,-65.93
28.296,-60.82
28.312,-51.91
28.328,-40.33
28.343,-27.51
28.359,-14.75
28.375,-2.9
28.390,7.66
28.406,16.83
28.421,24.57
28.437,30.8
28.453,35.4
28.468,38.36
28.484,39.84
28.500,40.21
28.515,39.97
28.531,39.62
28.546,39.51
28.562,39.81
28.578,40.42
28.593,41.05
28.609,41.32
28.625,40.91
28.640,39.69
28.656,37.74
28.671,35.3
28.687,32.58
28.703,29.68
28.718,26.56
28.734,23.07
28.750,19.16
28.765,14.87
28.781,10.44
28.796,6.14
28.812,2.14
28.828,-1.58
28.843,-5.24
28.859,-9.14
28.875,-13.51
28.890,-18.47
28.906,-23.97
28.921,-29.88
28.937,-36.01
28.953,-42.08
28.968,-47.63
28.984,-51.96
29.000,-54.26
29.015,-53.73
29.031,-49.94
29.046,-42.98
29.062,-33.49
29.078,-22.55
29.093,-11.3
29.109,-0.71
29.125,8.7
29.140,16.73
29.156,23.42
29.171,28.75
29.187,32.65
29.203,34.95
29.218,35.61
29.234,34.81
29.250,33.04
29.265,30.95
29.281,29.07
29.296,27.67
29.312,26.62
29.328,25.57
29.343,24.15
29.359,22.17
29.375,19.67
29.390,16.84
29.406,13.91
29.421,10.99
29.437,8.04
29.453,5.01
29.468,1.77
29.484,-1.75
29.500,-5.61
29.515,-9.81
29.531,-14.31
29.546,-18.99
29.562,-23.61
29.578,-27.91
29.593,-31.7
29.609,-34.95
29.625,-37.87
29.640,-40.87
29.656,-44.5
29.671,-49.25
29.687,-55.27
29.703,-62.22
29.718,-69.18
29.734,-74.82
29.750,-77.72
29.765,-76.86
29.781,-71.91
29.796,-63.43
29.812,-52.62
29.828,-40.94
29.843,-29.67
29.859,-19.62
29.875,-11.1
29.890,-4.08
29.906,1.6
29.921,6.11
29.937,9.56
29.953,12.13
29.968,14.02
29.984,15.5
30.000,16.85
30.015,18.25
30.031,19.82
30.046,21.56
30.062,23.36
30.078,25.07
30.093,26.55
30.109,27.69
30.125,28.42
30.140,28.69
30.156,28.38
30.171,27.26
30.187,25.09
30.203,21.74
30.218,17.32
30.234,12.28
30.250,7.37
30.265,3.38
30.281,0.9
30.296,0.07
30.312,0.58
30.328,1.74
30.343,2.67
30.359,2.52
30.375,0.58
30.390,-3.49
30.406,-9.56
30.421,-16.84
30.437,-24.05
30.453,-29.62
30.468,-32.21
30.484,-31.06
30.500,-26.28
30.515,-18.74
30.531,-9.72
30.546,-0.45
30.562,8.17
30.578,15.71
30.593,22.09
30.609,27.31
30.625,31.33
30.640,34.03
30.656,35.33
30.671,35.29
30.687,34.14
30.703,32.26
30.718,30.0
30.734,27.61
30.750,25.18
30.765,22.7
30.781,20.19
30.796,17.75
30.812,15.6
30.828,13.97
30.843,12.94
30.859,12.4
30.875,11.98
30.890,11.21
30.906,9.65
30.921,7.04
30.937,3.41
30.953,-0.92
30.968,-5.56
30.984,-10.15
31.000,-14.58
31.015,-19.04
31.031,-23.91
31.046,-29.65
31.062,-36.58
31.078,-44.78
31.093,-53.99
31.109,-63.53
31.125,-72.43
31.140,-79.46
31.156,-83.42
31.171,-83.48
31.187,-79.44
31.203,-71.8
31.218,-61.71
31.234,-50.62
31.250,-39.85
31.265,-30.36
31.281,-22.62
31.296,-16.71
31.312,-12.48
31.328,-9.65
31.343,-7.8
31.359,-6.33
31.375,-4.56
31.390,-1.86
31.406,2.17
31.421,7.51
31.437,13.74
31.453,20.15
31.468,26.02
31.484,30.79
31.500,34.21
31.515,36.28
31.531,37.21
31.546,37.31
31.562,36.91
31.578,36.34
31.593,35.87
31.609,35.66
31.625,35.7
31.640,35.81
31.656,35.71
31.671,35.18
31.687,34.18
31.703,32.89
31.718,31.58
31.734,30.5
31.750,29.74
31.765,29.15
31.781,28.42
31.796,27.24
31.812,25.38
31.828,22.81
31.843,19.68
31.859,16.32
31.875,13.08
31.890,10.33
31.906,8.32
31.921,7.15
31.937,6.74
31.953,6.83
31.968,7.16
31.984,7.51
32.000,7.75
32.015,7.8
32.031,7.6
32.046,7.0
32.062,5.9
32.078,4.26
32.093,2.19
32.109,-0.04
32.125,-2.14
32.140,-3.97
32.156,-5.63
32.171,-7.41
32.187,-9.67
32.203,-12.7
32.218,-16.57
32.234,-21.14
32.250,-26.09
32.265,-31.03
32.281,-35.61
32.296,-39.59
32.312,-42.96
32.328,-45.94
32.343,-48.94
32.359,-52.49
32.375,-57.04
32.390,-62.82
32.406,-69.72
32.421,-77.17
32.437,-84.13
32.453,-89.23
32.468,-91.03
32.484,-88.39
32.500,-80.91
32.515,-69.08
32.531,-54.27
32.546,-38.35
32.562,-23.15
32.578,-10.05
32.593,0.29
32.609,7.77
32.625,12.73
32.640,15.56
32.656,16.62
32.671,16.27
32.687,14.89
32.703,12.95
32.718,11.0
32.734,9.53
32.750,8.88
32.765,9.14
32.781,10.17
32.796,11.65
32.812,13.09
32.828,14.08
32.843,14.28
32.859,13.52
32.875,11.8
32.890,9.26
32.906,6.1
32.921,2.51
32.937,-1.32
32.953,-5.26
32.968,-9.28
32.984,-13.43
33.000,-17.93
33.015,-23.03
33.031,-28.93
33.046,-35.46
33.062,-41.98
33.078,-47.42
33.093,-50.46
33.109,-50.06
33.125,-45.76
33.140,-37.91
33.156,-27.51
33.171,-15.9
33.187,-4.33
33.203,6.29
33.218,15.43
33.234,22.81
33.250,28.32
33.265,31.85
33.281,33.32
33.296,32.86
33.312,30.84
33.328,27.9
33.343,24.83
33.359,22.33
33.375,20.82
33.390,20.29
33.406,20.38
33.421,20.46
33.437,19.96
33.453,18.5
33.468,16.05
33.484,12.8
33.500,9.1
33.515,5.27
33.531,1.51
33.546,-2.18
33.562,-5.93
33.578,-10.04
33.593,-14.93
33.609,-21.0
33.625,-28.46
33.640,-37.17
33.656,-46.38
33.671,-54.83
33.687,-60.9
33.703,-63.07
33.718,-60.39
33.734,-52.87
33.750,-41.39
33.765,-27.58
33.781,-13.21
33.796,0.24
33.812,11.88
33.828,21.38
33.843,28.81
33.859,34.33
33.875,38.03
33.890,39.97
33.906,40.21
33.921,39.08
33.937,37.05
33.953,34.74
33.968,32.66
33.984,31.05
34.000,29.84
34.015,28.71
34.031,27.3
34.046,25.33
34.062,22.74
34.078,19.72
34.093,16.53
34.109,13.37
34.125,10.24
34.140,6.95
34.156,3.18
34.171,-1.34
34.187,-6.76
34.203,-13.05
34.218,-20.09
34.234,-27.71
34.250,-35.68
34.265,-43.57
34.281,-50.59
34.296,-55.69
34.312,-57.65
34.328,-55.6
34.343,-49.35
34.359,-39.58
34.375,-27.65
34.390,-15.13
34.406,-3.27
34.421,7.31
34.437,16.55
34.453,24.66
34.468,31.71
34.484,37.46
34.500,41.46
34.515,43.34
34.531,43.13
34.546,41.27
34.562,38.5
34.578,35.51
34.593,32.75
34.609,30.31
34.625,28.07
34.640,25.85
34.656,23.57
34.671,21.25
34.687,18.98
34.703,16.81
34.718,14.65
34.734,12.35
34.750,9.72
34.765,6.62
34.781,3.0
34.796,-1.11
34.812,-5.7
34.828,-10.92
34.843,-17.04
34.859,-24.4
34.875,-33.06
34.890,-42.49
34.906,-51.46
34.921,-58.17
34.937,-60.71
34.953,-57.78
34.968,-49.13
34.984,-35.74
35.000,-19.48
35.015,-2.55
35.031,13.22
35.046,26.68
35.062,37.41
35.078,45.51
35.093,51.26
35.109,54.89
35.125,56.59
35.140,56.6
35.156,55.26
35.171,53.05
35.187,50.47
35.203,47.96
35.218,45.74
35.234,43.84
35.250,42.11
35.265,40.28
35.281,38.07
35.296,35.25
35.312,31.78
35.328,27.78
35.343,23.51
35.359,19.25
35.375,15.09
35.390,10.89
35.406,6.39
35.421,1.25
35.437,-4.67
35.453,-11.42
35.468,-18.91
35.484,-26.97
35.500,-35.32
35.515,-43.38
35.531,-50.15
35.546,-54.28
35.562,-54.45
35.578,-49.89
35.593,-40.71
35.609,-28.02
35.625,-13.54
35.640,0.97
35.656,14.19
35.671,25.44
35.687,34.6
35.703,41.8
35.718,47.11
35.734,50.54
35.750,52.07
35.765,51.77
35.781,49.98
35.796,47.25
35.812,44.13
35.828,41.12
35.843,38.41
35.859,35.97
35.875,33.57
35.890,30.95
35.906,27.95
35.921,24.58
35.937,20.99
35.953,17.34
35.968,13.68
35.984,9.86
36.000,5.57
36.015,0.48
36.031,-5.63
36.046,-12.8
36.062,-20.77
36.078,-29.08
36.093,-37.05
36.109,-43.78
36.125,-48.33
36.140,-49.79
36.156,-47.58
36.171,-41.55
36.187,-32.17
36.203,-20.31
36.218,-7.11
36.234,6.36
36.250,19.22
36.265,30.84
36.281,40.75
36.296,48.61
36.312,54.13
36.328,57.11
36.343,57.61
36.359,55.98
36.375,52.82
36.390,48.91
36.406,44.94
36.421,41.4
36.437,38.43
36.453,35.87
36.468,33.3
36.484,30.37
36.500,26.82
36.515,22.67
36.531,18.1
36.546,13.34
36.562,8.56
36.578,3.81
36.593,-1.0
36.609,-6.02
36.625,-11.49
36.640,-17.66
36.656,-24.7
36.671,-32.56
36.687,-40.79
36.703,-48.45
36.718,-54.25
36.734,-56.85
36.750,-55.28
36.765,-49.33
36.781,-39.58
36.796,-27.27
36.812,-13.89
36.828,-0.77
36.843,11.09
36.859,21.1
36.875,28.97
36.890,34.61
36.906,38.09
36.921,39.63
36.937,39.64
36.953,38.61
36.968,37.03
36.984,35.26
37.000,33.46
37.015,31.64
37.031,29.73
37.046,27.68
37.062,25.5
37.078,23.21
37.093,20.75
37.109,18.03
37.125,14.9
37.140,11.27
37.156,7.15
37.171,2.68
37.187,-1.96
37.203,-6.63
37.218,-11.25
37.234,-15.84
37.250,-20.44
37.265,-25.13
37.281,-29.99
37.296,-35.08
37.312,-40.32
37.328,-45.37
37.343,-49.55
37.359,-51.9
37.375,-51.42
37.390,-47.4
37.406,-39.79
37.421,-29.23
37.437,-16.93
37.453,-4.28
37.468,7.48
37.484,17.47
37.500,25.25
37.515,30.71
37.531,33.95
37.546,35.29
37.562,35.21
37.578,34.32
37.593,33.2
37.609,32.2
37.625,31.33
37.640,30.3
37.656,28.63
37.671,25.94
37.687,22.18
37.703,17.57
37.718,12.54
37.734,7.43
37.750,2.39
37.765,-2.69
37.781,-8.01
37.796,-13.67
37.812,-19.53
37.828,-25.23
37.843,-30.4
37.859,-34.75
37.875,-38.31
37.890,-41.37
37.906,-44.36
37.921,-47.7
37.937,-51.65
37.953,-56.27
37.968,-61.32
37.984,-66.3
38.000,-70.39
38.015,-72.59
38.031,-71.93
38.046,-67.73
38.062,-59.89
38.078,-48.96
38.093,-36.01
38.109,-22.33
38.125,-9.12
38.140,2.8
38.156,12.96
38.171,21.24
38.187,27.72
38.203,32.62
38.218,36.23
38.234,38.93
38.250,41.12
38.265,43.18
38.281,45.36
38.296,47.77
38.312,50.41
38.328,53.18
38.343,55.89
38.359,58.29
38.375,60.06
38.390,60.89
38.406,60.52
38.421,58.84
38.437,55.93
38.453,52.0
38.468,47.29
38.484,42.05
38.500,36.43
38.515,30.61
38.531,24.77
38.546,19.01
38.562,13.33
38.578,7.51
38.593,1.24
38.609,-5.68
38.625,-13.12
38.640,-20.42
38.656,-26.5
38.671,-30.2
38.687,-30.67
38.703,-27.66
38.718,-21.69
38.734,-13.72
38.750,-4.9
38.765,3.8
38.781,11.67
38.796,18.32
38.812,23.47
38.828,26.95
38.843,28.72
38.859,28.94
38.875,28.01
38.890,26.45
38.906,24.74
38.921,23.05
38.937,21.31
38.953,19.19
38.968,16.44
38.984,13.0
39.000,9.08
39.015,5.05
39.031,1.15
39.046,-2.58
39.062,-6.34
39.078,-10.45
39.093,-15.1
39.109,-20.26
39.125,-25.69
39.140,-31.0
39.156,-35.89
39.171,-40.22
39.187,-44.04
39.203,-47.62
39.218,-51.22
39.234,-55.1
39.250,-59.34
39.265,-63.79
39.281,-68.08
39.296,-71.61
39.312,-73.63
39.328,-73.42
39.343,-70.43
39.359,-64.5
39.375,-55.96
39.390,-45.58
39.406,-34.38
39.421,-23.47
39.437,-13.8
39.453,-6.02
39.468,-0.42
39.484,3.07
39.500,4.84
39.515,5.47
39.531,5.65
39.546,5.98
39.562,6.83
39.578,8.22
39.593,9.86
39.609,11.3
39.625,12.15
39.640,12.22
39.656,11.6
39.671,10.56
39.687,9.4
39.703,8.27
39.718,7.1
39.734,5.71
39.750,3.91
39.765,1.63
39.781,-1.07
39.796,-4.07
39.812,-7.28
39.828,-10.67
39.843,-14.27
39.859,-18.16
39.875,-22.43
39.890,-27.13
39.906,-32.29
39.921,-37.75
39.937,-43.17
39.953,-47.84
39.968,-50.83
39.984,-51.16
40.000,-48.13
40.015,-41.65
40.031,-32.32
40.046,-21.27
40.062,-9.82
40.078,0.92
40.093,10.29
40.109,18.06
40.125,24.31
40.140,29.15
40.156,32.69
40.171,34.94
40.187,36.03
40.203,36.2
40.218,35.75
40.234,34.96
40.250,34.07
40.265,33.12
40.281,32.1
40.296,30.98
40.312,29.75
40.328,28.43
40.343,27.1
40.359,25.83
40.375,24.63
40.390,23.45
40.406,22.13
40.421,20.53
40.437,18.56
40.453,16.23
40.468,13.65
40.484,10.96
40.500,8.21
40.515,5.29
40.531,1.96
40.546,-2.04
40.562,-6.86
40.578,-12.4
40.593,-18.29
40.609,-23.88
40.625,-28.35
40.640,-30.91
40.656,-30.97
40.671,-28.28
40.687,-23.04
40.703,-15.83
40.718,-7.41
40.734,1.38
40.750,9.88
40.765,17.6
40.781,24.23
40.796,29.58
40.812,33.52
40.828,35.96
40.843,36.89
40.859,36.37
40.875,34.58
40.890,31.86
40.906,28.7
40.921,25.61
40.937,23.07
40.953,21.31
40.968,20.22
40.984,19.41
41.000,18.37
41.015,16.7
41.031,14.28
41.046,11.29
41.062,8.15
41.078,5.28
41.093,2.93
41.109,1.08
41.125,-0.57
41.140,-2.49
41.156,-5.2
41.171,-9.1
41.187,-14.31
41.203,-20.61
41.218,-27.38
41.234,-33.67
41.250,-38.37
41.265,-40.41
41.281,-39.08
41.296,-34.17
41.312,-26.02
41.328,-15.45
41.343,-3.55
41.359,8.62
41.375,20.18
41.390,30.49
41.406,39.21
41.421,46.13
41.437,51.12
41.453,54.09
41.468,54.97
41.484,53.79
41.500,50.74
41.515,46.17
41.531,40.7
41.546,35.12
41.562,30.25
41.578,26.8
41.593,25.07
41.609,24.92
41.625,25.73
41.640,26.63
41.656,26.81
41.671,25.65
41.687,22.91
41.703,18.62
41.718,13.0
41.734,6.38
41.750,-0.86
41.765,-8.32
41.781,-15.6
41.796,-22.43
41.812,-28.81
41.828,-34.92
41.843,-40.96
41.859,-46.89
41.875,-52.26
41.890,-56.26
41.906,-58.04
41.921,-56.99
41.937,-53.0
41.953,-46.51
41.968,-38.25
41.984,-29.04
42.000,-19.55
42.015,-10.32
42.031,-1.7
42.046,5.94
42.062,12.32
42.078,17.15
42.093,20.17
42.109,21.32
42.125,20.72
42.140,18.76
42.156,16.14
42.171,13.65
42.187,11.99
42.203,11.46
42.218,11.89
42.234,12.68
42.250,13.13
42.265,12.66
42.281,11.06
42.296,8.51
42.312,5.38
42.328,2.1
42.343,-1.05
42.359,-3.95
42.375,-6.63
42.390,-9.25
42.406,-12.1
42.421,-15.56
42.437,-19.97
42.453,-25.46
42.468,-31.71
42.484,-37.87
42.500,-42.74
42.515,-45.06
42.531,-43.98
42.546,-39.37
42.562,-31.86
42.578,-22.62
42.593,-12.92
42.609,-3.78
42.625,4.18
42.640,10.72
42.656,15.82
42.671,19.47
42.687,21.66
42.703,22.36
42.718,21.72
42.734,19.98
42.750,17.59
42.765,15.01
42.781,12.66
42.796,10.78
42.812,9.33
42.828,8.05
42.843,6.54
42.859,4.48
42.875,1.72
42.890,-1.62
42.906,-5.22
42.921,-8.73
42.937,-11.85
42.953,-14.54
42.968,-16.95
42.984,-19.45
43.000,-22.45
43.015,-26.34
43.031,-31.31
43.046,-37.4
43.062,-44.4
43.078,-51.84
43.093,-59.03
43.109,-65.05
43.125,-68.94
43.140,-69.88
43.156,-67.44
43.171,-61.77
43.187,-53.58
43.203,-43.99
43.218,-34.19
43.234,-25.09
43.250,-17.21
43.265,-10.6
43.281,-5.12
43.296,-0.66
43.312,2.76
43.328,4.95
43.343,5.79
43.359,5.34
43.375,3.97
43.390,2.26
43.406,0.8
43.421,0.01
43.437,0.03
43.453,0.68
43.468,1.65
43.484,2.59
43.500,3.18
43.515,3.18
43.531,2.47
43.546,1.0
43.562,-1.17
43.578,-3.91
43.593,-7.04
43.609,-10.42
43.625,-13.98
43.640,-17.77
43.656,-21.97
43.671,-26.77
43.687,-32.37
43.703,-38.71
43.718,-45.39
43.734,-51.53
43.750,-55.93
43.765,-57.31
43.781,-54.78
43.796,-48.19
43.812,-38.27
43.828,-26.39
43.843,-14.16
43.859,-2.93
43.875,6.54
43.890,14.11
43.906,19.99
43.921,24.54
43.937,27.98
43.953,30.37
43.968,31.65
43.984,31.85
44.000,31.1
44.015,29.7
44.031,27.98
44.046,26.22
44.062,24.52
44.078,22.87
44.093,21.18
44.109,19.36
44.125,17.37
44.140,15.23
44.156,12.99
44.171,10.66
44.187,8.18
44.203,5.46
44.218,2.32
44.234,-1.35
44.250,-5.62
44.265,-10.47
44.281,-15.8
44.296,-21.47
44.312,-27.32
44.328,-33.13
44.343,-38.45
44.359,-42.55
44.375,-44.49
44.390,-43.4
44.406,-38.78
44.421,-30.87
44.437,-20.62
44.453,-9.45
44.468,1.23
44.484,10.47
44.500,17.9
44.515,23.63
44.531,27.97
44.546,31.1
44.562,32.97
44.578,33.49
44.593,32.58
44.609,30.47
44.625,27.63
44.640,24.68
44.656,22.2
44.671,20.5
44.687,19.57
44.703,19.07
44.718,18.56
44.734,17.54
44.750,15.72
44.765,13.03
44.781,9.62
44.796,5.74
44.812,1.65
44.828,-2.51
44.843,-6.67
44.859,-10.86
44.875,-15.17
44.890,-19.74
44.906,-24.75
44.921,-30.26
44.937,-36.09
44.953,-41.7
44.968,-46.13
44.984,-48.3
45.000,-47.28
45.015,-42.7
45.031,-34.89
45.046,-24.83
45.062,-13.83
45.078,-3.1
45.093,6.47
45.109,14.44
45.125,20.67
45.140,25.25
45.156,28.31
45.171,29.99
45.187,30.53
45.203,30.23
45.218,29.53
45.234,28.8
45.250,28.34
45.265,28.22
45.281,28.36
45.296,28.54
45.312,28.53
45.328,28.16
45.343,27.38
45.359,26.26
45.375,24.91
45.390,23.52
45.406,22.2
45.421,20.94
45.437,19.67
45.453,18.31
45.468,16.86
45.484,15.42
45.500,14.1
45.515,12.89
45.531,11.58
45.546,9.89
45.562,7.77
45.578,5.67
45.593,4.71
45.609,6.36
45.625,11.99
45.640,22.27
45.656,36.86
45.671,54.52
45.687,73.53
45.703,92.22
45.718,109.51
45.734,124.95
45.750,138.68
45.765,151.13
45.781,162.96
45.796,174.85
45.812,187.49
45.828,201.26
45.843,215.99
45.859,230.66
45.875,243.57
45.890,252.83
45.906,257.2
45.921,256.61
45.937,252.16
45.953,245.58
45.968,238.37
45.984,231.26
46.000,224.13
46.015,216.45
46.031,207.67
46.046,197.5
46.062,185.78
46.078,172.13
46.093,155.87
46.109,136.29
46.125,113.06
46.140,86.67
46.156,58.49
46.171,30.44
46.187,4.4
46.203,-18.45
46.218,-37.92
46.234,-54.83
46.250,-70.71
46.265,-87.27
46.281,-105.67
46.296,-126.11
46.312,-147.79
46.328,-169.29
46.343,-189.24
46.359,-207.02
46.375,-222.93
46.390,-238.22
46.406,-254.68
46.421,-274.36
46.437,-299.13
46.453,-330.11
46.468,-366.73
46.484,-405.8
46.500,-441.36
46.515,-465.53
46.531,-470.69
46.546,-452.09
46.562,-409.76
46.578,-348.73
46.593,-277.31
46.609,-204.4
46.625,-136.95
46.640,-78.96
46.656,-32.0
46.671,3.18
46.687,25.58
46.703,33.93
46.718,27.71
46.734,8.42
46.750,-19.99
46.765,-52.08
46.781,-82.65
46.796,-108.16
46.812,-127.44
46.828,-140.86
46.843,-148.85
46.859,-150.74
46.875,-144.65
46.890,-128.5
46.906,-101.51
46.921,-65.33
46.937,-24.21
46.953,15.89
46.968,48.9
46.984,70.26
47.000,77.98
47.015,72.97
47.031,58.53
47.046,39.24
47.062,19.73
47.078,3.53
47.093,-7.41
47.109,-12.61
47.125,-12.56
47.140,-8.09
47.171,10.98
47.187,23.99
47.203,37.88
47.218,51.33
47.234,63.04
47.250,72.16
47.265,78.28
47.281,81.22
47.296,80.78
47.312,76.4
47.328,67.32
47.343,52.95
47.359,33.33
47.375,9.43
47.390,-16.95
47.406,-43.66
47.421,-68.71
47.437,-90.58
47.453,-108.04
47.468,-119.97
47.484,-125.06
47.500,-122.12
47.515,-110.73
47.531,-91.97
47.546,-68.74
47.562,-45.2
47.578,-25.5
47.593,-12.39
47.609,-6.33
47.625,-5.61
47.640,-7.33
47.656,-8.76
47.671,-8.27
47.687,-5.64
47.703,-1.47
47.718,3.53
47.734,9.02
47.750,15.09
47.765,21.96
47.781,29.58
47.796,37.52
47.812,45.01
47.828,51.34
47.843,56.08
47.859,59.18
47.875,61.01
47.890,62.16
47.906,63.24
47.921,64.75
47.937,66.88
47.953,69.45
47.968,71.98
47.984,73.81
48.000,74.32
48.015,73.15
48.031,70.24
48.046,65.82
48.062,60.3
48.078,54.08
48.093,47.56
48.109,41.26
48.125,35.92
48.140,32.41
48.156,31.43
48.171,33.11
48.187,36.69
48.203,40.7
48.218,43.6
48.234,44.38
48.250,42.96
48.265,40.03
48.281,36.46
48.296,32.79
48.312,29.09
48.328,25.43
48.343,22.32
48.359,20.85
48.375,22.11
48.390,26.27
48.406,32.01
48.421,36.81
48.437,38.08
48.453,34.6
48.468,27.32
48.484,19.19
48.500,14.01
48.515,14.85
48.531,22.87
48.546,36.87
48.562,53.83
48.578,69.68
48.593,80.52
48.609,83.58
48.625,78.08
48.640,65.46
48.656,48.98
48.671,32.57
48.687,19.36
48.703,10.43
48.718,4.58
48.734,-0.85
48.750,-8.39
48.765,-19.05
48.781,-31.54
48.796,-42.7
48.812,-48.72
48.828,-46.56
48.843,-35.05
48.859,-15.37
48.875,9.02
48.890,33.01
48.906,50.96
48.921,58.24
48.937,52.52
48.953,34.42
48.968,7.08
48.984,-25.19
49.000,-58.34
49.015,-89.46
49.031,-116.72
49.046,-138.77
49.062,-154.28
49.078,-161.97
49.093,-161.41
49.109,-153.68
49.125,-141.5
49.140,-128.32
49.156,-117.07
49.171,-108.94
49.187,-103.16
49.203,-97.69
49.218,-90.32
49.234,-79.88
49.250,-66.68
49.265,-52.3
49.281,-38.97
49.296,-28.66
49.312,-22.44
49.328,-20.13
49.343,-20.49
49.359,-21.73
49.375,-22.14
49.390,-20.48
49.406,-16.13
49.421,-8.95
49.437,0.99
49.453,13.43
49.468,27.8
49.484,43.01
49.500,57.41
49.515,69.03
49.531,76.11
49.546,77.71
49.562,73.99
49.578,66.18
49.593,56.16
49.609,45.79
49.625,36.53
49.640,29.27
49.656,24.47
49.671,22.38
49.687,23.08
49.703,26.48
49.718,32.25
49.734,39.79
49.750,48.37
49.765,57.28
49.781,65.97
49.796,73.95
49.812,80.69
49.828,85.58
49.843,87.99
49.859,87.65
49.875,84.91
49.890,80.77
49.906,76.66
49.921,73.92
49.937,73.41
49.953,75.47
49.968,80.22
49.984,87.83
50.000,98.68
50.015,113.05
50.031,130.68
50.046,150.5
50.062,170.76
50.078,189.5
50.093,205.08
50.109,216.51
50.125,223.21
50.140,224.63
50.156,219.98
50.171,208.19
50.187,188.27
50.203,159.9
50.218,123.92
50.234,82.45
50.250,38.57
50.265,-4.62
50.281,-44.89
50.296,-81.54
50.312,-115.45
50.328,-148.43
50.343,-182.17
50.359,-217.29
50.375,-252.98
50.390,-287.16
50.406,-317.07
50.421,-340.03
50.437,-353.78
50.453,-356.76
50.468,-348.23
50.484,-328.61
50.500,-299.68
50.515,-264.29
50.531,-225.9
50.546,-187.83
50.562,-152.64
50.578,-121.76
50.593,-95.66
50.609,-73.88
50.625,-55.48
50.640,-39.41
50.656,-24.82
50.671,-11.31
50.687,1.08
50.703,12.04
50.718,21.26
50.734,28.57
50.750,33.94
50.765,37.27
50.781,38.28
50.796,36.61
50.812,32.2
50.828,25.55
50.843,17.85
50.859,10.59
50.875,4.91
50.890,1.21
50.906,-0.75
50.921,-1.6
50.937,-1.94
50.953,-2.16
50.968,-2.42
50.984,-2.92
51.000,-4.06
51.015,-6.47
51.031,-10.8
51.046,-17.35
51.062,-25.82
51.078,-35.09
51.093,-43.39
51.109,-48.78
51.125,-49.72
51.140,-45.63
51.156,-37.0
51.171,-25.19
51.187,-11.87
51.203,1.5
51.218,14.0
51.234,25.19
51.250,34.91
51.265,42.95
51.281,48.97
51.296,52.63
51.312,53.8
51.328,52.84
51.343,50.48
51.359,47.68
51.375,45.26
51.390,43.63
51.406,42.7
51.421,41.98
51.437,40.91
51.453,39.13
51.468,36.57
51.484,33.49
51.500,30.25
51.515,27.16
51.531,24.32
51.546,21.58
51.562,18.58
51.578,14.84
51.593,9.98
51.609,3.82
51.625,-3.38
51.640,-10.92
51.656,-17.6
51.671,-22.06
51.687,-23.08
51.703,-20.01
51.718,-13.02
51.734,-3.0
51.750,8.67
51.765,20.58
51.781,31.58
51.796,40.94
51.812,48.27
51.828,53.37
51.843,56.14
51.859,56.59
51.875,54.97
51.890,51.76
51.906,47.62
51.921,43.22
51.937,39.0
51.953,35.13
51.968,31.52
51.984,27.98
52.000,24.34
52.015,20.54
52.031,16.63
52.046,12.83
52.062,9.37
52.078,6.53
52.093,4.45
52.109,3.08
52.125,2.17
52.140,1.25
52.156,-0.25
52.171,-2.82
52.187,-6.75
52.203,-12.08
52.218,-18.55
52.234,-25.57
52.250,-32.31
52.265,-37.68
52.281,-40.54
52.296,-39.85
52.312,-35.05
52.328,-26.27
52.343,-14.41
52.359,-0.92
52.375,12.59
52.390,24.8
52.406,35.01
52.421,43.04
52.437,49.12
52.453,53.57
52.468,56.62
52.484,58.43
52.500,59.12
52.515,58.98
52.531,58.38
52.546,57.77
52.562,57.49
52.578,57.67
52.593,58.2
52.609,58.8
52.625,59.15
52.640,59.01
52.656,58.25
52.671,56.87
52.687,54.97
52.703,52.67
52.718,50.1
52.734,47.38
52.750,44.62
52.765,41.88
52.781,39.17
52.796,36.39
52.812,33.28
52.828,29.44
52.843,24.31
52.859,17.47
52.875,8.78
52.890,-1.35
52.906,-11.94
52.921,-21.69
52.937,-29.27
52.953,-33.79
52.968,-35.07
52.984,-33.59
53.000,-30.23
53.015,-25.89
53.031,-21.22
53.046,-16.51
53.062,-11.88
53.078,-7.48
53.093,-3.64
53.109,-0.8
53.125,0.68
53.140,0.67
53.156,-0.58
53.171,-2.6
53.187,-4.85
53.203,-6.93
53.218,-8.69
53.234,-10.19
53.250,-11.54
53.265,-12.78
53.281,-13.84
53.296,-14.66
53.312,-15.26
53.328,-15.83
53.343,-16.68
53.359,-18.07
53.375,-20.04
53.390,-22.42
53.406,-24.79
53.421,-26.75
53.437,-28.03
53.453,-28.61
53.468,-28.76
53.484,-28.82
53.500,-29.18
53.515,-30.07
53.531,-31.65
53.546,-33.94
53.562,-36.84
53.578,-40.02
53.593,-42.85
53.609,-44.47
53.625,-43.89
53.640,-40.36
53.656,-33.64
53.671,-24.11
53.687,-12.67
53.703,-0.37
53.718,11.87
53.734,23.43
53.750,33.96
53.765,43.15
53.781,50.73
53.796,56.38
53.812,59.95
53.828,61.61
53.843,61.82
53.859,61.2
53.875,60.29
53.890,59.44
53.906,58.68
53.921,57.91
53.937,56.93
53.953,55.5
53.968,53.44
53.984,50.59
54.000,46.88
54.015,42.34
54.031,37.16
54.046,31.63
54.062,26.04
54.078,20.64
54.093,15.54
54.109,10.71
54.125,6.09
54.140,1.63
54.156,-2.69
54.171,-6.86
54.187,-10.93
54.203,-15.0
54.218,-19.21
54.234,-23.7
54.250,-28.54
54.265,-33.76
54.281,-39.25
54.296,-44.77
54.312,-49.9
54.328,-54.03
54.343,-56.48
54.359,-56.74
54.375,-54.56
54.390,-50.16
54.406,-44.06
54.421,-37.0
54.437,-29.69
54.453,-22.69
54.468,-16.5
54.484,-11.57
54.500,-8.3
54.515,-6.92
54.531,-7.26
54.546,-8.74
54.562,-10.44
54.578,-11.42
54.593,-11.03
54.609,-9.14
54.625,-6.1
54.640,-2.5
54.656,1.0
54.671,3.96
54.687,6.19
54.703,7.71
54.718,8.65
54.734,9.18
54.750,9.44
54.765,9.56
54.781,9.65
54.796,9.77
54.812,9.89
54.828,9.87
54.843,9.48
54.859,8.46
54.875,6.63
54.890,4.02
54.906,0.84
54.921,-2.56
54.937,-5.85
54.953,-8.85
54.968,-11.59
54.984,-14.26
55.000,-17.04
55.015,-20.08
55.031,-23.33
55.046,-26.59
55.062,-29.42
55.078,-31.24
55.093,-31.44
55.109,-29.54
55.125,-25.42
55.140,-19.4
55.156,-12.17
55.171,-4.57
55.187,2.66
55.203,9.08
55.218,14.53
55.234,19.02
55.250,22.53
55.265,24.96
55.281,26.22
55.296,26.3
55.312,25.49
55.328,24.21
55.343,22.96
55.359,22.11
55.375,21.79
55.390,21.86
55.406,22.02
55.421,21.96
55.437,21.48
55.453,20.54
55.468,19.23
55.484,17.7
55.500,16.01
55.515,14.13
55.531,11.94
55.546,9.34
55.562,6.32
55.578,3.09
55.593,-0.09
55.609,-2.89
55.625,-5.16
55.640,-6.91
55.656,-8.35
55.671,-9.81
55.687,-11.62
55.703,-14.05
55.718,-17.24
55.734,-21.12
55.750,-25.35
55.765,-29.37
55.781,-32.39
55.796,-33.61
55.812,-32.43
55.828,-28.65
55.843,-22.62
55.859,-15.17
55.875,-7.32
55.890,0.06
55.906,6.39
55.921,11.54
55.937,15.62
55.953,18.81
55.968,21.12
55.984,22.56
56.000,23.15
56.015,23.13
56.031,22.92
56.046,22.99
56.062,23.61
56.078,24.75
56.093,26.1
56.109,27.28
56.125,28.04
56.140,28.36
56.156,28.42
56.171,28.41
56.187,28.4
56.203,28.31
56.218,27.99
56.234,27.34
56.250,26.37
56.265,25.24
56.281,24.14
56.296,23.27
56.312,22.74
56.328,22.55
56.343,22.61
56.359,22.82
56.375,23.08
56.390,23.33
56.406,23.52
56.421,23.67
56.437,23.75
56.453,23.79
56.468,23.79
56.484,23.82
56.500,23.96
56.515,24.32
56.531,24.97
56.546,25.97
56.562,27.31
56.578,28.95
56.593,30.83
56.609,32.87
56.625,34.97
56.640,37.08
56.656,39.22
56.671,41.53
56.687,44.22
56.703,47.47
56.718,51.33
56.734,55.62
56.750,59.98
56.765,64.06
56.781,67.67
56.796,70.95
56.812,74.31
56.828,78.27
56.843,83.24
56.859,89.32
56.875,96.32
56.890,103.77
56.906,111.04
56.921,117.4
56.937,122.23
56.953,125.06
56.968,125.76
56.984,124.46
57.000,121.41
57.015,116.73
57.031,110.16
57.046,101.07
57.062,88.71
57.078,72.57
57.093,52.86
57.109,30.65
57.125,7.73
57.140,-13.72
57.156,-31.58
57.171,-44.3
57.187,-51.13
57.203,-52.31
57.218,-49.0
57.234,-42.97
57.250,-36.09
57.265,-29.78
57.281,-24.63
57.296,-20.26
57.312,-15.61
57.328,-9.49
57.343,-1.06
57.359,9.77
57.375,22.38
57.390,35.64
57.406,48.42
57.421,59.9
57.437,69.72
57.453,77.9
57.468,84.6
57.484,89.78
57.500,93.14
57.515,94.29
57.531,93.04
57.546,89.58
57.562,84.39
57.578,77.87
57.593,69.99
57.609,60.19
57.625,47.84
57.640,32.64
57.656,15.15
57.671,-3.39
57.687,-21.55
57.703,-38.68
57.718,-55.37
57.734,-73.25
57.750,-94.03
57.765,-118.05
57.781,-143.5
57.796,-166.48
57.812,-182.29
57.828,-187.32
57.843,-180.59
57.859,-164.33
57.875,-143.04
57.890,-121.77
57.906,-104.15
57.921,-91.53
57.937,-83.19
57.953,-77.46
57.968,-73.03
57.984,-69.42
58.000,-66.8
58.015,-65.29
58.031,-64.38
58.046,-62.87
58.062,-59.39
58.078,-52.95
58.093,-43.33
58.109,-31.04
58.125,-16.96
58.140,-1.94
58.156,13.42
58.171,28.71
58.187,43.69
58.203,58.3
58.218,72.9
58.234,88.21
58.250,105.04
58.265,123.83
58.281,144.01
58.296,163.81
58.312,180.56
58.328,191.45
58.343,194.44
58.359,188.76
58.375,175.15
58.390,155.25
58.406,131.06
58.421,104.26
58.437,75.79
58.453,45.57
58.468,12.56
58.484,-24.7
58.500,-66.81
58.515,-111.93
58.531,-154.85
58.546,-187.52
58.562,-201.38
58.578,-190.56
58.593,-154.59
58.609,-99.1
58.625,-34.3
58.640,28.18
58.656,78.47
58.671,110.57
58.687,122.5
58.703,115.29
58.718,91.54
58.734,54.74
58.750,9.12
58.765,-39.97
58.781,-86.25
58.796,-123.43
58.812,-146.85
58.828,-155.17
58.843,-151.0
58.859,-140.46
58.875,-131.11
58.890,-129.47
58.906,-139.02
58.921,-159.35
58.937,-187.12
58.953,-217.63
58.968,-246.66
58.984,-271.37
59.000,-290.32
59.015,-302.76
59.031,-308.15
59.046,-305.92
59.062,-295.62
59.078,-277.15
59.093,-250.86
59.109,-217.69
59.125,-179.37
59.140,-138.45
59.156,-97.92
59.171,-60.53
59.187,-27.94
59.203,-0.37
59.218,23.13
59.234,43.84
59.250,62.64
59.265,79.91
59.281,96.15
59.296,112.81
59.312,132.36
59.328,157.13
59.343,187.48
59.359,220.67
59.375,251.21
59.390,273.08
59.406,282.43
59.421,279.03
59.437,265.62
59.453,245.72
59.468,221.45
59.484,192.99
59.500,159.65
59.515,121.79
59.531,81.98
59.546,44.42
59.562,13.41
59.578,-8.35
59.593,-20.5
59.609,-24.53
59.625,-22.75
59.640,-17.4
59.656,-10.47
59.671,-3.92
59.687,0.1
59.703,-0.32
59.718,-6.35
59.734,-17.9
59.750,-33.65
59.765,-51.52
59.781,-69.3
59.796,-85.2
59.812,-97.82
59.828,-106.32
59.843,-110.41
59.859,-110.59
59.875,-108.22
59.890,-105.46
59.906,-104.74
59.921,-107.91
59.937,-115.53
59.953,-126.48
59.968,-138.52
59.984,-149.29
