timestamp,value
00.000,39.56
00.015,43.22
00.031,45.9
00.046,47.84
00.062,49.12
00.078,49.58
00.093,48.92
00.109,46.9
00.125,43.47
00.140,38.8
00.156,33.15
00.171,26.64
00.187,19.2
00.203,10.5
00.218,0.25
00.234,-11.53
00.250,-24.31
00.265,-36.97
00.281,-48.11
00.296,-56.3
00.312,-60.54
00.328,-60.42
00.343,-56.21
00.359,-48.72
00.375,-39.05
00.390,-28.39
00.406,-17.83
00.421,-8.19
00.437,-0.04
00.453,6.36
00.468,11.0
00.484,14.05
00.500,15.77
00.515,16.48
00.531,16.45
00.546,15.89
00.562,14.98
00.578,13.94
00.593,13.08
00.609,12.83
00.625,13.6
00.640,15.66
00.656,19.01
00.671,23.31
00.687,28.12
00.703,33.04
00.718,37.92
00.734,42.88
00.750,48.14
00.765,53.71
00.781,59.28
00.796,64.11
00.812,67.26
00.828,67.87
00.843,65.45
00.859,60.03
00.875,52.13
00.890,42.63
00.906,32.5
00.921,22.55
00.937,13.26
00.953,4.71
00.968,-3.32
00.984,-11.18
01.000,-19.04
01.015,-26.75
01.031,-33.84
01.046,-39.63
01.062,-43.56
01.078,-45.31
01.093,-44.97
01.109,-42.79
01.125,-39.06
01.140,-33.97
01.156,-27.71
01.171,-20.69
01.187,-13.65
01.203,-7.61
01.218,-3.42
01.234,-1.34
01.250,-0.8
01.265,-0.6
01.281,0.47
01.296,2.94
01.312,6.26
01.328,8.97
01.343,9.4
01.359,6.43
01.390,-8.88
01.406,-18.61
01.421,-27.49
01.437,-34.15
01.453,-37.65
01.468,-37.54
01.484,-33.85
01.500,-27.2
01.515,-18.8
01.531,-10.34
01.546,-3.52
01.562,0.44
01.578,1.25
01.593,-0.44
01.609,-3.42
01.625,-6.42
01.640,-8.63
01.656,-9.85
01.671,-10.36
01.687,-10.63
01.703,-11.03
01.718,-11.68
01.734,-12.41
01.750,-13.0
01.765,-13.13
01.781,-12.62
01.796,-11.39
01.812,-9.48
01.828,-7.02
01.843,-4.21
01.859,-1.25
01.875,1.73
01.890,4.74
01.906,7.95
01.921,11.7
01.937,16.38
01.953,22.32
01.968,29.65
01.984,38.25
02.000,47.69
02.015,57.26
02.031,66.06
02.046,73.12
02.062,77.57
02.078,78.83
02.093,76.76
02.109,71.7
02.125,64.39
02.140,55.76
02.156,46.67
02.171,37.78
02.187,29.43
02.203,21.71
02.218,14.56
02.234,7.85
02.250,1.42
02.265,-4.88
02.281,-11.21
02.296,-17.63
02.312,-24.05
02.328,-30.11
02.343,-35.18
02.359,-38.44
02.375,-39.07
02.390,-36.57
02.406,-31.12
02.421,-23.65
02.437,-15.82
02.453,-9.46
02.468,-6.02
02.484,-5.96
02.500,-8.6
02.515,-12.5
02.531,-16.05
02.546,-18.19
02.562,-18.75
02.578,-18.38
02.593,-17.95
02.609,-18.11
02.625,-18.91
02.640,-19.93
02.656,-20.67
02.671,-20.91
02.687,-20.83
02.703,-20.88
02.718,-21.48
02.734,-22.76
02.750,-24.55
02.765,-26.54
02.781,-28.42
02.796,-30.08
02.812,-31.62
02.828,-33.25
02.843,-35.13
02.859,-37.32
02.875,-39.78
02.890,-42.31
02.906,-44.68
02.921,-46.61
02.937,-47.83
02.953,-48.17
02.968,-47.65
02.984,-46.41
03.000,-44.61
03.015,-42.42
03.031,-39.79
03.046,-36.58
03.062,-32.59
03.078,-27.74
03.093,-22.17
03.109,-16.23
03.125,-10.36
03.140,-4.91
03.156,0.01
03.171,4.47
03.187,8.61
03.203,12.55
03.218,16.22
03.234,19.5
03.250,22.25
03.265,24.43
03.281,26.14
03.296,27.54
03.312,28.75
03.328,29.8
03.343,30.59
03.359,31.02
03.375,31.06
03.390,30.78
03.406,30.31
03.421,29.74
03.437,28.93
03.453,27.57
03.468,25.14
03.484,21.12
03.500,15.16
03.515,7.26
03.531,-2.14
03.546,-12.2
03.562,-21.79
03.578,-29.64
03.593,-34.55
03.609,-35.68
03.625,-32.81
03.640,-26.43
03.656,-17.73
03.671,-8.25
03.687,0.49
03.703,7.36
03.718,11.88
03.734,14.22
03.750,14.95
03.765,14.82
03.781,14.5
03.796,14.41
03.812,14.76
03.828,15.54
03.843,16.6
03.859,17.72
03.875,18.6
03.890,18.93
03.906,18.46
03.921,17.02
03.937,14.62
03.953,11.43
03.968,7.8
03.984,4.16
04.000,0.81
04.015,-2.15
04.031,-4.9
04.046,-7.8
04.062,-11.2
04.078,-15.22
04.093,-19.63
04.109,-23.85
04.125,-27.19
04.140,-29.07
04.156,-29.27
04.171,-27.96
04.187,-25.53
04.203,-22.44
04.218,-18.97
04.234,-15.24
04.250,-11.29
04.265,-7.22
04.281,-3.25
04.296,0.32
04.312,3.23
04.328,5.36
04.343,6.75
04.359,7.57
04.375,7.96
04.390,8.09
04.406,8.12
04.421,8.24
04.437,8.69
04.453,9.7
04.468,11.37
04.484,13.62
04.500,16.25
04.515,18.98
04.531,21.61
04.546,23.99
04.562,26.02
04.578,27.59
04.593,28.61
04.609,29.04
04.625,28.98
04.640,28.64
04.656,28.11
04.671,27.27
04.687,25.71
04.703,22.85
04.718,18.26
04.734,11.97
04.750,4.51
04.765,-3.22
04.781,-10.36
04.796,-16.31
04.812,-20.9
04.828,-24.21
04.843,-26.28
04.859,-26.95
04.875,-25.97
04.890,-23.18
04.906,-18.73
04.921,-13.21
04.937,-7.38
04.953,-1.96
04.968,2.61
04.984,6.2
05.000,8.79
05.015,10.23
05.031,10.25
05.046,8.61
05.062,5.38
05.078,1.14
05.093,-3.2
05.109,-6.76
05.125,-9.18
05.140,-10.79
05.156,-12.41
05.171,-14.84
05.187,-18.37
05.203,-22.55
05.218,-26.43
05.234,-28.98
05.250,-29.61
05.265,-28.39
05.281,-25.91
05.296,-23.01
05.312,-20.35
05.328,-18.3
05.343,-16.9
05.359,-16.03
05.375,-15.55
05.390,-15.37
05.406,-15.44
05.421,-15.69
05.437,-15.98
05.453,-16.06
05.468,-15.69
05.484,-14.69
05.500,-13.02
05.515,-10.78
05.531,-8.16
05.546,-5.4
05.562,-2.76
05.578,-0.34
05.593,1.84
05.609,3.86
05.625,5.78
05.640,7.64
05.656,9.39
05.671,10.92
05.687,12.13
05.703,12.98
05.718,13.62
05.734,14.34
05.750,15.55
05.765,17.65
05.781,20.94
05.796,25.52
05.812,31.25
05.828,37.88
05.843,45.06
05.859,52.46
05.875,59.75
05.890,66.49
05.906,72.04
05.921,75.61
05.937,76.35
05.953,73.58
05.968,66.96
05.984,56.61
06.000,43.06
06.015,27.07
06.031,9.55
06.046,-8.57
06.062,-26.3
06.078,-42.6
06.093,-56.31
06.109,-66.3
06.125,-71.74
06.140,-72.31
06.156,-68.45
06.171,-61.23
06.187,-52.07
06.203,-42.4
06.218,-33.29
06.234,-25.38
06.250,-18.98
06.265,-14.2
06.281,-11.02
06.296,-9.24
06.312,-8.35
06.328,-7.52
06.343,-5.88
06.359,-2.83
06.375,1.63
06.390,6.81
06.406,11.57
06.421,14.79
06.437,15.68
06.453,14.06
06.468,10.29
06.484,5.06
06.500,-0.77
06.515,-6.41
06.531,-11.2
06.546,-14.74
06.562,-16.88
06.578,-17.75
06.593,-17.63
06.609,-16.87
06.625,-15.74
06.640,-14.36
06.656,-12.74
06.671,-10.98
06.687,-9.25
06.703,-7.85
06.718,-7.02
06.734,-6.83
06.750,-7.02
06.765,-7.18
06.781,-6.9
06.796,-6.04
06.812,-4.75
06.828,-3.3
06.843,-1.88
06.859,-0.42
06.875,1.38
06.890,3.94
06.906,7.52
06.921,12.17
06.937,17.67
06.953,23.72
06.968,30.02
06.984,36.38
07.000,42.66
07.015,48.78
07.031,54.66
07.046,60.28
07.062,65.66
07.078,70.82
07.093,75.66
07.109,79.77
07.125,82.47
07.140,82.88
07.156,80.28
07.171,74.29
07.187,65.05
07.203,53.1
07.218,39.18
07.234,24.03
07.250,8.2
07.265,-7.89
07.281,-23.91
07.296,-39.46
07.312,-54.0
07.328,-66.86
07.343,-77.29
07.359,-84.55
07.375,-88.06
07.390,-87.5
07.406,-82.94
07.421,-74.84
07.437,-64.02
07.453,-51.42
07.468,-37.93
07.484,-24.29
07.500,-11.09
07.515,1.05
07.531,11.37
07.546,19.02
07.562,23.24
07.578,23.74
07.593,20.91
07.609,15.85
07.625,10.04
07.640,4.83
07.656,1.03
07.671,-1.26
07.687,-2.46
07.703,-3.13
07.718,-3.68
07.734,-4.16
07.750,-4.49
07.765,-4.57
07.781,-4.52
07.796,-4.69
07.812,-5.46
07.828,-7.08
07.843,-9.55
07.859,-12.67
07.875,-16.15
07.890,-19.64
07.906,-22.74
07.921,-24.89
07.937,-25.41
07.953,-23.57
07.968,-18.89
07.984,-11.35
08.000,-1.53
08.015,9.52
08.031,20.63
08.046,30.88
08.062,39.86
08.078,47.63
08.093,54.5
08.109,60.68
08.125,66.07
08.140,70.33
08.156,73.0
08.171,73.72
08.187,72.33
08.203,68.77
08.218,63.12
08.234,55.61
08.250,46.81
08.265,37.79
08.281,30.12
08.296,25.45
08.312,24.96
08.328,28.86
08.343,36.2
08.359,45.06
08.375,53.15
08.390,58.39
08.406,59.41
08.421,55.7
08.437,47.42
08.453,35.27
08.468,20.22
08.484,3.41
08.500,-13.98
08.515,-30.82
08.531,-46.21
08.546,-59.58
08.562,-70.76
08.578,-79.93
08.593,-87.38
08.609,-93.33
08.625,-97.78
08.640,-100.45
08.656,-100.95
08.671,-99.0
08.687,-94.61
08.703,-88.09
08.718,-80.05
08.734,-71.14
08.750,-61.98
08.765,-53.06
08.781,-44.67
08.796,-36.98
08.812,-30.05
08.828,-23.89
08.843,-18.41
08.859,-13.49
08.875,-8.98
08.890,-4.79
08.906,-0.86
08.921,2.74
08.937,5.85
08.953,8.29
08.968,9.81
08.984,10.24
09.000,9.57
09.015,8.06
09.031,6.19
09.046,4.6
09.062,3.94
09.078,4.54
09.093,6.36
09.109,8.85
09.125,11.16
09.140,12.39
09.156,11.93
09.171,9.68
09.187,6.12
09.203,2.13
09.218,-1.26
09.234,-3.21
09.250,-3.31
09.265,-1.68
09.281,1.15
09.296,4.42
09.312,7.43
09.328,9.76
09.343,11.33
09.359,12.42
09.375,13.52
09.390,15.12
09.406,17.5
09.421,20.66
09.437,24.28
09.453,27.92
09.468,31.24
09.484,34.16
09.500,36.93
09.515,40.03
09.531,43.96
09.546,49.03
09.562,55.28
09.578,62.51
09.593,70.41
09.609,78.72
09.625,87.3
09.640,96.16
09.656,105.43
09.671,115.26
09.687,125.82
09.703,137.03
09.718,148.42
09.734,158.92
09.750,166.81
09.765,170.04
09.781,166.67
09.796,155.56
09.812,136.91
09.828,112.38
09.843,84.8
09.859,57.37
09.875,32.69
09.890,12.22
09.906,-3.93
09.921,-16.5
09.937,-26.4
09.953,-34.2
09.968,-40.08
09.984,-44.07
10.000,-46.6
10.015,-48.58
10.031,-51.11
10.046,-54.76
10.062,-58.97
10.078,-61.92
10.093,-61.19
10.109,-54.97
10.125,-43.07
10.140,-27.3
10.156,-11.07
10.171,1.75
10.187,8.1
10.203,6.64
10.218,-2.08
10.234,-16.05
10.250,-32.65
10.265,-49.51
10.281,-65.16
10.296,-79.05
10.312,-91.42
10.328,-102.83
10.343,-113.64
10.359,-123.78
10.375,-132.59
10.390,-139.03
10.406,-142.0
10.421,-140.74
10.437,-135.05
10.453,-125.35
10.468,-112.63
10.484,-98.17
10.500,-83.31
10.515,-69.25
10.531,-56.92
10.546,-46.89
10.562,-39.39
10.578,-34.35
10.593,-31.4
10.609,-29.97
10.625,-29.3
10.640,-28.56
10.656,-26.96
10.671,-24.0
10.687,-19.52
10.703,-13.84
10.718,-7.47
10.734,-0.92
10.750,5.6
10.765,12.2
10.781,19.18
10.796,26.62
10.812,34.12
10.828,40.66
10.843,44.83
10.859,45.37
10.875,41.61
10.890,33.89
10.906,23.62
10.921,12.93
10.937,4.19
10.953,-0.61
10.968,-0.26
10.984,5.4
11.000,15.62
11.015,28.99
11.031,43.87
11.046,58.53
11.062,71.33
11.078,80.77
11.093,85.78
11.109,86.08
11.125,82.52
11.140,77.06
11.156,72.07
11.171,69.29
11.187,68.77
11.203,68.69
11.218,66.09
11.234,58.35
11.250,44.6
11.265,26.4
11.281,7.2
11.296,-8.92
11.312,-18.74
11.328,-20.8
11.343,-15.53
11.359,-4.7
11.375,9.37
11.390,24.51
11.406,39.13
11.421,52.4
11.437,64.09
11.453,74.41
11.468,83.66
11.484,91.87
11.500,98.67
11.515,103.18
11.531,104.07
11.546,99.83
11.562,89.12
11.578,71.47
11.593,47.8
11.609,20.69
11.625,-6.13
11.640,-28.78
11.656,-44.59
11.671,-52.98
11.687,-55.53
11.703,-55.27
11.718,-55.3
11.734,-57.77
11.750,-63.12
11.765,-70.24
11.781,-76.99
11.796,-81.06
11.812,-80.71
11.828,-75.25
11.843,-65.29
11.859,-52.65
11.875,-39.83
11.890,-29.46
11.906,-23.47
11.921,-22.7
11.937,-26.82
11.953,-34.57
11.968,-44.15
11.984,-53.68
12.000,-61.59
12.015,-66.95
12.031,-69.8
12.046,-71.24
12.062,-73.36
12.078,-78.53
12.093,-88.51
12.109,-103.42
12.125,-121.26
12.140,-138.25
12.156,-150.18
12.171,-154.02
12.187,-149.09
12.203,-137.23
12.218,-121.81
12.234,-106.19
12.250,-92.44
12.265,-80.89
12.281,-70.48
12.296,-59.69
12.312,-47.25
12.328,-32.48
12.343,-15.21
12.359,4.41
12.375,25.84
12.390,47.94
12.406,68.88
12.421,86.28
12.437,97.88
12.453,102.16
12.468,99.07
12.484,90.02
12.500,77.61
12.515,64.74
12.531,53.88
12.546,46.49
12.562,42.95
12.578,42.95
12.593,45.97
12.609,51.75
12.625,60.29
12.640,71.47
12.656,84.49
12.671,97.55
12.687,108.06
12.703,113.36
12.718,111.83
12.734,103.5
12.750,90.05
12.765,74.24
12.781,58.78
12.796,45.59
12.812,35.56
12.828,28.8
12.843,25.1
12.859,24.27
12.875,25.86
12.890,28.9
12.906,31.8
12.921,32.76
12.937,30.63
12.953,25.78
12.968,20.4
12.984,17.94
13.000,21.9
13.015,34.38
13.031,55.04
13.046,81.04
13.062,107.79
13.078,130.34
13.093,144.74
13.109,148.88
13.125,142.65
13.140,127.6
13.156,106.25
13.171,81.46
13.187,55.73
13.203,30.77
13.218,7.27
13.234,-14.96
13.250,-36.35
13.265,-56.81
13.281,-75.11
13.296,-89.01
13.312,-95.9
13.328,-94.02
13.343,-83.26
13.359,-65.36
13.375,-43.06
13.390,-18.91
13.406,5.9
13.421,31.86
13.437,60.59
13.453,93.77
13.468,131.94
13.484,173.8
13.500,216.19
13.515,254.82
13.531,285.3
13.546,304.38
13.562,310.69
13.578,304.93
13.593,289.36
13.609,266.98
13.625,240.64
13.640,212.57
13.656,184.43
13.671,157.45
13.687,132.66
13.703,110.74
13.718,91.66
13.734,74.37
13.750,56.89
13.765,36.94
13.781,12.9
13.796,-15.44
13.812,-46.84
13.828,-79.12
13.843,-110.19
13.859,-138.93
13.875,-165.57
13.890,-191.45
13.906,-218.47
13.921,-248.5
13.937,-282.82
13.953,-321.61
13.968,-363.27
13.984,-404.15
14.000,-438.9
14.015,-461.74
14.031,-468.42
14.046,-457.9
14.062,-432.96
14.078,-399.16
14.093,-362.73
14.109,-328.33
14.125,-297.97
14.140,-271.5
14.156,-248.06
14.171,-227.5
14.187,-210.73
14.203,-199.04
14.218,-192.9
14.234,-191.31
14.250,-191.97
14.265,-192.33
14.281,-190.7
14.296,-186.8
14.312,-181.67
14.328,-176.91
14.343,-173.83
14.359,-173.0
14.375,-174.33
14.390,-177.38
14.406,-181.71
14.421,-186.93
14.437,-192.46
14.453,-197.18
14.468,-199.36
14.484,-196.91
14.500,-188.01
14.515,-171.74
14.531,-148.5
14.546,-120.04
14.562,-89.05
14.578,-58.49
14.593,-31.03
14.609,-8.69
14.625,7.47
14.640,17.35
14.656,21.65
14.671,21.61
14.687,18.6
14.703,13.74
14.718,7.7
14.734,0.73
14.750,-7.14
14.765,-15.8
14.781,-24.92
14.796,-33.93
14.812,-42.13
14.828,-48.79
14.843,-53.19
14.859,-54.67
14.875,-52.72
14.890,-47.26
14.906,-38.92
14.921,-29.15
14.937,-20.01
14.953,-13.55
14.968,-11.08
14.984,-12.59
15.000,-16.68
15.015,-20.96
15.031,-22.85
15.046,-20.3
15.062,-12.33
15.078,0.91
15.093,18.29
15.109,38.17
15.125,58.77
15.140,78.5
15.156,96.1
15.171,110.7
15.187,121.77
15.203,129.1
15.218,132.72
15.234,132.99
15.250,130.57
15.265,126.26
15.281,120.89
15.296,115.03
15.312,109.01
15.328,102.94
15.343,96.96
15.359,91.35
15.375,86.51
15.390,82.65
15.406,79.66
15.421,76.96
15.437,73.85
15.453,69.82
15.468,64.87
15.484,59.32
15.500,53.53
15.515,47.6
15.531,41.33
15.546,34.54
15.562,27.45
15.578,20.81
15.593,15.6
15.609,12.51
15.625,11.59
15.640,12.21
15.656,13.56
15.671,15.14
15.687,17.07
15.703,19.87
15.718,23.94
15.734,29.12
15.750,34.6
15.765,39.27
15.781,42.3
15.796,43.51
15.812,43.37
15.828,42.63
15.843,41.88
15.859,41.21
15.875,40.17
15.890,38.13
15.906,34.59
15.921,29.56
15.937,23.56
15.953,17.45
15.968,12.11
15.984,8.13
16.000,5.59
16.015,4.11
16.031,2.95
16.046,1.24
16.062,-1.79
16.078,-6.63
16.093,-13.29
16.109,-21.23
16.125,-29.36
16.140,-36.24
16.156,-40.35
16.171,-40.51
16.187,-36.15
16.203,-27.58
16.218,-15.87
16.234,-2.56
16.250,10.68
16.265,22.41
16.281,31.7
16.296,38.15
16.312,41.86
16.328,43.27
16.343,42.93
16.359,41.45
16.375,39.32
16.390,36.9
16.406,34.44
16.421,32.05
16.437,29.79
16.453,27.67
16.468,25.65
16.484,23.66
16.500,21.62
16.515,19.47
16.531,17.18
16.546,14.79
16.562,12.29
16.578,9.63
16.593,6.65
16.609,3.11
16.625,-1.12
16.640,-5.9
16.656,-10.73
16.671,-14.81
16.687,-17.14
16.703,-16.94
16.718,-13.88
16.734,-8.13
16.750,-0.39
16.765,8.41
16.781,17.32
16.796,25.59
16.812,32.77
16.828,38.72
16.843,43.49
16.859,47.2
16.875,50.01
16.890,51.98
16.906,53.12
16.921,53.35
16.937,52.62
16.953,50.86
16.968,48.04
16.984,44.18
17.000,39.37
17.015,33.82
17.031,27.9
17.046,22.25
17.062,17.55
17.078,14.44
17.093,13.2
17.109,13.65
17.125,15.1
17.140,16.62
17.156,17.4
17.171,16.96
17.187,15.45
17.203,13.42
17.218,11.76
17.234,11.38
17.250,12.94
17.265,16.73
17.281,22.54
17.296,29.74
17.312,37.37
17.328,44.5
17.343,50.36
17.359,54.66
17.375,57.46
17.390,59.08
17.406,59.83
17.421,59.87
17.437,59.21
17.453,57.8
17.468,55.66
17.484,52.95
17.500,49.92
17.515,46.85
17.531,43.99
17.546,41.55
17.562,39.66
17.578,38.4
17.593,37.67
17.609,37.24
17.625,36.71
17.640,35.65
17.656,33.79
17.671,31.15
17.687,28.12
17.703,25.33
17.718,23.41
17.734,22.82
17.750,23.68
17.765,25.8
17.781,28.84
17.796,32.49
17.812,36.55
17.828,41.07
17.843,46.21
17.859,52.15
17.875,58.96
17.890,66.53
17.906,74.48
17.921,82.2
17.937,88.87
17.953,93.66
17.968,95.88
17.984,95.33
18.000,92.44
18.015,88.27
18.031,84.2
18.046,81.56
18.062,81.08
18.078,82.57
18.093,84.93
18.109,86.55
18.125,86.14
18.140,83.47
18.156,79.81
18.171,77.57
18.187,79.38
18.203,87.0
18.218,100.47
18.234,118.13
18.250,137.42
18.265,156.09
18.281,173.18
18.296,189.31
18.312,206.12
18.328,225.29
18.343,247.55
18.359,272.29
18.375,297.68
18.390,321.19
18.406,340.22
18.421,352.53
18.437,356.59
18.453,351.8
18.468,338.57
18.484,318.38
18.500,293.54
18.515,266.82
18.531,240.88
18.546,217.82
18.562,198.82
18.578,184.15
18.593,173.29
18.609,165.32
18.625,159.11
18.640,153.68
18.656,148.27
18.671,142.48
18.687,136.32
18.703,130.09
18.718,124.2
18.734,118.89
18.750,114.14
18.765,109.57
18.781,104.64
18.796,98.84
18.812,91.87
18.828,83.75
18.843,74.78
18.859,65.39
18.875,55.99
18.890,46.83
18.906,37.98
18.921,29.37
18.937,20.91
18.953,12.56
18.968,4.41
18.984,-3.42
19.000,-10.86
19.015,-17.93
19.031,-24.78
19.046,-31.6
19.062,-38.53
19.078,-45.55
19.093,-52.49
19.109,-59.04
19.125,-64.96
19.140,-70.19
19.156,-74.94
19.171,-79.6
19.187,-84.59
19.203,-90.11
19.218,-96.08
19.234,-102.15
19.250,-107.88
19.265,-113.05
19.281,-117.88
19.296,-123.01
19.312,-129.34
19.328,-137.62
19.343,-148.19
19.359,-160.7
19.375,-174.38
19.390,-188.29
19.406,-201.74
19.421,-214.56
19.437,-227.12
19.453,-240.13
19.468,-254.44
19.484,-271.0
19.500,-290.54
19.515,-313.28
19.531,-338.28
19.546,-363.12
19.562,-383.99
19.578,-396.68
19.593,-398.05
19.609,-387.33
19.625,-366.57
19.640,-339.85
19.656,-311.81
19.671,-285.97
19.687,-263.97
19.703,-245.65
19.718,-230.12
19.734,-216.69
19.750,-205.31
19.765,-196.39
19.781,-190.12
19.796,-186.0
19.812,-182.85
19.828,-179.25
19.843,-174.15
19.859,-167.29
19.875,-159.23
19.890,-150.78
19.906,-142.49
19.921,-134.18
19.937,-125.01
19.953,-113.97
19.968,-100.57
19.984,-85.22
20.000,-69.24
20.015,-54.41
20.031,-42.26
20.046,-33.68
20.062,-28.7
20.078,-26.7
20.093,-26.77
20.109,-28.02
20.125,-29.84
20.140,-31.85
20.156,-33.78
20.171,-35.38
20.187,-36.27
20.203,-35.99
20.218,-34.2
20.234,-30.75
20.250,-25.84
20.265,-20.01
20.281,-13.97
20.296,-8.48
20.312,-4.05
20.328,-0.96
20.343,0.77
20.359,1.24
20.375,0.56
20.390,-1.1
20.406,-3.49
20.421,-6.13
20.437,-8.26
20.453,-8.97
20.468,-7.43
20.484,-3.21
20.500,3.56
20.515,12.18
20.531,21.69
20.546,31.15
20.562,39.94
20.578,47.78
20.593,54.57
20.609,60.23
20.625,64.51
20.640,67.16
20.656,68.04
20.671,67.4
20.687,65.77
20.703,63.88
20.718,62.3
20.734,61.27
20.750,60.66
20.765,60.09
20.781,59.2
20.796,57.8
20.812,55.89
20.828,53.58
20.843,50.87
20.859,47.64
20.875,43.66
20.890,38.81
20.906,33.24
20.921,27.49
20.937,22.47
20.953,19.27
20.968,18.83
20.984,21.69
21.000,27.74
21.015,36.22
21.031,45.86
21.046,55.24
21.062,63.14
21.078,68.75
21.093,71.71
21.109,72.05
21.125,70.05
21.140,66.2
21.156,61.12
21.171,55.59
21.187,50.32
21.203,45.75
21.218,41.89
21.234,38.27
21.250,34.2
21.265,29.04
21.281,22.48
21.296,14.59
21.312,5.79
21.328,-3.39
21.343,-12.49
21.359,-21.21
21.375,-29.45
21.390,-37.23
21.406,-44.68
21.421,-51.9
21.437,-58.87
21.453,-65.36
21.468,-70.85
21.484,-74.73
21.500,-76.44
21.515,-75.72
21.531,-72.65
21.546,-67.63
21.562,-61.24
21.578,-54.09
21.593,-46.82
21.609,-39.95
21.625,-34.0
21.640,-29.36
21.656,-26.23
21.671,-24.55
21.687,-24.07
21.703,-24.51
21.718,-25.65
21.734,-27.43
21.750,-29.82
21.765,-32.76
21.781,-36.0
21.796,-39.15
21.812,-41.9
21.828,-44.09
21.843,-45.77
21.859,-47.14
21.875,-48.38
21.890,-49.56
21.906,-50.72
21.921,-51.99
21.937,-53.65
21.953,-56.13
21.968,-59.77
21.984,-64.59
22.000,-70.07
22.015,-75.18
22.031,-78.65
22.046,-79.37
22.062,-76.75
22.078,-70.85
22.093,-62.42
22.109,-52.54
22.125,-42.3
22.140,-32.62
22.156,-24.09
22.171,-17.11
22.187,-11.95
22.203,-8.77
22.218,-7.59
22.234,-8.17
22.250,-10.01
22.265,-12.42
22.281,-14.82
22.296,-16.87
22.312,-18.51
22.328,-19.91
22.343,-21.19
22.359,-22.38
22.375,-23.35
22.390,-23.96
22.406,-24.16
22.421,-24.11
22.437,-24.09
22.453,-24.45
22.468,-25.49
22.484,-27.42
22.500,-30.35
22.515,-34.21
22.531,-38.62
22.546,-42.83
22.562,-45.8
22.578,-46.37
22.593,-43.72
22.609,-37.68
22.625,-28.79
22.640,-18.22
22.656,-7.39
22.671,2.51
22.687,10.67
22.703,16.77
22.718,20.83
22.734,23.02
22.750,23.64
22.765,23.08
22.781,21.85
22.796,20.54
22.812,19.66
22.828,19.48
22.843,19.99
22.859,20.92
22.875,21.88
22.890,22.59
22.906,23.0
22.921,23.19
22.937,23.27
22.953,23.2
22.968,22.69
22.984,21.29
23.000,18.6
23.015,14.36
23.031,8.61
23.046,1.7
23.062,-5.74
23.078,-12.79
23.093,-18.35
23.109,-21.29
23.125,-20.67
23.140,-16.09
23.156,-7.87
23.171,2.98
23.187,14.94
23.203,26.42
23.218,36.17
23.234,43.37
23.250,47.74
23.265,49.31
23.281,48.3
23.296,45.09
23.312,40.16
23.328,34.09
23.343,27.52
23.359,20.95
23.375,14.68
23.390,8.9
23.406,3.59
23.421,-1.26
23.437,-5.64
23.453,-9.54
23.468,-13.02
23.484,-16.25
23.500,-19.46
23.515,-22.99
23.531,-27.11
23.546,-32.13
23.562,-38.26
23.578,-45.52
23.593,-53.47
23.609,-61.17
23.625,-67.14
23.640,-69.78
23.656,-67.94
23.671,-61.24
23.687,-50.33
23.703,-36.58
23.718,-21.57
23.734,-6.72
23.750,6.95
23.765,18.66
23.781,27.76
23.796,33.64
23.812,35.97
23.828,34.88
23.843,31.13
23.859,25.91
23.875,20.5
23.890,15.79
23.906,12.1
23.921,9.19
23.937,6.58
23.953,3.82
23.968,0.73
23.984,-2.56
24.000,-5.77
24.015,-8.62
24.031,-10.99
24.046,-12.98
24.062,-14.86
24.078,-17.1
24.093,-20.13
24.109,-24.33
24.125,-29.71
24.140,-35.71
24.156,-41.18
24.171,-44.52
24.187,-44.13
24.203,-38.89
24.218,-28.63
24.234,-14.17
24.250,2.87
24.265,20.6
24.281,37.39
24.296,52.08
24.312,64.04
24.328,72.95
24.343,78.64
24.359,81.08
24.375,80.53
24.390,77.65
24.406,73.5
24.421,69.23
24.437,65.72
24.453,63.3
24.468,61.7
24.484,60.23
24.500,58.23
24.515,55.33
24.531,51.59
24.546,47.31
24.562,42.8
24.578,38.11
24.593,33.01
24.609,27.06
24.625,19.75
24.640,10.7
24.656,-0.19
24.671,-12.57
24.687,-25.57
24.703,-37.7
24.718,-47.12
24.734,-52.0
24.750,-51.1
24.765,-44.13
24.781,-31.94
24.796,-16.28
24.812,0.7
24.828,16.92
24.843,30.68
24.859,40.79
24.875,46.63
24.890,48.16
24.906,45.94
24.921,41.11
24.937,35.13
24.953,29.39
24.968,24.84
24.984,21.74
25.000,19.79
25.015,18.36
25.031,16.86
25.046,14.96
25.062,12.64
25.078,10.03
25.093,7.25
25.109,4.33
25.125,1.08
25.140,-2.8
25.156,-7.69
25.171,-13.97
25.187,-21.82
25.203,-30.95
25.218,-40.47
25.234,-48.83
25.250,-54.08
25.265,-54.46
25.281,-48.9
25.296,-37.47
25.312,-21.44
25.328,-2.89
25.343,15.86
25.359,32.81
25.375,46.61
25.390,56.67
25.406,62.94
25.421,65.74
25.437,65.59
25.453,63.14
25.468,59.16
25.484,54.44
25.500,49.73
25.515,45.57
25.531,42.15
25.546,39.36
25.562,36.87
25.578,34.34
25.593,31.59
25.609,28.61
25.625,25.54
25.640,22.48
25.656,19.26
25.671,15.46
25.687,10.45
25.703,3.59
25.718,-5.42
25.734,-16.3
25.750,-27.96
25.765,-38.62
25.781,-46.09
25.796,-48.43
25.812,-44.47
25.828,-34.35
25.843,-19.42
25.859,-1.94
25.875,15.7
25.890,31.52
25.906,44.29
25.921,53.54
25.937,59.23
25.953,61.51
25.968,60.63
25.984,57.07
26.000,51.63
26.015,45.4
26.031,39.38
26.046,34.15
26.062,29.66
26.078,25.32
26.093,20.34
26.109,14.23
26.125,7.03
26.140,-0.73
26.156,-8.27
26.171,-15.01
26.187,-20.77
26.203,-25.78
26.218,-30.55
26.234,-35.65
26.250,-41.55
26.265,-48.47
26.281,-56.2
26.296,-63.95
26.312,-70.4
26.328,-73.89
26.343,-72.93
26.359,-66.74
26.375,-55.6
26.390,-40.79
26.406,-24.25
26.421,-7.9
26.437,6.75
26.453,18.81
26.468,27.88
26.484,33.81
26.500,36.63
26.515,36.55
26.531,34.12
26.546,30.14
26.562,25.58
26.578,21.24
26.593,17.53
26.609,14.42
26.625,11.57
26.640,8.6
26.656,5.28
26.671,1.61
26.687,-2.31
26.703,-6.29
26.718,-10.24
26.734,-14.14
26.750,-18.09
26.765,-22.36
26.781,-27.34
26.796,-33.53
26.812,-41.24
26.828,-50.23
26.843,-59.46
26.859,-67.19
26.875,-71.37
26.890,-70.28
26.906,-63.19
26.921,-50.64
26.937,-34.2
26.953,-16.07
26.968,1.54
26.984,16.86
27.000,28.71
27.015,36.48
27.031,40.14
27.046,40.1
27.062,37.21
27.078,32.6
27.093,27.43
27.109,22.73
27.125,19.04
27.140,16.48
27.156,14.74
27.171,13.4
27.187,12.09
27.203,10.63
27.218,9.06
27.234,7.5
27.250,6.04
27.265,4.55
27.281,2.66
27.296,-0.21
27.312,-4.62
27.328,-10.88
27.343,-18.66
27.359,-26.84
27.375,-33.63
27.390,-36.9
27.406,-34.89
27.421,-26.79
27.437,-13.15
27.453,4.3
27.468,23.14
27.484,40.93
27.500,55.83
27.515,66.82
27.531,73.64
27.546,76.53
27.562,76.0
27.578,72.75
27.593,67.57
27.609,61.41
27.625,55.15
27.640,49.46
27.656,44.54
27.671,40.16
27.687,35.77
27.703,30.83
27.718,25.12
27.734,18.81
27.750,12.35
27.765,6.21
27.781,0.57
27.796,-4.77
27.812,-10.4
27.828,-17.03
27.843,-25.24
27.859,-35.11
27.875,-46.04
27.890,-56.71
27.906,-65.24
27.921,-69.65
27.937,-68.45
27.953,-61.2
27.968,-48.7
27.984,-32.75
28.000,-15.59
28.015,0.78
28.031,15.05
28.046,26.61
28.062,35.37
28.078,41.33
28.093,44.51
28.109,44.99
28.125,43.09
28.140,39.51
28.156,35.16
28.171,30.85
28.187,27.02
28.203,23.59
28.218,20.14
28.234,16.28
28.250,11.91
28.265,7.31
28.281,2.94
28.296,-0.82
28.312,-3.97
28.328,-6.94
28.343,-10.44
28.359,-15.31
28.375,-22.12
28.390,-30.93
28.406,-41.08
28.421,-51.15
28.437,-59.25
28.453,-63.37
28.468,-62.0
28.484,-54.64
28.500,-41.91
28.515,-25.4
28.531,-7.21
28.546,10.65
28.562,26.64
28.578,39.84
28.593,49.83
28.609,56.49
28.625,59.93
28.640,60.51
28.656,58.83
28.671,55.79
28.687,52.42
28.703,49.64
28.718,48.0
28.734,47.51
28.750,47.66
28.765,47.63
28.781,46.59
28.796,44.07
28.812,40.06
28.828,34.96
28.843,29.36
28.859,23.77
28.875,18.43
28.890,13.3
28.906,8.07
28.921,2.42
28.937,-3.81
28.953,-10.41
28.968,-16.65
28.984,-21.34
29.000,-22.98
29.015,-20.19
29.031,-12.12
29.046,1.18
29.062,18.59
29.078,38.28
29.093,58.05
29.109,75.95
29.125,90.61
29.140,101.33
29.156,107.96
29.171,110.72
29.187,110.05
29.203,106.55
29.218,101.03
29.234,94.48
29.250,87.85
29.265,81.86
29.281,76.68
29.296,71.89
29.312,66.69
29.328,60.29
29.343,52.38
29.359,43.26
29.375,33.79
29.390,24.88
29.406,17.17
29.421,10.66
29.437,4.81
29.453,-1.11
29.468,-7.73
29.484,-15.18
29.500,-23.08
29.515,-30.54
29.531,-36.42
29.546,-39.57
29.562,-39.11
29.578,-34.64
29.593,-26.35
29.609,-15.0
29.625,-1.74
29.640,12.12
29.656,25.26
29.671,36.44
29.687,44.59
29.703,48.82
29.718,48.59
29.734,43.9
29.750,35.36
29.765,24.13
29.781,11.69
29.796,-0.68
29.812,-12.19
29.828,-22.74
29.843,-32.89
29.859,-43.43
29.875,-54.92
29.890,-67.33
29.906,-79.95
29.921,-91.66
29.937,-101.43
29.953,-108.76
29.968,-113.87
29.984,-117.49
30.000,-120.62
30.015,-124.07
30.031,-128.21
30.046,-132.86
30.062,-137.28
30.078,-140.28
30.093,-140.4
30.109,-136.24
30.125,-126.89
30.140,-112.26
30.156,-93.2
30.171,-71.32
30.187,-48.5
30.203,-26.42
30.218,-6.33
30.234,10.98
30.250,25.01
30.265,35.4
30.281,41.95
30.296,44.84
30.312,44.66
30.328,42.45
30.343,39.45
30.359,36.72
30.375,34.89
30.390,33.97
30.406,33.58
30.421,33.13
30.437,32.16
30.453,30.5
30.468,28.23
30.484,25.63
30.500,22.96
30.515,20.35
30.531,17.67
30.546,14.61
30.562,10.77
30.578,5.79
30.593,-0.43
30.609,-7.62
30.625,-14.91
30.640,-20.93
30.656,-23.93
30.671,-22.18
30.687,-14.58
30.703,-0.94
30.718,17.77
30.734,39.8
30.750,63.04
30.765,85.67
30.781,106.32
30.796,124.13
30.812,138.44
30.828,148.67
30.843,154.32
30.859,155.21
30.875,151.8
30.890,145.16
30.906,136.8
30.921,128.14
30.937,120.05
30.953,112.66
30.968,105.41
30.984,97.5
31.000,88.28
31.015,77.6
31.031,65.93
31.046,54.21
31.062,43.45
31.078,34.29
31.093,26.77
31.109,20.23
31.125,13.48
31.140,5.33
31.156,-5.12
31.171,-18.16
31.187,-33.43
31.203,-49.98
31.218,-66.42
31.234,-81.09
31.250,-92.35
31.265,-98.94
31.281,-100.27
31.296,-96.74
31.312,-89.64
31.328,-80.85
31.343,-72.34
31.359,-65.84
31.375,-62.49
31.390,-62.89
31.406,-67.14
31.421,-74.87
31.437,-85.3
31.453,-97.16
31.468,-108.91
31.484,-119.02
31.500,-126.37
31.515,-130.46
31.531,-131.5
31.546,-130.15
31.562,-127.21
31.578,-123.31
31.593,-118.74
31.609,-113.51
31.625,-107.55
31.640,-100.88
31.656,-93.77
31.671,-86.65
31.687,-80.08
31.703,-74.62
31.718,-70.81
31.734,-69.04
31.750,-69.42
31.765,-71.53
31.781,-74.24
31.796,-75.71
31.812,-73.76
31.828,-66.52
31.843,-53.09
31.859,-33.93
31.875,-10.83
31.890,13.66
31.906,36.91
31.921,56.86
31.937,72.34
31.953,82.95
31.968,88.85
31.984,90.45
32.000,88.24
32.015,82.83
32.031,75.05
32.046,65.98
32.062,56.89
32.078,48.86
32.093,42.54
32.109,37.94
32.125,34.38
32.140,30.82
32.156,26.28
32.171,20.21
32.187,12.66
32.203,4.19
32.218,-4.45
32.234,-12.78
32.250,-20.66
32.265,-28.41
32.281,-36.52
32.296,-45.45
32.312,-55.4
32.328,-66.17
32.343,-77.0
32.359,-86.65
32.375,-93.51
32.390,-95.92
32.406,-92.68
32.421,-83.41
32.437,-68.85
32.453,-50.69
32.468,-31.08
32.484,-12.04
32.500,4.99
32.515,19.25
32.531,30.5
32.546,38.67
32.562,43.72
32.578,45.72
32.593,45.03
32.609,42.41
32.625,39.0
32.640,35.95
32.656,34.05
32.671,33.5
32.687,33.83
32.703,34.19
32.718,33.75
32.734,31.97
32.750,28.77
32.765,24.41
32.781,19.35
32.796,13.99
32.812,8.61
32.828,3.23
32.843,-2.28
32.859,-8.22
32.875,-14.92
32.890,-22.72
32.906,-31.73
32.921,-41.6
32.937,-51.39
32.953,-59.47
32.968,-63.93
32.984,-63.08
33.000,-56.07
33.015,-43.25
33.031,-26.08
33.046,-6.72
33.062,12.6
33.078,30.21
33.093,45.1
33.109,56.89
33.125,65.5
33.140,71.01
33.156,73.58
33.171,73.6
33.187,71.77
33.203,69.07
33.218,66.42
33.234,64.52
33.250,63.56
33.265,63.2
33.281,62.88
33.296,62.01
33.312,60.3
33.328,57.79
33.343,54.79
33.359,51.62
33.375,48.47
33.390,45.3
33.406,41.89
33.421,37.97
33.437,33.33
33.453,28.02
33.468,22.25
33.484,16.4
33.500,10.81
33.515,5.75
33.531,1.32
33.546,-2.53
33.562,-5.91
33.578,-8.91
33.593,-11.62
33.609,-14.04
33.625,-16.17
33.640,-18.03
33.656,-19.66
33.671,-21.15
33.687,-22.61
33.703,-24.16
33.718,-25.89
33.734,-27.84
33.750,-29.96
33.765,-32.15
33.781,-34.22
33.796,-36.03
33.812,-37.55
33.828,-38.87
33.843,-40.28
33.859,-42.12
33.875,-44.7
33.890,-48.13
33.906,-52.3
33.921,-56.84
33.937,-61.32
33.953,-65.39
33.968,-68.94
33.984,-72.13
34.000,-75.38
34.015,-79.24
34.031,-84.27
34.046,-90.85
34.062,-98.86
34.078,-107.43
34.093,-114.87
34.109,-118.98
34.125,-117.59
34.140,-109.37
34.156,-94.4
34.171,-74.2
34.187,-51.26
34.203,-28.3
34.218,-7.45
34.234,10.01
34.250,23.66
34.265,33.51
34.281,39.78
34.296,42.79
34.312,43.04
34.328,41.33
34.343,38.79
34.359,36.59
34.375,35.64
34.390,36.21
34.406,37.96
34.421,40.02
34.437,41.42
34.453,41.48
34.468,40.07
34.484,37.53
34.500,34.43
34.515,31.27
34.531,28.18
34.546,24.94
34.562,21.12
34.578,16.28
34.593,10.16
34.609,2.76
34.625,-5.54
34.640,-14.02
34.656,-21.55
34.671,-26.77
34.687,-28.34
34.703,-25.39
34.718,-17.74
34.734,-6.11
34.750,8.09
34.765,23.12
34.781,37.29
34.796,49.22
34.812,58.03
34.828,63.36
34.843,65.27
34.859,64.22
34.875,60.98
34.890,56.4
34.906,51.35
34.921,46.5
34.937,42.23
34.953,38.67
34.968,35.7
34.984,33.02
35.000,30.32
35.015,27.33
35.031,23.9
35.046,20.0
35.062,15.73
35.078,11.22
35.093,6.4
35.109,1.03
35.125,-5.31
35.140,-13.02
35.156,-22.1
35.171,-31.89
35.187,-41.0
35.203,-47.5
35.218,-49.54
35.234,-45.97
35.250,-36.78
35.265,-23.19
35.281,-7.17
35.296,9.15
35.312,24.07
35.328,36.64
35.343,46.52
35.359,53.71
35.375,58.31
35.390,60.42
35.406,60.23
35.421,58.2
35.437,55.01
35.453,51.48
35.468,48.21
35.484,45.42
35.500,42.91
35.515,40.23
35.531,36.96
35.546,32.89
35.562,28.19
35.578,23.22
35.593,18.33
35.609,13.65
35.625,8.93
35.640,3.67
35.656,-2.79
35.671,-10.89
35.687,-20.68
35.703,-31.51
35.718,-42.06
35.734,-50.53
35.750,-55.08
35.765,-54.37
35.781,-48.0
35.796,-36.62
35.812,-21.81
35.828,-5.55
35.843,10.25
35.859,24.16
35.875,35.31
35.890,43.31
35.906,48.08
35.921,49.75
35.937,48.72
35.953,45.65
35.968,41.4
35.984,36.82
36.000,32.53
36.015,28.72
36.031,25.18
36.046,21.4
36.062,16.97
36.078,11.74
36.093,5.98
36.109,0.18
36.125,-5.14
36.140,-9.75
36.156,-13.78
36.171,-17.73
36.187,-22.32
36.203,-28.17
36.218,-35.61
36.234,-44.4
36.250,-53.71
36.265,-62.13
36.281,-67.96
36.296,-69.67
36.312,-66.25
36.328,-57.62
36.343,-44.65
36.359,-28.88
36.375,-12.06
36.390,4.3
36.406,19.11
36.421,31.77
36.437,41.92
36.453,49.31
36.468,53.8
36.484,55.45
36.500,54.64
36.515,52.09
36.531,48.66
36.546,45.14
36.562,42.0
36.578,39.28
36.593,36.68
36.609,33.77
36.625,30.21
36.640,25.91
36.656,21.06
36.671,16.03
36.687,11.14
36.703,6.55
36.718,2.12
36.734,-2.55
36.750,-7.99
36.765,-14.69
36.781,-22.87
36.796,-32.24
36.812,-41.91
36.828,-50.43
36.843,-56.1
36.859,-57.4
36.875,-53.48
36.890,-44.47
36.906,-31.46
36.921,-16.15
36.937,-0.34
36.953,14.48
36.968,27.33
36.984,37.66
37.000,45.15
37.015,49.59
37.031,50.98
37.046,49.57
37.062,46.06
37.078,41.48
37.093,36.98
37.109,33.36
37.125,30.89
37.140,29.18
37.156,27.47
37.171,25.01
37.187,21.42
37.203,16.87
37.218,11.89
37.234,7.13
37.250,2.92
37.265,-0.76
37.281,-4.37
37.296,-8.54
37.312,-13.82
37.328,-20.54
37.343,-28.68
37.359,-37.76
37.375,-46.87
37.390,-54.66
37.406,-59.53
37.421,-60.0
37.437,-55.2
37.453,-45.2
37.468,-31.04
37.484,-14.51
37.500,2.37
37.515,17.87
37.531,30.91
37.546,41.05
37.562,48.33
37.578,52.93
37.593,55.11
37.609,55.12
37.625,53.39
37.640,50.54
37.656,47.28
37.671,44.23
37.687,41.74
37.703,39.72
37.718,37.78
37.734,35.42
37.750,32.28
37.765,28.26
37.781,23.56
37.796,18.57
37.812,13.59
37.828,8.77
37.843,4.03
37.859,-0.93
37.875,-6.56
37.890,-13.33
37.906,-21.53
37.921,-31.03
37.937,-41.08
37.953,-50.27
37.968,-56.83
37.984,-59.02
38.000,-55.77
38.015,-47.02
38.031,-33.83
38.046,-17.94
38.062,-1.25
38.078,14.72
38.093,29.06
38.109,41.38
38.125,51.57
38.140,59.43
38.156,64.75
38.171,67.34
38.187,67.31
38.203,65.15
38.218,61.68
38.234,57.8
38.250,54.15
38.265,50.93
38.281,47.82
38.296,44.29
38.312,39.78
38.328,34.04
38.343,27.21
38.359,19.79
38.375,12.27
38.390,5.07
38.406,-1.7
38.421,-8.15
38.437,-14.56
38.453,-21.19
38.468,-28.28
38.484,-36.07
38.500,-44.63
38.515,-53.84
38.531,-63.06
38.546,-71.1
38.562,-76.34
38.578,-77.21
38.593,-72.74
38.609,-62.95
38.625,-48.9
38.640,-32.28
38.656,-14.96
38.671,1.6
38.687,16.53
38.703,29.4
38.718,40.13
38.734,48.62
38.750,54.79
38.765,58.61
38.781,60.19
38.796,59.85
38.812,58.12
38.828,55.58
38.843,52.78
38.859,50.04
38.875,47.44
38.890,44.73
38.906,41.56
38.921,37.56
38.937,32.57
38.953,26.71
38.968,20.32
38.984,13.81
39.000,7.5
39.015,1.53
39.031,-4.21
39.046,-9.91
39.062,-15.78
39.078,-22.0
39.093,-28.74
39.109,-36.19
39.125,-44.43
39.140,-53.29
39.156,-62.07
39.171,-69.48
39.187,-73.86
39.203,-73.69
39.218,-68.18
39.234,-57.58
39.250,-43.17
39.265,-26.81
39.281,-10.3
39.296,4.98
39.312,18.24
39.328,29.19
39.343,37.76
39.359,43.93
39.375,47.79
39.390,49.55
39.406,49.62
39.421,48.51
39.437,46.7
39.453,44.48
39.468,41.99
39.484,39.26
39.500,36.34
39.515,33.29
39.531,30.17
39.546,26.93
39.562,23.36
39.578,19.2
39.593,14.22
39.609,8.44
39.625,2.08
39.640,-4.48
39.656,-10.91
39.671,-17.01
39.687,-22.78
39.703,-28.29
39.718,-33.74
39.734,-39.4
39.750,-45.61
39.765,-52.71
39.781,-60.8
39.796,-69.41
39.812,-77.41
39.828,-83.06
39.843,-84.53
39.859,-80.48
39.875,-70.62
39.890,-55.85
39.906,-37.99
39.921,-19.23
39.937,-1.44
39.953,14.16
39.968,27.06
39.984,37.22
40.000,44.84
40.015,50.14
40.031,53.38
40.046,54.91
40.062,55.26
40.078,55.09
40.093,54.98
40.109,55.26
40.125,55.86
40.140,56.42
40.156,56.45
40.171,55.63
40.187,53.9
40.203,51.5
40.218,48.82
40.234,46.21
40.250,43.81
40.265,41.61
40.281,39.46
40.296,37.22
40.312,34.85
40.328,32.41
40.343,30.09
40.359,28.04
40.375,26.39
40.390,25.18
40.406,24.35
40.421,23.78
40.437,23.36
40.453,22.95
40.468,22.4
40.484,21.55
40.500,20.25
40.515,18.44
40.531,16.16
40.546,13.55
40.562,10.83
40.578,8.14
40.593,5.55
40.609,3.1
40.625,0.75
40.640,-1.48
40.656,-3.55
40.671,-5.42
40.687,-7.09
40.703,-8.58
40.718,-10.01
40.734,-11.45
40.750,-12.93
40.765,-14.46
40.781,-16.04
40.796,-17.74
40.812,-19.72
40.828,-22.2
40.843,-25.38
40.859,-29.32
40.875,-33.95
40.890,-39.08
40.906,-44.48
40.921,-49.95
40.937,-55.31
40.953,-60.47
40.968,-65.41
40.984,-70.27
41.000,-75.44
41.015,-81.46
41.031,-88.83
41.046,-97.47
41.062,-106.46
41.078,-113.92
41.093,-117.42
41.109,-114.84
41.125,-105.19
41.140,-89.02
41.156,-68.32
41.171,-45.76
41.187,-23.92
41.203,-4.5
41.218,11.76
41.234,24.88
41.250,35.16
41.265,42.86
41.281,48.06
41.296,50.83
41.312,51.46
41.328,50.59
41.343,49.05
41.359,47.72
41.375,47.11
41.390,47.26
41.406,47.84
41.421,48.3
41.437,48.18
41.453,47.23
41.468,45.4
41.484,42.55
41.500,38.37
41.515,32.31
41.531,23.81
41.546,12.58
41.562,-1.09
41.578,-16.51
41.593,-32.75
41.609,-49.05
41.625,-64.99
41.640,-80.43
41.656,-95.12
41.671,-108.39
41.687,-119.03
41.703,-125.5
41.718,-126.57
41.734,-121.79
41.750,-111.8
41.765,-98.06
41.781,-82.4
41.796,-66.48
41.812,-51.43
41.828,-37.81
41.843,-25.88
41.859,-15.78
41.875,-7.67
41.890,-1.7
41.906,2.25
41.921,4.63
41.937,6.18
41.953,7.75
41.968,10.0
41.984,13.11
42.000,16.78
42.015,20.35
42.031,23.05
42.046,24.37
42.062,24.23
42.078,23.0
42.093,21.28
42.109,19.59
42.125,18.11
42.140,16.67
42.156,14.75
42.171,11.83
42.187,7.47
42.203,1.53
42.218,-5.86
42.234,-14.32
42.250,-23.1
42.265,-31.18
42.281,-37.24
42.296,-39.91
42.312,-38.1
42.328,-31.29
42.343,-19.74
42.359,-4.39
42.375,13.41
42.390,32.2
42.406,50.68
42.421,67.85
42.437,82.96
42.453,95.5
42.468,105.32
42.484,112.56
42.500,117.84
42.515,122.06
42.531,126.26
42.546,131.27
42.562,137.53
42.578,145.03
42.593,153.4
42.609,162.12
42.625,170.73
42.640,178.96
42.656,186.74
42.671,194.21
42.687,201.59
42.703,209.15
42.718,217.08
42.734,225.15
42.750,232.48
42.765,237.41
42.781,237.72
42.796,231.19
42.812,216.44
42.828,193.43
42.843,163.46
42.859,128.71
42.875,91.57
42.890,54.2
42.906,18.44
42.921,-14.01
42.937,-41.58
42.953,-63.11
42.968,-78.28
42.984,-88.07
43.000,-94.54
43.015,-100.21
43.031,-107.12
43.046,-116.08
43.062,-126.51
43.078,-136.85
43.093,-145.34
43.109,-150.66
43.125,-152.47
43.140,-151.31
43.156,-148.38
43.171,-144.99
43.187,-142.1
43.203,-140.05
43.218,-138.59
43.234,-137.22
43.250,-135.55
43.265,-133.62
43.281,-131.78
43.296,-130.48
43.312,-130.04
43.328,-130.51
43.343,-131.86
43.359,-134.13
43.375,-137.42
43.390,-141.64
43.406,-146.13
43.421,-149.59
43.437,-150.28
43.453,-146.74
43.468,-138.37
43.484,-125.83
43.500,-110.72
43.515,-95.02
43.531,-80.3
43.546,-67.41
43.562,-56.54
43.578,-47.56
43.593,-40.49
43.609,-35.51
43.625,-32.82
43.640,-32.23
43.656,-33.02
43.671,-34.14
43.687,-34.55
43.703,-33.72
43.718,-31.77
43.734,-29.41
43.750,-27.4
43.765,-26.27
43.781,-26.03
43.796,-26.3
43.812,-26.55
43.828,-26.42
43.843,-25.87
43.859,-25.27
43.875,-25.19
43.890,-26.32
43.906,-29.14
43.921,-33.71
43.937,-39.47
43.953,-45.21
43.968,-49.27
43.984,-50.01
44.000,-46.29
44.015,-37.91
44.031,-25.6
44.046,-10.79
44.062,4.83
44.078,19.82
44.093,33.02
44.109,43.68
44.125,51.22
44.140,55.2
44.156,55.45
44.171,52.24
44.187,46.46
44.203,39.49
44.218,32.84
44.234,27.69
44.250,24.46
44.265,22.77
44.281,21.69
44.296,20.18
44.312,17.65
44.328,14.1
44.343,10.0
44.359,5.85
44.375,1.66
44.390,-3.25
44.406,-10.15
44.421,-20.31
44.437,-34.58
44.453,-52.8
44.468,-73.69
44.484,-95.03
44.500,-114.07
44.515,-128.14
44.531,-135.22
44.546,-134.43
44.562,-126.16
44.578,-111.88
44.593,-93.71
44.609,-73.78
44.625,-53.82
44.640,-34.93
44.656,-17.75
44.671,-2.6
44.687,10.29
44.703,20.76
44.718,28.84
44.734,34.83
44.750,39.35
44.765,42.99
44.781,46.18
44.796,48.94
44.812,50.94
44.828,51.68
44.843,50.72
44.859,47.91
44.875,43.44
44.890,37.75
44.906,31.35
44.921,24.75
44.937,18.22
44.953,11.83
44.968,5.48
44.984,-1.05
45.000,-8.06
45.015,-15.81
45.031,-24.38
45.046,-33.52
45.062,-42.4
45.078,-49.65
45.093,-53.57
45.109,-52.57
45.125,-45.79
45.140,-33.46
45.156,-16.96
45.171,1.61
45.187,19.97
45.203,36.24
45.218,49.26
45.234,58.5
45.250,63.83
45.265,65.33
45.281,63.25
45.296,58.12
45.312,50.9
45.328,42.89
45.343,35.47
45.359,29.61
45.375,25.67
45.390,23.24
45.406,21.45
45.421,19.38
45.437,16.45
45.453,12.64
45.468,8.35
45.484,4.16
45.500,0.44
45.515,-2.77
45.531,-5.84
45.546,-9.29
45.562,-13.62
45.578,-19.22
45.593,-26.19
45.609,-34.39
45.625,-43.4
45.640,-52.42
45.656,-60.24
45.671,-65.33
45.687,-66.18
45.703,-61.7
45.718,-51.66
45.734,-36.84
45.750,-18.8
45.765,0.52
45.781,19.32
45.796,36.24
45.812,50.44
45.828,61.42
45.843,69.0
45.859,73.14
45.875,74.17
45.890,72.78
45.906,70.14
45.921,67.58
45.937,66.26
45.953,66.77
45.968,69.02
45.984,72.25
46.000,75.49
46.015,77.91
46.031,79.22
46.046,79.76
46.062,80.24
46.078,81.42
46.093,83.67
46.109,86.76
46.125,89.88
46.140,91.72
46.156,90.96
46.171,86.49
46.187,77.91
46.203,65.74
46.218,51.45
46.234,37.2
46.250,25.31
46.265,17.6
46.281,14.9
46.296,16.85
46.312,22.15
46.328,29.03
46.343,35.74
46.359,40.95
46.375,43.76
46.390,43.67
46.406,40.5
46.421,34.37
46.437,25.86
46.453,15.97
46.468,6.04
46.484,-2.61
46.500,-9.03
46.515,-12.94
46.531,-14.76
46.546,-15.4
46.562,-15.89
46.578,-16.94
46.593,-18.78
46.609,-21.2
46.625,-23.71
46.640,-25.85
46.656,-27.39
46.671,-28.51
46.687,-29.66
46.703,-31.48
46.718,-34.59
46.734,-39.34
46.750,-45.63
46.765,-52.76
46.781,-59.48
46.796,-64.21
46.812,-65.45
46.828,-62.23
46.843,-54.44
46.859,-42.85
46.875,-28.89
46.890,-14.18
46.906,-0.13
46.921,12.26
46.937,22.33
46.953,29.66
46.968,33.92
46.984,34.94
47.000,32.89
47.015,28.41
47.031,22.6
47.046,16.76
47.062,11.95
47.078,8.74
47.093,7.08
47.109,6.46
47.125,6.19
47.140,5.67
47.156,4.56
47.171,2.7
47.187,0.04
47.203,-3.45
47.218,-7.79
47.234,-12.89
47.250,-18.59
47.265,-24.65
47.281,-30.97
47.296,-37.57
47.312,-44.53
47.328,-51.75
47.343,-58.69
47.359,-64.21
47.375,-66.77
47.390,-64.83
47.406,-57.41
47.421,-44.49
47.437,-27.05
47.453,-6.76
47.468,14.49
47.484,35.0
47.500,53.44
47.515,68.87
47.531,80.55
47.546,87.99
47.562,91.06
47.578,90.17
47.593,86.31
47.609,80.9
47.625,75.38
47.640,70.73
47.656,67.21
47.671,64.29
47.687,60.94
47.703,56.02
47.718,48.82
47.734,39.26
47.750,27.94
47.765,15.92
47.781,4.32
47.796,-6.02
47.812,-14.76
47.828,-21.99
47.843,-28.18
47.859,-33.94
47.875,-39.92
47.890,-46.71
47.906,-54.64
47.921,-63.6
47.937,-72.84
47.953,-80.97
47.968,-86.24
47.984,-87.12
48.000,-82.76
48.015,-73.39
48.031,-60.25
48.046,-45.15
48.062,-29.97
48.078,-16.2
48.093,-4.8
48.109,3.75
48.125,9.23
48.140,11.69
48.156,11.36
48.171,8.78
48.187,4.85
48.203,0.57
48.218,-3.11
48.234,-5.64
48.250,-7.01
48.265,-7.61
48.281,-8.06
48.296,-8.9
48.312,-10.34
48.328,-12.25
48.343,-14.26
48.359,-16.01
48.375,-17.26
48.390,-18.06
48.406,-18.65
48.421,-19.39
48.437,-20.66
48.453,-22.78
48.468,-25.92
48.484,-30.02
48.500,-34.61
48.515,-38.82
48.531,-41.4
48.546,-41.05
48.562,-36.73
48.578,-28.1
48.593,-15.67
48.609,-0.67
48.625,15.26
48.640,30.56
48.656,43.96
48.671,54.6
48.687,62.04
48.703,66.08
48.718,66.81
48.734,64.6
48.750,60.16
48.765,54.46
48.781,48.52
48.796,43.15
48.812,38.77
48.828,35.3
48.843,32.34
48.859,29.31
48.875,25.74
48.890,21.44
48.906,16.45
48.921,11.06
48.937,5.59
48.953,0.28
48.968,-4.86
48.984,-10.1
49.000,-15.95
49.015,-22.96
49.031,-31.48
49.046,-41.36
49.062,-51.69
49.078,-60.95
49.093,-67.25
49.109,-69.01
49.125,-65.39
49.140,-56.65
49.156,-43.97
49.171,-29.1
49.187,-13.75
49.203,0.69
49.218,13.31
49.234,23.5
49.250,30.86
49.265,35.09
49.281,36.16
49.296,34.45
49.312,30.85
49.328,26.55
49.343,22.73
49.359,20.11
49.375,18.8
49.390,18.32
49.406,17.88
49.421,16.82
49.437,14.84
49.453,12.12
49.468,9.12
49.484,6.34
49.500,3.99
49.515,1.98
49.531,-0.11
49.546,-2.88
49.562,-6.85
49.578,-12.25
49.593,-18.88
49.609,-25.92
49.625,-31.97
49.640,-35.26
49.656,-34.1
49.671,-27.3
49.687,-14.67
49.703,2.95
49.718,23.94
49.734,46.34
49.750,68.4
49.765,88.87
49.781,106.97
49.796,122.27
49.812,134.47
49.828,143.37
49.843,149.06
49.859,152.0
49.875,153.16
49.890,153.77
49.906,154.99
49.921,157.49
49.937,161.26
49.953,165.65
49.968,169.74
49.984,172.68
50.000,174.04
50.015,173.81
50.031,172.32
50.046,169.83
50.062,166.39
50.078,161.7
50.093,155.21
50.109,146.21
50.125,133.93
50.140,117.69
50.156,97.14
50.171,72.61
50.187,45.31
50.203,17.42
50.218,-8.27
50.234,-29.15
50.250,-43.43
50.265,-50.68
50.281,-51.77
50.296,-48.4
50.312,-42.47
50.328,-35.61
50.343,-29.02
50.359,-23.54
50.375,-19.95
50.390,-18.98
50.406,-21.17
50.421,-26.65
50.437,-34.94
50.453,-44.92
50.468,-55.22
50.484,-64.54
50.500,-72.04
50.515,-77.49
50.531,-81.13
50.546,-83.46
50.562,-84.86
50.578,-85.51
50.593,-85.36
50.609,-84.38
50.625,-82.64
50.640,-80.34
50.656,-77.81
50.671,-75.21
50.687,-72.63
50.703,-70.04
50.718,-67.47
50.734,-65.12
50.750,-63.33
50.765,-62.49
50.781,-62.85
50.796,-64.49
50.812,-67.23
50.828,-70.88
50.843,-75.25
50.859,-80.29
50.875,-85.96
50.890,-92.16
50.906,-98.42
50.921,-103.86
50.937,-107.3
50.953,-107.52
50.968,-103.64
50.984,-95.45
51.000,-83.48
51.015,-68.8
51.031,-52.75
51.046,-36.61
51.062,-21.46
51.078,-8.17
51.093,2.48
51.109,9.83
51.125,13.38
51.140,13.03
51.156,9.3
51.171,3.27
51.187,-3.66
51.203,-10.31
51.218,-16.07
51.234,-21.19
51.250,-26.55
51.265,-33.24
51.281,-42.15
51.296,-53.62
51.312,-67.57
51.328,-83.57
51.343,-100.95
51.359,-118.72
51.375,-135.34
51.390,-148.84
51.406,-157.13
51.421,-158.71
51.437,-153.34
51.453,-142.24
51.468,-127.76
51.484,-112.46
51.500,-98.24
51.515,-85.9
51.531,-75.29
51.546,-65.88
51.562,-57.54
51.578,-50.69
51.593,-46.17
51.609,-44.65
51.625,-46.12
51.640,-49.71
51.656,-53.94
51.671,-57.34
51.687,-58.89
51.703,-58.39
51.718,-56.29
51.734,-53.38
51.750,-50.31
51.765,-47.43
51.781,-44.76
51.796,-42.19
51.812,-39.72
51.828,-37.49
51.843,-35.82
51.859,-35.07
51.875,-35.52
51.890,-37.34
51.906,-40.6
51.921,-45.31
51.937,-51.21
51.953,-57.65
51.968,-63.44
51.984,-67.02
52.000,-66.79
52.015,-61.66
52.031,-51.46
52.046,-37.01
52.062,-19.88
52.078,-1.87
52.093,15.4
52.109,30.69
52.125,43.14
52.140,52.12
52.156,57.27
52.171,58.66
52.187,56.94
52.203,53.34
52.218,49.35
52.234,46.28
52.250,44.84
52.265,44.88
52.281,45.63
52.296,46.06
52.312,45.38
52.328,43.37
52.343,40.35
52.359,36.96
52.375,33.74
52.390,30.9
52.406,28.25
52.421,25.24
52.437,21.2
52.453,15.59
52.468,8.07
52.484,-1.24
52.500,-11.67
52.515,-21.99
52.531,-30.42
52.546,-35.09
52.562,-34.57
52.578,-28.37
52.593,-17.2
52.609,-2.8
52.625,12.61
52.640,27.05
52.656,39.25
52.671,48.75
52.687,55.71
52.703,60.46
52.718,63.19
52.734,63.86
52.750,62.5
52.765,59.35
52.781,55.05
52.796,50.45
52.812,46.33
52.828,43.06
52.843,40.5
52.859,38.13
52.875,35.34
52.890,31.8
52.906,27.53
52.921,22.89
52.937,18.26
52.953,13.83
52.968,9.44
52.984,4.71
53.000,-0.9
53.015,-7.86
53.031,-16.46
53.046,-26.75
53.062,-38.25
53.078,-50.0
53.093,-60.45
53.109,-67.71
53.125,-70.06
53.140,-66.43
53.156,-56.79
53.171,-42.22
53.187,-24.51
53.203,-5.63
53.218,12.8
53.234,29.75
53.250,44.69
53.265,57.28
53.281,67.24
53.296,74.28
53.312,78.34
53.328,79.81
53.343,79.5
53.359,78.54
53.375,77.92
53.390,78.19
53.406,79.21
53.421,80.23
53.437,80.24
53.453,78.3
53.468,73.95
53.484,67.34
53.500,59.1
53.515,49.99
53.531,40.57
53.546,30.87
53.562,20.45
53.578,8.63
53.593,-5.12
53.609,-20.89
53.625,-38.21
53.640,-56.09
53.656,-73.23
53.671,-88.01
53.687,-98.7
53.703,-103.58
53.718,-101.36
53.734,-91.53
53.750,-74.77
53.765,-52.94
53.781,-28.69
53.796,-4.76
53.812,16.74
53.828,34.74
53.843,49.09
53.859,60.12
53.875,68.18
53.890,73.41
53.906,75.83
53.921,75.58
53.937,73.2
53.953,69.64
53.968,65.93
53.984,62.86
54.000,60.65
54.015,58.93
54.031,57.07
54.046,54.49
54.062,50.94
54.078,46.6
54.093,41.87
54.109,37.12
54.125,32.5
54.140,27.84
54.156,22.78
54.171,16.95
54.187,10.16
54.203,2.44
54.218,-6.05
54.234,-15.1
54.250,-24.53
54.265,-33.97
54.281,-42.77
54.296,-49.86
54.312,-53.87
54.328,-53.55
54.343,-48.28
54.359,-38.3
54.375,-24.81
54.390,-9.6
54.406,5.58
54.421,19.44
54.437,31.24
54.453,40.68
54.468,47.65
54.484,51.93
54.500,53.42
54.515,52.23
54.531,48.94
54.546,44.6
54.562,40.43
54.578,37.41
54.593,35.97
54.609,35.78
54.625,36.0
54.640,35.66
54.656,33.98
54.671,30.6
54.687,25.64
54.703,19.47
54.718,12.58
54.734,5.38
54.750,-1.89
54.765,-9.22
54.781,-16.73
54.796,-24.64
54.812,-33.23
54.828,-42.69
54.843,-53.04
54.859,-63.87
54.875,-74.19
54.890,-82.45
54.906,-86.79
54.921,-85.52
54.937,-77.76
54.953,-63.76
54.968,-44.92
54.984,-23.43
55.000,-1.61
55.015,18.62
55.031,36.07
55.046,50.2
55.062,60.95
55.078,68.51
55.093,73.2
55.109,75.48
55.125,75.93
55.140,75.29
55.156,74.32
55.171,73.6
55.187,73.49
55.203,73.97
55.218,74.75
55.234,75.36
55.250,75.39
55.265,74.57
55.281,72.87
55.296,70.45
55.312,67.48
55.328,64.1
55.343,60.34
55.359,56.18
55.375,51.66
55.390,46.88
55.406,42.06
55.421,37.41
55.437,33.1
55.453,29.19
55.468,25.63
55.484,22.37
55.500,19.33
55.515,16.42
55.531,13.56
55.546,10.72
55.562,7.91
55.578,5.19
55.593,2.68
55.609,0.5
55.625,-1.28
55.640,-2.66
55.656,-3.72
55.671,-4.53
55.687,-5.22
55.703,-5.96
55.718,-6.97
55.734,-8.61
55.750,-11.14
55.765,-14.67
55.781,-19.1
55.796,-24.01
55.812,-28.82
55.828,-33.03
55.843,-36.39
55.859,-39.09
55.875,-41.67
55.890,-44.84
55.906,-49.14
55.921,-54.71
55.937,-61.15
55.953,-67.77
55.968,-73.84
55.984,-78.98
56.000,-83.31
56.015,-87.44
56.031,-92.27
56.046,-98.62
56.062,-106.95
56.078,-117.1
56.093,-128.11
56.109,-138.25
56.125,-145.26
56.140,-146.79
56.156,-141.1
56.171,-127.66
56.187,-107.32
56.203,-82.18
56.218,-54.94
56.234,-28.21
56.250,-3.96
56.265,16.65
56.281,33.16
56.296,45.57
56.312,54.14
56.328,59.32
56.343,61.79
56.359,62.43
56.375,62.17
56.390,61.81
56.406,61.82
56.421,62.26
56.437,62.86
56.453,63.16
56.468,62.67
56.484,61.01
56.500,58.02
56.515,53.71
56.531,48.27
56.546,42.0
56.562,35.23
56.578,28.28
56.593,21.45
56.609,14.97
56.625,8.9
56.640,3.12
56.656,-2.75
56.671,-9.25
56.687,-16.88
56.703,-25.69
56.718,-35.15
56.734,-44.02
56.750,-50.66
56.765,-53.56
56.781,-51.82
56.796,-45.41
56.812,-35.17
56.828,-22.38
56.843,-8.43
56.859,5.5
56.875,18.51
56.890,29.93
56.906,39.24
56.921,46.04
56.937,50.26
56.953,52.17
56.968,52.46
56.984,52.1
57.000,51.98
57.015,52.72
57.031,54.42
57.046,56.74
57.062,59.0
57.078,60.49
57.093,60.68
57.109,59.36
57.125,56.64
57.140,52.83
57.156,48.34
57.171,43.55
57.187,38.75
57.203,34.07
57.218,29.54
57.234,24.91
57.250,19.8
57.265,13.71
57.281,6.29
57.296,-2.32
57.312,-11.35
57.328,-19.37
57.343,-24.59
57.359,-25.48
57.375,-21.26
57.390,-12.25
57.406,0.24
57.421,14.33
57.437,28.11
57.453,40.09
57.468,49.32
57.484,55.33
57.500,57.96
57.515,57.23
57.531,53.41
57.546,47.13
57.562,39.35
57.578,31.31
57.593,24.16
57.609,18.72
57.625,15.2
57.640,13.23
57.656,11.99
57.671,10.59
57.687,8.31
57.703,4.8
57.718,0.08
57.734,-5.54
57.750,-11.62
57.765,-17.79
57.781,-23.8
57.796,-29.63
57.812,-35.43
57.828,-41.52
57.843,-48.26
57.859,-55.97
57.875,-64.72
57.890,-74.11
57.906,-83.21
57.921,-90.52
57.937,-94.35
57.953,-93.32
57.968,-86.76
57.984,-74.99
58.000,-59.24
58.015,-41.28
58.031,-22.88
58.046,-5.5
58.062,9.91
58.078,22.84
58.093,33.0
58.109,40.22
58.125,44.5
58.140,46.07
58.156,45.47
58.171,43.51
58.187,41.11
58.203,39.1
58.218,38.0
58.234,37.92
58.250,38.6
58.265,39.46
58.281,39.81
58.296,38.98
58.312,36.42
58.328,31.81
58.343,25.07
58.359,16.4
58.375,6.2
58.390,-4.98
58.406,-16.6
58.421,-28.25
58.437,-39.72
58.453,-51.0
58.468,-62.21
58.484,-73.34
58.500,-84.03
58.515,-93.44
58.531,-100.27
58.546,-103.1
58.562,-100.77
58.578,-92.84
58.593,-79.8
58.609,-63.02
58.625,-44.42
58.640,-26.02
58.656,-9.47
58.671,4.09
58.687,14.14
58.703,20.57
58.718,23.6
58.734,23.61
58.750,21.22
58.765,17.19
58.781,12.46
58.796,8.04
58.812,4.83
58.828,3.41
58.843,3.83
58.859,5.65
58.875,8.02
58.890,10.05
58.906,11.06
58.921,10.82
58.937,9.53
58.953,7.59
58.968,5.33
58.984,2.86
59.000,-0.02
59.015,-3.71
59.031,-8.56
59.046,-14.82
59.062,-22.53
59.078,-31.59
59.093,-41.68
59.109,-52.22
59.125,-62.23
59.140,-70.33
59.156,-74.95
59.171,-74.72
59.187,-68.9
59.203,-57.72
59.218,-42.38
59.234,-24.77
59.250,-6.9
59.265,9.52
59.281,23.47
59.296,34.55
59.312,42.87
59.328,48.65
59.343,52.14
59.359,53.56
59.375,53.17
59.390,51.38
59.406,48.76
59.421,45.98
59.437,43.6
59.453,41.98
59.468,41.11
59.484,40.74
59.500,40.42
59.515,39.76
59.531,38.5
59.546,36.59
59.562,34.17
59.578,31.47
59.593,28.71
59.609,26.06
59.625,23.52
59.640,21.0
59.656,18.23
59.671,14.88
59.687,10.51
59.703,4.78
59.718,-2.35
59.734,-10.46
59.750,-18.57
59.765,-25.28
59.781,-29.16
59.796,-29.29
59.812,-25.58
59.828,-18.8
59.843,-10.32
59.859,-1.64
59.875,6.08
59.890,12.25
59.906,16.79
59.921,19.92
59.937,21.99
59.953,23.27
59.968,24.0
59.984,24.42
