timestamp,value
00.000,77.62
00.015,78.56
00.031,77.55
00.046,75.22
00.062,72.26
00.078,69.22
00.093,66.45
00.109,64.04
00.125,61.85
00.140,59.67
00.156,57.28
00.171,54.44
00.187,50.96
00.203,46.66
00.218,41.47
00.234,35.43
00.250,28.73
00.265,21.67
00.281,14.58
00.296,7.63
00.312,0.83
00.328,-6.0
00.343,-13.17
00.359,-21.01
00.375,-29.75
00.390,-39.43
00.406,-49.75
00.421,-59.93
00.437,-68.75
00.453,-74.63
00.468,-76.09
00.484,-72.17
00.500,-62.73
00.515,-48.66
00.531,-31.54
00.546,-13.3
00.562,4.31
00.578,20.03
00.593,33.13
00.609,43.36
00.625,50.69
00.640,55.25
00.656,57.23
00.671,56.98
00.687,55.05
00.703,52.15
00.718,48.96
00.734,46.05
00.750,43.69
00.765,41.8
00.781,40.05
00.796,38.04
00.812,35.42
00.828,32.0
00.843,27.75
00.859,22.71
00.875,17.0
00.890,10.69
00.906,3.91
00.921,-3.15
00.937,-10.27
00.953,-17.23
00.968,-23.9
00.984,-30.34
01.000,-36.84
01.015,-43.8
01.031,-51.58
01.046,-60.29
01.062,-69.46
01.078,-78.0
01.093,-84.39
01.109,-86.95
01.125,-84.41
01.140,-76.31
01.156,-63.14
01.171,-46.23
01.187,-27.33
01.203,-8.15
01.218,9.96
01.234,26.06
01.250,39.65
01.265,50.41
01.281,58.15
01.296,62.84
01.312,64.7
01.328,64.24
01.343,62.25
01.359,59.6
01.375,56.97
01.390,54.73
01.406,52.81
01.421,50.87
01.437,48.51
01.453,45.46
01.468,41.75
01.484,37.64
01.500,33.45
01.515,29.32
01.531,25.12
01.546,20.5
01.562,15.03
01.578,8.48
01.593,0.93
01.609,-7.24
01.625,-15.48
01.640,-23.33
01.656,-30.53
01.671,-37.16
01.687,-43.52
01.703,-50.13
01.718,-57.48
01.734,-65.93
01.750,-75.43
01.765,-85.42
01.781,-94.68
01.796,-101.54
01.812,-104.23
01.828,-101.38
01.843,-92.55
01.859,-78.39
01.875,-60.45
01.890,-40.75
01.906,-21.17
01.921,-3.08
01.937,12.76
01.953,25.99
01.968,36.43
01.984,43.94
02.000,48.47
02.015,50.28
02.031,49.97
02.046,48.48
02.062,46.76
02.078,45.53
02.093,44.99
02.109,44.93
02.125,44.87
02.140,44.34
02.156,43.07
02.171,41.04
02.187,38.43
02.203,35.48
02.218,32.44
02.234,29.34
02.250,26.04
02.265,22.21
02.281,17.46
02.296,11.53
02.312,4.42
02.328,-3.49
02.343,-11.58
02.359,-19.2
02.375,-25.92
02.390,-31.69
02.406,-36.82
02.421,-41.85
02.437,-47.36
02.453,-53.85
02.468,-61.54
02.484,-70.31
02.500,-79.49
02.515,-87.86
02.531,-93.79
02.546,-95.6
02.562,-92.1
02.578,-82.96
02.593,-68.89
02.609,-51.45
02.625,-32.5
02.640,-13.78
02.656,3.47
02.671,18.48
02.687,30.83
02.703,40.26
02.718,46.59
02.734,49.89
02.750,50.58
02.765,49.43
02.781,47.47
02.796,45.68
02.812,44.68
02.828,44.66
02.843,45.33
02.859,46.17
02.875,46.63
02.890,46.33
02.906,45.15
02.921,43.17
02.937,40.59
02.953,37.6
02.968,34.32
02.984,30.67
03.000,26.45
03.015,21.41
03.031,15.33
03.046,8.29
03.062,0.56
03.078,-7.43
03.093,-15.2
03.109,-22.49
03.125,-29.25
03.140,-35.69
03.156,-42.14
03.171,-48.96
03.187,-56.45
03.203,-64.74
03.218,-73.65
03.234,-82.56
03.250,-90.38
03.265,-95.64
03.281,-96.89
03.296,-93.1
03.312,-84.11
03.328,-70.65
03.343,-54.17
03.359,-36.43
03.375,-19.03
03.390,-3.18
03.406,10.41
03.421,21.38
03.437,29.6
03.453,35.07
03.468,37.99
03.484,38.81
03.500,38.23
03.515,37.08
03.531,36.12
03.546,35.81
03.562,36.2
03.578,36.99
03.593,37.74
03.609,38.13
03.625,38.11
03.640,37.76
03.656,37.25
03.671,36.51
03.687,35.27
03.703,33.13
03.718,29.77
03.734,25.16
03.750,19.6
03.765,13.54
03.781,7.44
03.796,1.56
03.812,-4.09
03.828,-9.67
03.843,-15.39
03.859,-21.4
03.875,-27.81
03.890,-34.7
03.906,-42.06
03.921,-49.69
03.937,-56.93
03.953,-62.7
03.968,-65.61
03.984,-64.4
04.000,-58.36
04.015,-47.69
04.031,-33.4
04.046,-17.08
04.062,-0.39
04.078,15.31
04.093,29.1
04.109,40.51
04.125,49.3
04.140,55.41
04.156,58.92
04.171,60.11
04.187,59.52
04.203,57.91
04.218,56.13
04.234,54.88
04.250,54.61
04.265,55.35
04.281,56.84
04.296,58.61
04.312,60.17
04.328,61.15
04.343,61.36
04.359,60.75
04.375,59.37
04.390,57.31
04.406,54.68
04.421,51.6
04.437,48.22
04.453,44.69
04.468,41.26
04.484,38.12
04.500,35.47
04.515,33.37
04.531,31.75
04.546,30.36
04.562,28.87
04.578,26.98
04.593,24.54
04.609,21.6
04.625,18.38
04.640,15.18
04.656,12.28
04.671,9.83
04.687,7.87
04.703,6.39
04.718,5.32
04.734,4.55
04.750,3.92
04.765,3.21
04.781,2.16
04.796,0.61
04.812,-1.42
04.828,-3.82
04.843,-6.38
04.859,-9.01
04.875,-11.75
04.890,-14.82
04.906,-18.43
04.921,-22.64
04.937,-27.33
04.953,-32.18
04.968,-36.84
04.984,-41.12
05.000,-45.08
05.015,-49.0
05.031,-53.28
05.046,-58.26
05.062,-64.06
05.078,-70.52
05.093,-77.28
05.109,-83.91
05.125,-90.09
05.140,-95.8
05.156,-101.26
05.171,-107.01
05.187,-113.76
05.203,-122.06
05.218,-132.12
05.234,-143.38
05.250,-154.34
05.265,-162.75
05.281,-166.13
05.296,-162.51
05.312,-151.14
05.328,-132.75
05.343,-109.33
05.359,-83.56
05.375,-57.97
05.390,-34.47
05.406,-14.15
05.421,2.55
05.437,15.59
05.453,25.1
05.468,31.36
05.484,34.92
05.500,36.6
05.515,37.35
05.531,38.02
05.546,39.15
05.562,40.77
05.578,42.55
05.593,44.02
05.609,44.83
05.625,44.95
05.640,44.57
05.656,43.96
05.671,43.22
05.687,42.14
05.703,40.31
05.718,37.27
05.734,32.78
05.750,26.95
05.765,20.19
05.781,13.09
05.796,6.12
05.812,-0.54
05.828,-7.08
05.843,-14.02
05.859,-21.9
05.875,-30.95
05.890,-40.78
05.906,-50.3
05.921,-57.9
05.937,-61.9
05.953,-61.06
05.968,-54.98
05.984,-44.18
06.000,-29.95
06.015,-13.9
06.031,2.3
06.046,17.3
06.062,30.09
06.078,40.1
06.093,47.15
06.109,51.34
06.125,53.04
06.140,52.71
06.156,50.83
06.171,47.84
06.187,44.19
06.203,40.3
06.218,36.58
06.234,33.36
06.250,30.74
06.265,28.5
06.281,26.21
06.296,23.36
06.312,19.65
06.328,15.09
06.343,9.93
06.359,4.54
06.375,-0.87
06.390,-6.21
06.406,-11.67
06.421,-17.41
06.437,-23.67
06.453,-30.63
06.468,-38.46
06.484,-47.25
06.500,-56.83
06.515,-66.63
06.531,-75.5
06.546,-81.9
06.562,-84.24
06.578,-81.38
06.593,-73.01
06.609,-59.87
06.625,-43.44
06.640,-25.65
06.656,-8.33
06.671,7.09
06.687,19.83
06.703,29.69
06.718,36.82
06.734,41.63
06.750,44.51
06.765,45.86
06.781,46.04
06.796,45.46
06.812,44.54
06.828,43.66
06.843,43.07
06.859,42.78
06.875,42.57
06.890,42.11
06.906,41.06
06.921,39.2
06.937,36.5
06.953,33.07
06.968,29.08
06.984,24.67
07.000,19.92
07.015,14.87
07.031,9.46
07.046,3.59
07.062,-2.85
07.078,-9.98
07.093,-17.87
07.109,-26.44
07.125,-35.3
07.140,-43.7
07.156,-50.5
07.171,-54.34
07.187,-54.08
07.203,-49.11
07.218,-39.64
07.234,-26.67
07.250,-11.71
07.265,3.67
07.281,18.13
07.296,30.79
07.312,41.09
07.328,48.67
07.343,53.35
07.359,55.07
07.375,54.1
07.390,51.06
07.406,46.86
07.421,42.48
07.437,38.68
07.453,35.77
07.468,33.61
07.484,31.75
07.500,29.67
07.515,27.02
07.531,23.75
07.546,20.01
07.562,16.05
07.578,12.03
07.593,7.95
07.609,3.67
07.625,-1.09
07.640,-6.57
07.656,-12.99
07.671,-20.57
07.687,-29.52
07.703,-39.87
07.718,-51.27
07.734,-62.77
07.750,-72.76
07.765,-79.34
07.781,-80.8
07.796,-76.3
07.812,-66.13
07.828,-51.68
07.843,-34.91
07.859,-17.72
07.875,-1.56
07.890,12.77
07.906,24.87
07.921,34.51
07.937,41.47
07.953,45.62
07.968,47.02
07.984,46.13
08.000,43.69
08.015,40.58
08.031,37.58
08.046,35.19
08.062,33.52
08.078,32.34
08.093,31.21
08.109,29.62
08.125,27.19
08.140,23.8
08.156,19.59
08.171,14.89
08.187,9.97
08.203,4.96
08.218,-0.25
08.234,-5.9
08.250,-12.24
08.265,-19.42
08.281,-27.55
08.296,-36.64
08.312,-46.54
08.328,-56.74
08.343,-66.25
08.359,-73.54
08.375,-76.82
08.390,-74.67
08.406,-66.51
08.421,-52.99
08.437,-35.74
08.453,-16.94
08.468,1.45
08.484,18.12
08.500,32.53
08.515,44.62
08.531,54.41
08.546,61.85
08.562,66.69
08.578,68.87
08.593,68.65
08.609,66.72
08.625,64.05
08.640,61.52
08.656,59.64
08.671,58.35
08.687,57.23
08.703,55.68
08.718,53.25
08.734,49.78
08.750,45.35
08.765,40.21
08.781,34.61
08.796,28.65
08.812,22.31
08.828,15.5
08.843,8.16
08.859,0.22
08.875,-8.34
08.890,-17.64
08.906,-27.82
08.921,-38.93
08.937,-50.7
08.953,-62.25
08.968,-72.05
08.984,-78.18
09.000,-78.9
09.015,-73.25
09.031,-61.54
09.046,-45.24
09.062,-26.61
09.078,-7.95
09.093,8.96
09.109,23.15
09.125,34.34
09.140,42.62
09.156,48.18
09.171,51.17
09.187,51.8
09.203,50.42
09.218,47.67
09.234,44.33
09.250,41.09
09.265,38.4
09.281,36.34
09.296,34.68
09.312,32.99
09.328,30.87
09.343,28.05
09.359,24.48
09.375,20.27
09.390,15.63
09.406,10.74
09.421,5.65
09.437,0.3
09.453,-5.48
09.468,-11.75
09.484,-18.5
09.500,-25.67
09.515,-33.27
09.531,-41.47
09.546,-50.49
09.562,-60.32
09.578,-70.33
09.593,-79.15
09.609,-84.85
09.625,-85.57
09.640,-80.16
09.656,-68.7
09.671,-52.51
09.687,-33.66
09.703,-14.34
09.718,3.76
09.734,19.67
09.750,33.03
09.765,43.77
09.781,51.9
09.796,57.4
09.812,60.38
09.828,61.17
09.843,60.35
09.859,58.63
09.875,56.67
09.890,54.84
09.906,53.24
09.921,51.66
09.937,49.85
09.953,47.62
09.968,44.85
09.984,41.56
10.000,37.76
10.015,33.44
10.031,28.52
10.046,22.88
10.062,16.48
10.078,9.36
10.093,1.65
10.109,-6.43
10.125,-14.71
10.140,-23.11
10.156,-31.69
10.171,-40.56
10.187,-49.75
10.203,-59.14
10.218,-68.19
10.234,-76.01
10.250,-81.3
10.265,-82.74
10.281,-79.32
10.296,-70.74
10.312,-57.64
10.328,-41.45
10.343,-24.05
10.359,-7.28
10.375,7.47
10.390,19.52
10.406,28.75
10.421,35.38
10.437,39.74
10.453,42.09
10.468,42.63
10.484,41.69
10.500,39.74
10.515,37.44
10.531,35.45
10.546,34.24
10.562,33.88
10.578,34.06
10.593,34.12
10.609,33.42
10.625,31.53
10.640,28.37
10.656,24.26
10.671,19.59
10.687,14.73
10.703,9.8
10.718,4.74
10.734,-0.59
10.750,-6.27
10.765,-12.29
10.781,-18.61
10.796,-25.24
10.812,-32.38
10.828,-40.14
10.843,-48.38
10.859,-56.36
10.875,-62.72
10.890,-65.73
10.906,-63.86
10.921,-56.38
10.937,-43.68
10.953,-27.18
10.968,-8.85
10.984,9.4
11.000,26.26
11.015,41.02
11.031,53.46
11.046,63.52
11.062,71.1
11.078,76.19
11.093,78.99
11.109,80.11
11.125,80.4
11.140,80.76
11.156,81.77
11.171,83.52
11.187,85.6
11.203,87.4
11.218,88.35
11.234,88.2
11.250,87.08
11.265,85.5
11.281,84.14
11.296,83.51
11.312,83.69
11.328,83.96
11.343,82.83
11.359,78.31
11.375,68.56
11.390,52.52
11.406,30.41
11.421,3.7
11.437,-25.29
11.453,-53.96
11.468,-79.98
11.484,-101.5
11.500,-117.15
11.515,-126.09
11.531,-128.01
11.546,-123.41
11.562,-113.63
11.578,-100.74
11.593,-86.94
11.609,-73.95
11.625,-62.63
11.640,-52.79
11.656,-43.66
11.671,-34.38
11.687,-24.51
11.703,-14.27
11.718,-4.31
11.734,4.65
11.750,12.13
11.765,18.07
11.781,22.74
11.796,26.49
11.812,29.56
11.828,31.92
11.843,33.35
11.859,33.51
11.875,32.13
11.890,29.07
11.906,24.34
11.921,18.15
11.937,10.83
11.953,2.82
11.968,-5.4
11.984,-13.41
12.000,-20.98
12.015,-28.09
12.031,-34.98
12.046,-42.0
12.062,-49.44
12.078,-57.28
12.093,-65.02
12.109,-71.54
12.125,-75.29
12.140,-74.68
12.156,-68.58
12.171,-56.74
12.187,-39.92
12.203,-19.63
12.218,2.33
12.234,24.44
12.250,45.77
12.265,65.87
12.281,84.47
12.296,101.01
12.312,114.46
12.328,123.45
12.343,126.8
12.359,124.1
12.375,116.07
12.390,104.54
12.406,91.97
12.421,80.8
12.437,72.84
12.453,68.92
12.468,68.91
12.484,72.0
12.500,77.06
12.515,82.94
12.531,88.66
12.546,93.55
12.562,97.27
12.578,99.81
12.593,101.47
12.609,102.62
12.625,103.43
12.640,103.54
12.656,101.93
12.671,97.01
12.687,87.1
12.703,71.01
12.718,48.64
12.734,21.24
12.750,-8.61
12.765,-37.66
12.781,-62.71
12.796,-81.49
12.812,-93.18
12.828,-98.4
12.843,-98.83
12.859,-96.52
12.875,-93.29
12.890,-90.48
12.906,-88.95
12.921,-89.34
12.937,-92.24
12.953,-98.13
12.968,-107.15
12.984,-118.94
13.000,-132.55
13.015,-146.65
13.031,-159.81
13.046,-170.78
13.062,-178.52
13.078,-182.23
13.093,-181.34
13.109,-175.57
13.125,-165.1
13.140,-150.74
13.156,-133.81
13.171,-115.97
13.187,-98.87
13.203,-83.86
13.218,-71.67
13.234,-62.46
13.250,-55.84
13.265,-51.1
13.281,-47.46
13.296,-44.24
13.312,-41.03
13.328,-37.64
13.343,-34.11
13.359,-30.55
13.375,-27.1
13.390,-23.86
13.406,-20.91
13.421,-18.27
13.437,-15.92
13.453,-13.76
13.468,-11.6
13.484,-9.21
13.500,-6.46
13.515,-3.37
13.531,-0.16
13.546,2.9
13.562,5.56
13.578,7.79
13.593,9.68
13.609,11.36
13.625,12.88
13.640,14.06
13.656,14.6
13.671,14.24
13.687,12.95
13.703,10.99
13.718,8.75
13.734,6.53
13.750,4.32
13.765,1.79
13.781,-1.64
13.796,-6.48
13.812,-12.88
13.828,-20.53
13.843,-28.86
13.859,-37.18
13.875,-44.98
13.890,-52.05
13.906,-58.47
13.921,-64.49
13.937,-70.45
13.953,-76.78
13.968,-83.95
13.984,-92.35
14.000,-101.99
14.015,-112.08
14.031,-120.91
14.046,-126.09
14.062,-125.25
14.078,-116.91
14.093,-101.06
14.109,-79.29
14.125,-54.23
14.140,-28.66
14.156,-4.83
14.171,15.93
14.187,33.08
14.203,46.54
14.218,56.42
14.234,62.92
14.250,66.45
14.265,67.71
14.281,67.69
14.296,67.37
14.312,67.47
14.328,68.3
14.343,69.76
14.359,71.43
14.375,72.88
14.390,73.76
14.406,73.91
14.421,73.31
14.437,71.94
14.453,69.81
14.468,66.86
14.484,63.09
14.500,58.49
14.515,53.22
14.531,47.44
14.546,41.31
14.562,34.93
14.578,28.24
14.593,21.02
14.609,13.05
14.625,4.22
14.640,-5.2
14.656,-14.37
14.671,-21.94
14.687,-26.33
14.703,-26.25
14.718,-21.11
14.734,-11.32
14.750,1.83
14.765,16.5
14.781,30.85
14.796,43.5
14.812,53.68
14.828,61.2
14.843,66.15
14.859,68.77
14.875,69.28
14.890,67.91
14.906,65.04
14.921,61.22
14.937,57.13
14.953,53.39
14.968,50.31
14.984,47.75
15.000,45.2
15.015,41.98
15.031,37.57
15.046,31.81
15.062,24.91
15.078,17.29
15.093,9.31
15.109,1.17
15.125,-7.15
15.140,-15.77
15.156,-24.85
15.171,-34.5
15.187,-44.85
15.203,-56.01
15.218,-67.83
15.234,-79.7
15.250,-90.38
15.265,-98.06
15.281,-100.8
15.296,-97.06
15.312,-86.36
15.328,-69.53
15.343,-48.54
15.359,-26.02
15.375,-4.51
15.390,14.04
15.406,28.57
15.421,38.78
15.437,44.89
15.453,47.32
15.468,46.57
15.484,43.24
15.500,38.05
15.515,31.88
15.531,25.64
15.546,20.1
15.562,15.73
15.578,12.59
15.593,10.38
15.609,8.64
15.625,6.9
15.640,4.83
15.656,2.31
15.671,-0.54
15.687,-3.46
15.703,-6.22
15.718,-8.77
15.734,-11.31
15.750,-14.27
15.765,-18.14
15.781,-23.36
15.796,-30.13
15.812,-38.27
15.828,-47.16
15.843,-55.64
15.859,-62.22
15.875,-65.27
15.890,-63.5
15.906,-56.34
15.921,-44.22
15.937,-28.49
15.953,-11.1
15.968,5.97
15.984,21.21
16.000,33.76
16.015,43.38
16.031,50.15
16.046,54.21
16.062,55.73
16.078,54.98
16.093,52.53
16.109,49.24
16.125,46.12
16.140,43.95
16.156,42.99
16.171,42.85
16.187,42.66
16.203,41.47
16.218,38.65
16.234,34.17
16.250,28.5
16.265,22.37
16.281,16.38
16.296,10.77
16.312,5.35
16.328,-0.42
16.343,-7.19
16.359,-15.51
16.375,-25.61
16.390,-37.33
16.406,-49.92
16.421,-62.12
16.437,-72.18
16.453,-78.23
16.468,-78.71
16.484,-72.83
16.500,-60.84
16.515,-44.0
16.531,-24.22
16.546,-3.53
16.562,16.36
16.578,34.29
16.593,49.62
16.609,62.0
16.625,71.16
16.640,76.93
16.656,79.25
16.671,78.43
16.687,75.14
16.703,70.3
16.718,64.91
16.734,59.69
16.750,54.97
16.765,50.67
16.781,46.46
16.796,41.93
16.812,36.8
16.828,30.97
16.843,24.46
16.859,17.36
16.875,9.73
16.890,1.67
16.906,-6.75
16.921,-15.49
16.937,-24.54
16.953,-34.03
16.968,-44.21
16.984,-55.28
17.000,-67.15
17.015,-79.12
17.031,-89.8
17.046,-97.29
17.062,-99.67
17.078,-95.65
17.093,-85.01
17.109,-68.73
17.125,-48.7
17.140,-27.19
17.156,-6.23
17.171,12.78
17.187,29.14
17.203,42.63
17.218,53.3
17.234,61.19
17.250,66.34
17.265,68.84
17.281,69.02
17.296,67.42
17.312,64.74
17.328,61.65
17.343,58.55
17.359,55.58
17.375,52.6
17.390,49.34
17.406,45.53
17.421,41.0
17.437,35.67
17.453,29.52
17.468,22.65
17.484,15.21
17.500,7.47
17.515,-0.32
17.531,-7.93
17.546,-15.29
17.562,-22.59
17.578,-30.25
17.593,-38.78
17.609,-48.56
17.625,-59.57
17.640,-71.09
17.656,-81.69
17.671,-89.48
17.687,-92.51
17.703,-89.45
17.718,-80.0
17.734,-64.96
17.750,-46.03
17.765,-25.3
17.781,-4.72
17.796,14.27
17.812,30.78
17.828,44.36
17.843,54.8
17.859,62.03
17.875,66.17
17.890,67.62
17.906,67.04
17.921,65.23
17.937,62.89
17.953,60.41
17.968,57.84
17.984,54.95
18.000,51.45
18.015,47.23
18.031,42.37
18.046,37.15
18.062,31.84
18.078,26.64
18.093,21.57
18.109,16.57
18.125,11.48
18.140,6.18
18.156,0.61
18.171,-5.24
18.187,-11.27
18.203,-17.36
18.218,-23.45
18.234,-29.62
18.250,-36.15
18.265,-43.43
18.281,-51.89
18.296,-61.61
18.312,-72.17
18.328,-82.49
18.343,-90.89
18.359,-95.45
18.375,-94.5
18.390,-87.17
18.406,-73.63
18.421,-55.18
18.437,-33.81
18.453,-11.7
18.468,9.31
18.484,28.01
18.500,43.8
18.515,56.46
18.531,65.99
18.546,72.46
18.562,76.09
18.578,77.34
18.593,76.93
18.609,75.67
18.625,74.3
18.640,73.18
18.656,72.3
18.671,71.35
18.687,69.95
18.703,67.88
18.718,65.17
18.734,62.09
18.750,58.96
18.765,55.97
18.781,53.03
18.796,49.84
18.812,45.99
18.828,41.15
18.843,35.23
18.859,28.47
18.875,21.31
18.890,14.23
18.906,7.51
18.921,1.11
18.937,-5.28
18.953,-12.19
18.968,-20.06
18.984,-29.01
19.000,-38.61
19.015,-47.81
19.031,-55.0
19.046,-58.43
19.062,-56.65
19.078,-48.94
19.093,-35.65
19.109,-18.11
19.125,1.76
19.140,21.9
19.156,40.58
19.171,56.66
19.187,69.51
19.203,78.92
19.218,84.89
19.234,87.61
19.250,87.41
19.265,84.87
19.281,80.76
19.296,75.86
19.312,70.81
19.328,65.98
19.343,61.39
19.359,56.92
19.375,52.41
19.390,47.8
19.406,43.17
19.421,38.53
19.437,33.73
19.453,28.42
19.468,22.14
19.484,14.57
19.500,5.75
19.515,-3.92
19.531,-13.81
19.546,-23.25
19.562,-31.85
19.578,-39.53
19.593,-46.59
19.609,-53.57
19.625,-61.09
19.640,-69.67
19.656,-79.47
19.671,-90.11
19.687,-100.5
19.703,-108.99
19.718,-113.73
19.734,-113.21
19.750,-106.74
19.765,-94.72
19.781,-78.48
19.796,-59.91
19.812,-40.92
19.828,-23.04
19.843,-7.28
19.859,5.84
19.875,16.16
19.890,23.78
19.906,28.93
19.921,32.03
19.937,33.57
19.953,34.08
19.968,33.97
19.984,33.47
20.000,32.58
20.015,31.2
20.031,29.19
20.046,26.52
20.062,23.35
20.078,19.89
20.093,16.33
20.109,12.68
20.125,8.7
20.140,3.96
20.156,-1.92
20.171,-9.08
20.187,-17.26
20.203,-25.81
20.218,-33.86
20.234,-40.63
20.250,-45.64
20.265,-48.95
20.281,-51.1
20.296,-52.98
20.312,-55.44
20.328,-59.02
20.343,-63.6
20.359,-68.29
20.375,-71.69
20.390,-72.16
20.406,-68.41
20.421,-59.87
20.437,-46.88
20.453,-30.61
20.468,-12.67
20.484,5.28
20.500,21.92
20.515,36.39
20.531,48.27
20.546,57.38
20.562,63.74
20.578,67.43
20.593,68.7
20.609,68.02
20.625,66.07
20.640,63.59
20.656,61.12
20.671,58.84
20.687,56.47
20.703,53.49
20.718,49.47
20.734,44.33
20.750,38.39
20.765,32.17
20.781,26.14
20.796,20.38
20.812,14.68
20.828,8.57
20.843,1.76
20.859,-5.75
20.875,-13.64
20.890,-21.37
20.906,-28.49
20.921,-34.78
20.937,-40.36
20.953,-45.68
20.968,-51.3
20.984,-57.79
21.000,-65.4
21.015,-73.87
21.031,-82.24
21.046,-89.01
21.062,-92.42
21.078,-91.03
21.093,-84.15
21.109,-72.12
21.125,-56.18
21.140,-38.09
21.156,-19.64
21.171,-2.22
21.187,13.31
21.203,26.55
21.218,37.37
21.234,45.73
21.250,51.64
21.265,55.2
21.281,56.73
21.296,56.81
21.312,56.14
21.328,55.35
21.343,54.82
21.359,54.64
21.375,54.61
21.390,54.49
21.406,54.12
21.421,53.51
21.437,52.78
21.453,51.97
21.468,51.04
21.484,49.8
21.500,48.09
21.515,45.88
21.531,43.38
21.546,40.85
21.562,38.52
21.578,36.43
21.593,34.44
21.609,32.36
21.625,30.12
21.640,27.8
21.656,25.56
21.671,23.51
21.687,21.61
21.703,19.72
21.718,17.69
21.734,15.52
21.750,13.39
21.765,11.56
21.781,10.22
21.796,9.34
21.812,8.71
21.828,7.97
21.843,6.86
21.859,5.31
21.875,3.48
21.890,1.61
21.906,-0.15
21.921,-1.87
21.937,-3.81
21.953,-6.28
21.968,-9.47
21.984,-13.39
22.000,-17.78
22.015,-22.31
22.031,-26.66
22.046,-30.72
22.062,-34.56
22.078,-38.41
22.093,-42.54
22.109,-47.19
22.125,-52.41
22.140,-58.11
22.156,-64.09
22.171,-70.09
22.187,-75.87
22.203,-81.37
22.218,-86.73
22.234,-92.25
22.250,-98.37
22.265,-105.57
22.281,-114.22
22.296,-124.29
22.312,-135.12
22.328,-145.25
22.343,-152.58
22.359,-154.91
22.375,-150.54
22.390,-138.94
22.406,-121.04
22.421,-98.92
22.437,-75.24
22.453,-52.41
22.468,-32.16
22.484,-15.32
22.500,-1.99
22.515,8.1
22.531,15.39
22.546,20.36
22.562,23.56
22.578,25.61
22.593,27.09
22.609,28.45
22.625,29.91
22.640,31.45
22.656,32.91
22.671,34.14
22.687,35.06
22.703,35.69
22.718,36.04
22.734,36.06
22.750,35.61
22.765,34.49
22.781,32.5
22.796,29.55
22.812,25.64
22.828,20.91
22.843,15.55
22.859,9.73
22.875,3.57
22.890,-2.94
22.906,-9.97
22.921,-17.78
22.937,-26.55
22.953,-36.1
22.968,-45.71
22.984,-54.07
23.000,-59.51
23.015,-60.54
23.031,-56.38
23.046,-47.26
23.062,-34.42
23.078,-19.67
23.093,-4.86
23.109,8.63
23.125,20.02
23.140,29.02
23.156,35.6
23.171,39.77
23.187,41.56
23.203,41.15
23.218,38.96
23.234,35.59
23.250,31.69
23.265,27.82
23.281,24.35
23.296,21.43
23.312,19.0
23.328,16.91
23.343,14.89
23.359,12.67
23.375,9.96
23.390,6.44
23.406,1.89
23.421,-3.82
23.437,-10.63
23.453,-18.31
23.468,-26.46
23.484,-34.59
23.500,-42.27
23.515,-49.28
23.531,-55.83
23.546,-62.41
23.562,-69.55
23.578,-77.35
23.593,-85.09
23.609,-91.21
23.625,-93.64
23.640,-90.54
23.656,-80.92
23.671,-65.09
23.687,-44.56
23.703,-21.57
23.718,1.55
23.734,22.91
23.750,41.29
23.765,56.09
23.781,67.12
23.796,74.51
23.812,78.57
23.828,79.85
23.843,79.1
23.859,77.17
23.875,74.8
23.890,72.54
23.906,70.61
23.921,68.9
23.937,67.15
23.953,65.0
23.968,62.13
23.984,58.39
24.000,53.81
24.015,48.58
24.031,43.01
24.046,37.41
24.062,32.01
24.078,26.84
24.093,21.76
24.109,16.49
24.125,10.71
24.140,4.15
24.156,-3.31
24.171,-11.59
24.187,-20.16
24.203,-28.0
24.218,-33.61
24.234,-35.23
24.250,-31.41
24.265,-21.5
24.281,-5.97
24.296,13.73
24.312,35.53
24.328,57.47
24.343,78.06
24.359,96.46
24.375,112.31
24.390,125.35
24.406,135.24
24.421,141.6
24.437,144.29
24.453,143.62
24.468,140.4
24.484,135.7
24.500,130.45
24.515,125.15
24.531,119.72
24.546,113.72
24.562,106.67
24.578,98.36
24.593,88.95
24.609,78.82
24.625,68.33
24.640,57.58
24.656,46.41
24.671,34.51
24.687,21.62
24.703,7.66
24.718,-7.37
24.734,-23.43
24.750,-40.53
24.765,-58.65
24.781,-77.6
24.796,-96.78
24.812,-115.14
24.828,-131.34
24.843,-144.11
24.859,-152.66
24.875,-156.99
24.890,-157.87
24.906,-156.53
24.921,-154.31
24.937,-152.16
24.953,-150.61
24.968,-149.74
24.984,-149.47
25.000,-149.64
25.015,-150.08
25.031,-150.48
25.046,-150.32
25.062,-149.0
25.078,-146.02
25.093,-141.25
25.109,-135.09
25.125,-128.36
25.140,-121.97
25.156,-116.64
25.171,-112.64
25.187,-109.73
25.203,-107.33
25.218,-104.77
25.234,-101.45
25.250,-97.09
25.265,-91.77
25.281,-85.98
25.296,-80.49
25.312,-76.31
25.328,-74.34
25.343,-75.22
25.359,-78.97
25.375,-84.81
25.390,-91.15
25.406,-95.81
25.421,-96.6
25.437,-91.92
25.453,-81.3
25.468,-65.54
25.484,-46.45
25.500,-26.25
25.515,-6.82
25.531,10.61
25.546,25.59
25.562,38.05
25.578,47.94
25.593,54.95
25.609,58.55
25.625,58.38
25.640,54.55
25.656,47.83
25.671,39.48
25.687,30.93
25.703,23.32
25.718,17.29
25.734,12.99
25.750,10.19
25.765,8.52
25.781,7.57
25.796,6.98
25.812,6.38
25.828,5.41
25.843,3.81
25.859,1.38
25.875,-1.91
25.890,-6.06
25.906,-11.09
25.921,-17.18
25.937,-24.58
25.953,-33.36
25.968,-43.13
25.984,-52.8
26.000,-60.66
26.015,-64.74
26.031,-63.47
26.046,-56.23
26.062,-43.61
26.078,-27.27
26.093,-9.28
26.109,8.48
26.125,24.8
26.140,39.12
26.156,51.25
26.171,61.02
26.187,68.18
26.203,72.42
26.218,73.64
26.234,72.19
26.250,68.87
26.265,64.69
26.281,60.55
26.296,56.99
26.312,53.99
26.328,51.07
26.343,47.58
26.359,42.99
26.375,37.1
26.390,30.12
26.406,22.57
26.421,15.0
26.437,7.8
26.453,1.07
26.468,-5.35
26.484,-11.72
26.500,-18.27
26.515,-25.07
26.531,-32.06
26.546,-38.97
26.562,-45.3
26.578,-50.3
26.593,-52.96
26.609,-52.21
26.625,-47.25
26.640,-37.85
26.656,-24.63
26.671,-8.94
26.687,7.5
26.703,23.09
26.718,36.77
26.734,48.15
26.750,57.36
26.765,64.72
26.781,70.37
26.796,74.21
26.812,75.94
26.828,75.37
26.843,72.7
26.859,68.6
26.875,64.07
26.890,60.2
26.906,57.71
26.921,56.79
26.937,57.09
26.953,57.92
26.968,58.58
26.984,58.58
27.000,57.66
27.015,55.75
27.031,52.81
27.046,48.69
27.062,43.19
27.078,36.19
27.093,27.8
27.109,18.32
27.125,8.21
27.140,-1.99
27.156,-11.72
27.171,-20.34
27.187,-27.16
27.203,-31.46
27.218,-32.68
27.234,-30.61
27.250,-25.55
27.265,-18.29
27.281,-9.9
27.296,-1.42
27.312,6.41
27.328,13.31
27.343,19.34
27.359,24.75
27.375,29.69
27.390,34.1
27.406,37.7
27.421,40.1
27.437,40.99
27.453,40.34
27.468,38.44
27.484,35.79
27.500,33.03
27.515,30.61
27.531,28.74
27.546,27.37
27.562,26.33
27.578,25.44
27.593,24.66
27.609,24.04
27.625,23.6
27.640,23.23
27.656,22.67
27.671,21.58
27.687,19.72
27.703,17.03
27.718,13.66
27.734,9.83
27.750,5.73
27.765,1.43
27.781,-2.97
27.796,-7.2
27.812,-10.62
27.828,-12.22
27.843,-10.93
27.859,-5.95
27.875,2.87
27.890,14.82
27.906,28.51
27.921,42.15
27.937,54.16
27.953,63.51
27.968,69.98
27.984,73.99
28.000,76.3
28.015,77.57
28.031,78.14
28.046,78.02
28.062,77.05
28.078,75.07
28.093,72.18
28.109,68.64
28.125,64.8
28.140,60.93
28.156,57.13
28.171,53.38
28.187,49.59
28.203,45.68
28.218,41.63
28.234,37.48
28.250,33.29
28.265,29.11
28.281,25.01
28.296,21.0
28.312,17.11
28.328,13.29
28.343,9.42
28.359,5.34
28.375,0.87
28.390,-4.13
28.406,-9.66
28.421,-15.52
28.437,-21.16
28.453,-25.74
28.468,-28.23
28.484,-27.72
28.500,-23.7
28.515,-16.37
28.531,-6.67
28.546,3.98
28.562,14.11
28.578,22.63
28.593,29.05
28.609,33.42
28.625,36.01
28.640,37.09
28.656,36.73
28.671,34.86
28.687,31.46
28.703,26.78
28.718,21.24
28.734,15.43
28.750,9.82
28.765,4.7
28.781,0.18
28.796,-3.71
28.812,-6.91
28.828,-9.32
28.843,-10.82
28.859,-11.43
28.875,-11.37
28.890,-10.99
28.906,-10.68
28.921,-10.7
28.937,-11.13
28.953,-11.86
28.968,-12.68
28.984,-13.48
29.000,-14.27
29.015,-15.21
29.031,-16.6
29.046,-18.7
29.062,-21.62
29.078,-25.09
29.093,-28.41
29.109,-30.45
29.125,-29.99
29.140,-26.07
29.156,-18.36
29.171,-7.35
29.187,5.81
29.203,19.66
29.218,32.83
29.234,44.39
29.250,53.84
29.265,61.04
29.281,65.98
29.296,68.73
29.312,69.39
29.328,68.16
29.343,65.38
29.359,61.52
29.375,57.06
29.390,52.42
29.406,47.9
29.421,43.65
29.437,39.66
29.453,35.9
29.468,32.3
29.484,28.8
29.500,25.31
29.515,21.68
29.531,17.68
29.546,13.09
29.562,7.82
29.578,2.04
29.593,-3.78
29.609,-9.01
29.625,-13.1
29.640,-15.76
29.656,-17.17
29.671,-17.8
29.687,-18.21
29.703,-18.73
29.718,-19.23
29.734,-19.14
29.750,-17.61
29.765,-13.77
29.781,-7.1
29.796,2.47
29.812,14.49
29.828,28.05
29.843,42.02
29.859,55.18
29.875,66.47
29.890,75.16
29.906,80.97
29.921,84.15
29.937,85.39
29.953,85.62
29.968,85.76
29.984,86.48
30.000,88.1
30.015,90.69
30.031,94.25
30.046,98.95
30.062,105.13
30.078,113.13
30.093,122.99
30.109,134.16
30.125,145.36
30.140,154.84
30.156,160.91
30.171,162.37
30.187,159.04
30.203,151.74
30.218,142.06
30.234,131.86
30.250,122.74
30.265,115.64
30.281,110.54
30.296,106.5
30.312,101.77
30.328,94.2
30.343,81.84
30.359,63.45
30.375,38.98
30.390,9.57
30.406,-22.9
30.421,-56.49
30.437,-89.88
30.453,-123.02
30.468,-157.07
30.484,-193.82
30.500,-234.42
30.515,-278.1
30.531,-321.47
30.546,-359.04
30.562,-384.82
30.578,-394.54
30.593,-387.26
30.609,-365.71
30.625,-335.11
30.640,-301.2
30.656,-268.35
30.671,-238.74
30.687,-212.74
30.703,-189.91
30.718,-169.95
30.734,-152.94
30.750,-139.02
30.765,-127.86
30.781,-118.53
30.796,-109.78
30.812,-100.7
30.828,-91.18
30.843,-81.93
30.859,-74.24
30.875,-69.19
30.890,-67.1
30.906,-67.3
30.921,-68.39
30.937,-68.83
30.953,-67.51
30.968,-64.04
30.984,-58.74
31.000,-52.28
31.015,-45.36
31.031,-38.55
31.046,-32.31
31.062,-26.97
31.078,-22.67
31.093,-19.25
31.109,-15.99
31.125,-11.79
31.140,-5.4
31.156,4.19
31.171,17.34
31.187,33.66
31.203,52.06
31.218,71.05
31.234,89.03
31.250,104.69
31.265,117.17
31.281,126.3
31.296,132.51
31.312,136.68
31.328,139.8
31.343,142.72
31.359,145.88
31.375,149.27
31.390,152.52
31.406,155.07
31.421,156.33
31.437,155.88
31.453,153.45
31.468,148.96
31.484,142.58
31.500,134.63
31.515,125.51
31.531,115.59
31.546,105.07
31.562,94.05
31.578,82.68
31.593,71.34
31.609,60.74
31.625,51.77
31.640,45.2
31.656,41.15
31.671,38.96
31.687,37.33
31.703,34.96
31.718,31.3
31.734,26.87
31.750,23.16
31.765,21.91
31.781,24.33
31.796,30.61
31.812,40.02
31.828,51.38
31.843,63.59
31.859,75.87
31.875,87.61
31.890,98.01
31.906,105.93
31.921,110.03
31.937,109.26
31.953,103.33
31.968,93.03
31.984,79.98
32.000,66.26
32.015,53.65
32.031,43.11
32.046,34.73
32.062,27.86
32.078,21.86
32.093,16.7
32.109,13.2
32.125,12.9
32.140,17.42
32.156,27.74
32.171,43.74
32.187,64.11
32.203,86.62
32.218,108.45
32.234,126.39
32.250,137.1
32.265,137.79
32.281,127.16
32.296,106.55
32.312,80.2
32.328,54.34
32.343,34.98
32.359,25.51
32.375,25.16
32.390,29.47
32.406,32.38
32.421,29.17
32.437,18.51
32.453,2.68
32.468,-13.93
32.484,-27.05
32.500,-34.25
32.515,-35.32
32.531,-31.54
32.546,-24.4
32.562,-14.76
32.578,-2.72
32.593,11.84
32.609,28.51
32.625,45.83
32.640,61.44
32.656,72.58
32.671,76.94
32.687,73.22
32.703,61.45
32.718,42.64
32.734,18.15
32.750,-11.06
32.765,-44.59
32.781,-82.13
32.796,-122.39
32.812,-162.1
32.828,-196.0
32.843,-218.08
32.859,-223.72
32.875,-211.46
32.890,-183.85
32.906,-146.66
32.921,-106.9
32.937,-70.82
32.953,-42.53
32.968,-23.75
32.984,-14.39
33.000,-13.28
33.015,-18.47
33.031,-27.36
33.046,-36.57
33.062,-42.18
33.078,-40.52
33.093,-28.97
33.109,-6.73
33.125,25.05
33.140,63.64
33.156,105.58
33.171,147.51
33.187,186.58
33.203,220.55
33.218,247.37
33.234,265.18
33.250,272.42
33.265,268.57
33.281,254.73
33.296,233.81
33.312,209.86
33.328,186.92
33.343,167.83
33.359,153.59
33.375,143.6
33.390,136.37
33.406,130.44
33.421,125.02
33.437,119.79
33.453,114.6
33.468,108.83
33.484,101.25
33.500,90.27
33.515,74.47
33.531,53.08
33.546,26.26
33.562,-4.97
33.578,-39.18
33.593,-74.91
33.609,-111.06
33.625,-147.05
33.640,-182.74
33.656,-218.48
33.671,-255.16
33.687,-294.02
33.703,-335.92
33.718,-380.25
33.734,-423.93
33.750,-461.3
33.765,-485.43
33.781,-490.42
33.796,-473.8
33.812,-437.64
33.828,-387.91
33.843,-332.18
33.859,-276.99
33.875,-226.18
33.890,-180.74
33.906,-139.83
33.921,-102.18
33.937,-66.98
33.953,-34.03
33.968,-3.57
33.984,23.66
34.000,46.26
34.015,61.99
34.031,68.12
34.046,62.28
34.062,43.5
34.078,12.8
34.093,-26.96
34.109,-72.0
34.125,-118.92
34.140,-165.83
34.156,-212.75
34.171,-260.96
34.187,-311.46
34.203,-363.39
34.218,-413.13
34.234,-454.97
34.250,-482.91
34.265,-493.11
34.281,-485.41
34.296,-463.22
34.312,-431.84
34.328,-396.15
34.343,-359.1
34.359,-321.45
34.375,-282.86
34.390,-243.25
34.406,-203.42
34.421,-164.74
34.437,-128.33
34.453,-94.37
34.468,-62.19
34.484,-31.07
34.500,-1.01
34.515,26.96
34.531,51.16
34.546,69.94
34.562,82.57
34.578,89.63
34.593,92.84
34.609,94.52
34.625,96.82
34.640,101.05
34.656,107.31
34.671,114.56
34.687,121.13
34.703,125.41
34.718,126.4
34.734,124.07
34.750,119.25
34.765,113.24
34.781,107.38
34.796,102.65
34.812,99.45
34.828,97.69
34.843,96.91
34.859,96.48
34.875,95.72
34.890,94.02
34.906,91.04
34.921,86.93
34.937,82.56
34.953,79.51
34.968,79.88
34.984,85.75
35.000,98.5
35.015,118.29
35.031,143.98
35.046,173.38
35.062,203.95
35.078,233.42
35.093,260.25
35.109,283.65
35.125,303.25
35.140,318.83
35.156,330.17
35.171,337.28
35.187,340.71
35.203,341.74
35.218,342.16
35.234,343.72
35.250,347.5
35.265,353.44
35.281,360.39
35.296,366.57
35.312,370.19
35.328,369.97
35.343,365.2
35.359,355.62
35.375,341.14
35.390,321.88
35.406,298.19
35.421,270.96
35.437,241.64
35.453,212.03
35.468,183.79
35.484,158.06
35.500,135.16
35.515,114.74
35.531,96.13
35.546,78.65
35.562,61.83
35.578,45.38
35.593,29.23
35.609,13.59
35.625,-0.82
35.640,-12.8
35.656,-21.01
35.671,-24.59
35.687,-23.71
35.703,-19.83
35.718,-15.34
35.734,-12.82
35.750,-14.12
35.765,-19.92
35.781,-29.9
35.796,-43.18
35.812,-58.89
35.828,-76.32
35.843,-94.75
35.859,-113.14
35.875,-130.02
35.890,-143.74
35.906,-153.0
35.921,-157.4
35.937,-157.58
35.953,-154.97
35.968,-151.12
35.984,-147.13
36.000,-143.21
36.015,-138.82
36.031,-133.0
36.046,-124.98
36.062,-114.67
36.078,-102.82
36.093,-90.88
36.109,-80.55
36.125,-73.38
36.140,-70.36
36.156,-71.92
36.171,-77.95
36.187,-87.98
36.203,-101.18
36.218,-116.34
36.234,-131.84
36.250,-145.86
36.265,-156.67
36.281,-163.13
36.296,-165.02
36.312,-163.08
36.328,-158.76
36.343,-153.75
36.359,-149.53
36.375,-147.08
36.390,-146.77
36.406,-148.32
36.421,-151.0
36.437,-153.8
36.453,-155.87
36.468,-156.75
36.484,-156.59
36.500,-155.97
36.515,-155.66
36.531,-156.19
36.546,-157.62
36.562,-159.51
36.578,-161.12
36.593,-161.7
36.609,-160.64
36.625,-157.49
36.640,-151.94
36.656,-143.85
36.671,-133.33
36.687,-120.86
36.703,-107.39
36.718,-94.11
36.734,-82.23
36.750,-72.67
36.765,-65.9
36.781,-61.98
36.796,-60.68
36.812,-61.59
36.828,-64.26
36.843,-68.17
36.859,-72.66
36.875,-76.93
36.890,-80.0
36.906,-80.83
36.921,-78.51
36.937,-72.48
36.953,-62.72
36.968,-49.79
36.984,-34.71
37.000,-18.65
37.015,-2.55
37.031,13.12
37.046,28.32
37.062,43.17
37.078,57.56
37.093,70.85
37.109,82.02
37.125,89.94
37.140,93.86
37.156,93.64
37.171,89.8
37.187,83.22
37.203,74.87
37.218,65.6
37.234,56.14
37.250,47.15
37.265,39.36
37.281,33.38
37.296,29.54
37.312,27.65
37.328,26.9
37.343,26.16
37.359,24.27
37.375,20.41
37.390,14.32
37.406,6.23
37.421,-3.32
37.437,-13.75
37.453,-24.61
37.468,-35.66
37.484,-46.88
37.500,-58.31
37.515,-69.95
37.531,-81.52
37.546,-92.36
37.562,-101.42
37.578,-107.47
37.593,-109.33
37.609,-106.36
37.625,-98.65
37.640,-86.97
37.656,-72.56
37.671,-56.73
37.687,-40.63
37.703,-25.14
37.718,-10.95
37.734,1.36
37.750,11.25
37.765,18.29
37.781,22.36
37.796,23.71
37.812,23.01
37.828,21.16
37.843,19.14
37.859,17.73
37.875,17.37
37.890,18.2
37.906,20.04
37.921,22.56
37.937,25.29
37.953,27.69
37.968,29.24
37.984,29.51
38.000,28.18
38.015,25.14
38.031,20.44
38.046,14.31
38.062,7.03
38.078,-1.03
38.093,-9.47
38.109,-17.9
38.125,-25.97
38.140,-33.47
38.156,-40.49
38.171,-47.32
38.187,-54.31
38.203,-61.58
38.218,-68.72
38.234,-74.65
38.250,-77.92
38.265,-77.16
38.281,-71.63
38.296,-61.47
38.312,-47.64
38.328,-31.62
38.343,-14.93
38.359,1.22
38.375,15.93
38.390,28.58
38.406,38.72
38.421,46.04
38.437,50.48
38.453,52.29
38.468,52.07
38.484,50.56
38.500,48.5
38.515,46.51
38.531,44.95
38.546,44.1
38.562,44.11
38.578,45.1
38.593,47.07
38.609,49.85
38.625,53.05
38.640,56.13
38.656,58.45
38.671,59.48
38.687,58.92
38.703,56.75
38.718,53.25
38.734,48.97
38.750,44.55
38.765,40.51
38.781,37.04
38.796,33.88
38.812,30.29
38.828,25.41
38.843,18.61
38.859,9.92
38.875,0.33
38.890,-8.45
38.906,-14.41
38.921,-15.85
38.937,-11.88
38.953,-2.68
38.968,10.73
38.984,26.79
39.000,43.78
39.015,60.13
39.031,74.51
39.046,85.81
39.062,93.19
39.078,96.13
39.093,94.62
39.109,89.17
39.125,80.87
39.140,71.15
39.156,61.52
39.171,53.26
39.187,47.16
39.203,43.43
39.218,41.79
39.234,41.62
39.250,42.12
39.265,42.41
39.281,41.61
39.296,38.97
39.312,33.98
39.328,26.51
39.343,16.88
39.359,5.77
39.375,-5.98
39.390,-17.58
39.406,-28.46
39.421,-38.31
39.437,-47.1
39.453,-54.95
39.468,-62.2
39.484,-69.16
39.500,-76.01
39.515,-82.48
39.531,-87.75
39.546,-90.48
39.562,-89.22
39.578,-82.92
39.593,-71.37
39.609,-55.33
39.625,-36.27
39.640,-15.97
39.656,4.01
39.671,22.47
39.687,38.59
39.703,51.75
39.718,61.51
39.734,67.67
39.750,70.45
39.765,70.51
39.781,68.86
39.796,66.46
39.812,63.98
39.828,61.56
39.843,58.93
39.859,55.7
39.875,51.75
39.890,47.26
39.906,42.76
39.921,38.76
39.937,35.57
39.953,33.11
39.968,30.96
39.984,28.44
40.000,24.88
40.015,19.7
40.031,12.53
40.046,3.2
40.062,-8.25
40.078,-21.67
40.093,-36.76
40.109,-53.13
40.125,-70.35
40.140,-87.8
40.156,-104.71
40.171,-119.97
40.187,-132.12
40.203,-139.52
40.218,-140.72
40.234,-134.84
40.250,-121.99
40.265,-103.29
40.281,-80.73
40.296,-56.55
40.312,-32.78
40.328,-10.85
40.343,8.48
40.359,24.83
40.375,38.03
40.390,47.84
40.406,54.12
40.421,56.96
40.437,56.89
40.453,54.84
40.468,51.97
40.484,49.28
40.500,47.43
40.515,46.66
40.531,46.89
40.546,47.88
40.562,49.37
40.578,51.07
40.593,52.67
40.609,53.79
40.625,54.07
40.640,53.15
40.656,50.82
40.671,47.02
40.687,41.81
40.703,35.39
40.718,27.99
40.734,19.72
40.750,10.53
40.765,0.18
40.781,-11.64
40.796,-24.97
40.812,-39.25
40.828,-53.1
40.843,-64.46
40.859,-71.05
40.875,-71.01
40.890,-63.6
40.906,-49.4
40.921,-30.22
40.937,-8.6
40.953,12.91
40.968,32.19
40.984,47.75
41.000,58.77
41.015,64.85
41.031,66.02
41.046,62.62
41.062,55.35
41.078,45.18
41.093,33.29
41.109,20.75
41.125,8.43
41.140,-3.05
41.156,-13.34
41.171,-22.14
41.187,-29.2
41.203,-34.4
41.218,-37.73
41.234,-39.39
41.250,-39.7
41.265,-39.05
41.281,-37.8
41.296,-36.27
41.312,-34.86
41.328,-33.99
41.343,-34.21
41.359,-36.05
41.375,-39.93
41.390,-46.07
41.406,-54.28
41.421,-64.01
41.437,-74.2
41.453,-83.43
41.468,-89.99
41.484,-92.27
41.500,-89.08
41.515,-80.01
41.531,-65.54
41.546,-46.95
41.562,-25.98
41.578,-4.47
41.593,15.97
41.609,34.16
41.625,49.37
41.640,61.3
41.656,69.92
41.671,75.43
41.687,78.22
41.703,78.8
41.718,77.74
41.734,75.62
41.750,72.98
41.765,70.25
41.781,67.64
41.796,65.14
41.812,62.56
41.828,59.56
41.843,55.87
41.859,51.32
41.875,45.97
41.890,39.98
41.906,33.54
41.921,26.89
41.937,20.2
41.953,13.65
41.968,7.29
41.984,0.99
42.000,-5.62
42.015,-13.09
42.031,-21.89
42.046,-32.04
42.062,-42.84
42.078,-52.93
42.093,-60.63
42.109,-64.49
42.125,-63.82
42.140,-58.84
42.156,-50.45
42.171,-39.85
42.187,-28.09
42.203,-15.89
42.218,-3.72
42.234,7.96
42.250,18.48
42.265,27.1
42.281,33.24
42.296,36.73
42.312,37.96
42.328,37.72
42.343,36.8
42.359,35.77
42.375,34.73
42.390,33.52
42.406,31.84
42.421,29.58
42.437,26.77
42.453,23.59
42.468,20.18
42.484,16.65
42.500,12.97
42.515,9.03
42.531,4.58
42.546,-0.79
42.562,-7.63
42.578,-16.44
42.593,-27.52
42.609,-40.68
42.625,-55.15
42.640,-69.6
42.656,-82.24
42.671,-91.12
42.687,-94.41
42.703,-90.77
42.718,-79.61
42.734,-61.34
42.750,-37.39
42.765,-9.97
42.781,18.28
42.796,44.84
42.812,67.8
42.828,86.04
42.843,99.29
42.859,107.94
42.875,112.68
42.890,114.3
42.906,113.54
42.921,111.0
42.937,107.26
42.953,102.8
42.968,98.01
42.984,93.14
43.000,88.34
43.015,83.73
43.031,79.45
43.046,75.65
43.062,72.29
43.078,69.08
43.093,65.37
43.109,60.42
43.125,53.64
43.140,44.85
43.156,34.36
43.171,22.78
43.187,10.71
43.203,-1.5
43.218,-13.8
43.234,-26.37
43.250,-39.41
43.265,-52.9
43.281,-66.42
43.296,-78.97
43.312,-89.06
43.328,-94.92
43.343,-94.88
43.359,-87.9
43.375,-73.97
43.390,-54.26
43.406,-30.84
43.421,-6.22
43.437,17.25
43.453,37.78
43.468,54.31
43.484,66.45
43.500,74.41
43.515,78.76
43.531,80.31
43.546,79.98
43.562,78.56
43.578,76.65
43.593,74.54
43.609,72.29
43.625,69.84
43.640,67.12
43.656,64.16
43.671,61.0
43.687,57.71
43.703,54.18
43.718,50.19
43.734,45.4
43.750,39.41
43.765,31.87
43.781,22.55
43.796,11.47
43.812,-1.06
43.828,-14.51
43.843,-28.15
43.859,-41.3
43.875,-53.47
43.890,-64.49
43.906,-74.47
43.921,-83.75
43.937,-92.61
43.953,-101.03
43.968,-108.5
43.984,-114.01
44.000,-116.15
44.015,-113.48
44.031,-104.97
44.046,-90.39
44.062,-70.55
44.078,-47.15
44.093,-22.37
44.109,1.56
44.125,22.83
44.140,40.28
44.156,53.36
44.171,61.95
44.187,66.21
44.203,66.51
44.218,63.39
44.234,57.59
44.250,50.0
44.265,41.61
44.281,33.28
44.296,25.66
44.312,19.12
44.328,13.71
44.343,9.4
44.359,6.09
44.375,3.69
44.390,2.09
44.406,1.06
44.421,0.16
44.437,-1.22
44.453,-3.75
44.468,-7.86
44.484,-13.57
44.500,-20.39
44.515,-27.57
44.531,-34.36
44.546,-40.37
44.562,-45.69
44.578,-50.82
44.593,-56.39
44.609,-62.93
44.625,-70.63
44.640,-79.18
44.656,-87.75
44.671,-94.99
44.687,-99.3
44.703,-99.13
44.718,-93.39
44.734,-81.79
44.750,-64.93
44.765,-44.23
44.781,-21.52
44.796,1.23
44.812,22.35
44.828,40.54
44.843,54.98
44.859,65.38
44.875,71.86
44.890,74.93
44.906,75.33
44.921,73.78
44.937,70.95
44.953,67.35
44.968,63.35
44.984,59.19
45.000,55.13
45.015,51.29
45.031,47.81
45.046,44.67
45.062,41.76
45.078,38.9
45.093,35.82
45.109,32.21
45.125,27.76
45.140,22.22
45.156,15.43
45.171,7.54
45.187,-1.05
45.203,-9.77
45.218,-17.95
45.234,-25.16
45.250,-31.31
45.265,-36.79
45.281,-42.31
45.296,-48.68
45.312,-56.32
45.328,-65.05
45.343,-73.87
45.359,-81.15
45.375,-85.02
45.390,-83.96
45.406,-77.17
45.421,-64.87
45.437,-48.19
45.453,-28.84
45.468,-8.67
45.484,10.66
45.500,27.83
45.515,41.96
45.531,52.51
45.546,59.33
45.562,62.63
45.578,63.02
45.593,61.39
45.609,58.74
45.625,55.92
45.640,53.46
45.656,51.5
45.671,49.92
45.687,48.45
45.703,46.85
45.718,44.99
45.734,42.85
45.750,40.48
45.765,37.85
45.781,34.9
45.796,31.45
45.812,27.31
45.828,22.33
45.843,16.45
45.859,9.73
45.875,2.38
45.890,-5.39
45.906,-13.42
45.921,-21.59
45.937,-29.91
45.953,-38.38
45.968,-47.02
45.984,-55.73
46.000,-64.21
46.015,-71.91
46.031,-78.03
46.046,-81.56
46.062,-81.42
46.078,-76.82
46.093,-67.43
46.109,-53.63
46.125,-36.47
46.140,-17.42
46.156,1.91
46.171,20.06
46.187,35.94
46.203,48.87
46.218,58.48
46.234,64.78
46.250,67.97
46.265,68.54
46.281,67.18
46.296,64.67
46.312,61.69
46.328,58.68
46.343,55.77
46.359,52.84
46.375,49.75
46.390,46.41
46.406,42.93
46.421,39.47
46.437,36.06
46.453,32.53
46.468,28.54
46.484,23.74
46.500,17.99
46.515,11.46
46.531,4.61
46.546,-2.05
46.562,-8.09
46.578,-13.41
46.593,-18.22
46.609,-22.93
46.625,-28.05
46.640,-33.94
46.656,-40.74
46.671,-48.18
46.687,-55.53
46.703,-61.65
46.718,-65.2
46.734,-64.94
46.750,-60.14
46.765,-50.89
46.781,-38.1
46.796,-23.31
46.812,-8.28
46.828,5.42
46.843,16.63
46.859,24.71
46.875,29.48
46.890,31.1
46.906,29.99
46.921,26.81
46.937,22.34
46.953,17.34
46.968,12.39
46.984,7.72
47.000,3.33
47.015,-1.03
47.031,-5.52
47.046,-10.16
47.062,-14.75
47.078,-18.91
47.093,-22.28
47.109,-24.7
47.125,-26.28
47.140,-27.41
47.156,-28.59
47.171,-30.29
47.187,-32.71
47.203,-35.81
47.218,-39.3
47.234,-42.86
47.250,-46.3
47.265,-49.69
47.281,-53.26
47.296,-57.32
47.312,-62.01
47.328,-67.07
47.343,-71.83
47.359,-75.19
47.375,-75.84
47.390,-72.6
47.406,-64.8
47.421,-52.47
47.437,-36.53
47.453,-18.47
47.484,17.38
47.500,32.73
47.515,45.68
47.531,56.22
47.546,64.45
47.562,70.35
47.578,73.94
47.593,75.4
47.609,75.25
47.625,74.25
47.640,73.18
47.656,72.43
47.671,71.94
47.687,71.26
47.703,69.91
47.718,67.65
47.734,64.63
47.750,61.18
47.765,57.59
47.781,53.97
47.796,50.26
47.812,46.41
47.828,42.51
47.843,38.74
47.859,35.24
47.875,32.03
47.890,28.89
47.906,25.64
47.921,22.22
47.937,18.84
47.953,15.79
47.968,13.33
47.984,11.48
48.000,10.0
48.015,8.57
48.031,6.97
48.046,5.14
48.062,3.24
48.078,1.47
48.093,-0.04
48.109,-1.28
48.125,-2.42
48.140,-3.65
48.156,-5.15
48.171,-7.01
48.187,-9.18
48.203,-11.6
48.218,-14.19
48.234,-17.01
48.250,-20.16
48.265,-23.75
48.281,-27.78
48.296,-32.11
48.312,-36.43
48.328,-40.41
48.343,-43.86
48.359,-46.81
48.375,-49.54
48.390,-52.5
48.406,-56.12
48.421,-60.68
48.437,-66.19
48.453,-72.44
48.468,-79.04
48.484,-85.6
48.500,-91.86
48.515,-97.74
48.531,-103.39
48.546,-109.19
48.562,-115.59
48.578,-123.06
48.593,-131.75
48.609,-141.25
48.625,-150.45
48.640,-157.5
48.656,-160.29
48.671,-157.02
48.687,-146.74
48.703,-129.71
48.718,-107.36
48.734,-81.81
48.750,-55.4
48.765,-30.2
48.781,-7.79
48.796,10.87
48.812,25.28
48.828,35.46
48.843,41.77
48.859,44.97
48.875,45.96
48.890,45.71
48.906,45.01
48.921,44.38
48.937,44.09
48.953,44.14
48.968,44.44
48.984,44.78
49.000,44.95
49.015,44.79
49.031,44.17
49.046,42.98
49.062,41.07
49.078,38.27
49.093,34.33
49.109,29.11
49.125,22.56
49.140,14.88
49.156,6.5
49.171,-1.99
49.187,-10.14
49.203,-17.75
49.218,-25.03
49.234,-32.49
49.250,-40.61
49.265,-49.45
49.281,-58.41
49.296,-66.21
49.312,-71.2
49.328,-71.9
49.343,-67.44
49.359,-57.89
49.375,-44.21
49.390,-27.89
49.406,-10.58
49.421,6.31
49.437,21.78
49.453,35.18
49.468,46.11
49.484,54.32
49.500,59.67
49.515,62.17
49.531,62.11
49.546,60.04
49.562,56.68
49.578,52.82
49.593,49.14
49.609,46.03
49.625,43.61
49.640,41.65
49.656,39.72
49.671,37.32
49.687,34.03
49.703,29.66
49.718,24.25
49.734,18.06
49.750,11.45
49.765,4.77
49.781,-1.78
49.796,-8.13
49.812,-14.31
49.828,-20.56
49.843,-27.12
49.859,-34.32
49.875,-42.35
49.890,-51.07
49.906,-59.88
49.921,-67.67
49.937,-72.92
49.953,-74.1
49.968,-70.07
49.984,-60.44
50.000,-45.75
50.015,-27.38
50.031,-7.23
50.046,12.67
50.062,30.63
50.078,45.54
50.093,56.95
50.109,64.88
50.125,69.64
50.140,71.65
50.156,71.3
50.171,69.09
50.187,65.56
50.203,61.34
50.218,57.09
50.234,53.3
50.250,50.2
50.265,47.72
50.281,45.57
50.296,43.35
50.312,40.74
50.328,37.51
50.343,33.54
50.359,28.76
50.375,23.2
50.390,16.93
50.406,10.06
50.421,2.82
50.437,-4.59
50.453,-11.97
50.468,-19.33
50.484,-26.83
50.500,-34.82
50.515,-43.57
50.531,-53.06
50.546,-62.73
50.562,-71.41
50.578,-77.49
50.593,-79.3
50.609,-75.56
50.625,-65.81
50.640,-50.55
50.656,-31.19
50.671,-9.62
50.687,12.17
50.703,32.47
50.718,50.09
50.734,64.27
50.750,74.66
50.765,81.22
50.781,84.22
50.796,84.18
50.812,81.93
50.828,78.41
50.843,74.45
50.859,70.57
50.875,66.89
50.890,63.19
50.906,59.14
50.921,54.55
50.937,49.5
50.953,44.24
50.968,39.05
50.984,34.06
51.000,29.16
51.015,24.08
51.031,18.56
51.046,12.49
51.062,5.97
51.078,-0.75
51.093,-7.41
51.109,-13.93
51.125,-20.41
51.140,-27.19
51.156,-34.69
51.171,-43.2
51.187,-52.72
51.203,-62.68
51.218,-72.03
51.234,-79.27
51.250,-82.82
51.265,-81.41
51.281,-74.4
51.296,-61.93
51.312,-44.96
51.328,-25.0
51.343,-3.79
51.359,17.0
51.375,36.0
51.390,52.2
51.406,65.01
51.421,74.15
51.437,79.67
51.453,81.92
51.468,81.56
51.484,79.43
51.500,76.46
51.515,73.4
51.531,70.67
51.546,68.28
51.562,65.91
51.578,63.16
51.593,59.73
51.609,55.57
51.625,50.88
51.640,45.91
51.656,40.82
51.671,35.64
51.687,30.22
51.703,24.36
51.718,17.95
51.734,11.03
51.750,3.81
51.765,-3.35
51.781,-10.09
51.796,-16.21
51.812,-21.73
51.828,-27.0
51.843,-32.6
51.859,-39.12
51.875,-46.92
51.890,-55.86
51.906,-65.21
51.921,-73.68
51.937,-79.68
51.953,-81.65
51.968,-78.44
51.984,-69.61
52.000,-55.55
52.015,-37.43
52.031,-16.94
52.046,4.06
52.062,23.94
52.078,41.51
52.093,56.08
52.109,67.4
52.125,75.42
52.140,80.23
52.156,81.97
52.171,81.0
52.187,78.0
52.203,73.91
52.218,69.8
52.234,66.54
52.250,64.53
52.265,63.56
52.281,62.99
52.296,62.05
52.312,60.19
52.328,57.28
52.343,53.62
52.359,49.62
52.375,45.62
52.390,41.62
52.406,37.37
52.421,32.5
52.437,26.76
52.453,20.14
52.468,12.84
52.484,5.16
52.500,-2.62
52.515,-10.34
52.531,-17.97
52.546,-25.55
52.562,-33.17
52.578,-40.93
52.593,-48.98
52.609,-57.54
52.625,-66.74
52.640,-76.43
52.656,-86.0
52.671,-94.2
52.687,-99.39
52.703,-99.91
52.718,-94.64
52.734,-83.37
52.750,-66.97
52.765,-47.14
52.781,-25.97
52.796,-5.37
52.812,13.21
52.828,28.93
52.843,41.39
52.859,50.47
52.875,56.2
52.890,58.77
52.906,58.59
52.921,56.3
52.937,52.8
52.953,49.01
52.968,45.74
52.984,43.42
53.000,42.03
53.015,41.2
53.031,40.37
53.046,39.13
53.062,37.29
53.078,34.94
53.093,32.33
53.109,29.59
53.125,26.7
53.140,23.42
53.156,19.47
53.171,14.69
53.187,9.15
53.203,3.15
53.218,-2.98
53.234,-8.9
53.250,-14.47
53.265,-19.71
53.281,-24.87
53.296,-30.26
53.312,-36.2
53.328,-42.99
53.343,-50.71
53.359,-59.22
53.375,-68.08
53.390,-76.48
53.406,-83.3
53.421,-87.28
53.437,-87.25
53.453,-82.5
53.468,-72.99
53.484,-59.46
53.500,-43.23
53.515,-25.95
53.531,-9.22
53.546,5.77
53.562,18.24
53.578,27.87
53.593,34.67
53.609,38.84
53.625,40.79
53.640,41.06
53.656,40.39
53.671,39.58
53.687,39.33
53.703,40.05
53.718,41.68
53.734,43.7
53.750,45.3
53.765,45.62
53.781,44.07
53.796,40.56
53.812,35.49
53.828,29.59
53.843,23.61
53.859,18.01
53.875,12.83
53.890,7.76
53.906,2.39
53.921,-3.58
53.937,-10.14
53.953,-16.98
53.968,-23.62
53.984,-29.67
54.000,-34.86
54.015,-39.17
54.031,-42.78
54.046,-45.95
54.062,-49.12
54.078,-52.82
54.093,-57.57
54.109,-63.66
54.125,-70.8
54.140,-78.03
54.156,-83.76
54.171,-86.2
54.187,-83.87
54.203,-76.07
54.218,-63.13
54.234,-46.26
54.250,-27.21
54.265,-7.84
54.281,10.28
54.296,26.01
54.312,38.67
54.328,48.0
54.343,54.1
54.359,57.33
54.375,58.3
54.390,57.72
54.406,56.36
54.421,54.82
54.437,53.52
54.453,52.55
54.468,51.79
54.484,50.98
54.500,49.92
54.515,48.52
54.531,46.88
54.546,45.14
54.562,43.47
54.578,41.92
54.593,40.39
54.609,38.72
54.625,36.72
54.640,34.19
54.656,31.06
54.671,27.36
54.687,23.17
54.703,18.64
54.718,13.85
54.734,8.8
54.750,3.35
54.765,-2.67
54.781,-9.41
54.796,-16.9
54.812,-25.09
54.828,-33.91
54.843,-43.26
54.859,-52.97
54.875,-62.54
54.890,-71.05
54.906,-77.14
54.921,-79.42
54.937,-76.85
54.953,-69.31
54.968,-57.64
54.984,-43.42
55.000,-28.48
55.015,-14.32
55.031,-1.85
55.046,8.55
55.062,16.87
55.078,23.26
55.093,27.73
55.109,30.33
55.125,31.15
55.140,30.46
55.156,28.74
55.171,26.58
55.187,24.52
55.203,22.9
55.218,21.75
55.234,20.69
55.250,19.22
55.265,16.92
55.281,13.62
55.296,9.56
55.312,5.19
55.328,0.94
55.343,-2.98
55.359,-6.74
55.375,-10.73
55.390,-15.31
55.406,-20.65
55.421,-26.64
55.437,-32.94
55.453,-39.13
55.468,-44.91
55.484,-50.11
55.500,-54.75
55.515,-58.98
55.531,-62.99
55.546,-67.04
55.562,-71.35
55.578,-76.0
55.593,-80.9
55.609,-85.58
55.625,-89.21
55.640,-90.65
55.656,-88.7
55.671,-82.4
55.687,-71.37
55.703,-55.98
55.718,-37.29
55.734,-16.83
55.750,3.74
55.765,22.98
55.781,39.86
55.796,53.76
55.812,64.35
55.828,71.51
55.843,75.26
55.859,75.92
55.875,74.04
55.890,70.5
55.906,66.24
55.921,62.07
55.937,58.44
55.953,55.32
55.968,52.39
55.984,49.26
56.000,45.8
56.015,42.15
56.031,38.66
56.046,35.6
56.062,32.98
56.078,30.45
56.093,27.43
56.109,23.44
56.125,18.23
56.140,12.04
56.156,5.4
56.171,-1.04
56.187,-6.83
56.203,-11.88
56.218,-16.47
56.234,-21.09
56.250,-26.24
56.265,-32.27
56.281,-39.36
56.296,-47.48
56.312,-56.36
56.328,-65.42
56.343,-73.61
56.359,-79.52
56.375,-81.65
56.390,-78.83
56.406,-70.72
56.421,-57.97
56.437,-42.1
56.453,-24.98
56.468,-8.38
56.484,6.5
56.500,19.01
56.515,28.9
56.531,36.1
56.546,40.57
56.562,42.35
56.578,41.7
56.593,39.21
56.609,35.75
56.625,32.25
56.640,29.45
56.656,27.69
56.671,26.96
56.687,26.92
56.703,27.2
56.718,27.51
56.734,27.64
56.750,27.4
56.765,26.48
56.781,24.49
56.796,20.98
56.812,15.73
56.828,8.8
56.843,0.68
56.859,-7.93
56.875,-16.25
56.890,-23.74
56.906,-30.22
56.921,-35.94
56.937,-41.49
56.953,-47.51
56.968,-54.55
56.984,-62.73
57.000,-71.56
57.015,-79.94
57.031,-86.25
57.046,-88.82
57.062,-86.33
57.078,-78.31
57.093,-65.29
57.109,-48.75
57.125,-30.7
57.140,-13.17
57.156,2.31
57.171,14.94
57.187,24.62
57.203,31.63
57.218,36.32
57.234,39.01
57.250,39.93
57.265,39.42
57.281,37.96
57.296,36.15
57.312,34.45
57.328,33.09
57.343,31.98
57.359,30.87
57.375,29.57
57.390,28.05
57.406,26.43
57.421,24.81
57.437,23.17
57.453,21.28
57.468,18.82
57.484,15.53
57.500,11.28
57.515,6.13
57.531,0.33
57.546,-5.76
57.562,-11.77
57.578,-17.4
57.593,-22.63
57.609,-27.73
57.625,-33.22
57.640,-39.7
57.656,-47.49
57.671,-56.37
57.687,-65.4
57.703,-73.1
57.718,-77.77
57.734,-78.01
57.750,-73.12
57.765,-63.31
57.781,-49.64
57.796,-33.69
57.812,-17.13
57.828,-1.32
57.843,12.82
57.859,24.8
57.875,34.48
57.890,41.85
57.906,46.93
57.921,49.84
57.937,50.79
57.953,50.24
57.968,48.71
57.984,46.8
58.000,44.92
58.015,43.24
58.031,41.77
58.046,40.3
58.062,38.75
58.078,37.07
58.093,35.29
58.109,33.37
58.125,31.17
58.140,28.37
58.156,24.66
58.171,19.87
58.187,14.1
58.203,7.76
58.218,1.4
58.234,-4.5
58.250,-9.77
58.265,-14.53
58.281,-19.19
58.296,-24.32
58.312,-30.37
58.328,-37.55
58.343,-45.57
58.359,-53.66
58.375,-60.59
58.390,-64.87
58.406,-65.15
58.421,-60.58
58.437,-51.07
58.453,-37.39
58.468,-20.96
58.484,-3.48
58.500,13.47
58.515,28.64
58.531,41.31
58.546,51.05
58.562,57.72
58.578,61.35
58.593,62.19
58.609,60.75
58.625,57.79
58.640,54.16
58.656,50.56
58.671,47.44
58.687,44.83
58.703,42.55
58.718,40.35
58.734,38.06
58.750,35.59
58.765,32.91
58.781,29.95
58.796,26.51
58.812,22.3
58.828,17.09
58.843,10.82
58.859,3.65
58.875,-4.06
58.890,-11.93
58.906,-19.63
58.921,-27.0
58.937,-34.04
58.953,-40.94
58.968,-47.91
58.984,-55.23
59.000,-62.99
59.015,-71.01
59.031,-78.64
59.046,-84.7
59.062,-87.72
59.078,-86.25
59.093,-79.38
59.109,-67.19
59.125,-50.76
59.140,-31.96
59.156,-12.84
59.171,4.82
59.187,19.93
59.203,32.02
59.218,41.09
59.234,47.37
59.250,51.09
59.265,52.48
59.281,51.85
59.296,49.64
59.312,46.4
59.328,42.68
59.343,38.91
59.359,35.36
59.375,32.11
59.390,29.15
59.406,26.41
59.421,23.79
59.437,21.19
59.453,18.41
59.468,15.22
59.484,11.39
59.500,6.8
59.515,1.48
59.531,-4.4
59.546,-10.52
59.562,-16.58
59.578,-22.39
59.593,-27.94
59.609,-33.52
59.625,-39.55
59.640,-46.37
59.656,-54.07
59.671,-62.14
59.687,-69.4
59.703,-74.21
59.718,-74.93
59.734,-70.39
59.750,-60.34
59.765,-45.54
59.781,-27.54
59.796,-8.26
59.812,10.54
59.828,27.54
59.843,41.99
59.859,53.55
59.875,62.17
59.890,67.93
59.906,71.0
59.921,71.76
59.937,70.8
59.953,68.93
59.968,66.94
59.984,65.47
