timestamp,value
00.000,12.2
00.015,14.59
00.031,16.91
00.046,18.58
00.062,19.11
00.078,18.17
00.093,15.69
00.109,11.95
00.125,7.6
00.140,3.6
00.156,0.93
00.171,0.32
00.187,1.9
00.203,5.05
00.218,8.72
00.234,11.75
00.250,13.35
00.265,13.38
00.281,12.18
00.296,10.28
00.312,8.06
00.328,5.71
00.343,3.36
00.359,1.34
00.375,0.21
00.390,0.49
00.406,2.39
00.421,5.58
00.437,9.24
00.453,12.53
00.468,14.9
00.484,16.29
00.500,17.09
00.515,17.73
00.531,18.48
00.546,19.41
00.562,20.49
00.578,21.75
00.593,23.31
00.609,25.25
00.625,27.57
00.640,30.12
00.656,32.72
00.671,35.28
00.687,37.81
00.703,40.36
00.718,42.83
00.734,45.01
00.750,46.58
00.765,47.3
00.781,47.03
00.796,45.79
00.812,43.66
00.828,40.79
00.843,37.33
00.859,33.5
00.875,29.66
00.890,26.18
00.906,23.39
00.921,21.49
00.937,20.49
00.953,20.31
00.968,20.86
00.984,21.99
01.000,23.56
01.015,25.36
01.031,27.09
01.046,28.42
01.062,29.12
01.078,29.12
01.093,28.55
01.109,27.73
01.125,26.99
01.140,26.53
01.156,26.34
01.171,26.16
01.187,25.62
01.203,24.43
01.218,22.54
01.234,20.15
01.250,17.56
01.265,15.05
01.281,12.71
01.296,10.49
01.312,8.29
01.328,6.16
01.343,4.34
01.359,3.18
01.375,2.98
01.390,3.91
01.406,5.96
01.421,8.96
01.437,12.63
01.453,16.64
01.468,20.55
01.484,23.87
01.500,26.08
01.515,26.78
01.531,25.81
01.546,23.32
01.562,19.61
01.578,15.02
01.593,9.78
01.609,3.97
01.625,-2.43
01.640,-9.42
01.656,-16.81
01.671,-24.26
01.687,-31.41
01.703,-38.07
01.718,-44.23
01.734,-50.09
01.750,-55.76
01.765,-61.01
01.781,-65.22
01.796,-67.47
01.812,-66.96
01.828,-63.4
01.843,-57.22
01.859,-49.46
01.875,-41.39
01.890,-34.03
01.906,-27.91
01.921,-22.95
01.937,-18.7
01.953,-14.64
01.968,-10.41
01.984,-5.84
02.000,-1.01
02.015,3.88
02.031,8.48
02.046,12.36
02.062,15.08
02.078,16.35
02.093,16.16
02.109,14.9
02.125,13.24
02.140,11.97
02.156,11.68
02.171,12.6
02.187,14.51
02.203,16.9
02.218,19.2
02.234,21.04
02.250,22.33
02.265,23.29
02.281,24.25
02.296,25.51
02.312,27.11
02.328,28.81
02.343,30.04
02.359,30.14
02.375,28.55
02.390,25.05
02.406,19.82
02.421,13.38
02.437,6.33
02.453,-0.78
02.468,-7.55
02.484,-13.56
02.500,-18.34
02.515,-21.26
02.531,-21.83
02.546,-20.01
02.562,-16.38
02.578,-12.0
02.593,-8.06
02.609,-5.27
02.625,-3.73
02.640,-3.07
02.656,-2.9
02.671,-3.18
02.687,-4.32
02.703,-6.92
02.718,-11.33
02.734,-17.34
02.750,-24.24
02.765,-31.13
02.781,-37.34
02.796,-42.73
02.812,-47.53
02.828,-52.06
02.843,-56.44
02.859,-60.39
02.875,-63.38
02.890,-65.01
02.906,-65.25
02.921,-64.51
02.937,-63.51
02.953,-62.85
02.968,-62.78
02.984,-62.99
03.000,-62.91
03.015,-62.01
03.031,-60.22
03.046,-58.0
03.062,-56.13
03.078,-55.27
03.093,-55.64
03.109,-56.8
03.125,-57.84
03.140,-57.68
03.156,-55.39
03.171,-50.39
03.187,-42.48
03.203,-31.88
03.218,-19.15
03.234,-5.16
03.250,9.03
03.265,22.39
03.281,34.19
03.296,44.19
03.312,52.72
03.328,60.42
03.343,67.99
03.359,75.91
03.375,84.34
03.390,93.1
03.406,101.59
03.421,108.71
03.437,112.86
03.453,112.17
03.468,105.13
03.484,91.26
03.500,71.54
03.515,48.34
03.531,24.83
03.546,4.0
03.562,-12.06
03.578,-22.54
03.593,-27.73
03.609,-28.54
03.625,-26.07
03.640,-21.4
03.656,-15.47
03.671,-9.19
03.687,-3.44
03.703,1.08
03.718,3.88
03.734,4.81
03.750,3.91
03.765,1.28
03.781,-3.16
03.796,-9.74
03.812,-18.76
03.828,-30.21
03.843,-43.33
03.859,-56.6
03.875,-67.99
03.890,-75.66
03.906,-78.6
03.921,-76.81
03.937,-71.16
03.953,-62.85
03.968,-52.95
03.984,-42.34
04.000,-31.93
04.015,-22.77
04.031,-16.0
04.046,-12.39
04.062,-11.97
04.078,-13.77
04.093,-16.27
04.109,-17.99
04.125,-18.11
04.140,-16.72
04.156,-14.55
04.171,-12.5
04.187,-11.11
04.203,-10.42
04.218,-10.04
04.234,-9.51
04.250,-8.45
04.265,-6.81
04.281,-4.78
04.296,-2.76
04.312,-1.17
04.328,-0.34
04.343,-0.43
04.359,-1.34
04.375,-2.8
04.390,-4.42
04.406,-5.85
04.421,-6.93
04.437,-7.72
04.453,-8.52
04.468,-9.68
04.484,-11.47
04.500,-13.95
04.515,-16.94
04.531,-20.04
04.546,-22.71
04.562,-24.43
04.578,-24.73
04.593,-23.28
04.609,-19.96
04.625,-14.89
04.640,-8.41
04.656,-1.13
04.671,6.27
04.687,13.14
04.703,18.95
04.718,23.42
04.734,26.44
04.750,28.13
04.765,28.74
04.781,28.64
04.796,28.16
04.812,27.55
04.828,26.94
04.843,26.32
04.859,25.63
04.875,24.8
04.890,23.88
04.906,23.0
04.921,22.32
04.937,21.91
04.953,21.71
04.968,21.49
04.984,20.97
05.000,19.96
05.015,18.37
05.031,16.32
05.046,14.04
05.062,11.83
05.078,9.88
05.093,8.31
05.109,7.03
05.125,5.89
05.140,4.7
05.156,3.25
05.171,1.41
05.187,-0.9
05.203,-3.64
05.218,-6.63
05.234,-9.53
05.250,-11.88
05.265,-13.19
05.281,-13.08
05.296,-11.37
05.312,-8.25
05.328,-4.23
05.343,0.03
05.359,3.9
05.375,7.02
05.390,9.37
05.406,11.16
05.421,12.72
05.437,14.2
05.453,15.55
05.468,16.51
05.484,16.79
05.500,16.33
05.515,15.31
05.531,14.13
05.546,13.15
05.562,12.6
05.578,12.41
05.593,12.36
05.609,12.15
05.625,11.58
05.640,10.66
05.656,9.51
05.671,8.33
05.687,7.22
05.703,6.17
05.718,5.08
05.734,3.85
05.750,2.45
05.765,1.01
05.781,-0.28
05.796,-1.26
05.812,-1.89
05.828,-2.37
05.843,-3.04
05.859,-4.29
05.875,-6.37
05.890,-9.22
05.906,-12.45
05.921,-15.43
05.937,-17.44
05.953,-17.94
05.968,-16.69
05.984,-13.8
06.000,-9.75
06.015,-5.11
06.031,-0.41
06.046,4.02
06.062,8.08
06.078,11.83
06.093,15.28
06.109,18.34
06.125,20.83
06.140,22.55
06.156,23.42
06.171,23.58
06.187,23.36
06.203,23.11
06.218,23.09
06.234,23.32
06.250,23.63
06.265,23.76
06.281,23.55
06.296,22.94
06.312,22.04
06.328,21.04
06.343,20.09
06.359,19.25
06.375,18.49
06.390,17.8
06.406,17.18
06.421,16.73
06.437,16.55
06.453,16.7
06.468,17.08
06.484,17.51
06.500,17.75
06.515,17.61
06.531,17.1
06.546,16.32
06.562,15.44
06.578,14.57
06.593,13.78
06.609,13.03
06.625,12.31
06.640,11.64
06.656,11.13
06.671,10.91
06.687,11.04
06.703,11.5
06.718,12.17
06.734,12.86
06.750,13.41
06.765,13.72
06.781,13.78
06.796,13.7
06.812,13.63
06.828,13.69
06.843,13.9
06.859,14.19
06.875,14.4
06.890,14.43
06.906,14.31
06.921,14.18
06.937,14.21
06.953,14.51
06.968,15.02
06.984,15.56
07.000,15.94
07.015,15.99
07.031,15.65
07.046,14.87
07.062,13.51
07.078,11.41
07.093,8.5
07.109,4.9
07.125,1.01
07.140,-2.64
07.156,-5.68
07.171,-8.05
07.187,-10.02
07.203,-11.98
07.218,-14.25
07.234,-16.9
07.250,-19.77
07.265,-22.63
07.281,-25.26
07.296,-27.54
07.312,-29.31
07.328,-30.26
07.343,-29.98
07.359,-28.08
07.375,-24.5
07.390,-19.59
07.406,-14.03
07.421,-8.55
07.437,-3.71
07.453,0.4
07.468,3.95
07.484,7.15
07.500,9.98
07.515,12.1
07.531,12.98
07.546,12.24
07.562,10.01
07.578,7.01
07.593,4.35
07.609,3.06
07.625,3.69
07.640,6.09
07.656,9.58
07.671,13.3
07.687,16.53
07.703,18.91
07.718,20.35
07.734,20.84
07.750,20.29
07.765,18.53
07.781,15.43
07.796,10.99
07.812,5.42
07.828,-0.91
07.843,-7.6
07.859,-14.24
07.875,-20.5
07.890,-26.07
07.906,-30.76
07.921,-34.52
07.937,-37.46
07.953,-39.92
07.968,-42.27
07.984,-44.87
08.000,-47.84
08.015,-50.9
08.031,-53.42
08.046,-54.63
08.062,-53.81
08.078,-50.75
08.093,-45.7
08.109,-39.43
08.125,-32.88
08.140,-26.8
08.156,-21.6
08.171,-17.32
08.187,-13.73
08.203,-10.62
08.218,-7.9
08.234,-5.59
08.250,-3.7
08.265,-2.16
08.281,-0.76
08.296,0.81
08.312,2.87
08.328,5.53
08.343,8.66
08.359,11.83
08.375,14.43
08.390,15.9
08.406,16.07
08.421,15.15
08.437,13.75
08.453,12.58
08.468,12.07
08.484,12.24
08.500,12.65
08.515,12.74
08.531,12.13
08.546,10.85
08.562,9.35
08.578,8.19
08.593,7.81
08.609,8.19
08.625,8.93
08.640,9.45
08.656,9.28
08.671,8.32
08.687,6.76
08.703,4.99
08.718,3.36
08.734,2.06
08.750,1.14
08.765,0.68
08.781,0.95
08.796,2.24
08.812,4.84
08.828,8.75
08.843,13.67
08.859,19.0
08.875,24.16
08.890,28.7
08.906,32.47
08.921,35.56
08.937,38.16
08.953,40.45
08.968,42.53
08.984,44.48
09.000,46.36
09.015,48.21
09.031,50.02
09.046,51.61
09.062,52.66
09.078,52.72
09.093,51.33
09.109,48.12
09.125,42.87
09.140,35.63
09.156,26.67
09.171,16.52
09.187,5.82
09.203,-4.83
09.218,-14.99
09.234,-24.47
09.250,-33.34
09.265,-41.7
09.281,-49.54
09.296,-56.58
09.312,-62.24
09.328,-65.87
09.343,-66.97
09.359,-65.48
09.375,-61.82
09.390,-56.86
09.406,-51.63
09.421,-47.11
09.437,-43.98
09.453,-42.56
09.468,-42.77
09.484,-44.17
09.500,-46.06
09.515,-47.57
09.531,-47.78
09.546,-46.04
09.562,-42.15
09.578,-36.42
09.593,-29.63
09.609,-22.74
09.625,-16.61
09.640,-11.76
09.656,-8.32
09.671,-6.07
09.687,-4.68
09.703,-3.74
09.718,-2.86
09.734,-1.68
09.750,0.07
09.765,2.49
09.781,5.46
09.796,8.67
09.812,11.71
09.828,14.25
09.843,16.13
09.859,17.42
09.875,18.34
09.890,19.17
09.906,20.18
09.921,21.52
09.937,23.26
09.953,25.33
09.968,27.58
09.984,29.82
10.000,31.86
10.015,33.58
10.031,35.03
10.046,36.44
10.062,38.09
10.078,40.21
10.093,42.9
10.109,45.99
10.125,49.16
10.140,52.0
10.156,54.26
10.171,55.99
10.187,57.53
10.203,59.4
10.218,62.15
10.234,66.11
10.250,71.22
10.265,76.96
10.281,82.39
10.296,86.42
10.312,88.05
10.328,86.67
10.343,82.19
10.359,75.04
10.375,65.89
10.390,55.34
10.406,43.74
10.421,31.15
10.437,17.56
10.453,3.24
10.468,-11.04
10.484,-24.14
10.500,-34.81
10.515,-42.24
10.531,-46.36
10.546,-47.81
10.562,-47.58
10.578,-46.63
10.593,-45.37
10.609,-43.69
10.625,-41.15
10.640,-37.43
10.656,-32.56
10.671,-26.93
10.687,-21.01
10.703,-15.1
10.718,-9.22
10.734,-3.28
10.750,2.72
10.765,8.48
10.781,13.49
10.796,17.29
10.812,19.62
10.828,20.6
10.843,20.57
10.859,19.88
10.875,18.74
10.890,17.15
10.906,15.0
10.921,12.25
10.937,8.97
10.953,5.42
10.968,1.93
10.984,-1.24
11.000,-4.04
11.015,-6.58
11.031,-9.17
11.046,-12.08
11.062,-15.37
11.078,-18.75
11.093,-21.66
11.109,-23.46
11.125,-23.68
11.140,-22.25
11.156,-19.55
11.171,-16.28
11.187,-13.38
11.203,-11.83
11.218,-12.62
11.234,-16.54
11.250,-24.01
11.265,-34.87
11.281,-48.19
11.296,-62.39
11.312,-75.6
11.328,-86.11
11.343,-92.84
11.359,-95.58
11.375,-94.82
11.390,-91.48
11.406,-86.53
11.421,-80.65
11.437,-74.24
11.453,-67.42
11.468,-60.25
11.484,-52.83
11.500,-45.4
11.515,-38.3
11.531,-31.9
11.546,-26.46
11.562,-22.0
11.578,-18.28
11.593,-14.92
11.609,-11.54
11.625,-7.94
11.640,-4.22
11.656,-0.7
11.671,2.28
11.687,4.55
11.703,6.2
11.718,7.61
11.734,9.17
11.750,11.15
11.765,13.48
11.781,15.92
11.796,18.18
11.812,20.15
11.828,21.89
11.843,23.56
11.859,25.16
11.875,26.34
11.890,26.46
11.906,24.84
11.921,21.19
11.937,15.88
11.953,9.94
11.968,4.68
11.984,1.16
12.000,-0.16
12.015,0.39
12.031,1.93
12.046,3.4
12.062,3.97
12.078,3.3
12.093,1.52
12.109,-0.96
12.125,-3.63
12.140,-6.1
12.156,-8.15
12.171,-9.68
12.187,-10.72
12.203,-11.42
12.218,-11.99
12.234,-12.75
12.250,-14.05
12.265,-16.24
12.281,-19.48
12.296,-23.62
12.312,-28.13
12.328,-32.18
12.343,-34.93
12.359,-35.79
12.375,-34.67
12.390,-31.93
12.406,-28.22
12.421,-24.12
12.437,-19.84
12.453,-15.12
12.468,-9.26
12.484,-1.53
12.500,8.52
12.515,20.74
12.531,34.3
12.546,47.92
12.562,60.08
12.578,69.48
12.593,75.24
12.609,77.13
12.625,75.48
12.640,71.05
12.656,64.78
12.671,57.52
12.687,49.86
12.703,42.07
12.718,34.13
12.734,25.91
12.750,17.46
12.765,9.06
12.781,1.27
12.796,-5.32
12.812,-10.31
12.828,-13.74
12.843,-15.98
12.859,-17.55
12.875,-18.91
12.890,-20.29
12.906,-21.77
12.921,-23.39
12.937,-25.24
12.953,-27.47
12.968,-30.06
12.984,-32.7
13.000,-34.85
13.015,-35.83
13.031,-35.14
13.046,-32.74
13.062,-29.01
13.078,-24.58
13.093,-20.11
13.109,-16.02
13.125,-12.49
13.140,-9.52
13.156,-7.01
13.171,-4.84
13.187,-2.89
13.203,-1.01
13.218,0.98
13.234,3.24
13.250,5.81
13.265,8.6
13.281,11.44
13.296,14.19
13.312,16.74
13.328,19.06
13.343,21.1
13.359,22.8
13.375,24.06
13.390,24.8
13.406,25.14
13.421,25.34
13.437,25.76
13.453,26.66
13.468,28.15
13.484,30.07
13.500,32.12
13.515,34.0
13.531,35.48
13.546,36.53
13.562,37.34
13.578,38.26
13.593,39.73
13.609,42.06
13.625,45.25
13.640,48.89
13.656,52.19
13.671,54.29
13.687,54.57
13.703,52.89
13.718,49.58
13.734,45.19
13.750,40.18
13.765,34.82
13.781,29.16
13.796,23.19
13.812,17.03
13.828,10.91
13.843,5.09
13.859,-0.27
13.875,-5.17
13.890,-9.7
13.906,-13.9
13.921,-17.76
13.937,-21.25
13.953,-24.34
13.968,-27.11
13.984,-29.62
14.000,-31.97
14.015,-34.21
14.031,-36.37
14.046,-38.43
14.062,-40.4
14.078,-42.23
14.093,-43.82
14.109,-44.99
14.125,-45.62
14.140,-45.7
14.156,-45.39
14.171,-44.98
14.187,-44.79
14.203,-44.99
14.218,-45.56
14.234,-46.26
14.250,-46.85
14.265,-47.17
14.281,-47.31
14.296,-47.53
14.312,-48.12
14.328,-49.22
14.343,-50.69
14.359,-52.13
14.375,-52.97
14.390,-52.73
14.406,-51.11
14.421,-48.17
14.437,-44.19
14.453,-39.59
14.468,-34.78
14.484,-30.06
14.500,-25.59
14.515,-21.45
14.531,-17.68
14.546,-14.33
14.562,-11.37
14.578,-8.73
14.593,-6.27
14.609,-3.89
14.625,-1.62
14.640,0.4
14.656,1.92
14.671,2.75
14.687,2.88
14.703,2.52
14.718,2.12
14.734,2.13
14.750,2.91
14.765,4.66
14.781,7.37
14.796,10.84
14.812,14.78
14.828,18.87
14.843,22.77
14.859,26.21
14.875,28.98
14.890,30.98
14.906,32.16
14.921,32.54
14.937,32.11
14.953,30.95
14.968,29.16
14.984,26.82
15.000,24.03
15.015,20.82
15.031,17.18
15.046,13.06
15.062,8.52
15.078,3.65
15.093,-1.35
15.109,-6.27
15.125,-10.91
15.140,-15.13
15.156,-18.81
15.171,-21.81
15.187,-23.95
15.203,-25.08
15.218,-25.15
15.234,-24.29
15.250,-22.81
15.265,-21.01
15.281,-19.06
15.296,-16.93
15.312,-14.46
15.328,-11.48
15.343,-7.99
15.359,-4.18
15.375,-0.37
15.390,3.1
15.406,5.99
15.421,8.23
15.437,9.8
15.453,10.8
15.468,11.38
15.484,11.77
15.500,12.21
15.515,12.9
15.531,13.93
15.546,15.11
15.562,16.19
15.578,16.85
15.593,16.93
15.609,16.48
15.625,15.75
15.640,14.99
15.656,14.37
15.671,13.86
15.687,13.28
15.703,12.44
15.718,11.22
15.734,9.73
15.750,8.2
15.765,6.97
15.781,6.25
15.796,6.07
15.812,6.24
15.828,6.48
15.843,6.47
15.859,6.04
15.875,5.12
15.890,3.82
15.906,2.32
15.921,0.88
15.937,-0.28
15.953,-0.9
15.968,-0.86
15.984,-0.09
16.000,1.31
16.015,3.16
16.031,5.28
16.046,7.54
16.062,9.88
16.078,12.29
16.093,14.67
16.109,16.82
16.125,18.44
16.140,19.25
16.156,19.01
16.171,17.58
16.187,14.85
16.203,10.79
16.218,5.44
16.234,-0.94
16.250,-7.8
16.265,-14.34
16.281,-19.63
16.296,-22.93
16.312,-23.93
16.328,-22.78
16.343,-20.0
16.359,-16.28
16.375,-12.17
16.390,-8.06
16.406,-4.19
16.421,-0.79
16.437,1.87
16.453,3.46
16.468,3.8
16.484,2.91
16.500,1.14
16.515,-0.98
16.531,-2.97
16.546,-4.6
16.562,-5.96
16.578,-7.38
16.593,-9.16
16.609,-11.43
16.625,-14.05
16.640,-16.67
16.656,-18.92
16.671,-20.56
16.687,-21.55
16.703,-21.94
16.718,-21.74
16.734,-20.83
16.750,-18.95
16.765,-15.86
16.781,-11.45
16.796,-5.88
16.812,0.47
16.828,7.16
16.843,13.71
16.859,19.83
16.875,25.33
16.890,30.11
16.906,34.1
16.921,37.2
16.937,39.31
16.953,40.31
16.968,40.21
16.984,39.16
17.000,37.38
17.015,35.23
17.031,33.02
17.046,31.06
17.062,29.53
17.078,28.56
17.093,28.23
17.109,28.63
17.125,29.84
17.140,31.9
17.156,34.79
17.171,38.36
17.187,42.31
17.203,46.26
17.218,49.79
17.234,52.57
17.250,54.44
17.265,55.36
17.281,55.38
17.296,54.52
17.312,52.75
17.328,50.0
17.343,46.23
17.359,41.56
17.375,36.28
17.390,30.84
17.406,25.62
17.421,20.94
17.437,17.0
17.453,13.92
17.468,11.8
17.484,10.66
17.500,10.4
17.515,10.71
17.531,11.17
17.546,11.32
17.562,10.89
17.578,9.93
17.593,8.73
17.609,7.7
17.625,7.13
17.640,7.01
17.656,7.03
17.671,6.66
17.687,5.36
17.703,2.8
17.718,-1.04
17.734,-5.79
17.750,-10.81
17.765,-15.43
17.781,-19.14
17.796,-21.79
17.812,-23.59
17.828,-25.04
17.843,-26.61
17.859,-28.59
17.875,-30.99
17.890,-33.55
17.906,-35.93
17.921,-37.82
17.937,-39.09
17.953,-39.78
17.968,-40.05
17.984,-40.09
18.000,-40.03
18.015,-39.92
18.031,-39.71
18.046,-39.35
18.062,-38.87
18.078,-38.42
18.093,-38.24
18.109,-38.48
18.125,-39.14
18.140,-40.05
18.156,-40.92
18.171,-41.53
18.187,-41.77
18.203,-41.69
18.218,-41.37
18.234,-40.78
18.250,-39.75
18.265,-38.08
18.281,-35.61
18.296,-32.43
18.312,-28.83
18.328,-25.27
18.343,-22.16
18.359,-19.78
18.375,-18.19
18.390,-17.23
18.406,-16.68
18.421,-16.23
18.437,-15.74
18.453,-15.19
18.468,-14.66
18.484,-14.22
18.500,-13.82
18.515,-13.32
18.531,-12.55
18.546,-11.46
18.562,-10.2
18.578,-9.1
18.593,-8.5
18.609,-8.59
18.625,-9.31
18.640,-10.44
18.656,-11.69
18.671,-12.84
18.687,-13.79
18.703,-14.49
18.718,-14.92
18.734,-15.05
18.750,-14.84
18.765,-14.35
18.781,-13.71
18.796,-13.09
18.812,-12.64
18.828,-12.42
18.843,-12.43
18.859,-12.58
18.875,-12.79
18.890,-13.05
18.906,-13.26
18.921,-13.36
18.937,-13.18
18.953,-12.56
18.968,-11.41
18.984,-9.73
19.000,-7.68
19.015,-5.47
19.031,-3.35
19.046,-1.42
19.062,0.34
19.078,2.05
19.093,3.81
19.109,5.61
19.125,7.36
19.140,8.86
19.156,9.94
19.171,10.53
19.187,10.69
19.203,10.6
19.218,10.47
19.234,10.45
19.250,10.57
19.265,10.82
19.281,11.07
19.296,11.29
19.312,11.49
19.328,11.71
19.343,11.96
19.359,12.15
19.375,12.15
19.390,11.83
19.406,11.18
19.421,10.36
19.437,9.65
19.453,9.31
19.468,9.42
19.484,9.9
19.500,10.58
19.515,11.3
19.531,12.04
19.546,12.85
19.562,13.78
19.578,14.78
19.593,15.65
19.609,16.17
19.625,16.26
19.640,16.03
19.656,15.8
19.671,15.95
19.687,16.82
19.703,18.5
19.718,20.89
19.734,23.77
19.750,26.86
19.765,29.9
19.781,32.71
19.796,35.15
19.812,37.15
19.828,38.73
19.843,39.95
19.859,40.87
19.875,41.59
19.890,42.15
19.906,42.62
19.921,43.04
19.937,43.43
19.953,43.77
19.968,43.88
19.984,43.56
20.000,42.57
20.015,40.77
20.031,38.18
20.046,35.0
20.062,31.52
20.078,27.98
20.093,24.44
20.109,20.83
20.125,17.03
20.140,13.01
20.156,8.8
20.171,4.58
20.187,0.55
20.203,-3.16
20.218,-6.57
20.234,-9.86
20.250,-13.25
20.265,-16.95
20.281,-20.98
20.296,-25.18
20.312,-29.24
20.328,-32.83
20.343,-35.75
20.359,-37.94
20.375,-39.44
20.390,-40.32
20.406,-40.58
20.421,-40.04
20.437,-38.54
20.453,-36.0
20.468,-32.53
20.484,-28.4
20.500,-23.94
20.515,-19.42
20.531,-14.94
20.546,-10.52
20.562,-6.05
20.578,-1.43
20.593,3.41
20.609,8.41
20.625,13.44
20.640,18.3
20.656,22.78
20.671,26.74
20.687,30.27
20.703,33.65
20.718,37.22
20.734,41.16
20.750,45.28
20.765,49.08
20.781,51.87
20.796,53.06
20.812,52.4
20.828,49.98
20.843,46.14
20.859,41.34
20.875,36.08
20.890,30.83
20.906,26.0
20.921,21.95
20.937,18.84
20.953,16.66
20.968,15.26
20.984,14.5
21.000,14.19
21.015,14.22
21.031,14.46
21.046,14.71
21.062,14.77
21.078,14.55
21.093,14.25
21.109,14.22
21.125,14.85
21.140,16.32
21.156,18.66
21.171,21.75
21.187,25.47
21.203,29.68
21.218,34.02
21.234,37.78
21.250,40.01
21.265,40.2
21.281,38.8
21.296,37.54
21.312,38.75
21.328,44.17
21.343,53.77
21.359,65.47
21.375,75.83
21.390,81.55
21.406,80.95
21.421,74.48
21.437,64.32
21.453,53.19
21.468,43.41
21.484,36.39
21.500,32.79
21.515,32.81
21.531,36.38
21.546,43.02
21.562,51.71
21.578,60.95
21.593,69.04
21.609,74.58
21.625,76.8
21.640,75.59
21.656,71.43
21.671,65.18
21.687,57.82
21.703,50.19
21.718,42.74
21.734,35.39
21.750,27.53
21.765,18.36
21.781,7.25
21.796,-5.9
21.812,-20.6
21.828,-36.0
21.843,-51.41
21.859,-66.49
21.875,-81.42
21.890,-96.58
21.906,-112.12
21.921,-127.65
21.937,-142.15
21.953,-154.26
21.968,-162.69
21.984,-166.65
22.000,-166.08
22.015,-161.64
22.031,-154.4
22.046,-145.46
22.062,-135.67
22.078,-125.51
22.093,-115.27
22.109,-105.2
22.125,-95.71
22.140,-87.27
22.156,-80.3
22.171,-74.86
22.187,-70.71
22.203,-67.35
22.218,-64.3
22.234,-61.24
22.250,-58.15
22.265,-55.19
22.281,-52.54
22.296,-50.32
22.312,-48.57
22.328,-47.27
22.343,-46.46
22.359,-46.21
22.375,-46.54
22.390,-47.45
22.406,-48.84
22.421,-50.54
22.437,-52.38
22.453,-54.17
22.468,-55.73
22.484,-56.89
22.500,-57.49
22.515,-57.4
22.531,-56.66
22.546,-55.46
22.562,-54.09
22.578,-52.87
22.593,-51.93
22.609,-51.15
22.625,-50.16
22.640,-48.54
22.656,-45.92
22.671,-42.23
22.687,-37.63
22.703,-32.45
22.718,-27.03
22.734,-21.62
22.750,-16.41
22.765,-11.52
22.781,-7.07
22.796,-3.13
22.812,0.3
22.828,3.29
22.843,5.94
22.859,8.35
22.875,10.53
22.890,12.47
22.906,14.13
22.921,15.48
22.937,16.54
22.953,17.4
22.968,18.14
22.984,18.75
23.000,19.17
23.015,19.33
23.031,19.21
23.046,18.87
23.062,18.42
23.078,17.95
23.093,17.46
23.109,16.82
23.125,15.84
23.140,14.39
23.156,12.46
23.171,10.22
23.187,7.97
23.203,5.97
23.218,4.33
23.234,3.02
23.250,1.83
23.265,0.5
23.281,-1.15
23.296,-3.14
23.312,-5.35
23.328,-7.46
23.343,-9.1
23.359,-9.96
23.375,-9.85
23.390,-8.77
23.406,-6.89
23.421,-4.48
23.437,-1.79
23.453,0.97
23.468,3.72
23.484,6.39
23.500,8.92
23.515,11.26
23.531,13.33
23.546,15.09
23.562,16.51
23.578,17.61
23.593,18.46
23.609,19.15
23.625,19.73
23.640,20.26
23.656,20.79
23.671,21.36
23.687,22.03
23.703,22.82
23.718,23.76
23.734,24.82
23.750,25.92
23.765,26.91
23.781,27.65
23.796,28.04
23.812,28.02
23.828,27.73
23.843,27.36
23.859,27.12
23.875,27.12
23.890,27.27
23.906,27.38
23.921,27.19
23.937,26.53
23.953,25.39
23.968,23.92
23.984,22.33
24.000,20.78
24.015,19.32
24.031,17.9
24.046,16.52
24.062,15.33
24.078,14.63
24.093,14.86
24.109,16.32
24.125,19.0
24.140,22.55
24.156,26.37
24.171,29.93
24.187,32.9
24.203,35.25
24.218,37.09
24.234,38.47
24.250,39.23
24.265,39.03
24.281,37.57
24.296,34.81
24.312,31.08
24.328,26.95
24.343,23.0
24.359,19.52
24.375,16.39
24.390,13.19
24.406,9.42
24.421,4.83
24.437,-0.45
24.453,-5.96
24.468,-11.02
24.484,-15.08
24.500,-17.83
24.515,-19.3
24.531,-19.67
24.546,-19.14
24.562,-17.81
24.578,-15.7
24.593,-12.9
24.609,-9.75
24.625,-6.86
24.640,-4.92
24.656,-4.47
24.671,-5.65
24.687,-8.15
24.703,-11.39
24.718,-14.76
24.734,-17.83
24.750,-20.52
24.765,-22.94
24.781,-25.22
24.796,-27.26
24.812,-28.75
24.828,-29.22
24.843,-28.34
24.859,-26.09
24.875,-22.85
24.890,-19.32
24.906,-16.29
24.921,-14.33
24.937,-13.69
24.953,-14.22
24.968,-15.53
24.984,-17.14
25.000,-18.62
25.015,-19.66
25.031,-20.03
25.046,-19.6
25.062,-18.24
25.078,-15.89
25.093,-12.63
25.109,-8.66
25.125,-4.33
25.140,-0.07
25.156,3.7
25.171,6.64
25.187,8.65
25.203,9.84
25.218,10.52
25.234,11.04
25.250,11.73
25.265,12.64
25.281,13.58
25.296,14.23
25.312,14.28
25.328,13.63
25.343,12.4
25.359,10.9
25.375,9.32
25.390,7.73
25.406,5.98
25.421,3.82
25.437,1.16
25.453,-1.97
25.468,-5.34
25.484,-8.74
25.500,-12.03
25.515,-15.23
25.531,-18.33
25.546,-21.2
25.562,-23.48
25.578,-24.71
25.593,-24.5
25.609,-22.77
25.625,-19.79
25.640,-16.07
25.656,-12.22
25.671,-8.6
25.687,-5.35
25.703,-2.34
25.718,0.58
25.734,3.48
25.750,6.31
25.765,8.92
25.781,11.21
25.796,13.18
25.812,14.96
25.828,16.68
25.843,18.45
25.859,20.2
25.875,21.73
25.890,22.83
25.906,23.26
25.921,22.96
25.937,22.0
25.953,20.6
25.968,19.07
25.984,17.64
26.000,16.44
26.015,15.45
26.031,14.53
26.046,13.52
26.062,12.38
26.078,11.19
26.093,10.09
26.109,9.2
26.125,8.53
26.140,7.87
26.156,6.87
26.171,5.19
26.187,2.57
26.203,-1.0
26.218,-5.3
26.234,-9.97
26.250,-14.64
26.265,-19.0
26.281,-22.81
26.296,-25.81
26.312,-27.72
26.328,-28.21
26.343,-27.05
26.359,-24.27
26.375,-20.22
26.390,-15.51
26.406,-10.82
26.421,-6.73
26.437,-3.51
26.453,-1.21
26.468,0.27
26.484,1.08
26.500,1.31
26.515,1.04
26.531,0.39
26.546,-0.47
26.562,-1.34
26.578,-2.05
26.593,-2.49
26.609,-2.62
26.625,-2.44
26.640,-2.06
26.656,-1.63
26.671,-1.39
26.687,-1.55
26.703,-2.21
26.718,-3.38
26.734,-4.88
26.750,-6.45
26.765,-7.86
26.781,-8.99
26.796,-9.8
26.812,-10.32
26.828,-10.57
26.843,-10.49
26.859,-10.02
26.875,-9.2
26.890,-8.2
26.906,-7.33
26.921,-6.96
26.937,-7.29
26.953,-8.24
26.968,-9.42
26.984,-10.22
27.000,-10.06
27.015,-8.59
27.031,-5.82
27.046,-2.1
27.062,2.02
27.078,6.08
27.093,9.74
27.109,12.88
27.125,15.56
27.140,17.82
27.156,19.7
27.171,21.16
27.187,22.13
27.203,22.59
27.218,22.63
27.234,22.35
27.250,21.88
27.265,21.27
27.281,20.45
27.296,19.29
27.312,17.73
27.328,15.89
27.343,14.05
27.359,12.61
27.375,11.79
27.390,11.61
27.406,11.82
27.421,12.05
27.437,11.99
27.453,11.53
27.468,10.69
27.484,9.58
27.500,8.29
27.515,6.84
27.531,5.19
27.546,3.36
27.562,1.37
27.578,-0.72
27.593,-2.84
27.609,-4.97
27.625,-7.07
27.640,-9.07
27.656,-10.94
27.671,-12.65
27.687,-14.23
27.703,-15.64
27.718,-16.76
27.734,-17.28
27.750,-16.89
27.765,-15.33
27.781,-12.66
27.796,-9.2
27.812,-5.5
27.828,-2.09
27.843,0.78
27.859,3.09
27.875,5.06
27.890,6.91
27.906,8.71
27.921,10.35
27.937,11.65
27.953,12.51
27.968,12.98
27.984,13.3
28.000,13.68
28.015,14.29
28.031,15.04
28.046,15.72
28.062,16.1
28.078,16.01
28.093,15.47
28.109,14.6
28.125,13.57
28.140,12.43
28.156,11.16
28.171,9.7
28.187,7.98
28.203,6.05
28.218,4.05
28.234,2.16
28.250,0.5
28.265,-0.86
28.281,-1.97
28.296,-2.92
28.312,-3.88
28.328,-5.02
28.343,-6.48
28.359,-8.36
28.375,-10.64
28.390,-13.24
28.406,-15.96
28.421,-18.55
28.437,-20.76
28.453,-22.28
28.468,-22.88
28.484,-22.39
28.500,-20.85
28.515,-18.45
28.531,-15.53
28.546,-12.43
28.562,-9.4
28.578,-6.54
28.593,-3.81
28.609,-1.15
28.625,1.46
28.640,3.87
28.656,5.84
28.671,7.14
28.687,7.64
28.703,7.42
28.718,6.7
28.734,5.79
28.750,4.96
28.765,4.36
28.781,3.96
28.796,3.64
28.812,3.25
28.828,2.75
28.843,2.19
28.859,1.72
28.875,1.47
28.890,1.46
28.906,1.57
28.921,1.59
28.937,1.35
28.953,0.78
28.968,-0.02
28.984,-0.89
29.000,-1.68
29.015,-2.38
29.031,-3.11
29.046,-4.0
29.062,-5.13
29.078,-6.44
29.093,-7.83
29.109,-9.17
29.125,-10.43
29.140,-11.66
29.156,-12.94
29.171,-14.27
29.187,-15.52
29.203,-16.42
29.218,-16.67
29.234,-16.04
29.250,-14.51
29.265,-12.3
29.281,-9.7
29.296,-7.1
29.312,-4.76
29.328,-2.8
29.343,-1.22
29.359,0.07
29.375,1.13
29.390,2.04
29.406,2.81
29.421,3.46
29.437,4.03
29.453,4.53
29.468,4.95
29.484,5.26
29.500,5.38
29.515,5.24
29.531,4.81
29.546,4.12
29.562,3.28
29.578,2.48
29.593,1.95
29.609,1.86
29.625,2.34
29.640,3.3
29.656,4.5
29.671,5.56
29.687,6.16
29.703,6.08
29.718,5.36
29.734,4.21
29.750,2.97
29.765,1.96
29.781,1.34
29.796,1.12
29.812,1.13
29.828,1.16
29.843,1.05
29.859,0.82
29.875,0.62
29.890,0.69
29.906,1.27
29.921,2.49
29.937,4.35
29.953,6.81
29.968,9.77
29.984,13.16
30.000,16.9
30.015,20.84
30.031,24.75
30.046,28.37
30.062,31.46
30.078,33.87
30.093,35.53
30.109,36.48
30.125,36.77
30.140,36.48
30.156,35.68
30.171,34.45
30.187,32.92
30.203,31.24
30.218,29.57
30.234,28.11
30.250,27.02
30.265,26.39
30.281,26.2
30.296,26.33
30.312,26.56
30.328,26.69
30.343,26.59
30.359,26.23
30.375,25.69
30.390,25.04
30.406,24.31
30.421,23.58
30.437,22.9
30.453,22.33
30.468,21.89
30.484,21.55
30.500,21.17
30.515,20.58
30.531,19.61
30.546,18.15
30.562,16.24
30.578,13.92
30.593,11.34
30.609,8.66
30.625,6.04
30.640,3.65
30.656,1.63
30.671,0.01
30.687,-1.25
30.703,-2.3
30.718,-3.31
30.734,-4.44
30.750,-5.76
30.765,-7.28
30.781,-8.9
30.796,-10.49
30.812,-11.88
30.828,-12.91
30.843,-13.51
30.859,-13.72
30.875,-13.73
30.890,-13.76
30.906,-14.06
30.921,-14.8
30.937,-16.0
30.953,-17.54
30.968,-19.19
30.984,-20.76
31.000,-22.07
31.015,-23.06
31.031,-23.75
31.046,-24.23
31.062,-24.6
31.078,-24.97
31.093,-25.45
31.109,-26.11
31.125,-26.97
31.140,-27.95
31.156,-28.93
31.171,-29.78
31.187,-30.42
31.203,-30.82
31.218,-31.03
31.234,-31.16
31.250,-31.31
31.265,-31.64
31.281,-32.23
31.296,-33.1
31.312,-34.1
31.328,-34.92
31.343,-35.1
31.359,-34.25
31.375,-32.13
31.390,-28.84
31.406,-24.73
31.421,-20.24
31.437,-15.79
31.453,-11.69
31.468,-8.09
31.484,-5.11
31.500,-2.8
31.515,-1.17
31.531,-0.24
31.546,0.07
31.562,-0.14
31.578,-0.7
31.593,-1.45
31.609,-2.18
31.625,-2.72
31.640,-2.93
31.656,-2.74
31.671,-2.2
31.687,-1.48
31.703,-0.77
31.718,-0.25
31.734,0.01
31.750,0.14
31.765,0.3
31.781,0.68
31.796,1.34
31.812,2.21
31.828,3.13
31.843,3.89
31.859,4.38
31.875,4.58
31.890,4.57
31.906,4.46
31.921,4.25
31.937,3.88
31.953,3.24
31.968,2.33
31.984,1.31
32.000,0.48
32.015,0.18
32.031,0.6
32.046,1.66
32.062,3.09
32.078,4.53
32.093,5.75
32.109,6.81
32.125,7.98
32.140,9.67
32.156,12.15
32.171,15.47
32.187,19.4
32.203,23.58
32.218,27.65
32.234,31.38
32.250,34.7
32.265,37.65
32.281,40.25
32.296,42.51
32.312,44.33
32.328,45.61
32.343,46.3
32.359,46.41
32.375,46.09
32.390,45.48
32.406,44.67
32.421,43.6
32.437,42.15
32.453,40.12
32.468,37.45
32.484,34.3
32.500,30.98
32.515,27.87
32.531,25.23
32.546,23.09
32.562,21.26
32.578,19.44
32.593,17.44
32.609,15.29
32.625,13.24
32.640,11.54
32.656,10.34
32.671,9.55
32.687,8.87
32.703,7.97
32.718,6.71
32.734,5.13
32.750,3.45
32.765,1.95
32.781,0.74
32.796,-0.17
32.812,-0.93
32.828,-1.69
32.843,-2.55
32.859,-3.52
32.875,-4.58
32.890,-5.68
32.906,-6.82
32.921,-8.03
32.937,-9.31
32.953,-10.64
32.968,-11.99
32.984,-13.24
33.000,-14.28
33.015,-15.01
33.031,-15.39
33.046,-15.49
33.062,-15.46
33.078,-15.54
33.093,-15.91
33.109,-16.65
33.125,-17.69
33.140,-18.86
33.156,-19.97
33.171,-20.95
33.187,-21.82
33.203,-22.69
33.218,-23.64
33.234,-24.69
33.250,-25.83
33.265,-27.03
33.281,-28.32
33.296,-29.75
33.312,-31.31
33.328,-32.83
33.343,-33.98
33.359,-34.36
33.375,-33.57
33.390,-31.31
33.406,-27.52
33.421,-22.34
33.437,-16.15
33.453,-9.52
33.468,-3.08
33.484,2.62
33.500,7.26
33.515,10.88
33.531,13.79
33.546,16.41
33.562,19.07
33.578,21.84
33.593,24.56
33.609,27.04
33.625,29.08
33.640,30.68
33.656,31.95
33.671,33.07
33.687,34.1
33.703,35.03
33.718,35.78
33.734,36.17
33.750,35.98
33.765,34.9
33.781,32.47
33.796,28.15
33.812,21.51
33.828,12.38
33.843,1.13
33.859,-11.37
33.875,-23.84
33.890,-35.04
33.906,-44.05
33.921,-50.53
33.937,-54.66
33.953,-56.88
33.968,-57.68
33.984,-57.34
34.000,-55.96
34.015,-53.58
34.031,-50.32
34.046,-46.41
34.062,-42.1
34.078,-37.58
34.093,-32.97
34.109,-28.23
34.125,-23.31
34.140,-18.25
34.156,-13.16
34.171,-8.29
34.187,-3.88
34.203,-0.13
34.218,2.87
34.234,5.12
34.250,6.71
34.265,7.74
34.281,8.28
34.296,8.33
34.312,7.86
34.328,6.84
34.343,5.32
34.359,3.41
34.375,1.36
34.390,-0.57
34.406,-2.2
34.421,-3.48
34.437,-4.54
34.453,-5.61
34.468,-6.9
34.484,-8.51
34.500,-10.35
34.515,-12.21
34.531,-13.83
34.546,-15.06
34.562,-15.96
34.578,-16.75
34.593,-17.75
34.609,-19.22
34.625,-21.22
34.640,-23.55
34.656,-25.84
34.671,-27.64
34.687,-28.66
34.703,-28.85
34.718,-28.39
34.734,-27.57
34.750,-26.59
34.765,-25.47
34.781,-24.08
34.796,-22.21
34.812,-19.86
34.828,-17.25
34.843,-14.75
34.859,-12.72
34.875,-11.28
34.890,-10.25
34.906,-9.26
34.921,-7.91
34.937,-5.93
34.953,-3.27
34.968,-0.06
34.984,3.48
35.000,7.1
35.015,10.58
35.031,13.73
35.046,16.39
35.062,18.48
35.078,20.0
35.093,21.02
35.109,21.65
35.125,21.99
35.140,22.07
35.156,21.91
35.171,21.5
35.187,20.9
35.203,20.24
35.218,19.66
35.234,19.23
35.250,18.93
35.265,18.7
35.281,18.42
35.296,18.04
35.312,17.6
35.328,17.16
35.343,16.74
35.359,16.32
35.375,15.76
35.390,14.97
35.406,13.88
35.421,12.5
35.437,10.92
35.453,9.21
35.468,7.49
35.484,5.92
35.500,4.59
35.515,3.57
35.531,2.87
35.546,2.4
35.562,2.01
35.578,1.59
35.593,1.09
35.609,0.58
35.625,0.2
35.640,0.11
35.656,0.42
35.671,1.13
35.687,2.17
35.703,3.34
35.718,4.45
35.734,5.24
35.750,5.54
35.765,5.24
35.781,4.37
35.796,3.12
35.812,1.71
35.828,0.43
35.843,-0.42
35.859,-0.53
35.875,0.38
35.890,2.52
35.906,5.83
35.921,9.92
35.937,14.17
35.953,17.83
35.968,20.36
35.984,21.46
36.000,21.2
36.015,19.78
36.031,17.51
36.046,14.76
36.062,11.97
36.078,9.74
36.093,8.65
36.109,9.05
36.125,10.89
36.140,13.7
36.156,16.79
36.171,19.56
36.187,21.68
36.203,23.13
36.218,24.02
36.234,24.48
36.250,24.56
36.265,24.27
36.281,23.63
36.296,22.67
36.312,21.3
36.328,19.41
36.343,16.87
36.359,13.76
36.375,10.38
36.390,7.28
36.406,4.89
36.421,3.41
36.437,2.63
36.453,2.1
36.468,1.34
36.484,0.13
36.500,-1.46
36.515,-3.21
36.531,-4.86
36.546,-6.29
36.562,-7.54
36.578,-8.76
36.593,-10.05
36.609,-11.45
36.625,-12.87
36.640,-14.22
36.656,-15.44
36.671,-16.56
36.687,-17.74
36.703,-19.21
36.718,-21.21
36.734,-23.93
36.750,-27.34
36.765,-31.19
36.781,-35.02
36.796,-38.23
36.812,-40.25
36.828,-40.71
36.843,-39.51
36.859,-36.87
36.875,-33.24
36.890,-29.13
36.906,-24.98
36.921,-21.11
36.937,-17.62
36.953,-14.46
36.968,-11.55
36.984,-8.74
37.000,-5.86
37.015,-2.78
37.031,0.64
37.046,4.44
37.062,8.54
37.078,12.75
37.093,16.81
37.109,20.53
37.125,23.92
37.140,27.19
37.156,30.77
37.171,35.07
37.187,40.29
37.203,46.14
37.218,51.81
37.234,56.16
37.250,58.07
37.265,56.94
37.281,52.9
37.296,46.79
37.312,39.69
37.328,32.54
37.343,25.73
37.359,19.03
37.375,11.93
37.390,3.96
37.406,-4.97
37.421,-14.63
37.437,-24.55
37.453,-34.25
37.468,-43.34
37.484,-51.47
37.500,-58.27
37.515,-63.34
37.531,-66.37
37.546,-67.2
37.562,-65.97
37.578,-63.11
37.593,-59.21
37.609,-54.91
37.625,-50.8
37.640,-47.2
37.656,-44.21
37.671,-41.69
37.687,-39.35
37.703,-36.91
37.718,-34.27
37.734,-31.56
37.750,-28.97
37.765,-26.68
37.781,-24.64
37.796,-22.57
37.812,-20.18
37.828,-17.25
37.843,-13.85
37.859,-10.37
37.875,-7.26
37.890,-4.82
37.906,-3.11
37.921,-1.92
37.937,-0.92
37.953,0.07
37.968,1.08
37.984,1.93
38.000,2.45
38.015,2.58
38.031,2.48
38.046,2.38
38.062,2.49
38.078,2.81
38.093,3.18
38.109,3.48
38.125,3.8
38.140,4.53
38.156,6.24
38.171,9.3
38.187,13.58
38.203,18.34
38.218,22.45
38.234,24.77
38.250,24.73
38.265,22.48
38.281,18.88
38.296,15.04
38.312,11.91
38.328,9.95
38.343,9.21
38.359,9.46
38.375,10.47
38.390,12.15
38.406,14.5
38.421,17.49
38.437,20.94
38.453,24.48
38.468,27.6
38.484,29.88
38.500,31.14
38.515,31.56
38.531,31.65
38.546,32.11
38.562,33.52
38.578,36.11
38.593,39.7
38.609,43.75
38.625,47.63
38.640,50.97
38.656,53.74
38.671,56.29
38.687,58.93
38.703,61.76
38.718,64.64
38.734,67.45
38.750,70.33
38.765,73.66
38.781,77.74
38.796,82.31
38.812,86.38
38.828,88.43
38.843,87.14
38.859,82.06
38.875,73.9
38.890,64.27
38.906,54.92
38.921,46.99
38.937,40.78
38.953,35.86
38.968,31.68
38.984,28.01
39.000,25.14
39.015,23.64
39.031,23.91
39.046,25.93
39.062,29.12
39.078,32.47
39.093,34.95
39.109,35.83
39.125,34.86
39.140,32.31
39.156,28.74
39.171,24.76
39.187,20.79
39.203,16.92
39.218,12.92
39.234,8.37
39.250,2.86
39.265,-3.85
39.281,-11.69
39.296,-20.35
39.312,-29.37
39.328,-38.32
39.343,-46.94
39.359,-55.16
39.375,-62.91
39.390,-70.1
39.406,-76.47
39.421,-81.62
39.437,-85.19
39.453,-87.0
39.468,-87.12
39.484,-85.86
39.500,-83.61
39.515,-80.71
39.531,-77.35
39.546,-73.64
39.562,-69.64
39.578,-65.55
39.593,-61.67
39.609,-58.36
39.625,-55.92
39.640,-54.41
39.656,-53.71
39.671,-53.51
39.687,-53.49
39.703,-53.38
39.718,-53.03
39.734,-52.41
39.750,-51.55
39.765,-50.47
39.781,-49.16
39.796,-47.6
39.812,-45.71
39.828,-43.41
39.843,-40.61
39.859,-37.27
39.875,-33.38
39.890,-28.92
39.906,-23.87
39.921,-18.13
39.937,-11.68
39.953,-4.64
39.968,2.66
39.984,9.64
40.000,15.65
40.015,20.11
40.031,22.72
40.046,23.57
40.062,23.06
40.078,21.75
40.093,20.22
40.109,18.89
40.125,18.01
40.140,17.63
40.156,17.71
40.171,18.14
40.187,18.78
40.203,19.48
40.218,20.08
40.234,20.45
40.250,20.57
40.265,20.54
40.281,20.51
40.296,20.67
40.312,21.18
40.328,22.07
40.343,23.25
40.359,24.49
40.375,25.57
40.390,26.31
40.406,26.71
40.421,26.91
40.437,27.12
40.453,27.38
40.468,27.43
40.484,26.71
40.500,24.53
40.515,20.37
40.531,14.11
40.546,6.13
40.562,-2.83
40.578,-11.87
40.593,-20.08
40.609,-26.72
40.625,-31.22
40.640,-33.17
40.656,-32.5
40.671,-29.42
40.687,-24.56
40.703,-18.83
40.718,-13.22
40.734,-8.63
40.750,-5.75
40.765,-4.96
40.781,-6.3
40.796,-9.41
40.812,-13.64
40.828,-18.1
40.843,-21.99
40.859,-24.74
40.875,-26.14
40.890,-26.26
40.906,-25.32
40.921,-23.58
40.937,-21.31
40.953,-18.8
40.968,-16.38
40.984,-14.43
41.000,-13.18
41.015,-12.63
41.031,-12.48
41.046,-12.29
41.062,-11.66
41.078,-10.42
41.093,-8.69
41.109,-6.81
41.125,-5.16
41.140,-4.07
41.156,-3.67
41.171,-3.92
41.187,-4.63
41.203,-5.6
41.218,-6.66
41.234,-7.76
41.250,-8.94
41.265,-10.25
41.281,-11.73
41.296,-13.36
41.312,-15.06
41.328,-16.75
41.343,-18.31
41.359,-19.53
41.375,-20.15
41.390,-19.88
41.406,-18.5
41.421,-16.13
41.437,-13.22
41.453,-10.53
41.468,-8.85
41.484,-8.67
41.500,-10.02
41.515,-12.51
41.531,-15.54
41.546,-18.56
41.562,-21.23
41.578,-23.46
41.593,-25.28
41.609,-26.73
41.625,-27.75
41.640,-28.21
41.656,-27.92
41.671,-26.75
41.687,-24.62
41.703,-21.66
41.718,-18.05
41.734,-14.13
41.750,-10.28
41.765,-6.79
41.781,-3.9
41.796,-1.65
41.812,-0.02
41.828,1.12
41.843,1.83
41.859,2.22
41.875,2.38
41.890,2.45
41.906,2.64
41.921,3.1
41.937,3.9
41.953,4.96
41.968,6.04
41.984,6.85
42.000,7.23
42.015,7.18
42.031,6.87
42.046,6.56
42.062,6.39
42.078,6.32
42.093,6.24
42.109,6.05
42.125,5.85
42.140,5.98
42.156,6.8
42.171,8.61
42.187,11.45
42.203,15.13
42.218,19.28
42.234,23.53
42.250,27.54
42.265,31.06
42.281,33.85
42.296,35.73
42.312,36.55
42.328,36.31
42.343,35.14
42.359,33.36
42.375,31.36
42.390,29.5
42.406,28.1
42.421,27.35
42.437,27.35
42.453,28.12
42.468,29.57
42.484,31.51
42.500,33.73
42.515,36.0
42.531,38.12
42.546,40.01
42.562,41.61
42.578,42.85
42.593,43.64
42.609,43.85
42.625,43.34
42.640,42.13
42.656,40.31
42.671,38.06
42.687,35.5
42.703,32.62
42.718,29.29
42.734,25.31
42.750,20.57
42.765,15.15
42.781,9.31
42.796,3.42
42.812,-2.23
42.828,-7.49
42.843,-12.39
42.859,-17.02
42.875,-21.39
42.890,-25.31
42.906,-28.43
42.921,-30.4
42.937,-31.03
42.953,-30.39
42.968,-28.84
42.984,-26.83
43.000,-24.74
43.015,-22.82
43.031,-21.09
43.046,-19.48
43.062,-17.91
43.078,-16.41
43.093,-15.04
43.109,-13.86
43.125,-12.97
43.140,-12.34
43.156,-11.87
43.171,-11.38
43.187,-10.63
43.203,-9.42
43.218,-7.7
43.234,-5.57
43.250,-3.31
43.265,-1.3
43.281,0.08
43.296,0.59
43.312,0.24
43.328,-0.77
43.343,-2.14
43.359,-3.59
43.375,-5.02
43.390,-6.49
43.406,-8.11
43.421,-9.96
43.437,-11.96
43.453,-13.95
43.468,-15.7
43.484,-17.13
43.500,-18.31
43.515,-19.34
43.531,-20.36
43.546,-21.33
43.562,-22.16
43.578,-22.75
43.593,-23.14
43.609,-23.54
43.625,-24.31
43.640,-25.75
43.656,-27.95
43.671,-30.67
43.687,-33.42
43.703,-35.45
43.718,-36.12
43.734,-34.98
43.750,-32.03
43.765,-27.69
43.781,-22.64
43.796,-17.54
43.812,-12.88
43.828,-8.76
43.843,-5.01
43.859,-1.39
43.875,2.26
43.890,5.81
43.906,8.94
43.921,11.22
43.937,12.3
43.953,12.08
43.968,10.76
43.984,8.72
44.000,6.45
44.015,4.45
44.031,3.11
44.046,2.7
44.062,3.34
44.078,4.94
44.093,7.25
44.109,9.87
44.125,12.31
44.140,14.13
44.156,15.07
44.171,15.13
44.187,14.49
44.203,13.45
44.218,12.24
44.234,10.93
44.250,9.5
44.265,7.86
44.281,6.02
44.296,4.08
44.312,2.26
44.328,0.73
44.343,-0.49
44.359,-1.56
44.375,-2.82
44.390,-4.63
44.406,-7.21
44.421,-10.53
44.437,-14.18
44.453,-17.54
44.468,-19.87
44.484,-20.66
44.500,-19.77
44.515,-17.46
44.531,-14.28
44.546,-10.77
44.562,-7.3
44.578,-3.99
44.593,-0.79
44.609,2.32
44.625,5.24
44.640,7.73
44.656,9.52
44.671,10.48
44.687,10.66
44.703,10.32
44.718,9.73
44.734,9.05
44.750,8.26
44.765,7.2
44.781,5.65
44.796,3.53
44.812,0.96
44.828,-1.69
44.843,-4.02
44.859,-5.74
44.875,-6.83
44.890,-7.59
44.906,-8.4
44.921,-9.56
44.937,-11.17
44.953,-13.08
44.968,-15.0
44.984,-16.73
45.000,-18.27
45.015,-19.73
45.031,-21.27
45.046,-22.9
45.062,-24.51
45.078,-25.95
45.093,-27.11
45.109,-28.06
45.125,-28.92
45.140,-29.76
45.156,-30.48
45.171,-30.71
45.187,-29.99
45.203,-27.87
45.218,-24.19
45.234,-19.16
45.250,-13.32
45.265,-7.37
45.281,-1.99
45.296,2.41
45.312,5.74
45.328,8.23
45.343,10.27
45.359,12.24
45.375,14.34
45.390,16.58
45.406,18.93
45.421,21.4
45.437,24.1
45.453,27.2
45.468,30.8
45.484,34.75
45.500,38.62
45.515,41.85
45.531,43.96
45.546,44.7
45.562,44.15
45.578,42.57
45.593,40.19
45.609,37.15
45.625,33.45
45.640,29.04
45.656,24.07
45.671,18.77
45.687,13.48
45.703,8.5
45.718,3.99
45.734,-0.05
45.750,-3.68
45.765,-6.98
45.781,-10.07
45.796,-13.06
45.812,-16.16
45.828,-19.57
45.843,-23.32
45.859,-27.21
45.875,-30.73
45.890,-33.18
45.906,-33.9
45.921,-32.54
45.937,-29.09
45.953,-23.98
45.968,-17.84
45.984,-11.31
46.000,-4.94
46.015,0.89
46.031,5.98
46.046,10.29
46.062,13.85
46.078,16.75
46.093,19.15
46.109,21.13
46.125,22.75
46.140,24.05
46.156,25.05
46.171,25.78
46.187,26.24
46.203,26.38
46.218,26.07
46.234,25.17
46.250,23.65
46.265,21.66
46.281,19.52
46.296,17.6
46.312,16.11
46.328,15.03
46.343,14.17
46.359,13.26
46.375,12.18
46.390,10.93
46.406,9.58
46.421,8.19
46.437,6.65
46.453,4.82
46.468,2.59
46.484,-0.05
46.500,-3.04
46.515,-6.29
46.531,-9.66
46.546,-12.99
46.562,-15.92
46.578,-17.99
46.593,-18.69
46.609,-17.66
46.625,-14.98
46.640,-11.22
46.656,-7.26
46.671,-4.03
46.687,-2.16
46.703,-1.77
46.718,-2.51
46.734,-3.77
46.750,-4.94
46.765,-5.67
46.781,-5.79
46.796,-5.33
46.812,-4.31
46.828,-2.77
46.843,-0.66
46.859,1.9
46.875,4.64
46.890,7.1
46.906,8.77
46.921,9.29
46.937,8.53
46.953,6.65
46.968,4.02
46.984,1.07
47.000,-1.86
47.015,-4.56
47.031,-6.94
47.046,-9.09
47.062,-11.12
47.078,-13.15
47.093,-15.27
47.109,-17.5
47.125,-19.82
47.140,-22.19
47.156,-24.57
47.171,-26.92
47.187,-29.24
47.203,-31.52
47.218,-33.74
47.234,-35.86
47.250,-37.83
47.265,-39.63
47.281,-41.19
47.296,-42.3
47.312,-42.61
47.328,-41.72
47.343,-39.32
47.359,-35.41
47.375,-30.35
47.390,-24.86
47.406,-19.69
47.421,-15.3
47.437,-11.65
47.453,-8.25
47.468,-4.57
47.484,-0.32
47.500,4.28
47.515,8.54
47.531,11.79
47.546,13.65
47.562,14.31
47.578,14.33
47.593,14.43
47.609,15.1
47.625,16.47
47.640,18.38
47.656,20.49
47.671,22.56
47.687,24.5
47.703,26.31
47.718,27.89
47.734,29.04
47.750,29.43
47.765,28.71
47.781,26.74
47.796,23.67
47.812,19.93
47.828,16.17
47.843,12.94
47.859,10.48
47.875,8.66
47.890,7.03
47.906,5.06
47.921,2.35
47.937,-1.16
47.953,-5.21
47.968,-9.36
47.984,-13.03
48.000,-15.68
48.015,-16.87
48.031,-16.38
48.046,-14.24
48.062,-10.69
48.078,-6.26
48.093,-1.58
48.109,2.74
48.125,6.22
48.140,8.64
48.156,10.04
48.171,10.6
48.187,10.54
48.203,10.06
48.218,9.31
48.234,8.42
48.250,7.51
48.265,6.67
48.281,5.93
48.296,5.21
48.312,4.35
48.328,3.17
48.343,1.63
48.359,-0.12
48.375,-1.79
48.390,-3.09
48.406,-3.89
48.421,-4.39
48.437,-5.0
48.453,-6.15
48.468,-8.1
48.484,-10.75
48.500,-13.69
48.515,-16.35
48.531,-18.32
48.546,-19.44
48.562,-19.75
48.578,-19.42
48.593,-18.56
48.609,-17.17
48.625,-15.19
48.640,-12.58
48.656,-9.27
48.671,-5.27
48.687,-0.57
48.703,4.79
48.718,10.63
48.734,16.57
48.750,22.11
48.765,26.77
48.781,30.33
48.796,32.97
48.812,35.14
48.828,37.4
48.843,40.12
48.859,43.3
48.875,46.7
48.890,49.99
48.906,52.94
48.921,55.52
48.937,57.88
48.953,60.22
48.968,62.62
48.984,64.97
49.000,67.12
49.015,68.94
49.031,70.44
49.046,71.69
49.062,72.67
49.078,73.1
49.093,72.5
49.109,70.35
49.125,66.44
49.140,61.01
49.156,54.74
49.171,48.44
49.187,42.67
49.203,37.65
49.218,33.31
49.234,29.5
49.250,26.16
49.265,23.33
49.281,20.97
49.296,18.81
49.312,16.39
49.328,13.28
49.343,9.39
49.359,5.18
49.375,1.48
49.390,-0.83
49.406,-1.22
49.421,0.23
49.437,2.88
49.453,5.88
49.468,8.48
49.484,10.33
49.500,11.4
49.515,11.92
49.531,12.09
49.546,11.89
49.562,11.15
49.578,9.6
49.593,7.06
49.609,3.54
49.625,-0.75
49.640,-5.5
49.656,-10.32
49.671,-14.81
49.687,-18.65
49.703,-21.63
49.718,-23.73
49.734,-25.05
49.750,-25.83
49.765,-26.29
49.781,-26.6
49.796,-26.88
49.812,-27.17
49.828,-27.49
49.843,-27.81
49.859,-28.02
49.875,-27.98
49.890,-27.55
49.906,-26.68
49.921,-25.42
49.937,-23.93
49.953,-22.39
49.968,-21.01
49.984,-19.94
50.000,-19.32
50.015,-19.22
50.031,-19.51
50.046,-19.88
50.062,-19.82
50.078,-18.8
50.093,-16.46
50.109,-12.79
50.125,-8.11
50.140,-2.86
50.156,2.6
50.171,8.16
50.187,13.89
50.203,19.92
50.218,26.21
50.234,32.55
50.250,38.59
50.265,43.98
50.281,48.42
50.296,51.64
50.312,53.44
50.328,53.61
50.343,52.03
50.359,48.75
50.375,43.98
50.390,37.98
50.406,31.04
50.421,23.35
50.437,15.18
50.453,6.88
50.468,-0.96
50.484,-7.73
50.500,-12.86
50.515,-16.08
50.531,-17.55
50.546,-17.74
50.562,-17.28
50.578,-16.77
50.593,-16.61
50.609,-16.91
50.625,-17.66
50.640,-18.74
50.656,-20.12
50.671,-21.93
50.687,-24.48
50.703,-28.12
50.718,-33.19
50.734,-39.75
50.750,-47.64
50.765,-56.55
50.781,-66.03
50.796,-75.67
50.812,-84.98
50.828,-93.39
50.843,-100.21
50.859,-104.71
50.875,-106.32
50.890,-104.84
50.906,-100.57
50.921,-94.27
50.937,-86.86
50.953,-79.24
50.968,-71.95
50.984,-65.24
51.000,-59.06
51.015,-53.28
51.031,-47.86
51.046,-42.84
51.062,-38.32
51.078,-34.35
51.093,-30.91
51.109,-27.83
51.125,-24.93
51.140,-22.04
51.156,-19.14
51.171,-16.27
51.187,-13.52
51.203,-10.9
51.218,-8.3
51.234,-5.55
51.250,-2.57
51.265,0.6
51.281,3.79
51.296,6.75
51.312,9.29
51.328,11.45
51.343,13.41
51.359,15.4
51.375,17.6
51.390,19.96
51.406,22.21
51.421,23.95
51.437,24.91
51.453,25.05
51.468,24.71
51.484,24.41
51.500,24.66
51.515,25.65
51.531,27.12
51.546,28.45
51.562,28.88
51.578,27.95
51.593,25.61
51.609,22.28
51.625,18.47
51.640,14.6
51.656,10.84
51.671,7.13
51.687,3.43
51.703,-0.14
51.718,-3.21
51.734,-5.37
51.750,-6.34
51.765,-6.09
51.781,-4.9
51.796,-3.16
51.812,-1.28
51.828,0.52
51.843,2.21
51.859,3.86
51.875,5.59
51.890,7.46
51.906,9.38
51.921,11.18
51.937,12.65
51.953,13.63
51.968,14.15
51.984,14.35
52.000,14.5
52.015,14.8
52.031,15.31
52.046,15.96
52.062,16.47
52.078,16.54
52.093,15.83
52.109,14.15
52.125,11.48
52.140,8.05
52.156,4.31
52.171,0.83
52.187,-1.88
52.203,-3.46
52.218,-3.81
52.234,-3.04
52.250,-1.38
52.265,0.91
52.281,3.57
52.296,6.33
52.312,8.88
52.328,10.96
52.343,12.41
52.359,13.29
52.375,13.85
52.390,14.42
52.406,15.23
52.421,16.33
52.437,17.57
52.453,18.7
52.468,19.56
52.484,20.1
52.500,20.42
52.515,20.62
52.531,20.76
52.546,20.78
52.562,20.59
52.578,20.14
52.593,19.47
52.609,18.72
52.625,18.02
52.640,17.45
52.656,16.94
52.671,16.31
52.687,15.31
52.703,13.8
52.718,11.74
52.734,9.27
52.750,6.68
52.765,4.34
52.781,2.53
52.796,1.45
52.812,1.18
52.828,1.67
52.843,2.84
52.859,4.59
52.875,6.86
52.890,9.53
52.906,12.45
52.921,15.38
52.937,18.05
52.953,20.2
52.968,21.66
52.984,22.44
53.000,22.62
53.015,22.38
53.031,21.83
53.046,20.93
53.062,19.61
53.078,17.77
53.093,15.43
53.109,12.82
53.125,10.29
53.140,8.15
53.156,6.54
53.171,5.31
53.187,4.13
53.203,2.66
53.218,0.75
53.234,-1.49
53.250,-3.8
53.265,-5.94
53.281,-7.82
53.296,-9.57
53.312,-11.43
53.328,-13.63
53.343,-16.29
53.359,-19.33
53.375,-22.49
53.390,-25.43
53.406,-27.74
53.421,-29.03
53.437,-29.02
53.453,-27.61
53.468,-24.89
53.484,-21.13
53.500,-16.65
53.515,-11.82
53.531,-6.97
53.546,-2.37
53.562,1.73
53.578,5.22
53.593,8.06
53.609,10.32
53.625,12.16
53.640,13.68
53.656,14.96
53.671,15.99
53.687,16.76
53.703,17.33
53.718,17.81
53.734,18.33
53.750,19.01
53.765,19.82
53.781,20.65
53.796,21.27
53.812,21.51
53.828,21.24
53.843,20.49
53.859,19.41
53.875,18.28
53.890,17.38
53.906,16.88
53.921,16.82
53.937,17.11
53.953,17.61
53.968,18.25
53.984,19.06
54.000,20.16
54.015,21.62
54.031,23.43
54.046,25.45
54.062,27.54
54.078,29.76
54.093,32.48
54.109,36.29
54.125,41.78
54.140,49.21
54.156,58.34
54.171,68.44
54.187,78.51
54.203,87.59
54.218,95.08
54.234,100.72
54.250,104.66
54.265,107.27
54.281,109.11
54.296,110.78
54.312,112.82
54.328,115.49
54.343,118.51
54.359,120.94
54.375,121.27
54.390,117.86
54.406,109.49
54.421,95.94
54.437,78.09
54.453,57.72
54.468,36.86
54.484,17.12
54.500,-0.69
54.515,-16.6
54.531,-31.03
54.546,-44.32
54.562,-56.51
54.578,-67.36
54.593,-76.54
54.609,-83.9
54.625,-89.47
54.640,-93.38
54.656,-95.63
54.671,-96.07
54.687,-94.6
54.703,-91.32
54.718,-86.72
54.734,-81.63
54.750,-76.94
54.765,-73.44
54.781,-71.56
54.796,-71.4
54.812,-72.87
54.828,-75.72
54.843,-79.67
54.859,-84.4
54.875,-89.48
54.890,-94.41
54.906,-98.63
54.921,-101.62
54.937,-102.97
54.953,-102.5
54.968,-100.25
54.984,-96.48
55.000,-91.56
55.015,-85.95
55.031,-80.05
55.046,-74.26
55.062,-68.88
55.078,-64.12
55.093,-60.1
55.109,-56.79
55.125,-54.08
55.140,-51.73
55.156,-49.56
55.171,-47.44
55.187,-45.37
55.203,-43.41
55.218,-41.69
55.234,-40.18
55.250,-38.79
55.265,-37.32
55.281,-35.62
55.296,-33.7
55.312,-31.74
55.328,-30.0
55.343,-28.68
55.359,-27.9
55.375,-27.57
55.390,-27.53
55.406,-27.56
55.421,-27.45
55.437,-27.02
55.453,-26.16
55.468,-24.88
55.484,-23.31
55.500,-21.69
55.515,-20.28
55.531,-19.24
55.546,-18.64
55.562,-18.4
55.578,-18.39
55.593,-18.46
55.609,-18.39
55.625,-17.89
55.640,-16.55
55.656,-14.04
55.671,-10.19
55.687,-5.11
55.703,0.8
55.718,6.97
55.734,12.86
55.750,18.1
55.765,22.51
55.781,26.05
55.796,28.8
55.812,30.85
55.828,32.27
55.843,33.14
55.859,33.5
55.875,33.4
55.890,32.93
55.906,32.21
55.921,31.4
55.937,30.65
55.953,30.01
55.968,29.39
55.984,28.6
56.000,27.46
56.015,25.91
56.031,24.01
56.046,21.88
56.062,19.56
56.078,16.97
56.093,13.96
56.109,10.42
56.125,6.49
56.140,2.52
56.156,-1.06
56.171,-4.03
56.187,-6.53
56.203,-9.11
56.218,-12.41
56.234,-16.81
56.250,-22.21
56.265,-28.0
56.281,-33.37
56.296,-37.68
56.312,-40.7
56.328,-42.52
56.343,-43.35
56.359,-43.29
56.375,-42.18
56.390,-39.8
56.406,-36.1
56.421,-31.38
56.437,-26.26
56.453,-21.41
56.468,-17.25
56.484,-13.79
56.500,-10.73
56.515,-7.64
56.531,-4.27
56.546,-0.57
56.562,3.28
56.578,7.08
56.593,10.7
56.609,14.11
56.625,17.39
56.640,20.6
56.656,23.78
56.671,26.88
56.687,29.92
56.703,32.95
56.718,36.1
56.734,39.53
56.750,43.32
56.765,47.46
56.781,51.84
56.796,56.29
56.812,60.59
56.828,64.53
56.843,67.88
56.859,70.55
56.875,72.61
56.890,74.27
56.906,75.8
56.921,77.47
56.937,79.33
56.953,81.18
56.968,82.7
56.984,83.48
57.000,83.31
57.015,82.21
57.031,80.38
57.046,78.09
57.062,75.54
57.078,72.8
57.093,69.86
57.109,66.69
57.125,63.31
57.140,59.83
57.156,56.44
57.171,53.35
57.187,50.7
57.203,48.51
57.218,46.66
57.234,44.91
57.250,42.98
57.265,40.69
57.281,38.01
57.296,34.99
57.312,31.72
57.328,28.19
57.343,24.36
57.359,20.19
57.375,15.81
57.390,11.58
57.406,7.93
57.421,5.2
57.437,3.33
57.453,1.82
57.468,-0.16
57.484,-3.39
57.500,-8.29
57.515,-14.6
57.531,-21.53
57.546,-28.0
57.562,-33.05
57.578,-36.08
57.593,-37.02
57.609,-36.18
57.625,-34.05
57.640,-31.12
57.656,-27.87
57.671,-24.77
57.687,-22.43
57.703,-21.54
57.718,-22.72
57.734,-26.22
57.750,-31.89
57.765,-39.09
57.781,-47.03
57.796,-55.02
57.812,-62.68
57.828,-69.88
57.843,-76.52
57.859,-82.28
57.875,-86.51
57.890,-88.5
57.906,-87.74
57.921,-84.22
57.937,-78.51
57.953,-71.62
57.968,-64.66
57.984,-58.53
58.000,-53.8
58.015,-50.6
58.031,-48.74
58.046,-47.87
58.062,-47.59
58.078,-47.64
58.093,-47.89
58.109,-48.29
58.125,-48.79
58.140,-49.24
58.156,-49.45
58.171,-49.19
58.187,-48.41
58.203,-47.25
58.218,-45.96
58.234,-44.74
58.250,-43.6
58.265,-42.34
58.281,-40.69
58.296,-38.49
58.312,-35.84
58.328,-33.08
58.343,-30.66
58.359,-28.88
58.375,-27.74
58.390,-26.91
58.406,-25.82
58.421,-23.86
58.437,-20.6
58.453,-15.9
58.468,-9.92
58.484,-2.99
58.500,4.5
58.515,12.12
58.531,19.5
58.546,26.27
58.562,32.14
58.578,36.86
58.593,40.42
58.609,43.01
58.625,44.93
58.640,46.48
58.656,47.84
58.671,49.02
58.687,49.95
58.703,50.6
58.718,51.04
58.734,51.44
58.750,51.81
58.765,51.87
58.781,50.98
58.796,48.31
58.812,43.14
58.828,35.2
58.843,24.71
58.859,12.31
58.875,-1.07
58.890,-14.45
58.906,-26.89
58.921,-37.58
58.937,-46.02
58.953,-52.2
58.968,-56.62
58.984,-60.22
59.000,-64.04
59.015,-68.83
59.031,-74.66
59.046,-80.93
59.062,-86.49
59.078,-90.08
59.093,-90.67
59.109,-87.71
59.125,-81.22
59.140,-71.75
59.156,-60.26
59.171,-47.82
59.187,-35.4
59.203,-23.72
59.218,-13.11
59.234,-3.61
59.250,4.9
59.265,12.6
59.281,19.72
59.296,26.49
59.312,33.1
59.328,39.52
59.343,45.5
59.359,50.57
59.375,54.28
59.390,56.48
59.406,57.44
59.421,57.76
59.437,58.04
59.453,58.62
59.468,59.48
59.484,60.32
59.500,60.79
59.515,60.71
59.531,60.05
59.546,58.86
59.562,57.23
59.578,55.28
59.593,53.24
59.609,51.51
59.625,50.48
59.640,50.28
59.656,50.65
59.671,50.89
59.687,50.08
59.703,47.38
59.718,42.39
59.734,35.29
59.750,26.85
59.765,18.15
59.781,10.28
59.796,4.01
59.812,-0.38
59.828,-3.16
59.843,-4.97
59.859,-6.48
59.875,-8.08
59.890,-9.72
59.906,-11.04
59.921,-11.62
59.937,-11.3
59.953,-10.34
59.968,-9.31
59.984,-8.82
