timestamp,value
00.000,-104.33
00.015,-88.07
00.031,-65.8
00.046,-38.65
00.062,-8.93
00.078,20.66
00.093,47.78
00.109,71.1
00.125,90.4
00.140,106.25
00.156,119.48
00.171,130.73
00.187,140.24
00.203,147.94
00.218,153.66
00.234,157.41
00.250,159.58
00.265,160.65
00.281,161.27
00.296,161.88
00.312,162.76
00.328,163.92
00.343,165.15
00.359,166.19
00.375,166.71
00.390,166.46
00.406,165.15
00.421,162.46
00.437,157.95
00.453,151.16
00.468,141.71
00.484,129.42
00.500,114.63
00.515,98.06
00.531,80.67
00.546,63.04
00.562,45.11
00.578,25.98
00.593,4.5
00.609,-20.13
00.625,-47.82
00.640,-77.24
00.656,-106.24
00.671,-132.44
00.687,-153.98
00.703,-169.85
00.718,-179.93
00.734,-184.54
00.750,-184.03
00.765,-178.79
00.781,-169.19
00.796,-155.95
00.812,-140.09
00.828,-122.71
00.843,-104.51
00.859,-85.66
00.875,-66.07
00.890,-45.91
00.906,-26.33
00.921,-9.43
00.937,2.2
00.953,6.71
00.968,4.04
00.984,-3.75
01.000,-13.14
01.015,-20.46
01.031,-23.17
01.046,-20.61
01.062,-13.65
01.078,-3.94
01.093,6.95
01.109,18.11
01.125,29.2
01.140,40.01
01.156,50.14
01.171,58.85
01.187,65.32
01.203,69.07
01.218,70.25
01.234,69.7
01.250,68.55
01.265,67.83
01.281,68.01
01.296,68.93
01.312,69.95
01.328,70.26
01.343,69.19
01.359,66.29
01.375,61.35
01.390,54.25
01.406,45.0
01.421,33.81
01.437,21.3
01.453,8.47
01.468,-3.32
01.484,-12.77
01.500,-18.81
01.515,-20.89
01.531,-19.0
01.546,-13.64
01.562,-5.73
01.578,3.63
01.593,13.34
01.609,22.6
01.625,31.14
01.640,39.29
01.656,47.89
01.671,57.72
01.687,68.86
01.703,80.27
01.718,89.76
01.734,94.73
01.750,93.11
01.765,84.27
01.781,69.25
01.796,50.54
01.812,31.21
01.828,14.03
01.843,0.83
01.859,-7.89
01.875,-12.72
01.890,-15.01
01.906,-16.35
01.921,-17.98
01.937,-20.44
01.953,-23.51
01.968,-26.35
01.984,-27.93
02.000,-27.59
02.015,-25.28
02.031,-21.38
02.046,-16.62
02.062,-11.74
02.078,-7.38
02.093,-4.14
02.109,-2.59
02.125,-3.28
02.140,-6.67
02.156,-12.99
02.171,-22.12
02.187,-33.58
02.203,-46.72
02.218,-60.78
02.234,-75.08
02.250,-88.82
02.265,-100.99
02.281,-110.22
02.296,-115.0
02.312,-113.96
02.328,-106.4
02.343,-92.56
02.359,-73.81
02.375,-52.41
02.390,-30.99
02.406,-11.95
02.421,3.21
02.437,13.97
02.453,20.86
02.468,25.0
02.484,27.7
02.500,30.08
02.515,32.68
02.531,35.61
02.546,38.6
02.562,41.3
02.578,43.43
02.593,44.82
02.609,45.4
02.625,45.09
02.640,43.95
02.656,42.15
02.671,39.99
02.687,37.87
02.703,36.1
02.718,34.75
02.734,33.6
02.750,32.25
02.765,30.29
02.781,27.56
02.796,24.36
02.812,21.25
02.828,18.89
02.843,17.71
02.859,17.69
02.875,18.34
02.890,18.86
02.906,18.26
02.921,15.53
02.937,9.87
02.953,0.9
02.968,-11.1
02.984,-25.08
03.000,-39.53
03.015,-52.81
03.031,-63.7
03.046,-71.66
03.062,-76.7
03.078,-78.97
03.093,-78.37
03.109,-74.26
03.125,-65.59
03.140,-51.36
03.156,-31.23
03.171,-6.03
03.187,22.12
03.203,50.11
03.218,74.54
03.234,92.5
03.250,102.44
03.265,104.55
03.281,100.44
03.296,92.37
03.312,82.24
03.328,71.06
03.343,58.95
03.359,45.83
03.375,31.89
03.390,17.93
03.406,5.0
03.421,-6.07
03.437,-14.88
03.453,-21.53
03.468,-26.15
03.484,-28.6
03.500,-28.49
03.515,-25.61
03.531,-20.55
03.546,-15.01
03.562,-11.54
03.578,-12.55
03.593,-19.19
03.609,-30.75
03.625,-44.76
03.640,-57.79
03.656,-66.71
03.671,-69.72
03.687,-66.93
03.703,-60.22
03.718,-52.56
03.734,-47.17
03.750,-46.69
03.765,-52.66
03.781,-65.27
03.796,-83.37
03.812,-104.69
03.828,-126.29
03.843,-145.05
03.859,-158.38
03.875,-164.68
03.890,-163.64
03.906,-156.16
03.921,-143.97
03.937,-129.03
03.953,-113.01
03.968,-96.96
03.984,-81.32
04.000,-66.21
04.015,-51.83
04.031,-38.67
04.046,-27.52
04.062,-19.11
04.078,-13.79
04.093,-11.24
04.109,-10.56
04.125,-10.6
04.140,-10.4
04.156,-9.46
04.171,-7.8
04.187,-5.77
04.203,-3.67
04.218,-1.67
04.234,0.32
04.250,2.49
04.265,4.89
04.281,7.4
04.296,9.68
04.312,11.41
04.328,12.43
04.343,12.94
04.359,13.24
04.375,13.75
04.390,14.74
04.406,16.25
04.421,18.05
04.437,19.68
04.453,20.57
04.468,20.26
04.484,18.54
04.500,15.33
04.515,10.86
04.531,5.52
04.546,-0.19
04.562,-5.56
04.578,-9.77
04.593,-11.88
04.609,-10.94
04.625,-6.09
04.640,3.2
04.656,17.08
04.671,35.24
04.687,56.96
04.703,81.16
04.718,106.34
04.734,130.53
04.750,151.37
04.765,166.39
04.781,173.55
04.796,171.97
04.812,162.23
04.828,146.44
04.843,127.79
04.859,109.68
04.875,94.77
04.890,84.3
04.906,77.94
04.921,74.18
04.937,71.15
04.953,67.47
04.968,62.89
04.984,58.52
05.000,56.1
05.015,57.18
05.031,61.93
05.046,68.6
05.062,73.95
05.078,74.42
05.093,67.66
05.109,53.57
05.125,34.62
05.140,14.72
05.156,-2.23
05.171,-13.9
05.187,-20.43
05.203,-24.28
05.218,-29.17
05.234,-38.66
05.250,-55.08
05.265,-78.9
05.281,-108.91
05.296,-142.29
05.312,-175.04
05.328,-202.53
05.343,-220.29
05.359,-225.11
05.375,-216.08
05.390,-195.24
05.406,-167.06
05.421,-137.11
05.437,-110.11
05.453,-88.48
05.468,-72.06
05.484,-59.05
05.500,-47.68
05.515,-37.53
05.531,-29.89
05.546,-26.89
05.562,-30.09
05.578,-39.41
05.593,-52.92
05.609,-67.59
05.625,-80.46
05.640,-89.6
05.656,-94.51
05.671,-95.58
05.687,-93.4
05.703,-88.17
05.718,-79.71
05.734,-67.98
05.750,-53.61
05.765,-38.12
05.781,-23.62
05.796,-12.03
05.812,-4.41
05.828,-0.56
05.843,0.83
05.859,1.6
05.875,3.57
05.890,7.77
05.906,14.03
05.921,20.73
05.937,25.06
05.953,23.75
05.968,14.16
05.984,-4.69
06.000,-31.54
06.015,-63.04
06.031,-94.81
06.046,-122.75
06.062,-143.99
06.078,-157.3
06.093,-162.58
06.109,-160.29
06.125,-150.98
06.140,-135.24
06.156,-114.17
06.171,-89.62
06.187,-64.15
06.203,-40.35
06.218,-20.14
06.234,-4.18
06.250,8.19
06.265,18.32
06.281,27.51
06.296,36.38
06.312,44.65
06.328,51.52
06.343,56.25
06.359,58.56
06.375,58.87
06.390,58.1
06.406,57.26
06.421,57.08
06.437,57.84
06.453,59.29
06.468,60.95
06.484,62.39
06.500,63.34
06.515,63.77
06.531,63.86
06.546,63.68
06.562,63.13
06.578,61.85
06.593,59.37
06.609,55.34
06.625,49.74
06.640,42.98
06.656,35.72
06.671,28.6
06.687,22.05
06.703,16.13
06.718,10.64
06.734,5.13
06.750,-0.88
06.765,-7.77
06.781,-15.79
06.796,-24.83
06.812,-34.3
06.828,-43.05
06.843,-49.53
06.859,-52.1
06.875,-49.61
06.890,-41.7
06.906,-29.04
06.921,-13.07
06.937,4.37
06.953,21.54
06.968,37.22
06.984,50.84
07.000,62.3
07.015,71.84
07.031,79.79
07.046,86.39
07.062,91.81
07.078,96.16
07.093,99.59
07.109,102.28
07.125,104.39
07.140,106.07
07.156,107.35
07.171,108.25
07.187,108.74
07.203,108.72
07.218,108.2
07.234,107.15
07.250,105.5
07.265,103.11
07.281,99.86
07.296,95.58
07.312,90.28
07.328,84.05
07.343,77.12
07.359,69.8
07.375,62.4
07.390,55.21
07.406,48.51
07.421,42.52
07.437,37.33
07.453,32.73
07.468,28.21
07.484,22.92
07.500,15.97
07.515,6.72
07.531,-4.79
07.546,-17.69
07.562,-30.35
07.578,-40.71
07.593,-46.87
07.609,-47.63
07.625,-42.82
07.640,-33.28
07.656,-20.59
07.671,-6.51
07.687,7.51
07.703,20.59
07.718,32.44
07.734,43.18
07.750,53.02
07.765,61.9
07.781,69.39
07.796,74.42
07.812,75.58
07.828,71.47
07.843,61.32
07.859,45.51
07.875,25.72
07.890,4.67
07.906,-14.72
07.921,-30.05
07.937,-39.98
07.953,-44.36
07.968,-43.79
07.984,-39.1
08.000,-31.04
08.015,-20.27
08.031,-7.58
08.046,5.86
08.062,18.49
08.078,28.67
08.093,34.98
08.109,36.79
08.125,34.36
08.140,28.92
08.156,22.18
08.171,15.82
08.187,11.02
08.203,8.21
08.218,7.17
08.234,7.28
08.250,7.97
08.265,8.95
08.281,10.34
08.296,12.54
08.312,15.99
08.328,21.02
08.343,27.67
08.359,35.84
08.375,45.46
08.390,56.51
08.406,69.05
08.421,82.96
08.437,97.78
08.453,112.53
08.468,125.94
08.484,137.02
08.500,145.46
08.515,151.37
08.531,154.49
08.546,153.47
08.562,146.03
08.578,130.2
08.593,105.72
08.609,74.83
08.625,41.73
08.640,10.82
08.656,-15.13
08.671,-35.7
08.687,-52.18
08.703,-65.96
08.718,-77.34
08.734,-85.49
08.750,-89.46
08.765,-89.38
08.781,-86.85
08.796,-84.23
08.812,-83.43
08.828,-85.02
08.843,-88.3
08.859,-92.11
08.875,-95.42
08.890,-97.77
08.906,-99.16
08.921,-99.88
08.937,-100.16
08.953,-100.05
08.968,-99.44
08.984,-98.17
09.000,-96.28
09.015,-93.97
09.031,-91.66
09.046,-89.92
09.062,-89.27
09.078,-89.97
09.093,-91.79
09.109,-93.97
09.125,-95.36
09.140,-94.64
09.156,-90.74
09.171,-83.1
09.187,-71.86
09.203,-57.78
09.218,-41.95
09.234,-25.55
09.250,-9.58
09.265,5.31
09.281,18.78
09.296,30.69
09.312,41.01
09.328,49.72
09.343,56.85
09.359,62.55
09.375,67.14
09.390,71.09
09.406,74.93
09.421,79.14
09.437,83.94
09.453,89.38
09.468,95.2
09.484,101.11
09.500,106.83
09.515,112.22
09.531,117.14
09.546,121.42
09.562,124.73
09.578,126.5
09.593,126.07
09.609,122.8
09.625,116.28
09.640,106.42
09.656,93.4
09.671,77.77
09.687,60.39
09.703,42.43
09.718,25.2
09.734,9.96
09.750,-2.43
09.765,-11.65
09.781,-17.91
09.796,-21.91
09.812,-24.45
09.828,-26.24
09.843,-27.71
09.859,-28.96
09.875,-29.85
09.890,-29.95
09.906,-28.64
09.921,-25.14
09.937,-18.75
09.953,-8.99
09.968,4.13
09.984,20.01
10.000,37.57
10.015,55.44
10.031,72.35
10.046,87.4
10.062,100.38
10.078,111.67
10.093,122.07
10.109,132.33
10.125,142.79
10.140,153.1
10.156,162.44
10.171,169.62
10.187,173.49
10.203,173.2
10.218,168.35
10.234,159.03
10.250,145.86
10.265,129.9
10.281,112.61
10.296,95.44
10.312,79.25
10.328,63.91
10.343,48.19
10.359,30.33
10.375,8.91
10.390,-16.31
10.406,-44.12
10.421,-72.32
10.437,-98.61
10.453,-121.54
10.468,-140.83
10.484,-156.96
10.500,-170.45
10.515,-181.23
10.531,-188.47
10.546,-191.05
10.562,-188.31
10.578,-180.59
10.593,-169.43
10.609,-157.21
10.625,-146.49
10.640,-139.37
10.656,-136.8
10.671,-138.33
10.687,-142.26
10.703,-146.19
10.718,-147.72
10.734,-145.15
10.750,-137.78
10.765,-125.84
10.781,-110.15
10.796,-91.62
10.812,-71.07
10.828,-49.14
10.843,-26.69
10.859,-4.86
10.875,14.94
10.890,31.37
10.906,43.51
10.921,51.01
10.937,54.09
10.953,53.2
10.968,48.76
10.984,41.02
11.000,30.13
11.015,16.28
11.031,-0.13
11.046,-18.32
11.062,-37.15
11.078,-55.15
11.093,-70.77
11.109,-82.6
11.125,-89.71
11.140,-91.96
11.156,-90.14
11.171,-85.78
11.187,-80.75
11.203,-76.65
11.218,-74.41
11.234,-74.11
11.250,-75.16
11.265,-76.72
11.281,-78.0
11.296,-78.5
11.312,-78.05
11.328,-76.6
11.343,-74.21
11.359,-70.97
11.375,-67.07
11.390,-62.84
11.406,-58.83
11.421,-55.64
11.437,-53.73
11.453,-53.1
11.468,-53.15
11.484,-52.7
11.500,-50.36
11.515,-44.91
11.531,-35.81
11.546,-23.37
11.562,-8.64
11.578,6.94
11.593,22.04
11.609,35.83
11.625,48.05
11.640,59.0
11.656,69.18
11.671,78.99
11.687,88.55
11.703,97.69
11.718,105.93
11.734,112.78
11.750,117.86
11.765,121.08
11.781,122.77
11.796,123.65
11.812,124.79
11.828,127.32
11.843,132.05
11.859,138.95
11.875,146.69
11.890,152.78
11.906,153.95
11.921,147.15
11.937,130.5
11.953,103.81
11.968,68.74
11.984,28.3
12.000,-13.84
12.015,-54.29
12.031,-90.57
12.046,-121.54
12.062,-147.25
12.078,-168.64
12.093,-186.86
12.109,-202.66
12.125,-216.06
12.140,-226.42
12.156,-232.93
12.171,-235.12
12.187,-233.26
12.203,-228.19
12.218,-221.06
12.234,-212.7
12.250,-203.43
12.265,-193.1
12.281,-181.23
12.296,-167.36
12.312,-151.22
12.328,-132.79
12.343,-112.35
12.359,-90.39
12.375,-67.61
12.390,-44.82
12.406,-22.87
12.421,-2.54
12.437,15.58
12.453,31.26
12.468,44.59
12.484,56.02
12.500,66.15
12.515,75.57
12.531,84.59
12.546,93.25
12.562,101.3
12.578,108.43
12.593,114.48
12.609,119.48
12.625,123.63
12.640,127.07
12.656,129.77
12.671,131.37
12.687,131.34
12.703,129.24
12.718,124.81
12.734,118.01
12.750,108.89
12.765,97.48
12.781,83.85
12.796,68.29
12.812,51.34
12.828,33.88
12.843,16.86
12.859,1.04
12.875,-13.16
12.890,-25.72
12.906,-36.7
12.921,-46.18
12.937,-54.1
12.953,-60.4
12.968,-65.25
12.984,-69.02
13.000,-72.27
13.015,-75.41
13.031,-78.44
13.046,-80.81
13.062,-81.48
13.078,-79.26
13.093,-73.17
13.109,-62.79
13.125,-48.4
13.140,-30.93
13.156,-11.63
13.171,8.17
13.187,27.34
13.203,45.14
13.218,61.18
13.234,75.33
13.250,87.65
13.265,98.27
13.281,107.41
13.296,115.3
13.312,122.12
13.328,128.02
13.343,133.08
13.359,137.31
13.375,140.71
13.390,143.26
13.406,144.99
13.421,145.83
13.437,145.56
13.453,143.68
13.468,139.56
13.484,132.51
13.500,122.06
13.515,108.03
13.531,90.55
13.546,70.05
13.562,47.16
13.578,22.8
13.593,-1.91
13.609,-25.82
13.625,-48.04
13.640,-68.41
13.656,-87.54
13.671,-106.65
13.687,-126.85
13.703,-148.4
13.718,-170.13
13.734,-189.79
13.750,-204.8
13.765,-213.29
13.781,-214.91
13.796,-210.76
13.812,-202.7
13.828,-192.42
13.843,-180.8
13.859,-167.75
13.875,-152.72
13.890,-135.44
13.906,-116.27
13.921,-96.22
13.937,-76.43
13.953,-57.61
13.968,-39.81
13.984,-22.56
14.000,-5.32
14.015,12.04
14.031,28.97
14.046,44.46
14.062,57.4
14.078,67.06
14.093,73.39
14.109,77.07
14.125,79.26
14.140,81.24
14.156,83.98
14.171,87.96
14.187,93.16
14.203,99.15
14.218,105.24
14.234,110.75
14.250,115.04
14.265,117.69
14.281,118.55
14.296,117.84
14.312,116.14
14.328,114.41
14.343,113.71
14.359,114.94
14.375,118.62
14.390,124.54
14.406,131.84
14.421,138.98
14.437,144.19
14.453,145.89
14.468,143.13
14.484,135.7
14.500,124.02
14.515,108.82
14.531,90.73
14.546,70.29
14.562,48.13
14.578,25.19
14.593,2.93
14.609,-16.83
14.625,-32.38
14.640,-42.5
14.656,-46.67
14.671,-45.08
14.687,-38.48
14.703,-28.12
14.718,-15.83
14.734,-4.12
14.750,4.14
14.765,6.16
14.781,-0.05
14.796,-15.07
14.812,-37.83
14.828,-65.74
14.843,-95.28
14.859,-122.73
14.875,-144.94
14.890,-159.83
14.906,-166.87
14.921,-166.96
14.937,-162.03
14.953,-154.38
14.968,-145.84
14.984,-137.33
15.000,-128.76
15.015,-119.46
15.031,-108.74
15.046,-96.47
15.062,-83.42
15.078,-71.07
15.093,-61.27
15.109,-55.51
15.125,-54.54
15.140,-58.03
15.156,-64.75
15.171,-72.91
15.187,-80.56
15.203,-86.14
15.218,-88.58
15.234,-87.57
15.250,-83.39
15.265,-76.78
15.281,-68.73
15.296,-60.27
15.312,-52.24
15.328,-45.2
15.343,-39.26
15.359,-34.03
15.375,-28.83
15.390,-22.63
15.406,-14.34
15.421,-3.08
15.437,11.6
15.453,29.55
15.468,50.02
15.484,71.87
15.500,93.75
15.515,114.41
15.531,132.87
15.546,148.5
15.562,160.76
15.578,169.19
15.593,173.36
15.609,173.14
15.625,168.89
15.640,161.63
15.656,152.83
15.671,144.04
15.687,136.24
15.703,129.47
15.718,122.81
15.734,114.8
15.750,104.06
15.765,89.99
15.781,73.07
15.796,54.8
15.812,37.21
15.828,22.04
15.843,9.98
15.859,0.22
15.875,-9.24
15.890,-20.77
15.906,-35.89
15.921,-54.36
15.937,-74.19
15.953,-92.35
15.968,-106.04
15.984,-113.8
16.000,-115.85
16.015,-113.87
16.031,-110.17
16.046,-106.93
16.062,-105.64
16.078,-107.12
16.093,-111.53
16.109,-118.42
16.125,-126.86
16.140,-135.34
16.156,-141.92
16.171,-144.52
16.187,-141.41
16.203,-131.77
16.218,-116.16
16.234,-96.48
16.250,-75.57
16.265,-56.36
16.281,-40.83
16.296,-29.37
16.312,-20.76
16.328,-12.8
16.343,-3.3
16.359,8.9
16.375,23.59
16.390,39.29
16.406,53.83
16.421,65.15
16.437,71.82
16.453,73.27
16.468,69.78
16.484,62.32
16.500,52.25
16.515,41.26
16.531,31.14
16.546,23.5
16.562,19.53
16.578,19.69
16.593,23.5
16.609,29.78
16.625,36.86
16.640,42.95
16.656,46.52
16.671,46.54
16.687,42.63
16.703,35.22
16.718,25.47
16.734,15.07
16.750,5.85
16.765,-0.63
16.781,-3.61
16.796,-3.21
16.812,-0.38
16.828,3.5
16.843,7.07
16.859,9.19
16.875,9.24
16.890,7.17
16.906,3.49
16.921,-0.81
16.937,-4.44
16.953,-6.02
16.968,-4.48
16.984,0.77
17.000,9.61
17.015,21.32
17.031,34.7
17.046,48.46
17.062,61.48
17.078,73.14
17.093,83.36
17.109,92.41
17.125,100.75
17.140,108.63
17.156,115.98
17.171,122.3
17.187,126.99
17.203,129.61
17.218,130.05
17.234,128.63
17.250,125.97
17.265,122.94
17.281,120.44
17.296,119.26
17.312,119.62
17.328,120.97
17.343,121.76
17.359,119.82
17.375,112.95
17.390,99.74
17.406,80.18
17.421,55.74
17.437,29.0
17.453,2.72
17.468,-20.94
17.484,-41.11
17.500,-58.22
17.515,-73.56
17.531,-88.64
17.546,-104.48
17.562,-121.24
17.578,-138.25
17.593,-154.34
17.609,-168.36
17.625,-179.64
17.640,-188.01
17.656,-193.44
17.671,-195.67
17.687,-193.99
17.703,-187.39
17.718,-175.1
17.734,-157.1
17.750,-134.38
17.765,-108.62
17.781,-81.74
17.796,-55.16
17.812,-29.54
17.828,-4.69
17.843,19.81
17.859,44.22
17.875,68.21
17.890,90.89
17.906,111.1
17.921,127.93
17.937,141.2
17.953,151.61
17.968,160.62
17.984,169.89
18.000,180.64
18.015,193.12
18.031,206.39
18.046,218.54
18.062,227.39
18.078,231.21
18.093,229.25
18.109,221.78
18.125,209.85
18.140,194.74
18.156,177.5
18.171,158.81
18.187,138.75
18.203,116.97
18.218,93.02
18.234,66.81
18.250,38.96
18.265,11.12
18.281,-14.36
18.296,-35.09
18.312,-49.54
18.328,-57.83
18.343,-61.86
18.359,-64.79
18.375,-69.9
18.390,-79.47
18.406,-94.1
18.421,-112.66
18.437,-132.52
18.453,-150.22
18.468,-162.29
18.484,-166.13
18.500,-160.77
18.515,-147.14
18.531,-127.63
18.546,-105.13
18.562,-81.99
18.578,-59.29
18.593,-37.03
18.609,-14.92
18.625,6.75
18.640,26.73
18.656,43.21
18.671,54.76
18.687,61.07
18.703,63.0
18.718,62.06
18.734,59.66
18.750,56.47
18.765,52.46
18.781,47.1
18.796,39.8
18.812,30.35
18.828,18.99
18.843,6.5
18.859,-6.05
18.875,-17.42
18.890,-26.6
18.906,-33.22
18.921,-37.88
18.937,-42.36
18.953,-49.03
18.968,-60.15
18.984,-76.88
19.000,-98.79
19.015,-123.98
19.031,-149.71
19.046,-173.4
19.062,-193.31
19.078,-208.86
19.093,-220.13
19.109,-227.3
19.125,-230.28
19.140,-228.9
19.156,-223.45
19.171,-215.01
19.187,-205.29
19.203,-196.06
19.218,-188.31
19.234,-181.9
19.250,-175.84
19.265,-168.78
19.281,-159.78
19.296,-148.52
19.312,-135.22
19.328,-120.24
19.343,-103.89
19.359,-86.37
19.375,-67.92
19.390,-48.99
19.406,-30.28
19.421,-12.54
19.437,3.54
19.453,17.49
19.468,28.99
19.484,37.81
19.500,43.83
19.515,47.08
19.531,47.91
19.546,46.95
19.562,45.11
19.578,43.26
19.593,41.95
19.609,41.33
19.625,41.06
19.640,40.62
19.656,39.54
19.671,37.68
19.687,35.15
19.703,32.29
19.718,29.36
19.734,26.47
19.750,23.56
19.765,20.56
19.781,17.43
19.796,14.18
19.812,10.93
19.828,7.87
19.843,5.2
19.859,3.02
19.875,1.36
19.890,0.05
19.906,-1.31
19.921,-3.18
19.937,-5.97
19.953,-9.67
19.968,-13.74
19.984,-17.1
20.000,-18.39
20.015,-16.41
20.031,-10.32
20.046,0.05
20.062,14.29
20.078,31.56
20.093,50.75
20.109,70.73
20.125,90.47
20.140,109.18
20.156,126.35
20.171,141.92
20.187,156.08
20.203,169.2
20.218,181.6
20.234,193.44
20.250,204.52
20.265,214.41
20.281,222.49
20.296,228.27
20.312,231.48
20.328,232.3
20.343,231.21
20.359,228.84
20.375,225.68
20.390,221.81
20.406,216.84
20.421,209.94
20.437,200.07
20.453,186.37
20.468,168.27
20.484,145.67
20.500,118.97
20.515,89.11
20.531,57.58
20.546,26.22
20.562,-3.2
20.578,-29.57
20.593,-52.77
20.609,-73.74
20.625,-93.77
20.640,-113.7
20.656,-133.28
20.671,-151.23
20.687,-165.79
20.703,-175.63
20.718,-180.61
20.734,-181.85
20.750,-181.33
20.765,-181.05
20.781,-182.2
20.796,-184.71
20.812,-187.48
20.828,-188.87
20.843,-187.44
20.859,-182.25
20.875,-173.08
20.890,-160.35
20.906,-144.97
20.921,-128.31
20.937,-112.09
20.953,-98.26
20.968,-88.62
20.984,-84.29
21.000,-85.2
21.015,-89.79
21.031,-95.48
21.046,-99.51
21.062,-99.93
21.078,-96.01
21.093,-88.19
21.109,-77.62
21.125,-65.52
21.140,-52.95
21.156,-40.66
21.171,-29.3
21.187,-19.41
21.203,-11.47
21.218,-5.63
21.234,-1.68
21.250,0.96
21.265,3.03
21.281,5.07
21.296,7.21
21.312,9.16
21.328,10.37
21.343,10.32
21.359,8.77
21.375,6.0
21.390,2.67
21.406,-0.37
21.421,-2.52
21.437,-3.69
21.453,-4.34
21.468,-5.31
21.484,-7.4
21.500,-11.07
21.515,-16.05
21.531,-21.57
21.546,-26.47
21.562,-29.6
21.578,-30.06
21.593,-27.37
21.609,-21.4
21.625,-12.42
21.640,-0.96
21.656,12.28
21.671,26.55
21.687,41.28
21.703,56.05
21.718,70.61
21.734,84.71
21.750,97.83
21.765,109.1
21.781,117.34
21.796,121.41
21.812,120.63
21.828,115.08
21.843,105.7
21.859,93.99
21.875,81.58
21.890,69.89
21.906,59.83
21.921,51.88
21.937,46.18
21.953,42.76
21.968,41.53
21.984,42.22
22.000,44.24
22.015,46.67
22.031,48.35
22.046,48.18
22.062,45.39
22.078,39.81
22.093,31.88
22.109,22.49
22.125,12.68
22.140,3.32
22.156,-5.06
22.171,-12.28
22.187,-18.35
22.203,-23.29
22.218,-27.1
22.234,-29.76
22.250,-31.37
22.265,-32.25
22.281,-32.83
22.296,-33.66
22.312,-35.1
22.328,-37.25
22.343,-39.89
22.359,-42.51
22.375,-44.47
22.390,-45.08
22.406,-43.81
22.421,-40.34
22.437,-34.7
22.453,-27.11
22.468,-17.95
22.484,-7.63
22.500,3.41
22.515,14.75
22.531,25.86
22.546,36.19
22.562,45.13
22.578,52.18
22.593,57.06
22.609,59.75
22.625,60.56
22.640,59.98
22.656,58.55
22.671,56.76
22.687,54.95
22.703,53.18
22.718,51.17
22.734,48.48
22.750,44.69
22.765,39.76
22.781,34.21
22.796,29.05
22.812,25.37
22.828,23.64
22.843,23.22
22.859,22.34
22.875,18.78
22.890,11.02
22.906,-0.95
22.921,-15.34
22.937,-29.25
22.953,-39.84
22.968,-45.42
22.984,-45.89
23.000,-42.53
23.015,-37.26
23.031,-31.87
23.046,-27.52
23.062,-24.69
23.078,-23.24
23.093,-22.56
23.109,-21.78
23.125,-19.95
23.140,-16.33
23.156,-10.76
23.171,-3.78
23.187,3.54
23.203,10.19
23.218,15.49
23.234,19.5
23.250,22.96
23.265,26.85
23.281,32.15
23.296,39.46
23.312,48.96
23.328,60.16
23.343,71.71
23.359,81.36
23.375,86.46
23.390,85.23
23.406,77.97
23.421,67.59
23.437,58.79
23.453,56.02
23.468,61.1
23.484,71.99
23.500,83.45
23.515,89.49
23.531,86.3
23.546,74.24
23.562,57.47
23.578,41.81
23.593,31.76
23.609,28.54
23.625,29.89
23.640,31.8
23.656,30.74
23.671,25.36
23.687,16.7
23.703,7.17
23.718,-1.29
23.734,-8.4
23.750,-15.5
23.765,-24.52
23.781,-36.53
23.796,-50.97
23.812,-65.91
23.828,-79.1
23.843,-89.1
23.859,-95.76
23.875,-99.77
23.890,-101.92
23.906,-102.24
23.921,-100.06
23.937,-94.42
23.953,-84.82
23.968,-71.78
23.984,-56.79
24.000,-41.69
24.015,-28.02
24.031,-16.49
24.046,-6.99
24.062,1.03
24.078,8.1
24.093,14.35
24.109,19.54
24.125,23.44
24.140,26.18
24.156,28.39
24.171,30.96
24.187,34.68
24.203,39.85
24.218,46.26
24.234,53.39
24.250,60.67
24.265,67.74
24.281,74.35
24.296,80.13
24.312,84.52
24.328,86.86
24.343,86.68
24.359,83.84
24.375,78.63
24.390,71.49
24.406,62.92
24.421,53.16
24.437,42.34
24.453,30.56
24.468,18.02
24.484,5.04
24.500,-8.01
24.515,-20.73
24.531,-32.71
24.546,-43.46
24.562,-52.45
24.578,-59.05
24.593,-62.64
24.609,-62.84
24.625,-59.56
24.640,-53.04
24.656,-43.87
24.671,-32.83
24.687,-20.77
24.703,-8.42
24.718,3.73
24.734,15.41
24.750,26.46
24.765,36.66
24.781,45.72
24.796,53.33
24.812,59.36
24.828,64.01
24.843,67.72
24.859,71.09
24.875,74.53
24.890,78.01
24.906,81.11
24.921,83.24
24.937,84.0
24.953,83.52
24.968,82.56
24.984,82.15
25.000,83.05
25.015,85.2
25.031,87.36
25.046,87.42
25.062,83.07
25.078,72.85
25.093,56.99
25.109,37.75
25.125,18.95
25.140,4.81
25.156,-1.6
25.171,0.49
25.187,9.08
25.203,19.98
25.218,28.27
25.234,30.09
25.250,23.98
25.265,11.46
25.281,-3.63
25.296,-16.55
25.312,-23.58
25.328,-23.53
25.343,-18.38
25.359,-12.94
25.375,-13.32
25.390,-24.9
25.406,-50.13
25.421,-86.98
25.437,-128.86
25.453,-166.0
25.468,-188.17
25.484,-187.75
25.500,-162.68
25.515,-117.64
25.531,-63.11
25.546,-12.42
25.562,22.58
25.578,35.29
25.593,26.14
25.609,1.79
25.625,-27.84
25.640,-53.53
25.656,-69.59
25.671,-74.84
25.687,-71.65
25.703,-63.88
25.718,-54.93
25.734,-46.98
25.750,-41.05
25.765,-37.59
25.781,-37.1
25.796,-39.95
25.812,-46.26
25.828,-55.75
25.843,-67.87
25.859,-82.02
25.875,-97.84
25.890,-115.11
25.906,-133.48
25.921,-152.04
25.937,-168.98
25.953,-181.69
25.968,-187.06
25.984,-182.28
26.000,-165.61
26.015,-137.26
26.031,-99.67
26.046,-57.29
26.062,-15.66
26.078,20.1
26.093,46.7
26.109,63.5
26.125,72.35
26.140,76.77
26.156,80.43
26.171,86.03
26.187,94.71
26.203,106.03
26.218,118.49
26.234,130.06
26.250,138.59
26.265,142.18
26.281,139.5
26.296,129.92
26.312,113.73
26.328,92.14
26.343,66.85
26.359,39.79
26.375,12.56
26.390,-13.6
26.406,-37.87
26.421,-59.51
26.437,-77.74
26.453,-91.77
26.468,-100.92
26.484,-105.0
26.500,-104.49
26.515,-100.68
26.531,-95.47
26.546,-90.86
26.562,-88.41
26.578,-88.74
26.593,-91.43
26.609,-95.18
26.625,-98.36
26.640,-99.36
26.656,-97.05
26.671,-90.96
26.687,-81.33
26.703,-68.95
26.718,-55.01
26.734,-40.84
26.750,-27.62
26.765,-16.18
26.781,-6.83
26.796,0.54
26.812,6.37
26.828,11.3
26.843,16.2
26.859,22.17
26.875,30.32
26.890,41.27
26.906,54.39
26.921,67.52
26.937,77.32
26.953,80.54
26.968,75.44
26.984,62.81
27.000,45.82
27.015,28.82
27.031,15.7
27.046,8.5
27.062,7.11
27.078,9.76
27.093,14.12
27.109,18.27
27.125,21.19
27.140,22.73
27.156,23.18
27.171,22.86
27.187,21.8
27.203,19.7
27.218,16.08
27.234,10.52
27.250,2.88
27.265,-6.62
27.281,-17.35
27.296,-28.48
27.312,-39.09
27.328,-48.29
27.343,-55.25
27.359,-59.17
27.375,-59.38
27.390,-55.4
27.406,-47.17
27.421,-35.12
27.437,-20.11
27.453,-3.4
27.468,13.48
27.484,28.96
27.500,41.58
27.515,50.22
27.531,54.33
27.546,54.03
27.562,50.08
27.578,43.72
27.593,36.35
27.609,29.1
27.625,22.49
27.640,16.31
27.656,9.77
27.671,1.85
27.687,-8.21
27.703,-20.66
27.718,-35.32
27.734,-51.67
27.750,-69.22
27.765,-87.57
27.781,-106.28
27.796,-124.84
27.812,-142.58
27.828,-158.79
27.843,-173.02
27.859,-185.18
27.875,-195.33
27.890,-203.51
27.906,-209.53
27.921,-213.1
27.937,-214.25
27.953,-213.53
27.968,-211.78
27.984,-209.55
28.000,-206.38
28.015,-200.52
28.031,-189.32
28.046,-170.43
28.062,-143.0
28.078,-108.37
28.093,-69.75
28.109,-30.89
28.125,5.42
28.140,38.33
28.156,68.93
28.171,99.34
28.187,131.45
28.203,165.83
28.218,201.44
28.234,236.09
28.250,267.33
28.265,292.95
28.281,310.97
28.296,319.35
28.312,315.85
28.328,298.81
28.343,268.32
28.359,227.14
28.375,180.35
28.390,134.07
28.406,93.04
28.421,59.09
28.437,30.99
28.453,5.97
28.468,-17.9
28.484,-40.25
28.500,-58.83
28.515,-71.24
28.531,-76.91
28.546,-77.98
28.562,-78.2
28.578,-80.67
28.593,-86.08
28.609,-92.49
28.625,-96.85
28.640,-97.31
28.656,-94.63
28.671,-91.78
28.687,-92.0
28.703,-96.6
28.718,-103.74
28.734,-109.33
28.750,-109.12
28.765,-100.9
28.781,-85.65
28.796,-66.68
28.812,-48.01
28.828,-32.44
28.843,-20.64
28.859,-11.37
28.875,-2.81
28.890,6.43
28.906,16.73
28.921,27.44
28.937,37.72
28.953,46.94
28.968,54.97
28.984,62.2
29.000,69.15
29.015,76.12
29.031,83.09
29.046,89.58
29.062,94.75
29.078,97.74
29.093,98.05
29.109,95.78
29.125,91.75
29.140,87.13
29.156,82.87
29.171,79.4
29.187,76.66
29.203,74.35
29.218,72.61
29.234,72.08
29.250,73.65
29.265,77.94
29.281,84.62
29.296,92.5
29.312,99.91
29.328,105.57
29.343,109.02
29.359,110.62
29.375,111.02
29.390,110.84
29.406,110.46
29.421,110.0
29.437,109.59
29.453,109.17
29.468,108.4
29.484,106.56
29.500,102.81
29.515,96.72
29.531,89.03
29.546,81.7
29.562,77.43
29.578,78.49
29.593,85.62
29.609,97.4
29.625,110.61
29.640,121.17
29.656,125.36
29.671,120.94
29.687,107.58
29.703,86.81
29.718,61.39
29.734,34.5
29.750,8.94
29.765,-13.52
29.781,-32.13
29.796,-46.98
29.812,-58.54
29.828,-67.32
29.843,-73.72
29.859,-78.01
29.875,-80.44
29.890,-81.26
29.906,-80.55
29.921,-78.24
29.937,-74.14
29.953,-68.17
29.968,-60.48
29.984,-51.42
30.000,-41.32
30.015,-30.23
30.031,-17.95
30.046,-4.19
30.062,11.01
30.078,26.97
30.093,42.27
30.109,55.01
30.125,63.34
30.140,66.17
30.156,63.59
30.171,56.89
30.187,48.06
30.203,39.05
30.218,31.03
30.234,24.07
30.250,17.24
30.265,9.19
30.281,-1.0
30.296,-13.35
30.312,-26.84
30.328,-39.73
30.343,-50.12
30.359,-56.6
30.375,-58.78
30.390,-57.39
30.406,-53.97
30.421,-50.4
30.437,-48.26
30.453,-48.36
30.468,-50.68
30.484,-54.46
30.500,-58.53
30.515,-61.52
30.531,-62.07
30.546,-58.81
30.562,-50.71
30.578,-37.31
30.593,-19.17
30.609,1.95
30.625,23.25
30.640,41.48
30.656,53.72
30.671,58.12
30.687,54.49
30.703,44.14
30.718,29.62
30.734,13.96
30.750,-0.16
30.765,-11.12
30.781,-18.6
30.796,-23.47
30.812,-27.4
30.828,-32.34
30.843,-40.07
30.859,-51.59
30.875,-66.75
30.890,-84.01
30.906,-100.71
30.921,-113.83
30.937,-121.13
30.953,-122.27
30.968,-119.04
30.984,-114.67
31.000,-112.22
31.015,-113.15
31.031,-116.22
31.046,-117.74
31.062,-112.69
31.078,-96.57
31.093,-67.14
31.109,-25.32
31.125,24.92
31.140,77.81
31.156,127.75
31.171,170.97
31.187,206.55
31.203,236.22
31.218,263.12
31.234,290.26
31.250,319.34
31.265,350.57
31.281,383.3
31.296,416.69
31.312,449.78
31.328,480.57
31.343,505.15
31.359,517.62
31.375,511.31
31.390,481.13
31.406,425.78
31.421,348.77
31.437,257.73
31.453,162.22
31.468,71.0
31.484,-9.72
31.500,-76.95
31.515,-130.45
31.531,-171.49
31.546,-202.11
31.562,-224.55
31.578,-241.08
31.593,-253.86
31.609,-264.75
31.625,-275.19
31.640,-286.07
31.656,-297.94
31.671,-311.01
31.687,-325.45
31.703,-341.55
31.718,-360.14
31.734,-382.65
31.750,-410.93
31.765,-445.86
31.781,-485.88
31.796,-525.76
31.812,-556.95
31.828,-570.09
31.843,-558.34
31.859,-520.18
31.875,-460.1
31.890,-386.71
31.906,-309.39
31.921,-235.25
31.937,-167.97
31.953,-108.64
31.968,-57.67
31.984,-16.14
32.000,14.13
32.015,31.7
32.031,36.68
32.046,31.17
32.062,18.35
32.078,1.25
32.093,-18.26
32.109,-39.44
32.125,-61.9
32.140,-84.53
32.156,-104.85
32.171,-119.55
32.187,-125.49
32.203,-120.95
32.218,-106.32
32.234,-84.04
32.250,-57.57
32.265,-30.3
32.281,-4.48
32.296,19.09
32.312,40.73
32.328,61.27
32.343,81.35
32.359,101.01
32.375,119.61
32.390,136.18
32.406,149.72
32.421,159.65
32.437,166.03
32.453,169.44
32.468,170.8
32.484,171.1
32.500,171.31
32.515,172.33
32.531,175.01
32.546,180.04
32.562,187.7
32.578,197.63
32.593,208.63
32.609,218.72
32.625,225.53
32.640,226.86
32.656,221.39
32.671,208.97
32.687,190.71
32.703,168.47
32.718,144.35
32.734,120.1
32.750,97.0
32.765,75.82
32.781,57.08
32.796,41.24
32.812,28.61
32.828,19.35
32.843,13.18
32.859,9.57
32.875,7.7
32.890,6.78
32.906,6.12
32.921,5.2
32.937,3.61
32.953,1.08
32.968,-2.52
32.984,-7.14
33.000,-12.52
33.015,-18.25
33.031,-23.92
33.046,-29.13
33.062,-33.67
33.078,-37.42
33.093,-40.46
33.109,-42.96
33.125,-45.3
33.140,-47.79
33.156,-50.66
33.171,-53.83
33.187,-56.84
33.203,-58.96
33.218,-59.33
33.234,-57.38
33.250,-52.94
33.265,-46.38
33.281,-38.41
33.296,-29.84
33.312,-21.29
33.328,-13.13
33.343,-5.4
33.359,1.93
33.375,8.87
33.390,15.32
33.406,21.15
33.421,26.23
33.437,30.51
33.453,34.02
33.468,36.84
33.484,39.01
33.500,40.55
33.515,41.41
33.531,41.54
33.546,40.92
33.562,39.56
33.578,37.55
33.593,34.98
33.609,31.97
33.625,28.67
33.640,25.23
33.656,21.73
33.671,18.23
33.687,14.69
33.703,11.05
33.718,7.24
33.734,3.27
33.750,-0.81
33.765,-4.96
33.781,-9.16
33.796,-13.42
33.812,-17.68
33.828,-21.82
33.843,-25.63
33.859,-28.89
33.875,-31.57
33.890,-33.87
33.906,-36.19
33.921,-38.91
33.937,-42.09
33.953,-45.33
33.968,-47.79
33.984,-48.53
34.000,-46.88
34.015,-42.69
34.031,-36.36
34.046,-28.65
34.062,-20.33
34.078,-12.0
34.093,-3.97
34.109,3.54
34.125,10.32
34.140,16.11
34.156,20.58
34.171,23.57
34.187,25.15
34.203,25.65
34.218,25.47
34.234,24.97
34.250,24.42
34.265,23.91
34.281,23.44
34.296,22.95
34.312,22.45
34.328,21.93
34.343,21.37
34.359,20.7
34.375,19.86
34.390,18.83
34.406,17.64
34.421,16.31
34.437,14.87
34.453,13.29
34.468,11.51
34.484,9.43
34.500,7.0
34.515,4.24
34.531,1.2
34.546,-2.08
34.562,-5.6
34.578,-9.4
34.593,-13.51
34.609,-17.96
34.625,-22.75
34.640,-27.75
34.656,-32.84
34.671,-37.77
34.687,-42.16
34.703,-45.47
34.718,-47.05
34.734,-46.29
34.750,-42.86
34.765,-36.82
34.781,-28.67
34.796,-19.26
34.812,-9.47
34.828,-0.04
34.843,8.53
34.859,16.08
34.875,22.49
34.890,27.75
34.906,31.81
34.921,34.63
34.937,36.21
34.953,36.62
34.968,36.13
34.984,35.02
35.000,33.66
35.015,32.37
35.031,31.29
35.046,30.38
35.062,29.4
35.078,28.07
35.093,26.27
35.109,24.15
35.125,21.97
35.140,19.97
35.156,18.17
35.171,16.34
35.187,14.1
35.203,11.13
35.218,7.45
35.234,3.28
35.250,-0.93
35.265,-4.86
35.281,-8.34
35.296,-11.43
35.312,-14.29
35.328,-17.09
35.343,-20.03
35.359,-23.23
35.375,-26.82
35.390,-30.73
35.406,-34.74
35.421,-38.32
35.437,-40.73
35.453,-41.18
35.468,-39.17
35.484,-34.61
35.500,-27.84
35.515,-19.54
35.531,-10.48
35.546,-1.39
35.562,7.17
35.578,14.78
35.593,21.12
35.609,26.02
35.625,29.41
35.640,31.37
35.656,32.14
35.671,32.05
35.687,31.47
35.703,30.64
35.718,29.71
35.734,28.66
35.750,27.44
35.765,25.96
35.781,24.25
35.796,22.41
35.812,20.61
35.828,19.04
35.843,17.74
35.859,16.65
35.875,15.5
35.890,13.96
35.906,11.73
35.921,8.68
35.937,4.88
35.953,0.64
35.968,-3.59
35.984,-7.44
36.000,-10.68
36.015,-13.39
36.031,-15.85
36.046,-18.45
36.062,-21.46
36.078,-24.99
36.093,-28.86
36.109,-32.59
36.125,-35.56
36.140,-37.02
36.156,-36.39
36.171,-33.42
36.187,-28.24
36.203,-21.4
36.218,-13.68
36.234,-5.87
36.250,1.52
36.265,8.27
36.281,14.39
36.296,19.96
36.312,24.88
36.328,28.89
36.343,31.71
36.359,33.16
36.375,33.31
36.390,32.47
36.406,31.02
36.421,29.27
36.437,27.4
36.453,25.42
36.468,23.31
36.484,21.07
36.500,18.84
36.515,16.8
36.531,15.1
36.546,13.75
36.562,12.66
36.578,11.63
36.593,10.41
36.609,8.8
36.625,6.71
36.640,4.22
36.656,1.46
36.671,-1.34
36.687,-4.02
36.703,-6.46
36.718,-8.72
36.734,-11.01
36.750,-13.62
36.765,-16.9
36.781,-20.95
36.796,-25.67
36.812,-30.54
36.828,-34.77
36.843,-37.5
36.859,-37.99
36.875,-35.95
36.890,-31.53
36.906,-25.27
36.921,-17.9
36.937,-10.15
36.953,-2.6
36.968,4.35
36.984,10.44
37.000,15.53
37.015,19.57
37.031,22.55
37.046,24.55
37.062,25.67
37.078,26.03
37.093,25.79
37.109,25.08
37.125,24.02
37.140,22.75
37.156,21.38
37.171,20.02
37.187,18.74
37.203,17.62
37.218,16.64
37.234,15.85
37.250,15.21
37.265,14.66
37.281,14.03
37.296,13.09
37.312,11.62
37.328,9.49
37.343,6.73
37.359,3.53
37.375,0.28
37.390,-2.71
37.406,-5.22
37.421,-7.29
37.437,-9.12
37.453,-11.08
37.468,-13.52
37.484,-16.65
37.500,-20.48
37.515,-24.77
37.531,-29.06
37.546,-32.71
37.562,-34.98
37.578,-35.23
37.593,-33.07
37.609,-28.45
37.625,-21.67
37.640,-13.4
37.656,-4.43
37.671,4.48
37.687,12.79
37.703,20.24
37.718,26.75
37.734,32.38
37.750,37.09
37.765,40.86
37.781,43.68
37.796,45.69
37.812,47.08
37.828,48.19
37.843,49.23
37.859,50.33
37.875,51.5
37.890,52.74
37.906,54.11
37.921,55.77
37.937,57.93
37.953,60.61
37.968,63.73
37.984,66.99
38.000,70.11
38.015,72.9
38.031,75.38
38.046,77.68
38.062,79.95
38.078,82.21
38.093,84.26
38.109,85.86
38.125,86.71
38.140,86.64
38.156,85.48
38.171,83.05
38.187,79.17
38.203,73.7
38.218,66.66
38.234,58.27
38.250,49.04
38.265,39.67
38.281,30.96
38.296,23.82
38.312,19.14
38.328,18.0
38.343,21.32
38.359,29.48
38.375,41.95
38.390,57.14
38.406,72.93
38.421,87.32
38.437,99.18
38.453,108.33
38.468,115.33
38.484,120.72
38.500,124.62
38.515,126.45
38.531,125.25
38.546,120.22
38.562,110.99
38.578,97.54
38.593,80.03
38.609,59.02
38.625,35.92
38.640,13.15
38.656,-6.24
38.671,-19.8
38.687,-27.03
38.703,-30.11
38.718,-33.14
38.734,-40.44
38.750,-54.56
38.765,-75.08
38.781,-98.93
38.796,-121.86
38.812,-140.36
38.828,-152.97
38.843,-160.17
38.859,-163.29
38.875,-163.12
38.890,-159.24
38.906,-150.32
38.921,-135.05
38.937,-113.15
38.953,-85.78
38.968,-55.24
38.984,-24.18
39.000,5.28
39.015,31.85
39.031,54.8
39.046,73.6
39.062,87.38
39.078,94.87
39.093,94.63
39.109,85.63
39.125,67.84
39.140,42.71
39.156,13.27
39.171,-16.24
39.187,-41.13
39.203,-57.54
39.218,-63.43
39.234,-59.11
39.250,-47.23
39.265,-31.97
39.281,-17.77
39.296,-8.2
39.312,-4.94
39.328,-7.64
39.343,-14.21
39.359,-21.86
39.375,-28.14
39.390,-31.93
39.406,-33.52
39.421,-34.08
39.437,-34.81
39.453,-36.31
39.468,-38.53
39.484,-41.14
39.500,-44.1
39.515,-47.74
39.531,-52.57
39.546,-58.68
39.562,-65.42
39.578,-71.72
39.593,-76.64
39.609,-79.93
39.625,-82.22
39.640,-84.67
39.656,-88.32
39.671,-93.68
39.687,-100.57
39.703,-108.4
39.718,-116.6
39.734,-124.76
39.750,-132.6
39.765,-139.73
39.781,-145.49
39.796,-149.01
39.812,-149.46
39.828,-146.35
39.843,-139.66
39.859,-129.92
39.875,-118.04
39.890,-105.18
39.906,-92.69
39.921,-81.74
39.937,-73.27
39.953,-67.7
39.968,-64.87
39.984,-64.18
40.000,-64.8
40.015,-65.79
40.031,-66.29
40.046,-65.53
40.062,-62.87
40.078,-57.97
40.093,-50.91
40.109,-42.34
40.125,-33.41
40.140,-25.52
40.156,-19.83
40.171,-16.93
40.187,-16.66
40.203,-18.21
40.218,-20.61
40.234,-23.0
40.250,-24.94
40.265,-26.46
40.281,-27.9
40.296,-29.57
40.312,-31.65
40.328,-34.04
40.343,-36.35
40.359,-38.1
40.375,-38.72
40.390,-37.67
40.406,-34.58
40.421,-29.27
40.437,-21.9
40.453,-13.0
40.468,-3.41
40.484,5.99
40.500,14.38
40.515,21.35
40.531,26.85
40.546,31.08
40.562,34.38
40.578,36.98
40.593,38.98
40.609,40.34
40.625,41.13
40.640,41.41
40.656,41.37
40.671,41.17
40.687,40.85
40.703,40.43
40.718,39.88
40.734,39.25
40.750,38.58
40.765,37.97
40.781,37.36
40.796,36.65
40.812,35.67
40.828,34.19
40.843,32.17
40.859,29.69
40.875,26.99
40.890,24.3
40.906,21.84
40.921,19.68
40.937,17.82
40.953,16.13
40.968,14.32
40.984,12.08
41.000,9.03
41.015,4.97
41.031,0.04
41.046,-5.2
41.062,-9.8
41.078,-12.61
41.093,-12.65
41.109,-9.47
41.125,-3.21
41.140,5.41
41.156,15.43
41.171,25.89
41.187,36.14
41.203,45.8
41.218,54.74
41.234,62.97
41.250,70.44
41.265,77.07
41.281,82.79
41.296,87.56
41.312,91.41
41.328,94.35
41.343,96.27
41.359,96.89
41.375,95.94
41.390,93.15
41.406,88.47
41.421,82.09
41.437,74.34
41.453,65.65
41.468,56.39
41.484,46.86
41.500,37.33
41.515,28.09
41.531,19.4
41.546,11.6
41.562,5.05
41.578,0.09
41.593,-2.94
41.609,-3.75
41.625,-2.34
41.640,0.98
41.656,5.49
41.671,10.16
41.687,14.02
41.703,16.5
41.718,17.64
41.734,18.1
41.750,18.89
41.765,20.92
41.781,24.61
41.796,29.75
41.812,35.61
41.828,41.26
41.843,45.8
41.859,48.5
41.875,48.85
41.890,46.57
41.906,41.61
41.921,34.26
41.937,25.16
41.953,15.27
41.968,5.62
41.984,-2.96
42.000,-9.97
42.015,-15.24
42.031,-18.82
42.046,-20.81
42.062,-21.35
42.078,-20.65
42.093,-19.07
42.109,-17.07
42.125,-15.11
42.140,-13.53
42.156,-12.46
42.171,-11.82
42.187,-11.49
42.203,-11.29
42.218,-11.13
42.234,-10.84
42.250,-10.11
42.265,-8.45
42.281,-5.28
42.296,-0.14
42.312,6.92
42.328,15.24
42.343,23.59
42.359,30.56
42.375,35.01
42.390,36.57
42.406,35.82
42.421,34.2
42.437,33.49
42.453,35.28
42.468,40.55
42.484,49.5
42.500,61.59
42.515,75.65
42.531,90.15
42.546,103.42
42.562,114.03
42.578,120.98
42.593,123.97
42.609,123.43
42.625,120.3
42.640,115.68
42.656,110.47
42.671,105.24
42.687,100.25
42.703,95.65
42.718,91.55
42.734,88.05
42.750,85.04
42.765,82.25
42.781,79.41
42.796,76.54
42.812,74.0
42.828,72.11
42.843,70.59
42.859,68.04
42.875,62.17
42.890,50.38
42.906,31.02
42.921,4.01
42.937,-29.13
42.953,-66.17
42.968,-105.33
42.984,-145.59
43.000,-186.04
43.015,-224.55
43.031,-257.06
43.046,-278.17
43.062,-283.18
43.078,-270.57
43.093,-243.37
43.109,-208.56
43.125,-174.38
43.140,-147.19
43.156,-129.37
43.171,-119.38
43.187,-113.65
43.203,-109.1
43.218,-104.65
43.234,-101.05
43.250,-99.6
43.265,-100.54
43.281,-102.61
43.296,-103.63
43.312,-101.88
43.328,-97.16
43.343,-90.97
43.359,-85.7
43.375,-83.18
43.390,-83.68
43.406,-85.57
43.421,-85.97
43.437,-81.97
43.453,-71.89
43.468,-56.18
43.484,-37.46
43.500,-19.78
43.515,-7.32
43.531,-2.98
43.546,-7.42
43.562,-18.95
43.578,-34.11
43.593,-48.91
43.609,-60.11
43.625,-65.96
43.640,-66.52
43.656,-63.28
43.671,-58.47
43.687,-54.38
43.703,-52.74
43.718,-54.45
43.734,-59.41
43.750,-66.6
43.765,-74.15
43.781,-79.84
43.796,-81.62
43.812,-78.28
43.828,-69.93
43.843,-58.08
43.859,-45.26
43.875,-34.16
43.890,-26.65
43.906,-23.13
43.921,-22.5
43.937,-22.67
43.953,-21.51
43.968,-17.66
43.984,-10.92
44.000,-2.12
44.015,7.32
44.031,15.94
44.046,22.71
44.062,27.06
44.078,28.96
44.093,28.68
44.109,26.73
44.125,23.68
44.140,20.25
44.156,17.07
44.171,14.67
44.187,13.29
44.203,12.8
44.218,12.72
44.234,12.44
44.250,11.42
44.265,9.35
44.281,6.35
44.296,2.86
44.312,-0.63
44.328,-3.67
44.343,-6.15
44.359,-8.16
44.375,-9.94
44.390,-11.72
44.406,-13.69
44.421,-16.0
44.437,-18.83
44.453,-22.37
44.468,-26.77
44.484,-31.95
44.500,-37.46
44.515,-42.43
44.531,-45.69
44.546,-46.2
44.562,-43.26
44.578,-36.76
44.593,-27.21
44.609,-15.54
44.625,-2.81
44.640,10.01
44.656,22.21
44.671,33.36
44.687,43.18
44.703,51.47
44.718,58.1
44.734,62.97
44.750,66.14
44.765,67.86
44.781,68.56
44.796,68.79
44.812,69.07
44.828,69.83
44.843,71.22
44.859,73.16
44.875,75.32
44.890,77.4
44.906,79.1
44.921,80.36
44.937,81.18
44.953,81.66
44.968,81.78
44.984,81.53
45.000,80.84
45.015,79.72
45.031,78.29
45.046,76.76
45.062,75.4
45.078,74.44
45.093,74.04
45.109,74.34
45.125,75.4
45.140,77.16
45.156,79.34
45.171,81.59
45.187,83.48
45.203,84.62
45.218,84.79
45.234,84.03
45.250,82.62
45.265,81.11
45.281,80.19
45.296,80.53
45.312,82.7
45.328,86.91
45.343,93.05
45.359,100.64
45.375,109.01
45.390,117.51
45.406,125.63
45.421,132.96
45.437,139.1
45.453,143.52
45.468,145.5
45.484,144.16
45.500,138.6
45.515,128.08
45.531,112.18
45.546,90.92
45.562,64.87
45.578,35.15
45.593,3.52
45.609,-27.67
45.625,-55.68
45.640,-77.71
45.656,-91.48
45.671,-95.79
45.687,-91.05
45.703,-79.36
45.718,-64.24
45.734,-49.77
45.750,-39.6
45.765,-35.92
45.781,-38.84
45.796,-46.58
45.812,-56.12
45.828,-64.29
45.843,-68.71
45.859,-68.33
45.875,-63.36
45.890,-54.93
45.906,-44.42
45.921,-33.03
45.937,-21.5
45.953,-10.06
45.968,1.44
45.984,13.32
46.000,25.86
46.015,38.84
46.031,51.52
46.046,62.66
46.062,71.12
46.078,76.43
46.093,79.21
46.109,81.07
46.125,84.03
46.140,89.67
46.156,98.42
46.171,109.34
46.187,120.3
46.203,128.53
46.218,131.3
46.234,126.54
46.250,113.18
46.265,91.33
46.281,62.18
46.296,27.52
46.312,-10.81
46.328,-51.55
46.343,-93.85
46.359,-136.65
46.375,-177.8
46.390,-213.72
46.406,-240.1
46.421,-253.48
46.437,-252.81
46.453,-240.1
46.468,-219.71
46.484,-196.42
46.500,-173.72
46.515,-152.91
46.531,-133.72
46.546,-115.63
46.562,-99.1
46.578,-85.7
46.593,-77.3
46.609,-74.75
46.625,-77.11
46.640,-81.78
46.656,-85.55
46.671,-85.68
46.687,-80.7
46.703,-70.7
46.718,-57.19
46.734,-42.67
46.750,-30.12
46.765,-22.31
46.781,-20.94
46.796,-26.11
46.812,-36.01
46.828,-47.44
46.843,-56.79
46.859,-61.18
46.875,-59.19
46.890,-51.09
46.906,-38.34
46.921,-22.81
46.937,-6.29
46.953,9.89
46.968,24.85
46.984,38.12
47.000,49.88
47.015,61.12
47.031,73.6
47.046,89.28
47.062,109.11
47.078,132.1
47.093,154.9
47.109,172.49
47.125,179.83
47.140,173.8
47.156,154.68
47.171,126.35
47.187,95.38
47.203,69.04
47.218,53.19
47.234,50.47
47.250,59.42
47.265,74.95
47.281,90.11
47.296,98.37
47.312,95.78
47.328,82.12
47.343,60.65
47.359,36.67
47.375,15.64
47.390,1.46
47.406,-4.4
47.421,-2.93
47.437,2.93
47.453,9.36
47.468,12.76
47.484,10.86
47.500,3.52
47.515,-7.19
47.531,-17.88
47.546,-25.1
47.562,-26.74
47.578,-22.77
47.593,-15.06
47.609,-6.59
47.625,-0.42
47.640,1.1
47.656,-3.07
47.671,-12.6
47.687,-25.64
47.703,-39.07
47.718,-49.03
47.734,-51.84
47.750,-45.34
47.765,-29.87
47.781,-8.71
47.796,12.84
47.812,29.0
47.828,35.2
47.843,29.29
47.859,11.63
47.875,-15.58
47.890,-49.32
47.906,-86.36
47.921,-123.6
47.937,-157.97
47.953,-186.61
47.968,-207.23
47.984,-218.79
48.000,-221.58
48.015,-216.92
48.031,-206.38
48.046,-191.09
48.062,-171.55
48.078,-148.17
48.093,-121.87
48.109,-94.48
48.125,-68.31
48.140,-45.39
48.156,-26.65
48.171,-11.78
48.187,0.22
48.203,10.11
48.218,17.78
48.234,22.4
48.250,23.07
48.265,19.72
48.281,13.48
48.296,6.33
48.312,0.25
48.328,-3.62
48.343,-5.3
48.359,-5.73
48.375,-6.19
48.390,-7.84
48.406,-11.58
48.421,-18.1
48.437,-27.96
48.453,-41.29
48.468,-57.4
48.484,-74.44
48.500,-89.69
48.515,-100.31
48.531,-104.38
48.546,-101.59
48.562,-93.38
48.578,-82.24
48.593,-70.74
48.609,-60.63
48.625,-52.45
48.640,-45.81
48.656,-39.83
48.671,-33.79
48.687,-27.27
48.703,-20.09
48.718,-12.02
48.734,-2.64
48.750,8.54
48.765,21.76
48.781,36.55
48.796,51.7
48.812,65.5
48.828,76.41
48.843,83.66
48.859,87.53
48.875,88.84
48.890,88.2
48.906,85.34
48.921,79.0
48.937,67.78
48.953,51.19
48.968,30.57
48.984,8.96
49.000,-9.91
49.015,-23.16
49.031,-29.89
49.046,-31.4
49.062,-30.32
49.078,-29.35
49.093,-30.21
49.109,-33.36
49.125,-38.28
49.140,-44.31
49.156,-51.05
49.171,-58.49
49.187,-66.69
49.203,-75.45
49.218,-84.02
49.234,-91.19
49.250,-95.62
49.265,-96.07
49.281,-91.83
49.296,-82.78
49.312,-69.45
49.328,-52.84
49.343,-34.24
49.359,-14.96
49.375,3.84
49.390,21.3
49.406,36.94
49.421,50.59
49.437,62.43
49.453,72.74
49.468,81.79
49.484,89.71
49.500,96.49
49.515,101.95
49.531,105.95
49.546,108.52
49.562,109.92
49.578,110.81
49.593,112.09
49.609,114.69
49.625,119.41
49.640,126.55
49.656,135.78
49.671,146.24
49.687,156.87
49.703,166.66
49.718,175.03
49.734,181.93
49.750,187.6
49.765,192.39
49.781,196.45
49.796,199.63
49.812,201.53
49.828,201.81
49.843,200.19
49.859,196.73
49.875,191.7
49.890,185.55
49.906,178.85
49.921,172.04
49.937,165.07
49.953,157.09
49.968,146.49
49.984,131.33
50.000,110.3
50.015,83.71
50.031,53.81
50.046,24.5
50.062,-0.04
50.078,-16.67
50.093,-24.1
50.109,-22.85
50.125,-14.68
50.140,-1.78
50.156,13.39
50.171,27.77
50.187,37.67
50.203,38.92
50.218,28.0
50.234,3.12
50.250,-34.99
50.265,-83.01
50.281,-135.5
50.296,-185.96
50.312,-228.04
50.328,-256.82
50.343,-270.1
50.359,-268.91
50.375,-257.25
50.390,-240.9
50.406,-225.35
50.421,-213.91
50.437,-206.86
50.453,-202.04
50.468,-196.4
50.484,-187.93
50.500,-176.49
50.515,-163.61
50.531,-151.5
50.546,-141.78
50.562,-134.93
50.578,-130.44
50.593,-127.28
50.609,-124.46
50.625,-121.43
50.640,-117.96
50.656,-113.92
50.671,-109.18
50.687,-103.59
50.703,-97.23
50.718,-90.68
50.734,-84.86
50.750,-80.68
50.765,-78.41
50.781,-77.16
50.796,-74.87
50.812,-68.76
50.828,-56.33
50.843,-36.63
50.859,-11.08
50.875,16.62
50.890,41.57
50.906,59.37
50.921,67.72
50.937,67.11
50.953,60.46
50.968,51.95
50.984,45.13
51.000,41.75
51.015,41.31
51.031,41.68
51.046,40.25
51.062,35.24
51.078,26.4
51.093,14.96
51.109,2.96
51.125,-7.84
51.140,-16.54
51.156,-23.27
51.171,-28.64
51.187,-33.12
51.203,-36.5
51.218,-38.1
51.234,-37.27
51.250,-34.02
51.265,-29.3
51.281,-24.59
51.296,-21.19
51.312,-19.71
51.328,-19.82
51.343,-20.58
51.359,-21.01
51.375,-20.54
51.390,-19.24
51.406,-17.56
51.421,-16.04
51.437,-14.95
51.453,-14.26
51.468,-13.76
51.484,-13.31
51.500,-12.94
51.515,-12.76
51.531,-12.67
51.546,-12.08
51.562,-9.79
51.578,-4.25
51.593,5.88
51.609,21.23
51.625,41.42
51.640,65.06
51.656,90.25
51.671,115.18
51.687,138.58
51.703,159.93
51.718,179.31
51.734,197.16
51.750,214.07
51.765,230.51
51.781,246.53
51.796,261.48
51.812,273.98
51.828,282.02
51.843,283.73
51.859,278.12
51.875,265.82
51.890,249.41
51.906,232.8
51.921,220.14
51.937,214.42
51.953,216.54
51.968,224.91
51.984,235.98
52.000,245.45
52.015,249.58
52.031,246.5
52.046,236.68
52.062,222.81
52.078,208.81
52.093,198.41
52.109,193.57
52.125,193.66
52.140,195.41
52.156,193.99
52.171,184.62
52.187,164.21
52.203,132.41
52.218,91.92
52.234,47.89
52.250,6.65
52.265,-25.96
52.281,-46.33
52.296,-54.43
52.312,-53.88
52.328,-50.78
52.343,-51.35
52.359,-59.44
52.375,-75.27
52.390,-95.55
52.406,-115.27
52.421,-129.78
52.437,-136.37
52.453,-134.55
52.468,-125.46
52.484,-111.05
52.500,-93.58
52.515,-75.59
52.531,-59.57
52.546,-47.48
52.562,-39.89
52.578,-35.42
52.593,-31.23
52.609,-24.37
52.625,-13.47
52.640,0.23
52.656,13.16
52.671,21.04
52.687,20.64
52.703,11.07
52.718,-6.3
52.734,-28.92
52.750,-54.18
52.765,-79.99
52.781,-104.25
52.796,-124.21
52.812,-136.11
52.828,-136.26
52.843,-122.78
52.859,-97.24
52.875,-64.79
52.890,-32.54
52.906,-7.07
52.921,7.87
52.937,11.98
52.953,7.64
52.968,-1.78
52.984,-13.33
53.000,-25.17
53.015,-36.6
53.031,-47.81
53.046,-59.71
53.062,-73.49
53.078,-89.91
53.093,-108.18
53.109,-125.29
53.125,-136.47
53.140,-136.99
53.156,-124.67
53.171,-101.7
53.187,-74.43
53.203,-51.01
53.218,-37.99
53.234,-37.67
53.250,-47.71
53.265,-63.17
53.281,-79.42
53.296,-94.44
53.312,-108.84
53.328,-124.02
53.343,-139.84
53.359,-153.47
53.375,-160.36
53.390,-156.69
53.406,-141.94
53.421,-119.8
53.437,-97.01
53.453,-80.6
53.468,-75.02
53.484,-80.75
53.500,-94.87
53.515,-113.0
53.531,-131.31
53.546,-147.71
53.562,-161.62
53.578,-173.02
53.593,-181.46
53.609,-185.75
53.625,-184.59
53.640,-177.36
53.656,-164.9
53.671,-149.58
53.687,-134.47
53.703,-122.28
53.718,-114.39
53.734,-110.67
53.750,-109.96
53.765,-110.8
53.781,-112.25
53.796,-114.11
53.812,-116.7
53.828,-120.24
53.843,-124.37
53.859,-127.81
53.875,-128.78
53.890,-125.48
53.906,-116.88
53.921,-103.04
53.937,-85.07
53.953,-64.61
53.968,-43.27
53.984,-22.15
54.000,-1.79
54.015,17.6
54.031,35.76
54.046,52.26
54.062,66.53
54.078,78.05
54.093,86.78
54.109,93.21
54.125,98.28
54.140,103.08
54.156,108.35
54.171,114.23
54.187,120.2
54.203,125.39
54.218,129.0
54.234,130.71
54.250,130.75
54.265,129.66
54.281,127.85
54.296,125.34
54.312,121.74
54.328,116.64
54.343,109.92
54.359,101.99
54.375,93.66
54.390,85.85
54.406,79.34
54.421,74.56
54.437,71.7
54.453,70.67
54.468,71.19
54.484,72.76
54.500,74.78
54.515,76.78
54.531,78.68
54.546,80.96
54.562,84.56
54.578,90.58
54.593,99.74
54.609,112.09
54.625,126.87
54.640,142.76
54.656,158.26
54.671,172.16
54.687,184.08
54.703,194.64
54.718,205.39
54.734,217.93
54.750,232.83
54.765,248.47
54.781,260.8
54.796,264.38
54.812,254.5
54.828,229.68
54.843,192.83
54.859,150.95
54.875,112.81
54.890,85.87
54.906,73.54
54.921,74.04
54.937,81.43
54.953,87.82
54.968,86.32
54.984,72.89
55.000,46.75
55.015,9.46
55.031,-36.37
55.046,-87.75
55.062,-141.14
55.078,-191.82
55.093,-234.21
55.109,-263.21
55.125,-276.61
55.140,-276.63
55.156,-269.79
55.171,-264.35
55.187,-266.67
55.203,-278.6
55.218,-297.1
55.234,-316.53
55.250,-331.78
55.265,-340.45
55.281,-342.92
55.296,-340.72
55.312,-334.71
55.328,-324.15
55.343,-307.58
55.359,-284.12
55.375,-254.62
55.390,-221.46
55.406,-187.62
55.421,-155.42
55.437,-125.7
55.453,-98.02
55.468,-71.52
55.484,-45.89
55.500,-21.84
55.515,-0.92
55.531,15.21
55.546,25.64
55.562,30.59
55.578,31.49
55.593,30.47
55.609,29.64
55.625,30.41
55.640,33.26
55.656,37.68
55.671,42.67
55.687,47.17
55.703,50.39
55.718,52.03
55.734,52.18
55.750,51.19
55.765,49.41
55.781,47.03
55.796,44.0
55.812,40.07
55.828,35.01
55.843,28.81
55.859,21.81
55.875,14.69
55.890,8.17
55.906,2.73
55.921,-1.62
55.937,-5.44
55.953,-9.57
55.968,-14.77
55.984,-21.38
56.000,-29.17
56.015,-37.36
56.031,-44.83
56.046,-50.25
56.062,-52.31
56.078,-49.91
56.093,-42.35
56.109,-29.53
56.125,-12.08
56.140,8.66
56.156,31.0
56.171,53.25
56.187,74.27
56.203,93.5
56.218,110.89
56.234,126.61
56.250,140.71
56.265,153.04
56.281,163.31
56.296,171.36
56.312,177.34
56.328,181.79
56.343,185.39
56.359,188.76
56.375,192.22
56.390,195.76
56.406,199.17
56.421,202.25
56.437,204.98
56.453,207.41
56.468,209.42
56.484,210.56
56.500,209.95
56.515,206.64
56.531,199.88
56.546,189.47
56.562,175.56
56.578,158.45
56.593,138.26
56.609,115.03
56.625,89.07
56.640,61.41
56.656,33.78
56.671,8.09
56.687,-14.27
56.703,-33.25
56.718,-50.03
56.734,-66.41
56.750,-83.81
56.765,-102.55
56.781,-121.78
56.796,-139.93
56.812,-155.22
56.828,-165.83
56.843,-169.97
56.859,-165.99
56.875,-152.81
56.890,-130.81
56.906,-102.34
56.921,-71.64
56.937,-43.64
56.953,-22.37
56.968,-9.62
56.984,-4.68
57.000,-4.96
57.015,-7.37
57.031,-9.46
57.046,-9.96
57.062,-8.63
57.078,-5.69
57.093,-1.38
57.109,4.24
57.125,11.06
57.140,18.82
57.156,27.06
57.171,35.28
57.187,43.17
57.203,50.77
57.218,58.48
57.234,66.81
57.250,76.06
57.265,86.05
57.281,95.97
57.296,104.58
57.312,110.53
57.328,112.71
57.343,110.55
57.359,104.04
57.375,93.76
57.390,80.63
57.406,65.84
57.421,50.68
57.437,36.38
57.453,23.9
57.468,13.73
57.484,5.7
57.500,-1.05
57.515,-7.76
57.531,-15.61
57.546,-25.2
57.562,-36.35
57.578,-48.13
57.593,-59.24
57.609,-68.48
57.625,-74.96
57.640,-78.1
57.656,-77.58
57.671,-73.28
57.687,-65.47
57.703,-54.85
57.718,-42.29
57.734,-28.35
57.750,-12.81
57.765,5.56
57.781,28.2
57.796,55.47
57.812,85.45
57.828,113.75
57.843,134.59
57.859,143.12
57.875,137.32
57.890,119.03
57.906,93.29
57.921,66.32
57.937,43.34
57.953,27.02
57.968,17.35
57.984,12.43
58.000,9.96
58.015,8.06
58.031,5.65
58.046,2.31
58.062,-2.05
58.078,-7.14
58.093,-12.15
58.109,-15.72
58.125,-16.5
58.140,-14.02
58.156,-9.63
58.171,-6.5
58.187,-8.51
58.203,-18.51
58.218,-36.79
58.234,-60.79
58.250,-86.27
58.265,-109.32
58.281,-127.75
58.296,-141.56
58.312,-151.9
58.328,-159.9
58.343,-165.94
58.359,-169.65
58.375,-170.5
58.390,-168.19
58.406,-162.5
58.421,-152.85
58.437,-138.07
58.453,-116.72
58.468,-88.02
58.484,-52.9
58.500,-14.16
58.515,23.83
58.531,56.08
58.546,78.32
58.562,87.85
58.578,84.19
58.593,69.33
58.609,47.33
58.625,23.48
58.640,3.17
58.656,-9.58
58.671,-13.15
58.687,-8.49
58.703,1.63
58.718,13.97
58.734,26.16
58.750,37.29
58.765,47.66
58.781,58.0
58.796,68.64
58.812,79.18
58.828,88.76
58.843,96.7
58.859,102.97
58.875,108.15
58.890,113.02
58.906,117.87
58.921,122.23
58.937,124.87
58.953,124.42
58.968,120.08
58.984,111.92
59.000,100.85
59.015,88.26
59.031,75.47
59.046,63.47
59.062,52.84
59.078,43.65
59.093,35.51
59.109,27.54
59.125,18.56
59.140,7.44
59.156,-6.2
59.171,-21.67
59.187,-37.22
59.203,-50.72
59.218,-60.66
59.234,-66.9
59.250,-70.53
59.265,-73.07
59.281,-75.32
59.296,-76.5
59.312,-74.43
59.328,-66.48
59.343,-50.84
59.359,-27.73
59.375,0.26
59.390,28.67
59.406,52.44
59.421,67.37
59.437,71.2
59.453,64.03
59.468,47.98
59.484,26.58
59.500,4.07
59.515,-15.3
59.531,-27.81
59.546,-30.97
59.562,-24.36
59.578,-10.0
59.593,7.83
59.609,23.85
59.625,33.72
59.640,35.73
59.656,31.52
59.671,25.23
59.687,21.51
59.703,23.42
59.718,31.11
59.734,41.99
59.750,52.05
59.765,57.56
59.781,56.45
59.796,48.81
59.812,36.5
59.828,22.13
59.843,8.11
59.859,-3.98
59.875,-13.43
59.890,-20.04
59.906,-23.66
59.921,-24.03
59.937,-20.89
59.953,-14.23
59.968,-4.8
59.984,5.91
