timestamp,value
00.000,12.88
00.015,10.96
00.031,8.33
00.046,4.44
00.062,-0.96
00.078,-7.61
00.093,-14.92
00.109,-22.16
00.125,-28.81
00.140,-34.71
00.156,-40.1
00.171,-45.46
00.187,-51.25
00.203,-57.85
00.218,-65.31
00.234,-73.36
00.250,-81.22
00.265,-87.66
00.281,-91.14
00.296,-90.24
00.312,-84.15
00.328,-72.96
00.343,-57.74
00.359,-40.08
00.375,-21.61
00.390,-3.5
00.406,13.64
00.421,29.62
00.437,44.27
00.453,57.28
00.468,68.12
00.484,76.34
00.500,81.77
00.515,84.64
00.531,85.44
00.546,84.8
00.562,83.25
00.578,81.15
00.593,78.68
00.609,75.96
00.625,73.07
00.640,70.11
00.656,67.18
00.671,64.39
00.687,61.8
00.703,59.42
00.718,57.13
00.734,54.69
00.750,51.8
00.765,48.18
00.781,43.75
00.796,38.65
00.812,33.18
00.828,27.66
00.843,22.27
00.859,16.92
00.875,11.36
00.890,5.28
00.906,-1.42
00.921,-8.56
00.937,-15.73
00.953,-22.44
00.968,-28.41
00.984,-33.67
01.000,-38.57
01.015,-43.54
01.031,-49.0
01.046,-55.22
01.062,-62.33
01.078,-70.35
01.093,-79.08
01.109,-87.91
01.125,-95.75
01.140,-101.08
01.156,-102.17
01.171,-97.7
01.187,-87.13
01.203,-71.01
01.218,-50.79
01.234,-28.39
01.250,-5.6
01.265,16.31
01.281,36.62
01.296,55.1
01.312,71.69
01.328,86.3
01.343,98.77
01.359,109.01
01.375,117.16
01.390,123.69
01.406,129.32
01.421,134.78
01.437,140.57
01.453,146.74
01.468,152.96
01.484,158.67
01.500,163.27
01.515,166.46
01.531,168.24
01.546,168.97
01.562,169.17
01.578,169.25
01.593,169.25
01.609,168.71
01.625,166.8
01.640,162.63
01.656,155.69
01.671,146.07
01.687,134.55
01.703,122.23
01.718,110.0
01.734,98.16
01.750,86.34
01.765,73.78
01.781,59.8
01.796,44.16
01.812,27.02
01.828,8.96
01.843,-9.45
01.859,-27.84
01.875,-45.86
01.890,-62.95
01.906,-78.25
01.921,-91.03
01.937,-101.38
01.953,-110.67
01.968,-121.32
01.984,-135.86
02.000,-155.68
02.015,-179.96
02.031,-205.72
02.046,-228.75
02.062,-245.12
02.078,-252.46
02.093,-250.49
02.109,-240.54
02.125,-224.73
02.140,-205.09
02.156,-183.22
02.171,-160.37
02.187,-137.76
02.203,-116.55
02.218,-97.81
02.234,-82.2
02.250,-69.86
02.265,-60.42
02.281,-53.08
02.296,-46.9
02.312,-41.18
02.328,-35.46
02.343,-29.57
02.359,-23.49
02.375,-17.25
02.390,-10.92
02.406,-4.48
02.421,2.07
02.437,8.7
02.453,15.15
02.468,21.1
02.484,26.15
02.500,30.03
02.515,32.64
02.531,34.05
02.546,34.51
02.562,34.31
02.578,33.63
02.593,32.54
02.609,30.92
02.625,28.67
02.640,25.72
02.656,22.13
02.671,18.06
02.687,13.73
02.703,9.39
02.718,5.13
02.734,0.98
02.750,-3.16
02.765,-7.37
02.781,-11.8
02.796,-16.43
02.812,-21.19
02.828,-25.94
02.843,-30.49
02.859,-34.8
02.875,-39.02
02.890,-43.54
02.906,-48.82
02.921,-55.3
02.937,-62.95
02.953,-71.26
02.968,-79.11
02.984,-84.99
03.000,-87.41
03.015,-85.26
03.031,-78.2
03.046,-66.63
03.062,-51.64
03.078,-34.6
03.093,-16.89
03.109,0.4
03.125,16.53
03.140,30.99
03.156,43.52
03.171,53.89
03.187,61.89
03.203,67.44
03.218,70.64
03.234,71.84
03.250,71.62
03.265,70.72
03.281,69.79
03.296,69.29
03.312,69.33
03.328,69.76
03.343,70.28
03.359,70.58
03.375,70.49
03.390,69.91
03.406,68.79
03.421,67.08
03.437,64.77
03.453,61.87
03.468,58.5
03.484,54.83
03.500,50.96
03.515,46.91
03.531,42.64
03.546,38.08
03.562,33.29
03.578,28.4
03.593,23.53
03.609,18.73
03.625,13.92
03.640,8.94
03.656,3.7
03.671,-1.76
03.687,-7.25
03.703,-12.51
03.718,-17.41
03.734,-21.98
03.750,-26.4
03.765,-30.95
03.781,-35.94
03.796,-41.64
03.812,-48.24
03.828,-55.84
03.843,-64.19
03.859,-72.61
03.875,-79.93
03.890,-84.59
03.906,-85.16
03.921,-80.63
03.937,-70.9
03.953,-56.75
03.968,-39.67
03.984,-21.46
04.000,-3.74
04.015,12.33
04.031,26.17
04.046,37.57
04.062,46.55
04.078,53.19
04.093,57.59
04.109,59.92
04.125,60.49
04.140,59.81
04.156,58.47
04.171,57.08
04.187,56.02
04.203,55.42
04.218,55.2
04.234,55.12
04.250,55.0
04.265,54.73
04.281,54.26
04.296,53.52
04.312,52.39
04.328,50.67
04.343,48.21
04.359,45.0
04.375,41.17
04.390,37.0
04.406,32.77
04.421,28.63
04.437,24.53
04.453,20.35
04.468,15.95
04.484,11.33
04.500,6.6
04.515,1.88
04.531,-2.72
04.546,-7.26
04.562,-11.87
04.578,-16.76
04.593,-22.04
04.609,-27.75
04.625,-33.77
04.640,-39.85
04.656,-45.72
04.671,-51.19
04.687,-56.18
04.703,-60.89
04.718,-65.66
04.734,-70.9
04.750,-76.97
04.765,-84.01
04.781,-91.78
04.796,-99.58
04.812,-106.26
04.828,-110.31
04.843,-110.25
04.859,-105.01
04.875,-94.32
04.890,-78.9
04.906,-60.25
04.921,-40.28
04.937,-20.73
04.953,-2.83
04.968,12.87
04.984,26.29
05.000,37.64
05.015,47.1
05.031,54.81
05.046,60.88
05.062,65.44
05.078,68.73
05.093,71.05
05.109,72.73
05.125,74.02
05.140,75.12
05.156,76.11
05.171,77.04
05.187,77.93
05.203,78.82
05.218,79.72
05.234,80.58
05.250,81.22
05.265,81.38
05.281,80.72
05.296,78.96
05.312,76.03
05.328,72.09
05.343,67.49
05.359,62.7
05.375,58.03
05.390,53.67
05.406,49.52
05.421,45.33
05.437,40.79
05.453,35.55
05.468,29.35
05.484,21.97
05.500,13.35
05.515,3.49
05.531,-7.41
05.546,-19.01
05.562,-30.83
05.578,-42.33
05.593,-52.98
05.609,-62.36
05.625,-70.15
05.640,-76.19
05.656,-80.56
05.671,-83.59
05.687,-85.84
05.703,-88.02
05.718,-90.67
05.734,-93.92
05.750,-97.27
05.765,-99.6
05.781,-99.52
05.796,-95.83
05.812,-87.93
05.828,-76.12
05.843,-61.46
05.859,-45.54
05.875,-29.9
05.890,-15.76
05.906,-3.75
05.921,6.02
05.937,13.77
05.953,19.77
05.968,24.2
05.984,27.16
06.000,28.77
06.015,29.37
06.031,29.44
06.046,29.53
06.062,29.98
06.078,30.79
06.093,31.55
06.109,31.69
06.125,30.77
06.140,28.78
06.156,26.15
06.171,23.67
06.187,22.11
06.203,21.89
06.218,22.97
06.234,24.91
06.250,27.06
06.265,28.85
06.281,29.84
06.296,29.85
06.312,28.88
06.328,27.04
06.343,24.58
06.359,21.84
06.375,19.16
06.390,16.82
06.406,14.88
06.421,13.09
06.437,11.08
06.453,8.49
06.468,5.21
06.484,1.43
06.500,-2.43
06.515,-5.93
06.531,-8.83
06.546,-11.2
06.562,-13.33
06.578,-15.67
06.593,-18.65
06.609,-22.5
06.625,-27.06
06.640,-31.63
06.656,-34.98
06.671,-35.51
06.687,-31.72
06.703,-22.63
06.718,-8.22
06.734,10.55
06.750,31.97
06.765,54.11
06.781,75.25
06.796,94.25
06.812,110.62
06.828,124.33
06.843,135.54
06.859,144.4
06.875,150.9
06.890,154.87
06.906,156.13
06.921,154.69
06.937,150.84
06.953,145.18
06.968,138.56
06.984,131.91
07.000,126.0
07.015,121.22
07.031,117.57
07.046,114.61
07.062,111.57
07.078,107.48
07.093,101.26
07.109,91.91
07.125,78.63
07.140,60.98
07.156,39.04
07.171,13.47
07.187,-14.6
07.203,-43.81
07.218,-73.03
07.234,-101.61
07.250,-129.63
07.265,-157.45
07.281,-185.35
07.296,-212.84
07.312,-238.65
07.328,-261.05
07.343,-278.68
07.359,-291.32
07.375,-300.11
07.390,-307.27
07.406,-315.13
07.421,-325.27
07.437,-337.97
07.453,-352.3
07.468,-366.44
07.484,-377.96
07.500,-384.03
07.515,-381.7
07.531,-368.28
07.546,-341.96
07.562,-302.43
07.578,-251.22
07.593,-191.71
07.609,-128.58
07.625,-67.03
07.640,-11.97
07.656,32.77
07.671,64.94
07.687,84.23
07.703,92.3
07.718,92.37
07.734,88.37
07.750,83.86
07.765,81.04
07.781,80.34
07.796,80.73
07.812,80.52
07.828,78.42
07.843,74.18
07.859,68.85
07.875,64.24
07.890,62.23
07.906,63.92
07.921,69.28
07.937,77.3
07.953,86.61
07.968,96.09
07.984,105.18
08.000,113.93
08.015,122.56
08.031,131.06
08.046,138.88
08.062,145.05
08.078,148.49
08.093,148.53
08.109,145.09
08.125,138.47
08.140,129.01
08.156,116.75
08.171,101.51
08.187,83.45
08.203,63.5
08.218,43.17
08.234,23.58
08.250,4.33
08.265,-16.65
08.281,-41.62
08.296,-70.89
08.312,-100.99
08.328,-125.15
08.343,-135.67
08.359,-127.48
08.375,-100.44
08.390,-59.27
08.406,-11.33
08.421,36.43
08.437,79.36
08.453,115.18
08.468,142.75
08.484,160.88
08.500,168.09
08.515,163.48
08.531,147.78
08.546,123.59
08.562,95.0
08.578,66.39
08.593,41.26
08.609,21.52
08.625,7.27
08.640,-2.94
08.656,-11.44
08.671,-20.45
08.687,-31.4
08.703,-44.36
08.718,-58.28
08.734,-71.6
08.750,-83.02
08.765,-91.98
08.781,-98.75
08.796,-104.05
08.812,-108.57
08.828,-112.77
08.843,-116.8
08.859,-120.64
08.875,-124.32
08.890,-127.88
08.906,-131.44
08.921,-135.02
08.937,-138.47
08.953,-141.4
08.968,-143.33
08.984,-143.86
09.000,-142.95
09.015,-140.89
09.031,-138.25
09.046,-135.58
09.062,-132.99
09.078,-129.94
09.093,-125.19
09.109,-117.08
09.125,-104.1
09.140,-85.44
09.156,-61.37
09.171,-33.3
09.187,-3.53
09.203,25.52
09.218,51.89
09.234,74.63
09.250,93.8
09.265,110.11
09.281,124.3
09.296,136.66
09.312,146.79
09.328,153.85
09.343,157.04
09.359,156.3
09.375,152.52
09.390,147.51
09.406,143.35
09.421,141.57
09.437,142.59
09.453,145.57
09.468,148.79
09.484,150.46
09.500,149.31
09.515,145.03
09.531,138.33
09.546,130.49
09.562,123.07
09.578,117.32
09.593,113.67
09.609,111.09
09.625,106.84
09.640,96.99
09.656,77.96
09.671,48.3
09.687,9.86
09.703,-32.42
09.718,-72.15
09.734,-103.55
09.750,-123.01
09.765,-129.72
09.781,-125.51
09.796,-114.12
09.812,-100.49
09.828,-89.8
09.843,-86.08
09.859,-90.92
09.875,-102.69
09.890,-116.97
09.906,-128.32
09.921,-132.61
09.937,-128.63
09.953,-118.15
09.968,-104.64
09.984,-91.47
10.000,-80.79
10.015,-73.5
10.031,-69.69
10.046,-69.11
10.062,-71.09
10.078,-74.32
10.093,-76.76
10.109,-76.14
10.125,-70.65
10.140,-59.77
10.156,-44.44
10.171,-26.84
10.187,-9.61
10.203,4.96
10.218,15.53
10.234,21.98
10.250,25.15
10.265,26.42
10.281,27.1
10.296,27.98
10.312,29.24
10.328,30.55
10.343,31.35
10.359,31.12
10.375,29.56
10.390,26.58
10.406,22.3
10.421,16.99
10.437,10.96
10.453,4.52
10.468,-2.1
10.484,-8.81
10.500,-15.66
10.515,-22.81
10.531,-30.51
10.546,-39.01
10.562,-48.46
10.578,-58.88
10.593,-69.86
10.609,-80.46
10.625,-89.1
10.640,-93.75
10.656,-92.48
10.671,-84.11
10.687,-68.69
10.703,-47.55
10.718,-22.9
10.734,2.84
10.750,27.68
10.765,50.38
10.781,70.3
10.796,87.16
10.812,100.76
10.828,110.93
10.843,117.7
10.859,121.37
10.875,122.58
10.890,122.09
10.906,120.51
10.921,118.14
10.937,114.98
10.953,110.85
10.968,105.65
10.984,99.42
11.000,92.43
11.015,85.1
11.031,77.84
11.046,70.91
11.062,64.38
11.078,58.16
11.093,52.09
11.109,46.11
11.125,40.34
11.140,35.05
11.156,30.54
11.171,26.95
11.187,24.25
11.203,22.34
11.218,21.2
11.234,20.84
11.250,21.4
11.265,22.82
11.281,24.72
11.296,26.37
11.312,26.82
11.328,25.18
11.343,20.86
11.359,13.72
11.375,4.22
11.390,-6.59
11.406,-17.15
11.421,-25.6
11.437,-30.21
11.453,-29.85
11.468,-24.43
11.484,-14.95
11.500,-3.09
11.515,9.44
11.531,21.6
11.546,33.24
11.562,45.05
11.578,57.93
11.593,72.32
11.609,87.76
11.625,102.9
11.640,115.9
11.656,125.14
11.671,129.83
11.687,130.2
11.703,127.37
11.718,122.91
11.734,118.31
11.750,114.71
11.765,112.75
11.781,112.1
11.796,111.3
11.812,107.82
11.828,99.08
11.843,83.69
11.859,62.57
11.875,38.96
11.890,17.29
11.906,1.55
11.921,-6.19
11.937,-6.33
11.953,-1.37
11.968,5.01
11.984,8.98
12.000,7.31
12.015,-2.13
12.031,-20.05
12.046,-45.73
12.062,-77.32
12.078,-112.47
12.093,-149.14
12.109,-186.08
12.125,-222.76
12.140,-258.96
12.156,-294.26
12.171,-327.81
12.187,-358.27
12.203,-383.67
12.218,-401.31
12.234,-407.74
12.250,-399.62
12.265,-374.89
12.281,-334.02
12.296,-280.58
12.312,-220.5
12.328,-160.45
12.343,-106.07
12.359,-60.76
12.375,-25.54
12.390,0.33
12.406,18.43
12.421,30.55
12.437,38.4
12.453,43.61
12.468,47.8
12.484,52.45
12.500,58.69
12.515,67.03
12.531,77.24
12.546,88.41
12.562,99.45
12.578,109.49
12.593,118.18
12.609,125.79
12.625,132.9
12.640,140.01
12.656,147.24
12.671,154.19
12.687,160.2
12.703,164.68
12.718,167.34
12.734,168.32
12.750,168.05
12.765,167.1
12.781,165.9
12.796,164.78
12.812,163.86
12.828,163.18
12.843,162.58
12.859,161.49
12.875,158.92
12.890,153.55
12.906,144.11
12.921,129.88
12.937,111.15
12.953,89.13
12.968,65.89
12.984,43.87
13.000,25.57
13.015,13.28
13.031,8.83
13.046,13.22
13.062,26.21
13.078,46.11
13.093,69.68
13.109,92.88
13.125,111.72
13.140,123.3
13.156,126.56
13.171,122.12
13.187,111.7
13.203,97.28
13.218,80.33
13.234,61.6
13.250,41.42
13.265,20.2
13.281,-1.06
13.296,-20.6
13.312,-36.28
13.328,-46.11
13.343,-48.9
13.359,-44.75
13.375,-35.1
13.390,-22.42
13.406,-9.74
13.421,0.07
13.437,5.09
13.453,4.67
13.468,-0.45
13.484,-8.52
13.500,-17.39
13.515,-25.25
13.531,-31.23
13.546,-35.66
13.562,-39.97
13.578,-46.23
13.593,-56.69
13.609,-73.12
13.625,-96.1
13.640,-124.63
13.656,-156.09
13.671,-187.02
13.687,-214.36
13.703,-236.8
13.718,-255.44
13.734,-273.47
13.750,-294.56
13.765,-320.73
13.781,-350.71
13.796,-379.79
13.812,-401.2
13.828,-408.64
13.843,-398.59
13.859,-371.35
13.875,-330.43
13.890,-280.85
13.906,-227.36
13.921,-173.45
13.937,-121.42
13.953,-73.0
13.968,-29.91
13.984,6.23
14.000,34.42
14.015,55.04
14.031,69.91
14.046,81.82
14.062,93.4
14.078,106.26
14.093,120.53
14.109,135.18
14.125,148.69
14.140,159.8
14.156,168.13
14.171,174.08
14.187,178.61
14.203,182.64
14.218,186.55
14.234,190.06
14.250,192.3
14.265,192.25
14.281,189.08
14.296,182.59
14.312,173.1
14.328,161.41
14.343,148.47
14.359,135.16
14.375,122.11
14.390,109.61
14.406,97.6
14.421,85.89
14.437,74.35
14.453,63.1
14.468,52.5
14.484,42.95
14.500,34.66
14.515,27.47
14.531,20.77
14.546,13.76
14.562,5.62
14.578,-4.23
14.593,-16.07
14.609,-29.68
14.625,-44.31
14.640,-58.52
14.656,-70.19
14.671,-76.91
14.687,-76.6
14.703,-68.26
14.718,-52.47
14.734,-31.25
14.750,-7.42
14.765,16.35
14.781,38.31
14.796,57.93
14.812,75.59
14.828,91.88
14.843,107.02
14.859,120.54
14.875,131.59
14.890,139.41
14.906,143.76
14.921,145.02
14.937,143.84
14.953,140.77
14.968,135.99
14.984,129.47
15.000,121.25
15.015,111.58
15.031,100.84
15.046,89.26
15.062,76.71
15.078,62.7
15.093,46.83
15.109,29.32
15.125,11.3
15.140,-5.35
15.156,-18.49
15.171,-26.2
15.187,-27.25
15.203,-21.17
15.218,-8.42
15.234,9.54
15.250,30.12
15.265,49.72
15.281,64.41
15.296,70.84
15.312,67.36
15.328,54.53
15.343,35.19
15.359,13.41
15.375,-6.93
15.390,-23.64
15.406,-37.14
15.421,-50.46
15.437,-68.11
15.453,-94.22
15.468,-130.17
15.484,-173.08
15.500,-215.75
15.515,-248.54
15.531,-262.58
15.546,-253.07
15.562,-221.09
15.578,-173.19
15.593,-118.96
15.609,-67.71
15.625,-25.79
15.640,4.38
15.656,23.61
15.671,34.08
15.687,37.71
15.703,35.48
15.718,27.82
15.734,15.68
15.750,1.2
15.765,-12.52
15.781,-22.52
15.796,-27.32
15.812,-27.73
15.828,-26.63
15.843,-27.47
15.859,-32.49
15.875,-41.57
15.890,-52.36
15.906,-61.5
15.921,-66.37
15.937,-66.36
15.953,-62.86
15.968,-58.4
15.984,-55.26
16.000,-54.56
16.015,-56.06
16.031,-58.68
16.046,-61.31
16.062,-63.33
16.078,-64.83
16.093,-66.29
16.109,-68.27
16.125,-71.04
16.140,-74.55
16.156,-78.56
16.171,-82.94
16.187,-87.88
16.203,-93.88
16.218,-101.54
16.234,-111.18
16.250,-122.4
16.265,-133.76
16.281,-142.95
16.296,-147.27
16.312,-144.43
16.328,-133.36
16.343,-114.6
16.359,-90.21
16.375,-62.97
16.390,-35.66
16.406,-10.3
16.421,12.1
16.437,31.34
16.453,47.64
16.468,61.26
16.484,72.37
16.500,81.11
16.515,87.79
16.531,92.86
16.546,96.82
16.562,100.11
16.578,102.88
16.593,105.08
16.609,106.52
16.625,107.02
16.640,106.56
16.656,105.27
16.671,103.35
16.687,100.92
16.703,98.01
16.718,94.46
16.734,90.07
16.750,84.67
16.765,78.27
16.781,71.14
16.796,63.7
16.812,56.34
16.828,49.26
16.843,42.33
16.859,35.13
16.875,27.17
16.890,18.16
16.906,8.19
16.921,-2.21
16.937,-12.25
16.953,-21.24
16.968,-28.78
16.984,-35.04
17.000,-40.69
17.015,-46.64
17.031,-53.76
17.046,-62.62
17.062,-73.21
17.078,-84.84
17.093,-96.14
17.109,-105.16
17.125,-109.77
17.140,-108.21
17.156,-99.57
17.171,-84.22
17.187,-63.74
17.203,-40.41
17.218,-16.63
17.234,5.74
17.250,25.7
17.265,42.95
17.281,57.6
17.296,69.69
17.312,79.18
17.328,85.91
17.343,89.94
17.359,91.63
17.375,91.63
17.390,90.69
17.406,89.42
17.421,88.15
17.437,86.91
17.453,85.52
17.468,83.88
17.484,81.98
17.500,79.99
17.515,78.12
17.531,76.53
17.546,75.03
17.562,73.22
17.578,70.58
17.593,66.63
17.609,61.27
17.625,54.81
17.640,47.92
17.656,41.4
17.671,35.79
17.687,31.16
17.703,27.09
17.718,22.9
17.734,17.98
17.750,12.07
17.765,5.43
17.781,-1.26
17.796,-7.2
17.812,-11.67
17.828,-14.39
17.843,-15.52
17.859,-15.67
17.875,-15.79
17.890,-16.8
17.906,-19.28
17.921,-23.03
17.937,-26.9
17.953,-28.82
17.968,-26.27
17.984,-17.02
18.000,0.07
18.015,24.56
18.031,54.36
18.046,86.1
18.062,115.87
18.078,139.98
18.093,155.65
18.109,161.5
18.125,157.65
18.140,145.58
18.156,127.74
18.171,107.03
18.187,86.25
18.203,67.66
18.218,52.75
18.234,42.09
18.250,35.41
18.265,31.78
18.281,29.7
18.296,27.49
18.312,23.6
18.328,17.01
18.343,7.43
18.359,-4.52
18.375,-17.47
18.390,-29.55
18.406,-38.8
18.421,-43.77
18.437,-43.85
18.453,-39.59
18.468,-32.52
18.484,-24.72
18.500,-18.21
18.515,-14.34
18.531,-13.56
18.546,-15.53
18.562,-19.68
18.578,-25.58
18.593,-33.13
18.609,-42.35
18.625,-52.82
18.640,-63.52
18.656,-73.02
18.671,-80.22
18.687,-84.9
18.703,-87.93
18.718,-90.69
18.734,-94.09
18.750,-97.77
18.765,-99.92
18.781,-98.13
18.796,-90.59
18.812,-77.09
18.828,-59.27
18.843,-39.87
18.859,-21.66
18.875,-6.34
18.890,5.75
18.906,15.49
18.921,24.11
18.937,32.65
18.953,41.39
18.968,49.85
18.984,57.17
19.000,62.47
19.015,65.3
19.031,65.63
19.046,63.84
19.062,60.45
19.078,55.97
19.093,50.9
19.109,45.77
19.125,41.2
19.140,37.77
19.156,35.82
19.171,35.16
19.187,35.11
19.203,34.71
19.218,33.06
19.234,29.8
19.250,25.14
19.265,19.8
19.281,14.53
19.296,9.77
19.312,5.37
19.328,0.73
19.343,-4.85
19.359,-11.81
19.375,-19.94
19.390,-28.49
19.406,-36.39
19.421,-42.76
19.437,-47.33
19.453,-50.72
19.468,-54.35
19.484,-59.98
19.500,-69.13
19.515,-82.27
19.531,-98.34
19.546,-114.52
19.562,-126.84
19.578,-131.19
19.593,-124.83
19.609,-107.46
19.625,-81.59
19.640,-51.94
19.656,-23.95
19.671,-2.17
19.687,11.03
19.703,15.99
19.718,15.1
19.734,11.56
19.750,7.88
19.765,4.85
19.781,1.3
19.796,-5.12
19.812,-16.71
19.828,-34.54
19.843,-57.82
19.859,-84.18
19.875,-110.54
19.890,-134.08
19.906,-152.78
19.921,-165.41
19.937,-171.19
19.953,-169.61
19.968,-160.56
19.984,-144.76
20.000,-124.08
20.015,-101.41
20.031,-80.0
20.046,-62.58
20.062,-50.62
20.078,-43.95
20.093,-41.04
20.109,-39.62
20.125,-37.54
20.140,-33.44
20.156,-27.2
20.171,-19.83
20.187,-13.02
20.203,-8.39
20.218,-6.76
20.234,-7.99
20.250,-11.1
20.265,-14.79
20.281,-18.11
20.296,-20.8
20.312,-23.22
20.328,-26.19
20.343,-30.48
20.359,-36.52
20.375,-44.11
20.390,-52.33
20.406,-59.53
20.421,-63.72
20.437,-62.92
20.453,-55.84
20.468,-42.35
20.484,-23.54
20.500,-1.34
20.515,22.06
20.531,44.82
20.546,65.79
20.562,84.39
20.578,100.45
20.593,113.91
20.609,124.65
20.625,132.68
20.640,138.18
20.656,141.65
20.671,143.84
20.687,145.58
20.703,147.57
20.718,150.21
20.734,153.45
20.750,156.76
20.765,159.36
20.781,160.33
20.796,158.95
20.812,154.92
20.828,148.58
20.843,140.89
20.859,132.94
20.875,125.39
20.890,117.72
20.906,108.06
20.921,93.54
20.937,71.42
20.953,40.28
20.968,0.8
20.984,-44.34
21.000,-91.33
21.015,-136.36
21.031,-176.39
21.046,-209.43
21.062,-234.27
21.078,-250.3
21.093,-257.45
21.109,-256.52
21.125,-249.33
21.140,-238.57
21.156,-227.1
21.171,-217.13
21.187,-209.53
21.203,-203.63
21.218,-197.53
21.234,-188.78
21.250,-175.24
21.265,-155.73
21.281,-130.42
21.296,-100.74
21.312,-68.92
21.328,-37.37
21.343,-8.01
21.359,18.13
21.375,40.92
21.390,60.79
21.406,78.27
21.421,93.56
21.437,106.41
21.453,116.23
21.468,122.45
21.484,124.89
21.500,123.97
21.515,120.74
21.531,116.53
21.546,112.55
21.562,109.56
21.578,107.69
21.593,106.59
21.609,105.72
21.625,104.71
21.640,103.42
21.656,101.96
21.671,100.39
21.687,98.67
21.703,96.51
21.718,93.58
21.734,89.63
21.750,84.53
21.765,78.39
21.781,71.39
21.796,63.77
21.812,55.63
21.828,47.0
21.843,37.74
21.859,27.59
21.875,16.28
21.890,3.46
21.906,-11.14
21.921,-27.72
21.937,-46.13
21.953,-65.76
21.968,-85.38
21.984,-103.22
22.000,-117.26
22.015,-125.8
22.031,-127.97
22.046,-124.04
22.062,-115.33
22.078,-103.7
22.093,-90.85
22.109,-77.83
22.125,-64.95
22.140,-52.07
22.156,-39.03
22.171,-26.13
22.187,-14.05
22.203,-3.61
22.218,4.63
22.234,10.74
22.250,15.27
22.265,19.03
22.281,22.62
22.296,26.28
22.312,29.78
22.328,32.7
22.343,34.67
22.359,35.59
22.375,35.65
22.390,35.16
22.406,34.36
22.421,33.27
22.437,31.66
22.453,29.18
22.468,25.51
22.484,20.48
22.500,14.15
22.515,6.79
22.531,-1.09
22.546,-8.91
22.562,-16.15
22.578,-22.53
22.593,-28.1
22.609,-33.23
22.625,-38.51
22.640,-44.54
22.656,-51.72
22.671,-60.03
22.687,-68.95
22.703,-77.39
22.718,-83.82
22.734,-86.46
22.750,-83.81
22.765,-75.04
22.781,-60.39
22.796,-41.22
22.812,-19.6
22.828,2.21
22.843,22.41
22.859,40.02
22.875,54.82
22.890,67.11
22.906,77.25
22.921,85.47
22.937,91.75
22.953,96.04
22.968,98.42
22.984,99.18
23.000,98.82
23.015,97.91
23.031,96.96
23.046,96.29
23.062,96.06
23.078,96.19
23.093,96.55
23.109,97.01
23.125,97.45
23.140,97.7
23.156,97.59
23.171,96.89
23.187,95.36
23.203,92.93
23.218,89.63
23.234,85.63
23.250,81.17
23.265,76.47
23.281,71.74
23.296,67.13
23.312,62.81
23.328,58.84
23.343,55.27
23.359,52.09
23.375,49.17
23.390,46.35
23.406,43.42
23.421,40.07
23.437,36.07
23.453,31.45
23.468,26.69
23.484,22.88
23.500,21.54
23.515,24.2
23.531,31.74
23.546,44.0
23.562,59.59
23.578,76.22
23.593,91.35
23.609,102.86
23.625,109.48
23.640,110.89
23.656,107.42
23.671,99.67
23.687,88.2
23.703,73.39
23.718,55.63
23.734,35.55
23.750,14.17
23.765,-7.14
23.781,-26.9
23.796,-43.92
23.812,-57.51
23.828,-67.66
23.843,-74.93
23.859,-80.26
23.875,-84.67
23.890,-89.06
23.906,-94.08
23.921,-100.01
23.937,-106.7
23.953,-113.56
23.968,-119.71
23.984,-124.17
24.000,-126.21
24.015,-125.54
24.031,-122.54
24.046,-118.12
24.062,-113.57
24.078,-110.12
24.093,-108.65
24.109,-109.42
24.125,-112.07
24.140,-115.74
24.156,-119.4
24.171,-122.2
24.187,-123.74
24.203,-124.18
24.218,-124.1
24.234,-124.12
24.250,-124.42
24.265,-124.51
24.281,-123.22
24.296,-119.11
24.312,-111.11
24.328,-99.06
24.343,-83.81
24.359,-66.97
24.375,-50.3
24.390,-35.06
24.406,-21.75
24.421,-10.28
24.437,-0.35
24.453,8.22
24.468,15.27
24.484,20.55
24.500,23.98
24.515,25.85
24.531,26.9
24.546,27.98
24.562,29.76
24.578,32.38
24.593,35.54
24.609,38.67
24.625,41.24
24.640,43.03
24.656,44.25
24.671,45.38
24.687,46.91
24.703,49.13
24.718,51.95
24.734,54.98
24.750,57.63
24.765,59.31
24.781,59.64
24.796,58.52
24.812,56.15
24.828,52.91
24.843,49.19
24.859,45.27
24.875,41.18
24.890,36.79
24.906,31.82
24.921,26.01
24.937,19.17
24.953,11.32
24.968,2.76
24.984,-5.79
25.000,-13.18
25.015,-17.99
25.031,-18.84
25.046,-14.88
25.062,-6.05
25.078,6.66
25.093,21.58
25.109,36.84
25.125,50.86
25.140,62.61
25.156,71.78
25.171,78.42
25.187,82.76
25.203,85.1
25.218,85.69
25.234,84.94
25.250,83.4
25.265,81.71
25.281,80.39
25.296,79.75
25.312,79.82
25.328,80.39
25.343,81.21
25.359,82.03
25.375,82.72
25.390,83.17
25.406,83.29
25.421,82.89
25.437,81.82
25.453,79.93
25.468,77.25
25.484,74.0
25.500,70.56
25.515,67.36
25.531,64.76
25.546,62.97
25.562,61.96
25.578,61.56
25.593,61.51
25.609,61.58
25.625,61.66
25.640,61.78
25.656,62.24
25.671,63.61
25.687,66.84
25.703,73.05
25.718,83.39
25.734,98.6
25.750,118.71
25.765,142.84
25.781,169.35
25.796,196.18
25.812,221.31
25.828,243.01
25.843,259.89
25.859,270.78
25.875,274.62
25.890,270.62
25.906,258.72
25.921,239.9
25.937,216.34
25.953,190.83
25.968,165.85
25.984,142.69
26.000,121.04
26.015,99.41
26.031,76.11
26.046,50.19
26.062,22.0
26.078,-7.22
26.093,-36.13
26.109,-64.21
26.125,-92.01
26.140,-120.7
26.156,-151.12
26.171,-182.91
26.187,-214.17
26.203,-242.08
26.218,-263.76
26.234,-277.3
26.250,-282.26
26.265,-279.66
26.281,-271.57
26.296,-260.55
26.312,-249.37
26.328,-240.64
26.343,-236.58
26.359,-238.66
26.375,-247.04
26.390,-260.37
26.406,-275.95
26.421,-290.45
26.437,-300.88
26.453,-305.45
26.468,-303.87
26.484,-297.04
26.500,-286.27
26.515,-272.59
26.531,-256.39
26.546,-237.58
26.562,-216.05
26.578,-192.11
26.593,-166.7
26.609,-141.15
26.625,-116.87
26.640,-94.82
26.656,-75.38
26.671,-58.41
26.687,-43.45
26.703,-30.11
26.718,-18.14
26.734,-7.47
26.750,1.92
26.765,10.18
26.781,17.67
26.796,24.8
26.812,31.92
26.828,39.04
26.843,45.74
26.859,51.33
26.875,55.08
26.890,56.63
26.906,56.18
26.921,54.4
26.937,52.15
26.953,50.07
26.968,48.32
26.984,46.46
27.000,43.74
27.015,39.44
27.031,33.2
27.046,25.33
27.062,16.77
27.078,8.9
27.093,3.31
27.109,1.36
27.125,3.93
27.140,11.13
27.156,22.27
27.171,35.94
27.187,50.43
27.203,63.97
27.218,75.24
27.234,83.5
27.250,88.65
27.265,91.07
27.281,91.36
27.296,90.16
27.312,87.98
27.328,85.21
27.343,82.13
27.359,78.98
27.375,75.95
27.390,73.14
27.406,70.56
27.421,68.11
27.437,65.66
27.453,63.11
27.468,60.41
27.484,57.49
27.500,54.17
27.515,50.15
27.531,45.09
27.546,38.8
27.562,31.43
27.578,23.54
27.593,15.87
27.609,9.06
27.625,3.31
27.640,-1.72
27.656,-6.69
27.671,-12.48
27.687,-19.67
27.703,-28.49
27.718,-38.62
27.734,-49.17
27.750,-58.82
27.765,-66.0
27.781,-69.31
27.796,-67.8
27.812,-61.39
27.828,-50.79
27.843,-37.45
27.859,-23.04
27.875,-9.1
27.890,3.25
27.906,13.47
27.921,21.41
27.937,27.26
27.953,31.29
27.968,33.87
27.984,35.39
28.000,36.21
28.015,36.65
28.031,36.91
28.046,37.04
28.062,37.01
28.078,36.77
28.093,36.27
28.109,35.54
28.125,34.63
28.140,33.48
28.156,31.98
28.171,29.85
28.187,26.87
28.203,23.0
28.218,18.38
28.234,13.33
28.250,8.25
28.265,3.39
28.281,-1.25
28.296,-5.87
28.312,-10.84
28.328,-16.49
28.343,-23.11
28.359,-30.73
28.375,-39.06
28.390,-47.43
28.406,-54.79
28.421,-59.88
28.437,-61.53
28.453,-58.9
28.468,-51.81
28.484,-40.86
28.500,-27.21
28.515,-12.32
28.531,2.42
28.546,16.03
28.562,27.91
28.578,37.86
28.593,45.88
28.609,51.97
28.625,56.06
28.640,58.12
28.656,58.29
28.671,56.89
28.687,54.46
28.703,51.57
28.718,48.66
28.734,45.87
28.750,43.06
28.765,39.98
28.781,36.44
28.796,32.52
28.812,28.46
28.828,24.59
28.843,21.02
28.859,17.63
28.875,14.05
28.890,9.84
28.906,4.73
28.921,-1.23
28.937,-7.78
28.953,-14.48
28.968,-20.98
28.984,-27.09
29.000,-32.89
29.015,-38.62
29.031,-44.69
29.046,-51.46
29.062,-59.13
29.078,-67.52
29.093,-75.87
29.109,-82.94
29.125,-87.09
29.140,-86.86
29.156,-81.39
29.171,-70.8
29.187,-56.25
29.203,-39.52
29.218,-22.49
29.234,-6.55
29.250,7.62
29.265,19.9
29.281,30.47
29.296,39.37
29.312,46.43
29.328,51.38
29.343,54.1
29.359,54.75
29.375,53.85
29.390,52.05
29.406,49.96
29.421,47.96
29.437,46.14
29.453,44.39
29.468,42.52
29.484,40.39
29.500,37.93
29.515,35.2
29.531,32.34
29.546,29.43
29.562,26.5
29.578,23.42
29.593,19.99
29.609,16.03
29.625,11.45
29.640,6.33
29.656,0.85
29.671,-4.77
29.687,-10.38
29.703,-15.95
29.718,-21.53
29.734,-27.23
29.750,-33.12
29.765,-39.31
29.781,-45.91
29.796,-53.03
29.812,-60.62
29.828,-68.28
29.843,-75.08
29.859,-79.68
29.875,-80.68
29.890,-77.06
29.906,-68.59
29.921,-55.99
29.937,-40.62
29.953,-24.14
29.968,-7.96
29.984,6.98
30.000,20.18
30.015,31.45
30.031,40.73
30.046,47.94
30.062,53.03
30.078,56.04
30.093,57.15
30.109,56.66
30.125,55.01
30.140,52.72
30.156,50.21
30.171,47.82
30.187,45.73
30.203,43.96
30.218,42.42
30.234,40.99
30.250,39.49
30.265,37.72
30.281,35.5
30.296,32.64
30.312,29.07
30.328,24.76
30.343,19.81
30.359,14.35
30.375,8.48
30.390,2.26
30.406,-4.18
30.421,-10.66
30.437,-16.93
30.453,-22.71
30.468,-27.88
30.484,-32.49
30.500,-36.79
30.515,-41.16
30.531,-46.03
30.546,-51.73
30.562,-58.49
30.578,-66.27
30.593,-74.58
30.609,-82.42
30.625,-88.29
30.640,-90.51
30.656,-87.69
30.671,-79.33
30.687,-66.0
30.703,-49.29
30.718,-31.34
30.734,-14.15
30.750,0.88
30.765,13.16
30.781,22.73
30.796,29.91
30.812,35.02
30.828,38.2
30.843,39.63
30.859,39.58
30.875,38.58
30.890,37.26
30.906,36.19
30.921,35.74
30.937,35.87
30.953,36.26
30.968,36.43
30.984,36.01
31.000,34.8
31.015,32.87
31.031,30.42
31.046,27.69
31.062,24.82
31.078,21.81
31.093,18.59
31.109,15.0
31.125,10.97
31.140,6.5
31.156,1.68
31.171,-3.32
31.187,-8.35
31.203,-13.32
31.218,-18.23
31.234,-23.14
31.250,-28.17
31.265,-33.44
31.281,-39.06
31.296,-45.12
31.312,-51.66
31.328,-58.6
31.343,-65.67
31.359,-72.2
31.375,-77.15
31.390,-79.27
31.406,-77.44
31.421,-71.05
31.437,-60.34
31.453,-46.35
31.468,-30.72
31.484,-15.15
31.500,-1.01
31.515,10.95
31.531,20.5
31.546,27.78
31.562,33.06
31.578,36.61
31.593,38.72
31.609,39.79
31.625,40.27
31.640,40.6
31.656,41.12
31.671,41.88
31.687,42.76
31.703,43.46
31.718,43.75
31.734,43.5
31.750,42.81
31.765,41.85
31.781,40.8
31.796,39.74
31.812,38.62
31.828,37.3
31.843,35.67
31.859,33.71
31.875,31.5
31.890,29.2
31.906,26.93
31.921,24.78
31.937,22.76
31.953,20.75
31.968,18.64
31.984,16.25
32.000,13.49
32.015,10.41
32.031,7.25
32.046,4.33
32.062,2.02
32.078,0.51
32.093,-0.24
32.109,-0.43
32.125,-0.36
32.140,-0.24
32.156,-0.11
32.171,0.15
32.187,0.67
32.203,1.52
32.218,2.62
32.234,3.79
32.250,4.83
32.265,5.61
32.281,6.07
32.296,6.19
32.312,5.96
32.328,5.4
32.343,4.6
32.359,3.67
32.375,2.8
32.390,2.07
32.406,1.42
32.421,0.52
32.437,-1.04
32.453,-3.58
32.468,-7.15
32.484,-11.41
32.500,-15.82
32.515,-19.8
32.531,-23.1
32.546,-25.79
32.562,-28.3
32.578,-31.13
32.593,-34.68
32.609,-39.09
32.625,-44.28
32.640,-50.02
32.656,-56.06
32.671,-62.17
32.687,-68.19
32.703,-74.05
32.718,-79.76
32.734,-85.49
32.750,-91.52
32.765,-98.19
32.781,-105.67
32.796,-113.66
32.812,-121.11
32.828,-126.37
32.843,-127.49
32.859,-122.92
32.875,-112.09
32.890,-95.78
32.906,-75.85
32.921,-54.66
32.937,-34.34
32.953,-16.26
32.968,-0.94
32.984,11.69
33.000,21.87
33.015,29.79
33.031,35.47
33.046,39.02
33.062,40.73
33.078,41.09
33.093,40.74
33.109,40.16
33.125,39.61
33.140,39.06
33.156,38.31
33.171,37.22
33.187,35.88
33.203,34.56
33.218,33.65
33.234,33.49
33.250,34.03
33.265,34.94
33.281,35.61
33.296,35.35
33.312,33.67
33.328,30.49
33.343,26.12
33.359,21.13
33.375,16.19
33.390,11.78
33.406,8.15
33.421,5.25
33.437,2.78
33.453,0.27
33.468,-2.71
33.484,-6.48
33.500,-10.93
33.515,-15.37
33.531,-18.63
33.546,-19.21
33.562,-15.7
33.578,-7.28
33.593,6.02
33.609,23.39
33.625,43.41
33.640,64.61
33.656,85.75
33.671,106.05
33.687,125.11
33.703,142.72
33.718,158.65
33.734,172.64
33.750,184.47
33.765,194.15
33.781,202.08
33.796,209.09
33.812,216.21
33.828,224.33
33.843,233.85
33.859,244.38
33.875,254.72
33.890,263.07
33.906,267.34
33.921,265.66
33.937,256.78
33.953,240.3
33.968,216.76
33.984,187.46
34.000,154.08
34.015,118.42
34.031,82.03
34.046,46.26
34.062,12.26
34.078,-18.87
34.093,-46.08
34.109,-68.54
34.125,-85.82
34.140,-98.06
34.156,-106.01
34.171,-110.89
34.187,-113.95
34.203,-116.26
34.218,-118.47
34.234,-120.85
34.250,-123.4
34.265,-125.98
34.281,-128.41
34.296,-130.54
34.312,-132.16
34.328,-133.1
34.343,-133.18
34.359,-132.38
34.375,-130.89
34.390,-129.08
34.406,-127.41
34.421,-126.3
34.437,-126.04
34.453,-126.69
34.468,-128.21
34.484,-130.39
34.500,-132.88
34.515,-135.21
34.531,-136.83
34.546,-137.26
34.562,-136.28
34.578,-134.1
34.593,-131.31
34.609,-128.76
34.625,-127.31
34.640,-127.54
34.656,-129.59
34.671,-133.21
34.687,-137.81
34.703,-142.72
34.718,-147.35
34.734,-151.35
34.750,-154.69
34.765,-157.67
34.781,-160.77
34.796,-164.43
34.812,-168.78
34.828,-173.34
34.843,-176.97
34.859,-178.05
34.875,-174.86
34.890,-166.08
34.906,-151.29
34.921,-131.12
34.937,-107.21
34.953,-81.79
34.968,-57.08
34.984,-34.94
35.000,-16.52
35.015,-2.25
35.031,8.05
35.046,14.94
35.062,19.19
35.078,21.58
35.093,22.8
35.109,23.48
35.125,24.09
35.140,24.89
35.156,25.95
35.171,27.11
35.187,28.04
35.203,28.41
35.218,28.0
35.234,26.81
35.250,25.05
35.265,23.01
35.281,20.92
35.296,18.88
35.312,16.78
35.328,14.4
35.343,11.53
35.359,8.06
35.375,3.99
35.390,-0.58
35.406,-5.62
35.421,-11.29
35.437,-17.87
35.453,-25.7
35.468,-34.79
35.484,-44.59
35.500,-53.83
35.515,-60.74
35.531,-63.52
35.546,-60.93
35.562,-52.75
35.578,-39.78
35.593,-23.71
35.609,-6.48
35.625,10.12
35.640,24.85
35.656,37.07
35.671,46.68
35.687,53.93
35.703,59.23
35.718,62.97
35.734,65.47
35.750,66.91
35.765,67.43
35.781,67.13
35.796,66.16
35.812,64.69
35.828,62.87
35.843,60.73
35.859,58.23
35.875,55.2
35.890,51.47
35.906,46.97
35.921,41.7
35.937,35.89
35.953,29.86
35.968,23.93
35.984,18.34
36.000,13.09
36.015,7.91
36.031,2.35
36.046,-4.1
36.062,-11.86
36.078,-21.13
36.093,-31.91
36.109,-43.97
36.125,-56.65
36.140,-68.81
36.156,-78.77
36.171,-84.6
36.187,-84.56
36.203,-77.78
36.218,-64.67
36.234,-46.86
36.250,-26.86
36.265,-7.2
36.281,10.2
36.296,24.38
36.312,35.23
36.328,43.2
36.343,48.83
36.359,52.6
36.375,54.87
36.390,55.97
36.406,56.28
36.421,56.17
36.437,55.94
36.453,55.75
36.468,55.55
36.484,55.14
36.500,54.3
36.515,52.87
36.531,50.83
36.546,48.27
36.562,45.25
36.578,41.79
36.593,37.82
36.609,33.19
36.625,27.87
36.640,21.95
36.656,15.74
36.671,9.54
36.687,3.65
36.703,-1.9
36.718,-7.35
36.734,-13.2
36.750,-20.01
36.765,-28.04
36.781,-37.06
36.796,-46.08
36.812,-53.5
36.828,-57.46
36.843,-56.39
36.859,-49.57
36.875,-37.37
36.890,-21.18
36.906,-2.92
36.921,15.42
36.937,32.26
36.953,46.61
36.968,58.02
36.984,66.41
37.000,71.92
37.015,74.74
37.031,75.19
37.046,73.66
37.062,70.67
37.078,66.83
37.093,62.83
37.109,59.29
37.125,56.66
37.140,55.12
37.156,54.53
37.171,54.46
37.187,54.41
37.203,53.82
37.218,52.27
37.234,49.56
37.250,45.6
37.265,40.52
37.281,34.53
37.296,28.02
37.312,21.42
37.328,15.25
37.343,9.93
37.359,5.67
37.375,2.36
37.390,-0.49
37.406,-3.54
37.421,-7.4
37.437,-12.24
37.453,-17.48
37.468,-21.69
37.484,-22.99
37.500,-19.54
37.515,-10.23
37.531,4.96
37.546,24.87
37.562,47.64
37.578,71.19
37.593,93.8
37.609,114.45
37.625,132.67
37.640,148.37
37.656,161.44
37.671,171.65
37.687,178.65
37.703,182.15
37.718,181.99
37.734,178.25
37.750,171.15
37.765,160.92
37.781,147.76
37.796,131.81
37.812,113.33
37.828,92.85
37.843,71.11
37.859,49.05
37.875,27.61
37.890,7.48
37.906,-11.01
37.921,-27.86
37.937,-43.4
37.953,-58.05
37.968,-72.16
37.984,-85.89
38.000,-99.17
38.015,-111.71
38.031,-123.2
38.046,-133.5
38.062,-142.73
38.078,-151.33
38.093,-159.97
38.109,-169.39
38.125,-180.16
38.140,-192.46
38.156,-205.83
38.171,-219.11
38.187,-230.35
38.203,-237.21
38.218,-237.46
38.234,-229.69
38.250,-213.7
38.265,-190.6
38.281,-162.52
38.296,-131.92
38.312,-101.08
38.328,-71.71
38.343,-44.92
38.359,-21.45
38.375,-1.85
38.390,13.46
38.406,24.29
38.421,30.87
38.437,33.97
38.453,34.77
38.468,34.62
38.484,34.76
38.500,36.03
38.515,38.79
38.531,42.95
38.546,48.11
38.562,53.75
38.578,59.43
38.593,64.77
38.609,69.5
38.625,73.38
38.640,76.19
38.656,77.66
38.671,77.55
38.687,75.76
38.703,72.4
38.718,67.88
38.734,62.79
38.750,57.78
38.765,53.33
38.781,49.61
38.796,46.41
38.812,43.29
38.828,39.74
38.843,35.37
38.859,29.97
38.875,23.45
38.890,15.89
38.906,7.6
38.921,-0.77
38.937,-8.14
38.953,-12.98
38.968,-13.74
38.984,-9.25
39.000,0.78
39.015,15.56
39.031,33.4
39.046,52.24
39.062,70.18
39.078,85.97
39.093,99.12
39.109,109.7
39.125,118.03
39.140,124.41
39.156,128.96
39.171,131.7
39.187,132.67
39.203,132.04
39.218,130.12
39.234,127.27
39.250,123.84
39.265,119.98
39.281,115.69
39.296,110.76
39.312,104.82
39.328,97.41
39.343,88.16
39.359,76.82
39.375,63.43
39.390,48.25
39.406,31.76
39.421,14.58
39.437,-2.72
39.453,-19.69
39.468,-36.04
39.484,-51.63
39.500,-66.46
39.515,-80.48
39.531,-93.63
39.546,-105.8
39.562,-116.76
39.578,-126.34
39.593,-134.39
39.609,-140.85
39.625,-145.76
39.640,-149.24
39.656,-151.44
39.671,-152.62
39.687,-152.95
39.703,-152.44
39.718,-150.69
39.734,-146.9
39.750,-139.9
39.765,-128.62
39.781,-112.47
39.796,-91.7
39.812,-67.48
39.828,-41.57
39.843,-15.8
39.859,8.38
39.875,30.14
39.890,49.22
39.906,65.71
39.921,79.68
39.937,91.23
39.953,100.42
39.968,107.4
39.984,112.54
40.000,116.45
40.015,119.83
40.031,123.38
40.046,127.54
40.062,132.4
40.078,137.82
40.093,143.42
40.109,148.83
40.125,153.76
40.140,157.93
40.156,161.08
40.171,162.79
40.187,162.53
40.203,159.62
40.218,153.39
40.234,143.3
40.250,128.94
40.265,110.15
40.281,87.13
40.296,60.54
40.312,31.55
40.328,1.8
40.343,-26.91
40.359,-52.99
40.375,-75.37
40.390,-93.58
40.406,-107.74
40.421,-118.34
40.437,-125.99
40.453,-131.25
40.468,-134.49
40.484,-135.85
40.500,-135.19
40.515,-132.14
40.531,-126.16
40.546,-116.82
40.562,-104.1
40.578,-88.48
40.593,-70.99
40.609,-52.98
40.625,-35.75
40.640,-20.42
40.656,-7.68
40.671,2.12
40.687,8.98
40.703,13.04
40.718,14.64
40.734,14.32
40.750,12.84
40.765,11.17
40.781,10.31
40.796,11.13
40.812,14.13
40.828,19.31
40.843,26.12
40.859,33.67
40.875,40.85
40.890,46.64
40.906,50.37
40.921,51.71
40.937,50.82
40.953,48.19
40.968,44.52
40.984,40.54
41.000,36.84
41.015,33.67
41.031,30.92
41.046,28.2
41.062,24.94
41.078,20.7
41.093,15.35
41.109,9.17
41.125,2.71
41.140,-3.53
41.156,-9.49
41.171,-15.78
41.187,-23.61
41.203,-34.51
41.218,-49.83
41.234,-70.26
41.250,-95.37
41.265,-123.42
41.281,-151.5
41.296,-175.92
41.312,-193.15
41.328,-200.81
41.343,-198.52
41.359,-188.19
41.375,-173.49
41.390,-158.74
41.406,-147.48
41.421,-141.49
41.437,-140.44
41.453,-142.43
41.468,-144.88
41.484,-145.54
41.500,-142.92
41.515,-136.43
41.531,-126.2
41.546,-112.76
41.562,-96.94
41.578,-79.73
41.593,-62.24
41.609,-45.55
41.625,-30.52
41.640,-17.6
41.656,-6.73
41.671,2.59
41.687,11.01
41.703,19.03
41.718,26.77
41.734,33.72
41.750,39.0
41.765,41.61
41.781,40.91
41.796,36.92
41.812,30.43
41.828,22.7
41.843,15.01
41.859,8.22
41.875,2.66
41.890,-1.78
41.906,-5.2
41.921,-7.53
41.937,-8.47
41.953,-7.7
41.968,-5.15
41.984,-1.17
42.000,3.53
42.015,8.1
42.031,11.91
42.046,14.65
42.062,16.44
42.078,17.95
42.093,20.37
42.109,25.26
42.125,34.32
42.140,48.81
42.156,69.09
42.171,94.35
42.187,122.72
42.203,151.6
42.218,178.26
42.234,200.24
42.250,215.63
42.265,223.34
42.281,223.16
42.296,215.73
42.312,202.28
42.328,184.28
42.343,162.99
42.359,139.41
42.375,114.51
42.390,89.57
42.406,66.35
42.421,46.84
42.437,32.51
42.453,23.82
42.468,20.03
42.484,19.71
42.500,21.4
42.515,24.34
42.531,28.54
42.546,34.32
42.562,41.71
42.578,49.91
42.593,57.44
42.609,62.69
42.625,64.55
42.640,63.03
42.656,59.15
42.671,54.23
42.687,49.0
42.703,42.94
42.718,34.2
42.734,20.4
42.750,-0.15
42.765,-27.47
42.781,-59.62
42.796,-93.11
42.812,-123.81
42.828,-147.76
42.843,-161.67
42.859,-163.43
42.875,-152.78
42.890,-132.0
42.906,-106.12
42.921,-82.07
42.937,-66.46
42.953,-62.93
42.968,-70.55
42.984,-83.87
43.000,-95.09
43.015,-97.1
43.031,-86.1
43.046,-62.42
43.062,-29.94
43.078,5.74
43.093,38.92
43.109,64.98
43.125,81.11
43.140,86.65
43.156,83.4
43.171,75.28
43.187,67.28
43.203,63.83
43.218,67.11
43.234,76.39
43.250,88.32
43.265,98.53
43.281,103.16
43.296,100.02
43.312,88.98
43.328,71.86
43.343,51.78
43.359,32.6
43.375,17.98
43.390,10.13
43.406,8.76
43.421,10.57
43.437,10.19
43.453,2.25
43.468,-16.23
43.484,-44.44
43.500,-78.05
43.515,-111.01
43.531,-138.16
43.546,-157.18
43.562,-169.04
43.578,-177.2
43.593,-186.0
43.609,-199.17
43.625,-218.65
43.640,-243.9
43.656,-271.53
43.671,-295.72
43.687,-309.53
43.703,-306.83
43.718,-284.33
43.734,-242.7
43.750,-186.38
43.765,-122.19
43.781,-57.29
43.796,2.25
43.812,52.25
43.828,90.33
43.843,115.72
43.859,129.06
43.875,132.34
43.890,128.34
43.906,119.5
43.921,106.92
43.937,89.92
43.953,67.25
43.968,39.14
43.984,8.84
44.000,-17.93
44.015,-35.32
44.031,-40.55
44.046,-35.89
44.062,-27.91
44.078,-24.35
44.093,-30.47
44.109,-46.62
44.125,-68.72
44.140,-90.87
44.156,-108.44
44.171,-119.87
44.187,-126.65
44.203,-131.87
44.218,-138.59
44.234,-148.89
44.250,-163.63
44.265,-182.68
44.281,-204.91
44.296,-228.11
44.312,-249.03
44.328,-263.95
44.343,-269.59
44.359,-264.09
44.375,-247.46
44.390,-221.33
44.406,-188.49
44.421,-152.33
44.437,-116.51
44.453,-84.57
44.468,-59.2
44.484,-41.33
44.500,-29.53
44.515,-20.27
44.531,-9.02
44.546,8.04
44.562,32.54
44.578,63.52
44.593,98.09
44.609,132.56
44.625,163.58
44.640,188.56
44.656,205.81
44.671,214.66
44.687,215.58
44.703,210.21
44.718,201.0
44.734,190.3
44.750,179.61
44.765,169.18
44.781,158.78
44.796,148.77
44.812,140.96
44.828,138.35
44.843,143.58
44.859,157.31
44.875,177.09
44.890,197.84
44.906,213.49
44.921,219.12
44.937,212.33
44.953,193.46
44.968,164.69
44.984,128.58
45.000,87.09
45.015,41.56
45.031,-6.37
45.046,-53.67
45.062,-95.57
45.078,-126.48
45.093,-141.8
45.109,-139.95
45.125,-123.26
45.140,-97.6
45.156,-70.83
45.171,-50.7
45.187,-43.09
45.203,-50.8
45.218,-73.21
45.234,-106.42
45.250,-144.01
45.265,-178.2
45.281,-201.6
45.296,-208.97
45.312,-198.48
45.328,-171.61
45.343,-132.04
45.359,-83.89
45.375,-30.58
45.390,25.18
45.406,80.56
45.421,131.53
45.437,172.74
45.453,198.71
45.468,205.77
45.484,193.69
45.500,166.04
45.515,129.05
45.531,89.61
45.546,53.49
45.562,24.47
45.578,4.57
45.593,-5.12
45.609,-3.85
45.625,8.73
45.640,31.92
45.656,63.36
45.671,98.94
45.687,133.38
45.703,161.33
45.718,178.38
45.734,181.74
45.750,170.38
45.765,144.81
45.781,106.82
45.796,59.35
45.812,6.43
45.828,-46.61
45.843,-93.54
45.859,-128.01
45.875,-145.09
45.890,-142.79
45.906,-123.06
45.921,-91.46
45.937,-55.63
45.953,-22.98
45.968,1.31
45.984,15.12
46.000,18.99
46.015,14.91
46.031,5.13
46.046,-8.46
46.062,-24.03
46.078,-39.26
46.093,-51.04
46.109,-55.86
46.125,-50.71
46.140,-34.25
46.156,-7.51
46.171,26.22
46.187,62.1
46.203,95.04
46.218,120.93
46.234,137.38
46.250,143.76
46.265,140.5
46.281,128.34
46.296,107.88
46.312,79.9
46.328,45.99
46.343,9.0
46.359,-27.03
46.375,-57.72
46.390,-79.57
46.406,-90.74
46.421,-91.39
46.437,-83.23
46.453,-68.76
46.468,-50.55
46.484,-30.75
46.500,-10.92
46.515,7.96
46.531,25.29
46.546,40.81
46.562,54.37
46.578,65.77
46.593,74.73
46.609,80.92
46.625,84.19
46.640,84.83
46.656,83.48
46.671,80.91
46.687,77.72
46.703,74.07
46.718,69.77
46.734,64.53
46.750,58.21
46.765,51.14
46.781,44.05
46.796,37.71
46.812,32.75
46.828,29.37
46.843,27.39
46.859,26.39
46.875,25.92
46.890,25.55
46.906,24.98
46.921,23.94
46.937,22.22
46.953,19.71
46.968,16.41
46.984,12.52
47.000,8.33
47.015,4.15
47.031,0.09
47.046,-4.01
47.062,-8.55
47.078,-14.11
47.093,-20.98
47.109,-29.04
47.125,-37.6
47.140,-45.65
47.156,-52.34
47.171,-57.38
47.187,-61.29
47.203,-65.09
47.218,-69.82
47.234,-75.94
47.250,-83.09
47.265,-90.27
47.281,-96.34
47.296,-100.64
47.312,-103.26
47.328,-104.93
47.343,-106.62
47.359,-109.14
47.375,-112.93
47.390,-118.07
47.406,-124.29
47.421,-131.01
47.437,-137.17
47.453,-141.14
47.468,-141.0
47.484,-135.02
47.500,-122.27
47.515,-103.12
47.531,-79.19
47.546,-52.92
47.562,-26.84
47.578,-2.99
47.593,17.37
47.609,33.66
47.625,45.76
47.640,53.91
47.656,58.52
47.671,60.31
47.687,60.18
47.703,59.15
47.718,58.03
47.734,57.38
47.750,57.32
47.765,57.72
47.781,58.34
47.796,58.99
47.812,59.58
47.828,60.12
47.843,60.52
47.859,60.65
47.875,60.19
47.890,58.74
47.906,56.04
47.921,52.03
47.937,46.98
47.953,41.38
47.968,35.8
47.984,30.63
48.000,25.97
48.015,21.59
48.031,17.01
48.046,11.74
48.062,5.47
48.078,-1.67
48.093,-9.01
48.109,-15.33
48.125,-19.12
48.140,-18.9
48.156,-13.67
48.171,-3.19
48.187,11.95
48.203,30.53
48.218,51.13
48.234,72.45
48.250,93.56
48.265,113.84
48.281,132.77
48.296,149.78
48.312,164.0
48.328,174.41
48.343,179.92
48.359,179.74
48.375,173.62
48.390,162.04
48.406,146.26
48.421,128.06
48.437,109.45
48.453,92.06
48.468,76.91
48.484,64.17
48.500,53.43
48.515,44.13
48.531,35.85
48.546,28.5
48.562,22.12
48.578,16.4
48.593,10.28
48.609,1.99
48.625,-10.44
48.640,-28.37
48.656,-51.88
48.671,-79.62
48.687,-109.2
48.703,-138.13
48.718,-164.45
48.734,-187.07
48.750,-205.37
48.765,-218.74
48.781,-226.22
48.796,-226.72
48.812,-219.6
48.828,-205.18
48.843,-185.07
48.859,-161.67
48.875,-137.6
48.890,-114.79
48.906,-94.19
48.921,-75.76
48.937,-58.9
48.953,-42.85
48.968,-27.13
48.984,-11.75
49.000,2.94
49.015,16.48
49.031,28.53
49.046,39.06
49.062,48.38
49.078,56.9
49.093,64.88
49.109,72.17
49.125,78.18
49.140,82.07
49.156,83.11
49.171,80.96
49.187,75.72
49.203,67.89
49.218,58.17
49.234,47.22
49.250,35.6
49.265,23.8
49.281,12.23
49.296,1.23
49.312,-9.01
49.328,-18.52
49.343,-27.57
49.359,-36.53
49.375,-45.72
49.390,-55.11
49.406,-64.2
49.421,-72.05
49.437,-77.43
49.453,-79.21
49.468,-76.48
49.484,-68.95
49.500,-56.92
49.515,-41.34
49.531,-23.58
49.546,-5.14
49.562,12.61
49.578,28.66
49.593,42.39
49.609,53.5
49.625,61.96
49.640,67.84
49.656,71.37
49.671,72.93
49.687,73.1
49.703,72.48
49.718,71.6
49.734,70.74
49.750,69.93
49.765,69.03
49.781,67.87
49.796,66.38
49.812,64.53
49.828,62.3
49.843,59.53
49.859,56.04
49.875,51.74
49.890,46.76
49.906,41.54
49.921,36.73
49.937,32.96
49.953,30.58
49.968,29.6
49.984,29.72
50.000,30.55
50.015,31.78
50.031,33.25
50.046,34.88
50.062,36.6
50.078,38.35
50.093,40.11
50.109,42.05
50.125,44.66
50.140,48.68
50.156,55.03
50.171,64.46
50.187,77.25
50.203,93.01
50.218,110.58
50.234,128.3
50.250,144.34
50.265,157.17
50.281,165.95
50.296,170.68
50.312,172.04
50.328,171.05
50.343,168.71
50.359,165.63
50.375,161.95
50.390,157.39
50.406,151.35
50.421,143.19
50.437,132.39
50.453,118.83
50.468,102.98
50.484,85.93
50.500,69.11
50.515,53.66
50.531,39.75
50.546,26.35
50.562,11.57
50.578,-6.41
50.593,-28.23
50.609,-52.76
50.625,-77.25
50.640,-98.37
50.656,-113.48
50.671,-121.62
50.687,-123.65
50.703,-121.7
50.718,-118.28
50.734,-115.42
50.750,-114.33
50.765,-115.36
50.781,-118.14
50.796,-121.71
50.812,-124.74
50.828,-125.59
50.843,-122.58
50.859,-114.38
50.875,-100.5
50.890,-81.6
50.906,-59.6
50.921,-37.32
50.937,-17.66
50.953,-2.87
50.968,6.11
50.984,9.91
51.000,10.21
51.015,9.08
51.031,8.14
51.046,8.06
51.062,8.4
51.078,7.87
51.093,4.91
51.109,-1.54
51.125,-11.39
51.140,-23.08
51.156,-33.89
51.171,-40.84
51.187,-41.92
51.203,-37.18
51.218,-28.81
51.234,-20.5
51.250,-15.9
51.265,-17.19
51.281,-24.32
51.296,-35.23
51.312,-46.94
51.328,-56.89
51.343,-64.01
51.359,-68.94
51.375,-73.85
51.390,-81.45
51.406,-93.91
51.421,-112.07
51.437,-134.88
51.453,-159.69
51.468,-183.16
51.484,-202.16
51.500,-214.42
51.515,-219.0
51.531,-215.93
51.546,-205.9
51.562,-189.94
51.578,-169.3
51.593,-145.35
51.609,-119.66
51.625,-93.76
51.640,-69.05
51.656,-46.57
51.671,-27.0
51.687,-10.52
51.703,3.05
51.718,14.2
51.734,23.64
51.750,32.04
51.765,39.87
51.781,47.37
51.796,54.53
51.812,61.46
51.828,68.56
51.843,76.42
51.859,85.62
51.875,96.29
51.890,107.87
51.906,119.19
51.921,128.79
51.937,135.5
51.953,138.89
51.968,139.38
51.984,138.0
52.000,135.88
52.015,133.69
52.031,131.22
52.046,127.58
52.062,121.54
52.078,112.11
52.093,98.91
52.109,82.22
52.125,62.74
52.140,41.33
52.156,18.84
52.171,-3.99
52.187,-26.32
52.203,-47.15
52.218,-65.28
52.234,-79.54
52.250,-88.93
52.265,-93.04
52.281,-92.05
52.296,-86.8
52.312,-78.55
52.328,-68.61
52.343,-58.03
52.359,-47.45
52.375,-37.13
52.390,-27.25
52.406,-18.21
52.421,-10.71
52.437,-5.54
52.453,-3.26
52.468,-3.75
52.484,-6.25
52.500,-9.54
52.515,-12.39
52.531,-14.05
52.546,-14.43
52.562,-14.1
52.578,-13.93
52.593,-14.81
52.609,-17.38
52.625,-21.98
52.640,-28.62
52.656,-37.01
52.671,-46.53
52.687,-56.34
52.703,-65.47
52.718,-73.14
52.734,-79.02
52.750,-83.19
52.765,-86.17
52.781,-88.55
52.796,-90.73
52.812,-92.9
52.828,-94.92
52.843,-96.49
52.859,-97.19
52.875,-96.52
52.890,-94.0
52.906,-89.41
52.921,-83.05
52.937,-75.89
52.953,-69.35
52.968,-64.6
52.984,-61.97
53.000,-60.79
53.015,-59.72
53.031,-57.29
53.046,-52.58
53.062,-45.21
53.078,-34.97
53.093,-21.45
53.109,-4.06
53.125,17.12
53.140,40.55
53.156,63.12
53.171,81.35
53.187,93.07
53.203,98.87
53.218,101.86
53.234,106.05
53.250,114.08
53.265,125.78
53.281,138.53
53.296,148.85
53.312,154.37
53.328,154.76
53.343,151.3
53.359,145.44
53.375,137.62
53.390,127.02
53.406,112.43
53.421,93.51
53.437,71.53
53.453,49.04
53.468,28.81
53.484,12.87
53.500,1.73
53.515,-5.49
53.531,-10.36
53.546,-14.37
53.562,-18.29
53.578,-21.76
53.593,-23.57
53.609,-22.34
53.625,-17.5
53.640,-9.87
53.656,-1.87
53.671,3.25
53.687,2.52
53.703,-5.41
53.718,-19.84
53.734,-38.64
53.750,-59.54
53.765,-80.96
53.781,-101.75
53.796,-120.19
53.812,-133.31
53.828,-137.54
53.843,-130.68
53.859,-113.82
53.875,-91.57
53.890,-70.31
53.906,-54.85
53.921,-45.92
53.937,-39.77
53.953,-30.29
53.968,-12.48
53.984,14.88
54.000,48.91
54.015,84.07
54.031,114.91
54.046,138.05
54.062,152.67
54.078,159.73
54.093,160.77
54.109,156.95
54.125,148.66
54.140,136.0
54.156,119.43
54.171,100.48
54.187,81.64
54.203,65.58
54.218,54.09
54.234,47.36
54.250,44.13
54.265,42.55
54.281,41.1
54.296,39.26
54.312,37.39
54.328,36.38
54.343,36.84
54.359,38.67
54.375,41.06
54.390,42.64
54.406,41.93
54.421,37.72
54.437,29.26
54.453,16.37
54.468,-0.6
54.484,-20.99
54.500,-43.8
54.515,-67.9
54.531,-92.11
54.546,-115.45
54.562,-137.28
54.578,-157.33
54.593,-175.45
54.609,-191.26
54.625,-203.91
54.640,-211.93
54.656,-213.7
54.671,-208.03
54.687,-194.81
54.703,-175.24
54.718,-151.5
54.734,-126.01
54.750,-100.6
54.765,-76.14
54.781,-52.54
54.796,-29.33
54.812,-6.27
54.828,16.25
54.843,37.12
54.859,54.91
54.875,68.38
54.890,77.04
54.906,81.27
54.921,82.14
54.937,81.01
54.953,79.01
54.968,76.74
54.984,74.35
55.000,71.71
55.015,68.73
55.031,65.53
55.046,62.38
55.062,59.5
55.078,56.91
55.093,54.28
55.109,51.16
55.125,47.09
55.140,41.85
55.156,35.63
55.171,28.76
55.187,21.65
55.203,14.52
55.218,7.44
55.234,0.3
55.250,-6.88
55.265,-13.92
55.281,-20.4
55.296,-25.76
55.312,-29.63
55.328,-31.9
55.343,-32.85
55.359,-33.05
55.375,-33.11
55.390,-33.48
55.406,-34.23
55.421,-34.99
55.437,-34.99
55.453,-33.18
55.468,-28.48
55.484,-20.12
55.500,-7.88
55.515,7.69
55.531,25.31
55.546,43.42
55.562,60.49
55.578,75.53
55.593,88.15
55.609,98.48
55.625,106.81
55.640,113.29
55.656,117.96
55.671,120.79
55.687,121.94
55.703,121.84
55.718,121.08
55.734,120.17
55.750,119.38
55.765,118.7
55.781,117.83
55.796,116.4
55.812,113.97
55.828,110.22
55.843,104.91
55.859,97.91
55.875,89.16
55.890,78.7
55.906,66.67
55.921,53.32
55.937,39.1
55.953,24.48
55.968,9.9
55.984,-4.41
56.000,-18.49
56.015,-32.6
56.031,-46.97
56.046,-61.56
56.062,-76.01
56.078,-89.75
56.093,-102.35
56.109,-113.78
56.125,-124.48
56.140,-135.07
56.156,-146.08
56.171,-157.68
56.187,-169.51
56.203,-180.75
56.218,-190.33
56.234,-196.97
56.250,-199.45
56.265,-196.8
56.281,-188.59
56.296,-175.15
56.312,-157.55
56.328,-137.38
56.343,-116.29
56.359,-95.68
56.375,-76.43
56.390,-59.03
56.406,-43.73
56.421,-30.78
56.437,-20.38
56.453,-12.65
56.468,-7.4
56.484,-4.21
56.500,-2.45
56.515,-1.5
56.531,-0.86
56.546,-0.23
56.562,0.49
56.578,1.29
56.593,2.1
56.609,2.93
56.625,3.89
56.640,5.25
56.656,7.43
56.671,10.9
56.687,15.91
56.703,22.36
56.718,29.69
56.734,37.0
56.750,43.27
56.765,47.65
56.781,49.62
56.796,49.08
56.812,46.22
56.828,41.45
56.843,35.31
56.859,28.35
56.875,21.03
56.890,13.69
56.906,6.5
56.921,-0.56
56.937,-7.7
56.953,-15.21
56.968,-23.28
56.984,-31.83
57.000,-40.33
57.015,-47.8
57.031,-52.96
57.046,-54.62
57.062,-52.08
57.078,-45.53
57.093,-35.94
57.109,-24.82
57.125,-13.57
57.140,-3.09
57.156,6.44
57.171,15.3
57.187,23.83
57.203,32.01
57.218,39.35
57.234,45.11
57.250,48.68
57.265,49.89
57.281,49.13
57.296,47.12
57.312,44.59
57.328,42.02
57.343,39.62
57.359,37.39
57.375,35.35
57.390,33.55
57.406,32.0
57.421,30.63
57.437,29.23
57.453,27.57
57.468,25.49
57.484,23.02
57.500,20.28
57.515,17.33
57.531,14.05
57.546,10.16
57.562,5.43
57.578,-0.18
57.593,-6.34
57.609,-12.55
57.625,-18.28
57.640,-23.31
57.656,-27.75
57.671,-32.02
57.687,-36.65
57.703,-42.09
57.718,-48.49
57.734,-55.61
57.750,-62.78
57.765,-68.89
57.781,-72.63
57.796,-72.78
57.812,-68.52
57.828,-59.78
57.843,-47.23
57.859,-32.12
57.875,-15.86
57.890,0.33
57.906,15.59
57.921,29.39
57.937,41.31
57.953,50.98
57.968,58.0
57.984,62.17
58.000,63.56
58.015,62.61
58.031,60.04
58.046,56.63
58.062,53.06
58.078,49.79
58.093,47.1
58.109,45.17
58.125,44.12
58.140,43.92
58.156,44.33
58.171,44.84
58.187,44.8
58.203,43.56
58.218,40.8
58.234,36.63
58.250,31.61
58.265,26.49
58.281,21.9
58.296,18.06
58.312,14.67
58.328,11.15
58.343,6.91
58.359,1.55
58.375,-4.87
58.390,-12.0
58.406,-19.33
58.421,-26.35
58.437,-32.73
58.453,-38.35
58.468,-43.37
58.484,-48.1
58.500,-53.0
58.515,-58.38
58.531,-64.15
58.546,-69.6
58.562,-73.46
58.578,-74.26
58.593,-70.88
58.609,-62.98
58.625,-51.16
58.640,-36.71
58.656,-21.16
58.671,-5.87
58.687,8.21
58.703,20.57
58.718,31.1
58.734,39.93
58.750,47.45
58.765,54.18
58.781,60.55
58.796,66.72
58.812,72.51
58.828,77.39
58.843,80.77
58.859,82.25
58.875,81.71
58.890,79.3
58.906,75.36
58.921,70.21
58.937,64.22
58.953,57.79
58.968,51.45
58.984,45.68
59.000,40.84
59.015,36.94
59.031,33.74
59.046,30.9
59.062,28.17
59.078,25.57
59.093,23.29
59.109,21.51
59.125,20.21
59.140,19.0
59.156,17.14
59.171,13.92
59.187,8.88
59.203,2.01
59.218,-6.16
59.234,-14.83
59.250,-23.22
59.265,-30.73
59.281,-37.11
59.296,-42.48
59.312,-47.13
59.328,-51.42
59.343,-55.66
59.359,-60.02
59.375,-64.46
59.390,-68.65
59.406,-71.92
59.421,-73.39
59.437,-72.22
59.453,-67.9
59.468,-60.51
59.484,-50.76
59.500,-39.81
59.515,-28.86
59.531,-18.94
59.546,-10.6
59.562,-3.99
59.578,1.14
59.593,5.29
59.609,8.98
59.625,12.56
59.640,15.93
59.656,18.52
59.671,19.48
59.687,18.1
59.703,14.07
59.718,7.63
59.734,-0.6
59.750,-9.9
59.765,-19.49
59.781,-28.34
59.796,-34.96
59.812,-37.39
59.828,-33.78
59.843,-23.25
59.859,-6.54
59.875,14.02
59.890,35.47
59.906,55.3
59.921,72.32
59.937,86.56
59.953,98.67
59.968,109.03
59.984,117.44
