timestamp,value
00.000,-4.64
00.015,-1.86
00.031,0.84
00.046,2.85
00.062,3.86
00.078,3.71
00.093,2.37
00.109,-0.15
00.125,-3.71
00.140,-7.83
00.156,-11.64
00.171,-13.97
00.187,-13.79
00.203,-10.62
00.218,-4.88
00.234,2.24
00.250,9.28
00.265,15.02
00.281,18.97
00.296,21.34
00.312,22.68
00.328,23.53
00.343,24.23
00.359,24.95
00.375,25.84
00.390,27.17
00.406,29.12
00.421,31.54
00.437,33.88
00.453,35.37
00.468,35.34
00.484,33.72
00.500,31.13
00.515,28.55
00.531,26.85
00.546,26.26
00.562,26.28
00.578,26.0
00.593,24.62
00.609,21.91
00.625,18.26
00.640,14.54
00.656,11.6
00.671,9.93
00.687,9.53
00.703,10.07
00.718,11.07
00.734,12.14
00.750,12.95
00.765,13.27
00.781,12.97
00.796,12.14
00.812,11.11
00.828,10.43
00.843,10.73
00.859,12.44
00.875,15.54
00.890,19.59
00.906,23.85
00.921,27.63
00.937,30.55
00.953,32.68
00.968,34.42
00.984,36.26
01.000,38.52
01.015,41.15
01.031,43.76
01.046,45.74
01.062,46.37
01.078,45.01
01.093,41.14
01.109,34.39
01.125,24.69
01.140,12.35
01.156,-1.83
01.171,-16.6
01.187,-30.52
01.203,-42.28
01.218,-51.06
01.234,-56.69
01.250,-59.58
01.265,-60.53
01.281,-60.39
01.296,-59.89
01.312,-59.48
01.328,-59.36
01.343,-59.48
01.359,-59.52
01.375,-58.95
01.390,-57.08
01.406,-53.33
01.421,-47.52
01.437,-40.0
01.453,-31.67
01.468,-23.54
01.484,-16.49
01.500,-10.82
01.515,-6.33
01.531,-2.53
01.546,1.1
01.562,4.81
01.578,8.55
01.593,12.04
01.609,14.93
01.625,16.86
01.640,17.59
01.656,16.92
01.671,14.73
01.687,10.99
01.703,5.75
01.718,-0.84
01.734,-8.45
01.750,-16.52
01.765,-24.07
01.781,-29.94
01.796,-33.0
01.812,-32.66
01.828,-29.15
01.843,-23.49
01.859,-17.01
01.875,-10.94
01.890,-5.87
01.906,-1.83
01.921,1.46
01.937,4.17
01.953,6.11
01.968,6.86
01.984,6.16
02.000,4.19
02.015,1.68
02.031,-0.39
02.046,-1.17
02.062,-0.39
02.078,1.69
02.093,4.4
02.109,7.11
02.125,9.46
02.140,11.48
02.156,13.43
02.171,15.6
02.187,18.09
02.203,20.75
02.218,23.16
02.234,24.87
02.250,25.43
02.265,24.57
02.281,22.15
02.296,18.23
02.312,13.14
02.328,7.4
02.343,1.7
02.359,-3.21
02.375,-6.7
02.390,-8.46
02.406,-8.58
02.421,-7.56
02.437,-6.09
02.453,-4.72
02.468,-3.74
02.484,-2.92
02.500,-1.76
02.515,0.33
02.531,3.64
02.546,8.0
02.562,12.83
02.578,17.34
02.593,20.93
02.609,23.4
02.625,25.07
02.640,26.56
02.656,28.51
02.671,31.24
02.687,34.71
02.703,38.54
02.718,42.21
02.734,45.29
02.750,47.41
02.765,48.31
02.781,47.76
02.796,45.56
02.812,41.68
02.828,36.38
02.843,30.28
02.859,24.22
02.875,19.09
02.890,15.44
02.906,13.31
02.921,12.21
02.937,11.17
02.953,9.18
02.968,5.41
02.984,-0.36
03.000,-7.75
03.015,-15.84
03.031,-23.41
03.046,-29.23
03.062,-32.32
03.078,-32.18
03.093,-28.85
03.109,-22.93
03.125,-15.53
03.140,-7.97
03.156,-1.56
03.171,2.76
03.187,4.67
03.203,4.48
03.218,2.93
03.234,0.83
03.250,-1.27
03.265,-3.24
03.281,-5.34
03.296,-7.89
03.312,-11.03
03.328,-14.46
03.343,-17.4
03.359,-18.91
03.375,-18.07
03.390,-14.5
03.406,-8.61
03.421,-1.53
03.437,5.11
03.453,9.65
03.468,10.88
03.484,8.25
03.500,2.01
03.515,-7.0
03.531,-17.62
03.546,-28.66
03.562,-39.02
03.578,-47.85
03.593,-54.57
03.609,-58.89
03.625,-60.75
03.640,-60.31
03.656,-57.91
03.671,-54.02
03.687,-49.11
03.703,-43.59
03.718,-37.7
03.734,-31.54
03.750,-25.1
03.765,-18.46
03.781,-11.86
03.796,-5.8
03.812,-0.84
03.828,2.56
03.843,4.33
03.859,4.74
03.875,4.3
03.890,3.57
03.906,2.97
03.921,2.82
03.937,3.26
03.953,4.42
03.968,6.31
03.984,8.83
04.000,11.68
04.015,14.44
04.031,16.62
04.046,17.85
04.062,17.97
04.078,17.01
04.093,15.2
04.109,12.83
04.125,10.15
04.140,7.26
04.156,4.05
04.171,0.27
04.187,-4.35
04.203,-9.9
04.218,-16.08
04.234,-22.2
04.250,-27.38
04.265,-30.81
04.281,-32.15
04.296,-31.49
04.312,-29.3
04.328,-26.21
04.343,-22.66
04.359,-18.88
04.375,-14.9
04.390,-10.81
04.406,-6.84
04.421,-3.41
04.437,-0.94
04.453,0.24
04.468,0.04
04.484,-1.44
04.500,-3.93
04.515,-7.06
04.531,-10.33
04.546,-13.22
04.562,-15.23
04.578,-16.03
04.593,-15.62
04.609,-14.25
04.625,-12.28
04.640,-10.08
04.656,-7.79
04.671,-5.55
04.687,-3.4
04.703,-1.49
04.718,-0.01
04.734,0.99
04.750,1.7
04.765,2.55
04.781,3.95
04.796,6.13
04.812,8.87
04.828,11.68
04.843,14.03
04.859,15.61
04.875,16.45
04.890,16.81
04.906,17.07
04.921,17.43
04.937,17.94
04.953,18.48
04.968,18.85
04.984,18.89
05.000,18.46
05.015,17.41
05.031,15.66
05.046,13.21
05.062,10.23
05.078,7.13
05.093,4.42
05.109,2.54
05.125,1.67
05.140,1.71
05.156,2.36
05.171,3.24
05.187,4.17
05.203,5.16
05.218,6.43
05.234,8.27
05.250,10.99
05.265,14.91
05.281,20.26
05.296,27.13
05.312,35.2
05.328,43.74
05.343,51.78
05.359,58.52
05.375,63.84
05.390,68.48
05.406,73.82
05.421,81.27
05.437,91.75
05.453,105.43
05.468,121.89
05.484,140.59
05.500,161.19
05.515,183.8
05.531,208.81
05.546,236.66
05.562,267.43
05.578,300.48
05.593,334.24
05.609,366.19
05.625,393.28
05.640,412.64
05.656,422.47
05.671,422.34
05.687,413.13
05.703,396.45
05.718,374.21
05.734,348.57
05.750,322.24
05.765,298.38
05.781,279.84
05.796,268.03
05.812,261.82
05.828,257.68
05.843,250.99
05.859,237.93
05.875,217.26
05.890,190.43
05.906,160.7
05.921,131.28
05.937,104.13
05.953,79.7
05.968,57.46
05.984,36.94
06.000,18.18
06.015,1.65
06.031,-12.23
06.046,-23.58
06.062,-32.99
06.078,-41.39
06.093,-49.52
06.109,-57.71
06.125,-65.77
06.140,-73.3
06.156,-79.95
06.171,-85.75
06.187,-91.24
06.203,-97.28
06.218,-104.78
06.234,-114.33
06.250,-125.95
06.265,-139.04
06.281,-152.72
06.296,-166.11
06.312,-178.82
06.328,-191.06
06.343,-203.42
06.359,-216.58
06.375,-230.7
06.390,-245.26
06.406,-259.23
06.421,-271.57
06.437,-281.8
06.453,-290.16
06.468,-297.22
06.484,-303.19
06.500,-307.75
06.515,-310.01
06.531,-309.27
06.546,-305.59
06.562,-299.87
06.578,-293.34
06.593,-286.81
06.609,-280.45
06.625,-274.22
06.640,-268.78
06.656,-265.84
06.671,-267.67
06.687,-275.73
06.703,-289.43
06.718,-305.8
06.734,-320.48
06.750,-329.5
06.765,-330.74
06.781,-324.38
06.796,-312.05
06.812,-295.71
06.828,-276.73
06.843,-255.95
06.859,-234.19
06.875,-212.73
06.890,-193.33
06.906,-177.58
06.921,-166.15
06.937,-158.36
06.953,-152.44
06.968,-146.15
06.984,-137.58
07.000,-125.78
07.015,-110.83
07.031,-93.68
07.046,-75.76
07.062,-58.65
07.078,-43.78
07.093,-32.26
07.109,-24.69
07.125,-21.03
07.140,-20.74
07.156,-22.78
07.171,-25.9
07.187,-28.87
07.203,-30.71
07.218,-30.92
07.234,-29.4
07.250,-26.36
07.265,-22.24
07.281,-17.48
07.296,-12.4
07.312,-7.26
07.328,-2.24
07.343,2.35
07.359,5.98
07.375,8.0
07.390,8.01
07.406,6.14
07.421,3.13
07.437,0.19
07.453,-1.65
07.468,-2.02
07.484,-1.35
07.500,-0.53
07.515,-0.32
07.531,-0.8
07.546,-1.36
07.562,-1.2
07.578,0.17
07.593,2.51
07.609,5.03
07.625,6.85
07.640,7.43
07.656,6.83
07.671,5.5
07.687,3.9
07.703,2.29
07.718,0.59
07.734,-1.37
07.750,-3.67
07.765,-6.1
07.781,-8.2
07.796,-9.41
07.812,-9.24
07.828,-7.43
07.843,-4.03
07.859,0.71
07.875,6.4
07.890,12.63
07.906,19.12
07.921,25.58
07.937,31.82
07.953,37.67
07.968,43.06
07.984,47.97
08.000,52.33
08.015,55.98
08.031,58.58
08.046,59.69
08.062,58.98
08.078,56.42
08.093,52.35
08.109,47.39
08.125,42.27
08.140,37.63
08.156,33.92
08.171,31.49
08.187,30.51
08.203,31.1
08.218,33.29
08.234,36.93
08.250,41.59
08.265,46.73
08.281,51.75
08.296,56.08
08.312,59.21
08.328,60.73
08.343,60.34
08.359,58.05
08.375,54.27
08.390,49.67
08.406,45.04
08.421,40.88
08.437,37.34
08.453,34.2
08.468,31.27
08.484,28.49
08.500,25.98
08.515,23.9
08.531,22.26
08.546,21.06
08.562,20.36
08.578,20.64
08.593,22.56
08.609,26.66
08.625,32.69
08.640,39.42
08.656,44.84
08.671,46.95
08.687,44.55
08.703,37.63
08.718,27.27
08.734,15.17
08.750,2.96
08.765,-8.11
08.781,-17.17
08.796,-23.67
08.812,-27.32
08.828,-28.12
08.843,-26.58
08.859,-23.76
08.875,-20.9
08.890,-18.99
08.906,-18.17
08.921,-17.47
08.937,-15.05
08.953,-9.05
08.968,1.58
08.984,16.32
09.000,33.07
09.015,48.77
09.031,60.49
09.046,66.47
09.062,66.68
09.078,62.55
09.093,56.03
09.109,48.77
09.125,41.33
09.140,33.39
09.156,24.13
09.171,13.14
09.187,0.87
09.203,-11.35
09.218,-21.79
09.234,-29.05
09.250,-32.42
09.265,-32.06
09.281,-28.62
09.296,-22.93
09.312,-15.75
09.328,-7.79
09.343,0.21
09.359,7.38
09.375,12.86
09.390,16.09
09.406,17.13
09.421,16.8
09.437,16.47
09.453,17.58
09.468,21.02
09.484,26.69
09.500,33.53
09.515,39.88
09.531,44.19
09.546,45.53
09.562,43.9
09.578,40.15
09.593,35.5
09.609,31.18
09.625,28.03
09.640,26.58
09.656,26.95
09.671,28.99
09.687,32.3
09.703,36.29
09.718,40.34
09.734,43.94
09.750,46.88
09.765,49.12
09.781,50.77
09.796,51.79
09.812,51.96
09.828,50.84
09.843,48.04
09.859,43.32
09.875,36.82
09.890,29.13
09.906,21.1
09.921,13.68
09.937,7.65
09.953,3.35
09.968,0.63
09.984,-1.04
10.000,-2.37
10.015,-3.88
10.031,-5.72
10.046,-7.72
10.062,-9.55
10.078,-10.9
10.093,-11.64
10.109,-11.82
10.125,-11.57
10.140,-11.03
10.156,-10.34
10.171,-9.68
10.187,-9.28
10.203,-9.42
10.218,-10.15
10.234,-11.29
10.250,-12.45
10.265,-13.15
10.281,-12.99
10.296,-11.82
10.312,-9.69
10.328,-6.83
10.343,-3.56
10.359,-0.23
10.375,2.79
10.390,5.19
10.406,6.71
10.421,7.27
10.437,7.09
10.453,6.52
10.468,6.03
10.484,5.97
10.500,6.41
10.515,7.26
10.531,8.28
10.546,9.25
10.562,10.01
10.578,10.4
10.593,10.29
10.609,9.5
10.625,7.88
10.640,5.37
10.656,2.16
10.671,-1.28
10.687,-4.31
10.703,-6.21
10.718,-6.56
10.734,-5.28
10.750,-2.71
10.765,0.54
10.781,3.76
10.796,6.5
10.812,8.56
10.828,10.0
10.843,10.98
10.859,11.55
10.875,11.63
10.890,11.05
10.906,9.69
10.921,7.62
10.937,5.14
10.953,2.7
10.968,0.79
10.984,-0.2
11.000,-0.17
11.015,0.8
11.031,2.39
11.046,4.18
11.062,5.85
11.078,7.19
11.093,8.2
11.109,9.02
11.125,9.85
11.140,10.74
11.156,11.66
11.171,12.44
11.187,12.91
11.203,12.97
11.218,12.66
11.234,12.18
11.250,11.71
11.265,11.45
11.281,11.51
11.296,12.01
11.312,13.06
11.328,14.82
11.343,17.32
11.359,20.55
11.375,24.34
11.390,28.37
11.406,32.28
11.421,35.67
11.437,38.24
11.453,39.85
11.468,40.56
11.484,40.59
11.500,40.22
11.515,39.69
11.531,39.15
11.546,38.61
11.562,38.1
11.578,37.62
11.593,37.3
11.609,37.28
11.625,37.61
11.640,38.19
11.656,38.79
11.671,38.98
11.687,38.31
11.703,36.42
11.718,33.07
11.734,28.36
11.750,22.72
11.765,16.9
11.781,11.76
11.796,8.04
11.812,6.1
11.828,5.79
11.843,6.56
11.859,7.67
11.875,8.43
11.890,8.45
11.906,7.54
11.921,5.81
11.937,3.47
11.953,0.82
11.968,-1.77
11.984,-4.02
12.000,-5.79
12.015,-7.13
12.031,-8.19
12.046,-9.14
12.062,-10.03
12.078,-10.77
12.093,-11.25
12.109,-11.41
12.125,-11.34
12.140,-11.27
12.156,-11.37
12.171,-11.59
12.187,-11.56
12.203,-10.68
12.218,-8.44
12.234,-4.65
12.250,0.32
12.265,5.56
12.281,9.79
12.296,11.75
12.312,10.52
12.328,5.9
12.343,-1.58
12.359,-10.78
12.375,-20.24
12.390,-28.57
12.406,-34.66
12.421,-37.88
12.437,-38.08
12.453,-35.6
12.468,-31.12
12.484,-25.57
12.500,-19.83
12.515,-14.57
12.531,-10.11
12.546,-6.29
12.562,-2.71
12.578,1.08
12.593,5.33
12.609,9.86
12.625,14.08
12.640,17.12
12.656,18.13
12.671,16.48
12.687,12.1
12.703,5.52
12.718,-2.2
12.734,-9.65
12.750,-15.47
12.765,-18.65
12.781,-18.82
12.796,-16.25
12.812,-11.78
12.828,-6.53
12.843,-1.64
12.859,1.83
12.875,3.11
12.890,1.67
12.906,-2.67
12.921,-9.59
12.937,-18.27
12.953,-27.42
12.968,-35.59
12.984,-41.55
13.000,-44.61
13.015,-44.79
13.031,-42.63
13.046,-38.87
13.062,-34.06
13.078,-28.47
13.093,-22.18
13.109,-15.3
13.125,-8.16
13.140,-1.36
13.156,4.46
13.171,8.88
13.187,11.9
13.203,14.05
13.218,16.1
13.234,18.83
13.250,22.68
13.265,27.7
13.281,33.52
13.296,39.67
13.312,45.75
13.328,51.5
13.343,56.8
13.359,61.45
13.375,65.08
13.390,67.27
13.406,67.64
13.421,66.16
13.437,63.33
13.453,60.08
13.468,57.35
13.484,55.73
13.500,55.06
13.515,54.44
13.531,52.57
13.546,48.28
13.562,41.1
13.578,31.54
13.593,21.05
13.609,11.46
13.625,4.41
13.640,0.83
13.656,0.65
13.671,2.99
13.687,6.57
13.703,10.1
13.718,12.6
13.734,13.39
13.750,11.95
13.765,7.87
13.781,0.95
13.796,-8.75
13.812,-20.59
13.828,-33.44
13.843,-45.93
13.859,-56.64
13.875,-64.51
13.890,-68.98
13.906,-69.89
13.921,-67.53
13.937,-62.54
13.953,-55.76
13.968,-48.24
13.984,-40.96
14.000,-34.5
14.015,-29.06
14.031,-24.41
14.046,-20.13
14.062,-15.88
14.078,-11.68
14.093,-7.7
14.109,-4.22
14.125,-1.36
14.140,0.98
14.156,3.03
14.171,4.94
14.187,6.77
14.203,8.48
14.218,10.05
14.234,11.54
14.250,13.09
14.265,14.82
14.281,16.68
14.296,18.38
14.312,19.51
14.328,19.68
14.343,18.72
14.359,16.74
14.375,14.2
14.390,11.62
14.406,9.54
14.421,8.32
14.437,8.15
14.453,9.04
14.468,10.88
14.484,13.44
14.500,16.44
14.515,19.51
14.531,22.18
14.546,23.91
14.562,24.26
14.578,22.93
14.593,19.82
14.609,15.06
14.625,8.88
14.640,1.67
14.656,-6.07
14.671,-13.72
14.687,-20.61
14.703,-26.08
14.718,-29.61
14.734,-30.97
14.750,-30.33
14.765,-28.11
14.781,-24.92
14.796,-21.36
14.812,-17.88
14.828,-14.72
14.843,-11.96
14.859,-9.59
14.875,-7.52
14.890,-5.71
14.906,-4.12
14.921,-2.68
14.937,-1.4
14.953,-0.22
14.968,0.96
14.984,2.32
15.000,4.16
15.015,6.83
15.031,10.62
15.046,15.58
15.062,21.48
15.078,27.77
15.093,33.79
15.109,38.96
15.125,42.96
15.140,45.7
15.156,47.3
15.171,47.76
15.187,46.91
15.203,44.42
15.218,39.9
15.234,33.28
15.250,24.91
15.265,15.71
15.281,6.94
15.296,-0.09
15.312,-4.46
15.328,-5.91
15.343,-4.89
15.359,-2.36
15.375,0.66
15.390,3.43
15.406,5.55
15.421,6.94
15.437,7.55
15.453,7.22
15.468,5.71
15.484,2.9
15.500,-1.09
15.515,-5.9
15.531,-11.09
15.546,-16.41
15.562,-21.9
15.578,-27.73
15.593,-33.89
15.609,-39.97
15.625,-45.11
15.640,-48.32
15.656,-48.84
15.671,-46.53
15.687,-41.84
15.703,-35.66
15.718,-28.92
15.734,-22.39
15.750,-16.59
15.765,-11.82
15.781,-8.34
15.796,-6.22
15.812,-5.41
15.828,-5.57
15.843,-6.14
15.859,-6.58
15.875,-6.52
15.890,-5.95
15.906,-5.15
15.921,-4.45
15.937,-4.05
15.953,-3.88
15.968,-3.75
15.984,-3.45
16.000,-2.96
16.015,-2.44
16.031,-2.14
16.046,-2.25
16.062,-2.77
16.078,-3.54
16.093,-4.35
16.109,-5.06
16.125,-5.63
16.140,-6.14
16.156,-6.66
16.171,-7.17
16.187,-7.5
16.203,-7.41
16.218,-6.7
16.234,-5.28
16.250,-3.34
16.265,-1.31
16.281,0.22
16.296,0.7
16.312,-0.07
16.328,-1.87
16.343,-4.13
16.359,-6.14
16.375,-7.37
16.390,-7.68
16.406,-7.3
16.421,-6.65
16.437,-6.04
16.453,-5.47
16.468,-4.68
16.484,-3.26
16.500,-0.94
16.515,2.31
16.531,6.29
16.546,10.54
16.562,14.54
16.578,17.84
16.593,20.21
16.609,21.71
16.625,22.58
16.640,23.18
16.656,23.71
16.671,24.19
16.687,24.42
16.703,24.19
16.718,23.39
16.734,22.12
16.750,20.53
16.765,18.8
16.781,16.96
16.796,15.02
16.812,13.04
16.828,11.32
16.843,10.28
16.859,10.34
16.875,11.61
16.890,13.84
16.906,16.58
16.921,19.42
16.937,22.24
16.953,25.25
16.968,28.81
16.984,33.04
17.000,37.56
17.015,41.42
17.031,43.4
17.046,42.45
17.062,38.07
17.078,30.58
17.093,20.93
17.109,10.41
17.125,0.17
17.140,-9.08
17.156,-17.12
17.171,-24.16
17.187,-30.43
17.203,-36.08
17.218,-40.98
17.234,-44.86
17.250,-47.42
17.265,-48.48
17.281,-48.16
17.296,-46.72
17.312,-44.53
17.328,-41.93
17.343,-39.15
17.359,-36.29
17.375,-33.43
17.390,-30.63
17.406,-27.96
17.421,-25.43
17.437,-22.93
17.453,-20.29
17.468,-17.27
17.484,-13.8
17.500,-9.94
17.515,-6.03
17.531,-2.42
17.546,0.62
17.562,3.13
17.578,5.44
17.593,8.05
17.609,11.29
17.625,15.08
17.640,18.89
17.656,21.81
17.671,23.03
17.687,22.16
17.703,19.41
17.718,15.53
17.734,11.46
17.750,7.85
17.765,4.84
17.781,2.06
17.796,-1.08
17.812,-5.0
17.828,-9.68
17.843,-14.68
17.859,-19.32
17.875,-22.99
17.890,-25.54
17.906,-27.15
17.921,-28.27
17.937,-29.24
17.953,-30.06
17.968,-30.39
17.984,-29.78
18.000,-27.94
18.015,-25.11
18.031,-21.86
18.046,-18.88
18.062,-16.5
18.078,-14.63
18.093,-12.75
18.109,-10.39
18.125,-7.43
18.140,-4.17
18.156,-1.23
18.171,0.86
18.187,1.98
18.203,2.43
18.218,2.79
18.234,3.77
18.250,5.95
18.265,9.65
18.281,14.92
18.296,21.45
18.312,28.68
18.328,36.09
18.343,43.47
18.359,51.08
18.375,59.68
18.390,70.04
18.406,82.48
18.421,96.62
18.437,111.54
18.453,126.44
18.468,141.15
18.484,156.44
18.500,173.63
18.515,193.93
18.531,217.62
18.546,243.73
18.562,270.03
18.578,293.41
18.593,310.45
18.609,317.82
18.625,312.74
18.640,293.58
18.656,260.46
18.671,215.76
18.687,164.15
18.703,111.95
18.718,65.6
18.734,30.11
18.750,7.67
18.765,-2.73
18.781,-4.57
18.796,-2.33
18.812,-0.03
18.828,-0.17
18.843,-3.56
18.859,-9.86
18.875,-18.46
18.890,-28.92
18.906,-41.09
18.921,-54.78
18.937,-69.33
18.953,-83.42
18.968,-95.49
18.984,-104.28
19.000,-109.57
19.015,-112.36
19.031,-114.36
19.046,-117.08
19.062,-120.86
19.078,-124.56
19.093,-126.1
19.109,-123.68
19.125,-116.91
19.140,-107.45
19.156,-98.46
19.171,-93.43
19.187,-94.76
19.203,-102.9
19.218,-116.37
19.234,-132.57
19.250,-148.83
19.265,-163.31
19.281,-175.38
19.296,-185.24
19.312,-193.47
19.328,-200.43
19.343,-206.13
19.359,-210.25
19.375,-212.44
19.390,-212.46
19.406,-210.08
19.421,-204.89
19.437,-196.29
19.453,-183.73
19.468,-167.15
19.484,-147.36
19.500,-125.94
19.515,-104.79
19.531,-85.5
19.546,-68.85
19.562,-54.89
19.578,-43.18
19.593,-33.32
19.609,-25.15
19.625,-18.59
19.640,-13.38
19.656,-8.96
19.671,-4.57
19.687,0.43
19.703,6.23
19.718,12.42
19.734,18.28
19.750,23.0
19.765,26.15
19.781,27.68
19.796,27.95
19.812,27.45
19.828,26.62
19.843,25.61
19.859,24.3
19.875,22.52
19.890,20.2
19.906,17.52
19.921,14.88
19.937,12.64
19.953,10.98
19.968,9.72
19.984,8.42
20.000,6.51
20.015,3.68
20.046,-3.98
20.062,-7.48
20.078,-9.78
20.093,-10.5
20.109,-9.82
20.125,-8.35
20.140,-6.93
20.156,-6.18
20.171,-6.33
20.187,-7.05
20.203,-7.67
20.218,-7.58
20.234,-6.53
20.250,-4.78
20.265,-2.97
20.281,-1.8
20.296,-1.72
20.312,-2.82
20.328,-4.77
20.343,-7.08
20.359,-9.38
20.375,-11.54
20.390,-13.69
20.406,-16.04
20.421,-18.56
20.437,-20.96
20.453,-22.67
20.468,-23.13
20.484,-22.09
20.500,-19.85
20.515,-17.16
20.531,-14.97
20.546,-13.89
20.562,-13.9
20.578,-14.21
20.593,-13.67
20.609,-11.24
20.625,-6.5
20.640,0.1
20.656,7.41
20.671,14.0
20.687,18.71
20.703,21.07
20.718,21.38
20.734,20.56
20.750,19.87
20.765,20.62
20.781,23.96
20.796,30.82
20.812,41.63
20.828,56.27
20.843,73.83
20.859,92.88
20.875,111.94
20.890,130.48
20.906,149.51
20.921,171.46
20.937,198.97
20.953,233.14
20.968,272.09
20.984,310.92
21.000,343.17
21.015,362.93
21.031,366.79
21.046,354.32
21.062,327.31
21.078,288.48
21.093,240.54
21.109,186.2
21.125,128.73
21.140,72.38
21.156,21.91
21.171,-18.45
21.187,-46.22
21.203,-61.19
21.218,-64.99
21.234,-60.26
21.250,-49.86
21.265,-36.53
21.281,-22.93
21.296,-11.54
21.312,-4.35
21.328,-2.31
21.343,-5.09
21.359,-11.15
21.375,-18.48
21.390,-25.37
21.406,-30.91
21.421,-34.91
21.437,-37.66
21.453,-39.62
21.468,-41.22
21.484,-42.95
21.500,-45.52
21.515,-49.8
21.531,-56.59
21.546,-66.25
21.562,-78.55
21.578,-92.55
21.593,-106.8
21.609,-119.55
21.625,-129.17
21.640,-134.54
21.656,-135.44
21.671,-132.61
21.687,-127.53
21.703,-121.71
21.718,-115.98
21.734,-110.15
21.750,-103.25
21.765,-94.42
21.781,-83.71
21.796,-72.4
21.812,-62.46
21.828,-55.6
21.843,-52.45
21.859,-52.34
21.875,-53.83
21.890,-55.59
21.906,-56.95
21.921,-57.96
21.937,-58.91
21.953,-59.85
21.968,-60.39
21.984,-60.04
22.000,-58.77
22.015,-57.23
22.031,-56.64
22.046,-58.08
22.062,-61.89
22.078,-67.37
22.093,-72.99
22.109,-77.08
22.125,-78.43
22.140,-76.79
22.156,-72.75
22.171,-67.4
22.187,-61.8
22.203,-56.63
22.218,-52.1
22.234,-48.1
22.250,-44.57
22.265,-41.51
22.281,-39.05
22.296,-37.19
22.312,-35.75
22.328,-34.31
22.343,-32.33
22.359,-29.5
22.375,-25.8
22.390,-21.66
22.406,-17.64
22.421,-14.24
22.437,-11.66
22.453,-9.66
22.468,-7.87
22.484,-5.92
22.500,-3.73
22.515,-1.53
22.531,0.28
22.546,1.32
22.562,1.5
22.578,1.02
22.593,0.31
22.609,-0.24
22.625,-0.43
22.640,-0.35
22.656,-0.2
22.671,-0.13
22.687,-0.1
22.703,0.1
22.718,0.72
22.734,1.9
22.750,3.43
22.765,4.85
22.781,5.46
22.796,4.52
22.812,1.56
22.828,-3.51
22.843,-10.27
22.859,-17.86
22.875,-25.16
22.890,-31.18
22.906,-35.31
22.921,-37.52
22.937,-38.28
22.953,-38.32
22.968,-38.29
22.984,-38.48
23.000,-38.75
23.015,-38.62
23.031,-37.46
23.046,-34.82
23.062,-30.6
23.078,-25.16
23.093,-19.21
23.109,-13.61
23.125,-9.04
23.140,-5.79
23.156,-3.78
23.171,-2.57
23.187,-1.5
23.203,0.37
23.218,4.22
23.234,11.21
23.250,22.06
23.265,36.49
23.281,53.25
23.296,70.47
23.312,86.55
23.328,100.83
23.343,113.58
23.359,125.37
23.375,136.11
23.390,144.63
23.406,148.93
23.421,147.3
23.437,139.41
23.453,126.67
23.468,111.7
23.484,97.06
23.500,84.26
23.515,73.16
23.531,62.74
23.546,51.83
23.562,40.09
23.578,28.2
23.593,17.54
23.609,9.39
23.625,4.2
23.640,1.51
23.656,0.11
23.671,-1.16
23.687,-3.09
23.703,-5.96
23.718,-9.85
23.734,-15.03
23.750,-21.92
23.765,-30.87
23.781,-41.63
23.796,-53.07
23.812,-63.41
23.828,-70.71
23.843,-73.64
23.859,-71.82
23.875,-65.93
23.890,-57.31
23.906,-47.45
23.921,-37.61
23.937,-28.66
23.953,-21.08
23.968,-15.12
23.984,-10.9
24.000,-8.4
24.015,-7.46
24.031,-7.72
24.046,-8.69
24.062,-9.82
24.078,-10.79
24.093,-11.51
24.109,-12.18
24.125,-13.09
24.140,-14.44
24.156,-16.15
24.171,-17.93
24.187,-19.42
24.203,-20.35
24.218,-20.72
24.234,-20.7
24.250,-20.51
24.265,-20.25
24.281,-19.85
24.296,-19.12
24.312,-17.88
24.328,-16.13
24.343,-14.09
24.359,-12.04
24.375,-10.28
24.390,-8.92
24.406,-7.86
24.421,-6.83
24.437,-5.66
24.453,-4.27
24.468,-2.74
24.484,-1.23
24.500,0.13
24.515,1.34
24.531,2.48
24.546,3.63
24.562,4.81
24.578,5.96
24.593,6.97
24.609,7.76
24.625,8.42
24.640,9.09
24.656,10.01
24.671,11.42
24.687,13.46
24.703,16.19
24.718,19.48
24.734,23.04
24.750,26.45
24.765,29.23
24.781,30.96
24.796,31.38
24.812,30.41
24.828,28.17
24.843,24.83
24.859,20.54
24.875,15.45
24.890,9.7
24.906,3.55
24.921,-2.66
24.937,-8.43
24.953,-13.27
24.968,-16.77
24.984,-18.73
25.000,-19.22
25.015,-18.56
25.031,-17.22
25.046,-15.63
25.062,-14.05
25.078,-12.51
25.093,-10.81
25.109,-8.69
25.125,-5.99
25.140,-2.79
25.156,0.62
25.171,3.81
25.187,6.39
25.203,8.15
25.218,9.04
25.234,9.16
25.250,8.63
25.265,7.59
25.281,6.12
25.296,4.29
25.312,2.19
25.328,0.02
25.343,-2.03
25.359,-3.74
25.375,-4.95
25.390,-5.58
25.406,-5.57
25.421,-5.01
25.437,-3.99
25.453,-2.72
25.468,-1.4
25.484,-0.19
25.500,0.85
25.515,1.75
25.531,2.68
25.546,3.83
25.562,5.32
25.578,7.15
25.593,9.2
25.609,11.22
25.625,13.03
25.640,14.63
25.656,16.2
25.671,18.08
25.687,20.53
25.703,23.59
25.718,26.98
25.734,30.21
25.750,32.82
25.765,34.62
25.781,35.68
25.796,36.26
25.812,36.44
25.828,36.1
25.843,34.96
25.859,32.78
25.875,29.63
25.890,25.92
25.906,22.28
25.921,19.3
25.937,17.26
25.953,16.14
25.968,15.74
25.984,15.81
26.000,16.15
26.015,16.59
26.031,16.93
26.046,17.02
26.062,16.7
26.078,15.83
26.093,14.38
26.109,12.4
26.125,9.98
26.140,7.31
26.156,4.61
26.171,2.13
26.187,0.01
26.203,-1.79
26.218,-3.46
26.234,-5.25
26.250,-7.23
26.265,-9.17
26.281,-10.58
26.296,-10.84
26.312,-9.49
26.328,-6.39
26.343,-1.9
26.359,3.28
26.375,8.36
26.390,12.64
26.406,15.75
26.421,17.71
26.437,18.82
26.453,19.44
26.468,19.84
26.484,20.02
26.500,19.76
26.515,18.72
26.531,16.63
26.546,13.47
26.562,9.56
26.578,5.46
26.593,1.81
26.609,-0.87
26.625,-2.33
26.640,-2.64
26.656,-2.23
26.671,-1.67
26.687,-1.48
26.703,-2.0
26.718,-3.3
26.734,-5.15
26.750,-7.19
26.765,-9.07
26.781,-10.54
26.796,-11.61
26.812,-12.47
26.828,-13.4
26.843,-14.63
26.859,-16.27
26.875,-18.25
26.890,-20.29
26.906,-22.01
26.921,-22.91
26.937,-22.54
26.953,-20.52
26.968,-16.81
26.984,-11.65
27.000,-5.62
27.015,0.53
27.031,6.1
27.046,10.65
27.062,14.09
27.078,16.54
27.093,18.21
27.109,19.19
27.125,19.46
27.140,19.0
27.156,17.93
27.171,16.49
27.187,15.1
27.203,14.13
27.218,13.81
27.234,14.16
27.250,15.01
27.265,16.09
27.281,17.09
27.296,17.7
27.312,17.55
27.328,16.32
27.343,13.85
27.359,10.21
27.375,5.85
27.390,1.46
27.406,-2.18
27.421,-4.47
27.437,-5.08
27.453,-4.09
27.468,-1.89
27.484,1.05
27.500,4.25
27.515,7.42
27.531,10.37
27.546,12.99
27.562,15.04
27.578,16.2
27.593,16.06
27.609,14.29
27.625,10.88
27.640,6.28
27.656,1.37
27.671,-2.72
27.687,-4.95
27.703,-4.73
27.718,-2.04
27.734,2.58
27.750,8.25
27.765,14.03
27.781,19.28
27.796,23.62
27.812,27.05
27.828,29.75
27.843,31.94
27.859,33.84
27.875,35.6
27.890,37.24
27.906,38.65
27.921,39.57
27.937,39.57
27.953,38.2
27.968,35.11
27.984,30.26
28.000,24.02
28.015,17.18
28.031,10.73
28.046,5.55
28.062,2.23
28.078,0.82
28.093,0.94
28.109,1.9
28.125,2.84
28.140,3.02
28.156,2.02
28.171,-0.16
28.187,-3.02
28.203,-5.62
28.218,-6.94
28.234,-6.16
28.250,-3.04
28.265,1.91
28.281,7.7
28.296,13.07
28.312,16.96
28.328,18.79
28.343,18.46
28.359,16.37
28.375,13.13
28.390,9.51
28.406,6.19
28.421,3.78
28.437,2.68
28.453,2.99
28.468,4.43
28.484,6.34
28.500,7.78
28.515,7.8
28.531,5.64
28.546,0.95
28.562,-6.07
28.578,-14.62
28.593,-23.4
28.609,-30.9
28.625,-35.68
28.640,-36.85
28.656,-34.27
28.671,-28.64
28.687,-21.24
28.703,-13.49
28.718,-6.66
28.734,-1.51
28.750,1.7
28.765,3.08
28.781,2.94
28.796,1.64
28.812,-0.42
28.828,-2.78
28.843,-4.99
28.859,-6.72
28.875,-7.84
28.890,-8.55
28.906,-9.21
28.921,-10.14
28.937,-11.3
28.953,-12.14
28.968,-11.73
28.984,-9.1
29.000,-3.76
29.015,3.97
29.031,12.89
29.046,21.23
29.062,27.21
29.078,29.64
29.093,28.19
29.109,23.41
29.125,16.44
29.140,8.54
29.156,0.8
29.171,-6.08
29.187,-11.78
29.203,-16.25
29.218,-19.58
29.234,-21.91
29.250,-23.45
29.265,-24.37
29.281,-24.89
29.296,-25.19
29.312,-25.4
29.328,-25.5
29.343,-25.37
29.359,-24.84
29.375,-23.76
29.390,-22.12
29.406,-20.12
29.421,-18.06
29.437,-16.29
29.453,-14.99
29.468,-14.09
29.484,-13.28
29.500,-12.13
29.515,-10.28
29.531,-7.65
29.546,-4.39
29.562,-0.86
29.578,2.51
29.593,5.49
29.609,7.95
29.625,9.94
29.640,11.47
29.656,12.5
29.671,12.91
29.687,12.74
29.703,12.11
29.718,11.31
29.734,10.66
29.750,10.24
29.765,9.89
29.781,9.17
29.796,7.7
29.812,5.31
29.828,2.22
29.843,-1.06
29.859,-3.98
29.875,-6.11
29.890,-7.37
29.906,-7.93
29.921,-8.06
29.937,-7.95
29.953,-7.62
29.968,-6.97
29.984,-5.89
30.000,-4.49
30.015,-3.03
30.031,-1.96
30.046,-1.67
30.062,-2.29
30.078,-3.62
30.093,-5.22
30.109,-6.62
30.125,-7.51
30.140,-7.95
30.156,-8.18
30.171,-8.49
30.187,-8.96
30.203,-9.39
30.218,-9.37
30.234,-8.63
30.250,-7.24
30.265,-5.59
30.281,-4.32
30.296,-3.92
30.312,-4.51
30.328,-5.72
30.343,-6.88
30.359,-7.3
30.375,-6.49
30.390,-4.3
30.406,-0.86
30.421,3.5
30.437,8.33
30.453,13.04
30.468,16.91
30.484,19.12
30.500,18.94
30.515,15.98
30.531,10.42
30.546,3.01
30.562,-5.05
30.578,-12.5
30.593,-18.32
30.609,-22.05
30.625,-23.68
30.640,-23.59
30.656,-22.24
30.671,-20.07
30.687,-17.37
30.703,-14.44
30.718,-11.63
30.734,-9.42
30.750,-8.35
30.765,-8.76
30.781,-10.66
30.796,-13.75
30.812,-17.48
30.828,-21.3
30.843,-24.74
30.859,-27.52
30.875,-29.44
30.890,-30.34
30.906,-30.16
30.921,-28.84
30.937,-26.5
30.953,-23.46
30.968,-20.09
30.984,-16.73
31.000,-13.64
31.015,-10.96
31.031,-8.75
31.046,-7.1
31.062,-6.02
31.078,-5.47
31.093,-5.22
31.109,-4.98
31.125,-4.52
31.140,-3.85
31.156,-3.16
31.171,-2.74
31.187,-2.93
31.203,-3.84
31.218,-5.35
31.234,-7.11
31.250,-8.69
31.265,-9.75
31.281,-10.02
31.296,-9.42
31.312,-7.95
31.328,-5.77
31.343,-3.06
31.359,-0.08
31.375,2.85
31.390,5.48
31.406,7.52
31.421,8.79
31.437,9.23
31.453,8.92
31.468,8.03
31.484,6.85
31.500,5.63
31.515,4.52
31.531,3.54
31.546,2.59
31.562,1.5
31.578,0.21
31.593,-1.2
31.609,-2.51
31.625,-3.41
31.640,-3.67
31.656,-3.21
31.671,-2.1
31.687,-0.49
31.703,1.41
31.718,3.46
31.734,5.57
31.750,7.65
31.765,9.62
31.781,11.31
31.796,12.57
31.812,13.33
31.828,13.64
31.843,13.68
31.859,13.66
31.875,13.69
31.890,13.7
31.906,13.53
31.921,12.94
31.937,11.8
31.953,10.2
31.968,8.38
31.984,6.63
32.000,5.18
32.015,4.11
32.031,3.35
32.046,2.69
32.062,1.92
32.078,0.9
32.093,-0.23
32.109,-1.02
32.125,-0.78
32.140,1.15
32.156,5.06
32.171,10.69
32.187,17.23
32.203,23.54
32.218,28.64
32.234,31.88
32.250,33.08
32.265,32.38
32.281,30.0
32.296,26.11
32.312,20.9
32.328,14.64
32.343,7.7
32.359,0.61
32.375,-6.13
32.390,-12.03
32.406,-16.63
32.421,-19.57
32.437,-20.53
32.453,-19.39
32.468,-16.31
32.484,-11.77
32.500,-6.47
32.515,-1.17
32.531,3.55
32.546,7.37
32.562,10.3
32.578,12.55
32.593,14.45
32.609,16.32
32.625,18.3
32.640,20.35
32.656,22.24
32.671,23.65
32.687,24.37
32.703,24.45
32.718,24.25
32.734,24.27
32.750,25.04
32.765,26.78
32.781,29.45
32.796,32.76
32.812,36.4
32.828,40.15
32.843,43.85
32.859,47.34
32.875,50.56
32.890,53.8
32.906,58.02
32.921,64.7
32.937,75.16
32.953,89.68
32.968,106.58
32.984,122.42
33.000,132.88
33.015,134.31
33.031,125.04
33.046,105.77
33.062,78.98
33.078,47.83
33.093,15.19
33.109,-16.68
33.125,-46.0
33.140,-71.23
33.156,-91.04
33.171,-104.62
33.187,-111.96
33.203,-113.88
33.218,-111.68
33.234,-106.7
33.250,-99.87
33.265,-91.71
33.281,-82.41
33.296,-72.12
33.312,-61.06
33.328,-49.56
33.343,-37.93
33.359,-26.33
33.375,-14.66
33.390,-2.66
33.406,10.0
33.421,23.45
33.437,37.46
33.453,51.47
33.468,64.73
33.484,76.51
33.500,86.28
33.515,93.57
33.531,97.76
33.546,97.9
33.562,92.9
33.578,81.97
33.593,65.22
33.609,43.87
33.625,20.03
33.640,-3.9
33.656,-26.07
33.671,-45.58
33.687,-62.44
33.703,-77.05
33.718,-89.59
33.734,-99.71
33.750,-106.76
33.765,-110.22
33.781,-110.22
33.796,-107.59
33.812,-103.71
33.828,-99.8
33.843,-96.48
33.859,-93.55
33.875,-90.17
33.890,-85.44
33.906,-78.88
33.921,-70.7
33.937,-61.56
33.953,-52.34
33.968,-43.76
33.984,-36.28
34.000,-30.19
34.015,-25.75
34.031,-23.18
34.046,-22.62
34.062,-23.96
34.078,-26.75
34.093,-30.27
34.109,-33.75
34.125,-36.48
34.140,-37.98
34.156,-37.96
34.171,-36.37
34.187,-33.27
34.203,-29.0
34.218,-24.01
34.234,-18.92
34.250,-14.23
34.265,-10.24
34.281,-6.95
34.296,-4.15
34.312,-1.6
34.328,0.88
34.343,3.34
34.359,5.62
34.375,7.49
34.390,8.68
34.406,8.97
34.421,8.3
34.437,6.82
34.453,4.89
34.468,3.03
34.484,1.77
34.500,1.5
34.515,2.32
34.531,4.03
34.546,6.18
34.562,8.32
34.578,10.08
34.593,11.42
34.609,12.5
34.625,13.6
34.640,14.87
34.656,16.28
34.671,17.56
34.687,18.43
34.703,18.83
34.718,18.97
34.734,19.35
34.750,20.37
34.765,22.14
34.781,24.2
34.796,25.71
34.812,25.87
34.828,24.29
34.843,21.23
34.859,17.45
34.875,13.87
34.890,11.06
34.906,9.02
34.921,7.34
34.937,5.5
34.953,3.35
34.968,1.19
34.984,-0.39
35.000,-0.83
35.015,0.15
35.031,2.34
35.046,5.3
35.062,8.57
35.078,11.82
35.093,14.76
35.109,16.88
35.125,17.31
35.140,15.02
35.156,9.33
35.171,0.52
35.187,-9.93
35.203,-19.66
35.218,-26.31
35.234,-28.46
35.250,-26.18
35.265,-20.86
35.281,-14.4
35.296,-8.41
35.312,-3.62
35.328,0.09
35.343,3.17
35.359,5.89
35.375,8.1
35.390,9.44
35.406,9.76
35.421,9.4
35.437,8.99
35.453,9.36
35.468,10.96
35.484,13.75
35.500,17.24
35.515,20.71
35.531,23.6
35.546,25.69
35.562,27.18
35.578,28.54
35.593,30.37
35.609,33.12
35.625,36.93
35.640,41.6
35.656,46.48
35.671,50.7
35.687,53.28
35.703,53.36
35.718,50.23
35.734,43.65
35.750,33.96
35.765,22.13
35.781,9.78
35.796,-1.29
35.812,-9.56
35.828,-14.24
35.843,-15.46
35.859,-14.07
35.875,-11.23
35.890,-7.92
35.906,-4.89
35.921,-2.54
35.937,-1.19
35.953,-1.1
35.968,-2.34
35.984,-4.59
36.000,-7.12
36.015,-9.07
36.031,-9.83
36.046,-9.41
36.062,-8.28
36.078,-7.13
36.093,-6.45
36.109,-6.29
36.125,-6.3
36.140,-5.91
36.156,-4.65
36.171,-2.3
36.187,1.07
36.203,5.22
36.218,9.79
36.234,14.22
36.250,17.82
36.265,19.82
36.281,19.72
36.296,17.52
36.312,13.83
36.328,9.62
36.343,5.84
36.359,3.0
36.375,0.95
36.390,-0.9
36.406,-3.23
36.421,-6.53
36.437,-10.82
36.453,-15.77
36.468,-20.94
36.484,-25.88
36.500,-30.28
36.515,-33.83
36.531,-36.24
36.546,-37.25
36.562,-36.81
36.578,-35.05
36.593,-32.33
36.609,-29.05
36.625,-25.6
36.640,-22.25
36.656,-19.11
36.671,-16.17
36.687,-13.28
36.703,-10.36
36.718,-7.39
36.734,-4.59
36.750,-2.31
36.765,-0.89
36.781,-0.51
36.796,-0.98
36.812,-1.83
36.828,-2.55
36.843,-2.87
36.859,-2.78
36.875,-2.49
36.890,-2.2
36.906,-1.85
36.921,-1.23
36.937,-0.05
36.953,1.79
36.968,4.16
36.984,6.79
37.000,9.43
37.015,12.04
37.031,14.7
37.046,17.56
37.062,20.67
37.078,23.97
37.093,27.31
37.109,30.52
37.125,33.57
37.140,36.48
37.156,39.32
37.171,42.19
37.187,45.14
37.203,48.19
37.218,51.25
37.234,54.18
37.250,56.7
37.265,58.45
37.281,59.02
37.296,58.02
37.312,55.26
37.328,50.79
37.343,44.92
37.359,38.21
37.375,31.39
37.390,25.23
37.406,20.42
37.421,17.37
37.437,16.2
37.453,16.73
37.468,18.47
37.484,20.81
37.500,23.19
37.515,25.2
37.531,26.67
37.546,27.56
37.562,27.87
37.578,27.6
37.593,26.65
37.609,24.78
37.625,21.67
37.640,16.98
37.656,10.43
37.671,1.95
37.687,-8.2
37.703,-19.38
37.718,-30.7
37.734,-41.17
37.750,-50.1
37.765,-57.13
37.781,-62.36
37.796,-66.14
37.812,-68.81
37.828,-70.6
37.843,-71.55
37.859,-71.61
37.875,-70.74
37.890,-68.98
37.906,-66.38
37.921,-63.04
37.937,-59.1
37.953,-54.77
37.968,-50.43
37.984,-46.53
38.000,-43.44
38.015,-41.27
38.031,-39.77
38.046,-38.33
38.062,-36.35
38.078,-33.46
38.093,-29.72
38.109,-25.51
38.125,-21.37
38.140,-17.57
38.156,-14.07
38.171,-10.65
38.187,-7.08
38.203,-3.49
38.218,-0.31
38.234,1.86
38.250,2.61
38.265,1.89
38.281,0.15
38.296,-1.9
38.312,-3.57
38.328,-4.4
38.343,-4.31
38.359,-3.47
38.375,-2.16
38.390,-0.64
38.406,0.9
38.421,2.34
38.437,3.62
38.453,4.63
38.468,5.23
38.484,5.23
38.500,4.41
38.515,2.71
38.531,0.2
38.546,-2.77
38.562,-5.74
38.578,-8.2
38.593,-9.84
38.609,-10.54
38.625,-10.42
38.640,-9.66
38.656,-8.27
38.671,-6.16
38.687,-3.11
38.703,0.89
38.718,5.58
38.734,10.39
38.750,14.71
38.765,18.01
38.781,20.07
38.796,21.08
38.812,21.37
38.828,21.36
38.843,21.28
38.859,21.29
38.875,21.38
38.890,21.57
38.906,21.93
38.921,22.56
38.937,23.54
38.953,24.85
38.968,26.46
38.984,28.21
39.000,29.94
39.015,31.44
39.031,32.58
39.046,33.29
39.062,33.58
39.078,33.51
39.093,33.07
39.109,32.29
39.125,31.13
39.140,29.58
39.156,27.64
39.171,25.41
39.187,22.97
39.203,20.38
39.218,17.61
39.234,14.51
39.250,10.91
39.265,6.65
39.281,1.76
39.296,-3.53
39.312,-8.86
39.328,-13.8
39.343,-17.98
39.359,-21.29
39.375,-23.75
39.390,-25.48
39.406,-26.55
39.421,-26.89
39.437,-26.46
39.453,-25.29
39.468,-23.64
39.484,-21.93
39.500,-20.57
39.515,-19.75
39.531,-19.41
39.546,-19.26
39.562,-19.04
39.578,-18.58
39.593,-18.03
39.609,-17.6
39.625,-17.52
39.640,-17.88
39.656,-18.53
39.671,-19.28
39.687,-19.85
39.703,-20.14
39.718,-20.03
39.734,-19.56
39.750,-18.74
39.765,-17.61
39.781,-16.24
39.796,-14.77
39.812,-13.25
39.828,-11.66
39.843,-9.78
39.859,-7.24
39.875,-3.71
39.890,0.94
39.906,6.43
39.921,12.14
39.937,17.19
39.953,20.8
39.968,22.59
39.984,22.6
40.000,21.23
40.015,19.09
40.031,16.62
40.046,14.13
40.062,11.65
40.078,9.11
40.093,6.35
40.109,3.34
40.125,0.17
40.140,-2.87
40.156,-5.35
40.171,-6.86
40.187,-7.07
40.203,-5.91
40.218,-3.55
40.234,-0.44
40.250,2.77
40.265,5.28
40.281,6.39
40.296,5.57
40.312,2.74
40.328,-1.64
40.343,-6.65
40.359,-11.19
40.375,-14.44
40.390,-16.05
40.406,-16.34
40.421,-15.95
40.437,-15.5
40.453,-15.32
40.468,-15.28
40.484,-15.03
40.500,-14.26
40.515,-12.99
40.531,-11.5
40.546,-10.34
40.562,-9.88
40.578,-10.24
40.593,-11.18
40.609,-12.25
40.625,-12.98
40.640,-13.03
40.656,-12.27
40.671,-10.77
40.687,-8.68
40.703,-6.25
40.718,-3.73
40.734,-1.34
40.750,0.73
40.765,2.39
40.781,3.69
40.796,4.72
40.812,5.59
40.828,6.35
40.843,7.04
40.859,7.76
40.875,8.67
40.890,9.92
40.906,11.59
40.921,13.51
40.937,15.32
40.953,16.68
40.968,17.44
40.984,17.85
41.000,18.4
41.015,19.58
41.031,21.56
41.046,24.17
41.062,26.96
41.078,29.5
41.093,31.61
41.109,33.4
41.125,35.11
41.140,36.98
41.156,39.05
41.171,41.16
41.187,43.11
41.203,44.66
41.218,45.54
41.234,45.51
41.250,44.3
41.265,41.83
41.281,38.16
41.296,33.66
41.312,28.77
41.328,23.94
41.343,19.53
41.359,15.66
41.375,12.35
41.390,9.48
41.406,6.97
41.421,4.74
41.437,2.75
41.453,1.01
41.468,-0.48
41.484,-1.67
41.500,-2.56
41.515,-3.25
41.531,-4.01
41.546,-5.2
41.562,-7.18
41.578,-10.17
41.593,-14.11
41.609,-18.73
41.625,-23.56
41.640,-28.05
41.656,-31.65
41.671,-33.93
41.687,-34.61
41.703,-33.72
41.718,-31.51
41.734,-28.48
41.750,-25.23
41.765,-22.29
41.781,-19.97
41.796,-18.32
41.812,-17.21
41.828,-16.46
41.843,-15.99
41.859,-15.83
41.875,-16.15
41.890,-17.11
41.906,-18.76
41.921,-20.93
41.937,-23.28
41.953,-25.38
41.968,-26.88
41.984,-27.58
42.000,-27.48
42.015,-26.76
42.031,-25.62
42.046,-24.23
42.062,-22.71
42.078,-21.1
42.093,-19.44
42.109,-17.69
42.125,-15.82
42.140,-13.77
42.156,-11.55
42.171,-9.29
42.187,-7.23
42.203,-5.68
42.218,-4.87
42.234,-4.84
42.250,-5.31
42.265,-5.88
42.281,-6.05
42.296,-5.53
42.312,-4.27
42.328,-2.48
42.343,-0.49
42.359,1.36
42.375,2.85
42.390,3.87
42.406,4.35
42.421,4.23
42.437,3.5
42.453,2.24
42.468,0.66
42.484,-0.94
42.500,-2.2
42.515,-2.82
42.531,-2.62
42.546,-1.61
42.562,0.01
42.578,1.9
42.593,3.61
42.609,4.75
42.625,5.07
42.640,4.47
42.656,3.08
42.671,1.16
42.687,-0.97
42.703,-3.05
42.718,-4.84
42.734,-6.17
42.750,-6.86
42.765,-6.79
42.781,-5.98
42.796,-4.57
42.812,-2.93
42.828,-1.47
42.843,-0.59
42.859,-0.49
42.875,-1.13
42.890,-2.2
42.906,-3.22
42.921,-3.76
42.937,-3.54
42.953,-2.53
42.968,-0.84
42.984,1.34
43.000,3.81
43.015,6.46
43.031,9.17
43.046,11.8
43.062,14.19
43.078,16.12
43.093,17.45
43.109,18.17
43.125,18.41
43.140,18.39
43.156,18.34
43.171,18.38
43.187,18.55
43.203,18.81
43.218,19.03
43.234,19.16
43.250,19.12
43.265,18.91
43.281,18.51
43.296,17.89
43.312,16.98
43.328,15.74
43.343,14.1
43.359,12.12
43.375,9.96
43.390,7.86
43.406,6.04
43.421,4.62
43.437,3.56
43.453,2.69
43.468,1.78
43.484,0.63
43.500,-0.76
43.515,-2.15
43.531,-3.11
43.546,-3.17
43.562,-1.98
43.578,0.45
43.593,3.72
43.609,7.27
43.625,10.51
43.640,13.09
43.656,14.99
43.671,16.35
43.687,17.36
43.703,18.05
43.718,18.33
43.734,18.08
43.750,17.29
43.765,16.08
43.781,14.54
43.796,12.66
43.812,10.26
43.828,7.13
43.843,3.31
43.859,-0.86
43.875,-4.7
43.890,-7.41
43.906,-8.44
43.921,-7.6
43.937,-5.21
43.953,-1.86
43.968,1.78
43.984,5.22
44.000,8.12
44.015,10.29
44.031,11.43
44.046,11.15
44.062,8.91
44.078,4.42
44.093,-2.22
44.109,-10.27
44.125,-18.41
44.140,-25.08
44.156,-28.88
44.171,-29.11
44.187,-25.95
44.203,-20.48
44.218,-14.21
44.234,-8.66
44.250,-4.93
44.265,-3.38
44.281,-3.72
44.296,-5.14
44.312,-6.8
44.328,-8.02
44.343,-8.59
44.359,-8.65
44.375,-8.68
44.390,-9.14
44.406,-10.35
44.421,-12.34
44.437,-14.87
44.453,-17.54
44.468,-20.01
44.484,-21.97
44.500,-23.28
44.515,-23.88
44.531,-23.78
44.546,-23.01
44.562,-21.7
44.578,-20.01
44.593,-18.19
44.609,-16.52
44.625,-15.23
44.640,-14.44
44.656,-14.07
44.671,-13.93
44.687,-13.74
44.703,-13.23
44.718,-12.17
44.734,-10.42
44.750,-7.94
44.765,-4.75
44.781,-0.96
44.796,3.24
44.812,7.62
44.828,11.9
44.843,15.76
44.859,18.95
44.875,21.28
44.890,22.65
44.906,23.03
44.921,22.45
44.937,20.92
44.953,18.56
44.968,15.49
44.984,11.98
45.000,8.39
45.015,5.08
45.031,2.3
45.046,0.14
45.062,-1.52
45.078,-2.92
45.093,-4.28
45.109,-5.69
45.125,-7.03
45.140,-8.03
45.156,-8.37
45.171,-7.82
45.187,-6.45
45.203,-4.55
45.218,-2.57
45.234,-0.99
45.250,-0.03
45.265,0.27
45.281,0.1
45.296,-0.23
45.312,-0.39
45.328,-0.09
45.343,0.9
45.359,2.74
45.375,5.4
45.390,8.72
45.406,12.28
45.421,15.54
45.437,17.96
45.453,19.23
45.468,19.3
45.484,18.41
45.500,16.96
45.515,15.35
45.531,13.83
45.546,12.48
45.562,11.29
45.578,10.21
45.593,9.3
45.609,8.58
45.625,8.05
45.640,7.64
45.656,7.23
45.671,6.63
45.687,5.79
45.703,4.72
45.718,3.55
45.734,2.45
45.750,1.47
45.765,0.63
45.781,-0.14
45.796,-0.9
45.812,-1.68
45.828,-2.53
45.843,-3.5
45.859,-4.6
45.875,-5.8
45.890,-7.01
45.906,-7.93
45.921,-8.25
45.937,-7.69
45.953,-6.1
45.968,-3.54
45.984,-0.26
46.000,3.35
46.015,6.9
46.031,10.02
46.046,12.44
46.062,13.99
46.078,14.54
46.093,14.06
46.109,12.66
46.125,10.52
46.140,7.94
46.156,5.31
46.171,2.98
46.187,1.17
46.203,-0.01
46.218,-0.73
46.234,-1.17
46.250,-1.53
46.265,-2.03
46.281,-2.79
46.296,-3.9
46.312,-5.39
46.328,-7.29
46.343,-9.51
46.359,-11.99
46.375,-14.59
46.390,-17.27
46.406,-20.01
46.421,-22.84
46.437,-25.73
46.453,-28.54
46.468,-30.95
46.484,-32.51
46.500,-32.85
46.515,-31.69
46.531,-29.05
46.546,-25.11
46.562,-20.28
46.578,-14.97
46.593,-9.65
46.609,-4.67
46.625,-0.23
46.640,3.53
46.656,6.64
46.671,9.13
46.687,11.08
46.703,12.54
46.718,13.5
46.734,13.95
46.750,13.96
46.765,13.67
46.781,13.25
46.796,12.9
46.812,12.7
46.828,12.61
46.843,12.51
46.859,12.29
46.875,11.86
46.890,11.25
46.906,10.55
46.921,9.8
46.937,9.03
46.953,8.2
46.968,7.24
46.984,6.17
47.000,5.12
47.015,4.29
47.031,3.83
47.046,3.81
47.062,4.15
47.078,4.61
47.093,4.94
47.109,4.9
47.125,4.41
47.140,3.51
47.156,2.4
47.171,1.28
47.187,0.31
47.203,-0.43
47.218,-0.99
47.234,-1.47
47.250,-1.98
47.265,-2.52
47.281,-3.05
47.296,-3.45
47.312,-3.65
47.328,-3.69
47.343,-3.74
47.359,-3.97
47.375,-4.54
47.390,-5.43
47.406,-6.56
47.421,-7.73
47.437,-8.79
47.453,-9.59
47.468,-10.1
47.484,-10.37
47.500,-10.43
47.515,-10.37
47.531,-10.25
47.546,-10.15
47.562,-10.08
47.578,-10.05
47.593,-10.01
47.609,-9.96
47.625,-9.9
47.640,-9.94
47.656,-10.21
47.671,-10.88
47.687,-12.1
47.703,-13.91
47.718,-16.17
47.734,-18.52
47.750,-20.39
47.765,-21.12
47.781,-20.19
47.796,-17.42
47.812,-13.04
47.828,-7.64
47.843,-1.98
47.859,3.27
47.875,7.68
47.890,11.13
47.906,13.72
47.921,15.6
47.937,16.89
47.953,17.69
47.968,18.08
47.984,18.23
48.000,18.29
48.015,18.41
48.031,18.64
48.046,18.92
48.062,19.06
48.078,18.79
48.093,17.86
48.109,16.19
48.125,13.86
48.140,11.14
48.156,8.42
48.171,5.95
48.187,3.91
48.203,2.28
48.218,0.91
48.234,-0.34
48.250,-1.55
48.265,-2.72
48.281,-3.8
48.296,-4.7
48.312,-5.42
48.328,-5.91
48.343,-6.08
48.359,-5.75
48.375,-4.7
48.390,-2.79
48.406,-0.01
48.421,3.4
48.437,7.05
48.453,10.38
48.468,12.94
48.484,14.4
48.500,14.69
48.515,13.98
48.531,12.54
48.546,10.75
48.562,8.88
48.578,7.19
48.593,5.86
48.609,5.05
48.625,4.77
48.640,4.98
48.656,5.53
48.671,6.14
48.687,6.51
48.703,6.33
48.718,5.46
48.734,3.93
48.750,1.95
48.765,-0.15
48.781,-2.11
48.796,-3.69
48.812,-4.9
48.828,-5.85
48.843,-6.76
48.859,-7.78
48.875,-8.94
48.890,-10.11
48.906,-11.05
48.921,-11.46
48.937,-11.12
48.953,-9.89
48.968,-7.8
48.984,-5.06
49.000,-1.96
49.015,1.24
49.031,4.33
49.046,7.29
49.062,10.14
49.078,12.87
49.093,15.35
49.109,17.31
49.125,18.41
49.140,18.38
49.156,17.2
49.171,15.01
49.187,12.11
49.203,8.85
49.218,5.51
49.234,2.32
49.250,-0.55
49.265,-2.94
49.281,-4.77
49.296,-5.99
49.312,-6.67
49.328,-6.93
49.343,-6.93
49.359,-6.88
49.375,-6.9
49.390,-7.06
49.406,-7.36
49.421,-7.83
49.437,-8.44
49.453,-9.27
49.468,-10.33
49.484,-11.67
49.500,-13.25
49.515,-14.89
49.531,-16.32
49.546,-17.15
49.562,-17.09
49.578,-16.01
49.593,-14.1
49.609,-11.75
49.625,-9.42
49.640,-7.39
49.656,-5.63
49.671,-3.87
49.687,-1.84
49.703,0.56
49.718,3.11
49.734,5.35
49.750,6.86
49.765,7.48
49.781,7.31
49.796,6.71
49.812,5.98
49.828,5.27
49.843,4.58
49.859,3.86
49.875,3.05
49.890,2.19
49.906,1.36
49.921,0.53
49.937,-0.36
49.953,-1.55
49.968,-3.22
49.984,-5.44
50.000,-8.17
50.015,-11.25
50.031,-14.49
50.046,-17.7
50.062,-20.78
50.078,-23.62
50.093,-26.08
50.109,-27.92
50.125,-28.87
50.140,-28.63
50.156,-27.04
50.171,-24.26
50.187,-20.75
50.203,-17.15
50.218,-14.07
50.234,-11.88
50.250,-10.68
50.265,-10.28
50.281,-10.39
50.296,-10.72
50.312,-11.08
50.328,-11.41
50.343,-11.68
50.359,-11.86
50.375,-11.92
50.390,-11.87
50.406,-11.75
50.421,-11.57
50.437,-11.33
50.453,-10.9
50.468,-10.19
50.484,-9.1
50.500,-7.69
50.515,-6.07
50.531,-4.36
50.546,-2.68
50.562,-1.06
50.578,0.43
50.593,1.69
50.609,2.53
50.625,2.77
50.640,2.35
50.656,1.43
50.671,0.35
50.687,-0.48
50.703,-0.79
50.718,-0.51
50.734,0.25
50.750,1.29
50.765,2.53
50.781,3.97
50.796,5.68
50.812,7.67
50.828,9.81
50.843,11.87
50.859,13.59
50.875,14.89
50.890,15.76
50.906,16.36
50.921,16.94
50.937,17.62
50.953,18.47
50.968,19.45
50.984,20.48
51.000,21.52
51.015,22.56
51.031,23.63
51.046,24.79
51.062,26.09
51.078,27.6
51.093,29.34
51.109,31.27
51.125,33.19
51.140,34.72
51.156,35.36
51.171,34.61
51.187,32.25
51.203,28.43
51.218,23.85
51.234,19.53
51.250,16.64
51.265,16.04
51.281,18.08
51.296,22.58
51.312,28.92
51.328,36.27
51.343,43.76
51.359,50.66
51.375,56.35
51.390,60.46
51.406,62.81
51.421,63.49
51.437,62.77
51.453,60.94
51.468,58.19
51.484,54.58
51.500,50.04
51.515,44.66
51.531,38.82
51.546,33.15
51.562,28.32
51.578,24.66
51.593,21.92
51.609,19.35
51.625,15.98
51.640,11.09
51.656,4.5
51.671,-3.35
51.687,-11.55
51.703,-19.12
51.718,-25.23
51.734,-29.45
51.750,-31.79
51.765,-32.62
51.781,-32.62
51.796,-32.45
51.812,-32.68
51.828,-33.38
51.843,-34.13
51.859,-34.1
51.875,-32.24
51.890,-27.69
51.906,-20.04
51.921,-9.42
51.937,3.51
51.953,17.56
51.968,31.19
51.984,42.64
52.000,50.26
52.015,52.9
52.031,50.32
52.046,43.15
52.062,32.42
52.078,18.9
52.093,2.51
52.109,-17.41
52.125,-41.35
52.140,-68.69
52.156,-97.15
52.171,-123.27
52.187,-143.61
52.203,-155.91
52.218,-159.81
52.234,-156.51
52.250,-147.82
52.265,-135.38
52.281,-120.35
52.296,-103.51
52.312,-85.85
52.328,-68.6
52.343,-53.08
52.359,-40.19
52.375,-30.2
52.390,-22.69
52.406,-16.92
52.421,-12.27
52.437,-8.44
52.453,-5.4
52.468,-3.2
52.484,-1.84
52.500,-1.15
52.515,-0.84
52.531,-0.61
52.546,-0.21
52.562,0.4
52.578,1.12
52.593,1.77
52.609,2.18
52.625,2.32
52.640,2.28
52.656,2.33
52.671,2.75
52.687,3.7
52.703,5.18
52.718,6.98
52.734,8.76
52.750,10.19
52.765,11.0
52.781,11.12
52.796,10.57
52.812,9.5
52.828,8.11
52.843,6.67
52.859,5.45
52.875,4.7
52.890,4.54
52.906,4.91
52.921,5.63
52.937,6.39
52.953,6.95
52.968,7.17
52.984,7.02
53.000,6.58
53.015,5.93
53.031,5.19
53.046,4.49
53.062,4.01
53.078,3.84
53.093,4.04
53.109,4.52
53.125,5.11
53.140,5.66
53.156,6.06
53.171,6.37
53.187,6.72
53.203,7.27
53.218,8.11
53.234,9.24
53.250,10.62
53.265,12.13
53.281,13.66
53.296,15.05
53.312,16.19
53.328,16.97
53.343,17.38
53.359,17.51
53.375,17.53
53.390,17.68
53.406,18.09
53.421,18.81
53.437,19.66
53.453,20.41
53.468,20.87
53.484,21.01
53.500,21.04
53.515,21.29
53.531,22.09
53.546,23.57
53.562,25.64
53.578,27.96
53.593,30.11
53.609,31.68
53.625,32.44
53.640,32.27
53.656,31.23
53.671,29.53
53.687,27.51
53.703,25.61
53.718,24.2
53.734,23.47
53.750,23.21
53.765,22.9
53.781,21.87
53.796,19.6
53.812,15.97
53.828,11.37
53.843,6.54
53.859,2.35
53.875,-0.47
53.890,-1.51
53.906,-0.57
53.921,2.29
53.937,6.92
53.953,12.93
53.968,19.57
53.984,25.81
54.000,30.43
54.015,32.44
54.031,31.43
54.046,27.72
54.062,22.22
54.078,16.11
54.093,10.32
54.109,5.39
54.125,1.41
54.140,-1.77
54.156,-4.3
54.171,-6.23
54.187,-7.54
54.203,-8.31
54.218,-8.72
54.234,-9.13
54.250,-9.89
54.265,-11.31
54.281,-13.54
54.296,-16.58
54.312,-20.3
54.328,-24.53
54.343,-29.11
54.359,-33.8
54.375,-38.41
54.390,-42.69
54.406,-46.4
54.421,-49.24
54.437,-50.97
54.453,-51.37
54.468,-50.36
54.484,-47.95
54.500,-44.34
54.515,-39.84
54.531,-34.76
54.546,-29.39
54.562,-23.88
54.578,-18.34
54.593,-13.0
54.609,-8.14
54.625,-4.09
54.640,-1.11
54.656,0.77
54.671,1.84
54.687,2.57
54.703,3.36
54.718,4.36
54.734,5.33
54.750,5.77
54.765,5.27
54.781,3.68
54.796,1.3
54.812,-1.23
54.828,-3.2
54.843,-4.05
54.859,-3.54
54.875,-1.81
54.890,0.81
54.906,3.82
54.921,6.7
54.937,8.95
54.953,10.14
54.968,9.9
54.984,8.03
55.000,4.63
55.015,0.1
55.031,-4.82
55.046,-9.27
55.062,-12.55
55.078,-14.21
55.093,-14.25
55.109,-13.04
55.125,-11.12
55.140,-8.93
55.156,-6.73
55.171,-4.56
55.187,-2.43
55.203,-0.52
55.218,0.88
55.234,1.42
55.250,0.94
55.265,-0.42
55.281,-2.21
55.296,-3.86
55.312,-4.89
55.328,-5.05
55.343,-4.34
55.359,-2.82
55.375,-0.58
55.390,2.34
55.406,5.88
55.421,9.82
55.437,13.78
55.453,17.33
55.468,20.22
55.484,22.41
55.500,24.18
55.515,25.93
55.531,27.99
55.546,30.51
55.562,33.31
55.578,35.93
55.593,37.83
55.609,38.58
55.625,37.98
55.640,36.18
55.656,33.62
55.671,30.84
55.687,28.35
55.703,26.39
55.718,24.82
55.734,23.23
55.750,21.02
55.765,17.69
55.781,13.04
55.796,7.28
55.812,1.11
55.828,-4.48
55.843,-8.44
55.859,-10.01
55.875,-8.91
55.890,-5.53
55.906,-0.78
55.921,4.16
55.937,8.22
55.953,10.71
55.968,11.47
55.984,10.77
56.000,9.12
56.015,7.03
56.031,4.86
56.046,2.77
56.062,0.73
56.078,-1.35
56.093,-3.59
56.109,-6.0
56.125,-8.49
56.140,-10.84
56.156,-12.82
56.171,-14.19
56.187,-14.92
56.203,-15.15
56.218,-15.27
56.234,-15.74
56.250,-16.99
56.265,-19.22
56.281,-22.3
56.296,-25.83
56.312,-29.19
56.328,-31.81
56.343,-33.28
56.359,-33.45
56.375,-32.46
56.390,-30.58
56.406,-28.0
56.421,-24.84
56.437,-21.02
56.453,-16.45
56.468,-11.16
56.484,-5.37
56.500,0.49
56.515,5.84
56.531,10.24
56.546,13.41
56.562,15.29
56.578,16.11
56.593,16.13
56.609,15.62
56.625,14.82
56.640,13.9
56.656,12.98
56.671,12.06
56.687,11.07
56.703,9.83
56.718,8.23
56.734,6.23
56.750,4.03
56.765,1.96
56.781,0.33
56.796,-0.72
56.812,-1.26
56.828,-1.58
56.843,-2.0
56.859,-2.64
56.875,-3.41
56.890,-4.01
56.906,-4.1
56.921,-3.49
56.937,-2.2
56.953,-0.49
56.968,1.28
56.984,2.71
57.000,3.53
57.015,3.58
57.031,2.88
57.046,1.66
57.062,0.24
57.078,-1.01
57.093,-1.79
57.109,-2.02
57.125,-1.82
57.140,-1.51
57.156,-1.45
57.171,-1.97
57.187,-3.17
57.203,-5.01
57.218,-7.19
57.234,-9.3
57.250,-10.93
57.265,-11.7
57.281,-11.48
57.296,-10.39
57.312,-8.86
57.328,-7.39
57.343,-6.39
57.359,-5.96
57.375,-5.97
57.390,-6.14
57.406,-6.35
57.421,-6.66
57.437,-7.3
57.453,-8.53
57.468,-10.38
57.484,-12.51
57.500,-14.31
57.515,-15.05
57.531,-14.22
57.546,-11.69
57.562,-7.81
57.578,-3.36
57.593,0.57
57.609,2.92
57.625,2.92
57.640,0.44
57.656,-3.9
57.671,-8.81
57.687,-12.77
57.703,-14.52
57.718,-13.54
57.734,-10.2
57.750,-5.51
57.765,-0.7
57.781,3.21
57.796,5.66
57.812,6.48
57.828,5.71
57.843,3.38
57.859,-0.42
57.875,-5.4
57.890,-10.99
57.906,-16.31
57.921,-20.49
57.937,-22.95
57.953,-23.68
57.968,-23.18
57.984,-22.2
58.000,-21.36
58.015,-20.87
58.031,-20.53
58.046,-19.88
58.062,-18.55
58.078,-16.42
58.093,-13.71
58.109,-10.82
58.125,-8.15
58.140,-5.92
58.156,-4.07
58.171,-2.43
58.187,-0.84
58.203,0.72
58.218,2.16
58.234,3.36
58.250,4.27
58.265,4.97
58.281,5.66
58.296,6.58
58.312,7.84
58.328,9.43
58.343,11.12
58.359,12.65
58.375,13.73
58.390,14.23
58.406,14.12
58.421,13.5
58.437,12.58
58.453,11.7
58.468,11.24
58.484,11.51
58.500,12.74
58.515,14.93
58.531,17.88
58.546,21.16
58.562,24.27
58.578,26.73
58.593,28.18
58.609,28.51
58.625,27.76
58.640,26.16
58.656,24.1
58.671,22.02
58.687,20.32
58.703,19.15
58.718,18.38
58.734,17.57
58.750,16.19
58.765,13.79
58.781,10.2
58.796,5.7
58.812,0.78
58.828,-3.97
58.843,-8.11
58.859,-11.45
58.875,-14.07
58.890,-16.07
58.906,-17.57
58.921,-18.54
58.937,-18.92
58.953,-18.59
58.968,-17.59
58.984,-16.02
59.000,-14.11
59.015,-12.14
59.031,-10.29
59.046,-8.6
59.062,-7.09
59.078,-5.77
59.093,-4.74
59.109,-4.1
59.125,-3.89
59.140,-4.0
59.156,-4.13
59.171,-3.87
59.187,-2.89
59.203,-1.12
59.218,1.22
59.234,3.68
59.250,5.79
59.265,7.21
59.281,7.85
59.296,7.77
59.312,7.12
59.328,5.97
59.343,4.31
59.359,2.12
59.375,-0.59
59.390,-3.64
59.406,-6.67
59.421,-9.29
59.437,-11.21
59.453,-12.33
59.468,-12.83
59.484,-12.97
59.500,-12.95
59.515,-12.77
59.531,-12.21
59.546,-10.98
59.562,-8.93
59.578,-6.17
59.593,-3.0
59.609,0.14
59.625,2.97
59.640,5.49
59.656,7.9
59.671,10.44
59.687,13.28
59.703,16.33
59.718,19.3
59.734,21.87
59.750,23.82
59.765,25.07
59.781,25.7
59.796,25.75
59.812,25.2
59.828,24.01
59.843,22.16
59.859,19.75
59.875,17.09
59.890,14.56
59.906,12.5
59.921,11.16
59.937,10.58
59.953,10.68
59.968,11.33
59.984,12.41
