timestamp,value
00.000,81.09
00.015,82.68
00.031,82.83
00.046,82.27
00.062,81.92
00.078,82.57
00.093,84.58
00.109,87.63
00.125,90.56
00.140,91.58
00.156,88.72
00.171,80.36
00.187,65.75
00.203,45.29
00.218,20.33
00.234,-7.16
00.250,-35.2
00.265,-62.01
00.281,-86.29
00.296,-107.1
00.312,-123.82
00.328,-136.2
00.343,-144.4
00.359,-148.91
00.375,-150.28
00.390,-148.97
00.406,-145.1
00.421,-138.72
00.437,-130.15
00.453,-120.27
00.468,-110.55
00.484,-102.7
00.500,-98.07
00.515,-97.19
00.531,-99.65
00.546,-104.29
00.562,-109.65
00.578,-114.34
00.593,-117.24
00.609,-117.47
00.625,-114.43
00.640,-107.74
00.656,-97.4
00.671,-83.82
00.687,-67.78
00.703,-50.36
00.718,-32.65
00.734,-15.62
00.750,0.06
00.765,14.07
00.781,26.32
00.796,36.8
00.812,45.4
00.828,51.92
00.843,56.12
00.859,57.98
00.875,57.8
00.890,56.24
00.906,54.15
00.921,52.27
00.937,51.04
00.953,50.45
00.968,50.26
00.984,50.07
01.000,49.69
01.015,49.07
01.031,48.35
01.046,47.66
01.062,47.02
01.078,46.29
01.093,45.3
01.109,43.94
01.125,42.27
01.140,40.52
01.156,38.89
01.171,37.45
01.187,36.02
01.203,34.28
01.218,31.94
01.234,28.94
01.250,25.52
01.265,22.06
01.281,18.92
01.296,16.13
01.312,13.42
01.328,10.29
01.343,6.23
01.359,0.93
01.375,-5.64
01.390,-13.16
01.406,-21.0
01.421,-28.17
01.437,-33.5
01.453,-35.8
01.468,-34.21
01.484,-28.52
01.500,-19.23
01.515,-7.44
01.531,5.59
01.546,18.81
01.562,31.65
01.578,44.01
01.593,56.03
01.609,67.93
01.625,79.86
01.640,91.85
01.656,103.76
01.671,115.28
01.687,125.91
01.703,135.13
01.718,142.72
01.734,148.98
01.750,154.77
01.765,161.18
01.781,169.15
01.796,179.12
01.812,191.11
01.828,204.81
01.843,219.84
01.859,235.65
01.875,251.46
01.890,266.19
01.906,278.58
01.921,287.58
01.937,292.68
01.953,293.97
01.968,291.79
01.984,286.25
02.000,276.82
02.015,262.45
02.031,242.1
02.046,215.38
02.062,183.03
02.078,146.81
02.093,109.09
02.109,72.06
02.125,37.29
02.140,5.33
02.156,-24.18
02.171,-52.25
02.187,-80.25
02.203,-109.49
02.218,-140.84
02.234,-174.21
02.250,-208.22
02.265,-240.11
02.281,-266.31
02.296,-283.45
02.312,-289.47
02.328,-284.36
02.343,-270.11
02.359,-249.86
02.375,-226.73
02.390,-202.87
02.406,-179.13
02.421,-155.42
02.437,-131.4
02.453,-107.16
02.468,-83.5
02.484,-61.85
02.500,-43.9
02.515,-31.06
02.531,-24.03
02.546,-22.5
02.562,-25.08
02.578,-29.59
02.593,-33.63
02.609,-35.12
02.625,-32.85
02.640,-26.78
02.656,-17.97
02.671,-8.29
02.687,0.18
02.703,5.54
02.718,6.51
02.734,2.69
02.750,-5.41
02.765,-16.59
02.781,-29.39
02.796,-42.54
02.812,-55.39
02.828,-67.86
02.843,-80.14
02.859,-92.29
02.875,-103.86
02.890,-113.88
02.906,-121.25
02.921,-125.2
02.937,-125.67
02.953,-123.37
02.968,-119.47
02.984,-115.25
03.000,-111.64
03.015,-109.15
03.031,-107.92
03.046,-107.93
03.062,-109.1
03.078,-111.39
03.093,-114.91
03.109,-119.9
03.125,-127.15
03.140,-137.91
03.156,-153.64
03.171,-175.08
03.187,-201.11
03.203,-227.88
03.218,-249.23
03.234,-258.62
03.250,-251.83
03.265,-229.12
03.281,-195.32
03.296,-157.65
03.312,-122.39
03.328,-92.11
03.343,-65.28
03.359,-38.24
03.375,-8.24
03.390,24.37
03.406,56.25
03.421,83.08
03.437,102.25
03.453,114.16
03.468,121.65
03.484,128.01
03.500,134.96
03.515,141.89
03.531,146.69
03.546,147.24
03.562,142.85
03.578,134.6
03.593,124.83
03.609,115.95
03.625,109.43
03.640,105.31
03.656,102.47
03.671,99.37
03.687,94.8
03.703,88.43
03.718,80.78
03.734,72.84
03.750,65.55
03.765,59.39
03.781,54.26
03.796,49.69
03.812,45.19
03.828,40.37
03.843,34.9
03.859,28.46
03.875,20.66
03.890,11.26
03.906,0.5
03.921,-10.71
03.937,-20.78
03.953,-27.88
03.968,-30.37
03.984,-27.35
04.000,-18.65
04.015,-4.91
04.031,12.66
04.046,32.49
04.062,52.77
04.078,71.6
04.093,87.19
04.109,98.06
04.125,103.29
04.140,102.78
04.156,97.53
04.171,89.64
04.187,82.12
04.203,78.24
04.218,80.71
04.234,90.82
04.250,108.07
04.265,130.3
04.281,154.36
04.296,177.16
04.312,196.37
04.328,210.9
04.343,220.73
04.359,226.46
04.375,228.73
04.390,227.64
04.406,222.61
04.421,212.54
04.437,196.41
04.453,173.96
04.468,146.14
04.484,114.97
04.500,83.01
04.515,52.55
04.531,24.9
04.546,0.4
04.562,-21.34
04.578,-40.96
04.593,-59.21
04.609,-76.93
04.625,-95.09
04.640,-114.28
04.656,-134.01
04.671,-152.02
04.687,-164.56
04.703,-167.67
04.718,-159.08
04.734,-139.66
04.750,-113.62
04.765,-87.03
04.781,-65.67
04.796,-53.02
04.812,-49.64
04.828,-53.75
04.843,-62.71
04.859,-74.19
04.875,-86.46
04.890,-98.2
04.906,-107.88
04.921,-113.62
04.937,-113.73
04.953,-107.47
04.968,-95.6
04.984,-80.42
05.000,-64.99
05.015,-52.02
05.031,-42.92
05.046,-37.48
05.062,-34.27
05.078,-31.58
05.093,-28.25
05.109,-24.18
05.125,-20.19
05.140,-17.38
05.156,-16.5
05.171,-17.48
05.187,-19.46
05.203,-21.21
05.218,-21.61
05.234,-19.94
05.250,-15.97
05.265,-9.94
05.281,-2.35
05.296,6.01
05.312,14.01
05.328,20.39
05.343,23.92
05.359,23.81
05.375,20.12
05.390,13.88
05.406,6.92
05.421,1.56
05.437,0.18
05.453,4.81
05.468,16.98
05.484,37.29
05.500,64.82
05.515,96.68
05.531,127.82
05.546,151.82
05.562,162.4
05.578,155.26
05.593,129.66
05.609,88.8
05.625,39.04
05.640,-11.75
05.656,-56.07
05.671,-88.44
05.687,-106.27
05.703,-110.09
05.718,-103.25
05.734,-90.77
05.750,-77.95
05.765,-68.87
05.781,-65.38
05.796,-66.98
05.812,-71.69
05.828,-77.31
05.843,-82.52
05.859,-87.3
05.875,-92.61
05.890,-99.71
05.906,-109.59
05.921,-122.7
05.937,-138.94
05.953,-157.63
05.968,-177.41
05.984,-196.11
06.000,-211.0
06.015,-219.38
06.031,-219.47
06.046,-211.01
06.062,-195.44
06.078,-175.3
06.093,-153.32
06.109,-131.49
06.125,-110.63
06.140,-90.68
06.156,-71.17
06.171,-51.89
06.187,-33.25
06.203,-16.15
06.218,-1.63
06.234,9.53
06.250,17.09
06.265,21.35
06.281,22.94
06.296,22.66
06.312,21.23
06.328,19.28
06.343,17.4
06.359,16.17
06.375,16.1
06.390,17.46
06.406,20.22
06.421,23.95
06.437,28.01
06.453,31.74
06.468,34.71
06.484,36.82
06.500,38.22
06.515,39.09
06.531,39.46
06.546,39.19
06.562,38.08
06.578,36.0
06.593,32.99
06.609,29.22
06.625,24.89
06.640,20.14
06.656,14.98
06.671,9.35
06.687,3.19
06.703,-3.44
06.718,-10.28
06.734,-16.76
06.750,-22.01
06.765,-24.95
06.781,-24.54
06.796,-20.09
06.812,-11.48
06.828,0.67
06.843,15.13
06.859,30.37
06.875,44.86
06.890,57.36
06.906,67.06
06.921,73.72
06.937,77.56
06.953,79.27
06.968,79.74
06.984,79.95
07.000,80.66
07.015,82.29
07.031,84.81
07.046,87.84
07.062,90.86
07.078,93.39
07.093,95.2
07.109,96.33
07.125,97.04
07.140,97.56
07.156,97.85
07.171,97.51
07.187,95.77
07.203,91.83
07.218,85.16
07.234,75.83
07.250,64.62
07.265,52.8
07.281,41.78
07.296,32.65
07.312,25.87
07.328,21.11
07.343,17.45
07.359,13.71
07.375,8.89
07.390,2.45
07.406,-5.45
07.421,-14.01
07.437,-21.98
07.453,-27.91
07.468,-30.53
07.484,-29.05
07.500,-23.34
07.515,-13.88
07.531,-1.66
07.546,12.04
07.562,25.92
07.578,38.79
07.593,49.65
07.609,57.68
07.625,62.3
07.640,63.14
07.656,60.11
07.671,53.32
07.687,43.14
07.703,30.15
07.718,15.06
07.734,-1.32
07.750,-18.18
07.765,-34.71
07.781,-50.11
07.796,-63.55
07.812,-74.18
07.828,-81.31
07.843,-84.54
07.859,-84.14
07.875,-81.13
07.890,-77.36
07.906,-75.0
07.921,-76.02
07.937,-81.58
07.953,-91.73
07.968,-105.48
07.984,-120.93
08.000,-135.56
08.015,-146.86
08.031,-153.27
08.046,-155.22
08.062,-155.73
08.078,-159.84
08.093,-172.75
08.109,-197.35
08.125,-232.22
08.140,-271.56
08.156,-307.11
08.171,-331.32
08.187,-340.12
08.203,-333.81
08.218,-315.83
08.234,-290.39
08.250,-260.43
08.265,-227.04
08.281,-190.37
08.296,-151.07
08.312,-111.06
08.328,-73.12
08.343,-39.61
08.359,-11.28
08.375,13.03
08.390,35.64
08.406,58.49
08.421,81.87
08.437,104.1
08.453,122.28
08.468,133.71
08.484,137.23
08.500,133.87
08.515,126.41
08.531,118.35
08.546,112.58
08.562,110.51
08.578,111.96
08.593,115.49
08.609,119.05
08.625,120.68
08.640,119.09
08.656,113.9
08.671,105.73
08.687,95.93
08.703,85.98
08.718,76.95
08.734,69.07
08.750,61.74
08.765,53.88
08.781,44.57
08.796,33.62
08.812,21.73
08.828,10.29
08.843,0.86
08.859,-5.31
08.875,-7.7
08.890,-6.61
08.906,-2.88
08.921,2.52
08.937,8.85
08.953,15.81
08.968,23.41
08.984,31.64
09.000,40.05
09.015,47.74
09.031,53.51
09.046,56.43
09.062,56.26
09.078,53.55
09.093,49.4
09.109,44.89
09.125,40.75
09.140,37.13
09.156,33.81
09.171,30.54
09.187,27.29
09.203,24.29
09.218,22.01
09.234,20.96
09.250,21.36
09.265,23.07
09.281,25.51
09.296,27.84
09.312,29.16
09.328,28.89
09.343,26.88
09.359,23.42
09.375,19.13
09.390,14.59
09.406,10.19
09.421,6.02
09.437,1.88
09.453,-2.5
09.468,-7.47
09.484,-13.28
09.500,-20.03
09.515,-27.52
09.531,-35.16
09.546,-41.87
09.562,-46.3
09.578,-47.12
09.593,-43.38
09.609,-34.99
09.625,-22.73
09.640,-8.02
09.656,7.45
09.671,22.21
09.687,35.29
09.703,46.23
09.718,54.9
09.734,61.44
09.750,65.97
09.765,68.67
09.781,69.7
09.796,69.27
09.812,67.61
09.828,65.0
09.843,61.79
09.859,58.31
09.875,54.96
09.890,52.05
09.906,49.83
09.921,48.41
09.937,47.75
09.953,47.62
09.968,47.65
09.984,47.36
10.000,46.24
10.015,43.87
10.031,40.09
10.046,35.03
10.062,29.1
10.078,22.86
10.093,16.79
10.109,11.11
10.125,5.76
10.140,0.42
10.156,-5.37
10.171,-12.02
10.187,-19.61
10.203,-27.8
10.218,-35.73
10.234,-42.06
10.250,-45.39
10.265,-44.6
10.281,-39.3
10.296,-29.98
10.312,-17.8
10.328,-4.26
10.343,9.28
10.359,21.87
10.375,33.0
10.390,42.47
10.406,50.19
10.421,56.06
10.437,60.02
10.453,62.11
10.468,62.55
10.484,61.69
10.500,59.88
10.515,57.43
10.531,54.58
10.546,51.5
10.562,48.38
10.578,45.41
10.593,42.77
10.609,40.57
10.625,38.74
10.640,37.12
10.656,35.41
10.671,33.29
10.687,30.49
10.703,26.82
10.718,22.27
10.734,17.02
10.750,11.4
10.765,5.78
10.781,0.43
10.796,-4.59
10.812,-9.51
10.828,-14.71
10.843,-20.64
10.859,-27.55
10.875,-35.38
10.890,-43.62
10.906,-51.34
10.921,-57.3
10.937,-60.26
10.953,-59.33
10.968,-54.18
10.984,-45.24
11.000,-33.54
11.015,-20.42
11.031,-7.15
11.046,5.36
11.062,16.58
11.078,26.29
11.093,34.37
11.109,40.73
11.125,45.25
11.140,47.96
11.156,49.06
11.171,48.96
11.187,48.19
11.203,47.17
11.218,46.12
11.234,45.05
11.250,43.86
11.265,42.53
11.281,41.25
11.296,40.35
11.312,40.13
11.328,40.72
11.343,41.89
11.359,43.13
11.375,43.84
11.390,43.55
11.406,42.1
11.421,39.73
11.437,36.92
11.453,34.21
11.468,31.99
11.484,30.33
11.500,29.03
11.515,27.58
11.531,25.49
11.546,22.34
11.562,18.05
11.578,12.99
11.593,8.02
11.609,4.45
11.625,3.72
11.640,6.93
11.656,14.33
11.671,25.01
11.687,37.12
11.703,48.43
11.718,57.14
11.734,62.58
11.750,65.32
11.765,66.82
11.781,68.59
11.796,71.59
11.812,75.82
11.828,80.67
11.843,85.33
11.859,89.27
11.875,92.37
11.890,94.72
11.906,96.35
11.921,97.08
11.937,96.6
11.953,94.79
11.968,91.93
11.984,88.67
12.000,85.74
12.015,83.49
12.031,81.62
12.046,79.33
12.062,75.69
12.078,70.21
12.093,62.99
12.109,54.62
12.125,45.73
12.140,36.62
12.156,27.19
12.171,17.14
12.187,6.36
12.203,-4.89
12.218,-15.96
12.234,-26.21
12.250,-35.33
12.265,-43.58
12.281,-51.58
12.296,-59.99
12.312,-69.07
12.328,-78.37
12.343,-86.83
12.359,-93.1
12.375,-96.07
12.390,-95.31
12.406,-91.17
12.421,-84.67
12.437,-76.99
12.453,-69.17
12.468,-61.82
12.484,-55.17
12.500,-49.32
12.515,-44.39
12.531,-40.59
12.546,-38.12
12.562,-37.0
12.578,-37.0
12.593,-37.73
12.609,-38.77
12.625,-39.79
12.640,-40.61
12.656,-41.17
12.671,-41.41
12.687,-41.24
12.703,-40.57
12.718,-39.28
12.734,-37.36
12.750,-34.91
12.765,-32.22
12.781,-29.67
12.796,-27.77
12.812,-26.9
12.828,-27.32
12.843,-28.98
12.859,-31.58
12.875,-34.72
12.890,-37.98
12.906,-41.14
12.921,-44.19
12.937,-47.35
12.953,-50.9
12.968,-55.21
12.984,-60.5
13.000,-66.84
13.015,-73.98
13.031,-81.24
13.046,-87.62
13.062,-91.88
13.078,-92.91
13.093,-90.08
13.109,-83.43
13.125,-73.66
13.140,-61.9
13.156,-49.33
13.171,-36.93
13.187,-25.34
13.203,-14.94
13.218,-6.01
13.234,1.17
13.250,6.37
13.265,9.55
13.281,10.92
13.296,10.94
13.312,10.23
13.328,9.36
13.343,8.65
13.359,8.2
13.375,7.92
13.390,7.71
13.406,7.54
13.421,7.55
13.437,7.84
13.453,8.46
13.468,9.21
13.484,9.76
13.500,9.69
13.515,8.7
13.531,6.72
13.546,3.93
13.562,0.69
13.578,-2.64
13.593,-5.77
13.609,-8.61
13.625,-11.2
13.640,-13.71
13.656,-16.38
13.671,-19.47
13.687,-23.22
13.703,-27.69
13.718,-32.63
13.734,-37.36
13.750,-40.89
13.765,-42.11
13.781,-40.19
13.796,-34.89
13.812,-26.67
13.828,-16.54
13.843,-5.74
13.859,4.63
13.875,13.84
13.890,21.58
13.906,27.79
13.921,32.48
13.937,35.63
13.953,37.22
13.968,37.36
13.984,36.31
14.000,34.5
14.015,32.42
14.031,30.42
14.046,28.65
14.062,27.08
14.078,25.57
14.093,24.02
14.109,22.45
14.125,20.91
14.140,19.44
14.156,17.93
14.171,16.17
14.187,13.92
14.203,11.04
14.218,7.59
14.234,3.83
14.250,0.05
14.265,-3.52
14.281,-6.83
14.296,-10.04
14.312,-13.45
14.328,-17.38
14.343,-22.04
14.359,-27.43
14.375,-33.25
14.390,-38.85
14.406,-43.31
14.421,-45.66
14.437,-45.11
14.453,-41.3
14.468,-34.45
14.484,-25.29
14.500,-14.86
14.515,-4.23
14.531,5.72
14.546,14.43
14.562,21.58
14.578,27.08
14.593,30.89
14.609,33.08
14.625,33.8
14.640,33.33
14.656,32.08
14.671,30.46
14.687,28.8
14.703,27.22
14.718,25.73
14.734,24.15
14.750,22.42
14.765,20.56
14.781,18.68
14.796,16.83
14.812,14.96
14.828,12.86
14.843,10.22
14.859,6.83
14.875,2.68
14.890,-2.04
14.906,-6.98
14.921,-11.83
14.937,-16.43
14.953,-20.85
14.968,-25.36
14.984,-30.31
15.000,-35.98
15.015,-42.46
15.031,-49.49
15.046,-56.49
15.062,-62.62
15.078,-66.94
15.093,-68.65
15.109,-67.28
15.125,-62.82
15.140,-55.72
15.156,-46.79
15.171,-36.96
15.187,-27.11
15.203,-17.96
15.218,-9.95
15.234,-3.35
15.250,1.75
15.265,5.33
15.281,7.51
15.296,8.44
15.312,8.34
15.328,7.48
15.343,6.13
15.359,4.55
15.375,2.96
15.390,1.55
15.406,0.44
15.421,-0.35
15.437,-0.85
15.453,-1.18
15.468,-1.53
15.484,-2.1
15.500,-3.12
15.515,-4.76
15.531,-7.12
15.546,-10.19
15.562,-13.82
15.578,-17.72
15.593,-21.6
15.609,-25.26
15.625,-28.67
15.640,-32.08
15.656,-35.87
15.671,-40.43
15.687,-45.88
15.703,-51.89
15.718,-57.64
15.734,-61.9
15.750,-63.45
15.765,-61.34
15.781,-55.28
15.796,-45.67
15.812,-33.55
15.828,-20.23
15.843,-6.93
15.859,5.4
15.875,16.28
15.890,25.53
15.906,33.22
15.921,39.39
15.937,44.07
15.953,47.26
15.968,49.0
15.984,49.46
16.000,48.92
16.015,47.71
16.031,46.11
16.046,44.39
16.062,42.7
16.078,41.16
16.093,39.84
16.109,38.76
16.125,37.85
16.140,36.97
16.156,35.88
16.171,34.27
16.187,31.86
16.203,28.5
16.218,24.19
16.234,19.21
16.250,13.87
16.265,8.59
16.281,3.56
16.296,-1.22
16.312,-6.0
16.328,-11.19
16.343,-17.16
16.359,-24.13
16.375,-32.02
16.390,-40.38
16.406,-48.34
16.421,-54.7
16.437,-58.22
16.453,-57.81
16.468,-53.0
16.484,-44.06
16.500,-31.99
16.515,-18.17
16.531,-4.03
16.546,9.34
16.562,21.28
16.578,31.53
16.593,39.95
16.609,46.43
16.625,50.83
16.640,53.12
16.656,53.51
16.671,52.48
16.687,50.72
16.703,48.86
16.718,47.3
16.734,46.15
16.750,45.25
16.765,44.41
16.781,43.56
16.796,42.79
16.812,42.28
16.828,42.08
16.843,41.99
16.859,41.59
16.875,40.36
16.890,37.93
16.906,34.3
16.921,29.82
16.937,25.01
16.953,20.32
16.968,15.94
16.984,11.73
17.000,7.34
17.015,2.48
17.031,-2.97
17.046,-8.86
17.062,-14.85
17.078,-20.58
17.093,-25.85
17.109,-30.62
17.125,-35.12
17.140,-39.68
17.156,-44.68
17.171,-50.47
17.187,-57.17
17.203,-64.57
17.218,-72.02
17.234,-78.37
17.250,-82.23
17.265,-82.29
17.281,-77.77
17.296,-68.78
17.312,-56.25
17.328,-41.73
17.343,-26.89
17.359,-13.06
17.375,-1.04
17.390,8.94
17.406,16.93
17.421,23.13
17.437,27.68
17.453,30.73
17.468,32.49
17.484,33.28
17.500,33.51
17.515,33.53
17.531,33.6
17.546,33.77
17.562,33.96
17.578,34.01
17.593,33.79
17.609,33.32
17.625,32.72
17.640,32.17
17.656,31.81
17.671,31.69
17.687,31.71
17.703,31.72
17.718,31.52
17.734,30.95
17.750,29.92
17.765,28.4
17.781,26.46
17.796,24.14
17.812,21.48
17.828,18.43
17.843,14.87
17.859,10.72
17.875,5.92
17.890,0.61
17.906,-4.97
17.921,-10.48
17.937,-15.62
17.953,-20.22
17.968,-24.33
17.984,-28.11
18.000,-31.91
18.015,-36.1
18.031,-41.11
18.046,-47.23
18.062,-54.44
18.078,-62.19
18.093,-69.37
18.109,-74.45
18.125,-75.98
18.140,-73.02
18.156,-65.53
18.171,-54.33
18.187,-40.79
18.203,-26.35
18.218,-12.16
18.234,1.06
18.250,12.94
18.265,23.24
18.281,31.79
18.296,38.47
18.312,43.29
18.328,46.45
18.343,48.28
18.359,49.17
18.375,49.47
18.390,49.44
18.406,49.17
18.421,48.71
18.437,48.05
18.453,47.18
18.468,46.13
18.484,44.97
18.500,43.84
18.515,42.82
18.531,41.9
18.546,40.91
18.562,39.56
18.578,37.57
18.593,34.82
18.609,31.45
18.625,27.81
18.640,24.31
18.656,21.21
18.671,18.52
18.687,15.99
18.703,13.27
18.718,10.1
18.734,6.41
18.750,2.33
18.765,-1.92
18.781,-6.1
18.796,-10.05
18.812,-13.73
18.828,-17.24
18.843,-20.79
18.859,-24.67
18.875,-29.13
18.890,-34.18
18.906,-39.41
18.921,-43.97
18.937,-46.76
18.953,-46.77
18.968,-43.44
18.984,-36.9
19.000,-27.89
19.015,-17.5
19.031,-6.87
19.046,3.1
19.062,11.8
19.078,18.95
19.093,24.45
19.109,28.38
19.125,30.84
19.140,32.03
19.156,32.1
19.171,31.26
19.187,29.74
19.203,27.81
19.218,25.77
19.234,23.92
19.250,22.45
19.265,21.44
19.281,20.79
19.296,20.38
19.312,20.07
19.328,19.77
19.343,19.4
19.359,18.87
19.375,18.08
19.390,16.91
19.406,15.31
19.421,13.27
19.437,10.83
19.453,8.05
19.468,5.01
19.484,1.77
19.500,-1.61
19.515,-5.0
19.531,-8.32
19.546,-11.54
19.562,-14.63
19.578,-17.72
19.593,-20.91
19.609,-24.35
19.625,-28.13
19.640,-32.33
19.656,-37.0
19.671,-42.13
19.687,-47.57
19.703,-52.83
19.718,-57.14
19.734,-59.54
19.750,-59.11
19.765,-55.34
19.781,-48.41
19.796,-39.1
19.812,-28.6
19.828,-18.12
19.843,-8.49
19.859,-0.15
19.875,6.83
19.890,12.43
19.906,16.56
19.921,19.07
19.937,19.87
19.953,19.18
19.968,17.51
19.984,15.62
20.000,14.19
20.015,13.64
20.031,13.99
20.046,14.92
20.062,16.05
20.078,17.03
20.093,17.69
20.109,18.01
20.125,18.04
20.140,17.78
20.156,17.22
20.171,16.29
20.187,14.99
20.203,13.36
20.218,11.43
20.234,9.24
20.250,6.72
20.265,3.81
20.281,0.41
20.296,-3.5
20.312,-7.82
20.328,-12.35
20.343,-16.82
20.359,-21.03
20.375,-24.89
20.390,-28.5
20.406,-32.14
20.421,-36.18
20.437,-40.9
20.453,-46.32
20.468,-52.1
20.484,-57.51
20.500,-61.55
20.515,-63.2
20.531,-61.73
20.546,-56.97
20.562,-49.34
20.578,-39.78
20.593,-29.48
20.609,-19.58
20.625,-10.87
20.640,-3.79
20.656,1.65
20.671,5.6
20.687,8.29
20.703,9.89
20.718,10.52
20.734,10.34
20.750,9.55
20.765,8.43
20.781,7.32
20.796,6.48
20.812,6.06
20.828,5.97
20.843,6.04
20.859,6.01
20.875,5.73
20.890,5.24
20.906,4.67
20.921,4.16
20.937,3.68
20.953,3.03
20.968,1.84
20.984,-0.19
21.000,-3.2
21.015,-7.1
21.031,-11.54
21.046,-16.08
21.062,-20.34
21.078,-24.15
21.093,-27.51
21.109,-30.63
21.125,-33.85
21.140,-37.49
21.156,-41.79
21.171,-46.75
21.187,-52.1
21.203,-57.25
21.218,-61.44
21.234,-63.83
21.250,-63.75
21.265,-60.81
21.281,-55.0
21.296,-46.73
21.312,-36.73
21.328,-25.91
21.343,-15.15
21.359,-5.2
21.375,3.4
21.390,10.33
21.406,15.43
21.421,18.66
21.437,20.1
21.453,19.99
21.468,18.73
21.484,16.9
21.500,15.12
21.515,13.85
21.531,13.32
21.546,13.44
21.562,13.92
21.578,14.4
21.593,14.65
21.609,14.6
21.625,14.29
21.640,13.77
21.656,12.95
21.671,11.59
21.687,9.38
21.703,6.09
21.718,1.72
21.734,-3.46
21.750,-9.01
21.765,-14.47
21.781,-19.53
21.796,-24.15
21.812,-28.56
21.828,-33.15
21.843,-38.34
21.859,-44.46
21.875,-51.59
21.890,-59.42
21.906,-67.18
21.921,-73.68
21.937,-77.58
21.953,-77.75
21.968,-73.68
21.984,-65.64
22.000,-54.57
22.015,-41.75
22.031,-28.48
22.046,-15.75
22.062,-4.22
22.078,5.7
22.093,13.74
22.109,19.74
22.125,23.74
22.140,25.99
22.156,26.92
22.171,27.05
22.187,26.81
22.203,26.46
22.218,26.07
22.234,25.6
22.250,24.97
22.265,24.18
22.281,23.33
22.296,22.55
22.312,21.99
22.328,21.68
22.343,21.42
22.359,20.79
22.375,19.28
22.390,16.46
22.406,12.22
22.421,6.75
22.437,0.49
22.453,-6.11
22.468,-12.64
22.484,-18.98
22.500,-25.22
22.515,-31.64
22.531,-38.65
22.546,-46.62
22.562,-55.69
22.578,-65.59
22.593,-75.49
22.609,-84.08
22.625,-89.79
22.640,-91.26
22.656,-87.73
22.671,-79.24
22.687,-66.59
22.703,-51.13
22.718,-34.37
22.734,-17.67
22.750,-2.12
22.765,11.58
22.781,23.06
22.796,32.21
22.812,39.07
22.828,43.86
22.843,46.9
22.859,48.58
22.875,49.35
22.890,49.63
22.906,49.76
22.921,49.87
22.937,49.96
22.953,49.86
22.968,49.43
22.984,48.67
23.000,47.71
23.015,46.75
23.031,45.87
23.046,44.95
23.062,43.64
23.078,41.43
23.093,37.92
23.109,32.88
23.125,26.47
23.140,19.1
23.156,11.39
23.171,3.92
23.187,-2.92
23.203,-9.07
23.218,-14.88
23.234,-20.97
23.250,-28.09
23.265,-36.77
23.281,-47.0
23.296,-58.0
23.312,-68.25
23.328,-75.79
23.343,-78.8
23.359,-76.13
23.375,-67.63
23.390,-54.18
23.406,-37.3
23.421,-18.78
23.437,-0.23
23.453,17.13
23.468,32.51
23.484,45.56
23.500,56.27
23.515,64.78
23.531,71.38
23.546,76.27
23.562,79.63
23.578,81.54
23.593,82.14
23.609,81.71
23.625,80.66
23.640,79.48
23.656,78.55
23.671,78.04
23.687,77.9
23.703,77.85
23.718,77.54
23.734,76.59
23.750,74.74
23.765,71.82
23.781,67.82
23.796,62.86
23.812,57.08
23.828,50.68
23.843,43.8
23.859,36.58
23.875,29.13
23.890,21.62
23.906,14.22
23.921,7.09
23.937,0.35
23.953,-6.03
23.968,-12.16
23.984,-18.24
24.000,-24.53
24.015,-31.34
24.031,-38.98
24.046,-47.7
24.062,-57.53
24.078,-67.98
24.093,-78.01
24.109,-86.03
24.125,-90.22
24.140,-89.12
24.156,-82.07
24.171,-69.5
24.187,-52.76
24.203,-33.75
24.218,-14.29
24.234,4.19
24.250,20.83
24.265,35.24
24.281,47.32
24.296,57.12
24.312,64.78
24.328,70.53
24.343,74.64
24.359,77.41
24.375,79.1
24.390,79.85
24.406,79.81
24.421,79.14
24.437,78.04
24.453,76.7
24.468,75.28
24.484,73.81
24.500,72.25
24.515,70.58
24.531,68.75
24.546,66.75
24.562,64.48
24.578,61.78
24.593,58.42
24.609,54.2
24.625,49.11
24.640,43.32
24.656,37.25
24.671,31.35
24.687,25.92
24.703,20.95
24.718,16.17
24.734,11.1
24.750,5.36
24.765,-1.16
24.781,-8.28
24.796,-15.51
24.812,-22.33
24.828,-28.4
24.843,-33.71
24.859,-38.6
24.875,-43.66
24.890,-49.56
24.906,-56.72
24.921,-65.06
24.937,-73.85
24.953,-81.72
24.968,-86.98
24.984,-88.03
25.000,-83.92
25.015,-74.59
25.031,-60.9
25.046,-44.35
25.062,-26.65
25.078,-9.29
25.093,6.7
25.109,20.78
25.125,32.79
25.140,42.78
25.156,50.94
25.171,57.43
25.187,62.37
25.203,65.87
25.218,68.06
25.234,69.11
25.250,69.3
25.265,69.0
25.281,68.49
25.296,67.93
25.312,67.3
25.328,66.44
25.343,65.17
25.359,63.48
25.375,61.45
25.390,59.29
25.406,57.13
25.421,54.87
25.437,52.25
25.453,48.87
25.468,44.47
25.484,39.05
25.500,32.94
25.515,26.62
25.531,20.64
25.546,15.3
25.562,10.6
25.578,6.3
25.593,1.97
25.609,-2.69
25.625,-7.83
25.640,-13.29
25.656,-18.72
25.671,-23.76
25.687,-28.19
25.703,-32.1
25.718,-35.86
25.734,-40.05
25.750,-45.23
25.765,-51.77
25.781,-59.65
25.796,-68.41
25.812,-77.09
25.828,-84.36
25.843,-88.79
25.859,-89.14
25.875,-84.72
25.890,-75.61
25.906,-62.63
25.921,-47.15
25.937,-30.71
25.953,-14.66
25.968,0.02
25.984,12.81
26.000,23.51
26.015,32.16
26.031,38.89
26.046,43.92
26.062,47.49
26.078,49.88
26.093,51.34
26.109,52.11
26.125,52.38
26.140,52.34
26.156,52.15
26.171,51.94
26.187,51.76
26.203,51.57
26.218,51.25
26.234,50.64
26.250,49.67
26.265,48.31
26.281,46.58
26.296,44.5
26.312,41.99
26.328,38.96
26.343,35.32
26.359,31.06
26.375,26.34
26.390,21.47
26.406,16.81
26.421,12.57
26.437,8.8
26.453,5.31
26.468,1.77
26.484,-2.12
26.500,-6.51
26.515,-11.3
26.531,-16.24
26.546,-21.02
26.562,-25.51
26.578,-29.75
26.593,-34.02
26.609,-38.61
26.625,-43.75
26.640,-49.53
26.656,-55.93
26.671,-62.86
26.687,-70.17
26.703,-77.44
26.718,-83.91
26.734,-88.45
26.750,-89.77
26.765,-86.86
26.781,-79.39
26.796,-67.9
26.812,-53.66
26.828,-38.3
26.843,-23.31
26.859,-9.71
26.875,2.04
26.890,11.93
26.906,20.21
26.921,27.08
26.937,32.68
26.953,37.02
26.968,40.17
26.984,42.19
27.000,43.31
27.015,43.83
27.031,44.06
27.046,44.23
27.062,44.45
27.078,44.67
27.093,44.74
27.109,44.54
27.125,43.96
27.140,43.07
27.156,41.96
27.171,40.75
27.187,39.42
27.203,37.86
27.218,35.87
27.234,33.26
27.250,29.98
27.265,26.14
27.281,21.99
27.296,17.8
27.312,13.77
27.328,9.93
27.343,6.26
27.359,2.61
27.375,-1.1
27.390,-4.96
27.406,-9.03
27.421,-13.39
27.437,-18.07
27.453,-23.05
27.468,-28.25
27.484,-33.52
27.500,-38.75
27.515,-43.86
27.531,-48.92
27.546,-54.06
27.562,-59.5
27.578,-65.42
27.593,-71.78
27.609,-78.22
27.625,-83.94
27.640,-87.77
27.656,-88.44
27.671,-84.98
27.687,-77.14
27.703,-65.49
27.718,-51.35
27.734,-36.33
27.750,-21.94
27.765,-9.16
27.781,1.62
27.796,10.49
27.812,17.77
27.828,23.74
27.843,28.68
27.859,32.72
27.875,35.95
27.890,38.46
27.906,40.31
27.921,41.54
27.937,42.2
27.953,42.41
27.968,42.3
27.984,42.04
28.000,41.81
28.015,41.69
28.031,41.71
28.046,41.72
28.062,41.5
28.078,40.77
28.093,39.36
28.109,37.16
28.125,34.26
28.140,30.85
28.156,27.16
28.171,23.49
28.187,19.99
28.203,16.8
28.218,13.89
28.234,11.18
28.250,8.52
28.265,5.76
28.281,2.81
28.296,-0.3
28.312,-3.5
28.328,-6.69
28.343,-9.91
28.359,-13.32
28.375,-17.12
28.390,-21.44
28.406,-26.2
28.421,-31.12
28.437,-35.81
28.453,-39.99
28.468,-43.64
28.484,-47.07
28.500,-50.83
28.515,-55.49
28.531,-61.38
28.546,-68.36
28.562,-75.72
28.578,-82.3
28.593,-86.7
28.609,-87.68
28.625,-84.53
28.640,-77.27
28.656,-66.64
28.671,-53.83
28.687,-40.17
28.703,-26.78
28.718,-14.43
28.734,-3.51
28.750,5.86
28.765,13.78
28.781,20.43
28.796,26.02
28.812,30.7
28.828,34.55
28.843,37.6
28.859,39.83
28.875,41.26
28.890,41.99
28.906,42.18
28.921,42.03
28.937,41.66
28.953,41.2
28.968,40.69
28.984,40.18
29.000,39.77
29.015,39.45
29.031,39.21
29.046,38.88
29.062,38.19
29.078,36.93
29.093,34.95
29.109,32.28
29.125,29.05
29.140,25.49
29.156,21.74
29.171,17.93
29.187,14.06
29.203,10.19
29.218,6.36
29.234,2.69
29.250,-0.76
29.265,-4.04
29.281,-7.29
29.296,-10.72
29.312,-14.51
29.328,-18.73
29.343,-23.29
29.359,-28.01
29.375,-32.73
29.390,-37.36
29.406,-41.95
29.421,-46.64
29.437,-51.63
29.453,-57.1
29.468,-63.2
29.484,-69.92
29.500,-76.93
29.515,-83.49
29.531,-88.49
29.546,-90.65
29.562,-88.92
29.578,-82.87
29.593,-72.94
29.609,-60.28
29.625,-46.41
29.640,-32.73
29.656,-20.23
29.671,-9.38
29.687,-0.18
29.703,7.61
29.718,14.3
29.734,20.18
29.750,25.43
29.765,30.04
29.781,33.94
29.796,36.99
29.812,39.15
29.828,40.5
29.843,41.31
29.859,41.9
29.875,42.54
29.890,43.37
29.906,44.36
29.921,45.32
29.937,46.05
29.953,46.35
29.968,46.04
29.984,45.02
30.000,43.28
30.015,40.89
30.031,37.98
30.046,34.73
30.062,31.32
30.078,27.89
30.093,24.58
30.109,21.44
30.125,18.45
30.140,15.52
30.156,12.57
30.171,9.45
30.187,6.18
30.203,2.77
30.218,-0.75
30.234,-4.4
30.250,-8.25
30.265,-12.36
30.281,-16.7
30.296,-21.15
30.312,-25.55
30.328,-29.78
30.343,-33.8
30.359,-37.77
30.375,-41.93
30.390,-46.6
30.406,-52.1
30.421,-58.64
30.437,-66.13
30.453,-74.06
30.468,-81.49
30.484,-87.08
30.500,-89.44
30.515,-87.52
30.531,-80.97
30.546,-70.31
30.562,-56.76
30.578,-41.87
30.593,-27.14
30.609,-13.64
30.625,-1.95
30.640,7.79
30.656,15.78
30.671,22.3
30.687,27.69
30.703,32.16
30.718,35.89
30.734,38.93
30.750,41.33
30.765,43.15
30.781,44.44
30.796,45.32
30.812,45.87
30.828,46.15
30.843,46.23
30.859,46.15
30.875,45.99
30.890,45.87
30.906,45.82
30.921,45.76
30.937,45.46
30.953,44.63
30.968,43.01
30.984,40.49
31.000,37.18
31.015,33.34
31.031,29.27
31.046,25.32
31.062,21.71
31.078,18.56
31.093,15.89
31.109,13.61
31.125,11.64
31.140,9.85
31.156,8.07
31.171,6.07
31.187,3.58
31.203,0.33
31.218,-3.88
31.234,-9.08
31.250,-15.17
31.265,-21.91
31.281,-29.04
31.296,-36.4
31.312,-44.0
31.328,-52.03
31.343,-60.72
31.359,-70.18
31.375,-80.15
31.390,-89.87
31.406,-98.14
31.421,-103.62
31.437,-105.18
31.453,-102.3
31.468,-95.18
31.484,-84.66
31.500,-71.94
31.515,-58.21
31.531,-44.46
31.546,-31.39
31.562,-19.41
31.578,-8.73
31.593,0.64
31.609,8.75
31.625,15.72
31.640,21.62
31.656,26.45
31.671,30.19
31.687,32.88
31.703,34.79
31.718,36.3
31.734,37.85
31.750,39.7
31.765,41.81
31.781,43.91
31.796,45.59
31.812,46.58
31.828,46.81
31.843,46.49
31.859,45.86
31.875,45.09
31.890,44.18
31.906,42.89
31.921,40.9
31.937,37.85
31.953,33.48
31.968,27.67
31.984,20.45
32.000,11.96
32.015,2.45
32.031,-7.68
32.046,-17.93
32.062,-27.75
32.078,-36.58
32.093,-44.02
32.109,-49.89
32.125,-54.21
32.140,-57.21
32.156,-59.16
32.171,-60.37
32.187,-61.1
32.203,-61.6
32.218,-62.17
32.234,-63.05
32.250,-64.32
32.265,-65.7
32.281,-66.49
32.296,-65.69
32.312,-62.25
32.328,-55.5
32.343,-45.35
32.359,-32.41
32.375,-17.79
32.390,-2.76
32.406,11.61
32.421,24.62
32.437,36.01
32.453,45.74
32.468,53.8
32.484,60.23
32.500,64.99
32.515,68.13
32.531,69.81
32.546,70.35
32.562,70.08
32.578,69.3
32.593,68.18
32.609,66.84
32.625,65.48
32.640,64.39
32.656,64.09
32.671,65.27
32.687,68.55
32.703,74.3
32.718,82.37
32.734,92.1
32.750,102.44
32.765,112.38
32.781,121.32
32.796,129.32
32.812,137.01
32.828,145.21
32.843,154.39
32.859,164.27
32.875,173.63
32.890,180.54
32.906,182.85
32.921,178.8
32.937,167.37
32.953,148.63
32.968,123.64
32.984,94.29
33.000,62.99
33.015,32.19
33.031,3.91
33.046,-20.51
33.062,-40.62
33.078,-56.78
33.093,-69.91
33.109,-81.06
33.125,-90.95
33.140,-99.75
33.156,-107.06
33.171,-112.28
33.187,-114.99
33.203,-115.26
33.218,-113.7
33.234,-111.15
33.250,-108.33
33.265,-105.47
33.281,-102.27
33.296,-98.03
33.312,-92.04
33.328,-83.91
33.343,-73.72
33.359,-62.0
33.375,-49.57
33.390,-37.33
33.406,-26.08
33.421,-16.51
33.437,-9.11
33.453,-4.17
33.468,-1.67
33.484,-1.24
33.500,-2.15
33.515,-3.35
33.531,-3.84
33.546,-2.99
33.562,-0.82
33.578,1.96
33.593,4.14
33.609,4.46
33.625,2.07
33.640,-3.18
33.656,-10.7
33.671,-19.46
33.687,-28.35
33.703,-36.61
33.718,-43.99
33.734,-50.75
33.750,-57.41
33.765,-64.45
33.781,-72.08
33.796,-80.16
33.812,-88.31
33.828,-95.96
33.843,-102.49
33.859,-107.31
33.875,-110.01
33.890,-110.45
33.906,-108.7
33.921,-105.03
33.937,-99.51
33.953,-91.83
33.968,-81.21
33.984,-66.59
34.000,-47.17
34.015,-22.9
34.031,5.2
34.046,35.14
34.062,64.22
34.078,89.65
34.093,109.02
34.109,120.69
34.125,124.05
34.140,119.49
34.156,108.12
34.171,91.32
34.187,70.38
34.203,46.26
34.218,19.71
34.234,-8.54
34.250,-37.6
34.265,-66.38
34.281,-93.63
34.296,-118.11
34.312,-138.45
34.328,-153.17
34.343,-160.77
34.359,-160.12
34.375,-151.11
34.390,-135.1
34.406,-114.86
34.421,-93.88
34.437,-75.35
34.453,-61.27
34.468,-52.12
34.484,-47.21
34.500,-45.26
34.515,-45.06
34.531,-45.72
34.546,-46.6
34.562,-47.24
34.578,-47.27
34.593,-46.47
34.609,-45.01
34.625,-43.43
34.640,-42.56
34.656,-43.14
34.671,-45.57
34.687,-49.59
34.703,-54.32
34.718,-58.44
34.734,-60.48
34.750,-59.23
34.765,-54.03
34.781,-44.93
34.796,-32.68
34.812,-18.44
34.828,-3.57
34.843,10.72
34.859,23.54
34.875,34.45
34.890,43.32
34.906,50.27
34.921,55.47
34.937,59.03
34.953,61.07
34.968,61.81
34.984,61.62
35.000,60.99
35.015,60.44
35.031,60.26
35.046,60.46
35.062,60.81
35.078,61.06
35.093,61.03
35.109,60.76
35.125,60.42
35.140,60.13
35.156,59.79
35.171,59.06
35.187,57.44
35.203,54.55
35.218,50.28
35.234,44.91
35.250,39.09
35.265,33.57
35.281,28.91
35.296,25.24
35.312,22.21
35.328,19.15
35.343,15.33
35.359,10.3
35.375,3.97
35.390,-3.38
35.406,-11.25
35.421,-19.01
35.437,-25.91
35.453,-31.14
35.468,-33.78
35.484,-33.05
35.500,-28.43
35.515,-19.97
35.531,-8.28
35.546,5.57
35.562,20.29
35.578,34.71
35.593,47.96
35.609,59.49
35.625,68.98
35.640,76.26
35.656,81.27
35.671,84.14
35.687,85.25
35.703,85.18
35.718,84.57
35.734,83.82
35.750,82.96
35.765,81.7
35.781,79.69
35.796,76.86
35.812,73.54
35.828,70.36
35.843,67.87
35.859,66.22
35.875,64.88
35.890,62.9
35.906,59.33
35.921,53.7
35.937,46.19
35.953,37.6
35.968,28.85
35.984,20.65
36.000,13.27
36.015,6.43
36.031,-0.43
36.046,-7.98
36.062,-16.82
36.078,-27.37
36.093,-39.67
36.109,-53.28
36.125,-67.18
36.140,-79.86
36.156,-89.65
36.171,-95.16
36.187,-95.72
36.203,-91.58
36.218,-83.78
36.234,-73.74
36.250,-62.88
36.265,-52.27
36.281,-42.58
36.296,-34.12
36.312,-26.99
36.328,-21.21
36.343,-16.69
36.359,-13.24
36.375,-10.59
36.390,-8.44
36.406,-6.58
36.421,-4.98
36.437,-3.72
36.453,-2.97
36.468,-2.82
36.484,-3.18
36.500,-3.74
36.515,-4.05
36.531,-3.69
36.546,-2.38
36.562,-0.17
36.578,2.64
36.593,5.47
36.609,7.63
36.625,8.46
36.640,7.6
36.656,5.09
36.671,1.48
36.687,-2.37
36.703,-5.48
36.718,-7.22
36.734,-7.54
36.750,-6.96
36.765,-6.44
36.781,-6.79
36.796,-8.39
36.812,-10.88
36.828,-13.37
36.843,-14.81
36.859,-14.5
36.875,-12.28
36.890,-8.53
36.906,-3.9
36.921,1.01
36.937,5.86
36.953,10.56
36.968,15.11
36.984,19.45
37.000,23.36
37.015,26.51
37.031,28.62
37.046,29.43
37.062,28.88
37.078,27.04
37.093,24.1
37.109,20.46
37.125,16.67
37.140,13.39
37.156,11.33
37.171,11.03
37.187,12.79
37.203,16.53
37.218,21.79
37.234,27.8
37.250,33.75
37.265,38.95
37.281,43.07
37.296,46.16
37.312,48.6
37.328,50.86
37.343,53.33
37.359,56.18
37.375,59.26
37.390,62.17
37.406,64.3
37.421,64.99
37.437,63.62
37.453,59.8
37.468,53.47
37.484,44.94
37.500,34.76
37.515,23.61
37.531,12.19
37.546,1.14
37.562,-8.87
37.578,-17.18
37.593,-23.17
37.609,-26.38
37.625,-26.72
37.640,-24.5
37.656,-20.36
37.671,-15.1
37.687,-9.42
37.703,-3.79
37.718,1.6
37.734,6.71
37.750,11.54
37.765,16.01
37.781,19.96
37.796,23.15
37.812,25.4
37.828,26.63
37.843,26.91
37.859,26.48
37.875,25.6
37.890,24.53
37.906,23.49
37.921,22.55
37.937,21.77
37.953,21.09
37.968,20.48
37.984,19.82
38.000,19.03
38.015,18.02
38.031,16.75
38.046,15.21
38.062,13.43
38.078,11.42
38.093,9.15
38.109,6.52
38.125,3.39
38.140,-0.29
38.156,-4.48
38.171,-9.04
38.187,-13.69
38.203,-18.22
38.218,-22.49
38.234,-26.52
38.250,-30.41
38.265,-34.4
38.281,-38.77
38.296,-43.71
38.312,-49.23
38.328,-55.06
38.343,-60.59
38.359,-64.95
38.375,-67.21
38.390,-66.62
38.406,-62.88
38.421,-56.32
38.437,-47.71
38.453,-38.11
38.468,-28.49
38.484,-19.52
38.500,-11.46
38.515,-4.23
38.531,2.38
38.546,8.48
38.562,14.0
38.578,18.7
38.593,22.29
38.609,24.67
38.625,25.99
38.640,26.58
38.656,26.81
38.671,26.95
38.687,27.04
38.703,27.0
38.718,26.77
38.734,26.3
38.750,25.66
38.765,24.88
38.781,23.87
38.796,22.5
38.812,20.63
38.828,18.22
38.843,15.34
38.859,12.12
38.875,8.67
38.890,4.98
38.906,1.0
38.921,-3.33
38.937,-7.91
38.953,-12.54
38.968,-16.93
38.984,-20.89
39.000,-24.37
39.015,-27.56
39.031,-30.76
39.046,-34.31
39.062,-38.49
39.078,-43.36
39.093,-48.76
39.109,-54.21
39.125,-58.97
39.140,-62.2
39.156,-63.11
39.171,-61.24
39.187,-56.58
39.203,-49.62
39.218,-41.15
39.234,-32.03
39.250,-22.95
39.265,-14.36
39.281,-6.42
39.296,0.81
39.312,7.3
39.328,13.01
39.343,17.86
39.359,21.8
39.375,24.8
39.390,26.88
39.406,28.13
39.421,28.64
39.437,28.61
39.453,28.26
39.468,27.89
39.484,27.76
39.500,28.01
39.515,28.61
39.531,29.35
39.546,29.93
39.562,30.05
39.578,29.46
39.593,28.05
39.609,25.8
39.625,22.77
39.640,19.07
39.656,14.82
39.671,10.21
39.687,5.45
39.703,0.77
39.718,-3.71
39.734,-8.03
39.750,-12.3
39.765,-16.71
39.781,-21.38
39.796,-26.31
39.812,-31.48
39.828,-36.8
39.843,-42.29
39.859,-47.91
39.875,-53.55
39.890,-58.81
39.906,-63.04
39.921,-65.44
39.937,-65.3
39.953,-62.27
39.968,-56.49
39.984,-48.55
40.000,-39.26
40.015,-29.5
40.031,-19.92
40.046,-11.01
40.062,-2.99
40.078,3.99
40.093,9.85
40.109,14.54
40.125,18.04
40.140,20.44
40.156,21.91
40.171,22.71
40.187,23.09
40.203,23.27
40.218,23.36
40.234,23.38
40.250,23.3
40.265,23.1
40.281,22.79
40.296,22.38
40.312,21.8
40.328,20.92
40.343,19.56
40.359,17.54
40.375,14.74
40.390,11.17
40.406,6.91
40.421,2.09
40.437,-3.13
40.453,-8.6
40.468,-14.18
40.484,-19.7
40.500,-25.1
40.515,-30.35
40.531,-35.49
40.546,-40.59
40.562,-45.67
40.578,-50.66
40.593,-55.48
40.609,-60.07
40.625,-64.39
40.640,-68.41
40.656,-72.01
40.671,-74.84
40.687,-76.35
40.703,-75.9
40.718,-72.97
40.734,-67.37
40.750,-59.31
40.765,-49.35
40.781,-38.21
40.796,-26.52
40.812,-14.79
40.828,-3.34
40.843,7.55
40.859,17.63
40.875,26.56
40.890,33.96
40.906,39.5
40.921,43.01
40.937,44.63
40.953,44.8
40.968,44.15
40.984,43.4
41.000,43.09
41.015,43.45
41.031,44.38
41.046,45.53
41.062,46.46
41.078,46.84
41.093,46.5
41.109,45.44
41.125,43.77
41.140,41.61
41.156,39.0
41.171,35.95
41.187,32.48
41.203,28.64
41.218,24.53
41.234,20.22
41.250,15.75
41.265,11.04
41.281,5.97
41.296,0.46
41.312,-5.45
41.328,-11.61
41.343,-17.83
41.359,-23.9
41.375,-29.8
41.390,-35.6
41.406,-41.37
41.421,-46.97
41.437,-51.88
41.453,-55.24
41.468,-56.1
41.484,-53.76
41.500,-48.02
41.515,-39.32
41.531,-28.58
41.546,-16.9
41.562,-5.2
41.578,5.84
41.593,15.87
41.609,24.63
41.625,31.85
41.640,37.25
41.656,40.61
41.671,41.94
41.687,41.62
41.703,40.26
41.718,38.56
41.734,37.09
41.750,36.14
41.765,35.69
41.781,35.52
41.796,35.42
41.812,35.26
41.828,35.08
41.843,34.89
41.859,34.69
41.875,34.31
41.890,33.43
41.906,31.73
41.921,28.93
41.937,25.0
41.953,20.08
41.968,14.53
41.984,8.79
42.000,3.29
42.015,-1.65
42.031,-5.98
42.046,-9.81
42.062,-13.46
42.078,-17.34
42.093,-21.78
42.109,-26.99
42.125,-32.84
42.140,-38.89
42.156,-44.32
42.171,-48.17
42.187,-49.47
42.203,-47.59
42.218,-42.41
42.234,-34.37
42.250,-24.36
42.265,-13.45
42.281,-2.63
42.296,7.33
42.312,16.0
42.328,23.2
42.343,28.85
42.359,32.97
42.375,35.56
42.390,36.72
42.406,36.65
42.421,35.68
42.437,34.28
42.453,32.92
42.468,31.97
42.484,31.57
42.500,31.61
42.515,31.76
42.531,31.66
42.546,31.06
42.562,29.86
42.578,28.14
42.593,26.07
42.609,23.7
42.625,20.98
42.640,17.78
42.656,13.95
42.671,9.42
42.687,4.39
42.703,-0.86
42.718,-5.94
42.734,-10.59
42.750,-14.74
42.765,-18.62
42.781,-22.55
42.796,-26.93
42.812,-32.05
42.828,-37.97
42.843,-44.49
42.859,-51.05
42.875,-56.81
42.890,-60.73
42.906,-61.83
42.921,-59.46
42.937,-53.59
42.953,-44.83
42.968,-34.28
42.984,-23.18
43.000,-12.52
43.015,-2.83
43.031,5.76
43.046,13.36
43.062,20.03
43.078,25.64
43.093,29.92
43.109,32.64
43.125,33.82
43.140,33.82
43.156,33.29
43.171,32.9
43.187,33.15
43.203,34.08
43.218,35.34
43.234,36.29
43.250,36.29
43.265,34.94
43.281,32.2
43.296,28.4
43.312,24.05
43.328,19.66
43.343,15.63
43.359,12.16
43.375,9.34
43.390,7.2
43.406,5.74
43.421,4.92
43.437,4.62
43.453,4.55
43.468,4.4
43.484,3.84
43.500,2.72
43.515,1.11
43.531,-0.84
43.546,-3.02
43.562,-5.5
43.578,-8.45
43.593,-11.87
43.609,-15.29
43.625,-17.67
43.640,-17.59
43.656,-13.75
43.671,-5.52
43.687,6.62
43.703,21.23
43.718,36.43
43.734,50.54
43.750,62.66
43.765,72.7
43.781,81.13
43.796,88.56
43.812,95.44
43.828,101.94
43.843,108.1
43.859,113.96
43.875,119.65
43.890,125.37
43.906,131.35
43.921,137.72
43.937,144.44
43.953,151.24
43.968,157.75
43.984,163.62
44.000,168.78
44.015,173.55
44.031,178.4
44.046,183.48
44.062,187.89
44.078,189.56
44.093,185.59
44.109,173.2
44.125,150.88
44.140,118.93
44.156,79.31
44.171,34.8
44.187,-11.65
44.203,-57.15
44.218,-98.41
44.234,-131.51
44.250,-152.54
44.265,-158.98
44.281,-151.39
44.296,-133.89
44.312,-113.09
44.328,-95.66
44.343,-85.66
44.359,-83.16
44.375,-84.79
44.390,-86.0
44.406,-83.71
44.421,-77.81
44.437,-70.81
44.453,-65.9
44.468,-64.81
44.484,-66.67
44.500,-68.72
44.515,-68.01
44.531,-63.2
44.546,-55.37
44.562,-47.59
44.578,-43.4
44.593,-45.14
44.609,-53.06
44.625,-65.42
44.640,-79.49
44.656,-92.67
44.671,-103.26
44.687,-110.51
44.703,-114.4
44.718,-115.09
44.734,-112.52
44.750,-106.19
44.765,-95.36
44.781,-79.56
44.796,-59.19
44.812,-35.8
44.828,-11.88
44.843,10.06
44.859,28.39
44.875,42.93
44.890,54.78
44.906,65.26
44.921,74.88
44.937,82.62
44.953,86.32
44.968,83.99
44.984,75.47
45.000,63.24
45.015,51.75
45.031,45.49
45.046,46.59
45.062,53.46
45.078,61.09
45.093,62.95
45.109,53.5
45.125,29.97
45.140,-6.99
45.156,-53.73
45.171,-104.35
45.187,-151.65
45.203,-188.04
45.218,-206.77
45.234,-203.6
45.250,-177.94
45.265,-133.23
45.281,-75.96
45.296,-14.04
45.312,44.94
45.328,94.54
45.343,129.62
45.359,146.36
45.375,142.45
45.390,117.85
45.406,75.39
45.421,20.69
45.437,-38.55
45.453,-93.69
45.468,-136.48
45.484,-160.22
45.500,-161.04
45.515,-139.12
45.531,-99.08
45.546,-48.96
45.562,2.22
45.578,47.3
45.593,82.94
45.609,109.21
45.625,127.61
45.640,138.64
45.656,140.61
45.671,130.68
45.687,106.99
45.703,70.23
45.718,23.77
45.734,-27.83
45.750,-80.34
45.765,-130.35
45.781,-174.48
45.796,-208.48
45.812,-227.2
45.828,-225.98
45.843,-202.69
45.859,-159.21
45.875,-101.31
45.890,-37.28
45.906,23.96
45.921,74.39
45.937,107.7
45.953,119.63
45.968,108.58
45.984,76.06
46.000,26.8
46.015,-31.97
46.031,-92.08
46.046,-146.17
46.062,-188.7
46.078,-216.18
46.093,-226.89
46.109,-220.71
46.125,-199.11
46.140,-165.28
46.156,-123.72
46.171,-79.36
46.187,-36.56
46.203,1.44
46.218,32.14
46.234,53.13
46.250,61.76
46.265,55.73
46.281,34.45
46.296,0.14
46.312,-42.05
46.328,-85.12
46.343,-122.01
46.359,-147.29
46.375,-157.81
46.390,-152.79
46.406,-133.46
46.421,-102.79
46.437,-65.15
46.453,-26.0
46.468,8.97
46.484,35.04
46.500,49.55
46.515,52.52
46.531,46.5
46.546,35.62
46.562,24.41
46.578,16.72
46.593,15.15
46.609,20.73
46.625,32.9
46.640,49.69
46.656,68.12
46.671,84.84
46.687,96.92
46.703,102.66
46.718,102.11
46.734,96.93
46.750,89.68
46.765,82.6
46.781,76.61
46.796,71.12
46.812,64.65
46.828,55.98
46.843,45.08
46.859,33.28
46.875,22.44
46.890,13.93
46.906,7.92
46.921,3.46
46.937,-0.69
46.953,-5.41
46.968,-10.89
46.984,-16.88
47.000,-23.16
47.015,-29.92
47.031,-37.44
47.046,-45.57
47.062,-53.38
47.078,-59.36
47.093,-62.11
47.109,-61.22
47.125,-57.57
47.140,-52.91
47.156,-48.98
47.171,-46.43
47.187,-44.59
47.203,-41.84
47.218,-36.49
47.234,-27.76
47.250,-15.93
47.265,-1.89
47.281,13.55
47.296,30.21
47.312,48.41
47.328,68.26
47.343,88.87
47.359,108.38
47.375,124.57
47.390,136.06
47.406,142.92
47.421,146.35
47.437,147.82
47.453,148.09
47.468,146.98
47.484,143.91
47.500,138.58
47.515,131.06
47.531,121.29
47.546,108.34
47.562,90.36
47.578,65.57
47.593,33.83
47.609,-2.33
47.625,-38.12
47.640,-68.28
47.656,-89.37
47.671,-101.1
47.687,-106.11
47.703,-108.27
47.718,-110.74
47.734,-114.66
47.750,-119.17
47.765,-122.32
47.781,-122.17
47.796,-117.63
47.812,-108.63
47.828,-95.78
47.843,-79.92
47.859,-61.89
47.875,-42.44
47.890,-22.32
47.906,-2.41
47.921,16.4
47.937,33.34
47.953,47.94
47.968,60.19
47.984,70.54
48.000,79.7
48.015,88.31
48.031,96.62
48.046,104.28
48.062,110.51
48.078,114.38
48.093,115.44
48.109,114.19
48.125,112.21
48.140,111.92
48.156,115.64
48.171,124.72
48.187,138.68
48.203,155.12
48.218,170.31
48.234,180.5
48.250,183.17
48.265,178.04
48.281,167.08
48.296,153.69
48.312,141.16
48.328,131.2
48.343,123.23
48.359,114.62
48.375,101.91
48.390,82.34
48.406,54.74
48.421,19.49
48.437,-22.19
48.453,-69.28
48.468,-121.11
48.484,-176.83
48.500,-234.31
48.515,-289.51
48.531,-336.9
48.546,-371.01
48.562,-388.31
48.578,-388.45
48.593,-374.31
48.609,-350.71
48.625,-322.74
48.640,-294.21
48.656,-267.11
48.671,-241.82
48.687,-217.82
48.703,-194.43
48.718,-171.32
48.734,-148.54
48.750,-126.49
48.765,-105.65
48.781,-86.32
48.796,-68.51
48.812,-52.01
48.828,-36.65
48.843,-22.55
48.859,-10.27
48.875,-0.69
48.890,5.3
48.906,7.21
48.921,5.2
48.953,-7.28
48.968,-15.33
48.984,-22.73
49.000,-27.86
49.015,-29.08
49.031,-25.03
49.046,-15.2
49.062,-0.29
49.078,17.83
49.093,36.62
49.109,53.76
49.125,67.83
49.140,78.66
49.156,87.01
49.171,94.0
49.187,100.54
49.203,107.05
49.218,113.48
49.234,119.58
49.250,125.15
49.265,130.14
49.281,134.72
49.296,139.07
49.312,143.4
49.328,147.71
49.343,151.67
49.359,154.56
49.375,155.33
49.390,152.82
49.406,146.05
49.421,134.45
49.437,118.07
49.453,97.68
49.468,74.89
49.484,52.02
49.500,31.71
49.515,16.2
49.531,6.68
49.546,2.85
49.562,2.98
49.578,4.64
49.593,5.55
49.609,4.47
49.625,1.35
49.640,-2.85
49.656,-6.74
49.671,-9.01
49.687,-8.74
49.703,-5.5
49.718,0.7
49.734,9.35
49.750,19.43
49.765,29.57
49.781,38.45
49.796,45.12
49.812,49.25
49.828,51.1
49.843,51.29
49.859,50.47
49.875,49.16
49.890,47.71
49.906,46.35
49.921,45.23
49.937,44.27
49.953,43.03
49.968,40.84
49.984,37.12
50.000,31.85
50.015,25.89
50.031,20.86
50.046,18.44
50.062,19.5
50.078,23.44
50.093,28.22
50.109,31.3
50.125,30.76
50.140,26.42
50.156,19.92
50.171,14.07
50.187,11.51
50.203,13.58
50.218,19.86
50.234,28.66
50.250,37.96
50.265,46.44
50.281,53.88
50.296,60.89
50.312,68.3
50.328,76.51
50.343,85.26
50.359,93.84
50.375,101.45
50.390,107.31
50.406,110.52
50.421,109.74
50.437,103.27
50.453,89.57
50.468,68.11
50.484,39.94
50.500,7.64
50.515,-25.38
50.531,-55.82
50.546,-81.2
50.562,-100.03
50.578,-111.55
50.593,-115.5
50.609,-112.25
50.625,-103.05
50.640,-90.14
50.656,-76.36
50.671,-64.3
50.687,-55.36
50.703,-49.39
50.718,-45.28
50.734,-41.73
50.750,-38.2
50.765,-35.08
50.781,-33.26
50.796,-33.51
50.812,-35.9
50.828,-39.85
50.843,-44.36
50.859,-48.49
50.875,-51.46
50.890,-52.51
50.906,-50.68
50.921,-44.96
50.937,-34.63
50.953,-19.84
50.968,-1.9
50.984,16.98
51.000,34.38
51.015,48.43
51.031,58.27
51.046,63.89
51.062,65.71
51.078,64.31
51.093,60.34
51.109,54.81
51.125,49.12
51.140,44.84
51.156,42.99
51.171,43.64
51.187,45.8
51.203,48.02
51.218,49.23
51.234,49.2
51.250,48.57
51.265,48.2
51.281,48.5
51.296,49.18
51.312,49.48
51.328,48.75
51.343,46.95
51.359,44.62
51.375,42.52
51.390,41.18
51.406,40.57
51.421,40.29
51.437,39.95
51.453,39.57
51.468,39.82
51.484,41.84
51.500,46.8
51.515,55.41
51.531,67.63
51.546,82.7
51.562,99.54
51.578,117.23
51.593,135.23
51.609,153.25
51.625,170.72
51.640,186.31
51.656,197.82
51.671,202.73
51.687,199.13
51.703,186.62
51.718,166.58
51.734,141.63
51.750,114.55
51.765,87.46
51.781,61.53
51.796,37.54
51.812,16.55
51.828,0.14
51.843,-10.2
51.859,-14.29
51.875,-14.28
51.890,-14.53
51.906,-19.93
51.921,-33.71
51.937,-55.67
51.953,-82.14
51.968,-107.49
51.984,-126.83
52.000,-138.0
52.015,-142.04
52.031,-141.93
52.046,-140.56
52.062,-139.1
52.078,-136.79
52.093,-132.0
52.109,-123.69
52.125,-112.3
52.140,-99.65
52.156,-87.91
52.171,-78.47
52.187,-71.44
52.203,-65.81
52.218,-60.3
52.234,-54.32
52.250,-48.34
52.265,-43.79
52.281,-42.31
52.296,-44.7
52.312,-50.53
52.328,-58.14
52.343,-65.42
52.359,-70.68
52.375,-73.35
52.390,-73.99
52.406,-73.81
52.421,-73.92
52.437,-74.75
52.453,-76.06
52.468,-77.24
52.484,-77.86
52.500,-77.95
52.515,-77.98
52.531,-78.62
52.546,-80.34
52.562,-83.22
52.578,-86.82
52.593,-90.36
52.609,-92.9
52.625,-93.61
52.640,-91.92
52.656,-87.63
52.671,-80.93
52.687,-72.25
52.703,-62.25
52.718,-51.58
52.734,-40.92
52.750,-30.87
52.765,-21.86
52.781,-14.19
52.796,-8.03
52.812,-3.39
52.828,-0.2
52.843,1.66
52.859,2.35
52.875,2.07
52.890,1.06
52.906,-0.38
52.921,-1.92
52.937,-3.3
52.953,-4.4
52.968,-5.3
52.984,-6.29
53.000,-7.77
53.015,-10.0
53.031,-13.01
53.046,-16.55
53.062,-20.23
53.078,-23.68
53.093,-26.76
53.109,-29.65
53.125,-32.68
53.140,-36.26
53.156,-40.7
53.171,-46.03
53.187,-51.96
53.203,-57.89
53.218,-62.96
53.234,-66.29
53.250,-67.21
53.265,-65.41
53.281,-61.04
53.296,-54.66
53.312,-46.99
53.328,-38.66
53.343,-30.09
53.359,-21.52
53.375,-13.14
53.390,-5.33
53.406,1.4
53.421,6.5
53.437,9.61
53.453,10.78
53.468,10.48
53.484,9.48
53.500,8.48
53.515,7.94
53.531,7.87
53.546,7.94
53.562,7.69
53.578,6.73
53.593,4.97
53.609,2.61
53.625,0.01
53.640,-2.45
53.656,-4.61
53.671,-6.53
53.687,-8.54
53.703,-11.05
53.718,-14.51
53.734,-19.13
53.750,-24.96
53.765,-31.68
53.781,-38.69
53.796,-45.16
53.812,-50.05
53.828,-52.39
53.843,-51.49
53.859,-47.21
53.875,-40.0
53.890,-30.83
53.906,-20.88
53.921,-11.28
53.937,-2.77
53.953,4.27
53.968,9.69
53.984,13.5
54.000,15.65
54.015,16.15
54.031,15.17
54.046,13.13
54.062,10.6
54.078,8.2
54.093,6.33
54.109,5.03
54.125,4.03
54.140,2.91
54.156,1.3
54.171,-0.93
54.187,-3.68
54.203,-6.64
54.218,-9.46
54.234,-11.91
54.250,-14.0
54.265,-15.93
54.281,-18.11
54.296,-20.98
54.312,-24.89
54.328,-29.89
54.343,-35.7
54.359,-41.67
54.375,-46.92
54.390,-50.48
54.406,-51.56
54.421,-49.64
54.437,-44.63
54.453,-36.84
54.468,-26.92
54.484,-15.7
54.500,-3.95
54.515,7.59
54.531,18.42
54.546,28.14
54.562,36.52
54.578,43.45
54.593,48.91
54.609,53.03
54.625,55.99
54.640,58.05
54.656,59.49
54.671,60.55
54.687,61.4
54.703,62.15
54.718,62.82
54.734,63.4
54.750,63.96
54.765,64.58
54.781,65.27
54.796,65.87
54.812,65.92
54.828,64.57
54.843,60.76
54.859,53.42
54.875,41.75
54.890,25.46
54.906,4.78
54.921,-19.4
54.937,-45.54
54.953,-71.48
54.968,-94.78
54.984,-113.16
55.000,-125.14
55.015,-130.39
55.031,-129.77
55.046,-124.76
55.062,-116.84
55.078,-106.96
55.093,-95.41
55.109,-82.17
55.125,-67.34
55.140,-51.52
55.156,-35.7
55.171,-21.12
55.187,-8.85
55.203,0.39
55.218,6.36
55.234,9.21
55.250,9.51
55.265,8.15
55.281,6.06
55.296,4.13
55.312,2.98
55.328,2.92
55.343,4.01
55.359,6.23
55.375,9.4
55.390,13.28
55.406,17.51
55.421,21.79
55.437,25.9
55.453,29.57
55.468,32.07
55.484,32.16
55.500,28.37
55.515,19.85
55.531,7.23
55.546,-7.19
55.562,-20.01
55.578,-28.18
55.593,-30.18
55.609,-26.53
55.625,-19.28
55.640,-10.72
55.656,-2.36
55.671,5.4
55.687,12.79
55.703,19.92
55.718,26.33
55.734,31.14
55.750,33.58
55.765,33.42
55.781,31.09
55.796,27.31
55.812,22.85
55.828,18.26
55.843,13.74
55.859,9.25
55.875,4.64
55.890,-0.19
55.906,-5.12
55.921,-9.71
55.937,-13.37
55.953,-15.47
55.968,-15.71
55.984,-14.27
56.000,-11.75
56.015,-8.95
56.031,-6.5
56.046,-4.63
56.062,-3.21
56.078,-1.99
56.093,-0.92
56.109,-0.22
56.125,-0.28
56.140,-1.26
56.156,-2.79
56.171,-3.94
56.187,-3.41
56.203,-0.09
56.218,6.6
56.234,16.44
56.250,28.62
56.265,41.93
56.281,55.16
56.296,67.31
56.312,77.61
56.328,85.57
56.343,90.92
56.359,93.69
56.375,94.22
56.390,93.09
56.406,91.02
56.421,88.65
56.437,86.38
56.453,84.37
56.468,82.54
56.484,80.83
56.500,79.25
56.515,77.91
56.531,76.97
56.546,76.41
56.562,76.06
56.578,75.57
56.593,74.56
56.609,72.8
56.625,70.27
56.640,67.14
56.656,63.66
56.671,59.96
56.687,55.94
56.703,51.31
56.718,45.61
56.734,38.44
56.750,29.52
56.765,18.9
56.781,7.02
56.796,-5.33
56.812,-16.98
56.828,-26.68
56.843,-33.29
56.859,-36.15
56.875,-35.23
56.890,-31.22
56.906,-25.3
56.921,-18.79
56.937,-12.85
56.953,-8.14
56.968,-4.88
56.984,-2.98
57.000,-2.27
57.015,-2.66
57.031,-4.18
57.046,-6.86
57.062,-10.55
57.078,-14.93
57.093,-19.56
57.109,-24.02
57.125,-27.96
57.140,-31.16
57.156,-33.48
57.171,-34.79
57.187,-35.0
57.203,-34.05
57.218,-31.99
57.234,-29.0
57.250,-25.44
57.265,-21.73
57.281,-18.35
57.296,-15.71
57.312,-14.06
57.328,-13.47
57.343,-13.83
57.359,-14.89
57.375,-16.49
57.390,-18.7
57.406,-21.76
57.421,-25.96
57.437,-31.36
57.453,-37.43
57.468,-43.12
57.484,-47.01
57.500,-47.78
57.515,-44.6
57.531,-37.5
57.546,-27.25
57.562,-15.2
57.578,-2.82
57.593,8.69
57.609,18.47
57.625,26.1
57.640,31.45
57.656,34.55
57.671,35.54
57.687,34.62
57.703,32.15
57.718,28.62
57.734,24.66
57.750,20.86
57.765,17.8
57.781,15.83
57.796,15.01
57.812,15.17
57.828,15.94
57.843,16.86
57.859,17.51
57.875,17.64
57.890,17.12
57.906,16.0
57.921,14.37
57.937,12.33
57.953,9.91
57.968,7.16
57.984,4.06
58.000,0.59
58.015,-3.25
58.031,-7.58
58.046,-12.57
58.062,-18.42
58.078,-25.25
58.093,-32.82
58.109,-40.42
58.125,-46.91
58.140,-50.88
58.156,-51.07
58.171,-46.88
58.187,-38.59
58.203,-27.28
58.218,-14.55
58.234,-2.0
58.250,9.13
58.265,18.1
58.281,24.64
58.296,28.76
58.312,30.59
58.328,30.36
58.343,28.4
58.359,25.22
58.375,21.44
58.390,17.65
58.406,14.29
58.421,11.6
58.437,9.61
58.453,8.25
58.468,7.4
58.484,6.87
58.500,6.44
58.515,5.81
58.531,4.7
58.546,2.88
58.562,0.32
58.578,-2.83
58.593,-6.35
58.609,-9.98
58.625,-13.63
58.640,-17.28
58.656,-21.04
58.671,-25.08
58.687,-29.64
58.703,-34.94
58.718,-41.18
58.734,-48.29
58.750,-55.76
58.765,-62.57
58.781,-67.35
58.796,-68.76
58.812,-65.88
58.828,-58.63
58.843,-47.75
58.859,-34.61
58.875,-20.7
58.890,-7.32
58.906,4.62
58.921,14.65
58.937,22.49
58.953,28.09
58.968,31.43
58.984,32.65
59.000,32.08
59.015,30.23
59.031,27.69
59.046,25.04
59.062,22.7
59.078,20.9
59.093,19.67
59.109,18.96
59.125,18.64
59.140,18.55
59.156,18.52
59.171,18.29
59.187,17.55
59.203,15.98
59.218,13.3
59.234,9.44
59.250,4.54
59.265,-1.02
59.281,-6.77
59.296,-12.32
59.312,-17.54
59.328,-22.6
59.343,-27.88
59.359,-33.89
59.375,-40.93
59.390,-48.91
59.406,-57.21
59.421,-64.64
59.437,-69.71
59.453,-71.03
59.468,-67.72
59.484,-59.7
59.500,-47.75
59.515,-33.29
59.531,-17.91
59.546,-3.0
59.562,10.53
59.578,22.23
59.593,31.99
59.609,39.8
59.625,45.63
59.640,49.44
59.656,51.35
59.671,51.7
59.687,51.08
59.703,50.23
59.718,49.76
59.734,49.93
59.750,50.64
59.765,51.56
59.781,52.35
59.796,52.9
59.812,53.36
59.828,53.98
59.843,54.87
59.859,55.86
59.875,56.41
59.890,55.97
59.906,54.21
59.921,51.23
59.937,47.45
59.953,43.46
59.968,39.66
59.984,36.18
