timestamp,value
00.000,9.28
00.015,21.93
00.031,38.48
00.046,57.55
00.062,77.33
00.078,96.01
00.093,112.18
00.109,125.03
00.125,134.27
00.140,140.04
00.156,142.62
00.171,142.42
00.187,140.02
00.203,136.3
00.218,132.63
00.234,130.59
00.250,131.59
00.265,136.2
00.281,143.64
00.296,151.78
00.312,157.74
00.328,158.89
00.343,153.85
00.359,143.05
00.375,128.31
00.390,112.11
00.406,96.65
00.421,83.4
00.437,73.07
00.453,65.78
00.468,61.02
00.484,57.43
00.500,52.64
00.515,43.49
00.531,26.88
00.546,1.03
00.562,-33.46
00.578,-73.53
00.593,-114.37
00.609,-151.06
00.625,-179.96
00.640,-199.5
00.656,-209.96
00.671,-212.67
00.687,-209.14
00.703,-200.7
00.718,-188.53
00.734,-174.06
00.750,-159.08
00.765,-145.51
00.781,-134.84
00.796,-127.61
00.812,-123.24
00.828,-120.23
00.843,-116.66
00.859,-110.62
00.875,-100.59
00.890,-85.85
00.906,-67.04
00.921,-46.46
00.937,-27.85
00.953,-15.42
00.968,-12.41
00.984,-19.7
01.000,-35.48
01.015,-55.93
01.031,-76.87
01.046,-95.21
01.062,-109.56
01.078,-119.89
01.093,-126.56
01.109,-129.46
01.125,-128.09
01.140,-122.02
01.156,-111.68
01.171,-98.5
01.187,-84.57
01.203,-71.7
01.218,-60.77
01.234,-51.51
01.250,-42.86
01.265,-33.78
01.281,-23.9
01.296,-13.78
01.312,-4.65
01.328,2.16
01.343,5.92
01.359,6.75
01.375,5.58
01.390,3.67
01.406,2.03
01.421,1.05
01.437,0.47
01.453,-0.36
01.468,-2.02
01.484,-4.73
01.500,-8.21
01.515,-11.97
01.531,-15.56
01.546,-18.82
01.562,-21.92
01.578,-25.19
01.593,-28.97
01.609,-33.48
01.625,-38.79
01.640,-44.97
01.656,-52.02
01.671,-59.75
01.687,-67.57
01.703,-74.4
01.718,-78.85
01.734,-79.64
01.750,-76.04
01.765,-68.21
01.781,-57.19
01.796,-44.52
01.812,-31.74
01.828,-20.02
01.843,-9.96
01.859,-1.66
01.875,5.06
01.890,10.42
01.906,14.56
01.921,17.58
01.937,19.6
01.953,20.9
01.968,21.82
01.984,22.76
02.000,23.96
02.015,25.47
02.031,27.13
02.046,28.71
02.062,30.04
02.078,31.14
02.093,32.15
02.109,33.23
02.125,34.42
02.140,35.55
02.156,36.31
02.171,36.32
02.187,35.33
02.203,33.31
02.218,30.47
02.234,27.2
02.250,23.93
02.265,20.99
02.281,18.47
02.296,16.26
02.312,14.02
02.328,11.43
02.343,8.29
02.359,4.6
02.375,0.62
02.390,-3.29
02.406,-6.88
02.421,-10.14
02.437,-13.28
02.453,-16.72
02.468,-20.89
02.484,-26.02
02.500,-32.14
02.515,-38.98
02.531,-46.06
02.546,-52.68
02.562,-57.92
02.578,-60.75
02.593,-60.21
02.609,-55.68
02.625,-47.2
02.640,-35.55
02.656,-22.11
02.671,-8.51
02.687,3.9
02.703,14.27
02.718,22.37
02.734,28.34
02.750,32.46
02.765,34.96
02.781,35.96
02.796,35.69
02.812,34.49
02.828,32.94
02.843,31.62
02.859,31.0
02.875,31.18
02.890,31.95
02.906,32.87
02.921,33.47
02.937,33.54
02.953,33.1
02.968,32.45
02.984,31.92
03.000,31.73
03.015,31.83
03.031,31.91
03.046,31.58
03.062,30.5
03.078,28.59
03.093,26.06
03.109,23.35
03.125,20.89
03.140,18.95
03.156,17.53
03.171,16.31
03.187,14.92
03.203,13.02
03.218,10.54
03.234,7.71
03.250,4.95
03.265,2.74
03.281,1.37
03.296,0.79
03.312,0.64
03.328,0.38
03.343,-0.55
03.359,-2.5
03.375,-5.46
03.390,-9.0
03.406,-12.25
03.421,-14.05
03.437,-13.12
03.453,-8.39
03.468,0.73
03.484,14.05
03.500,30.7
03.515,49.22
03.531,68.02
03.546,85.79
03.562,101.8
03.578,115.97
03.593,128.78
03.609,140.9
03.625,152.79
03.640,164.22
03.656,174.05
03.671,180.39
03.687,181.2
03.703,175.07
03.718,161.94
03.734,143.41
03.750,122.24
03.765,101.64
03.781,84.21
03.796,71.41
03.812,63.44
03.828,59.67
03.843,59.19
03.859,61.18
03.875,65.01
03.890,70.03
03.906,75.31
03.921,79.72
03.937,82.22
03.953,82.29
03.968,80.22
03.984,76.81
04.000,72.83
04.015,68.4
04.031,62.7
04.046,54.48
04.062,42.91
04.078,28.43
04.093,12.77
04.109,-1.76
04.125,-13.4
04.140,-21.89
04.156,-28.48
04.171,-35.23
04.187,-43.8
04.203,-54.68
04.218,-67.08
04.234,-79.52
04.250,-90.61
04.265,-99.53
04.281,-106.17
04.296,-110.66
04.312,-113.1
04.328,-113.32
04.343,-111.01
04.359,-106.02
04.375,-98.63
04.390,-89.55
04.406,-79.75
04.421,-70.15
04.437,-61.27
04.453,-53.29
04.468,-46.13
04.484,-39.86
04.500,-34.76
04.515,-31.29
04.531,-29.87
04.546,-30.53
04.562,-32.91
04.578,-36.31
04.593,-40.04
04.609,-43.65
04.625,-47.09
04.640,-50.53
04.656,-54.15
04.671,-57.97
04.687,-61.68
04.703,-64.79
04.718,-66.65
04.734,-66.74
04.750,-64.82
04.765,-61.0
04.781,-55.75
04.796,-49.7
04.812,-43.54
04.828,-37.82
04.843,-32.93
04.859,-29.09
04.875,-26.39
04.890,-24.88
04.906,-24.53
04.921,-25.31
04.937,-27.07
04.953,-29.64
04.968,-32.84
04.984,-36.6
05.000,-40.96
05.015,-46.03
05.031,-51.78
05.046,-57.85
05.062,-63.38
05.078,-67.19
05.093,-68.07
05.109,-65.2
05.125,-58.52
05.140,-48.74
05.156,-37.09
05.171,-24.92
05.187,-13.31
05.203,-2.95
05.218,5.84
05.234,12.94
05.250,18.24
05.265,21.61
05.281,22.94
05.296,22.24
05.312,19.81
05.328,16.22
05.343,12.26
05.359,8.64
05.375,5.82
05.390,3.79
05.406,2.16
05.421,0.35
05.437,-2.1
05.453,-5.33
05.468,-9.13
05.484,-13.15
05.500,-17.14
05.515,-21.14
05.531,-25.42
05.546,-30.33
05.562,-36.05
05.578,-42.43
05.593,-49.03
05.609,-55.18
05.625,-60.3
05.640,-63.99
05.656,-66.33
05.671,-67.81
05.687,-69.2
05.703,-71.27
05.718,-74.47
05.734,-78.75
05.750,-83.63
05.765,-88.38
05.781,-92.33
05.796,-94.89
05.812,-95.6
05.828,-93.94
05.843,-89.3
05.859,-81.17
05.875,-69.39
05.890,-54.51
05.906,-37.8
05.921,-20.98
05.937,-5.79
05.953,6.6
05.968,15.75
05.984,22.0
06.000,26.11
06.015,28.88
06.031,30.96
06.046,32.67
06.062,34.12
06.078,35.31
06.093,36.22
06.109,36.98
06.125,37.85
06.140,39.24
06.156,41.56
06.171,45.08
06.187,49.77
06.203,55.27
06.218,60.99
06.234,66.2
06.250,70.26
06.265,72.74
06.281,73.31
06.296,71.78
06.312,68.08
06.328,62.27
06.343,54.68
06.359,45.98
06.375,37.04
06.390,28.73
06.406,21.65
06.421,15.94
06.437,11.35
06.453,7.48
06.468,3.98
06.484,0.77
06.500,-2.08
06.515,-4.48
06.531,-6.6
06.546,-8.92
06.562,-12.15
06.578,-16.92
06.593,-23.5
06.609,-31.67
06.625,-40.66
06.640,-49.44
06.656,-56.93
06.671,-62.31
06.687,-65.12
06.703,-65.22
06.718,-62.69
06.734,-57.8
06.750,-50.91
06.765,-42.48
06.781,-33.13
06.796,-23.57
06.812,-14.42
06.828,-6.14
06.843,1.17
06.859,7.58
06.875,13.27
06.890,18.32
06.906,22.58
06.921,25.77
06.937,27.7
06.953,28.43
06.968,28.42
06.984,28.41
07.000,29.1
07.015,30.9
07.031,33.75
07.046,37.21
07.062,40.73
07.078,43.98
07.093,47.07
07.109,50.37
07.125,54.19
07.140,58.43
07.156,62.52
07.171,65.54
07.187,66.59
07.203,65.14
07.218,60.99
07.234,54.13
07.250,44.54
07.265,32.23
07.281,17.4
07.296,0.84
07.312,-16.11
07.328,-31.89
07.343,-45.38
07.359,-56.3
07.375,-65.23
07.390,-73.01
07.406,-80.05
07.421,-85.9
07.437,-89.43
07.453,-89.49
07.468,-85.59
07.484,-78.21
07.500,-68.53
07.515,-57.86
07.531,-47.23
07.546,-37.19
07.562,-28.01
07.578,-19.91
07.593,-13.18
07.609,-7.99
07.625,-4.19
07.640,-1.37
07.656,1.08
07.671,3.53
07.687,6.01
07.703,8.25
07.718,9.85
07.734,10.55
07.750,10.29
07.765,9.24
07.781,7.64
07.796,5.84
07.812,4.3
07.828,3.65
07.843,4.64
07.859,7.87
07.875,13.52
07.890,21.15
07.906,29.72
07.921,37.93
07.937,44.55
07.953,48.84
07.968,50.62
07.984,50.18
08.000,47.93
08.015,44.14
08.031,38.74
08.046,31.35
08.062,21.55
08.078,9.08
08.093,-5.81
08.109,-22.3
08.125,-39.06
08.140,-54.57
08.156,-67.29
08.171,-76.02
08.187,-80.05
08.203,-79.13
08.218,-73.52
08.234,-63.96
08.250,-51.58
08.265,-37.8
08.281,-24.15
08.296,-11.94
08.312,-2.14
08.328,4.87
08.343,9.25
08.359,11.52
08.375,12.41
08.390,12.66
08.406,12.85
08.421,13.41
08.437,14.57
08.453,16.33
08.468,18.55
08.484,21.05
08.500,23.62
08.515,26.11
08.531,28.38
08.546,30.27
08.562,31.52
08.578,31.82
08.593,30.88
08.609,28.51
08.625,24.69
08.640,19.35
08.656,12.27
08.671,3.13
08.687,-8.49
08.703,-22.86
08.718,-39.79
08.734,-58.71
08.750,-78.91
08.765,-99.96
08.781,-121.82
08.796,-144.81
08.812,-168.97
08.828,-193.46
08.843,-216.17
08.859,-234.16
08.875,-244.64
08.890,-245.99
08.906,-238.4
08.921,-223.61
08.937,-204.18
08.953,-182.61
08.968,-160.84
08.984,-140.28
09.000,-122.24
09.015,-107.96
09.031,-98.34
09.046,-93.4
09.062,-91.72
09.078,-90.61
09.093,-86.88
09.109,-77.93
09.125,-62.64
09.140,-41.58
09.156,-16.55
09.171,10.44
09.187,37.82
09.203,64.58
09.218,90.08
09.234,113.38
09.250,133.1
09.265,147.7
09.281,156.28
09.296,159.34
09.312,158.73
09.328,156.87
09.343,155.47
09.359,154.57
09.375,152.39
09.390,146.32
09.406,134.38
09.421,116.62
09.437,95.74
09.453,76.52
09.468,64.45
09.484,63.86
09.500,76.49
09.515,100.69
09.531,131.91
09.546,163.97
09.562,190.89
09.578,208.43
09.593,214.98
09.609,211.72
09.625,201.96
09.640,190.17
09.656,180.83
09.671,177.5
09.687,181.92
09.703,193.7
09.718,210.36
09.734,228.08
09.750,242.88
09.765,251.81
09.781,253.63
09.796,248.91
09.812,239.33
09.828,227.02
09.843,213.93
09.859,201.58
09.875,190.96
09.890,182.39
09.906,175.49
09.921,169.1
09.937,161.46
09.953,150.69
09.968,135.46
09.984,115.41
10.000,91.41
10.015,65.48
10.031,40.49
10.046,19.8
10.062,6.65
10.078,3.55
10.093,11.56
10.109,29.87
10.125,55.54
10.140,84.0
10.156,109.85
10.171,127.96
10.187,134.49
10.203,127.62
10.218,107.78
10.234,77.43
10.250,40.4
10.265,0.95
10.281,-37.21
10.296,-71.55
10.312,-101.02
10.328,-125.66
10.343,-145.99
10.359,-162.3
10.375,-174.43
10.390,-181.84
10.406,-184.05
10.421,-180.96
10.437,-173.07
10.453,-161.39
10.468,-147.28
10.484,-132.19
10.500,-117.46
10.515,-104.26
10.531,-93.38
10.546,-85.13
10.562,-79.26
10.578,-74.97
10.593,-71.18
10.609,-66.95
10.625,-61.9
10.640,-56.45
10.656,-51.55
10.671,-48.18
10.687,-46.63
10.703,-46.08
10.718,-44.81
10.734,-40.96
10.750,-33.39
10.765,-22.36
10.781,-9.51
10.796,2.68
10.812,11.49
10.828,14.49
10.843,9.72
10.859,-4.24
10.875,-28.14
10.890,-61.78
10.906,-104.03
10.921,-153.09
10.937,-207.38
10.953,-266.01
10.968,-328.63
10.984,-394.07
11.000,-458.88
11.015,-516.55
11.031,-558.65
11.046,-577.59
11.062,-569.7
11.078,-536.84
11.093,-485.82
11.109,-425.54
11.125,-363.82
11.140,-305.15
11.156,-250.49
11.171,-198.64
11.187,-148.13
11.203,-98.4
11.218,-50.04
11.234,-4.25
11.250,37.7
11.265,74.76
11.281,106.03
11.296,130.84
11.312,148.9
11.328,160.41
11.343,166.19
11.359,167.48
11.375,165.68
11.390,162.21
11.406,158.32
11.421,155.05
11.437,153.1
11.453,152.55
11.468,152.73
11.484,152.4
11.500,150.28
11.515,145.58
11.531,138.46
11.546,129.94
11.562,121.41
11.578,114.08
11.593,108.45
11.609,104.21
11.625,100.59
11.640,96.82
11.656,92.47
11.671,87.57
11.687,82.51
11.703,77.7
11.718,73.45
11.734,70.01
11.750,67.59
11.765,66.39
11.781,66.4
11.796,67.16
11.812,67.64
11.828,66.46
11.843,62.35
11.859,54.73
11.875,43.93
11.890,31.11
11.906,17.87
11.921,5.71
11.937,-4.19
11.953,-11.04
11.968,-14.46
11.984,-14.41
12.000,-11.35
12.015,-6.17
12.031,-0.05
12.046,6.01
12.062,11.51
12.078,16.61
12.093,21.77
12.109,27.35
12.125,33.19
12.140,38.61
12.156,42.8
12.171,45.24
12.187,46.06
12.203,45.87
12.218,45.31
12.234,44.66
12.250,43.73
12.265,42.04
12.281,39.23
12.296,35.4
12.312,31.08
12.328,27.03
12.343,23.73
12.359,21.24
12.375,19.13
12.390,16.8
12.406,13.8
12.421,10.07
12.437,5.99
12.453,2.17
12.468,-0.81
12.484,-2.71
12.500,-3.67
12.515,-4.11
12.531,-4.5
12.546,-5.08
12.562,-5.82
12.578,-6.49
12.593,-6.82
12.609,-6.72
12.625,-6.29
12.640,-5.79
12.656,-5.49
12.671,-5.72
12.687,-6.72
12.703,-8.74
12.718,-11.84
12.734,-15.86
12.750,-20.2
12.765,-23.96
12.781,-26.11
12.796,-25.82
12.812,-22.84
12.828,-17.46
12.843,-10.43
12.859,-2.64
12.875,5.17
12.890,12.62
12.906,19.63
12.921,26.28
12.937,32.59
12.953,38.44
12.968,43.54
12.984,47.67
13.000,50.81
13.015,53.21
13.031,55.31
13.046,57.5
13.062,59.95
13.078,62.51
13.093,64.8
13.109,66.43
13.125,67.18
13.140,67.09
13.156,66.43
13.171,65.47
13.187,64.31
13.203,62.77
13.218,60.47
13.234,56.99
13.250,52.13
13.265,45.93
13.281,38.66
13.296,30.65
13.312,22.16
13.328,13.35
13.343,4.3
13.359,-4.72
13.375,-13.29
13.390,-20.89
13.406,-27.11
13.421,-31.98
13.437,-35.94
13.453,-39.72
13.468,-43.97
13.484,-48.89
13.500,-54.13
13.515,-58.9
13.531,-62.3
13.546,-63.57
13.562,-62.33
13.578,-58.51
13.593,-52.31
13.609,-44.07
13.625,-34.35
13.640,-23.92
13.656,-13.77
13.671,-5.0
13.687,1.5
13.703,5.29
13.718,6.57
13.734,6.18
13.750,5.44
13.765,5.76
13.781,8.3
13.796,13.61
13.812,21.48
13.828,31.01
13.843,40.9
13.859,49.88
13.875,57.09
13.890,62.22
13.906,65.48
13.921,67.32
13.937,68.22
13.953,68.5
13.968,68.38
13.984,67.99
14.000,67.57
14.015,67.42
14.031,67.81
14.046,68.82
14.062,70.23
14.078,71.61
14.093,72.43
14.109,72.27
14.125,71.01
14.140,68.89
14.156,66.43
14.171,64.17
14.187,62.6
14.203,61.96
14.218,62.3
14.234,63.54
14.250,65.52
14.265,68.0
14.281,70.81
14.296,73.89
14.312,77.37
14.328,81.43
14.343,86.08
14.359,90.87
14.375,94.81
14.390,96.62
14.406,95.24
14.421,90.42
14.437,82.89
14.453,74.1
14.468,65.67
14.484,58.69
14.500,53.54
14.515,49.95
14.531,47.19
14.546,44.38
14.562,40.58
14.578,34.99
14.593,27.29
14.609,17.95
14.625,8.26
14.640,-0.19
14.656,-6.31
14.671,-10.13
14.687,-12.73
14.703,-15.45
14.718,-18.79
14.734,-21.96
14.750,-23.16
14.765,-20.78
14.781,-14.43
14.796,-5.29
14.812,4.41
14.828,12.39
14.843,17.09
14.859,17.86
14.875,14.62
14.890,7.59
14.906,-2.84
14.921,-15.87
14.937,-29.99
14.953,-43.13
14.968,-52.98
14.984,-57.62
15.000,-55.9
15.015,-47.65
15.031,-33.63
15.046,-15.35
15.062,5.0
15.078,24.82
15.093,41.46
15.109,52.73
15.125,57.36
15.140,55.16
15.156,47.0
15.171,34.49
15.187,19.46
15.203,3.64
15.218,-11.57
15.234,-25.16
15.250,-36.51
15.265,-45.34
15.281,-51.93
15.296,-56.94
15.312,-61.28
15.328,-65.43
15.343,-68.91
15.359,-70.06
15.375,-66.38
15.390,-55.56
15.406,-36.72
15.421,-11.2
15.437,17.57
15.453,45.18
15.468,67.65
15.484,82.67
15.500,89.75
15.515,89.73
15.531,83.61
15.546,72.03
15.562,55.29
15.578,34.13
15.593,10.56
15.609,-12.05
15.625,-29.61
15.640,-38.86
15.656,-38.68
15.671,-30.68
15.687,-18.63
15.703,-7.09
15.718,0.12
15.734,0.77
15.750,-5.47
15.765,-17.31
15.781,-32.52
15.796,-48.59
15.812,-63.66
15.828,-77.18
15.843,-90.33
15.859,-105.68
15.875,-125.88
15.890,-152.11
15.906,-182.91
15.921,-214.25
15.937,-241.03
15.953,-259.03
15.968,-266.53
15.984,-264.51
16.000,-255.67
16.015,-242.87
16.031,-228.1
16.046,-212.35
16.062,-196.16
16.078,-180.29
16.093,-165.78
16.109,-153.62
16.125,-144.09
16.140,-136.6
16.156,-129.82
16.171,-122.38
16.187,-113.46
16.203,-103.14
16.218,-92.29
16.234,-82.15
16.250,-73.87
16.265,-68.02
16.281,-64.45
16.296,-62.34
16.312,-60.51
16.328,-57.83
16.343,-53.47
16.359,-47.18
16.375,-39.2
16.390,-30.19
16.406,-20.93
16.421,-12.26
16.437,-4.87
16.453,0.66
16.468,4.08
16.484,5.55
16.500,5.78
16.515,6.02
16.531,7.9
16.546,12.99
16.562,22.14
16.578,34.95
16.593,49.59
16.609,63.21
16.625,72.9
16.640,76.74
16.656,74.57
16.671,67.98
16.687,59.58
16.703,51.96
16.718,46.78
16.734,44.36
16.750,43.96
16.765,44.27
16.781,44.03
16.796,42.5
16.812,39.72
16.828,36.52
16.843,34.31
16.859,34.58
16.875,38.27
16.890,45.25
16.906,54.09
16.921,62.52
16.937,68.13
16.953,69.22
16.968,65.32
16.984,57.13
17.000,46.18
17.015,34.1
17.031,22.23
17.046,11.59
17.062,3.11
17.078,-2.22
17.093,-3.41
17.109,0.32
17.125,9.05
17.140,21.95
17.156,37.14
17.171,51.91
17.187,63.18
17.203,68.11
17.218,64.89
17.234,53.22
17.250,34.48
17.265,11.42
17.281,-12.66
17.296,-34.84
17.312,-53.38
17.328,-67.87
17.343,-78.93
17.359,-87.47
17.375,-94.01
17.390,-98.56
17.406,-100.78
17.421,-100.61
17.437,-98.57
17.453,-95.81
17.468,-93.8
17.484,-93.77
17.500,-96.4
17.515,-101.63
17.531,-109.03
17.546,-118.02
17.562,-128.12
17.578,-138.82
17.593,-149.44
17.609,-158.82
17.625,-165.65
17.640,-168.9
17.656,-168.45
17.671,-165.23
17.687,-160.83
17.703,-156.58
17.718,-152.64
17.734,-147.76
17.750,-139.78
17.765,-126.64
17.781,-107.4
17.796,-82.56
17.812,-53.88
17.828,-23.72
17.843,5.62
17.859,32.19
17.875,54.52
17.890,71.67
17.906,83.28
17.921,89.74
17.937,92.2
17.953,92.29
17.968,91.7
17.984,91.71
18.000,92.9
18.015,95.2
18.031,98.08
18.046,100.81
18.062,102.68
18.078,103.07
18.093,101.64
18.109,98.41
18.125,93.73
18.140,88.03
18.156,81.53
18.171,74.15
18.187,65.53
18.203,55.41
18.218,43.93
18.234,31.73
18.250,19.82
18.265,9.08
18.296,-7.43
18.312,-13.39
18.328,-17.79
18.343,-19.98
18.359,-18.94
18.375,-13.93
18.390,-5.17
18.406,5.71
18.421,16.09
18.437,23.24
18.453,25.47
18.468,22.85
18.484,17.12
18.500,10.87
18.515,6.26
18.531,4.15
18.546,3.88
18.562,3.97
18.578,2.94
18.593,0.06
18.609,-4.71
18.625,-11.0
18.640,-18.25
18.656,-25.61
18.671,-31.64
18.687,-34.27
18.703,-31.41
18.718,-22.07
18.734,-7.35
18.750,9.4
18.765,23.61
18.781,31.33
18.796,30.87
18.812,23.36
18.828,12.01
18.843,0.5
18.859,-8.43
18.875,-13.64
18.890,-15.17
18.906,-13.47
18.921,-8.8
18.937,-1.3
18.953,8.57
18.968,19.61
18.984,30.04
19.000,38.03
19.015,42.64
19.031,44.23
19.046,44.28
19.062,44.65
19.078,46.61
19.093,50.35
19.109,54.95
19.125,59.0
19.140,61.15
19.156,60.73
19.171,57.87
19.187,53.51
19.203,49.06
19.218,45.76
19.234,44.09
19.250,43.26
19.265,41.41
19.281,36.3
19.296,26.44
19.312,11.94
19.328,-5.48
19.343,-23.17
19.359,-38.7
19.375,-50.68
19.390,-59.02
19.406,-64.42
19.421,-67.93
19.437,-70.5
19.453,-73.16
19.468,-77.27
19.484,-84.33
19.500,-95.43
19.515,-110.24
19.531,-126.3
19.546,-139.02
19.562,-142.92
19.578,-133.49
19.593,-109.15
19.609,-72.41
19.625,-29.36
19.640,12.26
19.656,45.66
19.671,67.23
19.687,77.18
19.703,78.54
19.718,75.27
19.734,70.39
19.750,65.16
19.765,59.44
19.781,52.75
19.796,45.29
19.812,38.24
19.828,33.42
19.843,32.54
19.859,36.59
19.875,45.44
19.890,57.82
19.906,71.7
19.921,84.79
19.937,95.27
19.953,102.34
19.968,106.24
19.984,107.77
20.000,107.68
20.015,106.29
20.031,103.6
20.046,99.68
20.062,94.97
20.078,90.0
20.093,84.75
20.109,78.17
20.125,68.41
20.140,53.89
20.156,34.48
20.171,12.12
20.187,-9.74
20.203,-27.5
20.218,-38.88
20.234,-43.62
20.250,-43.11
20.265,-39.31
20.281,-33.86
20.296,-27.87
20.312,-22.14
20.328,-17.65
20.343,-15.57
20.359,-16.74
20.375,-21.17
20.390,-27.76
20.406,-34.72
20.421,-40.43
20.437,-44.21
20.453,-46.64
20.468,-49.23
20.484,-53.63
20.500,-60.74
20.515,-70.32
20.531,-80.96
20.546,-90.49
20.562,-96.56
20.578,-97.27
20.593,-91.67
20.609,-80.33
20.625,-65.34
20.640,-50.12
20.656,-38.48
20.671,-33.31
20.687,-35.52
20.703,-43.63
20.718,-54.3
20.734,-63.51
20.750,-68.08
20.765,-66.5
20.781,-59.17
20.796,-47.72
20.812,-34.3
20.828,-20.81
20.843,-8.71
20.859,0.89
20.875,7.09
20.890,9.31
20.906,7.47
20.921,2.25
20.937,-4.81
20.953,-11.68
20.968,-16.6
20.984,-18.72
21.000,-18.56
21.015,-17.66
21.031,-17.83
21.046,-20.2
21.062,-24.56
21.078,-29.45
21.093,-32.89
21.109,-33.35
21.125,-30.43
21.140,-25.02
21.156,-18.87
21.171,-13.72
21.187,-10.62
21.203,-9.62
21.218,-9.76
21.234,-9.55
21.250,-7.35
21.265,-1.86
21.281,7.69
21.296,21.26
21.312,38.07
21.328,56.91
21.343,76.51
21.359,96.25
21.375,116.87
21.390,140.91
21.406,172.01
21.421,213.04
21.437,263.69
21.453,319.0
21.468,369.66
21.484,404.81
21.500,415.88
21.515,399.45
21.531,357.88
21.546,297.52
21.562,225.77
21.578,149.08
21.593,72.73
21.609,1.94
21.625,-57.3
21.640,-98.93
21.656,-119.07
21.671,-118.34
21.687,-102.44
21.703,-80.45
21.718,-61.37
21.734,-50.93
21.750,-50.3
21.765,-56.89
21.781,-66.55
21.796,-75.81
21.812,-82.88
21.828,-87.23
21.843,-88.66
21.859,-86.56
21.875,-80.19
21.890,-69.66
21.906,-56.7
21.921,-44.85
21.937,-38.3
21.953,-40.09
21.968,-50.69
21.984,-67.57
22.000,-86.29
22.015,-102.41
22.031,-113.31
22.046,-118.73
22.062,-120.23
22.078,-119.72
22.093,-118.25
22.109,-115.5
22.125,-110.34
22.140,-101.71
22.156,-89.42
22.171,-74.33
22.187,-57.88
22.203,-41.43
22.218,-25.89
22.234,-11.71
22.250,0.86
22.265,11.44
22.281,19.47
22.296,24.43
22.312,26.07
22.328,24.54
22.343,20.3
22.359,14.03
22.375,6.5
22.390,-1.52
22.406,-9.26
22.421,-16.12
22.437,-21.78
22.453,-26.31
22.468,-30.01
22.484,-33.15
22.500,-35.75
22.515,-37.52
22.531,-37.93
22.546,-36.37
22.562,-32.23
22.578,-25.03
22.593,-14.75
22.609,-2.04
22.625,11.56
22.640,23.98
22.656,33.34
22.671,38.68
22.687,40.26
22.703,39.18
22.718,36.47
22.734,32.38
22.750,26.36
22.765,17.77
22.781,6.84
22.796,-4.92
22.812,-15.09
22.828,-21.39
22.843,-22.63
22.859,-19.09
22.875,-12.17
22.890,-3.6
22.906,5.14
22.921,13.14
22.937,20.08
22.953,25.97
22.968,31.0
22.984,35.29
23.000,38.72
23.015,40.87
23.031,41.23
23.046,39.45
23.062,35.74
23.078,31.05
23.093,26.89
23.109,24.88
23.125,26.15
23.140,30.99
23.156,38.72
23.171,47.88
23.187,56.58
23.203,63.02
23.218,65.85
23.234,64.66
23.250,60.02
23.265,53.36
23.281,46.47
23.296,40.93
23.312,37.66
23.328,36.8
23.343,37.89
23.359,40.11
23.375,42.66
23.390,44.84
23.406,46.0
23.421,45.46
23.437,42.54
23.453,36.67
23.468,27.72
23.484,16.2
23.500,3.2
23.515,-9.82
23.531,-21.38
23.546,-30.33
23.562,-36.14
23.578,-38.99
23.593,-39.92
23.609,-40.57
23.625,-42.8
23.640,-48.03
23.656,-56.56
23.671,-67.23
23.687,-77.64
23.703,-85.08
23.718,-87.52
23.734,-84.33
23.750,-76.22
23.765,-64.66
23.781,-51.22
23.796,-37.33
23.812,-23.97
23.828,-11.44
23.843,0.8
23.859,13.98
23.875,29.2
23.890,46.33
23.906,63.3
23.921,76.56
23.937,82.73
23.953,80.69
23.968,72.67
23.984,63.36
24.000,57.49
24.015,57.08
24.031,60.0
24.046,60.91
24.062,54.25
24.078,37.67
24.093,13.84
24.109,-10.43
24.125,-27.42
24.140,-32.34
24.156,-25.68
24.171,-12.73
24.187,-0.61
24.203,5.49
24.218,4.94
24.234,1.32
24.250,-0.41
24.265,2.7
24.281,9.81
24.296,16.65
24.312,18.54
24.328,13.62
24.343,4.28
24.359,-3.98
24.375,-5.87
24.390,0.27
24.406,11.3
24.421,20.68
24.437,21.75
24.453,11.35
24.468,-8.43
24.484,-31.1
24.500,-48.73
24.515,-55.48
24.531,-49.76
24.546,-34.18
24.562,-13.55
24.578,7.68
24.593,27.12
24.609,44.65
24.625,61.39
24.640,78.31
24.656,95.45
24.671,111.82
24.687,125.88
24.703,135.93
24.718,140.51
24.734,138.55
24.750,129.51
24.765,113.55
24.781,91.94
24.796,67.09
24.812,42.21
24.828,20.52
24.843,4.25
24.859,-5.98
24.875,-11.09
24.890,-13.01
24.906,-13.66
24.921,-14.27
24.937,-15.14
24.953,-15.87
24.968,-15.95
24.984,-15.14
25.000,-13.57
25.015,-11.68
25.031,-9.91
25.046,-8.57
25.062,-7.74
25.078,-7.45
25.093,-7.68
25.109,-8.43
25.125,-9.58
25.140,-10.75
25.156,-11.26
25.171,-10.3
25.187,-7.26
25.203,-2.15
25.218,4.19
25.234,10.24
25.250,14.39
25.265,15.66
25.281,14.2
25.296,11.28
25.312,8.8
25.328,8.38
25.343,10.78
25.359,15.58
25.375,21.56
25.390,27.37
25.406,32.09
25.421,35.34
25.437,37.02
25.453,36.95
25.468,34.87
25.484,30.92
25.500,26.35
25.515,23.64
25.531,26.02
25.546,36.06
25.562,54.43
25.578,79.29
25.593,106.85
25.609,132.59
25.625,152.83
25.640,165.48
25.656,170.17
25.671,167.56
25.687,158.73
25.703,144.86
25.718,127.23
25.734,107.3
25.750,86.72
25.765,66.88
25.781,48.58
25.796,31.86
25.812,16.27
25.828,1.23
25.843,-13.42
25.859,-27.26
25.875,-39.42
25.890,-48.89
25.906,-54.93
25.921,-57.36
25.937,-56.53
25.953,-53.16
25.968,-48.19
25.984,-42.75
26.000,-38.04
26.015,-35.4
26.031,-35.97
26.046,-40.24
26.062,-47.77
26.078,-57.0
26.093,-65.68
26.109,-71.48
26.125,-72.69
26.140,-68.57
26.156,-59.35
26.171,-45.91
26.187,-29.49
26.203,-11.44
26.218,6.68
26.234,23.3
26.250,36.98
26.265,46.82
26.281,52.72
26.296,55.41
26.312,56.07
26.328,55.95
26.343,55.99
26.359,56.76
26.375,58.65
26.390,62.03
26.406,67.15
26.421,73.9
26.437,81.54
26.453,88.64
26.468,93.44
26.484,94.37
26.500,90.46
26.515,81.39
26.531,67.39
26.546,48.94
26.562,26.78
26.578,1.98
26.593,-23.98
26.609,-49.31
26.625,-72.44
26.640,-92.27
26.656,-108.45
26.671,-121.08
26.687,-130.34
26.703,-136.11
26.718,-137.96
26.734,-135.45
26.750,-128.5
26.765,-117.81
26.781,-104.69
26.796,-90.75
26.812,-77.47
26.828,-65.83
26.843,-56.1
26.859,-48.01
26.875,-41.0
26.890,-34.54
26.906,-28.41
26.921,-22.83
26.937,-18.3
26.953,-15.31
26.968,-14.14
26.984,-14.65
27.000,-16.4
27.015,-18.81
27.031,-21.35
27.046,-23.64
27.062,-25.35
27.078,-26.22
27.093,-26.04
27.109,-24.73
27.125,-22.45
27.140,-19.64
27.156,-16.98
27.171,-15.24
27.187,-14.98
27.203,-16.56
27.218,-19.9
27.234,-24.58
27.250,-29.92
27.265,-35.12
27.281,-39.43
27.296,-42.31
27.312,-43.47
27.328,-42.97
27.343,-41.14
27.359,-38.45
27.375,-35.43
27.390,-32.52
27.406,-30.08
27.421,-28.28
27.437,-27.19
27.453,-26.72
27.468,-26.65
27.484,-26.68
27.500,-26.51
27.515,-25.98
27.531,-25.1
27.546,-24.02
27.562,-22.94
27.578,-22.02
27.593,-21.31
27.609,-20.79
27.625,-20.4
27.640,-20.07
27.656,-19.79
27.671,-19.59
27.687,-19.47
27.703,-19.48
27.718,-19.71
27.734,-20.23
27.750,-21.13
27.765,-22.4
27.781,-24.02
27.796,-25.88
27.812,-27.91
27.828,-30.01
27.843,-32.15
27.859,-34.27
27.875,-36.37
27.890,-38.48
27.906,-40.71
27.921,-43.19
27.937,-45.87
27.953,-48.38
27.968,-49.98
27.984,-49.66
28.000,-46.52
28.015,-40.07
28.031,-30.43
28.046,-18.42
28.062,-5.21
28.078,7.89
28.093,19.73
28.109,29.38
28.125,36.2
28.140,40.0
28.156,41.08
28.171,40.38
28.187,39.24
28.203,39.0
28.218,40.56
28.234,44.01
28.250,48.81
28.265,54.09
28.281,59.13
28.296,63.56
28.312,67.3
28.328,70.22
28.343,71.97
28.359,71.96
28.375,69.7
28.390,65.1
28.406,58.63
28.421,51.14
28.437,43.47
28.453,36.12
28.468,29.09
28.484,22.06
28.500,14.64
28.515,6.53
28.531,-2.25
28.546,-11.57
28.562,-21.25
28.578,-31.19
28.593,-41.32
28.609,-51.42
28.625,-61.02
28.640,-69.29
28.656,-75.22
28.671,-77.87
28.687,-76.75
28.703,-72.01
28.718,-64.42
28.734,-55.18
28.750,-45.48
28.765,-36.28
28.781,-28.16
28.796,-21.36
28.812,-15.98
28.828,-12.09
28.843,-9.74
28.859,-8.9
28.875,-9.41
28.890,-10.93
28.906,-13.06
28.921,-15.42
28.937,-17.72
28.953,-19.84
28.968,-21.66
28.984,-23.12
29.000,-24.12
29.015,-24.66
29.031,-24.87
29.046,-25.06
29.062,-25.66
29.078,-27.07
29.093,-29.43
29.109,-32.55
29.125,-35.93
29.140,-38.89
29.156,-40.85
29.171,-41.54
29.187,-41.13
29.203,-40.21
29.218,-39.57
29.234,-39.89
29.250,-41.43
29.265,-43.83
29.281,-46.19
29.296,-47.27
29.312,-46.03
29.328,-41.92
29.343,-35.15
29.359,-26.63
29.375,-17.58
29.390,-9.09
29.406,-1.66
29.421,4.88
29.437,11.2
29.453,18.06
29.468,25.87
29.484,34.48
29.500,43.33
29.515,51.68
29.531,59.03
29.546,65.29
29.562,70.65
29.578,75.33
29.593,79.32
29.609,82.43
29.625,84.36
29.640,85.07
29.656,84.78
29.671,83.87
29.687,82.5
29.703,80.36
29.718,76.58
29.734,70.17
29.750,60.47
29.765,47.62
29.781,32.62
29.796,17.05
29.812,2.52
29.828,-9.88
29.843,-19.77
29.859,-27.43
29.875,-33.53
29.890,-38.67
29.906,-43.24
29.921,-47.25
29.937,-50.5
29.953,-52.57
29.968,-53.02
29.984,-51.37
30.000,-47.22
30.015,-40.35
30.031,-30.85
30.046,-19.25
30.062,-6.56
30.078,6.01
30.093,17.27
30.109,26.41
30.125,33.15
30.140,37.59
30.156,39.99
30.171,40.43
30.187,38.67
30.203,34.3
30.218,26.97
30.234,16.71
30.250,4.16
30.265,-9.6
30.281,-23.22
30.296,-35.59
30.312,-46.04
30.328,-54.43
30.343,-60.96
30.359,-65.87
30.375,-69.27
30.390,-71.04
30.406,-71.02
30.421,-69.24
30.437,-66.06
30.453,-62.13
30.468,-58.14
30.484,-54.67
30.500,-52.02
30.515,-50.28
30.531,-49.54
30.546,-49.97
30.562,-51.78
30.578,-55.01
30.593,-59.26
30.609,-63.62
30.625,-66.72
30.640,-67.21
30.656,-64.11
30.671,-57.26
30.687,-47.31
30.703,-35.51
30.718,-23.28
30.734,-11.78
30.750,-1.68
30.765,6.87
30.781,14.06
30.796,20.16
30.812,25.39
30.828,29.94
30.843,33.9
30.859,37.31
30.875,40.09
30.890,42.06
30.906,43.0
30.921,42.71
30.937,41.18
30.953,38.49
30.968,34.85
30.984,30.52
31.000,25.74
31.015,20.94
31.031,16.61
31.046,13.34
31.062,11.53
31.078,11.2
31.093,11.84
31.109,12.57
31.125,12.43
31.140,10.73
31.156,7.2
31.171,2.06
31.187,-4.09
31.203,-10.37
31.218,-15.67
31.234,-18.82
31.250,-18.69
31.265,-14.65
31.281,-6.89
31.296,3.36
31.312,14.1
31.328,23.14
31.343,28.82
31.359,30.52
31.375,28.75
31.390,24.77
31.406,20.06
31.421,15.78
31.437,12.57
31.453,10.45
31.468,8.99
31.484,7.37
31.500,4.64
31.515,-0.12
31.531,-7.53
31.546,-17.69
31.562,-30.09
31.578,-43.66
31.593,-57.04
31.609,-68.68
31.625,-77.18
31.640,-81.41
31.656,-80.81
31.671,-75.59
31.687,-66.88
31.703,-56.55
31.718,-46.8
31.734,-39.53
31.750,-35.76
31.765,-35.37
31.781,-37.27
31.796,-39.88
31.812,-41.71
31.828,-41.76
31.843,-39.73
31.859,-35.9
31.875,-31.03
31.890,-25.99
31.906,-21.47
31.921,-17.71
31.937,-14.39
31.953,-10.68
31.968,-5.64
31.984,1.34
32.000,10.13
32.015,19.77
32.031,28.77
32.046,35.68
32.062,39.61
32.078,40.49
32.093,38.98
32.109,36.09
32.125,32.7
32.140,29.36
32.156,26.25
32.171,23.39
32.187,20.76
32.203,18.48
32.218,16.57
32.234,14.98
32.250,13.4
32.265,11.33
32.281,8.28
32.296,3.93
32.312,-1.74
32.328,-8.4
32.343,-15.54
32.359,-22.64
32.375,-29.16
32.390,-34.63
32.406,-38.51
32.421,-40.18
32.437,-39.0
32.453,-34.4
32.468,-26.09
32.484,-14.08
32.500,1.22
32.515,19.05
32.531,38.33
32.546,57.62
32.562,75.22
32.578,89.48
32.593,99.11
32.609,103.65
32.625,103.66
32.640,100.61
32.656,96.38
32.671,92.61
32.687,90.15
32.703,88.8
32.718,87.53
32.734,84.97
32.750,79.97
32.765,72.05
32.781,61.41
32.796,48.85
32.812,35.36
32.828,21.79
32.843,8.53
32.859,-4.5
32.875,-17.61
32.890,-31.02
32.906,-44.44
32.921,-56.99
32.937,-67.28
32.953,-73.84
32.968,-75.56
32.984,-71.9
33.000,-62.87
33.015,-48.85
33.031,-30.51
33.046,-8.84
33.062,14.75
33.078,38.46
33.093,60.45
33.109,79.32
33.125,94.55
33.140,106.6
33.156,116.44
33.171,125.01
33.187,132.66
33.203,139.04
33.218,143.4
33.234,145.15
33.250,144.24
33.265,141.26
33.281,137.25
33.296,133.32
33.312,130.22
33.328,127.95
33.343,125.63
33.359,121.56
33.375,113.78
33.390,100.83
33.406,82.51
33.421,60.13
33.437,36.35
33.453,14.28
33.468,-3.44
33.484,-15.38
33.500,-21.6
33.515,-23.25
33.531,-21.95
33.546,-19.33
33.562,-16.65
33.578,-14.84
33.593,-14.56
33.609,-16.01
33.625,-18.8
33.640,-21.77
33.656,-23.13
33.671,-21.09
33.687,-14.61
33.703,-4.01
33.718,9.07
33.734,22.63
33.750,35.34
33.765,47.24
33.781,59.17
33.796,71.48
33.812,82.67
33.828,89.06
33.843,85.98
33.859,69.7
33.875,39.07
33.890,-4.19
33.906,-56.41
33.921,-113.29
33.937,-170.63
33.953,-224.16
33.968,-269.11
33.984,-300.25
34.000,-313.12
34.015,-305.89
34.031,-280.59
34.046,-242.94
34.062,-200.54
34.078,-160.37
34.093,-126.84
34.109,-101.21
34.125,-82.38
34.140,-68.39
34.156,-57.66
34.171,-49.55
34.187,-44.05
34.203,-41.12
34.218,-40.27
34.234,-40.34
34.250,-39.86
34.265,-37.54
34.281,-32.77
34.296,-25.72
34.312,-17.13
34.328,-7.91
34.343,1.28
34.359,10.12
34.375,18.54
34.390,26.42
34.406,33.38
34.421,38.75
34.437,41.8
34.453,42.08
34.468,39.67
34.484,35.25
34.500,29.88
34.515,24.66
34.531,20.33
34.546,17.1
34.562,14.62
34.578,12.23
34.593,9.29
34.609,5.42
34.625,0.58
34.640,-4.95
34.656,-10.82
34.671,-16.77
34.687,-22.75
34.703,-28.81
34.718,-34.99
34.734,-41.14
34.750,-46.88
34.765,-51.74
34.781,-55.38
34.796,-57.74
34.812,-59.0
34.828,-59.44
34.843,-59.12
34.859,-57.73
34.875,-54.65
34.890,-49.22
34.906,-41.14
34.921,-30.6
34.937,-18.38
34.953,-5.54
34.968,6.8
34.984,17.82
35.000,26.97
35.015,34.04
35.031,38.98
35.046,41.85
35.062,42.82
35.078,42.12
35.093,40.2
35.109,37.57
35.125,34.85
35.140,32.51
35.156,30.88
35.171,30.0
35.187,29.67
35.203,29.51
35.218,29.14
35.234,28.32
35.250,26.98
35.265,25.25
35.281,23.27
35.296,21.11
35.312,18.67
35.328,15.71
35.343,12.09
35.359,7.77
35.375,2.97
35.390,-1.96
35.406,-6.67
35.421,-11.01
35.437,-15.04
35.453,-19.03
35.468,-23.2
35.484,-27.56
35.500,-31.77
35.515,-35.1
35.531,-36.72
35.546,-35.95
35.562,-32.48
35.578,-26.53
35.593,-18.73
35.609,-9.92
35.625,-0.82
35.640,7.94
35.656,15.97
35.671,22.89
35.687,28.4
35.703,32.25
35.718,34.36
35.734,34.88
35.750,34.17
35.765,32.7
35.781,30.82
35.796,28.73
35.812,26.49
35.828,24.2
35.843,22.04
35.859,20.3
35.875,19.24
35.890,18.94
35.906,19.18
35.921,19.46
35.937,19.24
35.953,18.1
35.968,15.93
35.984,12.95
36.000,9.54
36.015,6.08
36.031,2.8
36.046,-0.37
36.062,-3.69
36.078,-7.51
36.093,-12.11
36.109,-17.6
36.125,-23.77
36.140,-30.13
36.156,-35.92
36.171,-40.27
36.187,-42.29
36.203,-41.35
36.218,-37.18
36.234,-30.03
36.250,-20.61
36.265,-9.93
36.281,0.96
36.296,11.15
36.312,20.02
36.328,27.25
36.343,32.76
36.359,36.56
36.375,38.69
36.390,39.18
36.406,38.12
36.421,35.7
36.437,32.2
36.453,28.05
36.468,23.69
36.484,19.6
36.500,16.19
36.515,13.63
36.531,11.89
36.546,10.68
36.562,9.62
36.578,8.34
36.593,6.7
36.609,4.7
36.625,2.44
36.640,-0.15
36.656,-3.35
36.671,-7.68
36.687,-13.61
36.703,-21.43
36.718,-31.0
36.734,-41.82
36.750,-53.15
36.765,-64.16
36.781,-74.17
36.796,-82.53
36.812,-88.72
36.828,-92.3
36.843,-92.92
36.859,-90.45
36.875,-84.98
36.890,-76.92
36.906,-66.81
36.921,-55.31
36.937,-43.07
36.953,-30.73
36.968,-18.83
36.984,-7.8
37.000,2.14
37.015,10.89
37.031,18.45
37.046,24.79
37.062,29.84
37.078,33.54
37.093,35.95
37.109,37.32
37.125,38.17
37.140,39.09
37.156,40.55
37.171,42.71
37.187,45.37
37.203,48.07
37.218,50.29
37.234,51.66
37.250,52.01
37.265,51.37
37.281,49.8
37.296,47.38
37.312,44.18
37.328,40.29
37.343,35.85
37.359,31.08
37.375,26.24
37.390,21.58
37.406,17.22
37.421,13.19
37.437,9.37
37.453,5.57
37.468,1.61
37.484,-2.68
37.500,-7.41
37.515,-12.62
37.531,-18.16
37.546,-23.66
37.562,-28.52
37.578,-31.92
37.593,-33.03
37.609,-31.23
37.625,-26.37
37.640,-18.84
37.656,-9.62
37.671,0.1
37.687,9.16
37.703,16.76
37.718,22.48
37.734,26.28
37.750,28.3
37.765,28.77
37.781,27.96
37.796,26.22
37.812,24.01
37.828,21.83
37.843,20.15
37.859,19.25
37.875,19.16
37.890,19.69
37.906,20.49
37.921,21.24
37.937,21.69
37.953,21.72
37.968,21.33
37.984,20.55
38.000,19.44
38.015,17.98
38.031,16.1
38.046,13.74
38.062,10.88
38.078,7.67
38.093,4.36
38.109,1.24
38.125,-1.55
38.140,-4.11
38.156,-6.83
38.171,-10.2
38.187,-14.54
38.203,-19.81
38.218,-25.35
38.234,-30.1
38.250,-32.83
38.265,-32.52
38.281,-28.69
38.296,-21.58
38.312,-11.98
38.328,-0.98
38.343,10.27
38.359,20.86
38.375,30.09
38.390,37.54
38.406,42.93
38.421,46.23
38.437,47.6
38.453,47.46
38.468,46.36
38.484,44.91
38.500,43.49
38.515,42.24
38.531,41.02
38.546,39.56
38.562,37.65
38.578,35.26
38.593,32.54
38.609,29.74
38.625,27.03
38.640,24.36
38.656,21.5
38.671,18.13
38.687,14.09
38.703,9.48
38.718,4.66
38.734,0.06
38.750,-4.02
38.765,-7.59
38.781,-10.91
38.796,-14.39
38.812,-18.36
38.828,-23.01
38.843,-28.34
38.859,-34.14
38.875,-40.01
38.890,-45.3
38.906,-49.17
38.921,-50.69
38.937,-49.15
38.953,-44.24
38.968,-36.23
38.984,-25.88
39.000,-14.22
39.015,-2.32
39.031,8.98
39.046,19.11
39.062,27.77
39.078,34.93
39.093,40.72
39.109,45.42
39.125,49.31
39.140,52.67
39.156,55.68
39.171,58.44
39.187,61.01
39.203,63.49
39.218,66.02
39.234,68.75
39.250,71.82
39.265,75.2
39.281,78.73
39.296,82.11
39.312,84.98
39.328,86.99
39.343,87.94
39.359,87.8
39.375,86.76
39.390,85.06
39.406,82.86
39.421,80.13
39.437,76.6
39.453,71.92
39.468,65.92
39.484,58.74
39.500,50.92
39.515,43.11
39.531,35.84
39.546,29.25
39.562,23.18
39.578,17.34
39.593,11.71
39.609,6.79
39.625,3.51
39.640,2.97
39.656,6.0
39.671,12.87
39.687,23.25
39.703,36.41
39.718,51.13
39.734,65.55
39.750,76.94
39.765,81.82
39.781,76.83
39.796,60.08
39.812,32.43
39.828,-2.24
39.843,-37.96
39.859,-68.59
39.875,-89.75
39.890,-99.86
39.906,-99.98
39.921,-92.61
39.937,-80.36
39.953,-65.17
39.968,-48.33
39.984,-30.93
40.000,-14.26
40.015,0.14
40.031,10.79
40.046,16.59
40.062,17.0
40.078,12.13
40.093,2.61
40.109,-10.5
40.125,-25.93
40.140,-42.36
40.156,-58.65
40.171,-73.87
40.187,-87.42
40.203,-98.89
40.218,-107.97
40.234,-114.36
40.250,-117.91
40.265,-118.63
40.281,-116.86
40.296,-113.14
40.312,-108.09
40.328,-102.05
40.343,-95.0
40.359,-86.54
40.375,-76.23
40.390,-63.9
40.406,-49.95
40.421,-35.32
40.437,-21.27
40.453,-8.98
40.468,0.79
40.484,7.88
40.500,12.59
40.515,15.52
40.531,17.23
40.546,18.19
40.562,18.68
40.578,18.79
40.593,18.55
40.609,18.03
40.625,17.42
40.640,17.17
40.656,17.84
40.671,20.03
40.687,24.21
40.703,30.52
40.718,38.59
40.734,47.58
40.750,56.11
40.765,62.59
40.781,65.44
40.796,63.54
40.812,56.58
40.828,45.26
40.843,31.18
40.859,16.5
40.875,3.38
40.890,-6.61
40.906,-12.86
40.921,-15.85
40.937,-16.78
40.953,-17.02
40.968,-17.38
40.984,-17.69
41.000,-16.92
41.015,-13.81
41.031,-7.74
41.046,0.89
41.062,10.78
41.078,20.42
41.093,28.62
41.109,34.63
41.125,37.42
41.140,35.06
41.156,24.62
41.171,3.16
41.187,-30.52
41.203,-74.46
41.218,-123.24
41.234,-169.38
41.250,-205.4
41.265,-225.88
41.281,-228.4
41.296,-213.39
41.312,-183.53
41.328,-143.01
41.343,-97.23
41.359,-52.28
41.375,-14.2
41.390,12.17
41.406,24.36
41.421,22.67
41.437,9.98
41.453,-9.36
41.468,-30.7
41.484,-50.18
41.500,-65.13
41.515,-74.27
41.531,-77.54
41.546,-75.89
41.562,-70.96
41.578,-64.6
41.593,-58.51
41.609,-53.87
41.625,-51.23
41.640,-50.66
41.656,-51.95
41.671,-54.74
41.687,-58.6
41.703,-63.0
41.718,-67.2
41.734,-70.3
41.750,-71.2
41.765,-68.86
41.781,-62.46
41.796,-51.67
41.812,-36.89
41.828,-19.22
41.843,-0.3
41.859,18.02
41.875,34.11
41.890,46.76
41.906,55.5
41.921,60.43
41.937,62.15
41.953,61.53
41.968,59.46
41.984,56.78
42.000,54.17
42.015,52.07
42.031,50.73
42.046,50.15
42.062,50.13
42.078,50.42
42.093,50.78
42.109,51.14
42.125,51.54
42.140,52.1
42.156,52.8
42.171,53.45
42.187,53.68
42.203,53.15
42.218,51.67
42.234,49.32
42.250,46.39
42.265,43.23
42.281,40.05
42.296,36.89
42.312,33.61
42.328,30.04
42.343,25.99
42.359,21.27
42.375,15.7
42.390,9.08
42.406,1.3
42.421,-7.48
42.437,-16.71
42.453,-25.34
42.468,-32.05
42.484,-35.54
42.500,-35.02
42.515,-30.47
42.531,-22.68
42.546,-12.97
42.562,-2.75
42.578,6.98
42.593,15.79
42.609,23.73
42.625,31.02
42.640,37.64
42.656,43.32
42.671,47.65
42.687,50.42
42.703,51.87
42.718,52.69
42.734,53.63
42.750,55.2
42.765,57.42
42.781,59.93
42.796,62.25
42.812,64.15
42.828,65.72
42.843,67.29
42.859,69.17
42.875,71.37
42.890,73.51
42.906,75.04
42.921,75.51
42.937,74.81
42.953,73.2
42.968,71.34
42.984,69.96
43.000,69.68
43.015,70.74
43.031,72.88
43.046,75.38
43.062,77.16
43.078,77.22
43.093,75.0
43.109,70.64
43.125,65.11
43.140,59.9
43.156,56.53
43.171,56.0
43.187,58.48
43.203,63.23
43.218,68.97
43.234,74.23
43.250,77.86
43.265,79.07
43.281,77.51
43.296,73.16
43.312,66.33
43.328,57.54
43.343,47.51
43.359,37.0
43.375,26.61
43.390,16.59
43.406,6.84
43.421,-2.89
43.437,-12.74
43.453,-22.39
43.468,-31.14
43.484,-38.21
43.500,-43.07
43.515,-45.77
43.531,-46.9
43.546,-47.36
43.562,-47.93
43.578,-48.95
43.593,-50.38
43.609,-51.91
43.625,-53.31
43.640,-54.61
43.656,-56.0
43.671,-57.74
43.687,-60.01
43.703,-62.83
43.718,-66.09
43.734,-69.67
43.750,-73.29
43.765,-76.51
43.781,-78.6
43.796,-78.72
43.812,-76.05
43.828,-70.2
43.843,-61.33
43.859,-50.26
43.875,-38.17
43.890,-26.35
43.906,-15.89
43.921,-7.54
43.937,-1.58
43.953,2.04
43.968,3.7
43.984,3.94
44.000,3.39
44.015,2.61
44.031,1.99
44.046,1.68
44.062,1.61
44.078,1.55
44.093,1.26
44.109,0.54
44.125,-0.67
44.140,-2.36
44.156,-4.45
44.171,-6.88
44.187,-9.63
44.203,-12.76
44.218,-16.35
44.234,-20.46
44.250,-25.07
44.265,-30.08
44.281,-35.33
44.296,-40.67
44.312,-46.05
44.328,-51.54
44.343,-57.29
44.359,-63.42
44.375,-69.87
44.390,-76.23
44.406,-81.78
44.421,-85.62
44.437,-86.95
44.453,-85.31
44.468,-80.71
44.484,-73.66
44.500,-64.91
44.515,-55.27
44.531,-45.37
44.546,-35.68
44.562,-26.56
44.578,-18.4
44.593,-11.66
44.609,-6.81
44.625,-4.17
44.640,-3.79
44.656,-5.23
44.671,-7.65
44.687,-9.9
44.703,-10.84
44.718,-9.65
44.734,-6.16
44.750,-0.92
44.765,4.89
44.781,9.85
44.796,12.74
44.812,12.94
44.828,10.6
44.843,6.45
44.859,1.46
44.875,-3.58
44.890,-8.31
44.906,-12.76
44.921,-17.16
44.937,-21.73
44.953,-26.61
44.968,-31.83
44.984,-37.35
45.000,-43.06
45.015,-48.62
45.031,-53.39
45.046,-56.41
45.062,-56.62
45.078,-53.25
45.093,-46.18
45.109,-36.04
45.125,-24.07
45.140,-11.75
45.156,-0.34
45.171,9.38
45.187,17.2
45.203,23.29
45.218,27.99
45.234,31.66
45.250,34.5
45.265,36.69
45.281,38.4
45.296,39.82
45.312,41.15
45.328,42.53
45.343,44.0
45.359,45.4
45.375,46.51
45.390,47.0
45.406,46.57
45.421,44.99
45.437,42.2
45.453,38.32
45.468,33.57
45.484,28.36
45.500,23.01
45.515,17.85
45.531,13.01
45.546,8.49
45.562,4.18
45.578,-0.05
45.593,-4.32
45.609,-8.7
45.625,-13.17
45.640,-17.53
45.656,-21.31
45.671,-23.72
45.687,-23.86
45.703,-20.88
45.718,-14.47
45.734,-5.02
45.750,6.33
45.765,18.01
45.781,28.44
45.796,36.48
45.812,41.71
45.828,44.37
45.843,45.15
45.859,44.86
45.875,44.23
45.890,43.76
45.906,43.77
45.921,44.36
45.937,45.54
45.953,47.2
45.968,49.16
45.984,51.28
46.000,53.52
46.015,56.0
46.031,58.98
46.046,62.63
46.062,66.67
46.078,70.19
46.093,71.73
46.109,69.71
46.125,62.98
46.140,51.43
46.156,36.09
46.171,19.01
46.187,2.56
46.203,-11.24
46.218,-21.36
46.234,-27.96
46.250,-32.3
46.265,-36.1
46.281,-40.83
46.296,-47.09
46.312,-54.35
46.328,-61.19
46.343,-65.93
46.359,-67.33
46.375,-65.06
46.390,-59.71
46.406,-52.4
46.421,-44.25
46.437,-36.12
46.453,-28.44
46.468,-21.39
46.484,-14.93
46.500,-9.03
46.515,-3.56
46.531,1.53
46.546,6.27
46.562,10.52
46.578,14.02
46.593,16.43
46.609,17.54
46.625,17.29
46.640,15.85
46.656,13.54
46.671,10.73
46.687,7.88
46.703,5.39
46.718,3.57
46.734,2.51
46.750,1.97
46.765,1.39
46.781,0.14
46.796,-2.21
46.812,-5.74
46.828,-10.07
46.843,-14.55
46.859,-18.55
46.875,-21.72
46.890,-24.14
46.906,-26.34
46.921,-29.07
46.937,-33.03
46.953,-38.55
46.968,-45.32
46.984,-52.38
47.000,-58.32
47.015,-61.75
47.031,-61.77
47.046,-58.27
47.062,-51.98
47.078,-44.08
47.093,-35.73
47.109,-27.7
47.125,-20.29
47.140,-13.5
47.156,-7.3
47.171,-1.82
47.187,2.7
47.203,6.01
47.218,8.06
47.234,9.05
47.250,9.35
47.265,9.31
47.281,9.15
47.296,8.86
47.312,8.26
47.328,7.14
47.343,5.37
47.359,3.01
47.375,0.35
47.390,-2.26
47.406,-4.51
47.421,-6.22
47.437,-7.47
47.453,-8.54
47.468,-9.82
47.484,-11.69
47.500,-14.47
47.515,-18.34
47.531,-23.33
47.546,-29.27
47.562,-35.75
47.578,-42.06
47.593,-47.24
47.609,-50.25
47.625,-50.2
47.640,-46.61
47.656,-39.59
47.671,-29.83
47.687,-18.41
47.703,-6.5
47.718,4.8
47.734,14.72
47.750,22.77
47.765,28.7
47.781,32.54
47.796,34.46
47.812,34.8
47.828,34.05
47.843,32.72
47.859,31.37
47.875,30.38
47.890,29.96
47.906,30.04
47.921,30.41
47.937,30.81
47.953,31.0
47.968,30.84
47.984,30.27
48.000,29.24
48.015,27.67
48.031,25.49
48.046,22.6
48.062,19.06
48.078,15.01
48.093,10.74
48.109,6.5
48.125,2.46
48.140,-1.37
48.156,-5.16
48.171,-9.14
48.187,-13.56
48.203,-18.59
48.218,-24.21
48.234,-30.17
48.250,-35.94
48.265,-40.71
48.281,-43.59
48.296,-43.79
48.312,-40.93
48.328,-35.13
48.343,-27.06
48.359,-17.75
48.375,-8.29
48.390,0.38
48.406,7.7
48.421,13.48
48.437,17.75
48.453,20.6
48.468,22.04
48.484,22.0
48.500,20.47
48.515,17.63
48.531,13.96
48.546,10.12
48.562,6.82
48.578,4.58
48.593,3.59
48.609,3.63
48.625,4.22
48.640,4.8
48.656,4.81
48.671,3.91
48.687,1.97
48.703,-0.93
48.718,-4.47
48.734,-8.16
48.750,-11.45
48.765,-13.83
48.781,-15.04
48.796,-15.1
48.812,-14.38
48.828,-13.42
48.843,-12.9
48.859,-13.4
48.875,-15.27
48.890,-18.44
48.906,-22.36
48.921,-25.94
48.937,-27.8
48.953,-26.55
48.968,-21.25
48.984,-11.85
49.000,0.7
49.015,14.65
49.031,28.03
49.046,39.24
49.062,47.54
49.078,53.08
49.093,56.65
49.109,59.12
49.125,61.1
49.140,62.76
49.156,63.94
49.171,64.46
49.187,64.26
49.203,63.39
49.218,61.92
49.234,59.76
49.250,56.7
49.265,52.49
49.281,47.17
49.296,41.15
49.312,35.24
49.328,30.35
49.343,27.17
49.359,25.81
49.375,25.72
49.390,25.93
49.406,25.37
49.421,23.36
49.437,19.72
49.453,14.81
49.468,9.31
49.484,3.89
49.500,-0.98
49.515,-5.09
49.531,-8.51
49.546,-11.41
49.562,-13.98
49.578,-16.38
49.593,-18.74
49.609,-21.13
49.625,-23.52
49.640,-25.69
49.656,-27.12
49.671,-27.0
49.687,-24.42
49.703,-18.56
49.718,-9.11
49.734,3.55
49.750,18.38
49.765,33.91
49.781,48.67
49.796,61.54
49.812,71.93
49.828,79.68
49.843,84.89
49.859,87.61
49.875,87.93
49.890,86.03
49.906,82.3
49.921,77.52
49.937,72.63
49.953,68.47
49.968,65.59
49.984,64.0
50.000,63.28
50.015,62.84
50.031,62.21
50.046,61.21
50.062,60.02
50.078,59.04
50.093,58.69
50.109,59.2
50.125,60.53
50.140,62.39
50.156,64.43
50.171,66.4
50.187,68.31
50.203,70.34
50.218,72.72
50.234,75.52
50.250,78.76
50.265,82.43
50.281,86.49
50.296,90.55
50.312,93.48
50.328,93.01
50.343,85.99
50.359,69.25
50.375,40.96
50.390,1.92
50.406,-44.14
50.421,-91.27
50.437,-133.08
50.453,-164.63
50.468,-183.65
50.484,-190.63
50.500,-187.86
50.515,-178.18
50.531,-164.01
50.546,-147.16
50.562,-129.02
50.578,-111.0
50.593,-94.62
50.609,-81.17
50.625,-71.31
50.640,-64.73
50.656,-60.3
50.671,-56.58
50.687,-52.5
50.703,-47.65
50.718,-42.38
50.734,-37.41
50.750,-33.45
50.765,-30.8
50.781,-29.25
50.796,-28.24
50.812,-27.09
50.828,-25.31
50.843,-22.8
50.859,-19.86
50.875,-17.01
50.890,-14.7
50.906,-13.08
50.921,-12.0
50.937,-11.07
50.953,-9.99
50.968,-8.72
50.984,-7.54
51.000,-6.93
51.015,-7.36
51.031,-9.11
51.046,-12.33
51.062,-17.01
51.078,-23.04
51.093,-30.08
51.109,-37.44
51.125,-43.94
51.140,-48.16
51.156,-48.83
51.171,-45.35
51.187,-38.0
51.203,-27.78
51.218,-16.03
51.234,-3.95
51.250,7.59
51.265,17.99
51.281,26.71
51.296,33.19
51.312,37.08
51.328,38.45
51.343,37.76
51.359,35.56
51.375,32.0
51.390,26.61
51.406,18.64
51.421,7.67
51.437,-5.82
51.453,-20.34
51.468,-33.84
51.484,-44.58
51.500,-51.73
51.515,-55.47
51.531,-56.53
51.546,-55.68
51.562,-53.37
51.578,-49.84
51.593,-45.45
51.609,-40.86
51.625,-36.96
51.640,-34.52
51.656,-33.81
51.671,-34.48
51.687,-35.81
51.703,-37.02
51.718,-37.71
51.734,-38.01
51.750,-38.46
51.765,-39.77
51.781,-42.44
51.796,-46.51
51.812,-51.5
51.828,-56.43
51.843,-60.11
51.859,-61.39
51.875,-59.51
51.890,-54.24
51.906,-45.87
51.921,-35.2
51.937,-23.22
51.953,-11.01
51.968,0.52
51.984,10.68
52.000,19.11
52.015,25.7
52.031,30.57
52.046,33.98
52.062,36.25
52.078,37.72
52.093,38.61
52.109,39.08
52.125,39.31
52.140,39.41
52.156,39.58
52.171,39.94
52.187,40.57
52.203,41.45
52.218,42.46
52.234,43.4
52.250,44.08
52.265,44.35
52.281,44.11
52.296,43.31
52.312,41.94
52.328,40.08
52.343,37.83
52.359,35.44
52.375,33.15
52.390,31.25
52.406,29.91
52.421,29.15
52.437,28.78
52.453,28.55
52.468,28.27
52.484,27.81
52.500,27.19
52.515,26.53
52.531,25.95
52.546,25.55
52.562,25.36
52.578,25.3
52.593,25.25
52.609,25.04
52.625,24.54
52.640,23.74
52.656,22.73
52.671,21.7
52.687,20.81
52.703,20.16
52.718,19.69
52.734,19.2
52.750,18.49
52.765,17.43
52.781,16.04
52.796,14.52
52.812,13.08
52.828,11.96
52.843,11.22
52.859,10.8
52.875,10.46
52.890,9.92
52.906,8.92
52.921,7.34
52.937,5.17
52.953,2.54
52.968,-0.35
52.984,-3.24
53.000,-5.88
53.015,-8.09
53.031,-9.8
53.046,-11.15
53.062,-12.43
53.078,-14.02
53.093,-16.21
53.109,-19.03
53.125,-22.2
53.140,-25.21
53.156,-27.55
53.171,-28.84
53.187,-29.13
53.203,-28.79
53.218,-28.52
53.234,-29.1
53.250,-31.11
53.265,-34.73
53.281,-39.49
53.296,-44.33
53.312,-47.68
53.328,-48.02
53.343,-44.3
53.359,-36.32
53.375,-24.8
53.390,-11.11
53.406,3.18
53.421,16.71
53.437,28.52
53.453,38.05
53.468,44.97
53.484,49.1
53.500,50.42
53.515,49.15
53.531,45.79
53.546,41.07
53.562,35.78
53.578,30.62
53.593,26.03
53.609,22.21
53.625,19.12
53.640,16.6
53.656,14.35
53.671,11.95
53.687,8.8
53.703,4.27
53.718,-2.19
53.734,-10.88
53.750,-21.78
53.765,-34.53
53.781,-48.62
53.796,-63.58
53.812,-79.06
53.828,-94.81
53.843,-110.64
53.859,-126.24
53.875,-141.1
53.890,-154.48
53.906,-165.52
53.921,-173.47
53.937,-177.88
53.953,-178.85
53.968,-177.0
53.984,-173.27
54.000,-168.56
54.015,-163.25
54.031,-157.06
54.046,-149.17
54.062,-138.74
54.078,-125.31
54.093,-109.18
54.109,-91.21
54.125,-72.52
54.140,-54.06
54.156,-36.4
54.171,-19.79
54.187,-4.42
54.203,9.38
54.218,21.14
54.234,30.35
54.250,36.8
54.265,40.72
54.281,42.83
54.296,44.12
54.312,45.43
54.328,47.24
54.343,49.53
54.359,51.96
54.375,54.09
54.390,55.74
54.406,56.95
54.421,57.93
54.437,58.77
54.453,59.3
54.468,59.07
54.484,57.56
54.500,54.44
54.515,49.69
54.531,43.7
54.546,37.09
54.562,30.49
54.578,24.39
54.593,18.95
54.609,14.07
54.625,9.41
54.640,4.5
54.656,-1.08
54.671,-7.61
54.687,-15.05
54.703,-22.98
54.718,-30.51
54.734,-36.39
54.750,-39.18
54.765,-37.65
54.781,-31.14
54.796,-19.82
54.812,-4.75
54.828,12.41
54.843,29.82
54.859,46.0
54.875,60.05
54.890,71.77
54.906,81.47
54.921,89.66
54.937,96.72
54.953,102.8
54.968,107.71
54.984,111.16
55.000,112.92
55.015,113.0
55.031,111.71
55.046,109.61
55.062,107.3
55.078,105.31
55.093,103.9
55.109,103.14
55.125,102.9
55.140,102.99
55.156,103.23
55.171,103.4
55.187,103.26
55.203,102.47
55.218,100.63
55.234,97.28
55.250,92.01
55.265,84.53
55.281,74.77
55.296,62.77
55.312,48.68
55.328,32.6
55.343,14.54
55.359,-5.49
55.375,-27.35
55.390,-50.55
55.406,-74.18
55.421,-97.08
55.437,-118.01
55.453,-135.92
55.468,-150.06
55.484,-159.78
55.500,-164.41
55.515,-163.05
55.531,-154.71
55.546,-138.57
55.562,-114.56
55.578,-83.68
55.593,-48.03
55.609,-10.42
55.625,26.33
55.640,60.09
55.656,89.86
55.671,115.73
55.687,138.3
55.703,158.09
55.718,174.94
55.734,188.1
55.750,196.59
55.765,199.89
55.781,198.27
55.796,192.63
55.812,183.94
55.828,172.81
55.843,159.44
55.859,144.2
55.875,128.13
55.890,112.8
55.906,99.55
55.921,88.2
55.937,76.28
55.953,59.41
55.968,32.9
55.984,-6.01
56.000,-56.51
56.015,-114.0
56.031,-171.33
56.046,-221.02
56.062,-257.24
56.078,-277.07
56.093,-280.61
56.109,-270.35
56.125,-250.24
56.140,-224.91
56.156,-198.88
56.171,-176.0
56.187,-158.95
56.203,-148.84
56.218,-145.15
56.234,-145.85
56.250,-147.88
56.265,-148.03
56.281,-143.66
56.296,-133.43
56.312,-117.49
56.328,-97.37
56.343,-75.46
56.359,-54.18
56.375,-35.33
56.390,-19.65
56.406,-6.89
56.421,3.85
56.437,13.5
56.453,22.63
56.468,31.18
56.484,38.7
56.500,44.65
56.515,48.76
56.531,51.23
56.546,52.56
56.562,53.44
56.578,54.39
56.593,55.69
56.609,57.27
56.625,58.92
56.640,60.32
56.656,61.23
56.671,61.44
56.687,60.79
56.703,59.21
56.718,56.67
56.734,53.32
56.750,49.43
56.765,45.43
56.781,41.68
56.796,38.43
56.812,35.53
56.828,32.58
56.843,29.03
56.859,24.44
56.875,18.84
56.890,12.73
56.906,7.03
56.921,2.6
56.937,-0.14
56.953,-1.49
56.968,-2.51
56.984,-4.6
57.000,-9.02
57.015,-16.23
57.031,-25.66
57.046,-35.71
57.062,-44.19
57.078,-49.02
57.093,-48.81
57.109,-43.23
57.125,-33.09
57.140,-20.08
57.156,-6.11
57.171,7.2
57.187,19.09
57.203,29.83
57.218,40.39
57.234,51.88
57.250,64.62
57.265,77.57
57.281,88.34
57.296,93.9
57.312,91.82
57.328,81.32
57.343,63.78
57.359,42.29
57.375,20.63
57.390,2.05
57.406,-11.47
57.421,-19.31
57.437,-21.82
57.453,-19.76
57.468,-14.02
57.484,-5.6
57.500,4.29
57.515,14.16
57.531,22.51
57.546,28.17
57.562,30.65
57.578,30.24
57.593,27.85
57.609,24.66
57.625,21.7
57.640,19.57
57.656,18.28
57.671,17.32
57.687,15.93
57.703,13.46
57.718,9.63
57.734,4.75
57.750,-0.52
57.765,-5.38
57.781,-9.37
57.796,-12.53
57.812,-15.45
57.828,-19.04
57.843,-24.11
57.859,-31.07
57.875,-39.71
57.890,-49.25
57.906,-58.44
57.921,-65.85
57.937,-70.1
57.953,-70.24
57.968,-65.92
57.984,-57.48
58.000,-45.89
58.015,-32.51
58.031,-18.72
58.046,-5.58
58.062,6.24
58.078,16.51
58.093,25.18
58.109,32.26
58.125,37.69
58.140,41.4
58.156,43.44
58.171,44.08
58.187,43.76
58.203,42.97
58.218,42.11
58.234,41.41
58.250,41.0
58.265,40.87
58.281,40.99
58.296,41.29
58.312,41.61
58.328,41.73
58.343,41.45
58.359,40.63
58.375,39.3
58.390,37.59
58.406,35.67
58.421,33.61
58.437,31.35
58.453,28.81
58.468,25.94
58.484,22.83
58.500,19.68
58.515,16.7
58.531,13.95
58.546,11.25
58.562,8.28
58.578,4.71
58.593,0.41
58.609,-4.52
58.625,-9.79
58.640,-15.09
58.656,-20.25
58.671,-25.31
58.687,-30.4
58.703,-35.67
58.718,-41.17
58.734,-46.82
58.750,-52.48
58.765,-58.05
58.781,-63.3
58.796,-67.89
58.812,-71.2
58.828,-72.46
58.843,-70.88
58.859,-66.02
58.875,-57.97
58.890,-47.36
58.906,-35.2
58.921,-22.52
58.937,-10.13
58.953,1.43
58.968,11.85
58.984,20.94
59.000,28.48
59.015,34.27
59.031,38.28
59.046,40.68
59.062,41.89
59.078,42.46
59.093,42.85
59.109,43.36
59.125,43.98
59.140,44.53
59.156,44.78
59.171,44.58
59.187,43.92
59.203,42.93
59.218,41.76
59.234,40.47
59.250,39.0
59.265,37.18
59.281,34.86
59.296,32.02
59.312,28.84
59.328,25.6
59.343,22.57
59.359,19.92
59.375,17.67
59.390,15.78
59.406,14.16
59.421,12.72
59.437,11.31
59.453,9.71
59.468,7.63
59.484,4.84
59.500,1.25
59.515,-3.02
59.531,-7.72
59.546,-12.62
59.562,-17.67
59.578,-23.03
59.593,-28.98
59.609,-35.74
59.625,-43.35
59.640,-51.55
59.656,-59.82
59.671,-67.38
59.687,-73.27
59.703,-76.48
59.718,-76.15
59.734,-71.83
59.750,-63.63
59.765,-52.28
59.781,-38.93
59.796,-24.89
59.812,-11.33
59.828,0.9
59.843,11.29
59.859,19.73
59.875,26.36
59.890,31.56
59.906,35.84
59.921,39.72
59.937,43.56
59.953,47.42
59.968,51.15
59.984,54.45
