timestamp,value
00.000,-63.99
00.015,-31.5
00.031,-3.85
00.046,12.16
00.062,13.19
00.078,0.04
00.093,-23.12
00.109,-50.35
00.125,-75.75
00.140,-94.76
00.156,-104.63
00.171,-104.3
00.187,-94.13
00.203,-75.62
00.218,-51.17
00.234,-23.7
00.250,3.86
00.265,29.02
00.281,49.83
00.296,64.76
00.312,72.45
00.328,71.54
00.343,60.93
00.359,40.18
00.375,10.02
00.390,-27.42
00.406,-68.78
00.421,-109.96
00.437,-146.82
00.453,-175.83
00.468,-194.53
00.484,-201.86
00.500,-198.4
00.515,-186.38
00.531,-169.51
00.546,-152.59
00.562,-140.5
00.578,-136.84
00.593,-142.81
00.609,-156.55
00.625,-173.62
00.640,-188.64
00.656,-197.22
00.671,-197.43
00.687,-189.97
00.703,-177.12
00.718,-161.11
00.734,-143.04
00.750,-122.77
00.765,-99.63
00.781,-73.5
00.796,-45.31
00.812,-16.82
00.828,10.26
00.843,34.88
00.859,56.65
00.875,75.17
00.890,89.36
00.906,97.37
00.921,97.33
00.937,88.57
00.953,72.53
00.968,52.71
00.984,33.53
01.000,18.75
01.015,10.07
01.031,6.86
01.046,6.84
01.062,7.29
01.078,6.25
01.093,3.07
01.109,-1.77
01.125,-7.16
01.140,-11.93
01.156,-15.21
01.171,-16.57
01.187,-16.0
01.203,-13.94
01.218,-11.18
01.234,-8.67
01.250,-7.39
01.265,-8.0
01.281,-10.7
01.296,-15.14
01.312,-20.62
01.328,-26.28
01.343,-31.4
01.359,-35.47
01.375,-38.22
01.390,-39.63
01.406,-39.81
01.421,-39.11
01.437,-37.99
01.453,-36.88
01.468,-35.95
01.484,-34.94
01.500,-33.01
01.515,-29.13
01.531,-22.44
01.546,-12.68
01.562,-0.47
01.578,12.86
01.593,25.65
01.609,36.6
01.625,45.0
01.640,50.82
01.656,54.23
01.671,55.2
01.687,53.42
01.703,48.5
01.718,40.54
01.734,30.46
01.750,20.01
01.765,11.2
01.781,5.58
01.796,3.67
01.812,4.76
01.828,7.4
01.843,10.01
01.859,11.54
01.875,11.68
01.890,10.75
01.906,9.22
01.921,7.31
01.937,4.81
01.953,1.18
01.968,-4.04
01.984,-10.83
02.000,-18.49
02.015,-25.87
02.031,-31.91
02.046,-36.16
02.062,-38.99
02.078,-41.3
02.093,-44.0
02.109,-47.41
02.125,-51.13
02.140,-54.16
02.156,-55.52
02.171,-54.78
02.187,-52.29
02.203,-48.91
02.218,-45.49
02.234,-42.27
02.250,-38.76
02.265,-33.99
02.281,-27.16
02.296,-18.1
02.312,-7.5
02.328,3.45
02.343,13.7
02.359,22.83
02.375,31.28
02.390,39.92
02.406,49.55
02.421,60.18
02.437,70.95
02.453,80.37
02.468,86.93
02.484,89.86
02.500,89.38
02.515,86.72
02.531,83.53
02.546,81.32
02.562,81.04
02.578,83.03
02.593,87.17
02.609,92.94
02.625,99.43
02.640,105.11
02.656,108.05
02.671,106.28
02.687,98.53
02.703,84.8
02.718,66.55
02.734,46.35
02.750,27.11
02.765,11.37
02.781,0.59
02.796,-5.13
02.812,-7.21
02.828,-8.15
02.843,-10.8
02.859,-17.41
02.875,-28.72
02.890,-43.74
02.906,-60.12
02.921,-75.1
02.937,-86.29
02.953,-92.17
02.968,-92.19
02.984,-86.8
03.000,-77.5
03.015,-66.96
03.031,-58.6
03.046,-55.62
03.062,-59.75
03.078,-70.29
03.093,-84.28
03.109,-97.66
03.125,-106.9
03.140,-110.38
03.156,-108.48
03.171,-102.86
03.187,-95.3
03.203,-86.95
03.218,-78.22
03.234,-69.19
03.250,-60.13
03.265,-51.41
03.281,-43.33
03.296,-35.72
03.312,-27.81
03.328,-18.47
03.343,-6.69
03.359,7.93
03.375,24.84
03.390,42.51
03.406,58.85
03.421,71.77
03.437,79.77
03.453,82.4
03.468,80.35
03.484,75.19
03.500,68.84
03.515,63.03
03.531,58.83
03.546,56.5
03.562,55.55
03.578,55.06
03.593,53.94
03.609,51.1
03.625,45.71
03.640,37.31
03.656,26.0
03.671,12.46
03.687,-2.03
03.703,-15.95
03.718,-27.88
03.734,-36.86
03.750,-42.53
03.765,-44.98
03.781,-44.34
03.796,-40.61
03.812,-33.55
03.828,-23.08
03.843,-9.77
03.859,4.81
03.875,18.25
03.890,27.94
03.906,31.94
03.921,29.69
03.937,22.25
03.953,11.92
03.968,1.56
03.984,-6.2
04.000,-9.6
04.015,-7.95
04.031,-1.79
04.046,7.46
04.062,17.88
04.078,27.61
04.093,35.3
04.109,40.37
04.125,42.87
04.140,43.27
04.156,42.15
04.171,39.91
04.187,36.7
04.203,32.45
04.218,26.87
04.234,19.55
04.250,10.07
04.265,-1.76
04.281,-15.75
04.296,-31.21
04.312,-47.13
04.328,-62.4
04.343,-76.18
04.359,-87.98
04.375,-97.6
04.390,-104.82
04.406,-109.34
04.421,-110.81
04.437,-109.09
04.453,-104.55
04.468,-98.11
04.484,-91.0
04.500,-84.47
04.515,-79.34
04.531,-75.84
04.546,-73.72
04.562,-72.42
04.578,-71.29
04.593,-69.83
04.609,-67.68
04.625,-64.59
04.640,-60.54
04.656,-55.63
04.671,-50.09
04.687,-44.25
04.703,-38.32
04.718,-32.38
04.734,-26.24
04.750,-19.43
04.765,-11.28
04.781,-1.03
04.796,11.87
04.812,27.43
04.828,44.77
04.843,62.03
04.859,76.72
04.875,86.44
04.890,89.8
04.906,86.94
04.921,79.62
04.937,70.43
04.953,62.0
04.968,56.11
04.984,53.41
05.000,53.69
05.015,56.09
05.031,59.48
05.046,62.2
05.062,62.04
05.078,56.38
05.093,43.07
05.109,21.51
05.125,-6.52
05.140,-36.98
05.156,-65.0
05.171,-86.71
05.187,-100.7
05.203,-108.03
05.218,-111.26
05.234,-112.71
05.250,-113.46
05.265,-113.53
05.281,-112.79
05.296,-112.02
05.312,-113.04
05.328,-117.81
05.343,-127.24
05.359,-140.42
05.375,-154.86
05.390,-167.59
05.406,-176.22
05.421,-179.53
05.437,-177.31
05.453,-169.84
05.468,-157.6
05.484,-141.31
05.500,-122.26
05.515,-102.39
05.531,-83.77
05.546,-67.77
05.562,-54.38
05.578,-42.17
05.593,-29.0
05.609,-13.03
05.625,6.63
05.640,29.78
05.656,55.58
05.671,82.7
05.687,109.18
05.703,132.13
05.718,147.97
05.734,153.51
05.750,147.38
05.765,131.26
05.781,109.51
05.796,87.68
05.812,70.17
05.828,58.61
05.843,51.85
05.859,47.2
05.875,42.39
05.890,36.71
05.906,30.93
05.921,26.32
05.937,23.74
05.953,23.28
05.968,24.73
05.984,28.28
06.000,34.76
06.015,45.23
06.031,60.35
06.046,79.78
06.062,101.65
06.078,122.7
06.093,138.84
06.109,146.31
06.125,142.97
06.140,129.46
06.156,109.45
06.171,88.58
06.187,72.45
06.203,64.42
06.218,64.25
06.234,68.31
06.250,71.44
06.265,69.21
06.281,59.59
06.296,43.23
06.312,22.48
06.328,-0.07
06.343,-22.63
06.359,-44.2
06.375,-64.2
06.390,-81.83
06.406,-96.14
06.421,-106.36
06.437,-112.34
06.453,-114.72
06.468,-114.76
06.484,-113.73
06.500,-112.52
06.515,-111.59
06.531,-111.19
06.546,-111.72
06.562,-113.87
06.578,-118.35
06.593,-125.46
06.609,-134.66
06.625,-144.48
06.640,-152.86
06.656,-157.82
06.671,-158.08
06.687,-153.38
06.703,-144.4
06.718,-132.46
06.734,-119.0
06.750,-105.33
06.765,-92.43
06.781,-80.96
06.796,-71.32
06.812,-63.57
06.828,-57.38
06.843,-52.04
06.859,-46.65
06.875,-40.38
06.890,-32.74
06.906,-23.85
06.921,-14.27
06.937,-4.87
06.953,3.63
06.968,10.77
06.984,16.47
07.000,20.84
07.015,24.13
07.031,26.61
07.046,28.52
07.062,30.14
07.078,31.69
07.093,33.29
07.109,34.93
07.125,36.43
07.140,37.63
07.156,38.48
07.171,39.15
07.187,39.92
07.203,41.11
07.218,42.82
07.234,44.87
07.250,46.82
07.265,48.14
07.281,48.36
07.296,47.18
07.312,44.63
07.328,41.18
07.343,37.73
07.359,35.54
07.375,36.05
07.390,40.51
07.406,49.65
07.421,63.45
07.437,81.16
07.453,101.5
07.468,123.06
07.484,144.62
07.500,165.27
07.515,184.46
07.531,201.87
07.546,217.33
07.562,230.83
07.578,242.51
07.593,252.86
07.609,262.68
07.625,272.9
07.640,284.37
07.656,297.54
07.671,311.98
07.687,326.22
07.703,337.77
07.718,343.47
07.734,340.26
07.750,325.95
07.765,299.81
07.781,262.68
07.796,216.67
07.812,164.74
07.828,110.35
07.843,57.09
07.859,8.55
07.875,-32.22
07.890,-63.28
07.906,-84.27
07.921,-96.52
07.937,-102.6
07.953,-105.38
07.968,-107.27
07.984,-109.74
08.000,-113.43
08.015,-118.52
08.031,-125.16
08.046,-133.3
08.062,-142.49
08.078,-151.59
08.093,-158.92
08.109,-162.7
08.125,-161.78
08.140,-156.08
08.156,-146.57
08.171,-134.94
08.187,-122.76
08.203,-111.05
08.218,-99.91
08.234,-88.82
08.250,-77.13
08.265,-64.52
08.281,-51.08
08.296,-37.16
08.312,-22.99
08.328,-8.57
08.343,5.94
08.359,19.81
08.375,31.68
08.390,39.98
08.406,43.95
08.421,44.39
08.437,43.71
08.453,45.04
08.468,50.73
08.484,61.17
08.500,74.72
08.515,88.59
08.531,100.31
08.546,108.83
08.562,114.55
08.578,118.54
08.593,121.53
08.609,123.33
08.625,123.07
08.640,120.04
08.656,114.37
08.671,107.22
08.687,100.47
08.703,95.86
08.718,94.44
08.734,96.1
08.750,99.55
08.765,102.47
08.781,101.93
08.796,94.95
08.812,79.28
08.828,54.24
08.843,21.27
08.859,-16.09
08.875,-53.12
08.890,-85.03
08.906,-108.18
08.921,-120.64
08.937,-122.13
08.953,-113.72
08.968,-97.66
08.984,-77.27
09.000,-56.88
09.015,-41.25
09.031,-34.36
09.046,-38.13
09.062,-51.42
09.078,-70.24
09.093,-88.93
09.109,-102.02
09.125,-105.99
09.140,-100.14
09.156,-86.41
09.171,-68.43
09.187,-50.09
09.203,-34.4
09.218,-22.84
09.234,-15.29
09.250,-10.47
09.265,-6.64
09.281,-2.12
09.296,4.49
09.312,14.21
09.328,27.44
09.343,43.51
09.359,60.09
09.375,73.04
09.390,77.09
09.406,67.49
09.421,41.6
09.437,0.17
09.453,-52.85
09.468,-111.44
09.484,-169.21
09.500,-220.71
09.515,-261.94
09.531,-290.29
09.546,-304.34
09.562,-303.85
09.578,-289.88
09.593,-264.98
09.609,-232.64
09.625,-196.44
09.640,-159.27
09.656,-122.74
09.671,-87.36
09.687,-53.28
09.703,-21.19
09.718,6.88
09.734,27.71
09.750,38.06
09.765,36.4
09.781,24.39
09.796,7.1
09.812,-8.51
09.828,-16.26
09.843,-13.18
09.859,-0.57
09.875,17.05
09.890,34.25
09.906,47.12
09.921,54.36
09.937,56.81
09.953,56.01
09.968,52.87
09.984,47.34
10.000,39.09
10.015,28.27
10.031,16.05
10.046,4.15
10.062,-5.84
10.078,-13.13
10.093,-18.03
10.109,-21.64
10.125,-25.24
10.140,-29.78
10.156,-35.55
10.171,-42.23
10.187,-49.17
10.203,-55.76
10.218,-61.58
10.234,-66.44
10.250,-70.1
10.265,-72.12
10.281,-71.76
10.296,-68.14
10.312,-60.54
10.328,-48.72
10.343,-33.07
10.359,-14.52
10.375,5.62
10.390,26.06
10.406,45.7
10.421,63.81
10.437,80.05
10.453,94.38
10.468,106.98
10.484,118.1
10.500,128.01
10.515,136.88
10.531,144.79
10.546,151.77
10.562,157.78
10.578,162.71
10.593,166.36
10.609,168.42
10.625,168.48
10.640,166.24
10.656,161.53
10.671,154.52
10.687,145.62
10.703,135.35
10.718,124.16
10.734,112.2
10.750,99.39
10.765,85.52
10.781,70.45
10.796,54.3
10.812,37.62
10.828,21.26
10.843,6.22
10.859,-6.64
10.875,-16.92
10.890,-24.84
10.906,-31.28
10.921,-37.37
10.937,-44.08
10.953,-51.67
10.968,-59.34
10.984,-65.24
11.000,-66.89
11.015,-61.75
11.031,-48.12
11.046,-25.64
11.062,4.24
11.078,38.31
11.093,72.25
11.109,101.66
11.125,123.21
11.140,135.47
11.156,139.16
11.171,136.59
11.187,130.65
11.203,123.65
11.218,116.52
11.234,108.72
11.250,98.72
11.265,84.86
11.281,66.07
11.296,42.3
11.312,14.57
11.328,-15.43
11.343,-45.59
11.359,-73.77
11.375,-98.04
11.390,-116.95
11.406,-129.66
11.421,-136.04
11.437,-136.67
11.453,-132.66
11.468,-125.42
11.484,-116.34
11.500,-106.58
11.515,-96.93
11.531,-87.94
11.546,-79.91
11.562,-72.87
11.578,-66.6
11.593,-60.65
11.609,-54.53
11.625,-47.98
11.640,-41.32
11.656,-35.46
11.671,-31.73
11.687,-31.43
11.703,-35.24
11.718,-42.79
11.734,-52.6
11.750,-62.46
11.765,-69.99
11.781,-73.44
11.796,-71.9
11.812,-65.38
11.828,-54.33
11.843,-39.4
11.859,-21.21
11.875,-0.58
11.890,21.09
11.906,41.75
11.921,58.83
11.937,70.0
11.953,73.94
11.968,70.79
11.984,62.03
12.000,49.84
12.015,36.36
12.031,23.21
12.046,11.71
12.062,3.13
12.078,-1.19
12.093,-0.45
12.109,4.69
12.125,11.29
12.140,14.44
12.156,8.78
12.171,-9.2
12.187,-39.25
12.203,-77.02
12.218,-115.45
12.234,-147.39
12.250,-168.15
12.265,-176.64
12.281,-175.04
12.296,-167.0
12.312,-155.89
12.328,-143.48
12.343,-129.96
12.359,-114.58
12.375,-96.57
12.390,-75.76
12.406,-52.81
12.421,-29.05
12.437,-6.18
12.453,14.0
12.468,29.81
12.484,39.8
12.500,42.89
12.515,38.81
12.531,28.41
12.546,13.95
12.562,-1.08
12.578,-12.81
12.593,-18.16
12.609,-16.0
12.625,-7.42
12.640,4.78
12.656,17.48
12.671,28.66
12.687,38.2
12.703,47.6
12.718,58.88
12.734,73.31
12.750,90.62
12.765,109.0
12.781,125.91
12.796,139.02
12.812,146.84
12.828,148.97
12.843,145.86
12.859,138.36
12.875,127.42
12.890,113.91
12.906,98.63
12.921,82.43
12.937,66.31
12.953,51.3
12.968,38.44
12.984,28.5
13.000,21.87
13.015,18.46
13.031,17.74
13.046,18.9
13.062,21.08
13.078,23.57
13.093,26.01
13.109,28.29
13.125,30.46
13.140,32.47
13.156,34.0
13.171,34.48
13.187,33.18
13.203,29.64
13.218,24.06
13.234,17.47
13.250,11.59
13.265,8.04
13.281,7.42
13.296,8.77
13.312,9.64
13.328,7.09
13.343,-0.96
13.359,-14.69
13.375,-32.32
13.390,-50.86
13.406,-67.37
13.421,-79.84
13.437,-87.28
13.453,-89.37
13.468,-86.18
13.484,-78.28
13.500,-67.17
13.515,-55.64
13.531,-47.16
13.546,-44.78
13.562,-49.78
13.578,-60.96
13.593,-75.15
13.609,-88.49
13.625,-97.8
13.640,-101.54
13.656,-99.75
13.671,-93.5
13.687,-84.15
13.703,-73.04
13.718,-61.29
13.734,-50.03
13.750,-40.33
13.765,-33.08
13.781,-28.74
13.796,-27.14
13.812,-27.56
13.828,-28.9
13.843,-30.12
13.859,-30.48
13.875,-29.73
13.890,-28.07
13.906,-25.89
13.921,-23.63
13.937,-21.74
13.953,-20.6
13.968,-20.72
13.984,-22.66
14.000,-26.89
14.015,-33.54
14.031,-42.21
14.046,-51.84
14.062,-61.08
14.078,-68.6
14.093,-73.47
14.109,-75.32
14.125,-74.17
14.140,-70.17
14.156,-63.37
14.171,-53.73
14.187,-41.3
14.203,-26.52
14.218,-10.31
14.234,6.12
14.250,21.46
14.265,34.64
14.281,45.02
14.296,52.34
14.312,56.67
14.328,58.39
14.343,58.16
14.359,56.87
14.375,55.56
14.390,55.12
14.406,56.07
14.421,58.54
14.437,62.38
14.453,67.35
14.468,73.3
14.484,80.14
14.500,87.61
14.515,95.28
14.531,102.43
14.546,108.3
14.562,112.35
14.578,114.27
14.593,114.06
14.609,111.85
14.625,107.82
14.640,102.21
14.656,95.5
14.671,88.36
14.687,81.66
14.703,76.06
14.718,71.74
14.734,68.14
14.750,64.11
14.765,58.23
14.781,49.35
14.796,37.0
14.812,21.56
14.828,4.09
14.843,-14.09
14.859,-31.78
14.875,-48.05
14.890,-62.33
14.906,-74.1
14.921,-82.69
14.937,-87.26
14.953,-86.95
14.968,-81.19
14.984,-70.07
15.000,-54.3
15.015,-35.04
15.031,-13.51
15.046,9.29
15.062,32.5
15.078,55.01
15.093,75.17
15.109,90.69
15.125,99.25
15.140,99.37
15.156,91.24
15.171,76.92
15.187,59.7
15.203,42.92
15.218,28.84
15.234,18.11
15.250,10.06
15.265,3.64
15.281,-1.7
15.296,-5.55
15.312,-6.79
15.328,-4.21
15.343,2.73
15.359,13.49
15.375,26.46
15.390,39.33
15.406,49.63
15.421,55.39
15.437,55.65
15.453,50.66
15.468,41.7
15.484,30.68
15.500,19.59
15.515,10.04
15.531,3.1
15.546,-0.77
15.562,-1.62
15.578,-0.04
15.593,2.86
15.609,5.56
15.625,6.41
15.640,4.21
15.656,-1.31
15.671,-9.31
15.687,-18.14
15.703,-26.15
15.718,-32.41
15.734,-37.19
15.750,-41.85
15.765,-48.25
15.781,-57.94
15.796,-71.51
15.812,-88.43
15.828,-107.2
15.843,-125.75
15.859,-141.94
15.875,-154.01
15.890,-160.98
15.906,-162.9
15.921,-160.92
15.937,-156.91
15.953,-152.69
15.968,-149.26
15.984,-146.23
16.000,-141.97
16.015,-134.39
16.031,-122.08
16.046,-105.11
16.062,-85.18
16.078,-64.86
16.093,-46.33
16.109,-30.58
16.125,-17.13
16.140,-4.68
16.156,7.94
16.171,20.86
16.187,33.0
16.203,42.49
16.218,47.41
16.234,46.56
16.250,39.8
16.265,27.79
16.281,11.53
16.296,-7.92
16.312,-29.54
16.328,-52.05
16.343,-73.8
16.359,-92.92
16.375,-107.97
16.390,-118.53
16.406,-125.46
16.421,-130.45
16.437,-135.14
16.453,-140.09
16.468,-144.44
16.484,-146.14
16.500,-142.84
16.515,-132.72
16.531,-115.08
16.546,-90.49
16.562,-60.68
16.578,-28.31
16.593,3.36
16.609,30.98
16.625,51.8
16.640,64.33
16.656,68.86
16.671,67.37
16.687,62.91
16.703,58.73
16.718,57.5
16.734,60.87
16.750,69.35
16.765,82.51
16.781,99.18
16.796,117.82
16.812,136.92
16.828,155.37
16.843,172.79
16.859,189.39
16.875,205.54
16.890,221.25
16.906,235.8
16.921,247.98
16.937,256.62
16.953,261.36
16.968,262.79
16.984,262.13
17.000,260.29
17.015,257.07
17.031,250.98
17.046,239.79
17.062,221.63
17.078,195.94
17.093,163.91
17.109,128.28
17.125,92.79
17.140,61.48
17.156,38.1
17.171,25.42
17.187,24.32
17.203,32.99
17.218,46.6
17.234,58.15
17.250,60.28
17.265,47.72
17.281,19.21
17.296,-22.11
17.312,-69.95
17.328,-117.21
17.343,-158.27
17.359,-190.33
17.375,-213.24
17.390,-228.38
17.406,-237.28
17.421,-240.81
17.437,-239.15
17.453,-232.31
17.468,-220.68
17.484,-205.29
17.500,-187.47
17.515,-168.41
17.531,-148.68
17.546,-128.19
17.562,-106.59
17.578,-83.9
17.593,-60.88
17.609,-38.98
17.625,-19.83
17.640,-4.64
17.656,6.23
17.671,13.08
17.687,16.6
17.703,17.51
17.718,16.53
17.734,14.53
17.750,12.47
17.765,10.99
17.781,9.87
17.796,7.76
17.812,2.49
17.828,-7.93
17.843,-24.13
17.859,-44.67
17.875,-66.16
17.890,-84.13
17.906,-94.26
17.921,-93.63
17.937,-81.48
17.953,-59.6
17.968,-32.18
17.984,-4.95
18.000,15.99
18.015,25.92
18.031,22.63
18.046,6.92
18.062,-18.14
18.078,-48.64
18.093,-81.12
18.109,-112.94
18.125,-141.8
18.140,-164.94
18.156,-178.88
18.171,-180.41
18.187,-168.0
18.203,-142.97
18.218,-109.45
18.234,-73.07
18.250,-38.97
18.265,-10.37
18.281,11.94
18.296,28.99
18.312,42.62
18.328,54.55
18.343,65.9
18.359,77.06
18.375,87.71
18.390,96.85
18.406,103.04
18.421,104.73
18.437,100.66
18.453,90.19
18.468,73.23
18.484,50.28
18.500,22.62
18.515,-7.15
18.531,-35.03
18.546,-56.28
18.562,-67.15
18.578,-66.6
18.593,-57.05
18.609,-43.25
18.625,-30.01
18.640,-19.85
18.656,-12.12
18.671,-4.03
18.687,7.19
18.703,22.62
18.718,41.2
18.734,60.68
18.750,79.09
18.765,95.49
18.781,109.81
18.796,122.03
18.812,131.55
18.828,137.28
18.843,138.51
18.859,135.66
18.875,130.48
18.890,125.39
18.906,122.29
18.921,121.57
18.937,121.74
18.953,119.96
18.968,113.27
18.984,99.98
19.000,80.4
19.015,56.49
19.031,30.65
19.046,4.39
19.062,-22.21
19.078,-49.69
19.093,-77.58
19.109,-103.08
19.125,-121.16
19.140,-126.34
19.156,-115.35
19.171,-89.09
19.187,-52.65
19.203,-13.48
19.218,21.42
19.234,47.51
19.250,63.25
19.265,68.9
19.281,65.06
19.296,52.13
19.312,31.05
19.328,4.63
19.343,-21.82
19.359,-41.46
19.375,-48.3
19.390,-39.7
19.406,-17.56
19.421,12.46
19.437,43.34
19.453,69.53
19.468,88.48
19.484,100.59
19.500,107.84
19.515,112.25
19.531,114.91
19.546,116.0
19.562,115.28
19.578,112.55
19.593,107.8
19.609,101.11
19.625,92.53
19.640,82.27
19.656,70.92
19.671,59.54
19.687,49.46
19.703,41.89
19.718,37.7
19.734,37.38
19.750,41.16
19.765,48.86
19.781,59.37
19.796,70.2
19.812,77.48
19.828,76.87
19.843,65.17
19.859,41.89
19.875,9.84
19.890,-25.88
19.906,-59.95
19.921,-88.85
19.937,-111.82
19.953,-130.32
19.968,-146.38
19.984,-161.2
20.000,-174.6
20.015,-185.72
20.031,-194.09
20.046,-200.31
20.062,-205.8
20.078,-211.88
20.093,-218.92
20.109,-226.21
20.125,-232.37
20.140,-236.19
20.156,-237.17
20.171,-235.55
20.187,-231.96
20.203,-227.2
20.218,-222.16
20.234,-217.86
20.250,-215.3
20.265,-214.89
20.281,-215.85
20.296,-215.91
20.312,-211.81
20.328,-200.62
20.343,-181.24
20.359,-155.37
20.375,-127.22
20.390,-101.84
20.406,-82.87
20.421,-70.85
20.437,-62.84
20.453,-53.83
20.468,-39.11
20.484,-16.58
20.500,12.38
20.515,43.65
20.531,72.32
20.546,94.67
20.562,109.16
20.578,116.23
20.593,117.31
20.609,113.84
20.625,106.87
20.640,97.3
20.656,86.21
20.671,74.87
20.687,64.53
20.703,55.88
20.718,48.95
20.734,43.35
20.750,38.7
20.765,35.04
20.781,32.85
20.796,32.8
20.812,35.4
20.828,40.69
20.843,48.16
20.859,56.91
20.875,65.75
20.890,73.41
20.906,78.79
20.921,81.21
20.937,80.61
20.953,77.68
20.968,73.67
20.984,70.05
21.000,68.06
21.015,68.42
21.031,71.12
21.046,75.6
21.062,80.99
21.078,86.44
21.093,91.4
21.109,95.68
21.125,99.31
21.140,102.29
21.156,104.37
21.171,105.03
21.187,103.58
21.203,99.45
21.218,92.45
21.234,82.97
21.250,72.01
21.265,60.88
21.281,50.94
21.296,43.17
21.312,38.0
21.328,35.17
21.343,33.86
21.359,32.98
21.375,31.52
21.390,28.93
21.406,25.32
21.421,21.42
21.437,18.38
21.453,17.26
21.468,18.76
21.484,22.84
21.500,28.92
21.515,36.01
21.531,43.08
21.546,49.4
21.562,54.47
21.578,58.03
21.593,59.84
21.609,59.73
21.625,57.68
21.640,54.03
21.656,49.47
21.671,44.87
21.687,41.04
21.703,38.4
21.718,36.97
21.734,36.46
21.750,36.62
21.765,37.27
21.781,38.29
21.796,39.33
21.812,39.7
21.828,38.51
21.843,34.94
21.859,28.79
21.875,20.61
21.890,11.57
21.906,3.03
21.921,-4.0
21.937,-9.15
21.953,-12.71
21.968,-15.41
21.984,-18.11
22.000,-21.56
22.015,-26.21
22.031,-32.13
22.046,-38.96
22.062,-45.93
22.078,-51.91
22.093,-55.65
22.109,-55.9
22.125,-51.73
22.140,-42.74
22.156,-29.33
22.171,-12.88
22.187,4.34
22.203,19.64
22.218,30.68
22.234,36.18
22.250,36.45
22.265,33.21
22.281,28.95
22.296,26.01
22.312,25.85
22.328,28.82
22.343,34.33
22.359,41.42
22.375,49.19
22.390,56.91
22.406,64.05
22.421,70.04
22.437,74.21
22.453,75.89
22.468,74.59
22.484,70.2
22.500,63.0
22.515,53.62
22.531,42.85
22.546,31.64
22.562,21.03
22.578,12.17
22.593,6.15
22.609,3.65
22.625,4.58
22.640,7.89
22.656,11.77
22.671,14.18
22.687,13.65
22.703,9.75
22.718,3.32
22.734,-3.96
22.750,-10.15
22.765,-13.72
22.781,-13.97
22.796,-11.08
22.812,-5.94
22.828,0.28
22.843,6.53
22.859,12.1
22.875,16.67
22.890,20.19
22.906,22.69
22.921,24.11
22.937,24.3
22.953,23.13
22.968,20.62
22.984,17.06
23.000,12.93
23.015,8.69
23.031,4.64
23.046,0.84
23.062,-2.79
23.078,-6.29
23.093,-9.52
23.109,-12.16
23.125,-13.9
23.140,-14.61
23.156,-14.53
23.171,-14.12
23.187,-13.86
23.203,-14.07
23.218,-14.64
23.234,-15.28
23.250,-15.7
23.265,-15.88
23.281,-16.14
23.296,-17.05
23.312,-19.12
23.328,-22.6
23.343,-27.35
23.359,-32.93
23.375,-38.74
23.390,-44.11
23.406,-48.37
23.421,-50.87
23.437,-51.04
23.453,-48.47
23.468,-43.16
23.484,-35.5
23.500,-26.23
23.515,-16.22
23.531,-6.22
23.546,3.36
23.562,12.29
23.578,20.45
23.593,27.56
23.609,33.16
23.625,36.79
23.640,38.22
23.656,37.62
23.671,35.61
23.687,33.09
23.703,30.93
23.718,29.74
23.734,29.76
23.750,30.78
23.765,32.33
23.781,33.83
23.796,34.66
23.812,34.34
23.828,32.58
23.843,29.32
23.859,24.77
23.875,19.36
23.890,13.66
23.906,8.28
23.921,3.78
23.937,0.53
23.953,-1.21
23.968,-1.46
23.984,-0.48
24.000,1.24
24.015,3.03
24.031,4.11
24.046,3.84
24.062,1.83
24.078,-1.85
24.093,-6.76
24.109,-12.13
24.125,-17.08
24.140,-20.85
24.156,-22.88
24.171,-22.93
24.187,-21.0
24.203,-17.25
24.218,-11.92
24.234,-5.2
24.250,2.74
24.265,11.76
24.281,21.74
24.296,32.48
24.312,43.55
24.328,54.33
24.343,63.93
24.359,71.47
24.375,76.16
24.390,77.6
24.406,75.94
24.421,71.75
24.437,65.94
24.453,59.42
24.468,52.88
24.484,46.66
24.500,40.77
24.515,35.09
24.531,29.39
24.546,23.49
24.562,17.15
24.578,10.14
24.593,2.26
24.609,-6.59
24.625,-16.18
24.640,-26.06
24.656,-35.55
24.671,-44.06
24.687,-51.26
24.703,-57.22
24.718,-62.29
24.734,-66.94
24.750,-71.54
24.765,-76.21
24.781,-80.86
24.796,-85.2
24.812,-88.94
24.828,-91.8
24.843,-93.72
24.859,-94.82
24.875,-95.44
24.890,-96.02
24.906,-96.99
24.921,-98.58
24.937,-100.66
24.953,-102.72
24.968,-103.95
24.984,-103.53
25.000,-100.83
25.015,-95.66
25.031,-88.22
25.046,-79.0
25.062,-68.58
25.078,-57.33
25.093,-45.39
25.109,-32.71
25.125,-19.26
25.140,-5.19
25.156,9.05
25.171,22.74
25.187,35.13
25.203,45.66
25.218,54.11
25.234,60.57
25.250,65.28
25.265,68.39
25.281,69.82
25.296,69.37
25.312,66.78
25.328,62.04
25.343,55.48
25.359,47.7
25.375,39.37
25.390,31.05
25.406,22.99
25.421,15.17
25.437,7.44
25.453,-0.32
25.468,-8.11
25.484,-15.78
25.500,-23.13
25.515,-29.95
25.531,-36.04
25.546,-41.24
25.562,-45.28
25.578,-47.82
25.593,-48.44
25.609,-46.8
25.625,-42.81
25.640,-36.68
25.656,-28.96
25.671,-20.37
25.687,-11.65
25.703,-3.45
25.718,3.67
25.734,9.23
25.750,12.84
25.765,14.31
25.781,13.76
25.796,11.74
25.812,9.08
25.828,6.64
25.843,5.04
25.859,4.42
25.875,4.57
25.890,5.11
25.906,5.78
25.921,6.54
25.937,7.54
25.953,8.85
25.968,10.27
25.984,11.36
26.000,11.58
26.015,10.59
26.031,8.52
26.046,6.1
26.062,4.39
26.078,4.54
26.093,7.36
26.109,13.09
26.125,21.33
26.140,31.22
26.156,41.71
26.171,51.89
26.187,61.15
26.203,69.17
26.218,75.8
26.234,80.83
26.250,83.98
26.265,84.9
26.281,83.36
26.296,79.38
26.312,73.35
26.328,65.91
26.343,57.79
26.359,49.59
26.375,41.61
26.390,33.9
26.406,26.31
26.421,18.84
26.437,11.73
26.453,5.56
26.468,0.96
26.484,-1.73
26.500,-2.81
26.515,-3.22
26.531,-4.26
26.546,-7.12
26.562,-12.46
26.578,-20.4
26.593,-30.51
26.609,-42.18
26.625,-54.61
26.640,-66.74
26.656,-77.25
26.671,-84.65
26.687,-87.84
26.703,-86.5
26.718,-81.46
26.734,-74.42
26.750,-67.34
26.765,-61.7
26.781,-58.06
26.796,-56.13
26.812,-55.14
26.828,-54.37
26.843,-53.46
26.859,-52.43
26.875,-51.42
26.890,-50.53
26.906,-49.65
26.921,-48.52
26.937,-46.88
26.953,-44.57
26.968,-41.53
26.984,-37.76
27.000,-33.23
27.015,-27.94
27.031,-21.89
27.046,-15.25
27.062,-8.31
27.078,-1.41
27.093,5.14
27.109,11.21
27.125,16.85
27.140,22.21
27.156,27.51
27.171,32.95
27.187,38.72
27.203,45.07
27.218,52.29
27.234,60.73
27.250,70.66
27.265,82.11
27.281,94.81
27.296,108.13
27.312,121.19
27.328,133.0
27.343,142.64
27.359,149.49
27.375,153.51
27.390,155.31
27.406,156.02
27.421,156.76
27.437,157.93
27.453,158.69
27.468,156.92
27.484,150.03
27.500,136.23
27.515,115.7
27.531,91.07
27.546,66.76
27.562,47.55
27.578,36.91
27.593,35.96
27.609,43.24
27.625,55.45
27.640,68.59
27.656,79.17
27.671,84.98
27.687,85.4
27.703,81.22
27.718,74.23
27.734,66.51
27.750,59.78
27.765,54.97
27.781,51.87
27.796,49.51
27.812,46.64
27.828,42.23
27.843,36.1
27.859,29.19
27.875,23.79
27.890,23.1
27.906,30.03
27.921,45.56
27.937,67.5
27.953,90.56
27.968,108.07
27.984,114.8
28.000,109.48
28.015,95.38
28.031,78.73
28.046,65.59
28.062,59.11
28.078,58.49
28.093,60.27
28.109,60.79
28.125,58.4
28.140,53.9
28.156,49.58
28.171,47.34
28.187,47.61
28.203,49.25
28.218,50.6
28.234,50.4
28.250,48.44
28.265,45.68
28.281,43.48
28.296,43.11
28.312,45.18
28.328,49.39
28.343,54.67
28.359,59.55
28.375,62.63
28.390,63.02
28.406,60.49
28.421,55.32
28.437,48.0
28.453,38.82
28.468,27.77
28.484,14.66
28.500,-0.53
28.515,-17.35
28.531,-34.82
28.546,-51.78
28.562,-67.52
28.578,-81.96
28.593,-95.44
28.609,-107.94
28.625,-118.36
28.640,-124.45
28.656,-123.84
28.671,-115.61
28.687,-101.63
28.703,-86.75
28.718,-77.32
28.734,-78.71
28.750,-93.1
28.765,-118.52
28.781,-149.9
28.796,-181.23
28.812,-207.77
28.828,-227.24
28.843,-239.59
28.859,-245.87
28.875,-247.04
28.890,-243.43
28.906,-235.07
28.921,-222.36
28.937,-206.49
28.953,-189.33
28.968,-172.92
28.984,-158.66
29.000,-146.97
29.015,-137.31
29.031,-128.72
29.046,-120.58
29.062,-112.99
29.078,-106.8
29.093,-103.21
29.109,-103.13
29.125,-106.66
29.140,-112.85
29.156,-119.89
29.171,-125.56
29.187,-127.88
29.203,-125.63
29.218,-118.63
29.234,-107.77
29.250,-94.55
29.265,-80.63
29.281,-67.35
29.296,-55.49
29.312,-45.28
29.328,-36.61
29.343,-29.34
29.359,-23.41
29.375,-18.87
29.390,-15.74
29.406,-13.89
29.421,-12.94
29.437,-12.32
29.453,-11.48
29.468,-9.98
29.484,-7.6
29.500,-4.34
29.515,-0.45
29.531,3.76
29.546,7.86
29.562,11.47
29.578,14.25
29.593,16.03
29.609,16.77
29.625,16.59
29.640,15.7
29.656,14.35
29.671,12.79
29.687,11.16
29.703,9.48
29.718,7.69
29.734,5.6
29.750,3.04
29.765,-0.13
29.781,-3.87
29.796,-7.97
29.812,-12.1
29.828,-15.9
29.843,-19.17
29.859,-21.9
29.875,-24.35
29.890,-26.87
29.906,-29.81
29.921,-33.3
29.937,-37.2
29.953,-41.13
29.968,-44.49
29.984,-46.61
30.000,-46.78
30.015,-44.41
30.031,-39.14
30.046,-31.09
30.062,-20.86
30.078,-9.49
30.093,1.86
30.109,12.25
30.125,21.18
30.140,28.63
30.156,34.9
30.171,40.33
30.187,45.14
30.203,49.35
30.218,52.97
30.234,56.13
30.250,59.16
30.265,62.48
30.281,66.47
30.296,71.22
30.312,76.53
30.328,81.95
30.343,87.0
30.359,91.25
30.375,94.41
30.390,96.38
30.406,97.06
30.421,96.37
30.437,94.12
30.453,90.07
30.468,84.04
30.484,75.97
30.500,66.17
30.515,55.31
30.531,44.47
30.546,34.77
30.562,27.09
30.578,21.67
30.593,18.02
30.609,15.14
30.625,12.05
30.640,8.34
30.656,4.42
30.671,1.5
30.687,1.09
30.703,4.45
30.718,12.07
30.734,23.6
30.750,37.86
30.765,53.28
30.781,68.22
30.796,81.19
30.812,91.04
30.828,97.0
30.843,98.81
30.859,96.73
30.875,91.55
30.890,84.35
30.906,76.21
30.921,67.88
30.937,59.55
30.953,51.03
30.968,41.95
30.984,32.08
31.000,21.53
31.015,10.56
31.031,-0.68
31.046,-12.34
31.062,-24.91
31.078,-38.92
31.093,-54.62
31.109,-71.69
31.125,-89.34
31.140,-106.51
31.156,-122.2
31.171,-135.66
31.187,-146.34
31.203,-153.8
31.218,-157.58
31.234,-157.41
31.250,-153.47
31.265,-146.66
31.281,-138.6
31.296,-131.32
31.312,-126.68
31.328,-125.78
31.343,-128.68
31.359,-134.52
31.375,-141.95
31.390,-149.79
31.406,-157.41
31.421,-164.77
31.437,-172.17
31.453,-179.87
31.468,-187.78
31.484,-195.49
31.500,-202.43
31.515,-208.08
31.531,-212.09
31.546,-214.22
31.562,-214.09
31.578,-211.13
31.593,-204.71
31.609,-194.32
31.625,-180.07
31.640,-162.75
31.656,-143.81
31.671,-124.98
31.687,-107.88
31.703,-93.62
31.718,-82.81
31.734,-75.66
31.750,-72.35
31.765,-73.13
31.781,-77.99
31.796,-86.23
31.812,-96.11
31.828,-104.96
31.843,-109.87
31.859,-108.7
31.875,-100.89
31.890,-87.45
31.906,-70.51
31.921,-52.25
31.937,-34.23
31.953,-17.15
31.968,-1.14
31.984,13.79
32.000,27.43
32.015,39.53
32.031,50.06
32.046,59.4
32.062,68.31
32.078,77.53
32.093,87.35
32.109,97.46
32.125,106.97
32.140,114.81
32.156,120.1
32.171,122.51
32.187,122.3
32.203,120.15
32.218,116.73
32.234,112.4
32.250,107.08
32.265,100.46
32.281,92.39
32.296,83.32
32.312,74.52
32.328,67.88
32.343,65.43
32.359,68.72
32.375,78.23
32.390,93.24
32.406,112.0
32.421,132.34
32.437,152.32
32.453,170.83
32.468,187.64
32.484,203.23
32.500,218.18
32.515,232.66
32.531,246.23
32.546,257.89
32.562,266.69
32.578,272.17
32.593,274.69
32.609,275.36
32.625,275.71
32.640,277.26
32.656,281.16
32.671,287.74
32.687,296.12
32.703,304.02
32.718,308.07
32.734,304.75
32.750,291.75
32.765,269.21
32.781,239.79
32.796,207.65
32.812,176.72
32.828,149.13
32.843,125.01
32.859,103.17
32.875,82.58
32.890,63.2
32.906,45.94
32.921,31.88
32.937,21.39
32.953,13.93
32.968,8.33
32.984,3.23
33.000,-2.8
33.015,-11.29
33.031,-23.7
33.046,-40.76
33.062,-61.68
33.078,-83.66
33.093,-102.44
33.109,-113.84
33.125,-115.42
33.140,-107.58
33.156,-93.17
33.171,-76.21
33.187,-60.24
33.203,-47.25
33.218,-37.71
33.234,-31.12
33.250,-26.9
33.265,-24.59
33.281,-23.79
33.296,-23.7
33.312,-23.03
33.328,-20.21
33.343,-13.98
33.359,-3.9
33.375,9.42
33.390,24.35
33.406,38.69
33.421,50.2
33.437,56.99
33.453,57.79
33.468,52.12
33.484,40.3
33.500,23.41
33.515,2.98
33.531,-19.32
33.546,-42.19
33.562,-64.78
33.578,-86.64
33.593,-107.15
33.609,-125.18
33.625,-139.07
33.640,-147.34
33.656,-149.75
33.671,-148.05
33.687,-145.87
33.703,-147.65
33.718,-156.62
33.734,-173.33
33.750,-195.04
33.765,-216.6
33.781,-232.35
33.796,-238.3
33.812,-233.77
33.828,-221.64
33.843,-206.99
33.859,-194.88
33.875,-188.21
33.890,-186.55
33.906,-186.73
33.921,-184.43
33.937,-176.37
33.953,-161.48
33.968,-140.92
33.984,-117.12
34.000,-92.43
34.015,-68.43
34.031,-45.97
34.046,-25.68
34.062,-8.58
34.078,4.08
34.093,11.35
34.109,13.23
34.125,10.85
34.140,6.22
34.156,1.33
34.171,-2.31
34.187,-4.09
34.203,-4.33
34.218,-3.74
34.234,-2.9
34.250,-1.98
34.265,-0.67
34.281,1.37
34.296,4.15
34.312,7.14
34.328,9.54
34.343,10.6
34.359,10.07
34.375,8.05
34.390,4.65
34.406,-0.38
34.421,-7.79
34.437,-18.46
34.453,-32.89
34.468,-50.74
34.484,-70.85
34.500,-91.49
34.515,-110.91
34.531,-127.68
34.546,-140.64
34.562,-148.88
34.578,-151.61
34.593,-148.26
34.609,-138.72
34.625,-123.63
34.640,-104.36
34.656,-82.87
34.671,-61.27
34.687,-41.39
34.703,-24.39
34.718,-10.68
34.734,0.02
34.750,8.32
34.765,14.92
34.781,20.26
34.796,24.52
34.812,27.67
34.828,29.69
34.843,30.74
34.859,31.24
34.875,31.7
34.890,32.65
34.906,34.46
34.921,37.27
34.937,41.07
34.953,45.71
34.968,51.04
34.984,56.8
35.000,62.63
35.015,68.07
35.031,72.63
35.046,75.98
35.062,78.05
35.078,79.13
35.093,79.8
35.109,80.65
35.125,82.13
35.140,84.28
35.156,86.83
35.171,89.37
35.187,91.53
35.203,93.15
35.218,94.41
35.234,95.71
35.250,97.65
35.265,100.93
35.281,106.29
35.296,114.41
35.312,125.78
35.328,140.47
35.343,157.98
35.359,177.22
35.375,196.71
35.390,214.84
35.406,230.27
35.421,241.88
35.437,248.75
35.453,250.0
35.468,245.04
35.484,233.88
35.500,217.59
35.515,198.31
35.531,178.74
35.546,161.17
35.562,146.61
35.578,134.46
35.593,123.04
35.609,110.61
35.625,96.24
35.640,80.19
35.656,63.48
35.671,47.08
35.687,31.4
35.703,16.29
35.718,1.59
35.734,-12.34
35.750,-24.5
35.765,-33.77
35.781,-39.72
35.796,-43.12
35.812,-45.93
35.828,-50.36
35.843,-58.01
35.859,-69.01
35.875,-82.1
35.890,-95.34
35.906,-106.9
35.921,-115.8
35.937,-121.84
35.953,-125.38
35.968,-126.76
35.984,-126.12
36.000,-123.44
36.015,-118.7
36.031,-112.06
36.046,-103.76
36.062,-93.91
36.078,-82.15
36.093,-67.69
36.109,-49.57
36.125,-27.26
36.140,-1.16
36.156,27.28
36.171,55.76
36.187,81.91
36.203,104.01
36.218,121.47
36.234,134.67
36.250,144.4
36.265,151.24
36.281,155.09
36.296,155.44
36.312,151.97
36.328,145.06
36.343,136.01
36.359,126.66
36.375,118.64
36.390,112.62
36.406,107.97
36.421,102.95
36.437,95.49
36.453,83.87
36.468,67.34
36.484,46.04
36.500,20.54
36.515,-8.74
36.531,-41.91
36.546,-79.32
36.562,-121.05
36.578,-166.1
36.593,-212.15
36.609,-255.99
36.625,-294.58
36.640,-325.96
36.656,-349.75
36.671,-366.73
36.687,-377.86
36.703,-383.44
36.718,-382.72
36.734,-374.53
36.750,-358.16
36.765,-334.21
36.781,-304.72
36.796,-272.67
36.812,-240.93
36.828,-211.4
36.843,-184.76
36.859,-160.69
36.875,-138.56
36.890,-117.88
36.906,-98.62
36.921,-81.02
36.937,-65.28
36.953,-51.39
36.968,-39.05
36.984,-27.82
37.000,-17.33
37.015,-7.4
37.031,2.0
37.046,10.74
37.062,18.68
37.078,25.68
37.093,31.67
37.109,36.6
37.125,40.43
37.140,43.12
37.156,44.63
37.171,44.99
37.187,44.3
37.203,42.76
37.218,40.62
37.234,38.15
37.250,35.52
37.265,32.69
37.281,29.35
37.296,25.03
37.312,19.26
37.328,11.87
37.343,3.21
37.359,-5.73
37.375,-13.47
37.390,-18.48
37.406,-19.61
37.421,-16.48
37.437,-9.5
37.453,0.26
37.468,11.49
37.484,22.97
37.500,33.75
37.515,43.23
37.531,51.03
37.546,56.92
37.562,60.79
37.578,62.69
37.593,62.78
37.609,61.39
37.625,58.9
37.640,55.7
37.656,52.15
37.671,48.5
37.687,44.97
37.703,41.69
37.718,38.72
37.734,36.17
37.750,34.14
37.765,32.72
37.781,31.9
37.796,31.55
37.812,31.33
37.828,30.86
37.843,29.77
37.859,27.85
37.875,25.13
37.890,21.81
37.906,18.16
37.921,14.37
37.937,10.52
37.953,6.53
37.968,2.19
37.984,-2.75
38.000,-8.5
38.015,-15.11
38.031,-22.35
38.046,-29.58
38.062,-35.89
38.078,-40.14
38.093,-41.37
38.109,-39.01
38.125,-33.06
38.140,-24.09
38.156,-12.99
38.171,-0.7
38.187,11.94
38.203,24.32
38.218,36.0
38.234,46.59
38.250,55.66
38.265,62.82
38.281,67.71
38.296,70.22
38.312,70.5
38.328,69.02
38.343,66.5
38.359,63.77
38.375,61.54
38.390,60.31
38.406,60.22
38.421,61.06
38.437,62.42
38.453,63.83
38.468,64.89
38.484,65.42
38.500,65.4
38.515,64.89
38.531,64.0
38.546,62.79
38.562,61.22
38.578,59.29
38.593,57.02
38.609,54.52
38.625,51.97
38.640,49.53
38.656,47.34
38.671,45.39
38.687,43.69
38.703,42.17
38.718,40.79
38.734,39.54
38.750,38.39
38.765,37.28
38.781,36.17
38.796,35.02
38.812,33.78
38.828,32.52
38.843,31.25
38.859,30.0
38.875,28.72
38.890,27.29
38.906,25.58
38.921,23.52
38.937,21.13
38.953,18.51
38.968,15.83
38.984,13.25
39.000,10.93
39.015,9.0
39.031,7.49
39.046,6.4
39.062,5.52
39.078,4.58
39.093,3.27
39.109,1.41
39.125,-0.98
39.140,-3.67
39.156,-6.31
39.171,-8.65
39.187,-10.67
39.203,-12.57
39.218,-14.7
39.234,-17.36
39.250,-20.72
39.265,-24.78
39.281,-29.45
39.296,-34.53
39.312,-39.8
39.328,-44.98
39.343,-49.79
39.359,-54.06
39.375,-57.79
39.390,-61.28
39.406,-64.95
39.421,-69.17
39.437,-73.93
39.453,-78.68
39.468,-82.35
39.484,-83.63
39.500,-81.42
39.515,-75.18
39.531,-65.16
39.546,-52.34
39.562,-38.12
39.578,-23.93
39.593,-10.9
39.609,0.29
39.625,9.38
39.640,16.36
39.656,21.32
39.671,24.41
39.687,25.88
39.703,26.14
39.718,25.77
39.734,25.41
39.750,25.55
39.765,26.35
39.781,27.65
39.796,29.08
39.812,30.26
39.828,31.04
39.843,31.48
39.859,31.76
39.875,32.02
39.890,32.19
39.906,32.1
39.921,31.53
39.937,30.41
39.953,28.81
39.968,26.96
39.984,25.11
40.000,23.48
40.015,22.15
40.031,21.08
40.046,20.05
40.062,18.73
40.078,16.83
40.093,14.17
40.109,10.89
40.125,7.53
40.140,4.98
40.156,4.37
40.171,6.8
40.187,13.0
40.203,23.0
40.218,35.88
40.234,49.76
40.250,62.13
40.265,70.37
40.281,72.35
40.296,66.86
40.312,53.78
40.328,34.05
40.343,9.43
40.359,-17.65
40.375,-44.28
40.390,-67.38
40.406,-84.23
40.421,-93.02
40.437,-93.3
40.453,-86.19
40.468,-73.98
40.484,-59.48
40.500,-45.27
40.515,-33.13
40.531,-23.87
40.546,-17.5
40.562,-13.58
40.578,-11.56
40.593,-10.95
40.609,-11.37
40.625,-12.52
40.640,-14.02
40.656,-15.53
40.671,-16.78
40.687,-17.71
40.703,-18.53
40.718,-19.69
40.734,-21.68
40.750,-24.86
40.765,-29.24
40.781,-34.43
40.796,-39.66
40.812,-43.94
40.828,-46.23
40.843,-45.67
40.859,-41.81
40.875,-34.69
40.890,-24.86
40.906,-13.18
40.921,-0.73
40.937,11.41
40.953,22.3
40.968,31.23
40.984,37.71
41.000,41.59
41.015,42.98
41.031,42.34
41.046,40.31
41.062,37.62
41.078,34.96
41.093,32.79
41.109,31.37
41.125,30.75
41.140,30.91
41.156,31.76
41.171,33.21
41.187,35.07
41.203,37.07
41.218,38.86
41.234,40.1
41.250,40.56
41.265,40.23
41.281,39.3
41.296,38.1
41.312,36.9
41.328,35.88
41.343,35.0
41.359,34.05
41.375,32.76
41.390,30.84
41.406,28.18
41.421,24.93
41.437,21.56
41.453,18.86
41.468,17.84
41.484,19.43
41.500,24.25
41.515,32.41
41.531,43.55
41.546,56.93
41.562,71.72
41.578,87.24
41.593,103.01
41.609,118.57
41.625,133.18
41.640,145.69
41.656,154.69
41.671,158.92
41.687,157.73
41.703,151.23
41.718,140.04
41.734,124.92
41.750,106.35
41.765,84.58
41.781,60.01
41.796,33.56
41.812,6.75
41.828,-18.76
41.843,-41.58
41.859,-60.7
41.875,-75.2
41.890,-83.88
41.906,-85.29
41.921,-78.27
41.937,-62.81
41.953,-40.6
41.968,-14.77
41.984,11.13
42.000,34.29
42.015,53.41
42.031,68.55
42.046,80.39
42.062,89.47
42.078,95.7
42.093,98.74
42.109,98.52
42.125,95.75
42.140,91.84
42.156,88.42
42.171,86.7
42.187,87.01
42.203,88.86
42.218,91.16
42.234,92.96
42.250,93.85
42.265,94.08
42.281,94.18
42.296,94.24
42.312,93.39
42.328,89.68
42.343,80.72
42.359,64.6
42.375,40.92
42.390,11.31
42.406,-20.96
42.421,-51.91
42.437,-78.19
42.453,-98.13
42.468,-112.22
42.484,-122.56
42.500,-131.91
42.515,-142.48
42.531,-155.22
42.546,-169.74
42.562,-184.71
42.578,-198.48
42.593,-209.56
42.609,-216.79
42.625,-219.27
42.640,-216.4
42.656,-207.77
42.671,-193.5
42.687,-174.41
42.703,-152.1
42.718,-128.86
42.734,-107.25
42.750,-89.57
42.765,-77.37
42.781,-71.17
42.796,-70.26
42.812,-72.96
42.828,-77.07
42.843,-80.51
42.859,-81.94
42.875,-81.06
42.890,-78.53
42.906,-75.55
42.921,-73.25
42.937,-72.21
42.953,-72.27
42.968,-72.71
42.984,-72.76
43.000,-71.99
43.015,-70.67
43.031,-69.74
43.046,-70.44
43.062,-73.77
43.078,-79.91
43.093,-87.78
43.109,-95.17
43.125,-99.26
43.140,-97.7
43.156,-89.48
43.171,-75.46
43.187,-58.1
43.203,-40.5
43.218,-25.43
43.234,-14.67
43.250,-8.89
43.265,-7.79
43.281,-10.06
43.296,-13.38
43.312,-14.58
43.328,-10.59
43.343,0.2
43.359,16.77
43.375,35.49
43.390,51.55
43.406,61.34
43.421,64.36
43.437,63.36
43.453,62.74
43.468,65.97
43.484,73.86
43.500,84.39
43.515,94.24
43.531,100.84
43.546,103.46
43.562,103.08
43.578,101.11
43.593,98.22
43.609,94.04
43.625,87.7
43.640,78.78
43.656,67.94
43.671,56.87
43.687,47.59
43.703,41.53
43.718,38.92
43.734,38.83
43.750,39.65
43.765,39.85
43.781,38.5
43.796,35.42
43.812,30.96
43.828,25.56
43.843,19.35
43.859,12.11
43.875,3.39
43.890,-7.2
43.906,-19.72
43.921,-33.79
43.937,-48.68
43.953,-63.59
43.968,-77.89
43.984,-91.34
44.000,-104.13
44.015,-116.69
44.031,-129.39
44.046,-142.13
44.062,-154.16
44.078,-164.1
44.093,-170.3
44.109,-171.32
44.125,-166.49
44.140,-156.14
44.156,-141.49
44.171,-124.25
44.187,-106.02
44.203,-87.95
44.218,-70.66
44.234,-54.37
44.250,-39.25
44.265,-25.53
44.281,-13.51
44.296,-3.42
44.312,4.78
44.328,11.46
44.343,17.14
44.359,22.37
44.375,27.48
44.390,32.52
44.406,37.27
44.421,41.39
44.437,44.46
44.453,46.16
44.468,46.25
44.484,44.67
44.500,41.53
44.515,37.12
44.531,31.85
44.546,26.19
44.562,20.58
44.578,15.37
44.593,10.74
44.609,6.72
44.625,3.08
44.640,-0.58
44.656,-4.74
44.671,-9.72
44.687,-15.45
44.703,-21.23
44.718,-25.93
44.734,-28.16
44.750,-26.81
44.765,-21.48
44.781,-12.6
44.796,-1.38
44.812,10.61
44.828,21.86
44.843,31.25
44.859,38.18
44.875,42.52
44.890,44.47
44.906,44.42
44.921,42.87
44.937,40.38
44.953,37.41
44.968,34.37
44.984,31.48
45.000,28.9
45.015,26.73
45.031,25.14
45.046,24.25
45.062,24.05
45.078,24.29
45.093,24.44
45.109,23.96
45.125,22.51
45.140,20.15
45.156,17.26
45.171,14.4
45.187,11.93
45.203,9.96
45.218,8.23
45.234,6.35
45.250,3.97
45.265,0.83
45.281,-3.18
45.296,-8.09
45.312,-13.76
45.328,-19.84
45.343,-25.7
45.359,-30.45
45.375,-33.11
45.390,-32.88
45.406,-29.42
45.421,-22.95
45.437,-14.25
45.453,-4.36
45.468,5.56
45.484,14.54
45.500,21.9
45.515,27.29
45.531,30.68
45.546,32.3
45.562,32.62
45.578,32.29
45.593,32.03
45.609,32.5
45.625,34.13
45.640,37.05
45.656,41.03
45.671,45.58
45.687,50.13
45.703,54.18
45.718,57.52
45.734,60.27
45.750,62.82
45.765,65.58
45.781,68.59
45.796,71.25
45.812,72.23
45.828,69.83
45.843,62.67
45.859,50.28
45.875,33.5
45.890,14.22
45.906,-5.15
45.921,-22.44
45.937,-36.12
45.953,-45.4
45.968,-49.92
45.984,-49.49
46.000,-43.98
46.015,-33.5
46.031,-18.56
46.046,-0.13
46.062,20.48
46.078,41.8
46.093,62.39
46.109,80.79
46.125,95.58
46.140,105.51
46.156,109.88
46.171,108.91
46.187,103.87
46.203,96.82
46.218,89.99
46.234,85.06
46.250,82.86
46.265,83.3
46.281,85.82
46.296,89.82
46.312,94.97
46.328,101.23
46.343,108.78
46.359,117.8
46.375,128.44
46.390,140.64
46.406,153.88
46.421,166.89
46.437,177.42
46.453,182.52
46.468,179.23
46.484,165.65
46.500,141.82
46.515,110.03
46.531,74.31
46.546,39.22
46.562,8.55
46.578,-15.59
46.593,-32.92
46.609,-44.43
46.625,-51.49
46.640,-55.19
46.656,-56.11
46.671,-54.62
46.687,-51.24
46.703,-46.91
46.718,-42.81
46.734,-40.01
46.750,-38.94
46.765,-39.35
46.781,-40.48
46.796,-41.66
46.812,-42.59
46.828,-43.52
46.843,-44.97
46.859,-47.33
46.875,-50.66
46.890,-54.67
46.906,-59.05
46.921,-63.73
46.937,-68.99
46.953,-75.33
46.968,-83.24
46.984,-92.89
47.000,-104.03
47.015,-116.14
47.031,-128.5
47.046,-140.37
47.062,-151.11
47.078,-160.18
47.093,-167.28
47.109,-172.39
47.125,-175.68
47.140,-177.49
47.156,-178.13
47.171,-177.75
47.187,-176.26
47.203,-173.42
47.218,-168.91
47.234,-162.64
47.250,-154.79
47.265,-145.85
47.281,-136.46
47.296,-127.27
47.312,-118.69
47.328,-110.93
47.343,-104.01
47.359,-97.91
47.375,-92.65
47.390,-88.39
47.406,-85.41
47.421,-84.04
47.437,-84.51
47.453,-86.76
47.468,-90.27
47.484,-94.0
47.500,-96.5
47.515,-96.21
47.531,-91.91
47.546,-83.04
47.562,-69.97
47.578,-53.83
47.593,-36.18
47.609,-18.64
47.625,-2.51
47.640,11.39
47.656,22.66
47.671,31.29
47.687,37.49
47.703,41.58
47.718,43.95
47.734,45.05
47.750,45.33
47.765,45.2
47.781,45.03
47.796,45.0
47.812,45.19
47.828,45.55
47.843,46.06
47.859,46.78
47.875,47.94
47.890,49.9
47.906,53.01
47.921,57.45
47.937,63.07
47.953,69.35
47.968,75.54
47.984,80.84
48.000,84.68
48.015,86.85
48.031,87.48
48.046,86.93
48.062,85.6
48.078,83.73
48.093,81.32
48.109,78.17
48.125,74.03
48.140,68.8
48.156,62.65
48.171,55.97
48.187,49.3
48.203,43.05
48.218,37.42
48.234,32.34
48.250,27.43
48.265,22.24
48.281,16.32
48.296,9.38
48.312,1.38
48.328,-7.43
48.343,-16.45
48.359,-24.66
48.375,-30.79
48.390,-33.48
48.406,-31.68
48.421,-24.96
48.437,-13.74
48.453,0.86
48.468,17.23
48.484,33.73
48.500,49.03
48.515,62.32
48.531,73.28
48.546,81.92
48.562,88.46
48.578,93.23
48.593,96.58
48.609,98.97
48.625,100.84
48.640,102.6
48.656,104.4
48.671,106.1
48.687,107.24
48.703,107.2
48.718,105.41
48.734,101.63
48.750,96.02
48.765,89.17
48.781,81.85
48.796,74.82
48.812,68.56
48.828,63.28
48.843,58.93
48.859,55.31
48.875,52.22
48.890,49.5
48.906,47.07
48.921,44.93
48.937,43.1
48.953,41.53
48.968,40.14
48.984,38.71
49.000,37.0
49.015,34.73
49.031,31.68
49.046,27.7
49.062,22.71
49.078,16.67
49.093,9.54
49.109,1.33
49.125,-7.99
49.140,-18.35
49.156,-29.68
49.171,-41.89
49.187,-54.72
49.203,-67.72
49.218,-80.09
49.234,-90.73
49.250,-98.46
49.265,-102.24
49.281,-101.57
49.296,-96.64
49.312,-88.27
49.328,-77.79
49.343,-66.58
49.359,-55.89
49.375,-46.55
49.390,-38.98
49.406,-33.25
49.421,-29.23
49.437,-26.66
49.453,-25.29
49.468,-24.83
49.484,-24.99
49.500,-25.46
49.515,-25.88
49.531,-25.97
49.546,-25.54
49.562,-24.49
49.578,-22.9
49.593,-20.93
49.609,-18.75
49.625,-16.51
49.640,-14.3
49.656,-12.17
49.671,-10.16
49.687,-8.31
49.703,-6.69
49.718,-5.37
49.734,-4.35
49.750,-3.62
49.765,-3.06
49.781,-2.58
49.796,-2.12
49.812,-1.74
49.828,-1.6
49.843,-1.88
49.859,-2.68
49.875,-3.97
49.890,-5.61
49.906,-7.45
49.921,-9.44
49.937,-11.7
49.953,-14.5
49.968,-18.13
49.984,-22.7
50.000,-28.03
50.015,-33.54
50.031,-38.42
50.046,-41.72
50.062,-42.59
50.078,-40.54
50.093,-35.51
50.109,-27.93
50.125,-18.63
50.140,-8.6
50.156,1.21
50.171,10.02
50.187,17.35
50.203,22.95
50.218,26.74
50.234,28.76
50.250,29.13
50.265,28.1
50.281,26.02
50.296,23.39
50.312,20.68
50.328,18.29
50.343,16.4
50.359,15.09
50.375,14.33
50.390,14.21
50.406,14.82
50.421,16.25
50.437,18.45
50.453,21.12
50.468,23.85
50.484,26.19
50.500,27.87
50.515,28.85
50.531,29.24
50.546,29.18
50.562,28.72
50.578,27.81
50.593,26.4
50.609,24.46
50.625,22.08
50.640,19.38
50.656,16.49
50.671,13.47
50.687,10.34
50.703,7.09
50.718,3.76
50.734,0.29
50.750,-3.38
50.765,-7.44
50.781,-12.07
50.796,-17.34
50.812,-23.03
50.828,-28.54
50.843,-32.99
50.859,-35.45
50.875,-35.26
50.890,-32.22
50.906,-26.72
50.921,-19.57
50.937,-11.76
50.953,-4.24
50.968,2.28
50.984,7.41
51.000,10.97
51.015,13.0
51.031,13.64
51.046,13.1
51.062,11.71
51.078,9.91
51.093,8.15
51.109,6.95
51.125,6.65
51.140,7.44
51.156,9.23
51.171,11.69
51.187,14.39
51.203,16.85
51.218,18.76
51.234,19.97
51.250,20.49
51.265,20.4
51.281,19.77
51.296,18.6
51.312,16.82
51.328,14.38
51.343,11.3
51.359,7.71
51.375,3.83
51.390,-0.11
51.406,-3.94
51.421,-7.65
51.437,-11.33
51.453,-15.2
51.468,-19.43
51.484,-24.11
51.500,-29.17
51.515,-34.38
51.531,-39.34
51.546,-43.53
51.562,-46.33
51.578,-47.12
51.593,-45.46
51.609,-41.18
51.625,-34.58
51.640,-26.3
51.656,-17.27
51.671,-8.37
51.687,-0.35
51.703,6.33
51.718,11.47
51.734,15.02
51.750,17.01
51.765,17.56
51.781,16.91
51.796,15.41
51.812,13.53
51.828,11.7
51.843,10.28
51.859,9.42
51.875,9.07
51.890,9.03
51.906,9.07
51.921,8.98
51.937,8.66
51.953,8.09
51.968,7.29
51.984,6.28
52.000,5.05
52.015,3.56
52.031,1.77
52.046,-0.38
52.062,-2.95
52.078,-5.96
52.093,-9.41
52.109,-13.22
52.125,-17.23
52.140,-21.26
52.156,-25.16
52.171,-28.91
52.187,-32.64
52.203,-36.69
52.218,-41.35
52.234,-46.76
52.250,-52.69
52.265,-58.5
52.281,-63.16
52.296,-65.62
52.312,-65.04
52.328,-61.12
52.343,-54.3
52.359,-45.55
52.375,-36.15
52.390,-27.34
52.406,-19.97
52.421,-14.46
52.437,-10.77
52.453,-8.65
52.468,-7.73
52.484,-7.68
52.500,-8.23
52.515,-9.14
52.531,-10.17
52.546,-11.05
52.562,-11.57
52.578,-11.58
52.593,-11.05
52.609,-10.11
52.625,-8.97
52.640,-7.87
52.656,-7.06
52.671,-6.66
52.687,-6.7
52.703,-7.21
52.718,-8.22
52.734,-9.78
52.750,-11.82
52.765,-14.08
52.781,-15.96
52.796,-16.66
52.812,-15.34
52.828,-11.4
52.843,-4.73
52.859,4.3
52.875,14.96
52.890,26.36
52.906,37.71
52.921,48.32
52.937,57.68
52.953,65.43
52.968,71.48
52.984,76.13
53.000,80.12
53.015,84.57
53.031,90.58
53.046,98.94
53.062,109.77
53.078,122.53
53.093,136.26
53.109,149.99
53.125,163.17
53.140,175.85
53.156,188.57
53.171,202.03
53.187,216.56
53.203,231.62
53.218,245.56
53.234,255.77
53.250,259.22
53.265,253.28
53.281,236.59
53.296,209.55
53.312,174.31
53.328,134.24
53.343,93.01
53.359,53.68
53.375,18.2
53.390,-12.57
53.406,-38.45
53.421,-59.52
53.437,-75.98
53.453,-88.22
53.468,-97.19
53.484,-104.37
53.500,-111.49
53.515,-119.85
53.531,-129.78
53.546,-140.52
53.562,-150.62
53.578,-158.81
53.593,-164.57
53.609,-168.36
53.625,-171.26
53.640,-174.4
53.656,-178.49
53.671,-183.56
53.687,-189.13
53.703,-194.36
53.718,-198.33
53.734,-200.21
53.750,-199.46
53.765,-195.93
53.781,-190.02
53.796,-182.48
53.812,-174.25
53.828,-166.07
53.843,-158.34
53.859,-151.07
53.875,-144.12
53.890,-137.33
53.906,-130.64
53.921,-123.97
53.937,-117.07
53.953,-109.49
53.968,-100.63
53.984,-90.01
54.000,-77.52
54.015,-63.48
54.031,-48.51
54.046,-33.34
54.062,-18.54
54.078,-4.45
54.093,8.81
54.109,21.21
54.125,32.75
54.140,43.37
54.156,52.96
54.171,61.45
54.187,68.8
54.203,75.08
54.218,80.44
54.234,85.04
54.250,89.08
54.265,92.63
54.281,95.61
54.296,97.82
54.312,98.98
54.328,98.93
54.343,97.65
54.359,95.36
54.375,92.35
54.390,88.93
54.406,85.35
54.421,81.83
54.437,78.64
54.453,76.07
54.468,74.39
54.484,73.72
54.500,73.86
54.515,74.38
54.531,74.65
54.546,74.12
54.562,72.55
54.578,70.08
54.593,67.22
54.609,64.65
54.625,62.88
54.640,62.12
54.656,62.15
54.671,62.42
54.687,62.23
54.703,60.92
54.718,57.94
54.734,52.97
54.750,45.85
54.765,36.62
54.781,25.56
54.796,13.19
54.812,0.17
54.828,-12.76
54.843,-24.94
54.859,-35.91
54.875,-45.39
54.890,-53.25
54.906,-59.53
54.921,-64.36
54.937,-68.03
54.953,-70.97
54.968,-73.65
54.984,-76.49
55.000,-79.77
55.015,-83.63
55.031,-88.05
55.046,-93.11
55.062,-99.01
55.078,-106.08
55.093,-114.72
55.109,-125.09
55.125,-136.9
55.140,-149.27
55.156,-160.68
55.171,-169.26
55.187,-173.18
55.203,-171.11
55.218,-162.54
55.234,-148.01
55.250,-128.93
55.265,-107.24
55.281,-85.01
55.296,-63.92
55.312,-45.14
55.328,-29.22
55.343,-16.2
55.359,-5.79
55.375,2.47
55.390,9.09
55.406,14.61
55.421,19.52
55.437,24.23
55.453,29.02
55.468,33.99
55.484,39.02
55.500,43.8
55.515,47.89
55.531,50.87
55.546,52.46
55.562,52.63
55.578,51.6
55.593,49.71
55.609,47.31
55.625,44.57
55.640,41.51
55.656,38.09
55.671,34.28
55.687,30.24
55.703,26.28
55.718,22.74
55.734,19.84
55.750,17.59
55.765,15.72
55.781,13.75
55.796,11.14
55.812,7.39
55.828,2.17
55.843,-4.49
55.859,-12.1
55.875,-19.72
55.890,-26.07
55.906,-29.85
55.921,-30.13
55.937,-26.64
55.953,-19.85
55.968,-10.81
55.984,-0.8
56.000,9.01
56.015,17.78
56.031,25.04
56.046,30.56
56.062,34.29
56.078,36.25
56.093,36.6
56.109,35.67
56.125,34.0
56.140,32.23
56.156,30.99
56.171,30.7
56.187,31.5
56.203,33.27
56.218,35.67
56.234,38.32
56.250,40.9
56.265,43.22
56.281,45.21
56.296,46.8
56.312,47.96
56.328,48.59
56.343,48.67
56.359,48.19
56.375,47.29
56.390,46.13
56.406,44.89
56.421,43.65
56.437,42.42
56.453,41.22
56.468,40.04
56.484,38.92
56.500,37.88
56.515,36.84
56.531,35.67
56.546,34.15
56.562,32.16
56.578,29.74
56.593,27.15
56.609,24.77
56.625,22.96
56.640,21.86
56.656,21.39
56.671,21.27
56.687,21.23
56.703,21.14
56.718,20.99
56.734,20.87
56.750,20.79
56.765,20.64
56.781,20.26
56.796,19.48
56.812,18.29
56.828,16.83
56.843,15.34
56.859,14.01
56.875,12.97
56.890,12.21
56.906,11.63
56.921,11.14
56.937,10.59
56.953,9.83
56.968,8.71
56.984,7.08
57.000,4.94
57.015,2.39
57.031,-0.44
57.046,-3.42
57.062,-6.54
57.078,-9.94
57.093,-13.83
57.109,-18.27
57.125,-23.15
57.140,-28.14
57.156,-32.79
57.171,-36.74
57.187,-39.9
57.203,-42.51
57.218,-45.11
57.234,-48.34
57.250,-52.72
57.265,-58.45
57.281,-65.27
57.296,-72.38
57.312,-78.61
57.328,-82.61
57.343,-83.16
57.359,-79.58
57.375,-71.88
57.390,-60.81
57.406,-47.69
57.421,-33.98
57.437,-20.99
57.453,-9.58
57.468,-0.17
57.484,7.13
57.500,12.44
57.515,15.95
57.531,18.01
57.546,19.04
57.562,19.58
57.578,20.11
57.593,20.92
57.609,22.07
57.625,23.4
57.640,24.67
57.656,25.68
57.671,26.39
57.687,26.84
57.703,27.13
57.718,27.3
57.734,27.32
57.750,27.02
57.765,26.28
57.781,24.92
57.796,22.8
57.812,19.83
57.828,16.06
57.843,11.66
57.859,7.01
57.875,2.5
57.890,-1.54
57.906,-5.03
57.921,-8.23
57.937,-11.63
57.953,-15.74
57.968,-20.89
57.984,-26.99
58.000,-33.48
58.015,-39.48
58.031,-43.95
58.046,-45.95
58.062,-44.85
58.078,-40.48
58.093,-33.2
58.109,-23.81
58.125,-13.4
58.140,-3.02
58.156,6.48
58.171,14.52
58.187,20.87
58.203,25.48
58.218,28.42
58.234,29.83
58.250,29.86
58.265,28.78
58.281,26.93
58.296,24.71
58.312,22.55
58.328,20.88
58.343,19.99
58.359,20.03
58.375,20.9
58.390,22.3
58.406,23.76
58.421,24.83
58.437,25.17
58.453,24.7
58.468,23.48
58.484,21.68
58.500,19.47
58.515,16.89
58.531,13.98
58.546,10.74
58.562,7.24
58.578,3.66
58.593,0.22
58.609,-2.84
58.625,-5.42
58.640,-7.54
58.656,-9.32
58.671,-11.03
58.687,-12.98
58.703,-15.47
58.718,-18.77
58.734,-22.95
58.750,-27.85
58.765,-32.89
58.781,-37.2
58.796,-39.69
58.812,-39.41
58.828,-35.87
58.843,-29.19
58.859,-20.13
58.875,-9.8
58.890,0.65
58.906,10.37
58.921,18.84
58.937,25.85
58.953,31.34
58.968,35.29
58.984,37.67
59.000,38.55
59.015,38.2
59.031,37.05
59.046,35.62
59.062,34.36
59.078,33.52
59.093,33.14
59.109,33.08
59.125,33.16
59.140,33.2
59.156,33.14
59.171,32.91
59.187,32.46
59.203,31.73
59.218,30.66
59.234,29.22
59.250,27.49
59.265,25.55
59.281,23.45
59.296,21.2
59.312,18.72
59.328,15.95
59.343,12.88
59.359,9.54
59.375,6.04
59.390,2.53
59.406,-0.96
59.421,-4.36
59.437,-7.71
59.453,-11.06
59.468,-14.47
59.484,-18.06
59.500,-22.0
59.515,-26.51
59.531,-31.75
59.546,-37.72
59.562,-44.0
59.578,-49.83
59.593,-54.17
59.609,-55.98
59.625,-54.59
59.640,-49.94
59.656,-42.64
59.671,-33.76
59.687,-24.5
59.703,-15.84
59.718,-8.27
59.734,-1.87
59.750,3.58
59.765,8.33
59.781,12.45
59.796,15.83
59.812,18.28
59.828,19.7
59.843,20.2
59.859,20.11
59.875,19.86
59.890,19.89
59.906,20.41
59.921,21.42
59.937,22.74
59.953,24.19
59.968,25.56
59.984,26.76
