timestamp,value
00.000,2.79
00.015,14.07
00.031,24.06
00.046,32.84
00.062,40.35
00.078,46.53
00.093,51.48
00.109,55.51
00.125,58.9
00.140,61.82
00.156,64.19
00.171,65.73
00.187,66.2
00.203,65.56
00.218,63.99
00.234,61.81
00.250,59.32
00.265,56.68
00.281,53.84
00.296,50.73
00.312,47.28
00.328,43.6
00.343,39.88
00.359,36.32
00.375,33.01
00.390,29.79
00.406,26.31
00.421,22.01
00.437,16.41
00.453,9.18
00.468,0.36
00.484,-9.63
00.500,-20.03
00.515,-29.95
00.531,-38.65
00.546,-45.72
00.562,-51.22
00.578,-55.6
00.593,-59.55
00.609,-63.71
00.625,-68.35
00.640,-73.22
00.656,-77.47
00.671,-79.84
00.687,-79.1
00.703,-74.36
00.718,-65.38
00.734,-52.72
00.750,-37.47
00.765,-21.01
00.781,-4.6
00.796,10.77
00.812,24.48
00.828,36.13
00.843,45.51
00.859,52.48
00.875,57.06
00.890,59.51
00.906,60.39
00.921,60.39
00.937,60.2
00.953,60.29
00.968,60.82
00.984,61.62
01.000,62.4
01.015,62.89
01.031,62.95
01.046,62.57
01.062,61.74
01.078,60.4
01.093,58.39
01.109,55.49
01.125,51.52
01.140,46.42
01.156,40.23
01.171,33.1
01.187,25.35
01.203,17.36
01.218,9.7
01.234,3.02
01.250,-2.05
01.265,-5.15
01.281,-6.27
01.296,-5.83
01.312,-4.51
01.328,-3.04
01.343,-1.89
01.359,-1.21
01.375,-0.89
01.390,-0.84
01.406,-1.15
01.421,-2.13
01.437,-4.22
01.453,-7.59
01.468,-12.01
01.484,-16.8
01.500,-21.12
01.515,-24.3
01.531,-26.16
01.546,-27.0
01.562,-27.4
01.578,-27.89
01.593,-28.7
01.609,-29.73
01.625,-30.67
01.640,-31.29
01.656,-31.49
01.671,-31.37
01.687,-31.0
01.703,-30.26
01.718,-28.91
01.734,-26.59
01.750,-23.07
01.765,-18.38
01.781,-12.8
01.796,-6.75
01.812,-0.67
01.828,5.19
01.843,10.74
01.859,15.99
01.875,21.02
01.890,25.8
01.906,30.19
01.921,33.93
01.937,36.62
01.953,37.89
01.968,37.46
01.984,35.28
02.000,31.52
02.015,26.58
02.031,20.85
02.046,14.59
02.062,7.88
02.078,0.75
02.093,-6.79
02.109,-14.55
02.125,-22.16
02.140,-29.21
02.156,-35.43
02.171,-40.81
02.187,-45.6
02.203,-50.26
02.218,-55.26
02.234,-60.96
02.250,-67.36
02.265,-74.14
02.281,-80.52
02.296,-85.38
02.312,-87.54
02.328,-85.99
02.343,-80.3
02.359,-70.68
02.375,-58.02
02.390,-43.53
02.406,-28.52
02.421,-14.02
02.437,-0.66
02.453,11.3
02.468,21.85
02.484,31.03
02.500,38.79
02.515,45.09
02.531,49.87
02.546,53.22
02.562,55.32
02.578,56.48
02.593,56.95
02.609,56.87
02.625,56.24
02.640,55.03
02.656,53.21
02.671,50.88
02.687,48.19
02.703,45.36
02.718,42.52
02.734,39.68
02.750,36.81
02.765,33.8
02.781,30.63
02.796,27.34
02.812,24.03
02.828,20.76
02.843,17.52
02.859,14.22
02.875,10.65
02.890,6.65
02.906,2.12
02.921,-2.9
02.937,-8.28
02.953,-13.78
02.968,-19.09
02.984,-23.93
03.000,-28.07
03.015,-31.52
03.031,-34.46
03.046,-37.32
03.062,-40.7
03.078,-45.15
03.093,-50.87
03.109,-57.57
03.125,-64.43
03.140,-70.17
03.156,-73.49
03.171,-73.4
03.187,-69.47
03.203,-61.98
03.218,-51.77
03.234,-39.98
03.250,-27.8
03.265,-16.19
03.281,-5.78
03.296,3.1
03.312,10.34
03.328,16.0
03.343,20.18
03.359,23.03
03.375,24.78
03.390,25.68
03.406,26.05
03.421,26.23
03.437,26.54
03.453,27.22
03.468,28.33
03.484,29.77
03.500,31.29
03.515,32.59
03.531,33.41
03.546,33.54
03.562,32.93
03.578,31.57
03.593,29.56
03.609,27.01
03.625,24.1
03.640,21.04
03.656,18.04
03.671,15.27
03.687,12.76
03.703,10.44
03.718,8.13
03.734,5.58
03.750,2.62
03.765,-0.92
03.781,-5.08
03.796,-9.84
03.812,-14.99
03.828,-20.25
03.843,-25.24
03.859,-29.63
03.875,-33.31
03.890,-36.34
03.906,-39.04
03.921,-41.85
03.937,-45.27
03.953,-49.64
03.968,-55.13
03.984,-61.59
04.000,-68.43
04.015,-74.66
04.031,-78.99
04.046,-80.22
04.062,-77.55
04.078,-70.88
04.093,-60.94
04.109,-48.98
04.125,-36.43
04.140,-24.52
04.156,-14.02
04.171,-5.24
04.187,1.87
04.203,7.48
04.218,11.78
04.234,14.93
04.250,17.1
04.265,18.52
04.281,19.53
04.296,20.42
04.312,21.45
04.328,22.72
04.343,24.15
04.359,25.58
04.375,26.86
04.390,27.92
04.406,28.75
04.421,29.37
04.437,29.7
04.453,29.57
04.468,28.8
04.484,27.27
04.500,25.07
04.515,22.48
04.531,19.87
04.546,17.57
04.562,15.71
04.578,14.21
04.593,12.77
04.609,11.02
04.625,8.65
04.640,5.52
04.656,1.75
04.671,-2.38
04.687,-6.49
04.703,-10.22
04.718,-13.4
04.734,-16.05
04.750,-18.4
04.765,-20.84
04.781,-23.75
04.796,-27.42
04.812,-31.92
04.828,-36.91
04.843,-41.63
04.859,-45.09
04.875,-46.21
04.890,-44.19
04.906,-38.83
04.921,-30.52
04.937,-20.2
04.953,-9.07
04.968,1.79
04.984,11.59
05.000,19.88
05.015,26.58
05.031,31.75
05.046,35.54
05.062,38.06
05.078,39.45
05.093,39.91
05.109,39.72
05.125,39.25
05.140,38.87
05.156,38.85
05.171,39.28
05.187,40.07
05.203,40.94
05.218,41.66
05.234,42.06
05.250,42.08
05.265,41.68
05.281,40.72
05.296,39.01
05.312,36.36
05.328,32.74
05.343,28.4
05.359,23.84
05.375,19.61
05.390,16.12
05.406,13.42
05.421,11.19
05.437,8.86
05.453,5.94
05.468,2.11
05.484,-2.56
05.500,-7.75
05.515,-13.06
05.531,-18.16
05.546,-22.96
05.562,-27.63
05.578,-32.5
05.593,-37.86
05.609,-43.86
05.625,-50.26
05.640,-56.47
05.656,-61.59
05.671,-64.65
05.687,-64.82
05.703,-61.68
05.718,-55.35
05.734,-46.46
05.750,-35.98
05.765,-24.99
05.781,-14.36
05.796,-4.66
05.812,3.89
05.828,11.26
05.843,17.46
05.859,22.49
05.875,26.3
05.890,28.91
05.906,30.44
05.921,31.13
05.937,31.32
05.953,31.28
05.968,31.19
05.984,31.1
06.000,31.07
06.015,31.14
06.031,31.36
06.046,31.78
06.062,32.29
06.078,32.72
06.093,32.75
06.109,32.03
06.125,30.29
06.140,27.37
06.156,23.32
06.171,18.42
06.187,13.13
06.203,8.02
06.218,3.53
06.234,-0.12
06.250,-3.14
06.265,-5.96
06.281,-9.08
06.296,-12.81
06.312,-17.12
06.328,-21.61
06.343,-25.71
06.359,-28.98
06.375,-31.22
06.390,-32.49
06.406,-33.04
06.421,-33.15
06.437,-33.06
06.453,-32.84
06.468,-32.33
06.484,-31.07
06.500,-28.51
06.515,-24.12
06.531,-17.7
06.546,-9.59
06.562,-0.58
06.578,8.3
06.593,16.18
06.609,22.63
06.625,27.69
06.640,31.74
06.656,35.23
06.671,38.48
06.687,41.64
06.703,44.8
06.718,47.95
06.734,51.05
06.750,53.93
06.765,56.28
06.781,57.79
06.796,58.26
06.812,57.74
06.828,56.48
06.843,54.85
06.859,53.1
06.875,51.29
06.890,49.39
06.906,47.31
06.921,45.06
06.937,42.77
06.953,40.64
06.968,38.88
06.984,37.67
07.000,37.17
07.015,37.32
07.031,37.93
07.046,38.53
07.062,38.49
07.078,37.22
07.093,34.49
07.109,30.48
07.125,25.91
07.140,21.6
07.156,18.28
07.171,16.16
07.187,14.87
07.203,13.58
07.218,11.28
07.234,7.02
07.250,0.23
07.265,-9.2
07.281,-20.76
07.296,-33.33
07.312,-45.28
07.328,-54.72
07.343,-59.92
07.359,-59.77
07.375,-54.15
07.390,-44.01
07.406,-31.08
07.421,-17.33
07.437,-4.5
07.453,6.27
07.468,14.45
07.484,19.86
07.500,22.55
07.515,22.8
07.531,21.15
07.546,18.56
07.562,16.28
07.578,15.51
07.593,16.98
07.609,20.66
07.625,25.77
07.640,31.01
07.656,35.06
07.671,37.01
07.687,36.43
07.703,33.43
07.718,28.4
07.734,21.8
07.750,14.07
07.765,5.53
07.781,-3.52
07.796,-12.79
07.812,-21.9
07.828,-30.48
07.843,-38.1
07.859,-44.35
07.875,-48.77
07.890,-50.96
07.906,-50.64
07.921,-47.93
07.937,-43.53
07.953,-38.77
07.968,-35.34
07.984,-34.83
08.000,-38.26
08.015,-45.71
08.031,-56.32
08.046,-68.61
08.062,-80.87
08.078,-91.5
08.093,-99.08
08.109,-102.42
08.125,-100.6
08.140,-93.16
08.156,-80.3
08.171,-63.07
08.187,-43.27
08.203,-22.97
08.218,-4.03
08.234,12.35
08.250,25.66
08.265,35.89
08.281,43.13
08.296,47.25
08.312,47.92
08.328,44.75
08.343,37.65
08.359,27.04
08.375,13.9
08.390,-0.41
08.406,-14.51
08.421,-27.18
08.437,-37.58
08.453,-45.13
08.468,-49.41
08.484,-50.1
08.500,-47.01
08.515,-40.26
08.531,-30.55
08.546,-19.22
08.562,-8.11
08.578,0.82
08.593,6.07
08.609,6.87
08.625,3.29
08.640,-4.02
08.656,-14.3
08.671,-26.92
08.687,-41.51
08.703,-57.68
08.718,-74.7
08.734,-91.48
08.750,-106.8
08.765,-119.84
08.781,-130.47
08.796,-139.12
08.812,-146.18
08.828,-151.41
08.843,-153.57
08.859,-150.88
08.875,-141.82
08.890,-126.12
08.906,-105.18
08.921,-81.63
08.937,-58.41
08.953,-37.58
08.968,-19.92
08.984,-5.19
09.000,7.09
09.015,17.0
09.031,24.02
09.046,27.45
09.062,27.03
09.078,23.37
09.093,17.89
09.109,12.29
09.125,7.95
09.140,5.53
09.156,5.0
09.171,5.98
09.187,8.03
09.203,10.75
09.218,13.73
09.234,16.44
09.250,18.22
09.265,18.46
09.281,16.73
09.296,12.93
09.312,7.24
09.328,0.15
09.343,-7.66
09.359,-15.46
09.375,-22.54
09.390,-28.4
09.406,-32.82
09.421,-35.93
09.437,-38.22
09.453,-40.42
09.468,-43.3
09.484,-47.45
09.500,-53.05
09.515,-59.73
09.531,-66.51
09.546,-72.05
09.562,-74.85
09.578,-73.74
09.593,-68.11
09.609,-58.12
09.625,-44.55
09.640,-28.54
09.656,-11.29
09.671,6.15
09.687,22.85
09.703,38.0
09.718,50.75
09.734,60.35
09.750,66.34
09.765,68.74
09.781,68.18
09.796,65.79
09.812,62.91
09.828,60.65
09.843,59.7
09.859,60.19
09.875,61.91
09.890,64.43
09.906,67.35
09.921,70.3
09.937,72.91
09.953,74.77
09.968,75.53
09.984,74.91
10.000,72.83
10.015,69.41
10.031,64.92
10.046,59.6
10.062,53.7
10.078,47.37
10.093,40.69
10.109,33.79
10.125,26.77
10.140,19.65
10.156,12.38
10.171,4.82
10.187,-3.14
10.203,-11.3
10.218,-19.02
10.234,-25.21
10.250,-28.49
10.265,-27.74
10.281,-22.44
10.296,-12.99
10.312,-0.59
10.328,13.12
10.343,26.6
10.359,38.82
10.375,49.33
10.390,58.15
10.406,65.47
10.421,71.35
10.437,75.74
10.453,78.52
10.468,79.7
10.484,79.56
10.500,78.54
10.515,77.21
10.531,76.03
10.546,75.24
10.562,74.87
10.578,74.76
10.593,74.77
10.609,74.84
10.625,75.14
10.640,75.88
10.656,77.24
10.671,79.21
10.687,81.46
10.703,83.4
10.718,84.34
10.734,83.76
10.750,81.52
10.765,77.91
10.781,73.47
10.796,68.8
10.812,64.26
10.828,59.91
10.843,55.57
10.859,51.0
10.875,45.96
10.890,40.25
10.906,33.65
10.921,25.86
10.937,16.77
10.953,6.71
10.968,-3.27
10.984,-11.47
11.000,-16.05
11.015,-15.71
11.031,-10.38
11.046,-1.29
11.062,9.47
11.078,19.79
11.093,28.25
11.109,34.54
11.125,39.27
11.140,43.42
11.156,47.74
11.171,52.57
11.187,57.75
11.203,62.88
11.218,67.59
11.234,71.53
11.250,74.36
11.265,75.75
11.281,75.44
11.296,73.32
11.312,69.57
11.328,64.61
11.343,58.85
11.359,52.48
11.375,45.2
11.390,36.39
11.406,25.42
11.421,12.05
11.437,-3.32
11.453,-19.78
11.468,-36.16
11.484,-51.45
11.500,-64.93
11.515,-76.15
11.531,-84.76
11.546,-90.46
11.562,-93.22
11.578,-93.54
11.593,-92.61
11.609,-92.06
11.625,-93.35
11.640,-97.12
11.656,-102.83
11.671,-109.01
11.687,-113.81
11.703,-115.66
11.718,-113.65
11.734,-107.41
11.750,-96.96
11.765,-82.41
11.781,-64.07
11.796,-42.59
11.812,-19.02
11.828,5.3
11.843,28.99
11.859,51.08
11.875,71.09
11.890,89.08
11.906,105.36
11.921,120.32
11.937,134.34
11.953,147.79
11.968,161.11
11.984,174.86
12.000,189.57
12.015,205.52
12.031,222.34
12.046,238.78
12.062,252.8
12.078,262.01
12.093,264.39
12.109,259.04
12.125,246.49
12.140,228.51
12.156,207.46
12.171,185.35
12.187,163.33
12.203,141.52
12.218,119.4
12.234,96.38
12.250,72.14
12.265,46.81
12.281,20.65
12.296,-6.22
12.312,-33.97
12.328,-63.11
12.343,-94.18
12.359,-127.48
12.375,-162.72
12.390,-198.92
12.406,-234.51
12.421,-267.79
12.437,-297.26
12.453,-322.03
12.468,-341.86
12.484,-356.93
12.500,-367.36
12.515,-372.72
12.531,-371.97
12.546,-363.88
12.562,-347.79
12.578,-324.4
12.593,-296.02
12.609,-266.16
12.625,-238.54
12.640,-216.05
12.656,-199.97
12.671,-189.94
12.687,-184.3
12.703,-180.68
12.718,-176.51
12.734,-169.35
12.750,-157.28
12.765,-139.25
12.781,-115.51
12.796,-87.75
12.812,-58.75
12.828,-31.7
12.843,-9.24
12.859,7.13
12.875,17.33
12.890,22.37
12.906,23.93
12.921,23.76
12.937,23.34
12.953,23.69
12.968,25.26
12.984,27.86
13.000,30.7
13.015,32.68
13.031,32.84
13.046,30.84
13.062,27.2
13.078,23.12
13.093,20.05
13.109,19.04
13.125,20.43
13.140,23.9
13.156,29.0
13.171,35.61
13.187,44.27
13.203,55.92
13.218,71.39
13.234,91.02
13.250,114.47
13.265,141.01
13.281,169.67
13.296,199.15
13.312,227.36
13.328,251.2
13.343,267.19
13.359,272.69
13.375,267.45
13.390,254.29
13.406,238.41
13.421,225.34
13.437,218.67
13.453,218.68
13.468,222.7
13.484,226.76
13.500,227.57
13.515,223.64
13.531,215.1
13.546,202.6
13.562,186.31
13.578,165.63
13.593,139.79
13.609,108.75
13.625,73.78
13.640,37.08
13.656,1.11
13.671,-32.45
13.687,-63.02
13.703,-90.96
13.718,-117.07
13.734,-142.0
13.750,-166.11
13.765,-189.56
13.781,-212.62
13.796,-235.76
13.812,-259.58
13.828,-284.49
13.843,-310.16
13.859,-335.0
13.875,-355.81
13.890,-368.15
13.906,-367.46
13.921,-350.85
13.937,-318.64
13.953,-275.01
13.968,-227.06
13.984,-182.5
14.000,-146.95
14.015,-122.2
14.031,-106.24
14.046,-95.03
14.062,-84.9
14.078,-74.19
14.093,-63.63
14.109,-55.09
14.125,-50.06
14.140,-48.62
14.156,-49.42
14.171,-50.57
14.187,-50.67
14.203,-49.33
14.218,-47.03
14.234,-44.54
14.250,-42.33
14.265,-40.29
14.281,-38.04
14.296,-35.37
14.312,-32.59
14.328,-30.47
14.343,-29.97
14.359,-31.68
14.375,-35.63
14.390,-41.31
14.406,-47.82
14.421,-54.41
14.437,-60.72
14.453,-67.07
14.468,-74.14
14.484,-82.83
14.500,-93.58
14.515,-105.93
14.531,-118.4
14.546,-128.67
14.562,-134.39
14.578,-133.87
14.593,-126.73
14.609,-113.91
14.625,-97.27
14.640,-78.85
14.656,-60.34
14.671,-42.82
14.687,-26.87
14.703,-12.73
14.718,-0.47
14.734,10.01
14.750,18.97
14.765,26.74
14.781,33.61
14.796,39.56
14.812,44.38
14.828,47.74
14.843,49.47
14.859,49.77
14.875,49.14
14.890,48.25
14.906,47.67
14.921,47.68
14.937,48.23
14.953,48.98
14.968,49.47
14.984,49.2
15.000,47.76
15.015,44.9
15.031,40.59
15.046,35.0
15.062,28.51
15.078,21.6
15.093,14.73
15.109,8.26
15.125,2.24
15.140,-3.5
15.156,-9.4
15.171,-15.99
15.187,-23.74
15.203,-32.91
15.218,-43.34
15.234,-54.3
15.250,-64.46
15.265,-72.09
15.281,-75.4
15.296,-73.08
15.312,-64.71
15.328,-50.98
15.343,-33.4
15.359,-13.91
15.375,5.78
15.390,24.5
15.406,41.73
15.421,57.27
15.437,71.0
15.453,82.67
15.468,91.94
15.484,98.6
15.500,102.73
15.515,104.78
15.531,105.4
15.546,105.27
15.562,104.89
15.578,104.51
15.593,104.24
15.609,104.14
15.625,104.33
15.640,104.91
15.656,105.9
15.671,107.13
15.687,108.23
15.703,108.76
15.718,108.4
15.734,107.11
15.750,105.14
15.765,102.95
15.781,100.93
15.796,99.29
15.812,97.97
15.828,96.76
15.843,95.49
15.859,94.15
15.875,92.91
15.890,92.06
15.906,91.83
15.921,92.23
15.937,93.05
15.953,93.98
15.968,94.6
15.984,94.73
16.000,94.36
16.015,93.74
16.031,93.34
16.046,93.71
16.062,95.37
16.078,98.64
16.093,103.37
16.109,108.77
16.125,113.42
16.140,115.51
16.156,113.52
16.171,106.75
16.187,95.8
16.203,82.51
16.218,69.34
16.234,58.61
16.250,51.71
16.265,48.84
16.281,49.0
16.296,50.64
16.312,52.05
16.328,51.84
16.343,49.16
16.359,43.78
16.375,36.24
16.390,27.74
16.406,20.01
16.421,14.84
16.437,13.45
16.453,15.94
16.468,21.13
16.484,26.85
16.500,30.72
16.515,31.09
16.531,27.49
16.546,20.68
16.562,12.11
16.578,3.28
16.593,-4.71
16.609,-11.28
16.625,-16.37
16.640,-20.41
16.656,-24.36
16.671,-29.73
16.687,-38.15
16.703,-50.6
16.718,-66.72
16.734,-84.59
16.750,-101.15
16.765,-113.47
16.781,-119.93
16.796,-120.8
16.812,-117.83
16.828,-113.03
16.843,-107.5
16.859,-100.97
16.875,-92.28
16.890,-80.44
16.906,-65.57
16.921,-49.27
16.937,-34.11
16.953,-22.7
16.968,-16.82
16.984,-17.09
17.000,-23.33
17.015,-35.16
17.031,-52.29
17.046,-74.44
17.062,-100.58
17.078,-128.49
17.093,-154.66
17.109,-175.09
17.125,-186.51
17.140,-187.5
17.156,-178.95
17.171,-163.7
17.187,-145.56
17.203,-127.96
17.218,-113.01
17.234,-101.12
17.250,-91.4
17.265,-82.42
17.281,-73.12
17.296,-63.43
17.312,-54.25
17.328,-46.98
17.343,-42.68
17.359,-41.43
17.375,-42.27
17.390,-43.65
17.406,-44.25
17.421,-43.55
17.437,-41.88
17.453,-39.94
17.468,-38.2
17.484,-36.57
17.500,-34.46
17.515,-31.26
17.531,-26.76
17.546,-21.33
17.562,-15.82
17.578,-11.21
17.593,-8.2
17.609,-7.06
17.625,-7.53
17.640,-8.96
17.656,-10.4
17.671,-10.85
17.687,-9.43
17.703,-5.7
17.718,0.08
17.734,6.95
17.750,13.47
17.765,18.15
17.781,19.99
17.796,18.85
17.812,15.4
17.828,10.88
17.843,6.6
17.859,3.44
17.875,1.75
17.890,1.44
17.906,2.37
17.921,4.56
17.937,8.21
17.953,13.46
17.968,20.13
17.984,27.51
18.000,34.59
18.015,40.44
18.031,44.57
18.046,47.17
18.062,48.86
18.078,50.3
18.093,51.82
18.109,53.31
18.125,54.26
18.140,54.16
18.156,52.72
18.171,50.06
18.187,46.59
18.203,42.88
18.218,39.45
18.234,36.6
18.250,34.39
18.265,32.65
18.281,31.05
18.296,29.09
18.312,26.18
18.328,21.77
18.343,15.53
18.359,7.64
18.375,-1.01
18.390,-8.97
18.406,-14.45
18.421,-15.85
18.437,-12.32
18.453,-4.01
18.468,8.03
18.484,22.16
18.500,36.71
18.515,50.37
18.531,62.26
18.546,72.01
18.562,79.39
18.578,84.26
18.593,86.49
18.609,86.15
18.625,83.5
18.640,79.17
18.656,74.0
18.671,68.86
18.687,64.51
18.703,61.4
18.718,59.63
18.734,59.01
18.750,59.24
18.765,60.0
18.781,61.14
18.796,62.61
18.812,64.38
18.828,66.32
18.843,68.08
18.859,69.15
18.875,69.01
18.890,67.33
18.906,64.13
18.921,59.72
18.937,54.63
18.953,49.38
18.968,44.38
18.984,39.75
19.000,35.39
19.015,30.98
19.031,26.03
19.046,20.07
19.062,12.91
19.078,4.91
19.093,-2.86
19.109,-8.69
19.125,-10.62
19.140,-7.07
19.156,2.66
19.171,17.99
19.187,37.16
19.203,57.63
19.218,76.8
19.234,92.63
19.250,104.16
19.265,111.55
19.281,115.72
19.296,117.83
19.312,118.66
19.328,118.35
19.343,116.5
19.359,112.67
19.375,106.83
19.390,99.71
19.406,92.75
19.421,87.57
19.437,85.4
19.453,86.53
19.468,90.19
19.484,94.7
19.500,97.95
19.515,97.96
19.531,93.37
19.546,83.73
19.562,69.51
19.578,52.02
19.593,33.15
19.609,15.06
19.625,-0.16
19.640,-10.92
19.656,-16.52
19.671,-17.37
19.687,-14.93
19.703,-11.32
19.718,-8.75
19.734,-9.05
19.750,-13.53
19.765,-23.03
19.781,-37.94
19.796,-57.9
19.812,-81.34
19.828,-105.14
19.843,-125.07
19.859,-136.77
19.875,-137.27
19.890,-126.05
19.906,-105.14
19.921,-78.3
19.937,-49.81
19.953,-23.45
19.968,-2.08
19.984,12.6
20.000,20.2
20.015,21.71
20.031,19.35
20.046,15.81
20.062,13.21
20.078,12.18
20.093,11.78
20.109,10.3
20.125,6.54
20.140,0.56
20.156,-6.45
20.171,-13.19
20.187,-19.25
20.203,-25.39
20.218,-32.77
20.234,-41.74
20.250,-51.17
20.265,-58.65
20.281,-61.74
20.296,-59.35
20.312,-52.43
20.328,-43.72
20.343,-36.55
20.359,-33.36
20.375,-34.82
20.390,-39.67
20.406,-45.66
20.421,-50.58
20.437,-53.33
20.453,-54.14
20.468,-54.24
20.484,-55.15
20.500,-57.95
20.515,-62.86
20.531,-69.21
20.546,-75.61
20.562,-80.3
20.578,-81.59
20.593,-78.28
20.609,-70.01
20.625,-57.24
20.640,-41.07
20.656,-22.6
20.671,-2.6
20.687,18.44
20.703,40.03
20.718,61.04
20.734,79.65
20.750,93.7
20.765,101.51
20.781,102.67
20.796,98.28
20.812,90.48
20.828,81.48
20.843,72.78
20.859,64.87
20.875,57.46
20.890,50.01
20.906,42.14
20.921,33.78
20.937,25.07
20.953,16.16
20.968,7.12
20.984,-2.05
21.000,-11.35
21.015,-20.69
21.031,-29.75
21.046,-38.01
21.062,-44.77
21.078,-49.33
21.093,-51.32
21.109,-51.0
21.125,-49.38
21.140,-48.12
21.156,-49.05
21.171,-53.64
21.187,-62.55
21.203,-75.64
21.218,-92.04
21.234,-110.33
21.250,-128.59
21.265,-144.49
21.281,-155.61
21.296,-159.93
21.312,-156.41
21.328,-145.44
21.343,-128.74
21.359,-108.83
21.375,-88.21
21.390,-68.67
21.406,-50.96
21.421,-35.01
21.437,-20.38
21.453,-6.7
21.468,6.02
21.484,17.5
21.500,27.27
21.515,34.91
21.531,40.18
21.546,43.11
21.562,44.05
21.578,43.51
21.593,42.04
21.609,40.09
21.625,37.89
21.640,35.31
21.656,32.0
21.671,27.46
21.687,21.32
21.703,13.51
21.718,4.37
21.734,-5.4
21.750,-14.97
21.765,-23.57
21.781,-30.71
21.796,-36.25
21.812,-40.34
21.828,-43.31
21.843,-45.45
21.859,-46.99
21.875,-48.16
21.890,-49.16
21.906,-50.24
21.921,-51.45
21.937,-52.57
21.953,-52.89
21.968,-51.36
21.984,-46.89
22.000,-38.74
22.015,-26.91
22.031,-12.23
22.046,3.88
22.062,19.87
22.078,34.56
22.093,47.37
22.109,58.26
22.125,67.43
22.140,74.97
22.156,80.75
22.171,84.41
22.187,85.64
22.203,84.33
22.218,80.79
22.234,75.6
22.250,69.5
22.265,63.19
22.281,57.18
22.296,51.84
22.312,47.39
22.328,43.92
22.343,41.36
22.359,39.51
22.375,37.93
22.390,36.05
22.406,33.31
22.421,29.33
22.437,23.99
22.453,17.48
22.468,10.26
22.484,2.85
22.500,-4.27
22.515,-10.88
22.531,-17.01
22.546,-22.98
22.562,-29.17
22.578,-35.75
22.593,-42.48
22.609,-48.63
22.625,-53.03
22.640,-54.43
22.656,-51.93
22.671,-45.25
22.687,-34.94
22.703,-22.23
22.718,-8.66
22.734,4.31
22.750,15.63
22.765,24.75
22.781,31.56
22.796,36.16
22.812,38.75
22.828,39.48
22.843,38.49
22.859,35.99
22.875,32.28
22.890,27.8
22.906,23.11
22.921,18.76
22.937,15.23
22.953,12.8
22.968,11.52
22.984,11.23
23.000,11.62
23.015,12.33
23.031,13.03
23.046,13.5
23.062,13.56
23.078,13.13
23.093,12.2
23.109,10.83
23.125,9.1
23.140,7.15
23.156,5.04
23.171,2.72
23.187,0.1
23.203,-2.97
23.218,-6.43
23.234,-9.91
23.250,-12.65
23.265,-13.61
23.281,-11.75
23.296,-6.33
23.312,2.78
23.328,15.14
23.343,29.87
23.359,45.99
23.375,62.6
23.390,78.99
23.406,94.53
23.421,108.64
23.437,120.75
23.453,130.48
23.468,137.79
23.484,143.05
23.500,146.98
23.515,150.39
23.531,153.87
23.546,157.52
23.562,160.91
23.578,163.01
23.593,162.44
23.609,157.81
23.625,148.35
23.640,134.26
23.656,116.85
23.671,97.92
23.687,78.95
23.703,60.51
23.718,42.24
23.734,23.55
23.750,4.5
23.765,-13.97
23.781,-30.38
23.796,-43.65
23.812,-53.82
23.828,-61.84
23.843,-68.61
23.859,-74.1
23.875,-77.26
23.890,-77.03
23.906,-73.47
23.921,-68.04
23.937,-62.75
23.953,-58.67
23.968,-55.18
23.984,-50.32
24.000,-42.41
24.015,-31.43
24.031,-19.38
24.046,-9.23
24.062,-3.29
24.078,-2.1
24.093,-4.53
24.109,-9.02
24.125,-14.62
24.140,-21.36
24.156,-29.67
24.171,-39.42
24.187,-49.46
24.203,-57.94
24.218,-63.26
24.234,-64.81
24.250,-63.2
24.265,-59.97
24.281,-56.92
24.296,-55.43
24.312,-56.21
24.328,-59.21
24.343,-63.96
24.359,-69.88
24.375,-76.46
24.390,-83.35
24.406,-90.32
24.421,-97.22
24.437,-103.84
24.453,-110.02
24.468,-115.7
24.484,-120.9
24.500,-125.65
24.515,-129.81
24.531,-132.91
24.546,-134.17
24.562,-132.69
24.578,-127.67
24.593,-118.74
24.609,-106.09
24.625,-90.43
24.640,-72.83
24.656,-54.5
24.671,-36.56
24.687,-19.89
24.703,-5.05
24.718,7.73
24.734,18.39
24.750,27.03
24.765,33.73
24.781,38.56
24.796,41.58
24.812,42.92
24.828,42.79
24.843,41.47
24.859,39.29
24.875,36.48
24.890,33.2
24.906,29.56
24.921,25.72
24.937,21.84
24.953,18.07
24.968,14.49
24.984,11.0
25.000,7.47
25.015,3.72
25.031,-0.37
25.046,-4.76
25.062,-9.31
25.078,-13.88
25.093,-18.33
25.109,-22.63
25.125,-26.9
25.140,-31.42
25.156,-36.61
25.171,-42.87
25.187,-50.34
25.203,-58.68
25.218,-66.9
25.234,-73.54
25.250,-77.0
25.265,-76.17
25.281,-70.75
25.296,-61.35
25.312,-49.28
25.328,-35.94
25.343,-22.52
25.359,-9.71
25.375,2.17
25.390,12.99
25.406,22.58
25.421,30.69
25.437,37.06
25.453,41.57
25.468,44.27
25.484,45.38
25.500,45.2
25.515,44.12
25.531,42.47
25.546,40.47
25.562,38.31
25.578,36.02
25.593,33.63
25.609,31.23
25.625,28.99
25.640,27.19
25.656,26.12
25.671,26.03
25.687,26.99
25.703,29.0
25.718,31.89
25.734,35.43
25.750,39.23
25.765,42.79
25.781,45.43
25.796,46.49
25.812,45.39
25.828,41.78
25.843,35.64
25.859,27.16
25.875,16.71
25.890,4.78
25.906,-7.83
25.921,-19.96
25.937,-29.97
25.953,-36.05
25.968,-36.77
25.984,-31.52
26.000,-20.91
26.015,-6.61
26.031,9.15
26.046,24.31
26.062,37.51
26.078,48.38
26.093,57.29
26.109,65.03
26.125,72.36
26.140,79.76
26.156,87.34
26.171,94.75
26.187,101.2
26.203,105.56
26.218,106.62
26.234,103.64
26.250,96.82
26.265,87.53
26.281,77.98
26.296,70.44
26.312,66.32
26.328,65.47
26.343,66.2
26.359,65.97
26.375,62.32
26.390,53.72
26.406,39.95
26.421,21.9
26.437,0.92
26.453,-21.77
26.468,-45.55
26.484,-70.55
26.500,-97.55
26.515,-127.6
26.531,-161.42
26.546,-198.59
26.562,-236.96
26.578,-272.37
26.593,-299.24
26.609,-311.96
26.625,-306.82
26.640,-283.55
26.656,-245.91
26.671,-200.76
26.687,-156.06
26.703,-118.47
26.718,-91.71
26.734,-76.09
26.750,-69.35
26.765,-68.19
26.781,-69.48
26.796,-71.0
26.812,-71.29
26.828,-69.18
26.843,-63.47
26.859,-53.02
26.875,-37.31
26.890,-17.12
26.906,5.35
26.921,26.98
26.937,44.64
26.953,56.31
26.968,61.6
26.984,61.62
27.000,58.15
27.015,52.68
27.031,45.86
27.046,37.58
27.062,27.57
27.078,16.02
27.093,3.9
27.109,-7.37
27.125,-16.38
27.140,-22.38
27.156,-25.4
27.171,-26.11
27.187,-25.44
27.203,-24.28
27.218,-23.3
27.234,-23.02
27.250,-23.81
27.265,-25.84
27.281,-29.02
27.296,-32.73
27.312,-35.87
27.328,-37.08
27.343,-35.11
27.359,-29.26
27.375,-19.45
27.390,-6.18
27.406,9.85
27.421,28.01
27.437,47.85
27.453,68.88
27.468,90.51
27.484,112.1
27.500,133.21
27.515,153.85
27.531,174.25
27.546,194.25
27.562,212.62
27.578,226.73
27.593,233.13
27.609,228.77
27.625,212.42
27.640,185.41
27.656,151.35
27.671,114.97
27.687,80.73
27.703,51.94
27.718,30.63
27.734,17.99
27.750,14.63
27.765,20.26
27.781,33.07
27.796,49.17
27.812,63.0
27.828,68.74
27.843,62.19
27.859,42.27
27.875,11.45
27.890,-25.34
27.906,-62.51
27.921,-95.53
27.937,-121.77
27.953,-140.27
27.968,-150.95
27.984,-153.94
28.000,-149.42
28.015,-137.98
28.031,-121.01
28.046,-100.69
28.062,-79.52
28.078,-59.55
28.093,-41.93
28.109,-26.75
28.125,-13.31
28.140,-0.57
28.156,12.62
28.171,27.32
28.187,44.35
28.203,63.87
28.218,84.89
28.234,105.0
28.250,120.73
28.265,128.5
28.281,126.04
28.296,113.27
28.312,92.64
28.328,68.39
28.343,45.31
28.359,27.44
28.375,17.3
28.390,15.68
28.406,21.89
28.421,34.1
28.437,49.51
28.453,64.58
28.468,75.32
28.484,78.13
28.500,70.62
28.515,52.51
28.531,25.81
28.546,-5.67
28.562,-37.37
28.578,-65.03
28.593,-85.35
28.609,-96.26
28.625,-96.72
28.640,-86.97
28.656,-68.89
28.671,-46.49
28.687,-25.72
28.703,-13.21
28.718,-14.19
28.734,-30.32
28.750,-58.66
28.765,-92.19
28.781,-122.02
28.796,-140.11
28.812,-141.54
28.828,-125.35
28.843,-93.91
28.859,-51.53
28.875,-3.02
28.890,46.97
28.906,94.02
28.921,133.59
28.937,161.21
28.953,173.18
28.968,167.69
28.984,145.94
29.000,112.3
29.015,73.52
29.031,37.06
29.046,9.34
29.062,-5.54
29.078,-6.39
29.093,5.33
29.109,25.89
29.125,50.03
29.140,71.89
29.156,86.15
29.171,89.43
29.187,81.11
29.203,63.44
29.218,40.54
29.234,17.0
29.250,-3.54
29.265,-18.86
29.281,-28.06
29.296,-31.05
29.312,-28.29
29.328,-21.08
29.343,-11.89
29.359,-4.28
29.375,-2.05
29.390,-8.0
29.406,-22.86
29.421,-44.98
29.437,-70.94
29.453,-96.55
29.468,-117.66
29.484,-130.55
29.500,-132.21
29.515,-120.95
29.531,-97.23
29.546,-64.42
29.562,-28.57
29.578,2.98
29.593,23.98
29.609,31.5
29.625,26.82
29.640,14.57
29.656,0.56
29.671,-10.51
29.687,-16.33
29.703,-17.03
29.718,-14.18
29.734,-9.71
29.750,-5.32
29.765,-2.38
29.781,-2.11
29.796,-5.62
29.812,-13.5
29.828,-25.41
29.843,-39.9
29.859,-54.66
29.875,-67.13
29.890,-75.42
29.906,-78.93
29.921,-78.66
29.937,-76.89
29.953,-76.51
29.968,-80.12
29.984,-89.23
30.000,-103.82
30.015,-122.38
30.031,-142.45
30.046,-161.45
30.062,-177.4
30.078,-189.49
30.093,-198.15
30.109,-204.77
30.125,-211.28
30.140,-219.45
30.156,-230.29
30.171,-243.42
30.187,-256.68
30.203,-266.4
30.218,-268.24
30.234,-258.5
30.250,-235.38
30.265,-199.63
30.281,-154.29
30.296,-103.7
30.312,-52.2
30.328,-3.02
30.343,42.05
30.359,82.49
30.375,118.44
30.390,150.05
30.406,177.15
30.421,199.15
30.437,215.1
30.453,224.01
30.468,225.19
30.484,218.51
30.500,204.62
30.515,184.96
30.531,161.47
30.546,136.39
30.562,112.03
30.578,90.64
30.593,74.35
30.609,65.01
30.625,63.85
30.640,71.16
30.656,85.91
30.671,105.59
30.687,126.4
30.703,143.69
30.718,152.79
30.734,150.03
30.750,133.65
30.765,104.35
30.781,65.05
30.796,20.04
30.812,-26.37
30.828,-70.91
30.843,-111.67
30.859,-147.42
30.875,-176.5
30.890,-195.95
30.906,-201.66
30.921,-189.85
30.937,-159.02
30.953,-111.74
30.968,-54.77
30.984,2.31
31.000,49.93
31.015,81.32
31.031,94.21
31.046,90.74
31.062,76.02
31.078,55.91
31.093,35.23
31.109,16.96
31.125,2.3
31.140,-8.59
31.156,-15.88
31.171,-19.81
31.187,-20.69
31.203,-19.13
31.218,-16.17
31.234,-13.13
31.250,-11.16
31.265,-10.87
31.281,-12.08
31.296,-13.89
31.312,-15.06
31.328,-14.67
31.343,-12.61
31.359,-9.75
31.375,-7.7
31.390,-8.21
31.406,-12.35
31.421,-20.02
31.437,-29.95
31.453,-40.2
31.468,-48.95
31.484,-55.24
31.500,-59.35
31.515,-62.56
31.531,-66.56
31.546,-72.82
31.562,-82.02
31.578,-93.83
31.593,-107.04
31.609,-119.67
31.625,-129.37
31.640,-133.84
31.656,-131.35
31.671,-121.17
31.687,-103.82
31.703,-80.82
31.718,-54.1
31.734,-25.35
31.750,4.59
31.765,35.65
31.781,68.15
31.796,101.96
31.812,135.88
31.828,167.32
31.843,192.81
31.859,208.89
31.875,213.23
31.890,205.42
31.906,187.06
31.921,161.28
31.937,131.71
31.953,101.69
31.968,73.64
31.984,49.17
32.000,29.34
32.015,15.0
32.031,6.96
32.046,5.74
32.062,11.17
32.078,22.12
32.093,36.45
32.109,51.24
32.125,63.45
32.140,70.55
32.156,71.19
32.171,65.44
32.187,54.64
32.203,40.82
32.218,25.94
32.234,11.28
32.250,-2.85
32.265,-16.87
32.281,-31.39
32.296,-46.63
32.312,-61.82
32.328,-75.04
32.343,-83.55
32.359,-84.48
32.375,-75.95
32.390,-57.99
32.406,-32.93
32.421,-4.92
32.437,21.22
32.453,41.47
32.468,53.71
32.484,58.02
32.500,56.12
32.515,50.37
32.531,42.77
32.546,34.63
32.562,26.58
32.578,19.11
32.593,12.8
32.609,8.37
32.625,6.38
32.640,6.87
32.656,9.17
32.671,12.08
32.687,14.34
32.703,15.13
32.718,14.37
32.734,12.67
32.750,10.98
32.765,10.05
32.781,10.04
32.796,10.45
32.812,10.31
32.828,8.72
32.843,5.19
32.859,-0.14
32.875,-6.55
32.890,-13.11
32.906,-19.1
32.921,-24.22
32.937,-28.74
32.953,-33.27
32.968,-38.5
32.984,-45.01
33.000,-53.16
33.015,-63.01
33.031,-74.27
33.046,-86.19
33.062,-97.32
33.078,-105.63
33.093,-108.88
33.109,-105.22
33.125,-93.93
33.140,-75.76
33.156,-52.78
33.171,-27.73
33.187,-3.15
33.203,19.22
33.218,38.66
33.234,55.03
33.250,68.45
33.265,78.79
33.281,85.83
33.296,89.43
33.312,89.8
33.328,87.71
33.343,84.27
33.359,80.65
33.375,77.66
33.390,75.59
33.406,74.18
33.421,72.89
33.437,71.22
33.453,68.98
33.468,66.34
33.484,63.71
33.500,61.42
33.515,59.5
33.531,57.62
33.546,55.13
33.562,51.36
33.578,45.94
33.593,38.9
33.609,30.72
33.625,22.12
33.640,13.86
33.656,6.51
33.671,0.32
33.687,-4.89
33.703,-9.69
33.718,-15.02
33.734,-22.03
33.750,-31.76
33.765,-44.68
33.781,-60.42
33.796,-77.45
33.812,-93.27
33.828,-104.97
33.843,-109.93
33.859,-106.59
33.875,-94.92
33.890,-76.39
33.906,-53.47
33.921,-29.06
33.937,-5.69
33.953,14.85
33.968,31.66
33.984,44.54
34.000,53.73
34.015,59.7
34.031,62.92
34.046,63.93
34.062,63.28
34.078,61.55
34.093,59.3
34.109,56.98
34.125,54.93
34.140,53.28
34.156,52.05
34.171,51.15
34.187,50.48
34.203,49.85
34.218,49.02
34.234,47.72
34.250,45.6
34.265,42.39
34.281,37.9
34.296,32.18
34.312,25.5
34.328,18.44
34.343,11.7
34.359,5.85
34.375,0.96
34.390,-3.68
34.406,-9.64
34.421,-18.93
34.437,-33.2
34.453,-53.02
34.468,-77.27
34.484,-103.5
34.500,-128.71
34.515,-150.4
34.531,-167.23
34.546,-178.93
34.562,-185.72
34.578,-187.62
34.593,-184.22
34.609,-175.09
34.625,-160.43
34.640,-141.56
34.656,-120.66
34.671,-100.1
34.687,-81.52
34.703,-65.37
34.718,-51.15
34.734,-38.05
34.750,-25.71
34.765,-14.54
34.781,-5.4
34.796,0.85
34.812,4.02
34.828,4.7
34.843,4.03
34.859,3.3
34.875,3.5
34.890,5.08
34.906,8.08
34.921,12.3
34.937,17.51
34.953,23.53
34.968,30.18
34.984,37.27
35.000,44.57
35.015,51.94
35.031,59.26
35.046,66.48
35.062,73.46
35.078,79.95
35.093,85.69
35.109,90.43
35.125,94.12
35.140,96.85
35.156,98.69
35.171,99.57
35.187,99.18
35.203,97.13
35.218,93.1
35.234,87.04
35.250,79.11
35.265,69.6
35.281,58.81
35.296,47.0
35.312,34.63
35.328,22.48
35.343,11.68
35.359,3.46
35.375,-1.26
35.390,-2.17
35.406,0.34
35.421,5.44
35.437,12.19
35.453,19.88
35.468,28.14
35.484,36.71
35.500,45.16
35.515,52.73
35.531,58.45
35.546,61.46
35.562,61.48
35.578,58.98
35.593,55.03
35.609,50.89
35.625,47.48
35.640,45.07
35.656,43.25
35.671,41.25
35.687,38.34
35.703,34.15
35.718,28.68
35.734,22.17
35.750,14.82
35.765,6.65
35.781,-2.42
35.796,-12.45
35.812,-23.26
35.828,-34.44
35.843,-45.37
35.859,-55.37
35.875,-63.87
35.890,-70.34
35.906,-74.46
35.921,-76.1
35.937,-75.49
35.953,-73.22
35.968,-70.24
35.984,-67.45
36.000,-65.49
36.015,-64.45
36.031,-63.69
36.046,-62.12
36.062,-58.42
36.078,-51.44
36.093,-40.43
36.109,-25.38
36.125,-6.98
36.140,13.32
36.156,33.66
36.171,52.13
36.187,67.29
36.203,78.44
36.218,85.62
36.234,89.52
36.250,91.0
36.265,90.84
36.281,89.57
36.296,87.53
36.312,84.98
36.328,82.2
36.343,79.43
36.359,76.85
36.375,74.44
36.390,72.05
36.406,69.55
36.421,66.87
36.437,64.13
36.453,61.57
36.468,59.36
36.484,57.48
36.500,55.69
36.515,53.59
36.531,50.77
36.546,47.07
36.562,42.49
36.578,37.19
36.593,31.32
36.609,24.89
36.625,17.74
36.640,9.63
36.656,0.24
36.671,-10.67
36.687,-23.14
36.703,-36.83
36.718,-50.9
36.734,-63.95
36.750,-74.33
36.765,-80.52
36.781,-81.63
36.796,-77.73
36.812,-69.8
36.828,-59.29
36.843,-47.52
36.859,-35.21
36.875,-22.43
36.890,-8.92
36.906,5.32
36.921,19.64
36.937,32.84
36.953,43.7
36.968,51.46
36.984,56.24
37.000,58.85
37.015,60.39
37.031,61.66
37.046,62.92
37.062,64.01
37.078,64.68
37.093,64.97
37.109,65.22
37.125,65.9
37.140,67.14
37.156,68.54
37.171,69.2
37.187,68.11
37.203,64.68
37.218,59.01
37.234,52.0
37.250,44.93
37.265,38.91
37.281,34.45
37.296,31.32
37.312,28.7
37.328,25.59
37.343,21.2
37.359,15.11
37.375,7.26
37.390,-2.02
37.406,-12.13
37.421,-22.07
37.437,-30.57
37.453,-36.21
37.468,-37.84
37.484,-34.86
37.500,-27.51
37.515,-16.69
37.531,-3.63
37.546,10.55
37.562,25.01
37.578,38.99
37.593,51.54
37.609,61.25
37.625,66.46
37.640,65.88
37.656,59.23
37.671,47.7
37.687,33.65
37.703,19.83
37.718,8.3
37.734,-0.12
37.750,-5.91
37.765,-10.2
37.781,-14.03
37.796,-17.86
37.812,-21.51
37.828,-24.6
37.843,-26.82
37.859,-28.24
37.875,-29.15
37.890,-29.82
37.906,-30.46
37.921,-31.14
37.937,-31.95
37.953,-33.08
37.968,-34.81
37.984,-37.4
38.000,-41.01
38.015,-45.63
38.031,-51.09
38.046,-57.21
38.062,-63.84
38.078,-70.94
38.093,-78.64
38.109,-87.13
38.125,-96.5
38.140,-106.48
38.156,-116.26
38.171,-124.46
38.187,-129.4
38.203,-129.63
38.218,-124.47
38.234,-114.3
38.250,-100.45
38.265,-84.66
38.281,-68.52
38.296,-52.96
38.312,-38.26
38.328,-24.39
38.343,-11.35
38.359,0.5
38.375,10.54
38.390,18.2
38.406,23.26
38.421,26.03
38.437,27.19
38.453,27.49
38.468,27.46
38.484,27.3
38.500,26.98
38.515,26.39
38.531,25.55
38.546,24.55
38.562,23.57
38.578,22.67
38.593,21.79
38.609,20.74
38.625,19.36
38.640,17.64
38.656,15.68
38.671,13.62
38.687,11.55
38.703,9.39
38.718,7.03
38.734,4.4
38.750,1.54
38.765,-1.4
38.781,-4.23
38.796,-6.95
38.812,-9.67
38.828,-12.64
38.843,-16.16
38.859,-20.43
38.875,-25.46
38.890,-30.95
38.906,-36.23
38.921,-40.21
38.937,-41.61
38.953,-39.25
38.968,-32.46
38.984,-21.43
39.000,-7.09
39.015,9.14
39.031,25.8
39.046,41.79
39.062,56.49
39.078,69.63
39.093,81.12
39.109,90.83
39.125,98.6
39.140,104.31
39.156,107.97
39.171,109.7
39.187,109.72
39.203,108.19
39.218,105.2
39.234,100.77
39.250,94.88
39.265,87.52
39.281,78.79
39.296,68.85
39.312,57.96
39.328,46.51
39.343,34.99
39.359,23.9
39.375,13.66
39.390,4.47
39.406,-3.78
39.421,-11.47
39.437,-19.13
39.453,-27.08
39.468,-35.3
39.484,-43.34
39.500,-50.6
39.515,-56.59
39.531,-61.19
39.546,-64.76
39.562,-67.96
39.578,-71.46
39.593,-75.71
39.609,-80.86
39.625,-86.69
39.640,-92.76
39.656,-98.34
39.671,-102.43
39.687,-103.86
39.703,-101.53
39.718,-94.73
39.734,-83.53
39.750,-68.86
39.765,-52.26
39.781,-35.46
39.796,-19.86
39.812,-6.24
39.828,5.15
39.843,14.42
39.859,21.71
39.875,27.1
39.890,30.63
39.906,32.48
39.921,33.02
39.937,32.85
39.953,32.55
39.968,32.55
39.984,32.94
40.000,33.52
40.015,33.9
40.031,33.71
40.046,32.79
40.062,31.2
40.078,29.17
40.093,26.92
40.109,24.61
40.125,22.19
40.140,19.45
40.156,16.14
40.171,12.06
40.187,7.24
40.203,1.86
40.218,-3.78
40.234,-9.36
40.250,-14.71
40.265,-19.81
40.281,-24.74
40.296,-29.67
40.312,-34.76
40.328,-40.19
40.343,-46.16
40.359,-52.88
40.375,-60.39
40.390,-68.34
40.406,-75.81
40.421,-81.43
40.437,-83.65
40.453,-81.39
40.468,-74.34
40.484,-63.21
40.500,-49.39
40.515,-34.51
40.531,-19.95
40.546,-6.57
40.562,5.3
40.578,15.61
40.593,24.34
40.609,31.45
40.625,36.81
40.640,40.38
40.656,42.26
40.671,42.78
40.687,42.41
40.703,41.69
40.718,41.04
40.734,40.71
40.750,40.68
40.765,40.72
40.781,40.57
40.796,40.01
40.812,39.02
40.828,37.69
40.843,36.19
40.859,34.57
40.875,32.78
40.890,30.62
40.906,27.86
40.921,24.3
40.937,19.85
40.953,14.6
40.968,8.73
40.984,2.55
41.000,-3.62
41.015,-9.46
41.031,-14.85
41.046,-19.83
41.062,-24.65
41.078,-29.73
41.093,-35.55
41.109,-42.43
41.125,-50.49
41.140,-59.39
41.156,-68.35
41.171,-76.12
41.187,-81.21
41.203,-82.22
41.218,-78.31
41.234,-69.48
41.250,-56.68
41.265,-41.46
41.281,-25.53
41.296,-10.29
41.312,3.44
41.328,15.39
41.343,25.59
41.359,34.1
41.375,40.95
41.390,46.07
41.406,49.53
41.421,51.57
41.437,52.57
41.453,52.89
41.468,52.82
41.484,52.52
41.500,52.08
41.515,51.64
41.531,51.33
41.546,51.34
41.562,51.7
41.578,52.31
41.593,52.85
41.609,52.98
41.625,52.35
41.640,50.8
41.656,48.38
41.671,45.29
41.687,41.82
41.703,38.21
41.718,34.58
41.734,30.91
41.750,27.03
41.765,22.73
41.781,17.84
41.796,12.27
41.812,6.11
41.828,-0.48
41.843,-7.37
41.859,-14.45
41.875,-21.78
41.890,-29.56
41.906,-38.05
41.921,-47.51
41.937,-57.94
41.953,-68.96
41.968,-79.63
41.984,-88.58
42.000,-94.25
42.015,-95.36
42.031,-91.34
42.046,-82.53
42.062,-70.15
42.078,-55.84
42.093,-41.24
42.109,-27.53
42.125,-15.31
42.140,-4.72
42.156,4.33
42.171,11.96
42.187,18.17
42.203,22.94
42.218,26.23
42.234,28.17
42.250,29.03
42.265,29.15
42.281,28.93
42.296,28.63
42.312,28.4
42.328,28.28
42.343,28.21
42.359,28.14
42.375,28.0
42.390,27.72
42.406,27.18
42.421,26.23
42.437,24.79
42.453,22.83
42.468,20.51
42.484,17.96
42.500,15.27
42.515,12.35
42.531,9.0
42.546,4.97
42.562,0.18
42.578,-5.21
42.593,-10.88
42.609,-16.39
42.625,-21.46
42.640,-26.08
42.656,-30.44
42.671,-34.89
42.687,-39.81
42.703,-45.53
42.718,-52.22
42.734,-59.79
42.750,-67.66
42.765,-74.72
42.781,-79.47
42.796,-80.35
42.812,-76.28
42.828,-67.17
42.843,-54.02
42.859,-38.61
42.875,-22.97
42.890,-8.69
42.906,3.43
42.921,13.33
42.937,21.38
42.953,27.95
42.968,33.15
42.984,36.91
43.000,39.18
43.015,40.06
43.031,39.94
43.046,39.28
43.062,38.46
43.078,37.63
43.093,36.66
43.109,35.27
43.125,33.29
43.140,30.68
43.156,27.54
43.171,24.04
43.187,20.29
43.203,16.36
43.218,12.32
43.234,8.27
43.250,4.35
43.265,0.62
43.281,-2.99
43.296,-6.74
43.312,-10.9
43.328,-15.66
43.343,-20.93
43.359,-26.35
43.375,-31.48
43.390,-36.12
43.406,-40.46
43.421,-45.14
43.437,-51.05
43.453,-58.96
43.468,-69.21
43.484,-81.46
43.500,-94.71
43.515,-107.42
43.531,-117.82
43.546,-124.26
43.562,-125.66
43.578,-121.67
43.593,-112.85
43.609,-100.56
43.625,-86.61
43.640,-72.85
43.656,-60.78
43.671,-51.16
43.687,-44.06
43.703,-38.95
43.718,-34.99
43.734,-31.39
43.750,-27.48
43.765,-22.86
43.781,-17.31
43.796,-10.71
43.812,-3.02
43.828,5.68
43.843,15.25
43.859,25.4
43.875,35.85
43.890,46.38
43.906,56.84
43.921,67.19
43.937,77.35
43.953,87.17
43.968,96.34
43.984,104.52
44.000,111.42
44.015,116.96
44.031,121.25
44.046,124.6
44.062,127.37
44.078,129.81
44.093,132.07
44.109,134.08
44.125,135.65
44.140,136.52
44.156,136.34
44.171,134.82
44.187,131.82
44.203,127.4
44.218,121.85
44.234,115.62
44.250,109.1
44.265,102.51
44.281,95.81
44.296,88.74
44.312,81.12
44.328,72.98
44.343,64.74
44.359,56.99
44.375,50.33
44.390,45.05
44.406,40.99
44.421,37.62
44.437,34.27
44.453,30.35
44.468,25.54
44.484,19.82
44.500,13.39
44.515,6.55
44.531,-0.41
44.546,-7.3
44.562,-14.11
44.578,-20.97
44.593,-28.09
44.609,-35.67
44.625,-43.66
44.640,-51.82
44.656,-59.75
44.671,-67.09
44.687,-73.75
44.703,-79.94
44.718,-86.08
44.734,-92.45
44.750,-99.06
44.765,-105.53
44.781,-111.31
44.796,-115.94
44.812,-119.28
44.828,-121.57
44.843,-123.34
44.859,-125.2
44.875,-127.69
44.890,-131.25
44.906,-136.19
44.921,-142.52
44.937,-149.69
44.953,-156.39
44.968,-160.61
44.984,-160.02
45.000,-152.66
45.015,-137.72
45.031,-115.83
45.046,-88.95
45.062,-59.77
45.078,-30.93
45.093,-4.38
45.109,18.83
45.125,38.51
45.140,54.87
45.156,68.15
45.171,78.45
45.187,85.62
45.203,89.46
45.218,89.88
45.234,87.17
45.250,81.91
45.265,74.79
45.281,66.39
45.296,57.01
45.312,46.79
45.328,35.99
45.343,25.26
45.359,15.61
45.375,8.11
45.390,3.22
45.406,0.42
45.421,-1.81
45.437,-5.46
45.453,-12.08
45.468,-22.12
45.484,-34.72
45.500,-48.06
45.515,-60.2
45.531,-69.75
45.546,-76.34
45.562,-80.49
45.578,-83.2
45.593,-85.46
45.609,-88.05
45.625,-91.52
45.640,-96.27
45.656,-102.61
45.671,-110.51
45.687,-119.4
45.703,-127.96
45.718,-134.4
45.734,-136.83
45.750,-133.92
45.765,-125.34
45.781,-111.9
45.796,-95.18
45.812,-77.02
45.828,-58.98
45.843,-42.03
45.859,-26.64
45.875,-12.97
45.890,-1.14
45.906,8.61
45.921,16.02
45.937,21.01
45.953,23.89
45.968,25.28
45.984,25.95
46.000,26.47
46.015,27.12
46.031,27.9
46.046,28.83
46.062,30.15
46.078,32.36
46.093,36.02
46.109,41.43
46.125,48.3
46.140,55.79
46.156,62.7
46.171,67.9
46.187,70.64
46.203,70.62
46.218,67.85
46.234,62.59
46.250,55.18
46.265,46.17
46.281,36.3
46.296,26.47
46.312,17.46
46.328,9.62
46.343,2.76
46.359,-3.7
46.375,-10.26
46.390,-16.97
46.406,-23.09
46.421,-27.38
46.437,-28.58
46.453,-25.87
46.468,-19.25
46.484,-9.36
46.500,2.74
46.515,15.98
46.531,29.4
46.546,42.3
46.562,54.17
46.578,64.67
46.593,73.54
46.609,80.58
46.625,85.65
46.640,88.61
46.656,89.51
46.671,88.64
46.687,86.64
46.703,84.39
46.718,82.77
46.734,82.26
46.750,82.79
46.765,83.71
46.781,84.2
46.796,83.52
46.812,81.25
46.828,77.31
46.843,71.78
46.859,64.65
46.875,55.88
46.890,45.45
46.906,33.63
46.921,21.09
46.937,8.74
46.953,-2.48
46.968,-11.97
46.984,-19.56
47.000,-25.51
47.015,-30.32
47.031,-34.59
47.046,-38.94
47.062,-43.96
47.078,-50.15
47.093,-57.7
47.109,-66.13
47.125,-74.14
47.140,-79.81
47.156,-81.13
47.171,-76.76
47.187,-66.53
47.203,-51.52
47.218,-33.64
47.234,-15.02
47.250,2.65
47.265,18.35
47.281,31.67
47.296,42.63
47.312,51.36
47.328,58.07
47.343,62.93
47.359,66.2
47.375,68.14
47.390,69.1
47.406,69.4
47.421,69.34
47.437,69.11
47.453,68.72
47.468,68.0
47.484,66.58
47.500,64.16
47.515,60.6
47.531,56.02
47.546,50.72
47.562,45.04
47.578,39.15
47.593,32.93
47.609,26.11
47.625,18.37
47.640,9.66
47.656,0.24
47.671,-9.38
47.687,-18.61
47.703,-27.12
47.718,-34.91
47.734,-42.38
47.750,-50.19
47.765,-58.96
47.781,-69.01
47.796,-80.13
47.812,-91.45
47.828,-101.58
47.843,-108.94
47.859,-112.21
47.875,-110.65
47.890,-104.31
47.906,-93.93
47.921,-80.67
47.937,-65.74
47.953,-50.22
47.968,-34.89
47.984,-20.27
48.000,-6.69
48.015,5.67
48.031,16.75
48.046,26.56
48.062,35.11
48.078,42.43
48.093,48.53
48.109,53.5
48.125,57.54
48.140,60.96
48.156,64.09
48.171,67.12
48.187,70.07
48.203,72.8
48.218,75.05
48.234,76.58
48.250,77.15
48.265,76.59
48.281,74.77
48.296,71.61
48.312,67.14
48.328,61.55
48.343,55.2
48.359,48.54
48.375,41.97
48.390,35.59
48.406,29.16
48.421,22.03
48.437,13.39
48.453,2.51
48.468,-10.86
48.484,-26.22
48.500,-42.24
48.515,-56.96
48.531,-68.32
48.546,-74.79
48.562,-75.85
48.578,-72.11
48.593,-64.98
48.609,-56.17
48.625,-47.07
48.640,-38.49
48.656,-30.62
48.671,-23.42
48.687,-16.78
48.703,-10.81
48.718,-5.69
48.734,-1.56
48.750,1.67
48.765,4.36
48.781,7.03
48.796,10.21
48.812,14.2
48.828,18.99
48.843,24.31
48.859,29.74
48.875,34.89
48.890,39.43
48.906,43.18
48.921,45.99
48.937,47.74
48.953,48.27
48.968,47.46
48.984,45.32
49.000,41.92
49.015,37.41
49.031,32.01
49.046,25.89
49.062,19.25
49.078,12.23
49.093,5.05
49.109,-2.22
49.125,-9.55
49.140,-17.16
49.156,-25.37
49.171,-34.61
49.187,-45.15
49.203,-56.92
49.218,-69.32
49.234,-81.13
49.250,-90.75
49.265,-96.55
49.281,-97.46
49.296,-93.26
49.312,-84.62
49.328,-72.9
49.343,-59.57
49.359,-45.81
49.375,-32.38
49.390,-19.61
49.406,-7.7
49.421,3.16
49.437,12.69
49.453,20.6
49.468,26.74
49.484,31.16
49.500,34.16
49.515,36.1
49.531,37.37
49.546,38.22
49.562,38.77
49.578,39.04
49.593,39.06
49.609,38.91
49.625,38.73
49.640,38.69
49.656,38.76
49.671,38.8
49.687,38.48
49.703,37.49
49.718,35.66
49.734,32.94
49.750,29.42
49.765,25.2
49.781,20.34
49.796,14.89
49.812,8.98
49.828,2.85
49.843,-3.23
49.859,-9.03
49.875,-14.5
49.890,-19.78
49.906,-25.13
49.921,-30.85
49.937,-37.19
49.953,-44.29
49.968,-52.22
49.984,-60.9
50.000,-69.95
50.015,-78.57
50.031,-85.57
50.046,-89.46
50.062,-88.95
50.078,-83.4
50.093,-73.07
50.109,-59.1
50.125,-43.17
50.140,-26.91
50.156,-11.52
50.171,2.47
50.187,15.1
50.203,26.54
50.218,36.89
50.234,45.88
50.250,53.07
50.265,58.06
50.281,60.79
50.296,61.59
50.312,61.11
50.328,60.09
50.343,59.09
50.359,58.43
50.375,58.15
50.390,58.1
50.406,58.13
50.421,58.13
50.437,58.06
50.453,57.86
50.468,57.44
50.484,56.53
50.500,54.8
50.515,51.99
50.531,48.01
50.546,43.07
50.562,37.56
50.578,31.93
50.593,26.38
50.609,20.84
50.625,15.03
50.640,8.69
50.656,1.84
50.671,-5.23
50.687,-12.01
50.703,-18.05
50.718,-23.19
50.734,-27.6
50.750,-31.73
50.765,-36.16
50.781,-41.44
50.796,-47.93
50.812,-55.72
50.828,-64.46
50.843,-73.3
50.859,-80.89
50.875,-85.65
50.890,-86.25
50.906,-82.02
50.921,-73.27
50.937,-61.1
50.953,-47.1
50.968,-32.72
50.984,-19.03
51.000,-6.53
51.015,4.7
51.031,14.71
51.046,23.48
51.062,30.88
51.078,36.72
51.093,40.85
51.109,43.31
51.125,44.29
51.140,44.16
51.156,43.35
51.171,42.26
51.187,41.26
51.203,40.58
51.218,40.33
51.234,40.46
51.250,40.8
51.265,41.08
51.281,40.97
51.296,40.14
51.312,38.35
51.328,35.58
51.343,31.98
51.359,27.91
51.375,23.76
51.390,19.81
51.406,16.16
51.421,12.69
51.437,9.11
51.453,5.15
51.468,0.66
51.484,-4.34
51.500,-9.68
51.515,-15.08
51.531,-20.31
51.546,-25.29
51.562,-30.13
51.578,-35.12
51.593,-40.71
51.609,-47.19
51.625,-54.6
51.640,-62.44
51.656,-69.7
51.671,-75.05
51.687,-77.12
51.703,-75.04
51.718,-68.61
51.734,-58.47
51.750,-45.79
51.765,-31.99
51.781,-18.23
51.796,-5.3
51.812,6.37
51.828,16.66
51.843,25.44
51.859,32.56
51.875,37.85
51.890,41.22
51.906,42.83
51.921,43.07
51.937,42.53
51.953,41.77
51.968,41.17
51.984,40.86
52.000,40.76
52.015,40.68
52.031,40.46
52.046,40.07
52.062,39.5
52.078,38.78
52.093,37.81
52.109,36.42
52.125,34.44
52.140,31.79
52.156,28.55
52.171,24.88
52.187,20.92
52.203,16.66
52.218,11.97
52.234,6.71
52.250,0.82
52.265,-5.6
52.281,-12.32
52.296,-19.07
52.312,-25.7
52.328,-32.2
52.343,-38.64
52.359,-45.16
52.375,-51.91
52.390,-58.99
52.406,-66.5
52.421,-74.39
52.437,-82.31
52.453,-89.43
52.468,-94.48
52.484,-96.04
52.500,-92.99
52.515,-85.03
52.531,-72.83
52.546,-57.82
52.562,-41.69
52.578,-25.89
52.593,-11.27
52.609,1.89
52.625,13.61
52.640,23.92
52.656,32.71
52.671,39.77
52.687,44.94
52.703,48.3
52.718,50.14
52.734,50.87
52.750,50.91
52.765,50.56
52.781,49.94
52.796,49.15
52.812,48.22
52.828,47.24
52.843,46.33
52.859,45.57
52.875,44.91
52.890,44.11
52.906,42.79
52.921,40.58
52.937,37.29
52.953,33.05
52.968,28.24
52.984,23.36
53.000,18.75
53.015,14.44
53.031,10.17
53.046,5.56
53.062,0.31
53.078,-5.61
53.093,-11.93
53.109,-18.23
53.125,-24.16
53.140,-29.55
53.156,-34.5
53.171,-39.28
53.187,-44.22
53.203,-49.64
53.218,-55.74
53.234,-62.53
53.250,-69.64
53.265,-76.24
53.281,-81.09
53.296,-82.73
53.312,-79.98
53.328,-72.26
53.343,-59.97
53.359,-44.35
53.375,-27.14
53.390,-10.08
53.406,5.53
53.421,19.08
53.437,30.63
53.453,40.61
53.468,49.52
53.484,57.68
53.500,65.11
53.515,71.61
53.531,76.89
53.546,80.78
53.562,83.3
53.578,84.62
53.593,85.06
53.609,84.96
53.625,84.75
53.640,84.88
53.656,85.7
53.671,87.22
53.687,88.83
53.703,89.35
53.718,87.2
53.734,81.0
53.750,70.21
53.765,55.36
53.781,37.99
53.796,20.08
53.812,3.4
53.828,-11.04
53.843,-23.04
53.859,-33.02
53.875,-41.63
53.890,-49.42
53.906,-56.75
53.921,-63.87
53.937,-71.0
53.953,-78.36
53.968,-86.02
53.984,-93.78
54.000,-101.18
54.015,-107.66
54.031,-112.78
54.046,-116.47
54.062,-118.97
54.078,-120.64
54.093,-121.55
54.109,-121.34
54.125,-119.11
54.140,-113.81
54.156,-104.62
54.171,-91.35
54.187,-74.55
54.203,-55.37
54.218,-35.18
54.234,-15.16
54.250,3.92
54.265,21.8
54.281,38.51
54.296,54.07
54.312,68.29
54.328,80.71
54.343,90.76
54.359,98.14
54.375,102.97
54.390,105.88
54.406,107.73
54.421,109.3
54.437,110.99
54.453,112.86
54.468,114.81
54.484,116.84
54.500,119.03
54.515,121.31
54.531,123.07
54.546,123.06
54.562,119.66
54.578,111.58
54.593,98.55
54.609,81.6
54.625,62.65
54.640,43.72
54.656,26.03
54.671,9.76
54.687,-5.71
54.703,-21.03
54.718,-36.37
54.734,-51.22
54.750,-64.88
54.765,-76.94
54.781,-87.57
54.796,-97.49
54.812,-107.45
54.828,-117.77
54.843,-128.23
54.859,-138.26
54.875,-147.43
54.890,-155.7
54.906,-163.38
54.921,-170.77
54.937,-177.72
54.953,-183.28
54.968,-185.92
54.984,-183.9
55.000,-175.85
55.015,-161.26
55.031,-140.69
55.046,-115.64
55.062,-88.15
55.078,-60.31
55.093,-33.81
55.109,-9.64
55.125,11.85
55.140,30.84
55.156,47.75
55.171,62.89
55.187,76.44
55.203,88.42
55.218,98.78
55.234,107.57
55.250,114.87
55.265,120.79
55.281,125.48
55.296,129.04
55.312,131.61
55.328,133.38
55.343,134.56
55.359,135.34
55.375,135.72
55.390,135.43
55.406,133.94
55.421,130.59
55.437,124.89
55.453,116.79
55.468,106.86
55.484,96.03
55.500,85.27
55.515,75.01
55.531,64.81
55.546,53.5
55.562,39.69
55.578,22.45
55.593,1.77
55.609,-21.16
55.625,-44.36
55.640,-65.55
55.656,-82.75
55.671,-94.77
55.687,-101.44
55.703,-103.66
55.718,-103.06
55.734,-101.51
55.750,-100.48
55.765,-100.41
55.781,-100.43
55.796,-98.64
55.812,-92.75
55.828,-81.04
55.843,-63.13
55.859,-40.19
55.875,-14.73
55.890,10.15
55.906,31.57
55.921,47.57
55.937,57.43
55.953,61.5
55.968,60.87
55.984,56.84
56.000,50.77
56.015,43.98
56.031,37.82
56.046,33.5
56.062,31.68
56.078,32.06
56.093,33.04
56.109,32.06
56.125,26.44
56.140,14.49
56.156,-3.72
56.171,-26.33
56.187,-50.25
56.203,-72.43
56.218,-90.8
56.234,-104.66
56.250,-114.37
56.265,-120.68
56.281,-124.13
56.296,-124.87
56.312,-122.91
56.328,-118.48
56.343,-112.37
56.359,-105.75
56.375,-99.81
56.390,-95.2
56.406,-91.91
56.421,-89.32
56.437,-86.67
56.453,-83.65
56.468,-80.54
56.484,-78.26
56.500,-77.85
56.515,-80.06
56.531,-84.88
56.546,-91.45
56.562,-98.13
56.578,-102.76
56.593,-103.21
56.609,-97.87
56.625,-86.21
56.640,-68.95
56.656,-47.99
56.671,-25.81
56.687,-4.73
56.703,13.78
56.718,29.35
56.734,42.45
56.750,53.86
56.765,64.04
56.781,72.87
56.796,79.88
56.812,84.59
56.828,86.97
56.843,87.5
56.859,87.04
56.875,86.36
56.890,85.87
56.906,85.53
56.921,85.04
56.937,84.0
56.953,82.13
56.968,79.17
56.984,74.76
57.000,68.4
57.015,59.46
57.031,47.53
57.046,32.6
57.062,15.28
57.078,-3.26
57.093,-21.57
57.109,-38.19
57.125,-51.92
57.140,-62.02
57.156,-68.3
57.171,-71.06
57.187,-71.05
57.203,-69.33
57.218,-67.11
57.234,-65.57
57.250,-65.58
57.265,-67.6
57.281,-71.49
57.296,-76.49
57.312,-81.34
57.328,-84.51
57.343,-84.64
57.359,-80.75
57.375,-72.56
57.390,-60.51
57.406,-45.57
57.421,-28.96
57.437,-11.95
57.453,4.4
57.468,19.34
57.484,32.42
57.500,43.52
57.515,52.76
57.531,60.34
57.546,66.41
57.562,70.95
57.578,73.85
57.593,75.03
57.609,74.63
57.625,73.07
57.640,70.99
57.656,69.03
57.671,67.57
57.687,66.62
57.703,65.89
57.718,64.96
57.734,63.53
57.750,61.51
57.765,59.0
57.781,56.2
57.796,53.2
57.812,49.96
57.828,46.31
57.843,42.03
57.859,36.95
57.875,31.07
57.890,24.49
57.906,17.4
57.921,9.99
57.937,2.33
57.953,-5.67
57.968,-14.14
57.984,-23.26
58.000,-33.1
58.015,-43.6
58.031,-54.63
58.046,-65.92
58.062,-77.01
58.078,-87.18
58.093,-95.38
58.109,-100.27
58.125,-100.58
58.140,-95.54
58.156,-85.21
58.171,-70.61
58.187,-53.39
58.203,-35.32
58.218,-17.81
58.234,-1.58
58.250,13.21
58.265,26.7
58.281,38.95
58.296,49.83
58.312,59.01
58.328,66.23
58.343,71.44
58.359,74.9
58.375,77.06
58.390,78.39
58.406,79.19
58.421,79.52
58.437,79.28
58.453,78.31
58.468,76.53
58.484,74.11
58.500,71.32
58.515,68.53
58.531,66.06
58.546,64.04
58.562,62.38
58.578,60.87
58.593,59.25
58.609,57.22
58.625,54.62
58.640,51.34
58.656,47.34
58.671,42.64
58.687,37.25
58.703,31.25
58.718,24.7
58.734,17.55
58.750,9.64
58.765,0.63
58.781,-9.85
58.796,-22.02
58.812,-35.75
58.828,-50.33
58.843,-64.53
58.859,-76.68
58.875,-85.14
58.890,-88.62
58.906,-86.57
58.921,-79.34
58.937,-68.01
58.953,-54.1
58.968,-39.11
58.984,-24.15
59.000,-9.72
59.015,4.16
59.031,17.62
59.046,30.63
59.062,42.74
59.078,53.16
59.093,61.05
59.109,65.87
59.125,67.68
59.140,67.1
59.156,65.09
59.171,62.56
59.187,60.14
59.203,58.06
59.218,56.26
59.234,54.6
59.250,52.98
59.265,51.39
59.281,49.87
59.296,48.34
59.312,46.62
59.328,44.48
59.343,41.73
59.359,38.32
59.375,34.36
59.390,30.01
59.406,25.38
59.421,20.55
59.437,15.53
59.453,10.38
59.468,5.2
59.484,0.08
59.500,-4.95
59.515,-9.95
59.531,-15.12
59.546,-20.68
59.562,-26.81
59.578,-33.49
59.593,-40.43
59.609,-47.03
59.625,-52.4
59.640,-55.46
59.656,-55.22
59.671,-51.08
59.687,-43.12
59.703,-32.18
59.718,-19.63
59.734,-6.95
59.750,4.73
59.765,14.85
59.781,23.43
59.796,30.69
59.812,36.77
59.828,41.64
59.843,45.1
59.859,47.06
59.875,47.64
59.890,47.27
59.906,46.4
59.921,45.33
59.937,44.17
59.953,42.79
59.968,41.06
59.984,38.99
