timestamp,value
00.000,0.4
00.015,-16.14
00.031,-33.48
00.046,-49.1
00.062,-60.53
00.078,-66.12
00.093,-65.5
00.109,-59.58
00.125,-50.06
00.140,-38.67
00.156,-26.53
00.171,-14.12
00.187,-1.51
00.203,11.11
00.218,23.17
00.234,33.79
00.250,42.26
00.265,48.55
00.281,53.42
00.296,58.22
00.312,64.38
00.328,72.81
00.343,83.65
00.359,96.28
00.375,109.65
00.390,122.7
00.406,134.73
00.421,145.51
00.437,155.31
00.453,164.78
00.468,174.69
00.484,185.63
00.500,197.69
00.515,210.03
00.531,220.73
00.546,226.98
00.562,225.76
00.578,214.92
00.593,193.99
00.609,164.61
00.625,130.02
00.640,94.04
00.656,59.78
00.671,29.01
00.687,2.19
00.703,-20.72
00.718,-39.39
00.734,-52.66
00.750,-58.93
00.765,-56.88
00.781,-46.28
00.796,-28.24
00.812,-4.69
00.828,22.33
00.843,51.32
00.859,81.41
00.875,112.06
00.890,142.63
00.906,172.24
00.921,199.81
00.937,224.34
00.953,245.05
00.968,261.35
00.984,272.73
01.000,278.6
01.015,278.47
01.031,272.16
01.046,260.08
01.062,243.27
01.078,223.28
01.093,201.86
01.109,180.72
01.125,161.3
01.140,144.74
01.156,131.73
01.171,122.37
01.187,116.1
01.203,111.76
01.218,107.88
01.234,102.96
01.250,95.94
01.265,86.35
01.281,74.34
01.296,60.49
01.312,45.4
01.328,29.38
01.343,12.29
01.359,-6.33
01.375,-27.03
01.390,-49.99
01.406,-74.84
01.421,-100.71
01.437,-126.42
01.453,-150.92
01.468,-173.58
01.484,-194.36
01.500,-213.74
01.515,-232.68
01.531,-252.48
01.546,-274.43
01.562,-299.34
01.578,-326.86
01.593,-355.02
01.609,-380.32
01.625,-398.72
01.640,-406.95
01.656,-403.79
01.671,-390.64
01.687,-370.87
01.703,-348.59
01.718,-327.31
01.734,-309.12
01.750,-294.74
01.765,-284.16
01.781,-277.06
01.796,-273.05
01.812,-271.39
01.828,-270.69
01.843,-269.04
01.859,-264.47
01.875,-255.73
01.890,-242.76
01.906,-226.64
01.921,-209.26
01.937,-192.42
01.953,-177.31
01.968,-164.13
01.984,-152.25
02.000,-140.57
02.015,-127.96
02.031,-113.68
02.046,-97.57
02.062,-80.11
02.078,-62.24
02.093,-45.17
02.109,-29.95
02.125,-17.26
02.140,-7.19
02.156,0.73
02.171,7.33
02.187,13.46
02.203,19.69
02.218,26.14
02.234,32.36
02.250,37.48
02.265,40.37
02.281,39.98
02.296,35.8
02.312,28.18
02.328,18.44
02.343,8.64
02.359,1.01
02.375,-2.71
02.390,-1.79
02.406,3.3
02.421,11.23
02.437,20.39
02.453,29.45
02.468,37.76
02.484,45.37
02.500,52.76
02.515,60.54
02.531,69.13
02.546,78.7
02.562,89.26
02.578,100.73
02.593,113.11
02.609,126.33
02.625,140.17
02.640,154.09
02.656,167.28
02.671,178.85
02.687,188.32
02.703,195.72
02.718,201.66
02.734,207.07
02.750,212.76
02.765,219.22
02.781,226.54
02.796,234.58
02.812,243.06
02.828,251.51
02.843,259.12
02.859,264.54
02.875,266.09
02.890,262.07
02.906,251.48
02.921,234.28
02.937,211.44
02.953,184.49
02.968,154.91
02.984,123.83
03.000,92.09
03.015,60.83
03.031,31.73
03.046,7.06
03.062,-10.96
03.078,-20.91
03.093,-22.66
03.109,-17.35
03.125,-6.85
03.140,6.8
03.156,21.75
03.171,36.38
03.187,49.14
03.203,58.54
03.218,63.25
03.234,62.51
03.250,56.25
03.265,45.1
03.281,30.03
03.296,12.01
03.312,-8.09
03.328,-29.44
03.343,-51.08
03.359,-72.0
03.375,-91.31
03.390,-108.59
03.406,-123.98
03.421,-138.09
03.437,-151.65
03.453,-165.05
03.468,-178.14
03.484,-190.19
03.500,-200.12
03.515,-206.83
03.531,-209.51
03.546,-207.83
03.562,-201.84
03.578,-191.92
03.593,-178.54
03.609,-162.35
03.625,-144.17
03.640,-125.2
03.656,-106.91
03.671,-90.94
03.687,-78.75
03.703,-71.2
03.718,-68.39
03.734,-69.63
03.750,-73.81
03.765,-79.72
03.781,-86.44
03.796,-93.44
03.812,-100.58
03.828,-107.96
03.843,-115.79
03.859,-124.37
03.875,-134.01
03.890,-144.9
03.906,-156.92
03.921,-169.46
03.937,-181.27
03.953,-190.63
03.968,-195.58
03.984,-194.43
04.000,-186.28
04.015,-171.37
04.031,-151.12
04.046,-127.81
04.062,-103.98
04.078,-81.76
04.093,-62.36
04.109,-46.03
04.125,-32.18
04.140,-19.81
04.156,-7.85
04.171,4.64
04.187,18.34
04.203,33.5
04.218,49.75
04.234,66.09
04.250,80.89
04.265,92.34
04.281,98.86
04.296,99.7
04.312,95.01
04.328,85.77
04.343,73.33
04.359,58.94
04.375,43.29
04.390,26.39
04.406,7.51
04.421,-14.44
04.437,-40.31
04.453,-70.12
04.468,-102.64
04.484,-135.42
04.500,-165.45
04.515,-190.1
04.531,-207.91
04.546,-218.95
04.562,-224.48
04.578,-226.29
04.593,-225.99
04.609,-224.64
04.625,-222.64
04.640,-219.96
04.656,-216.15
04.671,-210.54
04.687,-202.31
04.703,-190.88
04.718,-176.38
04.734,-159.97
04.750,-143.74
04.765,-130.15
04.781,-121.14
04.796,-117.4
04.812,-118.12
04.828,-121.33
04.843,-124.7
04.859,-126.42
04.875,-125.77
04.890,-123.19
04.906,-119.87
04.921,-117.05
04.937,-115.44
04.953,-114.88
04.968,-114.43
04.984,-112.87
05.000,-109.17
05.015,-102.96
05.031,-94.58
05.046,-84.85
05.062,-74.7
05.078,-64.86
05.093,-55.68
05.109,-47.28
05.125,-39.72
05.140,-33.07
05.156,-27.5
05.171,-23.05
05.187,-19.56
05.203,-16.59
05.218,-13.59
05.234,-10.09
05.250,-5.92
05.265,-1.3
05.281,3.19
05.296,6.82
05.312,8.84
05.328,8.71
05.343,6.06
05.359,0.67
05.375,-7.59
05.390,-18.56
05.406,-31.7
05.421,-45.79
05.437,-58.95
05.453,-68.99
05.468,-73.86
05.484,-72.34
05.500,-64.45
05.515,-51.47
05.531,-35.6
05.546,-19.28
05.562,-4.59
05.578,7.2
05.593,15.75
05.609,21.39
05.625,24.86
05.640,26.92
05.656,28.22
05.671,29.29
05.687,30.54
05.703,32.33
05.718,34.9
05.734,38.16
05.750,41.65
05.765,44.66
05.781,46.5
05.796,46.81
05.812,45.78
05.828,44.05
05.843,42.32
05.859,41.06
05.875,40.36
05.890,40.13
05.906,40.51
05.921,42.04
05.937,45.6
05.953,52.03
05.968,61.54
05.984,73.53
06.000,86.66
06.015,99.31
06.031,110.14
06.046,118.38
06.062,123.86
06.078,126.83
06.093,127.76
06.109,127.15
06.125,125.56
06.140,123.63
06.156,122.01
06.171,121.23
06.187,121.46
06.203,122.45
06.218,123.63
06.234,124.3
06.250,123.93
06.265,122.32
06.281,119.7
06.296,116.52
06.312,113.32
06.328,110.5
06.343,108.15
06.359,106.01
06.375,103.6
06.390,100.5
06.406,96.5
06.421,91.75
06.437,86.58
06.453,81.32
06.468,76.09
06.484,70.69
06.500,64.81
06.515,58.25
06.531,51.09
06.546,43.65
06.562,36.37
06.578,29.53
06.593,23.12
06.609,16.92
06.625,10.59
06.640,3.91
06.656,-3.06
06.671,-10.0
06.687,-16.34
06.703,-21.48
06.718,-25.0
06.734,-26.72
06.750,-26.76
06.765,-25.41
06.781,-22.9
06.796,-19.51
06.812,-15.66
06.828,-12.11
06.843,-9.9
06.859,-10.07
06.875,-13.02
06.890,-18.08
06.906,-23.32
06.921,-26.02
06.937,-23.66
06.953,-14.89
06.984,19.12
07.000,39.66
07.015,58.86
07.031,74.66
07.046,86.01
07.062,92.7
07.078,95.04
07.093,93.53
07.109,88.84
07.125,81.81
07.140,73.51
07.156,65.19
07.171,57.96
07.187,52.57
07.203,49.19
07.218,47.47
07.234,46.79
07.250,46.49
07.265,46.04
07.281,45.07
07.296,43.36
07.312,40.76
07.328,37.29
07.343,33.28
07.359,29.42
07.375,26.75
07.390,26.34
07.406,29.02
07.421,35.06
07.437,44.17
07.453,55.51
07.468,68.0
07.484,80.44
07.500,91.62
07.515,100.36
07.531,105.55
07.546,106.25
07.562,102.0
07.578,93.0
07.593,80.24
07.609,65.36
07.625,50.23
07.640,36.39
07.656,24.7
07.671,15.28
07.687,7.64
07.703,1.14
07.718,-4.8
07.734,-10.46
07.750,-15.9
07.765,-21.07
07.781,-25.94
07.796,-30.51
07.812,-34.69
07.828,-38.13
07.843,-40.21
07.859,-40.13
07.875,-37.17
07.890,-31.0
07.906,-21.87
07.921,-10.62
07.937,1.59
07.953,13.6
07.968,24.71
07.984,34.79
08.000,44.22
08.015,53.45
08.031,62.75
08.046,71.89
08.062,80.31
08.078,87.37
08.093,92.71
08.109,96.43
08.125,99.04
08.140,101.04
08.156,102.5
08.171,102.73
08.187,100.34
08.203,93.73
08.218,81.72
08.234,64.18
08.250,42.2
08.265,17.92
08.281,-6.08
08.296,-27.39
08.312,-44.12
08.328,-55.16
08.343,-60.06
08.359,-58.9
08.375,-52.28
08.390,-41.24
08.406,-27.21
08.421,-11.85
08.437,3.25
08.453,16.83
08.468,28.1
08.484,36.85
08.500,43.29
08.515,47.99
08.531,51.61
08.546,54.75
08.562,57.69
08.578,60.29
08.593,62.04
08.609,62.14
08.625,59.91
08.640,54.91
08.656,47.15
08.671,37.0
08.687,25.09
08.703,12.07
08.718,-1.44
08.734,-14.79
08.750,-27.35
08.765,-38.42
08.781,-47.34
08.796,-53.7
08.812,-57.41
08.828,-58.61
08.843,-57.48
08.859,-54.13
08.875,-48.51
08.890,-40.67
08.906,-30.95
08.921,-20.12
08.937,-9.21
08.953,0.8
08.968,9.32
08.984,16.28
09.000,21.96
09.015,26.78
09.031,30.99
09.046,34.58
09.062,37.49
09.078,39.76
09.093,41.67
09.109,43.68
09.125,46.31
09.140,49.94
09.156,54.76
09.171,60.8
09.187,67.87
09.203,75.51
09.218,82.68
09.234,87.75
09.250,88.56
09.265,83.03
09.281,69.92
09.296,49.5
09.312,23.82
09.328,-3.69
09.343,-29.04
09.359,-48.75
09.375,-60.59
09.390,-63.91
09.406,-59.47
09.421,-49.03
09.437,-34.84
09.453,-19.21
09.468,-4.1
09.484,9.15
09.500,19.92
09.515,28.3
09.531,34.75
09.546,39.69
09.562,43.27
09.578,45.28
09.593,45.55
09.609,44.27
09.625,42.18
09.640,40.45
09.656,40.19
09.671,41.91
09.687,45.15
09.703,48.54
09.718,50.08
09.734,47.72
09.750,39.81
09.765,25.57
09.781,5.32
09.796,-19.41
09.812,-45.98
09.828,-71.09
09.843,-91.37
09.859,-104.19
09.875,-108.25
09.890,-103.91
09.906,-92.89
09.921,-77.76
09.937,-61.22
09.953,-45.44
09.968,-31.95
09.984,-21.46
10.000,-14.02
10.015,-9.2
10.031,-6.2
10.046,-4.03
10.062,-1.78
10.078,1.15
10.093,4.91
10.109,9.16
10.125,13.36
10.140,17.01
10.156,20.0
10.171,22.59
10.187,25.38
10.203,28.95
10.218,33.72
10.234,39.68
10.250,46.44
10.265,53.25
10.281,59.16
10.296,63.22
10.312,64.64
10.328,62.98
10.343,58.21
10.359,50.61
10.375,40.72
10.390,29.04
10.406,16.1
10.421,2.41
10.437,-11.38
10.453,-24.36
10.468,-35.44
10.484,-43.45
10.500,-47.52
10.515,-47.34
10.531,-43.34
10.546,-36.58
10.562,-28.37
10.578,-19.88
10.593,-11.85
10.609,-4.5
10.625,2.22
10.640,8.32
10.656,13.6
10.671,17.62
10.687,20.04
10.703,20.8
10.718,20.3
10.734,19.13
10.750,17.72
10.765,16.06
10.781,13.61
10.796,9.68
10.812,3.88
10.828,-3.66
10.843,-12.22
10.859,-20.88
10.875,-28.85
10.890,-35.7
10.906,-41.32
10.921,-45.65
10.937,-48.56
10.953,-49.75
10.968,-49.04
10.984,-46.51
11.000,-42.59
11.015,-37.94
11.031,-33.14
11.046,-28.54
11.062,-24.24
11.078,-20.18
11.093,-16.24
11.109,-12.35
11.125,-8.42
11.140,-4.37
11.156,-0.1
11.171,4.41
11.187,9.0
11.203,13.31
11.218,17.01
11.234,19.93
11.250,22.22
11.265,24.42
11.281,27.22
11.296,31.3
11.312,37.12
11.328,44.84
11.343,54.29
11.359,64.78
11.375,75.04
11.390,83.17
11.406,86.88
11.421,84.04
11.437,73.36
11.453,55.02
11.468,30.74
11.484,3.49
11.500,-23.34
11.515,-46.72
11.531,-64.57
11.546,-75.84
11.562,-80.46
11.578,-79.11
11.593,-73.05
11.609,-63.97
11.625,-53.73
11.640,-44.07
11.656,-36.17
11.671,-30.42
11.687,-26.45
11.703,-23.39
11.718,-20.31
11.734,-16.55
11.750,-11.86
11.765,-6.35
11.781,-0.28
11.796,6.04
11.812,12.37
11.828,18.51
11.843,24.21
11.859,29.17
11.875,32.91
11.890,34.84
11.906,34.32
11.921,30.76
11.937,23.89
11.953,13.89
11.968,1.39
11.984,-12.49
12.000,-26.35
12.015,-38.74
12.031,-48.4
12.046,-54.46
12.062,-56.59
12.078,-55.1
12.093,-50.84
12.109,-45.01
12.125,-38.87
12.140,-33.39
12.156,-29.09
12.171,-25.96
12.187,-23.63
12.203,-21.56
12.218,-19.22
12.234,-16.25
12.250,-12.43
12.265,-7.76
12.281,-2.35
12.296,3.51
12.312,9.46
12.328,15.09
12.343,20.11
12.359,24.44
12.375,28.2
12.390,31.68
12.406,35.22
12.421,39.14
12.437,43.59
12.453,48.44
12.468,53.21
12.484,56.97
12.500,58.48
12.515,56.53
12.531,50.29
12.546,39.73
12.562,25.71
12.578,9.7
12.593,-6.58
12.609,-21.61
12.625,-34.31
12.640,-43.94
12.656,-50.01
12.671,-52.19
12.687,-50.48
12.703,-45.33
12.718,-37.74
12.734,-29.04
12.750,-20.44
12.765,-12.72
12.781,-6.1
12.796,-0.37
12.812,4.74
12.828,9.29
12.843,13.11
12.859,15.94
12.875,17.8
12.890,18.99
12.906,20.04
12.921,21.37
12.937,23.02
12.953,24.51
12.968,24.88
12.984,23.09
13.000,18.31
13.015,10.31
13.031,-0.53
13.046,-13.21
13.062,-26.39
13.078,-38.56
13.093,-48.41
13.109,-55.0
13.125,-57.97
13.140,-57.61
13.156,-54.7
13.171,-50.31
13.187,-45.43
13.203,-40.71
13.218,-36.4
13.234,-32.41
13.250,-28.58
13.265,-24.78
13.281,-21.08
13.296,-17.61
13.312,-14.51
13.328,-11.82
13.343,-9.46
13.359,-7.34
13.375,-5.35
13.390,-3.44
13.406,-1.59
13.421,0.22
13.437,1.98
13.453,3.76
13.468,5.69
13.484,7.96
13.500,10.79
13.515,14.35
13.531,18.65
13.546,23.48
13.562,28.33
13.578,32.46
13.593,34.92
13.609,34.76
13.625,31.28
13.640,24.29
13.656,14.32
13.671,2.59
13.687,-9.2
13.703,-19.33
13.718,-26.44
13.734,-29.84
13.750,-29.57
13.765,-26.25
13.781,-20.8
13.796,-14.18
13.812,-7.32
13.828,-0.94
13.843,4.37
13.859,8.21
13.875,10.43
13.890,11.15
13.906,10.76
13.921,9.84
13.937,9.09
13.953,9.02
13.968,9.92
13.984,11.65
14.000,13.69
14.015,15.29
14.031,15.73
14.046,14.57
14.062,11.7
14.078,7.41
14.093,2.24
14.109,-3.14
14.125,-8.1
14.140,-12.09
14.156,-14.81
14.171,-16.34
14.187,-17.16
14.203,-18.11
14.218,-19.98
14.234,-23.18
14.250,-27.28
14.265,-31.2
14.281,-33.58
14.296,-33.44
14.312,-30.62
14.328,-25.89
14.343,-20.44
14.359,-15.33
14.375,-11.0
14.390,-7.2
14.406,-3.42
14.421,0.72
14.437,5.06
14.453,9.02
14.468,11.92
14.484,13.41
14.500,13.68
14.515,13.41
14.531,13.45
14.546,14.39
14.562,16.4
14.578,19.18
14.593,22.16
14.609,24.67
14.625,26.11
14.640,25.85
14.656,23.24
14.671,17.78
14.687,9.34
14.703,-1.42
14.718,-13.05
14.734,-23.54
14.750,-30.95
14.765,-34.14
14.781,-33.1
14.796,-28.93
14.812,-23.21
14.828,-17.4
14.843,-12.41
14.859,-8.44
14.875,-5.27
14.890,-2.57
14.906,-0.13
14.921,2.05
14.937,3.8
14.953,4.94
14.968,5.37
14.984,5.09
15.000,4.23
15.015,3.02
15.031,1.85
15.046,1.12
15.062,1.16
15.078,2.17
15.093,4.11
15.109,6.74
15.125,9.62
15.140,12.22
15.156,13.89
15.171,13.98
15.187,11.83
15.203,7.09
15.218,-0.13
15.234,-8.98
15.250,-18.02
15.265,-25.58
15.281,-30.31
15.296,-31.66
15.312,-30.08
15.328,-26.7
15.343,-22.78
15.359,-19.2
15.375,-16.26
15.390,-13.73
15.406,-11.27
15.421,-8.73
15.437,-6.19
15.453,-3.93
15.468,-2.13
15.484,-0.73
15.500,0.54
15.515,2.03
15.531,3.95
15.546,6.32
15.562,8.98
15.578,11.78
15.593,14.71
15.609,17.94
15.625,21.74
15.640,26.38
15.656,31.89
15.671,37.99
15.687,44.05
15.703,49.01
15.718,51.56
15.734,50.33
15.750,44.4
15.765,33.75
15.781,19.57
15.796,4.09
15.812,-9.97
15.828,-20.27
15.843,-25.54
15.859,-25.9
15.875,-22.58
15.890,-17.32
15.906,-11.71
15.921,-6.79
15.937,-3.03
15.953,-0.52
15.968,0.89
15.984,1.41
16.000,1.39
16.015,1.29
16.031,1.63
16.046,2.9
16.062,5.38
16.078,9.07
16.093,13.67
16.109,18.68
16.125,23.55
16.140,27.81
16.156,31.16
16.171,33.45
16.187,34.6
16.203,34.46
16.218,32.7
16.234,28.77
16.250,22.12
16.265,12.43
16.281,-0.08
16.296,-14.6
16.312,-29.84
16.328,-44.3
16.343,-56.57
16.359,-65.55
16.375,-70.71
16.390,-72.07
16.406,-70.15
16.421,-65.86
16.437,-60.22
16.453,-54.14
16.468,-48.16
16.484,-42.37
16.500,-36.58
16.515,-30.58
16.531,-24.39
16.546,-18.35
16.562,-12.94
16.578,-8.47
16.593,-4.8
16.609,-1.39
16.625,2.42
16.640,7.02
16.656,12.35
16.671,17.85
16.687,22.78
16.703,26.61
16.718,29.27
16.734,31.17
16.750,32.94
16.765,35.02
16.781,37.35
16.796,39.28
16.812,39.75
16.828,37.63
16.843,32.19
16.859,23.37
16.875,11.82
16.890,-1.27
16.906,-14.49
16.921,-26.56
16.937,-36.39
16.953,-43.21
16.968,-46.53
16.984,-46.13
17.000,-42.22
17.015,-35.45
17.031,-26.91
17.046,-17.88
17.062,-9.53
17.078,-2.68
17.093,2.35
17.109,5.54
17.125,7.15
17.140,7.48
17.156,6.93
17.171,5.95
17.187,5.05
17.203,4.65
17.218,4.93
17.234,5.7
17.250,6.4
17.265,6.41
17.281,5.15
17.296,2.4
17.312,-1.71
17.328,-6.72
17.343,-12.01
17.359,-16.91
17.375,-20.93
17.390,-23.78
17.406,-25.44
17.421,-26.05
17.437,-25.84
17.453,-24.98
17.468,-23.5
17.484,-21.37
17.500,-18.54
17.515,-15.06
17.531,-11.17
17.546,-7.08
17.562,-3.03
17.578,0.9
17.593,4.72
17.609,8.45
17.625,12.0
17.640,15.15
17.656,17.65
17.671,19.34
17.687,20.29
17.703,20.76
17.718,21.15
17.734,21.75
17.750,22.76
17.765,24.17
17.781,25.9
17.796,27.9
17.812,30.2
17.828,32.9
17.843,35.98
17.859,39.08
17.875,41.38
17.890,41.67
17.906,38.73
17.921,31.84
17.937,21.1
17.953,7.58
17.968,-6.89
17.984,-20.21
18.000,-30.52
18.015,-36.58
18.031,-38.0
18.046,-35.19
18.062,-29.15
18.078,-21.21
18.093,-12.74
18.109,-4.84
18.125,1.86
18.140,7.16
18.156,11.23
18.171,14.38
18.187,16.91
18.203,19.04
18.218,20.97
18.234,22.92
18.250,25.11
18.265,27.63
18.281,30.32
18.296,32.77
18.312,34.38
18.328,34.6
18.343,33.14
18.359,30.08
18.375,25.82
18.390,20.91
18.406,15.75
18.421,10.44
18.437,4.65
18.453,-2.16
18.468,-10.54
18.484,-20.62
18.500,-31.98
18.515,-43.57
18.531,-53.92
18.546,-61.57
18.562,-65.46
18.578,-65.32
18.593,-61.6
18.609,-55.33
18.625,-47.72
18.640,-39.81
18.656,-32.28
18.671,-25.37
18.687,-19.1
18.703,-13.42
18.718,-8.43
18.734,-4.32
18.750,-1.32
18.765,0.52
18.781,1.43
18.796,1.98
18.812,2.82
18.828,4.5
18.843,7.31
18.859,11.24
18.875,16.12
18.890,21.74
18.906,27.96
18.921,34.57
18.937,41.11
18.953,46.65
18.968,49.86
18.984,49.32
19.000,43.99
19.015,33.62
19.031,18.98
19.046,1.77
19.062,-15.7
19.078,-30.99
19.093,-42.04
19.109,-47.64
19.125,-47.68
19.140,-43.13
19.156,-35.73
19.171,-27.42
19.187,-19.73
19.203,-13.43
19.218,-8.51
19.234,-4.52
19.250,-0.98
19.265,2.28
19.281,5.07
19.296,7.18
19.312,8.66
19.328,9.99
19.343,11.97
19.359,15.28
19.375,20.2
19.390,26.35
19.406,32.8
19.421,38.34
19.437,41.76
19.453,42.23
19.468,39.2
19.484,32.48
19.500,22.1
19.515,8.38
19.531,-7.84
19.546,-25.19
19.562,-41.76
19.578,-55.52
19.593,-64.83
19.609,-68.96
19.625,-68.32
19.640,-64.26
19.656,-58.56
19.671,-52.74
19.687,-47.72
19.703,-43.65
19.718,-40.18
19.734,-36.86
19.750,-33.44
19.765,-29.98
19.781,-26.73
19.796,-23.92
19.812,-21.57
19.828,-19.5
19.843,-17.34
19.859,-14.73
19.875,-11.46
19.890,-7.55
19.906,-3.19
19.921,1.39
19.937,5.95
19.953,10.43
19.968,14.84
19.984,19.27
20.000,23.72
20.015,28.05
20.031,31.95
20.046,34.95
20.062,36.55
20.078,36.3
20.093,33.93
20.109,29.42
20.125,23.04
20.140,15.33
20.156,7.2
20.171,-0.24
20.187,-5.87
20.203,-8.76
20.218,-8.53
20.234,-5.36
20.250,0.03
20.265,6.7
20.281,13.75
20.296,20.59
20.312,27.05
20.328,33.13
20.343,38.93
20.359,44.37
20.375,49.18
20.390,53.02
20.406,55.61
20.421,56.94
20.437,57.25
20.453,57.0
20.468,56.6
20.484,56.22
20.500,55.63
20.515,54.31
20.531,51.63
20.546,47.03
20.562,40.16
20.578,30.82
20.593,18.84
20.609,4.09
20.625,-13.37
20.640,-33.09
20.656,-54.02
20.671,-74.49
20.687,-92.48
20.703,-106.07
20.718,-113.91
20.734,-115.55
20.750,-111.56
20.765,-103.27
20.781,-92.4
20.796,-80.5
20.812,-68.67
20.828,-57.4
20.843,-46.65
20.859,-36.22
20.875,-25.99
20.890,-16.05
20.906,-6.7
20.921,1.73
20.937,8.95
20.953,14.81
20.968,19.25
20.984,22.34
21.000,24.3
21.015,25.63
21.031,27.07
21.046,29.42
21.062,33.19
21.078,38.27
21.093,43.69
21.109,47.73
21.125,48.36
21.140,43.88
21.156,33.55
21.171,18.05
21.187,-0.67
21.203,-19.78
21.218,-36.35
21.234,-48.09
21.250,-53.79
21.265,-53.45
21.281,-48.02
21.296,-39.01
21.312,-28.06
21.328,-16.63
21.343,-5.92
21.359,3.3
21.375,10.64
21.390,16.09
21.406,20.02
21.421,22.97
21.437,25.54
21.453,28.19
21.468,31.18
21.484,34.44
21.500,37.75
21.515,40.8
21.531,43.31
21.546,45.19
21.562,46.49
21.578,47.3
21.593,47.69
21.609,47.54
21.625,46.54
21.640,44.29
21.656,40.42
21.671,34.77
21.687,27.46
21.703,18.85
21.718,9.37
21.734,-0.62
21.750,-10.99
21.765,-21.76
21.781,-32.88
21.796,-44.0
21.812,-54.29
21.828,-62.52
21.843,-67.49
21.859,-68.47
21.875,-65.53
21.890,-59.6
21.906,-52.06
21.921,-44.27
21.937,-37.12
21.953,-30.9
21.968,-25.51
21.984,-20.74
22.000,-16.56
22.015,-13.05
22.031,-10.28
22.046,-8.09
22.062,-6.08
22.078,-3.72
22.093,-0.64
22.109,3.28
22.125,7.95
22.140,13.24
22.156,19.16
22.171,25.94
22.187,34.0
22.203,43.65
22.218,54.8
22.234,66.75
22.250,78.2
22.265,87.46
22.281,92.77
22.296,92.82
22.312,86.98
22.328,75.48
22.343,59.37
22.359,40.22
22.375,19.9
22.390,0.28
22.406,-16.93
22.421,-30.43
22.437,-39.34
22.453,-43.34
22.468,-42.68
22.484,-38.02
22.500,-30.37
22.515,-20.78
22.531,-10.29
22.546,0.28
22.562,10.17
22.578,18.63
22.593,24.98
22.609,28.61
22.625,29.29
22.640,27.26
22.656,23.17
22.671,17.87
22.687,12.0
22.703,5.81
22.718,-0.83
22.734,-8.18
22.750,-16.29
22.765,-24.92
22.781,-33.63
22.796,-42.09
22.812,-50.26
22.828,-58.33
22.843,-66.38
22.859,-74.06
22.875,-80.57
22.890,-84.86
22.906,-86.12
22.921,-84.15
22.937,-79.48
22.953,-73.17
22.968,-66.37
22.984,-59.95
23.000,-54.33
23.015,-49.53
23.031,-45.27
23.046,-41.19
23.062,-36.94
23.078,-32.17
23.093,-26.56
23.109,-19.88
23.125,-12.03
23.140,-3.19
23.156,6.24
23.171,15.7
23.187,24.64
23.203,32.7
23.218,39.79
23.234,46.07
23.250,51.89
23.265,57.68
23.281,63.76
23.296,70.2
23.312,76.62
23.328,82.09
23.343,85.27
23.359,84.76
23.375,79.53
23.390,69.29
23.406,54.65
23.421,36.89
23.437,17.62
23.453,-1.73
23.468,-20.05
23.484,-36.61
23.500,-50.73
23.515,-61.61
23.531,-68.34
23.546,-70.17
23.562,-66.89
23.578,-59.12
23.593,-48.22
23.609,-36.0
23.625,-24.08
23.640,-13.56
23.656,-4.85
23.671,2.1
23.687,7.46
23.703,11.26
23.718,13.41
23.734,13.84
23.750,12.72
23.765,10.52
23.781,7.81
23.796,5.04
23.812,2.37
23.828,-0.26
23.843,-3.06
23.859,-6.11
23.875,-9.32
23.890,-12.43
23.906,-15.24
23.921,-17.7
23.937,-19.93
23.953,-22.1
23.968,-24.23
23.984,-26.12
24.000,-27.41
24.015,-27.74
24.031,-27.06
24.046,-25.74
24.062,-24.46
24.078,-23.83
24.093,-24.02
24.109,-24.54
24.125,-24.48
24.140,-22.97
24.156,-19.61
24.171,-14.71
24.187,-9.06
24.203,-3.51
24.218,1.51
24.234,6.11
24.250,10.8
24.265,16.02
24.281,21.91
24.296,28.22
24.312,34.54
24.328,40.58
24.343,46.36
24.359,52.11
24.375,57.93
24.390,63.5
24.406,67.93
24.421,70.01
24.437,68.68
24.453,63.52
24.468,54.99
24.484,44.2
24.500,32.49
24.515,20.96
24.531,10.35
24.546,1.06
24.562,-6.44
24.578,-11.57
24.593,-13.71
24.609,-12.49
24.625,-8.12
24.640,-1.41
24.656,6.41
24.671,14.18
24.687,21.06
24.703,26.83
24.718,31.68
24.734,36.08
24.750,40.48
24.765,45.11
24.781,49.75
24.796,53.69
24.812,55.77
24.828,54.66
24.843,49.27
24.859,39.12
24.875,24.68
24.890,7.43
24.906,-10.39
24.921,-26.33
24.937,-38.31
24.953,-45.28
24.968,-47.36
24.984,-45.85
25.000,-42.61
25.015,-39.52
25.031,-37.85
25.046,-38.07
25.062,-40.01
25.078,-43.13
25.093,-46.92
25.109,-50.91
25.125,-54.72
25.140,-57.86
25.156,-59.72
25.171,-59.74
25.187,-57.62
25.203,-53.47
25.218,-47.8
25.234,-41.41
25.250,-35.06
25.265,-29.28
25.281,-24.23
25.296,-19.73
25.312,-15.39
25.328,-10.81
25.343,-5.66
25.359,0.25
25.375,6.99
25.390,14.66
25.406,23.3
25.421,32.8
25.437,42.79
25.453,52.41
25.468,60.35
25.484,65.08
25.500,65.31
25.515,60.4
25.531,50.65
25.546,37.3
25.562,22.16
25.578,7.13
25.593,-6.26
25.609,-17.08
25.625,-24.88
25.640,-29.52
25.656,-31.02
25.671,-29.51
25.687,-25.34
25.703,-19.2
25.718,-11.98
25.734,-4.65
25.750,2.09
25.765,7.94
25.781,12.93
25.796,17.26
25.812,21.05
25.828,24.27
25.843,26.78
25.859,28.37
25.875,28.84
25.890,27.99
25.906,25.68
25.921,21.9
25.937,16.86
25.953,11.11
25.968,5.36
25.984,0.37
26.000,-3.48
26.015,-6.28
26.031,-8.56
26.046,-11.07
26.062,-14.42
26.078,-18.85
26.093,-24.19
26.109,-30.0
26.125,-35.76
26.140,-41.1
26.156,-45.78
26.171,-49.64
26.187,-52.5
26.203,-54.09
26.218,-54.13
26.234,-52.49
26.250,-49.32
26.265,-45.08
26.281,-40.38
26.296,-35.78
26.312,-31.54
26.328,-27.46
26.343,-23.01
26.359,-17.54
26.375,-10.56
26.390,-1.98
26.406,7.89
26.421,18.53
26.437,29.36
26.453,39.86
26.468,49.53
26.484,57.72
26.500,63.56
26.515,65.99
26.531,64.09
26.546,57.39
26.562,46.3
26.578,32.01
26.593,16.35
26.609,1.36
26.625,-11.17
26.640,-19.98
26.656,-24.5
26.671,-24.87
26.687,-21.79
26.703,-16.3
26.718,-9.52
26.734,-2.42
26.750,4.39
26.765,10.67
26.781,16.44
26.796,21.84
26.812,27.0
26.828,32.06
26.843,37.18
26.859,42.55
26.875,48.19
26.890,53.72
26.906,58.24
26.921,60.43
26.937,58.93
26.953,52.81
26.968,41.91
26.984,26.92
27.000,9.15
27.015,-9.82
27.031,-28.35
27.046,-44.98
27.062,-58.36
27.078,-67.5
27.093,-71.88
27.109,-71.75
27.125,-68.08
27.140,-62.4
27.156,-56.32
27.171,-51.11
27.187,-47.37
27.203,-45.06
27.218,-43.67
27.234,-42.53
27.250,-41.08
27.265,-38.92
27.281,-35.8
27.296,-31.6
27.312,-26.38
27.328,-20.32
27.343,-13.77
27.359,-7.14
27.375,-0.82
27.390,4.95
27.406,10.18
27.421,15.05
27.437,19.88
27.453,24.98
27.468,30.57
27.484,36.68
27.500,43.05
27.515,49.05
27.531,53.76
27.546,55.99
27.562,54.7
27.578,49.31
27.593,39.98
27.609,27.66
27.625,13.78
27.640,-0.13
27.656,-12.8
27.671,-23.25
27.687,-30.72
27.703,-34.56
27.718,-34.26
27.734,-29.7
27.750,-21.33
27.765,-10.29
27.781,1.9
27.796,13.74
27.812,24.2
27.828,32.8
27.843,39.59
27.859,44.83
27.875,48.81
27.890,51.79
27.906,53.98
27.921,55.54
27.937,56.51
27.953,56.65
27.968,55.31
27.984,51.57
28.000,44.6
28.015,33.91
28.031,19.71
28.046,2.9
28.062,-15.14
28.078,-32.9
28.093,-48.98
28.109,-62.31
28.125,-72.17
28.140,-78.14
28.156,-80.15
28.171,-78.45
28.187,-73.65
28.203,-66.64
28.218,-58.48
28.234,-50.2
28.250,-42.68
28.265,-36.5
28.281,-31.89
28.296,-28.73
28.312,-26.54
28.328,-24.63
28.343,-22.35
28.359,-19.24
28.375,-15.27
28.390,-10.76
28.406,-6.24
28.421,-2.16
28.437,1.3
28.453,4.35
28.468,7.43
28.484,10.98
28.500,15.37
28.515,20.72
28.531,26.94
28.546,33.76
28.562,40.7
28.578,47.01
28.593,51.72
28.609,53.72
28.625,52.07
28.640,46.35
28.656,36.92
28.671,24.96
28.687,12.2
28.703,0.43
28.718,-8.89
28.734,-14.97
28.750,-17.6
28.765,-16.95
28.781,-13.37
28.796,-7.32
28.812,0.53
28.828,9.26
28.843,17.81
28.859,25.22
28.875,30.91
28.890,34.83
28.906,37.32
28.921,38.8
28.937,39.6
28.953,39.75
28.968,39.09
28.984,37.29
29.000,33.99
29.015,28.77
29.031,21.18
29.046,10.87
29.062,-2.11
29.078,-17.15
29.093,-32.99
29.109,-47.88
29.125,-59.95
29.140,-67.73
29.156,-70.48
29.171,-68.47
29.187,-62.84
29.203,-55.23
29.218,-47.31
29.234,-40.26
29.250,-34.5
29.265,-29.84
29.281,-25.78
29.296,-21.99
29.312,-18.49
29.328,-15.58
29.343,-13.51
29.359,-12.13
29.375,-10.83
29.390,-8.74
29.406,-5.19
29.421,-0.09
29.437,6.06
29.453,12.38
29.468,18.03
29.484,22.58
29.500,26.04
29.515,28.86
29.531,31.61
29.546,34.84
29.562,38.94
29.578,44.22
29.593,50.75
29.609,58.29
29.625,66.12
29.640,72.92
29.656,77.01
29.671,76.72
29.687,71.05
29.703,59.94
29.718,44.45
29.734,26.37
29.750,7.73
29.765,-9.76
29.781,-24.85
29.796,-36.73
29.812,-44.86
29.828,-48.84
29.843,-48.59
29.859,-44.5
29.875,-37.51
29.890,-28.91
29.906,-19.99
29.921,-11.64
29.937,-4.27
29.953,2.13
29.968,7.75
29.984,12.68
30.000,16.87
30.015,20.17
30.031,22.38
30.046,23.37
30.062,23.1
30.078,21.57
30.093,18.92
30.109,15.35
30.125,11.02
30.140,6.0
30.156,0.11
30.171,-7.03
30.187,-15.63
30.203,-25.49
30.218,-35.76
30.234,-45.0
30.250,-51.75
30.265,-55.03
30.281,-54.73
30.296,-51.65
30.312,-47.12
30.328,-42.41
30.343,-38.36
30.359,-35.18
30.375,-32.6
30.390,-30.22
30.406,-27.65
30.421,-24.72
30.437,-21.37
30.453,-17.64
30.468,-13.58
30.484,-9.31
30.500,-5.0
30.515,-0.79
30.531,3.2
30.546,7.08
30.562,11.13
30.578,15.71
30.593,21.21
30.609,27.95
30.625,35.99
30.640,45.14
30.656,54.76
30.671,63.74
30.687,70.58
30.703,73.58
30.718,71.33
30.734,63.09
30.750,49.16
30.765,30.82
30.781,10.1
30.796,-10.71
30.812,-29.52
30.828,-44.6
30.843,-54.85
30.859,-59.71
30.875,-59.24
30.890,-54.03
30.906,-45.21
30.921,-34.22
30.937,-22.63
30.953,-11.76
30.968,-2.48
30.984,4.95
31.000,10.78
31.015,15.66
31.031,20.36
31.046,25.51
31.062,31.41
31.078,38.0
31.093,44.85
31.109,51.43
31.125,57.19
31.140,61.72
31.156,64.65
31.171,65.55
31.187,63.82
31.203,58.76
31.218,49.84
31.234,37.07
31.250,21.2
31.265,3.66
31.281,-13.79
31.296,-29.59
31.312,-42.8
31.328,-53.18
31.343,-60.97
31.359,-66.5
31.375,-69.95
31.390,-71.31
31.406,-70.66
31.421,-68.36
31.437,-65.18
31.453,-62.03
31.468,-59.55
31.484,-57.84
31.500,-56.34
31.515,-54.17
31.531,-50.49
31.546,-44.93
31.562,-37.7
31.578,-29.46
31.593,-20.97
31.609,-12.85
31.625,-5.32
31.640,1.7
31.656,8.48
31.671,15.34
31.687,22.49
31.703,29.97
31.718,37.69
31.734,45.48
31.750,53.09
31.765,60.1
31.781,65.86
31.796,69.47
31.812,69.96
31.828,66.53
31.843,58.89
31.859,47.41
31.875,33.0
31.890,16.92
31.906,0.46
31.921,-15.27
31.937,-29.32
31.953,-40.79
31.968,-48.73
31.984,-52.23
32.000,-50.72
32.015,-44.37
32.031,-34.19
32.046,-21.87
32.062,-9.32
32.078,1.95
32.093,11.14
32.109,18.23
32.125,23.67
32.140,28.04
32.156,31.75
32.171,34.94
32.187,37.59
32.203,39.49
32.218,40.27
32.234,39.49
32.250,36.69
32.265,31.63
32.281,24.42
32.296,15.54
32.312,5.67
32.328,-4.57
32.343,-14.83
32.359,-24.98
32.375,-34.99
32.390,-44.67
32.406,-53.53
32.421,-60.82
32.437,-65.74
32.453,-67.68
32.468,-66.36
32.484,-61.96
32.500,-55.03
32.515,-46.41
32.531,-37.09
32.546,-28.01
32.562,-19.9
32.578,-13.13
32.593,-7.72
32.609,-3.38
32.625,0.28
32.640,3.63
32.656,6.89
32.671,10.09
32.687,13.18
32.703,16.06
32.718,18.68
32.734,21.11
32.750,23.53
32.765,26.16
32.781,29.29
32.796,33.19
32.812,37.95
32.828,43.28
32.843,48.37
32.859,51.76
32.875,51.65
32.890,46.39
32.906,35.19
32.921,18.65
32.937,-1.11
32.953,-20.98
32.968,-37.73
32.984,-48.92
33.000,-53.55
33.015,-52.1
33.031,-46.07
33.046,-37.31
33.062,-27.5
33.078,-17.86
33.093,-9.17
33.109,-1.83
33.125,3.98
33.140,8.3
33.156,11.41
33.171,13.78
33.187,15.99
33.203,18.58
33.218,21.84
33.234,25.73
33.250,29.88
33.265,33.75
33.281,36.7
33.296,38.22
33.312,37.85
33.328,35.29
33.343,30.35
33.359,23.04
33.375,13.69
33.390,3.08
33.406,-7.61
33.421,-17.02
33.437,-23.93
33.453,-27.67
33.468,-28.38
33.484,-26.87
33.500,-24.47
33.515,-22.47
33.531,-21.82
33.546,-22.84
33.562,-25.25
33.578,-28.34
33.593,-31.32
33.609,-33.52
33.625,-34.51
33.640,-34.13
33.656,-32.35
33.671,-29.27
33.687,-25.15
33.703,-20.37
33.718,-15.48
33.734,-11.08
33.750,-7.65
33.765,-5.45
33.781,-4.45
33.796,-4.33
33.812,-4.59
33.828,-4.68
33.843,-3.97
33.859,-1.92
33.875,2.02
33.890,8.21
33.906,16.74
33.921,27.04
33.937,37.86
33.953,47.28
33.968,53.11
33.984,53.51
34.000,47.58
34.015,35.78
34.031,19.88
34.046,2.45
34.062,-13.77
34.078,-26.48
34.093,-34.34
34.109,-37.0
34.125,-35.07
34.140,-29.84
34.156,-22.93
34.171,-15.85
34.187,-9.72
34.203,-5.06
34.218,-1.77
34.234,0.58
34.250,2.52
34.265,4.37
34.281,6.22
34.296,7.99
34.312,9.67
34.328,11.38
34.343,13.39
34.359,15.95
34.375,19.1
34.390,22.56
34.406,25.87
34.421,28.39
34.437,29.6
34.453,29.19
34.468,27.08
34.484,23.45
34.500,18.61
34.515,12.93
34.531,6.79
34.546,0.61
34.562,-5.19
34.578,-10.21
34.593,-14.15
34.609,-16.94
34.625,-18.71
34.640,-19.82
34.656,-20.75
34.671,-21.9
34.687,-23.49
34.703,-25.43
34.718,-27.48
34.734,-29.35
34.750,-30.82
34.765,-31.78
34.781,-32.2
34.796,-31.99
34.812,-30.97
34.828,-28.85
34.843,-25.36
34.859,-20.39
34.875,-14.11
34.890,-6.92
34.906,0.68
34.921,8.22
34.937,15.44
34.953,22.32
34.968,28.99
34.984,35.66
35.000,42.5
35.015,49.55
35.031,56.59
35.046,63.12
35.062,68.29
35.078,71.06
35.093,70.53
35.109,66.14
35.125,58.05
35.140,47.1
35.156,34.64
35.171,22.11
35.187,10.76
35.203,1.36
35.218,-5.67
35.234,-10.13
35.250,-11.87
35.265,-10.78
35.281,-6.92
35.296,-0.75
35.312,6.89
35.328,15.01
35.343,22.7
35.359,29.36
35.375,34.68
35.390,38.49
35.406,40.65
35.421,41.09
35.437,39.98
35.453,37.9
35.468,35.81
35.484,34.62
35.500,34.64
35.515,35.35
35.531,35.54
35.546,33.92
35.562,29.88
35.578,23.69
35.593,16.33
35.609,8.79
35.625,1.57
35.640,-5.51
35.656,-12.96
35.671,-21.18
35.687,-30.08
35.703,-39.15
35.718,-47.78
35.734,-55.53
35.750,-62.29
35.765,-68.01
35.781,-72.47
35.796,-75.09
35.812,-75.15
35.828,-72.11
35.843,-65.95
35.859,-57.38
35.875,-47.61
35.890,-37.94
35.906,-29.34
35.921,-22.1
35.937,-15.88
35.953,-10.01
35.968,-3.86
35.984,2.87
36.000,10.05
36.015,17.28
36.031,24.24
36.046,30.82
36.062,37.24
36.078,43.89
36.093,51.19
36.109,59.39
36.125,68.46
36.140,78.03
36.156,87.34
36.171,95.28
36.187,100.48
36.203,101.71
36.218,98.17
36.234,89.91
36.250,77.93
36.265,63.88
36.281,49.68
36.296,36.86
36.312,26.3
36.328,18.12
36.343,11.97
36.359,7.4
36.375,4.08
36.390,2.0
36.406,1.34
36.421,2.39
36.437,5.42
36.453,10.66
36.468,18.25
36.484,28.17
36.500,40.33
36.515,54.42
36.531,69.97
36.546,86.39
36.562,103.03
36.578,119.38
36.593,135.21
36.609,150.66
36.625,166.17
36.640,182.23
36.656,198.88
36.671,215.53
36.687,230.78
36.703,242.88
36.718,250.18
36.734,251.62
36.750,247.06
36.765,237.22
36.781,223.49
36.796,207.51
36.812,190.88
36.828,174.9
36.843,160.28
36.859,147.15
36.875,134.95
36.890,122.72
36.906,109.35
36.921,94.02
36.937,76.48
36.953,57.25
36.968,37.51
36.984,18.97
37.000,3.54
37.015,-7.06
37.031,-11.62
37.046,-9.73
37.062,-1.97
37.078,10.13
37.093,24.31
37.109,38.17
37.125,49.78
37.140,58.21
37.156,63.72
37.171,67.36
37.187,70.22
37.203,72.82
37.218,74.79
37.234,75.07
37.250,72.55
37.265,66.53
37.281,56.96
37.296,44.25
37.312,29.0
37.328,11.68
37.343,-7.27
37.359,-27.36
37.375,-47.86
37.390,-67.93
37.406,-86.9
37.421,-104.62
37.437,-121.56
37.453,-138.73
37.468,-157.17
37.484,-177.53
37.500,-199.54
37.515,-221.97
37.531,-242.75
37.546,-259.62
37.562,-270.81
37.578,-275.54
37.593,-274.22
37.609,-268.15
37.625,-259.02
37.640,-248.32
37.656,-236.98
37.671,-225.27
37.687,-212.96
37.703,-199.61
37.718,-184.86
37.734,-168.64
37.750,-151.36
37.765,-133.9
37.781,-117.48
37.796,-103.41
37.812,-92.76
37.828,-86.11
37.843,-83.39
37.859,-84.04
37.875,-87.21
37.890,-91.97
37.906,-97.48
37.921,-102.92
37.937,-107.56
37.953,-110.76
37.968,-112.15
37.984,-111.68
38.000,-109.64
38.015,-106.5
38.031,-102.6
38.046,-98.01
38.062,-92.55
38.078,-85.94
38.093,-78.09
38.109,-69.25
38.125,-59.99
38.140,-51.06
38.156,-43.15
38.171,-36.62
38.187,-31.46
38.203,-27.31
38.218,-23.75
38.234,-20.47
38.250,-17.53
38.265,-15.42
38.281,-14.89
38.296,-16.64
38.312,-21.09
38.328,-28.18
38.343,-37.43
38.359,-48.06
38.375,-59.24
38.390,-70.15
38.406,-80.11
38.421,-88.6
38.437,-95.31
38.453,-100.2
38.468,-103.37
38.484,-104.96
38.500,-105.02
38.515,-103.51
38.531,-100.31
38.546,-95.5
38.562,-89.44
38.578,-82.91
38.593,-76.95
38.609,-72.6
38.625,-70.74
38.640,-71.81
38.656,-75.83
38.671,-82.35
38.687,-90.46
38.703,-99.0
38.718,-106.8
38.734,-112.99
38.750,-117.14
38.765,-119.31
38.781,-119.9
38.796,-119.39
38.812,-118.11
38.828,-116.15
38.843,-113.46
38.859,-109.93
38.875,-105.6
38.890,-100.63
38.906,-95.32
38.921,-89.87
38.937,-84.43
38.953,-79.07
38.968,-73.85
38.984,-68.88
39.000,-64.33
39.015,-60.37
39.031,-57.05
39.046,-54.23
39.062,-51.63
39.078,-48.88
39.093,-45.8
39.109,-42.52
39.125,-39.49
39.140,-37.26
39.156,-36.17
39.171,-36.06
39.187,-36.24
39.203,-35.66
39.218,-33.28
39.234,-28.46
39.250,-21.07
39.265,-11.51
39.281,-0.55
39.296,10.81
39.312,21.57
39.328,30.77
39.343,37.67
39.359,41.81
39.375,43.11
39.390,41.83
39.406,38.5
39.421,33.76
39.437,28.34
39.453,22.95
39.468,18.3
39.484,15.05
39.500,13.64
39.515,14.15
39.531,16.23
39.546,19.09
39.562,21.78
39.578,23.46
39.593,23.69
39.609,22.49
39.625,20.37
39.640,18.1
39.656,16.49
39.671,16.18
39.687,17.58
39.703,20.87
39.718,26.03
39.734,32.77
39.750,40.46
39.765,48.1
39.781,54.43
39.796,58.23
39.812,58.72
39.828,55.89
39.843,50.47
39.859,43.71
39.875,36.87
39.890,30.73
39.906,25.44
39.921,20.61
39.937,15.57
39.953,9.83
39.968,3.24
39.984,-3.96
40.000,-11.24
40.015,-17.9
40.031,-23.31
40.046,-27.1
40.062,-29.27
40.078,-30.28
40.093,-30.93
40.109,-32.14
40.125,-34.6
40.140,-38.54
40.156,-43.49
40.171,-48.29
40.187,-51.31
40.203,-50.85
40.218,-45.6
40.234,-35.03
40.250,-19.58
40.265,-0.56
40.281,20.22
40.296,40.84
40.312,59.61
40.328,75.3
40.343,87.2
40.359,95.05
40.375,99.06
40.390,99.75
40.406,97.86
40.421,94.22
40.437,89.58
40.453,84.54
40.468,79.49
40.484,74.67
40.500,70.25
40.515,66.32
40.531,62.85
40.546,59.76
40.562,56.89
40.578,54.07
40.593,51.06
40.609,47.6
40.625,43.45
40.640,38.53
40.656,33.16
40.671,28.17
40.687,24.76
40.703,24.26
40.718,27.55
40.734,34.77
40.750,45.26
40.765,57.82
40.781,71.1
40.796,83.97
40.812,95.53
40.828,104.92
40.843,111.15
40.859,113.1
40.875,109.81
40.890,100.85
40.906,86.71
40.921,68.83
40.937,49.3
40.953,30.33
40.968,13.65
40.984,0.19
41.000,-9.95
41.015,-17.27
41.031,-22.46
41.046,-26.14
41.062,-28.77
41.078,-30.64
41.093,-32.17
41.109,-33.83
41.125,-36.17
41.140,-39.54
41.156,-43.84
41.171,-48.45
41.187,-52.26
41.203,-54.03
41.218,-52.74
41.234,-47.96
41.250,-40.02
41.265,-29.98
41.281,-19.22
41.296,-9.12
41.312,-0.53
41.328,6.44
41.343,12.29
41.359,17.87
41.375,23.85
41.390,30.4
41.406,37.04
41.421,42.85
41.437,46.88
41.453,48.58
41.468,47.93
41.484,45.48
41.500,41.99
41.515,38.23
41.531,34.76
41.546,31.87
41.562,29.68
41.578,28.16
41.593,27.12
41.609,26.3
41.625,25.33
41.640,24.03
41.656,22.51
41.671,21.39
41.687,21.58
41.703,24.03
41.718,29.32
41.734,37.4
41.750,47.58
41.765,58.66
41.781,69.48
41.796,79.07
41.812,86.84
41.828,92.66
41.843,96.66
41.859,99.24
41.875,100.91
41.890,102.19
41.906,103.39
41.921,104.48
41.937,105.07
41.953,104.53
41.968,102.35
41.984,98.4
42.000,93.08
42.015,87.18
42.031,81.43
42.046,76.02
42.062,70.38
42.078,63.21
42.093,52.84
42.109,37.91
42.125,17.78
42.140,-7.1
42.156,-35.23
42.171,-64.21
42.187,-91.12
42.203,-113.0
42.218,-127.31
42.234,-132.48
42.250,-128.24
42.265,-115.79
42.281,-97.51
42.296,-76.46
42.312,-55.63
42.328,-37.39
42.343,-23.04
42.359,-12.8
42.375,-6.05
42.390,-1.7
42.406,1.37
42.421,3.97
42.437,6.5
42.453,8.98
42.468,11.28
42.484,13.38
42.500,15.5
42.515,17.99
42.531,21.22
42.546,25.29
42.562,29.94
42.578,34.75
42.593,39.12
42.609,42.57
42.625,44.61
42.640,44.81
42.656,42.81
42.671,38.48
42.687,32.18
42.703,24.78
42.718,17.49
42.734,11.44
42.750,7.17
42.765,4.43
42.781,2.34
42.796,-0.15
42.812,-3.61
42.828,-7.85
42.843,-12.02
42.859,-14.96
42.875,-15.78
42.890,-14.07
42.906,-9.93
42.921,-3.81
42.937,3.73
42.953,12.1
42.968,20.66
42.984,28.78
43.000,35.87
43.015,41.54
43.031,45.73
43.046,48.64
43.062,50.51
43.078,51.28
43.093,50.47
43.109,47.3
43.125,41.13
43.140,31.94
43.156,20.69
43.171,9.13
43.187,-0.73
43.203,-7.37
43.218,-10.39
43.234,-10.76
43.250,-10.36
43.265,-11.31
43.281,-15.16
43.296,-22.24
43.312,-31.58
43.328,-41.29
43.343,-49.18
43.359,-53.46
43.375,-53.3
43.390,-49.0
43.406,-41.69
43.421,-32.92
43.437,-24.1
43.453,-16.14
43.468,-9.37
43.484,-3.66
43.500,1.29
43.515,5.76
43.531,9.99
43.546,14.19
43.562,18.65
43.578,23.66
43.593,29.45
43.609,36.05
43.625,43.33
43.640,51.25
43.656,59.97
43.671,69.9
43.687,81.48
43.703,94.66
43.718,108.5
43.734,121.09
43.750,129.87
43.765,132.31
43.781,126.7
43.796,112.65
43.812,91.23
43.828,64.58
43.843,35.32
43.859,5.98
43.875,-21.38
43.890,-45.3
43.906,-64.81
43.921,-79.35
43.937,-88.71
43.953,-93.04
43.968,-92.86
43.984,-88.95
44.000,-82.21
44.015,-73.47
44.031,-63.41
44.046,-52.61
44.062,-41.7
44.078,-31.43
44.093,-22.53
44.109,-15.43
44.125,-9.98
44.140,-5.33
44.156,-0.32
44.171,6.0
44.187,13.83
44.203,22.31
44.218,29.93
44.234,35.11
44.250,36.93
44.265,35.39
44.281,31.27
44.296,25.5
44.312,18.7
44.328,10.87
44.343,1.55
44.359,-9.7
44.375,-22.94
44.390,-37.53
44.406,-52.23
44.421,-65.4
44.437,-75.45
44.453,-81.14
44.468,-81.89
44.484,-77.97
44.500,-70.44
44.515,-60.96
44.531,-51.27
44.546,-42.79
44.562,-36.19
44.578,-31.36
44.593,-27.55
44.609,-23.7
44.625,-18.84
44.640,-12.21
44.656,-3.46
44.671,7.5
44.687,20.52
44.703,35.21
44.718,50.96
44.734,66.98
44.750,82.47
44.765,96.84
44.781,109.88
44.796,121.54
44.812,131.69
44.828,139.71
44.843,144.42
44.859,144.33
44.875,138.28
44.890,126.04
44.906,108.55
44.921,87.77
44.937,66.08
44.953,45.54
44.968,27.43
44.984,12.11
45.000,-0.74
45.015,-11.77
45.031,-21.62
45.046,-30.85
45.062,-39.74
45.078,-48.31
45.093,-56.09
45.109,-62.12
45.125,-64.98
45.140,-63.23
45.156,-55.89
45.171,-42.97
45.187,-25.64
45.203,-5.97
45.218,13.69
45.234,31.43
45.250,46.16
45.265,57.5
45.281,65.4
45.296,69.64
45.312,69.72
45.328,65.14
45.343,55.78
45.359,42.25
45.375,25.77
45.390,7.78
45.406,-10.48
45.421,-28.35
45.437,-45.59
45.453,-62.11
45.468,-77.7
45.484,-91.84
45.500,-103.81
45.515,-112.89
45.531,-118.52
45.546,-120.35
45.562,-118.45
45.578,-113.26
45.593,-105.74
45.609,-97.11
45.625,-88.62
45.640,-81.1
45.656,-74.7
45.671,-68.95
45.687,-63.1
45.703,-56.64
45.718,-49.58
45.734,-42.42
45.750,-35.75
45.765,-29.79
45.781,-24.18
45.796,-18.16
45.812,-11.01
45.828,-2.55
45.843,6.74
45.859,15.99
45.875,24.29
45.890,31.24
45.906,36.99
45.921,42.05
45.937,46.81
45.953,51.23
45.968,54.73
45.984,56.44
46.000,55.66
46.015,52.18
46.031,46.43
46.046,39.29
46.062,31.78
46.078,24.81
46.093,19.11
46.109,15.23
46.125,13.67
46.140,14.86
46.156,18.96
46.171,25.68
46.187,34.1
46.203,42.67
46.218,49.52
46.234,52.88
46.250,51.51
46.265,44.96
46.281,33.72
46.296,18.95
46.312,2.31
46.328,-14.38
46.343,-29.39
46.359,-41.19
46.375,-48.64
46.390,-51.22
46.406,-49.16
46.421,-43.43
46.437,-35.59
46.453,-27.34
46.468,-20.07
46.484,-14.63
46.500,-11.27
46.515,-9.89
46.531,-10.3
46.546,-12.36
46.562,-15.91
46.578,-20.56
46.593,-25.57
46.609,-29.83
46.625,-32.22
46.640,-31.96
46.656,-28.93
46.671,-23.77
46.687,-17.7
46.703,-12.16
46.718,-8.36
46.734,-6.92
46.750,-7.68
46.765,-9.92
46.781,-12.58
46.796,-14.66
46.812,-15.55
46.828,-15.06
46.843,-13.4
46.859,-10.84
46.875,-7.62
46.890,-3.75
46.906,0.84
46.921,6.28
46.937,12.55
46.953,19.45
46.968,26.65
46.984,33.71
47.000,40.25
47.015,46.06
47.031,51.2
47.046,56.01
47.062,61.01
47.078,66.87
47.093,74.15
47.109,83.3
47.125,94.4
47.140,107.03
47.156,120.07
47.171,131.62
47.187,139.23
47.203,140.4
47.218,133.36
47.234,117.66
47.250,94.39
47.265,65.92
47.281,35.14
47.296,4.73
47.312,-23.34
47.328,-47.89
47.343,-68.26
47.359,-83.97
47.375,-94.64
47.390,-100.02
47.406,-100.25
47.421,-95.93
47.437,-88.12
47.453,-78.09
47.468,-66.99
47.484,-55.74
47.500,-44.93
47.515,-35.04
47.531,-26.46
47.546,-19.56
47.562,-14.52
47.578,-11.08
47.593,-8.45
47.609,-5.47
47.625,-1.06
47.640,5.12
47.656,12.31
47.671,18.63
47.687,21.75
47.703,19.71
47.718,11.78
47.734,-1.22
47.750,-17.16
47.765,-33.3
47.781,-47.03
47.796,-56.57
47.812,-61.22
47.828,-61.23
47.843,-57.6
47.859,-51.7
47.875,-44.98
47.890,-38.74
47.906,-33.93
47.921,-30.98
47.937,-29.87
47.953,-30.18
47.968,-31.28
47.984,-32.6
48.000,-33.63
48.015,-34.12
48.031,-33.87
48.046,-32.79
48.062,-30.67
48.078,-27.33
48.093,-22.61
48.109,-16.46
48.125,-9.0
48.140,-0.49
48.156,8.74
48.171,18.42
48.187,28.31
48.203,38.24
48.218,48.04
48.234,57.54
48.250,66.71
48.265,75.62
48.281,84.49
48.296,93.33
48.312,101.58
48.328,107.9
48.343,110.26
48.359,106.64
48.375,95.92
48.390,78.53
48.406,56.57
48.421,33.12
48.437,11.21
48.453,-7.14
48.468,-21.29
48.484,-31.72
48.500,-39.2
48.515,-44.07
48.531,-46.05
48.546,-44.5
48.562,-39.03
48.578,-29.97
48.593,-18.4
48.609,-5.83
48.625,6.31
48.640,17.06
48.656,25.83
48.671,32.12
48.687,35.19
48.703,34.02
48.718,27.81
48.734,16.55
48.750,1.5
48.765,-15.05
48.781,-30.51
48.796,-42.97
48.812,-51.87
48.828,-57.91
48.843,-62.5
48.859,-66.79
48.875,-71.13
48.890,-75.04
48.906,-77.62
48.921,-78.2
48.937,-76.7
48.953,-73.62
48.968,-69.64
48.984,-65.36
49.000,-61.08
49.015,-56.82
49.031,-52.45
49.046,-47.79
49.062,-42.71
49.078,-37.04
49.093,-30.7
49.109,-23.64
49.125,-16.04
49.140,-8.22
49.156,-0.57
49.171,6.55
49.187,12.93
49.203,18.56
49.218,23.56
49.234,28.17
49.250,32.67
49.265,37.39
49.281,42.64
49.296,48.52
49.312,54.59
49.328,59.82
49.343,62.64
49.359,61.4
49.375,55.03
49.390,43.52
49.406,28.07
49.421,10.82
49.437,-5.79
49.453,-19.74
49.468,-29.73
49.484,-35.35
49.500,-36.83
49.515,-34.81
49.531,-30.04
49.546,-23.32
49.562,-15.4
49.578,-6.97
49.593,1.41
49.609,9.32
49.625,16.5
49.640,22.82
49.656,28.29
49.671,33.05
49.687,37.36
49.703,41.56
49.718,45.92
49.734,50.37
49.750,54.36
49.765,56.75
49.781,56.13
49.796,51.32
49.812,41.77
49.828,27.88
49.843,10.92
49.859,-7.34
49.875,-25.06
49.890,-40.72
49.906,-53.21
49.921,-61.88
49.937,-66.47
49.953,-67.17
49.968,-64.67
49.984,-60.09
50.000,-54.78
50.015,-49.91
50.031,-46.16
50.046,-43.63
50.062,-41.94
50.078,-40.54
50.093,-38.96
50.109,-36.87
50.125,-34.09
50.140,-30.48
50.156,-26.0
50.171,-20.74
50.187,-15.04
50.203,-9.36
50.218,-4.11
50.234,0.52
50.250,4.74
50.265,9.08
50.281,14.15
50.296,20.46
50.312,28.13
50.328,36.8
50.343,45.57
50.359,53.07
50.375,57.65
50.390,57.79
50.406,52.54
50.421,41.84
50.437,26.8
50.453,9.46
50.468,-7.62
50.484,-22.0
50.500,-31.95
50.515,-36.79
50.531,-36.89
50.546,-33.36
50.562,-27.54
50.578,-20.54
50.593,-13.02
50.609,-5.25
50.625,2.72
50.640,10.76
50.656,18.58
50.671,25.74
50.687,31.92
50.703,37.04
50.718,41.32
50.734,45.13
50.750,48.72
50.765,52.05
50.781,54.72
50.796,56.05
50.812,55.23
50.828,51.49
50.843,44.3
50.859,33.53
50.875,19.56
50.890,3.2
50.906,-14.34
50.921,-31.69
50.937,-47.46
50.953,-60.51
50.968,-70.01
50.984,-75.59
51.000,-77.32
51.015,-75.68
51.031,-71.44
51.046,-65.51
51.062,-58.71
51.078,-51.7
51.093,-44.85
51.109,-38.31
51.125,-32.03
51.140,-25.86
51.156,-19.67
51.171,-13.39
51.187,-7.06
51.203,-0.86
51.218,4.93
51.234,10.03
51.250,14.32
51.265,17.88
51.281,21.02
51.296,24.17
51.312,27.75
51.328,32.16
51.343,37.66
51.359,44.32
51.375,51.78
51.390,59.02
51.406,64.35
51.421,65.63
51.437,60.94
51.453,49.29
51.468,31.21
51.484,8.75
51.500,-14.99
51.515,-36.67
51.531,-53.46
51.546,-63.65
51.562,-66.68
51.578,-63.12
51.593,-54.34
51.609,-42.14
51.625,-28.43
51.640,-14.82
51.656,-2.46
51.671,8.06
51.687,16.57
51.703,23.19
51.718,28.19
51.734,31.96
51.750,35.03
51.765,37.94
51.781,41.07
51.796,44.42
51.812,47.47
51.828,49.31
51.843,48.89
51.859,45.4
51.875,38.49
51.890,28.29
51.906,15.32
51.921,0.39
51.937,-15.56
51.953,-31.49
51.968,-46.31
51.984,-59.01
52.000,-68.72
52.015,-74.92
52.031,-77.54
52.046,-76.85
52.062,-73.45
52.078,-67.97
52.093,-61.03
52.109,-53.12
52.125,-44.69
52.140,-36.13
52.156,-27.8
52.171,-19.95
52.187,-12.68
52.203,-5.95
52.218,0.36
52.234,6.33
52.250,12.01
52.265,17.29
52.281,22.13
52.296,26.54
52.312,30.7
52.328,34.88
52.343,39.36
52.359,44.36
52.375,50.09
52.390,56.54
52.406,63.47
52.421,70.19
52.437,75.52
52.453,77.95
52.468,76.01
52.484,68.81
52.500,56.36
52.515,39.67
52.531,20.44
52.546,0.68
52.562,-17.71
52.578,-33.11
52.593,-44.16
52.609,-49.8
52.625,-49.45
52.640,-43.29
52.656,-32.44
52.671,-18.84
52.687,-4.78
52.703,7.77
52.718,17.7
52.734,24.85
52.750,29.79
52.765,33.41
52.781,36.45
52.796,39.34
52.812,42.11
52.828,44.45
52.843,45.73
52.859,45.1
52.875,41.71
52.890,34.94
52.906,24.65
52.921,11.29
52.937,-4.18
52.953,-20.58
52.968,-36.76
52.984,-51.75
53.000,-64.8
53.015,-75.45
53.031,-83.4
53.046,-88.57
53.062,-91.01
53.078,-90.82
53.093,-88.06
53.109,-82.71
53.125,-74.76
53.140,-64.5
53.156,-52.61
53.171,-40.1
53.187,-28.08
53.203,-17.36
53.218,-8.25
53.234,-0.5
53.250,6.42
53.265,12.99
53.281,19.41
53.296,25.6
53.312,31.4
53.328,36.77
53.343,41.88
53.359,47.13
53.375,52.95
53.390,59.65
53.406,67.23
53.421,75.29
53.437,82.96
53.453,88.9
53.468,91.43
53.484,88.9
53.500,80.23
53.515,65.37
53.531,45.55
53.546,23.04
53.562,0.55
53.578,-19.54
53.593,-35.66
53.609,-47.22
53.625,-54.34
53.640,-57.39
53.656,-56.76
53.671,-52.82
53.687,-46.07
53.703,-37.34
53.718,-27.64
53.734,-17.96
53.750,-8.93
53.765,-0.77
53.781,6.63
53.796,13.32
53.812,19.2
53.828,23.92
53.843,27.14
53.859,28.69
53.875,28.71
53.890,27.48
53.906,25.26
53.921,22.09
53.937,17.78
53.953,12.1
53.968,4.91
53.984,-3.79
54.000,-13.8
54.015,-24.8
54.031,-36.32
54.046,-47.74
54.062,-58.2
54.078,-66.75
54.093,-72.47
54.109,-74.66
54.125,-73.03
54.140,-67.78
54.156,-59.49
54.171,-49.08
54.187,-37.64
54.203,-26.25
54.218,-15.89
54.234,-7.28
54.250,-0.73
54.265,3.9
54.281,7.09
54.296,9.49
54.312,11.71
54.328,14.14
54.343,17.03
54.359,20.42
54.375,24.33
54.390,28.76
54.406,33.69
54.421,39.05
54.437,44.73
54.453,50.58
54.468,56.47
54.484,62.19
54.500,67.3
54.515,70.98
54.531,72.08
54.546,69.26
54.562,61.43
54.578,48.22
54.593,30.1
54.609,8.49
54.625,-14.67
54.640,-37.15
54.656,-56.88
54.671,-72.09
54.687,-81.49
54.703,-84.45
54.718,-81.05
54.734,-72.17
54.750,-59.43
54.765,-44.87
54.781,-30.48
54.796,-17.7
54.812,-7.3
54.828,0.67
54.843,6.51
54.859,10.63
54.875,13.47
54.890,15.48
54.906,17.36
54.921,19.94
54.937,24.01
54.953,29.9
54.968,37.04
54.984,43.9
55.000,48.37
55.015,48.37
55.031,42.54
55.046,30.8
55.062,14.26
55.078,-5.01
55.093,-24.59
55.109,-42.24
55.125,-56.25
55.140,-65.62
55.156,-69.97
55.171,-69.59
55.187,-65.2
55.203,-57.89
55.218,-48.97
55.234,-39.75
55.250,-31.33
55.265,-24.42
55.281,-19.34
55.296,-15.93
55.312,-13.72
55.328,-11.97
55.343,-9.9
55.359,-6.86
55.375,-2.5
55.390,3.05
55.406,9.32
55.421,15.61
55.437,21.4
55.453,26.48
55.468,31.1
55.484,35.76
55.500,41.02
55.515,47.31
55.531,54.7
55.546,62.91
55.562,71.26
55.578,78.63
55.593,83.53
55.609,84.33
55.625,79.73
55.640,69.27
55.656,53.73
55.671,34.99
55.687,15.58
55.703,-2.17
55.718,-16.79
55.734,-27.91
55.750,-36.03
55.765,-41.86
55.781,-45.9
55.796,-48.06
55.812,-47.96
55.828,-45.22
55.843,-39.83
55.859,-32.24
55.875,-23.23
55.890,-13.6
55.906,-4.0
55.921,5.14
55.937,13.51
55.953,20.87
55.968,26.94
55.984,31.41
56.000,33.96
56.015,34.33
56.031,32.26
56.046,27.6
56.062,20.31
56.078,10.61
56.093,-1.09
56.109,-14.22
56.125,-28.16
56.140,-42.31
56.156,-56.01
56.171,-68.44
56.187,-78.51
56.203,-85.0
56.218,-86.87
56.234,-83.72
56.250,-76.07
56.265,-65.29
56.281,-53.23
56.296,-41.63
56.312,-31.58
56.328,-23.4
56.343,-16.8
56.359,-11.24
56.375,-6.26
56.390,-1.63
56.406,2.69
56.421,6.68
56.437,10.38
56.453,13.93
56.468,17.52
56.484,21.27
56.500,25.22
56.515,29.28
56.531,33.37
56.546,37.55
56.562,42.02
56.578,47.13
56.593,53.08
56.609,59.76
56.625,66.44
56.640,71.81
56.656,74.38
56.671,73.01
56.687,67.37
56.703,58.24
56.718,47.2
56.734,36.22
56.750,27.05
56.765,20.91
56.781,18.42
56.796,19.83
56.812,25.16
56.828,34.25
56.843,46.64
56.859,61.5
56.875,77.7
56.890,94.04
56.906,109.67
56.921,124.26
56.937,138.02
56.953,151.45
56.968,165.03
56.984,179.04
57.000,193.42
57.015,207.89
57.031,221.93
57.046,234.88
57.062,245.97
57.078,254.51
57.093,260.07
57.109,262.68
57.125,262.71
57.140,260.38
57.156,255.35
57.171,246.41
57.187,231.81
57.203,209.95
57.218,180.22
57.234,143.54
57.250,102.25
57.265,59.38
57.281,17.64
57.296,-21.18
57.312,-56.62
57.328,-89.32
57.343,-120.56
57.359,-152.0
57.375,-185.5
57.390,-222.84
57.406,-265.03
57.421,-311.32
57.437,-358.34
57.453,-400.31
57.468,-430.41
57.484,-443.22
57.500,-437.01
57.515,-414.72
57.531,-383.08
57.546,-350.12
57.562,-322.29
57.578,-302.43
57.593,-289.61
57.609,-280.41
57.625,-270.95
57.640,-258.54
57.656,-242.28
57.671,-222.64
57.687,-200.58
57.703,-176.79
57.718,-151.44
57.734,-124.49
57.750,-96.15
57.765,-67.31
57.781,-39.53
57.796,-14.52
57.812,6.48
57.828,23.05
57.843,35.51
57.859,44.43
57.875,50.08
57.890,52.33
57.906,50.91
57.921,45.98
57.937,38.45
57.953,29.92
57.968,22.15
57.984,16.51
58.000,13.66
58.015,13.58
58.031,15.91
58.046,20.07
58.062,25.48
58.078,31.5
58.093,37.45
58.109,42.75
58.125,47.16
58.140,51.01
58.156,55.12
58.171,60.57
58.187,68.15
58.203,78.17
58.218,90.34
58.234,104.0
58.250,118.42
58.265,133.0
58.281,147.43
58.296,161.52
58.312,175.08
58.328,187.71
58.343,198.65
58.359,206.79
58.375,210.74
58.390,209.07
58.406,200.65
58.421,185.04
58.437,162.71
58.453,135.08
58.468,104.09
58.484,71.61
58.500,38.86
58.515,6.1
58.531,-27.01
58.546,-60.85
58.562,-95.12
58.578,-128.65
58.593,-159.66
58.609,-186.36
58.625,-207.41
58.640,-221.99
58.656,-229.68
58.671,-230.28
58.687,-224.02
58.703,-211.87
58.718,-195.73
58.734,-178.12
58.750,-161.4
58.765,-146.94
58.781,-134.66
58.796,-123.47
58.812,-112.13
58.828,-100.14
58.843,-87.87
58.859,-76.17
58.875,-65.65
58.890,-56.18
58.906,-47.08
58.921,-37.57
58.937,-27.4
58.953,-17.0
58.968,-7.18
58.984,1.37
59.000,8.45
59.015,14.37
59.031,19.59
59.046,24.35
59.062,28.35
59.078,30.93
59.093,31.48
59.109,29.92
59.125,26.95
59.140,23.93
59.156,22.46
59.171,23.86
59.187,28.66
59.203,36.62
59.218,46.89
59.234,58.49
59.250,70.66
59.265,83.04
59.281,95.55
59.296,108.09
59.312,120.31
59.328,131.5
59.343,140.77
59.359,147.43
59.375,151.36
59.390,153.15
59.406,153.91
59.421,154.64
59.437,155.56
59.453,155.8
59.468,153.57
59.484,146.75
59.500,133.5
59.515,112.67
59.531,83.88
59.546,47.59
59.562,5.14
59.578,-40.95
59.593,-86.96
59.609,-128.3
59.625,-160.5
59.640,-180.36
59.656,-186.9
59.671,-181.44
59.687,-166.95
59.703,-146.86
59.718,-124.09
59.734,-100.47
59.750,-76.81
59.765,-53.22
59.781,-29.38
59.796,-4.82
59.812,20.85
59.828,47.58
59.843,74.71
59.859,100.91
59.875,124.54
59.890,144.23
59.906,159.53
59.921,171.36
59.937,181.79
59.953,193.48
59.968,208.79
59.984,229.03
