timestamp,value
00.000,-194.59
00.015,-193.21
00.031,-187.13
00.046,-173.88
00.062,-152.59
00.078,-124.46
00.093,-92.39
00.109,-60.0
00.125,-30.51
00.140,-6.01
00.156,12.69
00.171,25.48
00.187,32.59
00.203,34.23
00.218,30.89
00.234,23.68
00.250,14.44
00.265,5.36
00.281,-1.89
00.296,-6.65
00.312,-9.46
00.328,-11.34
00.343,-12.91
00.359,-13.81
00.375,-12.78
00.390,-8.49
00.406,-0.52
00.421,10.14
00.437,21.34
00.453,30.77
00.468,36.82
00.484,39.16
00.500,38.59
00.515,36.34
00.531,33.36
00.546,29.86
00.562,25.39
00.578,19.39
00.593,11.78
00.609,3.34
00.625,-4.34
00.640,-9.31
00.656,-10.04
00.671,-5.91
00.687,2.56
00.703,13.97
00.718,26.56
00.734,38.73
00.750,49.51
00.765,58.43
00.781,65.38
00.796,70.26
00.812,72.8
00.828,72.72
00.843,69.91
00.859,64.72
00.875,57.9
00.890,50.43
00.906,43.25
00.921,37.03
00.937,32.0
00.953,28.09
00.968,25.02
00.984,22.46
01.000,20.17
01.015,17.96
01.031,15.7
01.046,13.24
01.062,10.52
01.078,7.45
01.093,3.96
01.109,-0.01
01.125,-4.55
01.140,-9.64
01.156,-15.25
01.171,-21.32
01.187,-27.75
01.203,-34.4
01.218,-40.9
01.234,-46.61
01.250,-50.54
01.265,-51.59
01.281,-48.81
01.296,-41.87
01.312,-31.16
01.328,-17.86
01.343,-3.53
01.359,10.28
01.375,22.43
01.390,32.28
01.406,39.6
01.421,44.4
01.437,46.77
01.453,46.93
01.468,45.29
01.484,42.51
01.500,39.39
01.515,36.67
01.531,34.83
01.546,33.91
01.562,33.56
01.578,33.23
01.593,32.4
01.609,30.8
01.625,28.4
01.640,25.42
01.656,22.07
01.671,18.55
01.687,14.91
01.703,11.11
01.718,7.09
01.734,2.82
01.750,-1.69
01.765,-6.54
01.781,-11.86
01.796,-17.82
01.812,-24.34
01.828,-31.02
01.843,-36.95
01.859,-40.93
01.875,-41.76
01.890,-38.68
01.906,-31.69
01.921,-21.55
01.937,-9.53
01.953,2.97
01.968,14.78
01.984,25.13
02.000,33.58
02.015,39.87
02.031,43.93
02.046,45.73
02.062,45.42
02.078,43.43
02.093,40.4
02.109,37.04
02.125,33.97
02.140,31.55
02.156,29.82
02.171,28.55
02.187,27.42
02.203,26.12
02.218,24.44
02.234,22.34
02.250,19.89
02.265,17.25
02.281,14.57
02.296,11.88
02.312,9.1
02.328,6.01
02.343,2.4
02.359,-1.91
02.375,-6.95
02.390,-12.71
02.406,-19.04
02.421,-25.74
02.437,-32.37
02.453,-38.16
02.468,-42.05
02.484,-42.96
02.500,-40.08
02.515,-33.36
02.531,-23.53
02.546,-11.93
02.562,-0.08
02.578,10.8
02.593,20.02
02.609,27.41
02.625,33.06
02.640,37.05
02.656,39.41
02.671,40.13
02.687,39.31
02.703,37.29
02.718,34.58
02.734,31.75
02.750,29.22
02.765,27.18
02.781,25.6
02.796,24.24
02.812,22.83
02.828,21.16
02.843,19.07
02.859,16.49
02.875,13.42
02.890,9.88
02.906,5.91
02.921,1.61
02.937,-2.95
02.953,-7.65
02.968,-12.48
02.984,-17.51
03.000,-22.91
03.015,-28.82
03.031,-35.21
03.046,-41.72
03.062,-47.63
03.078,-51.88
03.093,-53.38
03.109,-51.3
03.125,-45.41
03.140,-36.2
03.156,-24.79
03.171,-12.58
03.187,-0.93
03.203,9.21
03.218,17.41
03.234,23.63
03.250,28.06
03.265,30.88
03.281,32.2
03.296,32.15
03.312,30.91
03.328,28.88
03.343,26.61
03.359,24.65
03.375,23.43
03.390,23.17
03.406,23.74
03.421,24.86
03.437,26.11
03.453,27.13
03.468,27.7
03.484,27.74
03.500,27.31
03.515,26.51
03.531,25.43
03.546,24.1
03.562,22.49
03.578,20.52
03.593,18.07
03.609,14.98
03.625,11.01
03.640,5.96
03.656,-0.21
03.671,-7.2
03.687,-14.24
03.703,-20.23
03.718,-23.94
03.734,-24.42
03.750,-21.34
03.765,-15.09
03.781,-6.66
03.796,2.71
03.812,11.8
03.828,19.7
03.843,25.83
03.859,29.83
03.875,31.53
03.890,30.94
03.906,28.23
03.921,23.87
03.937,18.59
03.953,13.2
03.968,8.44
03.984,4.78
04.000,2.32
04.015,0.83
04.031,-0.11
04.046,-0.95
04.062,-2.03
04.078,-3.56
04.093,-5.58
04.109,-8.01
04.125,-10.72
04.140,-13.58
04.156,-16.49
04.171,-19.4
04.187,-22.35
04.203,-25.45
04.218,-28.83
04.234,-32.66
04.250,-37.02
04.265,-41.9
04.281,-47.01
04.296,-51.78
04.312,-55.34
04.328,-56.69
04.343,-54.93
04.359,-49.51
04.375,-40.52
04.390,-28.61
04.406,-14.97
04.421,-1.02
04.437,11.95
04.453,22.98
04.468,31.57
04.484,37.62
04.500,41.26
04.515,42.66
04.531,42.01
04.546,39.5
04.562,35.43
04.578,30.34
04.593,24.97
04.609,20.16
04.625,16.62
04.640,14.69
04.656,14.19
04.671,14.54
04.687,14.93
04.703,14.68
04.718,13.4
04.734,11.11
04.750,8.07
04.765,4.58
04.781,0.88
04.796,-2.92
04.812,-6.83
04.828,-10.97
04.843,-15.51
04.859,-20.62
04.875,-26.48
04.890,-33.03
04.906,-39.82
04.921,-45.95
04.937,-50.16
04.953,-51.12
04.968,-48.0
04.984,-40.75
05.000,-30.16
05.015,-17.66
05.031,-4.87
05.046,6.86
05.062,16.65
05.078,24.08
05.093,29.07
05.109,31.62
05.125,31.77
05.140,29.63
05.156,25.49
05.171,19.92
05.187,13.72
05.203,7.74
05.218,2.65
05.234,-1.31
05.250,-4.3
05.265,-6.88
05.281,-9.73
05.296,-13.33
05.312,-17.83
05.328,-22.97
05.343,-28.28
05.359,-33.31
05.375,-37.83
05.390,-41.9
05.406,-45.83
05.421,-49.95
05.437,-54.61
05.453,-60.04
05.468,-66.48
05.484,-74.01
05.500,-82.42
05.515,-90.91
05.531,-97.98
05.546,-101.8
05.562,-100.73
05.578,-93.98
05.593,-81.95
05.609,-66.17
05.625,-48.68
05.640,-31.4
05.656,-15.63
05.671,-1.98
05.687,9.39
05.703,18.47
05.718,25.21
05.734,29.55
05.750,31.57
05.765,31.64
05.781,30.25
05.796,28.05
05.812,25.56
05.828,23.11
05.843,20.77
05.859,18.45
05.875,15.96
05.890,13.15
05.906,10.04
05.921,6.79
05.937,3.62
05.953,0.69
05.968,-2.1
05.984,-5.02
06.000,-8.45
06.015,-12.64
06.031,-17.61
06.046,-23.19
06.062,-29.17
06.078,-35.48
06.093,-42.21
06.109,-49.4
06.125,-56.7
06.140,-63.2
06.156,-67.48
06.171,-68.05
06.187,-63.93
06.203,-55.11
06.218,-42.55
06.234,-27.87
06.250,-12.74
06.265,1.73
06.281,15.08
06.296,27.32
06.312,38.48
06.328,48.24
06.343,55.81
06.359,60.36
06.375,61.41
06.390,59.23
06.406,54.82
06.421,49.6
06.437,44.88
06.453,41.49
06.468,39.62
06.484,38.95
06.500,38.98
06.515,39.29
06.531,39.66
06.546,40.05
06.562,40.43
06.578,40.79
06.593,40.99
06.609,40.89
06.625,40.42
06.640,39.67
06.656,38.82
06.671,38.09
06.687,37.61
06.703,37.34
06.718,37.1
06.734,36.6
06.750,35.61
06.765,34.0
06.781,31.82
06.796,29.26
06.812,26.56
06.828,23.94
06.843,21.51
06.859,19.35
06.875,17.45
06.890,15.79
06.906,14.31
06.921,12.91
06.937,11.52
06.953,10.12
06.968,8.78
06.984,7.58
07.000,6.57
07.015,5.61
07.031,4.53
07.046,3.17
07.062,1.56
07.078,-0.02
07.093,-1.16
07.109,-1.56
07.125,-1.27
07.140,-0.66
07.156,-0.3
07.171,-0.65
07.187,-1.79
07.203,-3.46
07.218,-5.17
07.234,-6.45
07.250,-7.05
07.265,-6.93
07.281,-6.28
07.296,-5.43
07.312,-4.88
07.328,-5.28
07.343,-7.34
07.359,-11.54
07.375,-17.8
07.390,-25.27
07.406,-32.43
07.421,-37.5
07.437,-38.93
07.453,-35.92
07.468,-28.63
07.484,-18.05
07.500,-5.69
07.515,6.86
07.531,18.23
07.546,27.56
07.562,34.39
07.578,38.69
07.593,40.7
07.609,40.83
07.625,39.58
07.640,37.48
07.656,35.06
07.671,32.78
07.687,31.06
07.703,30.29
07.718,30.74
07.734,32.65
07.750,36.12
07.765,41.12
07.781,47.37
07.796,54.41
07.812,61.67
07.828,68.66
07.843,75.05
07.859,80.76
07.875,85.77
07.890,90.04
07.906,93.31
07.921,95.09
07.937,94.76
07.953,91.68
07.968,85.3
07.984,75.28
08.000,61.54
08.015,44.45
08.031,25.0
08.046,4.88
08.062,-13.86
08.078,-29.24
08.093,-40.04
08.109,-46.28
08.125,-49.15
08.140,-50.47
08.156,-51.93
08.171,-54.44
08.187,-57.94
08.203,-61.77
08.218,-65.22
08.234,-68.07
08.250,-70.79
08.265,-74.31
08.281,-79.46
08.296,-86.55
08.312,-95.08
08.328,-103.73
08.343,-110.82
08.359,-114.68
08.375,-114.03
08.390,-108.26
08.406,-97.4
08.421,-82.08
08.437,-63.48
08.453,-43.4
08.468,-24.12
08.484,-8.22
08.500,1.92
08.515,4.61
08.531,-0.64
08.546,-13.01
08.562,-30.7
08.578,-51.5
08.593,-73.35
08.609,-94.54
08.625,-113.67
08.640,-129.13
08.656,-139.07
08.671,-141.52
08.687,-135.0
08.703,-119.26
08.718,-95.72
08.734,-67.38
08.750,-38.08
08.765,-11.7
08.781,8.86
08.796,22.07
08.812,27.94
08.828,27.67
08.843,23.21
08.859,16.68
08.875,9.99
08.890,4.64
08.906,1.43
08.921,0.57
08.937,1.69
08.953,3.99
08.968,6.49
08.984,8.17
09.000,8.32
09.015,6.58
09.031,3.1
09.046,-1.69
09.062,-7.22
09.078,-13.01
09.093,-18.86
09.109,-24.83
09.125,-31.25
09.140,-38.61
09.156,-47.49
09.171,-58.35
09.187,-71.37
09.203,-86.13
09.218,-101.49
09.234,-115.62
09.250,-126.42
09.265,-131.89
09.281,-130.77
09.296,-122.79
09.312,-108.64
09.328,-89.68
09.343,-67.56
09.359,-43.91
09.375,-20.33
09.390,1.6
09.406,20.38
09.421,34.76
09.437,44.19
09.453,49.18
09.468,51.28
09.484,52.59
09.500,54.95
09.515,59.25
09.531,65.22
09.546,71.82
09.562,77.94
09.578,83.07
09.593,87.46
09.609,91.8
09.625,96.68
09.640,102.19
09.656,107.81
09.671,112.77
09.687,116.42
09.703,118.53
09.718,119.28
09.734,119.17
09.750,118.69
09.765,118.15
09.781,117.69
09.796,117.19
09.812,116.45
09.828,115.34
09.843,113.85
09.859,112.07
09.875,110.0
09.890,107.52
09.906,104.35
09.921,100.36
09.937,95.66
09.953,90.62
09.968,85.73
09.984,81.17
10.000,76.73
10.015,71.82
10.031,65.89
10.046,58.78
10.062,50.83
10.078,42.73
10.093,35.1
10.109,28.24
10.125,22.05
10.140,16.17
10.156,10.3
10.171,4.21
10.187,-2.24
10.203,-9.23
10.218,-17.05
10.234,-25.94
10.250,-35.92
10.265,-46.84
10.281,-58.27
10.296,-69.66
10.312,-80.54
10.328,-90.64
10.343,-99.88
10.359,-108.41
10.375,-116.28
10.390,-123.46
10.406,-129.81
10.421,-135.25
10.437,-140.04
10.453,-144.74
10.468,-149.93
10.484,-155.63
10.500,-160.96
10.515,-164.09
10.531,-162.88
10.546,-155.73
10.562,-142.46
10.578,-124.4
10.593,-104.01
10.609,-83.97
10.625,-66.28
10.640,-51.94
10.656,-41.0
10.671,-33.08
10.687,-27.67
10.703,-24.39
10.718,-22.87
10.734,-22.57
10.750,-22.72
10.765,-22.41
10.781,-20.73
10.796,-17.08
10.812,-11.23
10.828,-3.46
10.843,5.61
10.859,15.09
10.875,24.03
10.890,31.67
10.906,37.5
10.921,41.42
10.937,43.63
10.953,44.65
10.968,45.08
10.984,45.61
11.000,46.82
11.015,49.07
11.031,52.4
11.046,56.47
11.062,60.65
11.078,64.25
11.093,66.87
11.109,68.7
11.125,70.61
11.140,73.96
11.156,80.21
11.171,90.37
11.187,104.63
11.203,122.29
11.218,141.9
11.234,161.86
11.250,180.79
11.265,197.99
11.281,213.42
11.296,227.51
11.312,240.63
11.328,252.57
11.343,262.44
11.359,268.66
11.375,269.63
11.390,264.21
11.406,252.28
11.421,234.84
11.437,213.85
11.453,191.64
11.468,170.21
11.484,150.69
11.500,133.07
11.515,116.37
11.531,99.16
11.546,80.16
11.562,58.73
11.578,35.04
11.593,9.76
11.609,-16.3
11.625,-42.65
11.640,-69.08
11.656,-95.45
11.671,-121.32
11.687,-145.71
11.703,-167.31
11.718,-184.77
11.734,-197.04
11.750,-203.52
11.765,-204.04
11.781,-198.98
11.796,-189.33
11.812,-176.81
11.828,-163.84
11.843,-153.05
11.859,-146.53
11.875,-145.19
11.890,-148.39
11.906,-154.25
11.921,-160.44
11.937,-164.8
11.953,-165.99
11.968,-163.56
11.984,-157.71
12.000,-149.02
12.015,-138.28
12.031,-126.32
12.046,-113.99
12.062,-102.15
12.078,-91.46
12.093,-82.36
12.109,-74.94
12.125,-68.92
12.140,-63.79
12.156,-59.02
12.171,-54.33
12.187,-49.84
12.203,-46.18
12.218,-44.14
12.234,-44.45
12.250,-47.35
12.265,-52.46
12.281,-58.9
12.296,-65.52
12.312,-71.17
12.328,-74.8
12.343,-75.5
12.359,-72.5
12.375,-65.21
12.390,-53.45
12.406,-37.63
12.421,-18.89
12.437,1.03
12.453,20.19
12.468,36.8
12.484,49.69
12.500,58.41
12.515,63.25
12.531,65.0
12.546,64.71
12.562,63.41
12.578,61.95
12.593,60.93
12.609,60.62
12.625,61.06
12.640,62.07
12.656,63.42
12.671,64.95
12.687,66.59
12.703,68.33
12.718,70.05
12.734,71.46
12.750,72.06
12.765,71.31
12.781,68.82
12.796,64.45
12.812,58.08
12.828,49.5
12.843,38.13
12.859,23.28
12.875,4.63
12.890,-17.16
12.906,-40.29
12.921,-62.13
12.937,-80.06
12.953,-92.29
12.968,-98.32
12.984,-98.67
13.000,-94.38
13.015,-86.29
13.031,-75.05
13.046,-61.35
13.062,-46.33
13.078,-31.71
13.093,-19.37
13.109,-10.6
13.125,-5.49
13.140,-3.05
13.156,-1.53
13.171,0.72
13.187,4.79
13.203,10.97
13.218,18.88
13.234,27.81
13.250,37.03
13.265,45.98
13.281,54.38
13.296,62.29
13.312,70.0
13.328,77.92
13.343,86.48
13.359,95.91
13.375,106.11
13.390,116.48
13.406,125.78
13.421,132.01
13.437,132.66
13.453,125.2
13.468,107.9
13.484,80.6
13.500,44.93
13.515,3.91
13.531,-38.97
13.546,-80.62
13.562,-118.75
13.578,-151.68
13.593,-177.9
13.609,-195.87
13.625,-204.17
13.640,-202.22
13.656,-190.73
13.671,-171.88
13.687,-148.73
13.703,-124.23
13.718,-100.47
13.734,-78.25
13.750,-57.48
13.765,-37.75
13.781,-19.15
13.796,-2.41
13.812,11.41
13.828,21.43
13.843,27.56
13.859,30.61
13.875,32.06
13.890,33.36
13.906,35.49
13.921,38.64
13.937,42.38
13.953,46.09
13.968,49.37
13.984,52.16
14.000,54.67
14.015,57.08
14.031,59.28
14.046,60.89
14.062,61.34
14.078,60.19
14.093,57.44
14.109,53.5
14.125,49.11
14.140,44.96
14.156,41.4
14.171,38.18
14.187,34.58
14.203,29.63
14.218,22.44
14.234,12.58
14.250,0.09
14.265,-14.48
14.281,-30.18
14.296,-45.81
14.312,-59.98
14.328,-71.24
14.343,-78.25
14.359,-80.04
14.375,-76.15
14.390,-66.89
14.406,-53.26
14.421,-36.78
14.437,-19.15
14.453,-1.97
14.468,13.55
14.484,26.78
14.500,37.62
14.515,46.51
14.531,54.17
14.546,61.38
14.562,68.67
14.578,76.12
14.593,83.39
14.609,89.7
14.625,94.2
14.640,96.15
14.656,95.08
14.671,90.87
14.687,83.72
14.703,74.04
14.718,62.28
14.734,48.59
14.750,32.48
14.765,12.75
14.781,-11.99
14.796,-42.33
14.812,-77.17
14.828,-113.2
14.843,-145.45
14.859,-168.85
14.875,-179.91
14.890,-177.88
14.906,-164.82
14.921,-144.43
14.937,-120.64
14.953,-96.55
14.968,-74.32
14.984,-55.5
15.000,-41.46
15.015,-33.19
15.031,-30.75
15.046,-32.66
15.062,-35.84
15.078,-36.41
15.093,-30.96
15.109,-17.78
15.125,2.56
15.140,27.51
15.156,53.46
15.171,76.89
15.187,95.34
15.203,107.63
15.218,113.72
15.234,114.18
15.250,109.71
15.265,100.81
15.281,87.87
15.296,71.55
15.312,53.04
15.328,34.11
15.343,16.56
15.359,1.62
15.375,-10.4
15.390,-19.76
15.406,-26.66
15.421,-30.74
15.437,-31.35
15.453,-28.32
15.468,-22.99
15.484,-18.38
15.500,-18.28
15.515,-25.59
15.531,-40.75
15.546,-61.52
15.562,-83.99
15.578,-104.37
15.593,-120.53
15.609,-132.24
15.625,-140.3
15.640,-145.24
15.656,-146.66
15.671,-143.59
15.687,-135.47
15.703,-123.15
15.718,-108.98
15.734,-95.99
15.750,-86.53
15.765,-81.25
15.781,-78.83
15.796,-76.69
15.812,-72.21
15.828,-63.82
15.843,-51.41
15.859,-36.12
15.875,-19.51
15.890,-2.89
15.906,13.09
15.921,28.38
15.937,43.06
15.953,57.0
15.968,69.64
15.984,80.14
16.000,87.76
16.015,92.31
16.031,94.34
16.046,95.04
16.062,95.81
16.078,97.79
16.093,101.53
16.109,106.87
16.125,113.17
16.140,119.54
16.156,125.22
16.171,129.7
16.187,132.84
16.203,134.7
16.218,135.46
16.234,135.18
16.250,133.66
16.265,130.54
16.281,125.34
16.296,117.76
16.312,107.78
16.328,95.73
16.343,82.12
16.359,67.48
16.375,52.15
16.390,36.35
16.406,20.24
16.421,4.11
16.437,-11.57
16.453,-26.18
16.468,-39.01
16.484,-49.37
16.500,-56.6
16.515,-60.13
16.531,-59.52
16.546,-54.57
16.562,-45.48
16.578,-32.89
16.593,-17.85
16.609,-1.65
16.625,14.44
16.640,29.33
16.656,42.23
16.671,52.66
16.687,60.41
16.703,65.56
16.718,68.44
16.734,69.69
16.750,70.16
16.765,70.79
16.781,72.29
16.796,74.99
16.812,78.62
16.828,82.38
16.843,85.24
16.859,86.25
16.875,84.89
16.890,81.14
16.906,75.33
16.921,67.89
16.937,59.13
16.953,49.2
16.968,38.17
16.984,26.25
17.000,13.84
17.015,1.5
17.031,-10.18
17.046,-20.8
17.062,-30.19
17.078,-38.49
17.093,-46.0
17.109,-53.24
17.125,-60.75
17.140,-68.98
17.156,-77.95
17.171,-87.09
17.187,-95.13
17.203,-100.35
17.218,-101.18
17.234,-96.71
17.250,-87.05
17.265,-73.3
17.281,-57.14
17.296,-40.3
17.312,-24.12
17.328,-9.42
17.343,3.45
17.359,14.36
17.375,23.21
17.390,29.9
17.406,34.34
17.421,36.51
17.437,36.62
17.453,35.06
17.468,32.42
17.484,29.33
17.500,26.36
17.515,23.89
17.531,22.1
17.546,20.96
17.562,20.37
17.578,20.19
17.593,20.26
17.609,20.33
17.625,20.03
17.640,18.95
17.656,16.7
17.671,13.18
17.687,8.62
17.703,3.56
17.718,-1.34
17.734,-5.64
17.750,-9.25
17.765,-12.55
17.781,-16.22
17.796,-20.95
17.812,-27.19
17.828,-34.88
17.843,-43.46
17.859,-51.91
17.875,-59.0
17.890,-63.51
17.906,-64.5
17.921,-61.46
17.937,-54.35
17.953,-43.64
17.968,-30.16
17.984,-14.98
18.000,0.75
18.015,15.92
18.031,29.56
18.046,40.93
18.062,49.58
18.078,55.43
18.093,58.74
18.109,60.04
18.125,59.99
18.140,59.3
18.156,58.49
18.171,57.89
18.187,57.49
18.203,57.06
18.218,56.26
18.234,54.84
18.250,52.71
18.265,50.04
18.281,47.09
18.296,44.06
18.312,40.89
18.328,37.3
18.343,32.8
18.359,27.1
18.375,20.18
18.390,12.45
18.406,4.53
18.421,-3.0
18.437,-9.88
18.453,-16.26
18.468,-22.58
18.484,-29.44
18.500,-37.22
18.515,-45.97
18.531,-55.26
18.546,-64.22
18.562,-71.68
18.578,-76.42
18.593,-77.42
18.609,-74.2
18.625,-66.96
18.640,-56.51
18.656,-44.07
18.671,-30.9
18.687,-18.04
18.703,-6.21
18.718,4.14
18.734,12.76
18.750,19.53
18.765,24.38
18.781,27.45
18.796,29.03
18.812,29.56
18.828,29.5
18.843,29.24
18.859,29.03
18.875,28.91
18.890,28.85
18.906,28.67
18.921,28.29
18.937,27.64
18.953,26.8
18.968,25.88
18.984,24.89
19.000,23.67
19.015,21.92
19.031,19.28
19.046,15.53
19.062,10.73
19.078,5.19
19.093,-0.62
19.109,-6.26
19.125,-11.48
19.140,-16.33
19.156,-21.1
19.171,-26.22
19.187,-32.2
19.203,-39.32
19.218,-47.58
19.234,-56.46
19.250,-64.93
19.265,-71.7
19.281,-75.43
19.296,-75.17
19.312,-70.55
19.328,-61.94
19.343,-50.29
19.359,-36.9
19.375,-23.12
19.390,-10.02
19.406,1.69
19.421,11.72
19.437,20.11
19.453,26.97
19.468,32.42
19.484,36.51
19.500,39.27
19.515,40.88
19.531,41.63
19.546,41.92
19.562,42.06
19.578,42.17
19.593,42.09
19.609,41.55
19.625,40.35
19.640,38.52
19.656,36.31
19.671,34.07
19.687,32.02
19.703,30.08
19.718,27.92
19.734,25.05
19.750,21.11
19.765,16.06
19.781,10.2
19.796,4.09
19.812,-1.69
19.828,-6.81
19.843,-11.27
19.859,-15.41
19.875,-19.74
19.890,-24.8
19.906,-31.0
19.921,-38.46
19.937,-46.83
19.953,-55.29
19.968,-62.57
19.984,-67.27
20.000,-68.18
20.015,-64.74
20.031,-57.2
20.046,-46.52
20.062,-34.08
20.078,-21.14
20.093,-8.69
20.109,2.78
20.125,13.06
20.140,22.01
20.156,29.45
20.171,35.2
20.187,39.16
20.203,41.44
20.218,42.37
20.234,42.47
20.250,42.28
20.265,42.17
20.281,42.31
20.296,42.67
20.312,43.07
20.328,43.45
20.343,43.77
20.359,44.06
20.375,44.32
20.390,44.47
20.406,44.33
20.421,43.7
20.437,42.53
20.453,40.84
20.468,38.8
20.484,36.51
20.500,34.09
20.515,31.62
20.531,29.2
20.546,27.02
20.562,25.27
20.578,24.07
20.593,23.35
20.609,22.91
20.625,22.51
20.640,21.99
20.656,21.32
20.671,20.57
20.687,19.85
20.703,19.19
20.718,18.61
20.734,18.08
20.750,17.62
20.765,17.34
20.781,17.36
20.796,17.74
20.812,18.44
20.828,19.26
20.843,19.9
20.859,20.07
20.875,19.63
20.890,18.69
20.906,17.58
20.921,16.69
20.937,16.28
20.953,16.34
20.968,16.61
20.984,16.76
21.000,16.63
21.015,16.3
21.031,16.06
21.046,16.23
21.062,16.91
21.078,17.94
21.093,18.96
21.109,19.68
21.125,20.01
21.140,20.11
21.156,20.17
21.171,20.17
21.187,19.78
21.203,18.26
21.218,14.71
21.234,8.3
21.250,-1.5
21.265,-14.73
21.281,-30.86
21.296,-48.73
21.312,-66.64
21.328,-82.4
21.343,-93.74
21.359,-98.69
21.375,-96.13
21.390,-86.17
21.406,-70.23
21.421,-50.75
21.437,-30.55
21.453,-12.1
21.468,2.99
21.484,14.13
21.500,21.52
21.515,25.78
21.531,27.51
21.546,27.14
21.562,25.02
21.578,21.54
21.593,17.26
21.609,12.88
21.625,9.0
21.640,5.97
21.656,3.76
21.671,2.08
21.687,0.54
21.703,-1.06
21.718,-2.66
21.734,-4.06
21.750,-5.08
21.765,-5.82
21.781,-6.66
21.796,-8.15
21.812,-10.71
21.828,-14.43
21.843,-19.01
21.859,-23.97
21.875,-28.87
21.890,-33.56
21.906,-38.28
21.921,-43.5
21.937,-49.67
21.953,-56.93
21.968,-64.91
21.984,-72.68
22.000,-78.94
22.015,-82.42
22.031,-82.15
22.046,-77.88
22.062,-70.1
22.078,-59.81
22.093,-48.2
22.109,-36.34
22.125,-24.98
22.140,-14.6
22.156,-5.6
22.171,1.7
22.187,7.04
22.203,10.4
22.218,12.14
22.234,12.94
22.250,13.65
22.265,14.98
22.281,17.27
22.296,20.42
22.312,23.98
22.328,27.35
22.343,30.07
22.359,31.81
22.375,32.47
22.390,32.02
22.406,30.49
22.421,27.93
22.437,24.44
22.453,20.23
22.468,15.59
22.484,10.85
22.500,6.29
22.515,2.01
22.531,-2.06
22.546,-6.13
22.562,-10.45
22.578,-15.1
22.593,-19.96
22.609,-24.69
22.625,-28.81
22.640,-31.86
22.656,-33.57
22.671,-33.9
22.687,-33.07
22.703,-31.43
22.718,-29.32
22.734,-26.96
22.750,-24.5
22.765,-21.95
22.781,-19.37
22.796,-16.89
22.812,-14.72
22.828,-13.05
22.843,-11.98
22.859,-11.43
22.875,-11.18
22.890,-10.89
22.906,-10.24
22.921,-9.07
22.937,-7.44
22.953,-5.62
22.968,-3.99
22.984,-3.0
23.000,-2.98
23.015,-4.06
23.031,-6.15
23.046,-8.98
23.062,-12.2
23.078,-15.51
23.093,-18.73
23.109,-21.84
23.125,-25.0
23.140,-28.6
23.156,-33.12
23.171,-39.16
23.187,-47.21
23.203,-57.3
23.218,-68.7
23.234,-79.94
23.250,-89.03
23.265,-94.12
23.281,-94.1
23.296,-88.97
23.312,-79.92
23.328,-68.82
23.343,-57.57
23.359,-47.54
23.375,-39.34
23.390,-32.85
23.406,-27.67
23.421,-23.39
23.437,-19.91
23.453,-17.35
23.468,-15.91
23.484,-15.63
23.500,-16.19
23.515,-17.09
23.531,-17.76
23.546,-17.83
23.562,-17.23
23.578,-16.15
23.593,-14.86
23.609,-13.51
23.625,-12.13
23.640,-10.71
23.656,-9.34
23.671,-8.31
23.687,-8.01
23.703,-8.79
23.718,-10.71
23.734,-13.54
23.750,-16.81
23.765,-20.07
23.781,-23.09
23.796,-26.0
23.812,-29.14
23.828,-32.88
23.843,-37.27
23.859,-41.82
23.875,-45.64
23.890,-47.57
23.906,-46.7
23.921,-42.66
23.937,-35.73
23.953,-26.77
23.968,-16.85
23.984,-6.96
24.000,2.26
24.015,10.47
24.031,17.53
24.046,23.35
24.062,27.83
24.078,30.93
24.093,32.75
24.109,33.68
24.125,34.3
24.140,35.2
24.156,36.81
24.171,39.19
24.187,42.08
24.203,45.05
24.218,47.72
24.234,49.9
24.250,51.66
24.265,53.17
24.281,54.64
24.296,56.07
24.312,57.39
24.328,58.41
24.343,59.08
24.359,59.43
24.375,59.62
24.390,59.79
24.406,59.98
24.421,60.1
24.437,59.95
24.453,59.34
24.468,58.21
24.484,56.67
24.500,54.9
24.515,53.03
24.531,51.02
24.546,48.59
24.562,45.4
24.578,41.2
24.593,36.0
24.609,30.08
24.625,23.91
24.640,17.88
24.656,12.14
24.671,6.49
24.687,0.56
24.703,-6.03
24.718,-13.44
24.734,-21.47
24.750,-29.68
24.765,-37.54
24.781,-44.64
24.796,-50.76
24.812,-55.94
24.828,-60.34
24.843,-64.13
24.859,-67.45
24.875,-70.3
24.890,-72.66
24.906,-74.57
24.921,-76.09
24.937,-77.32
24.953,-78.32
24.968,-79.12
24.984,-79.72
25.000,-80.34
25.015,-81.43
25.031,-83.71
25.046,-87.82
25.062,-93.87
25.078,-100.99
25.093,-107.3
25.109,-110.26
25.125,-107.54
25.140,-97.87
25.156,-81.53
25.171,-60.38
25.187,-37.16
25.203,-14.66
25.218,5.06
25.234,20.9
25.250,32.76
25.265,41.02
25.281,46.24
25.296,48.93
25.312,49.56
25.328,48.66
25.343,46.84
25.359,44.8
25.375,43.14
25.390,42.21
25.406,42.03
25.421,42.21
25.437,42.18
25.453,41.31
25.468,39.23
25.484,35.89
25.500,31.5
25.515,26.37
25.531,20.74
25.546,14.64
25.562,7.91
25.578,0.36
25.593,-8.18
25.609,-17.71
25.625,-28.19
25.640,-39.53
25.656,-51.72
25.671,-64.6
25.687,-77.67
25.703,-89.87
25.718,-99.57
25.734,-104.95
25.750,-104.51
25.765,-97.63
25.781,-84.92
25.796,-68.02
25.812,-49.13
25.828,-30.32
25.843,-13.07
25.859,1.95
25.875,14.63
25.890,25.1
25.906,33.4
25.921,39.43
25.937,43.17
25.953,44.85
25.968,45.06
25.984,44.65
26.000,44.41
26.015,44.79
26.031,45.75
26.046,46.85
26.062,47.47
26.078,47.13
26.093,45.67
26.109,43.16
26.125,39.87
26.140,36.08
26.156,31.94
26.171,27.48
26.187,22.69
26.203,17.48
26.218,11.75
26.234,5.32
26.250,-2.09
26.265,-10.72
26.281,-20.64
26.296,-31.33
26.312,-41.59
26.328,-49.6
26.343,-53.34
26.359,-51.22
26.375,-42.68
26.390,-28.48
26.406,-10.41
26.421,9.19
26.437,28.15
26.453,45.06
26.468,59.34
26.484,71.1
26.500,80.7
26.515,88.46
26.531,94.47
26.546,98.79
26.562,101.57
26.578,103.2
26.593,104.36
26.609,105.7
26.625,107.6
26.640,110.07
26.656,112.66
26.671,114.73
26.687,115.69
26.703,115.12
26.718,112.77
26.734,108.53
26.750,102.21
26.765,93.56
26.781,82.37
26.796,68.56
26.812,52.3
26.828,34.01
26.843,14.27
26.859,-6.36
26.875,-27.35
26.890,-48.26
26.906,-68.66
26.921,-87.89
26.937,-104.99
26.953,-118.6
26.968,-127.13
26.984,-129.2
27.000,-124.06
27.015,-111.93
27.031,-94.06
27.046,-72.46
27.062,-49.32
27.078,-26.6
27.093,-5.63
27.109,12.83
27.125,28.46
27.140,41.11
27.156,50.74
27.171,57.49
27.187,61.68
27.203,63.91
27.218,64.9
27.234,65.3
27.250,65.54
27.265,65.78
27.281,65.85
27.296,65.49
27.312,64.5
27.328,62.79
27.343,60.51
27.359,57.89
27.375,55.1
27.390,52.13
27.406,48.75
27.421,44.64
27.437,39.58
27.453,33.6
27.468,27.05
27.484,20.4
27.500,14.05
27.515,8.08
27.531,2.15
27.546,-4.44
27.562,-12.52
27.578,-22.71
27.593,-35.16
27.609,-49.31
27.625,-63.82
27.640,-76.77
27.656,-86.09
27.671,-90.0
27.687,-87.58
27.703,-79.01
27.718,-65.52
27.734,-49.05
27.750,-31.63
27.765,-14.91
27.781,0.18
27.796,13.32
27.812,24.58
27.828,34.1
27.843,41.82
27.859,47.57
27.875,51.22
27.890,52.89
27.906,53.08
27.921,52.53
27.937,51.97
27.953,51.89
27.968,52.28
27.984,52.8
28.000,52.96
28.015,52.42
28.031,51.1
28.046,49.25
28.062,47.14
28.078,44.91
28.093,42.43
28.109,39.37
28.125,35.34
28.140,30.21
28.156,24.1
28.171,17.43
28.187,10.7
28.203,4.31
28.218,-1.57
28.234,-7.08
28.250,-12.51
28.265,-18.29
28.281,-24.81
28.296,-32.38
28.312,-41.02
28.328,-50.42
28.343,-59.75
28.359,-67.71
28.375,-72.66
28.390,-73.01
28.406,-67.76
28.421,-56.81
28.437,-41.13
28.453,-22.47
28.468,-2.88
28.484,15.81
28.500,32.39
28.515,46.26
28.531,57.34
28.546,65.74
28.562,71.57
28.578,74.93
28.593,76.05
28.609,75.37
28.625,73.56
28.640,71.39
28.656,69.53
28.671,68.38
28.687,68.03
28.703,68.35
28.718,69.1
28.734,70.01
28.750,70.93
28.765,71.75
28.781,72.37
28.796,72.66
28.812,72.51
28.828,71.81
28.843,70.53
28.859,68.73
28.875,66.57
28.890,64.3
28.906,62.14
28.921,60.21
28.937,58.49
28.953,56.77
28.968,54.83
28.984,52.5
29.000,49.77
29.015,46.6
29.031,42.76
29.046,37.63
29.062,30.41
29.078,20.63
29.093,8.65
29.109,-4.12
29.125,-15.65
29.140,-23.96
29.156,-27.9
29.171,-27.35
29.187,-23.06
29.203,-16.3
29.218,-8.61
29.234,-1.78
29.250,2.22
29.265,1.71
29.281,-3.86
29.296,-13.26
29.312,-23.45
29.328,-30.47
29.343,-31.05
29.359,-23.76
29.375,-9.4
29.390,9.78
29.406,31.28
29.421,53.24
29.437,74.68
29.453,94.95
29.468,113.21
29.484,128.25
29.500,138.82
29.515,144.16
29.531,144.32
29.546,140.1
29.562,132.46
29.578,122.02
29.593,108.64
29.609,91.43
29.625,69.17
29.640,40.9
29.656,6.67
29.671,-32.19
29.687,-73.04
29.703,-112.62
29.718,-147.98
29.734,-177.39
29.750,-200.86
29.765,-220.06
29.781,-237.59
29.796,-255.84
29.812,-276.1
29.828,-297.89
29.843,-319.12
29.859,-336.67
29.875,-347.27
29.890,-348.37
29.906,-338.66
29.921,-318.37
29.937,-288.98
29.953,-252.99
29.968,-213.25
29.984,-172.56
30.000,-133.23
30.015,-96.84
30.031,-64.2
30.046,-35.44
30.062,-10.22
30.078,12.08
30.093,32.02
30.109,49.98
30.125,66.08
30.140,80.25
30.156,92.43
30.171,102.68
30.187,111.28
30.203,118.52
30.218,124.58
30.234,129.42
30.250,132.87
30.265,134.87
30.281,135.68
30.296,135.78
30.312,135.59
30.328,135.1
30.343,133.67
30.359,130.25
30.375,123.87
30.390,113.98
30.406,100.49
30.421,83.54
30.437,63.06
30.453,38.74
30.468,10.39
30.484,-21.58
30.500,-55.72
30.515,-89.62
30.531,-120.38
30.546,-145.29
30.562,-162.32
30.578,-170.35
30.593,-169.2
30.609,-159.49
30.625,-142.57
30.640,-120.41
30.656,-95.33
30.671,-69.61
30.687,-45.13
30.703,-23.09
30.718,-4.01
30.734,12.06
30.750,25.31
30.765,36.09
30.781,44.79
30.796,51.88
30.812,57.81
30.828,62.96
30.843,67.57
30.859,71.82
30.875,75.93
30.890,80.2
30.906,84.96
30.921,90.39
30.937,96.41
30.953,102.66
30.968,108.66
30.984,114.05
31.000,118.7
31.015,122.72
31.031,126.22
31.046,129.01
31.062,130.46
31.078,129.58
31.093,125.35
31.109,117.09
31.125,104.9
31.140,89.59
31.156,72.51
31.171,55.2
31.187,38.91
31.203,24.46
31.218,12.21
31.234,2.13
31.250,-6.1
31.265,-13.0
31.281,-19.24
31.296,-25.56
31.312,-32.56
31.328,-40.6
31.343,-49.65
31.359,-59.35
31.375,-69.18
31.390,-78.68
31.406,-87.61
31.421,-95.93
31.437,-103.59
31.453,-110.34
31.468,-115.73
31.484,-119.33
31.500,-121.11
31.515,-121.56
31.531,-121.63
31.546,-122.28
31.562,-123.98
31.578,-126.43
31.593,-128.56
31.609,-129.16
31.625,-127.37
31.640,-123.16
31.656,-117.35
31.671,-111.16
31.687,-105.76
31.703,-101.75
31.718,-99.11
31.734,-97.29
31.750,-95.57
31.765,-93.37
31.781,-90.57
31.796,-87.43
31.812,-84.54
31.828,-82.39
31.843,-81.26
31.859,-81.0
31.875,-81.0
31.890,-80.27
31.906,-77.52
31.921,-71.45
31.937,-61.07
31.953,-46.17
31.968,-27.67
31.984,-7.58
32.000,11.45
32.015,26.94
32.031,37.46
32.046,43.06
32.062,45.05
32.078,45.17
32.093,44.61
32.109,43.41
32.125,40.82
32.140,36.0
32.156,29.0
32.171,21.01
32.187,14.07
32.203,10.21
32.218,10.55
32.234,14.92
32.250,22.07
32.265,30.4
32.281,38.47
32.296,45.38
32.312,50.52
32.328,53.42
32.343,53.51
32.359,50.21
32.375,43.28
32.390,33.07
32.406,20.64
32.421,7.64
32.437,-4.14
32.453,-13.22
32.468,-18.87
32.484,-21.36
32.500,-21.82
32.515,-21.91
32.531,-23.28
32.546,-27.09
32.562,-33.66
32.578,-42.27
32.593,-51.31
32.609,-58.53
32.625,-61.67
32.640,-58.99
32.656,-49.96
32.671,-35.42
32.687,-17.37
32.703,1.66
32.718,19.49
32.734,34.86
32.750,47.46
32.765,57.59
32.781,65.55
32.796,71.3
32.812,74.51
32.828,74.92
32.843,72.73
32.859,68.68
32.875,63.88
32.890,59.42
32.906,55.9
32.921,53.42
32.937,51.58
32.953,49.91
32.968,48.09
32.984,46.08
33.000,44.09
33.015,42.26
33.031,40.38
33.046,37.89
33.062,33.99
33.078,28.03
33.093,19.88
33.109,10.03
33.125,-0.61
33.140,-11.07
33.156,-20.72
33.171,-29.45
33.187,-37.58
33.203,-45.57
33.218,-53.7
33.234,-61.77
33.250,-69.01
33.265,-74.23
33.281,-76.07
33.296,-73.42
33.312,-65.76
33.328,-53.4
33.343,-37.36
33.359,-19.16
33.375,-0.35
33.390,17.68
33.406,33.87
33.421,47.51
33.437,58.27
33.453,66.26
33.468,72.09
33.484,76.69
33.500,81.07
33.515,85.87
33.531,91.21
33.546,96.64
33.562,101.33
33.578,104.37
33.593,104.93
33.609,102.34
33.625,96.04
33.640,85.8
33.656,71.9
33.671,55.29
33.687,37.5
33.703,20.22
33.718,4.8
33.734,-8.1
33.750,-18.45
33.765,-26.57
33.781,-32.61
33.796,-36.35
33.812,-37.3
33.828,-35.14
33.843,-30.03
33.859,-22.69
33.875,-14.04
33.890,-4.75
33.906,5.01
33.921,15.62
33.937,27.65
33.953,41.45
33.968,56.69
33.984,72.28
34.000,86.47
34.015,97.29
34.031,103.06
34.046,102.91
34.062,96.92
34.078,86.07
34.093,71.77
34.109,55.39
34.125,37.95
34.140,20.14
34.156,2.62
34.171,-13.69
34.187,-27.66
34.203,-38.49
34.218,-46.34
34.234,-52.71
34.250,-60.11
34.265,-71.09
34.281,-87.13
34.296,-107.79
34.312,-130.84
34.328,-153.17
34.343,-171.94
34.359,-185.49
34.375,-193.25
34.390,-195.2
34.406,-191.18
34.421,-180.94
34.437,-164.67
34.453,-143.91
34.468,-121.97
34.484,-103.41
34.500,-92.62
34.515,-92.26
34.531,-102.06
34.546,-118.93
34.562,-138.11
34.578,-154.8
34.593,-165.57
34.609,-168.96
34.625,-165.2
34.640,-155.72
34.656,-142.37
34.671,-127.06
34.687,-111.63
34.703,-97.77
34.718,-86.89
34.734,-79.81
34.750,-76.45
34.765,-75.81
34.781,-76.32
34.796,-76.44
34.812,-75.41
34.828,-73.56
34.843,-72.18
34.859,-72.79
34.875,-76.39
34.890,-82.8
34.906,-90.61
34.921,-97.63
34.937,-101.72
34.953,-101.53
34.968,-96.99
34.984,-89.23
35.000,-80.07
35.015,-71.38
35.031,-64.58
35.046,-60.39
35.062,-58.9
35.078,-59.84
35.093,-62.68
35.109,-66.7
35.125,-70.85
35.140,-73.65
35.156,-73.32
35.171,-68.1
35.187,-56.82
35.203,-39.25
35.218,-16.38
35.234,10.0
35.250,37.81
35.265,65.26
35.281,91.29
35.296,115.48
35.312,137.63
35.328,157.47
35.343,174.48
35.359,187.96
35.375,197.42
35.390,202.79
35.406,204.57
35.421,203.74
35.437,201.33
35.453,198.2
35.468,194.74
35.484,190.79
35.500,185.77
35.515,179.0
35.531,169.96
35.546,158.63
35.562,145.6
35.578,131.82
35.593,118.21
35.609,105.31
35.625,93.02
35.640,80.8
35.656,68.03
35.671,54.39
35.687,40.01
35.703,25.41
35.718,11.06
35.734,-2.76
35.750,-15.97
35.765,-28.35
35.781,-39.22
35.796,-47.31
35.812,-51.09
35.828,-49.38
35.843,-41.8
35.859,-29.14
35.875,-13.07
35.890,4.44
35.906,21.68
35.921,37.59
35.937,51.77
35.953,64.06
35.968,74.33
35.984,82.3
36.000,87.72
36.015,90.68
36.031,91.73
36.046,91.83
36.062,91.93
36.078,92.64
36.093,93.94
36.109,95.29
36.125,95.98
36.140,95.4
36.156,93.37
36.171,89.99
36.187,85.61
36.203,80.64
36.218,75.45
36.234,70.39
36.250,65.71
36.265,61.56
36.281,57.94
36.296,54.74
36.312,51.8
36.328,48.88
36.343,45.82
36.359,42.34
36.375,38.17
36.390,33.11
36.406,27.26
36.421,21.24
36.437,16.18
36.453,13.6
36.468,14.75
36.484,20.29
36.500,29.82
36.515,42.18
36.531,55.72
36.546,68.93
36.562,80.74
36.578,90.59
36.593,98.18
36.609,103.22
36.625,105.34
36.640,104.27
36.656,100.22
36.671,94.09
36.687,87.41
36.703,81.99
36.718,79.23
36.734,79.54
36.750,81.93
36.765,84.32
36.781,84.03
36.796,78.79
36.812,67.45
36.828,50.33
36.843,29.02
36.859,5.83
36.875,-16.92
36.890,-37.46
36.906,-54.71
36.921,-68.28
36.937,-78.34
36.953,-85.46
36.968,-90.55
36.984,-94.75
37.000,-99.22
37.015,-104.87
37.031,-112.17
37.046,-120.83
37.062,-129.77
37.078,-137.23
37.093,-141.19
37.109,-139.97
37.125,-132.81
37.140,-120.24
37.156,-103.99
37.171,-86.38
37.187,-69.56
37.203,-54.81
37.218,-42.39
37.234,-31.75
37.250,-22.22
37.265,-13.38
37.281,-5.33
37.296,1.45
37.312,6.57
37.328,9.91
37.343,11.77
37.359,12.68
37.375,13.18
37.390,13.54
37.406,13.68
37.421,13.23
37.437,11.79
37.453,9.19
37.468,5.62
37.484,1.56
37.500,-2.51
37.515,-6.23
37.531,-9.6
37.546,-12.87
37.562,-16.39
37.578,-20.41
37.593,-24.96
37.609,-29.96
37.625,-35.27
37.640,-40.76
37.656,-46.29
37.671,-51.5
37.687,-55.68
37.703,-57.8
37.718,-56.8
37.734,-51.92
37.750,-43.06
37.765,-30.84
37.781,-16.31
37.796,-0.6
37.812,15.48
37.828,31.46
37.843,47.12
37.859,62.2
37.875,76.23
37.890,88.64
37.906,98.95
37.921,106.93
37.937,112.62
37.953,116.19
37.968,117.76
37.984,117.34
38.000,114.9
38.015,110.5
38.031,104.31
38.046,96.62
38.062,87.78
38.078,78.17
38.093,68.29
38.109,58.71
38.125,49.98
38.140,42.42
38.156,35.87
38.171,29.71
38.187,23.06
38.203,15.27
38.218,6.22
38.234,-3.54
38.250,-13.09
38.265,-21.64
38.281,-28.86
38.296,-34.99
38.312,-40.71
38.328,-46.74
38.343,-53.59
38.359,-61.37
38.375,-69.88
38.390,-78.6
38.406,-86.84
38.421,-93.7
38.437,-98.23
38.453,-99.63
38.468,-97.45
38.484,-91.77
38.500,-83.18
38.515,-72.53
38.531,-60.72
38.546,-48.48
38.562,-36.26
38.578,-24.35
38.593,-12.92
38.609,-2.13
38.625,7.9
38.640,17.08
38.656,25.4
38.671,32.79
38.687,39.16
38.703,44.32
38.718,48.08
38.734,50.35
38.750,51.22
38.765,50.9
38.781,49.59
38.796,47.4
38.812,44.33
38.828,40.27
38.843,35.18
38.859,29.16
38.875,22.42
38.890,15.24
38.906,7.87
38.921,0.43
38.937,-6.94
38.953,-14.06
38.968,-20.66
38.984,-26.49
39.000,-31.34
39.015,-35.08
39.031,-37.61
39.046,-38.69
39.062,-37.92
39.078,-34.86
39.093,-29.22
39.109,-21.13
39.125,-11.2
39.140,-0.41
39.156,10.28
39.171,20.11
39.187,28.7
39.203,36.0
39.218,42.05
39.234,46.83
39.250,50.11
39.265,51.55
39.281,50.85
39.296,47.94
39.312,43.06
39.328,36.74
39.343,29.65
39.359,22.38
39.375,15.25
39.390,8.26
39.406,1.18
39.421,-6.35
39.437,-14.51
39.453,-23.26
39.468,-32.28
39.484,-41.1
39.500,-49.31
39.515,-56.57
39.531,-62.82
39.546,-68.12
39.562,-72.65
39.578,-76.68
39.593,-80.56
39.609,-84.74
39.625,-89.72
39.640,-95.81
39.656,-102.8
39.671,-109.75
39.687,-115.03
39.703,-116.83
39.718,-113.74
39.734,-105.32
39.750,-92.24
39.765,-76.03
39.781,-58.52
39.796,-41.23
39.812,-25.19
39.828,-10.91
39.843,1.33
39.859,11.33
39.875,18.99
39.890,24.43
39.906,28.06
39.921,30.54
39.937,32.5
39.953,34.29
39.968,35.92
39.984,37.06
40.000,37.39
40.015,36.74
40.031,35.22
40.046,33.18
40.062,30.99
40.078,28.91
40.093,27.02
40.109,25.21
40.125,23.24
40.140,20.88
40.156,17.86
40.171,14.01
40.187,9.31
40.203,3.8
40.218,-2.34
40.234,-9.0
40.250,-16.14
40.265,-23.91
40.281,-32.45
40.296,-41.68
40.312,-51.05
40.328,-59.44
40.343,-65.37
40.359,-67.47
40.375,-65.09
40.390,-58.5
40.406,-48.92
40.421,-37.95
40.437,-27.14
40.453,-17.46
40.468,-9.26
40.484,-2.56
40.500,2.66
40.515,6.23
40.531,7.96
40.546,7.83
40.562,6.24
40.578,3.97
40.593,1.97
40.609,0.96
40.625,1.21
40.640,2.57
40.656,4.6
40.671,6.85
40.687,9.06
40.703,11.17
40.718,13.23
40.734,15.24
40.750,17.12
40.765,18.66
40.781,19.76
40.796,20.37
40.812,20.58
40.828,20.48
40.843,20.05
40.859,19.29
40.875,17.99
40.890,15.97
40.906,12.95
40.921,8.71
40.937,3.14
40.953,-3.53
40.968,-10.56
40.984,-16.68
41.000,-20.36
41.015,-20.3
41.031,-15.92
41.046,-7.62
41.062,3.42
41.078,15.67
41.093,27.83
41.109,39.12
41.125,49.24
41.140,58.06
41.156,65.36
41.171,70.74
41.187,73.84
41.203,74.61
41.218,73.47
41.234,71.19
41.250,68.68
41.265,66.61
41.281,65.32
41.296,64.74
41.312,64.57
41.328,64.42
41.343,63.96
41.359,62.95
41.375,61.24
41.390,58.69
41.406,55.17
41.421,50.53
41.437,44.66
41.453,37.53
41.468,29.21
41.484,19.84
41.500,9.58
41.515,-1.44
41.531,-13.2
41.546,-25.71
41.562,-38.96
41.578,-52.8
41.593,-66.9
41.609,-80.59
41.625,-93.0
41.640,-103.11
41.656,-109.97
41.671,-112.97
41.687,-111.99
41.703,-107.39
41.718,-99.92
41.734,-90.52
41.750,-80.09
41.765,-69.35
41.781,-58.8
41.796,-48.81
41.812,-39.65
41.828,-31.58
41.843,-24.76
41.859,-19.26
41.875,-14.93
41.890,-11.43
41.906,-8.31
41.921,-5.12
41.937,-1.62
41.953,2.16
41.968,5.9
41.984,9.22
42.000,11.78
42.015,13.48
42.031,14.39
42.046,14.69
42.062,14.53
42.078,13.88
42.093,12.57
42.109,10.42
42.125,7.28
42.140,3.08
42.156,-2.17
42.171,-8.41
42.187,-15.52
42.203,-23.37
42.218,-31.78
42.234,-40.53
42.250,-49.39
42.265,-58.04
42.281,-66.02
42.296,-72.72
42.312,-77.41
42.328,-79.33
42.343,-77.88
42.359,-72.76
42.375,-64.02
42.390,-52.14
42.406,-37.84
42.421,-21.95
42.437,-5.3
42.453,11.41
42.468,27.59
42.484,42.79
42.500,56.69
42.515,68.96
42.531,79.34
42.546,87.62
42.562,93.83
42.578,98.3
42.593,101.58
42.609,104.28
42.625,106.76
42.640,109.03
42.656,110.62
42.671,110.88
42.687,109.23
42.703,105.45
42.718,99.76
42.734,92.69
42.750,84.95
42.765,77.18
42.781,69.85
42.796,63.19
42.812,57.23
42.828,51.84
42.843,46.8
42.859,41.85
42.875,36.73
42.890,31.28
42.906,25.42
42.921,19.25
42.937,12.98
42.953,6.92
42.968,1.32
42.984,-3.72
43.000,-8.23
43.015,-12.45
43.031,-16.54
43.046,-20.64
43.062,-24.66
43.078,-28.4
43.093,-31.64
43.109,-34.12
43.125,-35.67
43.140,-36.02
43.156,-34.91
43.171,-32.1
43.187,-27.57
43.203,-21.63
43.218,-14.9
43.234,-8.15
43.250,-2.06
43.265,2.93
43.281,6.68
43.296,9.27
43.312,10.9
43.328,11.83
43.343,12.37
43.359,12.86
43.375,13.57
43.390,14.62
43.406,15.91
43.421,17.16
43.437,18.12
43.453,18.69
43.468,19.01
43.484,19.27
43.500,19.61
43.515,19.89
43.531,19.85
43.546,19.19
43.562,17.85
43.578,16.03
43.593,14.1
43.609,12.43
43.625,11.16
43.640,10.21
43.656,9.26
43.671,7.94
43.687,5.95
43.703,3.13
43.718,-0.52
43.734,-4.88
43.750,-9.8
43.765,-15.2
43.781,-21.04
43.796,-27.37
43.812,-34.26
43.828,-41.72
43.843,-49.6
43.859,-57.51
43.875,-64.83
43.890,-70.87
43.906,-75.05
43.921,-77.12
43.937,-77.28
43.953,-76.11
43.968,-74.25
43.984,-72.2
44.000,-70.05
44.015,-67.63
44.031,-64.71
44.046,-61.26
44.062,-57.51
44.078,-53.91
44.093,-50.82
44.109,-48.34
44.125,-46.27
44.140,-44.22
44.156,-41.82
44.171,-38.94
44.187,-35.7
44.203,-32.46
44.218,-29.62
44.234,-27.54
44.250,-26.41
44.265,-26.35
44.281,-27.32
44.296,-29.23
44.312,-31.91
44.328,-35.19
44.343,-38.89
44.359,-42.92
44.375,-47.26
44.390,-52.07
44.406,-57.62
44.421,-64.06
44.437,-71.18
44.453,-78.22
44.468,-83.83
44.484,-86.37
44.500,-84.47
44.515,-77.43
44.531,-65.46
44.546,-49.6
44.562,-31.33
44.578,-12.11
44.593,6.95
44.609,25.11
44.625,41.96
44.640,57.28
44.656,70.86
44.671,82.67
44.687,92.79
44.703,101.51
44.718,109.22
44.734,116.23
44.750,122.75
44.765,128.73
44.781,134.08
44.796,138.69
44.812,142.47
44.828,145.33
44.843,147.18
44.859,147.89
44.875,147.47
44.890,146.11
44.906,144.2
44.921,142.24
44.937,140.5
44.953,138.9
44.968,137.08
44.984,134.58
45.000,131.26
45.015,127.32
45.031,123.28
45.046,119.52
45.062,115.99
45.078,112.13
45.093,107.22
45.109,100.75
45.125,92.62
45.140,83.1
45.156,72.37
45.171,60.33
45.187,46.66
45.203,31.24
45.218,14.5
45.234,-2.48
45.250,-18.36
45.265,-32.12
45.281,-43.51
45.296,-53.01
45.312,-61.34
45.328,-69.05
45.343,-76.29
45.359,-82.98
45.375,-89.25
45.390,-95.5
45.406,-102.23
45.421,-109.38
45.437,-116.07
45.453,-120.73
45.468,-121.81
45.484,-118.64
45.500,-111.84
45.515,-103.12
45.531,-94.53
45.546,-87.67
45.562,-83.19
45.578,-80.78
45.593,-79.64
45.609,-78.9
45.625,-77.92
45.640,-76.4
45.656,-74.24
45.671,-71.5
45.687,-68.34
45.703,-64.88
45.718,-61.23
45.734,-57.33
45.750,-52.92
45.765,-47.67
45.781,-41.23
45.796,-33.41
45.812,-24.16
45.828,-13.55
45.843,-1.8
45.859,10.73
45.875,23.47
45.890,35.69
45.906,46.61
45.921,55.59
45.937,62.39
45.953,67.17
45.968,70.41
45.984,72.7
46.000,74.61
46.015,76.61
46.031,79.1
46.046,82.43
46.062,86.79
46.078,92.1
46.093,97.87
46.109,103.11
46.125,106.45
46.140,106.34
46.156,101.46
46.171,91.14
46.187,75.66
46.203,56.28
46.218,34.92
46.234,13.61
46.250,-6.19
46.265,-23.98
46.281,-40.09
46.296,-55.32
46.312,-70.41
46.328,-85.63
46.343,-100.88
46.359,-115.91
46.375,-130.63
46.390,-145.27
46.406,-160.16
46.421,-175.45
46.437,-190.81
46.453,-205.09
46.468,-216.36
46.484,-222.19
46.500,-220.18
46.515,-208.75
46.531,-187.75
46.546,-158.65
46.562,-124.21
46.578,-87.68
46.593,-51.93
46.609,-18.91
46.625,10.44
46.640,35.9
46.656,57.49
46.671,75.29
46.687,89.35
46.703,99.8
46.718,106.95
46.734,111.27
46.750,113.44
46.765,114.18
46.781,114.21
46.796,114.14
46.812,114.19
46.828,114.08
46.843,113.02
46.859,109.9
46.875,103.67
46.890,93.63
46.906,79.62
46.921,61.94
46.937,41.28
46.953,18.61
46.968,-4.98
46.984,-28.44
47.000,-51.0
47.015,-72.64
47.031,-94.25
47.046,-117.49
47.062,-144.05
47.078,-174.52
47.093,-207.59
47.109,-239.88
47.125,-266.78
47.140,-283.95
47.156,-288.85
47.171,-281.61
47.187,-264.86
47.203,-242.71
47.218,-219.43
47.234,-198.37
47.250,-181.41
47.265,-169.06
47.281,-160.76
47.296,-155.35
47.312,-151.39
47.328,-147.44
47.343,-142.27
47.359,-135.07
47.375,-125.52
47.390,-113.71
47.406,-99.89
47.421,-84.36
47.437,-67.33
47.453,-49.08
47.468,-30.2
47.484,-11.74
47.500,4.89
47.515,18.16
47.531,26.73
47.546,29.79
47.562,27.18
47.578,19.37
47.593,7.46
47.609,-7.07
47.625,-22.52
47.640,-37.32
47.656,-50.42
47.671,-61.66
47.687,-71.81
47.703,-82.27
47.718,-94.33
47.734,-108.36
47.750,-123.31
47.765,-136.89
47.781,-146.28
47.796,-149.18
47.812,-144.53
47.828,-132.75
47.843,-115.31
47.859,-94.01
47.875,-70.34
47.890,-45.35
47.906,-19.85
47.921,5.26
47.937,28.72
47.953,49.19
47.968,65.71
47.984,78.12
48.000,87.15
48.015,94.12
48.031,100.39
48.046,106.72
48.062,113.12
48.078,118.9
48.093,123.22
48.109,125.44
48.125,125.49
48.140,123.78
48.156,120.95
48.171,117.5
48.187,113.6
48.203,108.99
48.218,103.27
48.234,96.07
48.250,87.27
48.265,76.92
48.281,65.11
48.296,51.84
48.312,37.08
48.328,21.09
48.343,4.75
48.359,-10.31
48.375,-21.93
48.390,-28.13
48.406,-27.73
48.421,-20.85
48.437,-8.81
48.453,6.45
48.468,23.0
48.484,39.57
48.500,55.6
48.515,71.04
48.531,85.9
48.546,99.93
48.562,112.59
48.578,123.29
48.593,131.72
48.609,138.04
48.625,142.84
48.640,146.88
48.656,150.78
48.671,154.74
48.687,158.55
48.703,161.84
48.718,164.28
48.734,165.8
48.750,166.55
48.765,166.68
48.781,166.1
48.796,164.37
48.812,160.82
48.828,154.81
48.843,146.02
48.859,134.61
48.875,121.12
48.890,106.26
48.906,90.64
48.921,74.62
48.937,58.47
48.953,42.52
48.968,27.51
48.984,14.7
49.000,5.61
49.015,1.66
49.031,3.74
49.046,11.97
49.062,25.66
49.078,43.75
49.093,65.03
49.109,88.32
49.125,112.45
49.140,136.02
49.156,157.38
49.171,174.8
49.187,186.81
49.203,192.78
49.218,193.21
49.234,189.51
49.250,183.59
49.265,177.08
49.281,170.85
49.296,164.84
49.312,158.42
49.328,150.83
49.343,141.73
49.359,131.36
49.375,120.44
49.390,109.83
49.406,100.21
49.421,91.85
49.437,84.57
49.453,77.66
49.468,69.97
49.484,59.98
49.500,46.18
49.515,27.47
49.531,3.76
49.546,-23.77
49.562,-52.93
49.578,-81.19
49.593,-106.65
49.609,-128.74
49.625,-148.07
49.640,-165.84
49.656,-182.75
49.671,-198.33
49.687,-210.99
49.703,-218.73
49.718,-220.14
49.734,-215.09
49.750,-204.76
49.765,-190.89
49.781,-175.12
49.796,-158.36
49.812,-140.93
49.828,-123.02
49.843,-105.17
49.859,-88.47
49.875,-74.29
49.890,-63.7
49.906,-56.95
49.921,-53.38
49.937,-51.65
49.953,-50.34
49.968,-48.48
49.984,-45.93
50.000,-43.19
50.015,-41.14
50.031,-40.47
50.046,-41.4
50.062,-43.58
50.078,-46.3
50.093,-48.84
50.109,-50.79
50.125,-52.1
50.140,-52.97
50.156,-53.63
50.171,-54.1
50.187,-54.17
50.203,-53.49
50.218,-51.84
50.234,-49.33
50.250,-46.44
50.265,-43.89
50.281,-42.37
50.296,-42.27
50.312,-43.47
50.328,-45.35
50.343,-46.8
50.359,-46.4
50.375,-42.77
50.390,-34.89
50.406,-22.42
50.421,-5.87
50.437,13.5
50.453,34.13
50.468,54.56
50.484,73.8
50.500,91.48
50.515,107.64
50.531,122.42
50.546,135.75
50.562,147.21
50.578,156.17
50.593,162.01
50.609,164.36
50.625,163.21
50.640,158.87
50.656,151.89
50.671,142.93
50.687,132.61
50.703,121.41
50.718,109.65
50.734,97.4
50.750,84.51
50.765,70.65
50.781,55.5
50.796,38.87
50.812,21.04
50.828,2.66
50.843,-15.25
50.859,-31.57
50.875,-45.29
50.890,-55.69
50.906,-62.41
50.921,-65.43
50.937,-65.15
50.953,-62.5
50.968,-58.87
50.984,-55.91
51.000,-54.91
51.015,-56.4
51.031,-59.69
51.046,-63.06
51.062,-64.16
51.078,-60.85
51.093,-51.79
51.109,-36.79
51.125,-16.74
51.140,6.82
51.156,32.1
51.171,57.47
51.187,81.72
51.203,104.13
51.218,124.35
51.234,142.29
51.250,157.88
51.265,170.88
51.281,180.84
51.296,187.15
51.312,189.29
51.328,187.08
51.343,180.93
51.359,171.81
51.375,160.95
51.390,149.28
51.406,137.06
51.421,123.77
51.437,108.46
51.453,90.43
51.468,69.8
51.484,47.66
51.500,25.8
51.515,6.15
51.531,-9.87
51.546,-21.69
51.562,-29.56
51.578,-34.18
51.593,-36.33
51.609,-36.65
51.625,-35.59
51.640,-33.52
51.656,-30.83
51.671,-27.97
51.687,-25.37
51.703,-23.34
51.718,-21.89
51.734,-20.8
51.750,-19.65
51.765,-18.03
51.781,-15.76
51.796,-13.03
51.812,-10.33
51.828,-8.33
51.843,-7.65
51.859,-8.75
51.875,-11.81
51.890,-16.74
51.906,-23.13
51.921,-30.27
51.937,-37.17
51.953,-42.83
51.968,-46.52
51.984,-48.15
52.000,-48.39
52.015,-48.5
52.031,-49.91
52.046,-53.64
52.062,-60.03
52.078,-68.66
52.093,-78.59
52.109,-88.67
52.125,-97.88
52.140,-105.48
52.156,-111.08
52.171,-114.66
52.187,-116.52
52.203,-117.29
52.218,-117.66
52.234,-118.25
52.250,-119.43
52.265,-121.19
52.281,-123.23
52.296,-125.12
52.312,-126.48
52.328,-127.1
52.343,-126.98
52.359,-126.28
52.375,-125.25
52.390,-124.18
52.406,-123.38
52.421,-123.18
52.437,-123.9
52.453,-125.85
52.468,-129.22
52.484,-133.95
52.500,-139.61
52.515,-145.31
52.531,-149.85
52.546,-151.88
52.562,-150.25
52.578,-144.18
52.593,-133.47
52.609,-118.44
52.625,-99.88
52.640,-78.9
52.656,-56.81
52.671,-34.9
52.687,-14.28
52.703,4.21
52.718,20.09
52.734,33.23
52.750,43.84
52.765,52.38
52.781,59.54
52.796,66.02
52.812,72.38
52.828,78.89
52.843,85.37
52.859,91.33
52.875,96.12
52.890,99.28
52.906,100.7
52.921,100.67
52.937,99.7
52.953,98.27
52.968,96.52
52.984,94.22
53.000,90.93
53.015,86.2
53.031,79.9
53.046,72.31
53.062,64.13
53.078,56.19
53.093,49.09
53.109,43.04
53.125,37.79
53.140,32.88
53.156,27.82
53.171,22.28
53.187,16.12
53.203,9.41
53.218,2.43
53.234,-4.21
53.250,-9.59
53.265,-12.65
53.281,-12.43
53.296,-8.48
53.312,-1.12
53.328,8.69
53.343,19.57
53.359,30.26
53.375,39.89
53.390,48.03
53.406,54.54
53.421,59.36
53.437,62.4
53.453,63.59
53.468,63.06
53.484,61.12
53.500,58.29
53.515,55.04
53.531,51.72
53.546,48.48
53.562,45.35
53.578,42.41
53.593,39.79
53.609,37.69
53.625,36.14
53.640,35.09
53.656,34.21
53.671,33.02
53.687,30.97
53.703,27.62
53.718,22.74
53.734,16.47
53.750,9.34
53.765,2.15
53.781,-4.29
53.796,-9.58
53.812,-13.97
53.828,-18.33
53.843,-23.8
53.859,-31.26
53.875,-41.02
53.890,-52.55
53.906,-64.67
53.921,-75.79
53.937,-84.28
53.953,-88.83
53.968,-88.57
53.984,-83.36
54.000,-73.72
54.015,-60.87
54.031,-46.34
54.046,-31.72
54.062,-18.32
54.078,-6.89
54.093,2.37
54.109,9.72
54.125,15.67
54.140,20.82
54.156,25.71
54.171,30.69
54.187,35.89
54.203,41.17
54.218,46.25
54.234,50.78
54.250,54.49
54.265,57.25
54.281,59.24
54.296,60.81
54.312,62.41
54.328,64.45
54.343,67.11
54.359,70.37
54.375,73.94
54.390,77.37
54.406,80.16
54.421,82.0
54.437,82.75
54.453,82.58
54.468,81.79
54.484,80.72
54.500,79.6
54.515,78.48
54.531,77.38
54.546,76.27
54.562,75.26
54.578,74.41
54.593,73.75
54.609,73.14
54.625,72.34
54.640,71.1
54.656,69.41
54.671,67.51
54.687,65.87
54.703,64.97
54.718,65.14
54.734,66.44
54.750,68.45
54.765,70.29
54.781,70.55
54.796,67.63
54.812,60.21
54.828,47.86
54.843,31.43
54.859,12.83
54.875,-5.51
54.890,-21.67
54.906,-34.83
54.921,-45.42
54.937,-54.56
54.953,-63.26
54.968,-71.86
54.984,-80.1
55.000,-87.52
55.015,-94.05
55.031,-100.2
55.046,-106.75
55.062,-114.25
55.078,-122.52
55.093,-130.73
55.109,-137.73
55.125,-142.72
55.140,-145.63
55.156,-147.05
55.171,-147.9
55.187,-148.89
55.203,-150.3
55.218,-152.02
55.234,-153.67
55.250,-154.8
55.265,-154.78
55.281,-152.69
55.296,-147.4
55.312,-137.98
55.328,-124.11
55.343,-106.41
55.359,-86.27
55.375,-65.24
55.390,-44.66
55.406,-25.32
55.421,-7.7
55.437,7.57
55.453,19.61
55.468,27.5
55.484,30.92
55.500,30.53
55.515,27.97
55.531,25.28
55.546,24.31
55.562,26.18
55.578,31.28
55.593,39.32
55.609,49.27
55.625,59.29
55.640,66.67
55.656,68.37
55.671,62.01
55.687,47.02
55.703,25.24
55.718,0.32
55.734,-23.62
55.750,-43.56
55.765,-58.59
55.781,-69.53
55.796,-77.96
55.812,-85.08
55.828,-91.34
55.843,-96.77
55.859,-101.75
55.875,-107.28
55.890,-114.71
55.906,-124.79
55.921,-136.96
55.937,-149.26
55.953,-159.05
55.968,-163.99
55.984,-162.77
56.000,-155.29
56.015,-142.36
56.031,-125.25
56.046,-105.42
56.062,-84.43
56.078,-63.84
56.093,-44.92
56.109,-28.42
56.125,-14.4
56.140,-2.4
56.156,8.17
56.171,17.58
56.187,25.75
56.203,32.4
56.218,37.44
56.234,41.09
56.250,43.82
56.265,45.91
56.281,47.25
56.296,47.36
56.312,45.82
56.328,42.57
56.343,38.11
56.359,33.27
56.375,28.81
56.390,25.1
56.406,21.91
56.421,18.57
56.437,14.22
56.453,8.14
56.468,0.11
56.484,-9.44
56.500,-19.58
56.515,-29.23
56.531,-37.59
56.546,-44.43
56.562,-50.03
56.578,-54.81
56.593,-58.88
56.609,-61.77
56.625,-62.48
56.640,-59.98
56.656,-53.62
56.671,-43.36
56.687,-29.77
56.703,-13.64
56.718,4.3
56.734,23.49
56.750,43.45
56.765,63.6
56.781,83.05
56.796,100.65
56.812,115.18
56.828,125.63
56.843,131.56
56.859,133.26
56.875,131.67
56.890,128.09
56.906,123.79
56.921,119.68
56.937,116.27
56.953,113.71
56.968,111.95
56.984,110.91
57.000,110.59
57.015,111.05
57.031,112.44
57.046,114.87
57.062,118.23
57.078,122.05
57.093,125.41
57.109,126.94
57.125,125.09
57.140,118.56
57.156,106.75
57.171,90.01
57.187,69.66
57.203,47.56
57.218,25.53
57.234,4.93
57.250,-13.49
57.265,-29.48
57.281,-42.96
57.296,-53.92
57.312,-62.36
57.328,-68.55
57.343,-73.08
57.359,-76.82
57.375,-80.57
57.390,-84.76
57.406,-89.31
57.421,-93.74
57.437,-97.43
57.453,-99.79
57.468,-100.26
57.484,-98.38
57.500,-93.77
57.515,-86.44
57.531,-76.86
57.546,-65.85
57.562,-54.18
57.578,-42.13
57.593,-29.47
57.609,-15.74
57.625,-0.97
57.640,13.92
57.656,27.12
57.671,36.49
57.687,40.47
57.703,38.86
57.718,32.91
57.734,24.83
57.750,17.0
57.765,11.09
57.781,7.73
57.796,6.47
57.812,6.13
57.828,5.24
57.843,2.46
57.859,-3.07
57.875,-11.57
57.890,-22.43
57.906,-34.31
57.921,-45.44
57.937,-53.95
57.953,-58.46
57.968,-58.3
57.984,-53.62
58.000,-45.21
58.015,-34.13
58.031,-21.44
58.046,-8.1
58.062,5.07
58.078,17.28
58.093,27.75
58.109,35.86
58.125,41.19
58.140,43.62
58.156,43.31
58.171,40.65
58.187,36.1
58.203,30.26
58.218,23.75
58.234,17.18
58.250,11.05
58.265,5.62
58.281,0.82
58.296,-3.66
58.312,-8.31
58.328,-13.56
58.343,-19.61
58.359,-26.26
58.375,-33.07
58.390,-39.34
58.406,-44.51
58.421,-48.27
58.437,-50.75
58.453,-52.5
58.468,-54.34
58.484,-56.95
58.500,-60.62
58.515,-65.04
58.531,-69.11
58.546,-71.17
58.562,-69.12
58.578,-60.99
58.593,-45.52
58.609,-22.73
58.625,5.8
58.640,37.21
58.656,68.01
58.671,95.16
58.687,116.87
58.703,132.91
58.718,144.3
58.734,152.57
58.750,159.0
58.765,164.16
58.781,167.98
58.796,170.01
58.812,169.82
58.828,166.96
58.843,160.99
58.859,151.35
58.875,137.57
58.890,119.6
58.906,98.19
58.921,74.96
58.937,52.12
58.953,31.86
58.968,15.67
58.984,3.94
59.000,-3.92
59.015,-9.12
59.031,-13.0
59.046,-16.62
59.062,-20.63
59.078,-25.38
59.093,-30.93
59.109,-37.21
59.125,-43.97
59.140,-50.9
59.156,-57.72
59.171,-64.35
59.187,-71.06
59.203,-78.42
59.218,-87.03
59.234,-97.16
59.250,-108.34
59.265,-119.15
59.281,-127.54
59.296,-131.24
59.312,-128.63
59.328,-119.21
59.343,-103.92
59.359,-84.78
59.375,-64.32
59.390,-44.81
59.406,-27.76
59.421,-13.85
59.437,-3.05
59.453,4.89
59.468,10.32
59.484,13.51
59.500,14.82
59.515,14.87
59.531,14.42
59.546,14.3
59.562,15.07
59.578,16.86
59.593,19.38
59.609,22.1
59.625,24.59
59.640,26.65
59.656,28.39
59.671,29.97
59.687,31.45
59.703,32.63
59.718,33.14
59.734,32.57
59.750,30.68
59.765,27.49
59.781,23.23
59.796,18.22
59.812,12.79
59.828,7.09
59.843,1.12
59.859,-5.27
59.875,-12.34
59.890,-20.3
59.906,-29.08
59.921,-38.14
59.937,-46.4
59.953,-52.37
59.968,-54.58
59.984,-52.03
