timestamp,value
00.000,69.45
00.015,65.96
00.031,61.5
00.046,58.33
00.062,58.33
00.078,62.49
00.093,70.78
00.109,82.32
00.125,95.67
00.140,109.12
00.156,120.78
00.171,128.61
00.187,130.65
00.203,125.29
00.218,111.79
00.234,90.55
00.250,63.22
00.265,32.36
00.281,0.92
00.296,-28.33
00.312,-53.17
00.328,-72.06
00.343,-84.09
00.359,-88.99
00.375,-87.21
00.390,-79.92
00.406,-68.92
00.421,-56.3
00.437,-43.88
00.453,-32.85
00.468,-23.51
00.484,-15.52
00.500,-8.29
00.515,-1.4
00.531,5.06
00.546,10.66
00.562,14.85
00.578,17.41
00.593,18.55
00.609,19.01
00.625,19.61
00.640,20.87
00.656,22.49
00.671,23.39
00.687,21.92
00.703,16.51
00.718,6.44
00.734,-7.89
00.750,-24.94
00.765,-42.56
00.781,-58.64
00.796,-71.77
00.812,-81.37
00.828,-87.72
00.843,-91.51
00.859,-93.46
00.875,-94.09
00.890,-93.55
00.906,-91.78
00.921,-88.52
00.937,-83.54
00.953,-76.64
00.968,-67.69
00.984,-56.69
01.000,-43.84
01.015,-29.61
01.031,-14.8
01.046,-0.44
01.062,12.37
01.078,22.78
01.093,30.42
01.109,35.4
01.125,38.31
01.140,39.92
01.156,40.95
01.171,42.01
01.187,43.44
01.203,45.4
01.218,47.92
01.234,50.89
01.250,54.3
01.265,58.32
01.281,63.51
01.296,70.64
01.312,80.41
01.328,92.9
01.343,107.08
01.359,120.71
01.375,130.66
01.390,133.86
01.406,128.25
01.421,113.43
01.437,90.76
01.453,62.82
01.468,32.56
01.484,2.55
01.500,-25.39
01.515,-49.97
01.531,-70.15
01.546,-84.8
01.562,-92.8
01.578,-93.52
01.593,-87.4
01.609,-76.06
01.625,-61.97
01.640,-47.7
01.656,-35.1
01.671,-24.92
01.687,-16.96
01.703,-10.65
01.718,-5.66
01.734,-2.11
01.750,-0.31
01.765,-0.22
01.781,-1.08
01.796,-1.51
01.812,-0.12
01.828,3.76
01.843,9.55
01.859,15.59
01.875,19.71
01.890,20.05
01.906,15.71
01.921,6.91
01.937,-5.19
01.953,-19.08
01.968,-33.26
01.984,-46.51
02.000,-57.86
02.015,-66.57
02.031,-72.19
02.046,-74.66
02.062,-74.39
02.078,-72.27
02.093,-69.41
02.109,-66.81
02.125,-64.93
02.140,-63.47
02.156,-61.57
02.171,-58.12
02.187,-52.29
02.203,-43.92
02.218,-33.51
02.234,-21.97
02.250,-10.25
02.265,0.93
02.281,11.14
02.296,20.18
02.312,27.85
02.328,33.92
02.343,38.06
02.359,39.92
02.375,39.28
02.390,36.2
02.406,31.32
02.421,25.88
02.437,21.82
02.453,21.31
02.468,26.24
02.484,37.33
02.500,53.44
02.515,71.46
02.531,86.75
02.546,94.38
02.562,90.63
02.578,74.34
02.593,47.45
02.609,14.52
02.625,-18.49
02.640,-46.06
02.656,-64.48
02.671,-72.67
02.687,-72.0
02.703,-65.43
02.718,-56.45
02.734,-47.9
02.750,-41.35
02.765,-36.72
02.781,-32.5
02.796,-26.29
02.812,-15.56
02.828,1.61
02.843,26.01
02.859,56.98
02.875,92.49
02.890,129.55
02.906,164.74
02.921,194.89
02.937,217.68
02.953,231.78
02.968,236.92
02.984,233.58
03.000,222.85
03.015,206.35
03.031,186.36
03.046,165.62
03.062,146.84
03.078,132.03
03.093,121.83
03.109,115.16
03.125,109.85
03.140,103.38
03.156,93.92
03.171,80.79
03.187,64.49
03.203,46.17
03.218,27.09
03.234,8.24
03.250,-9.74
03.265,-26.35
03.281,-41.19
03.296,-53.75
03.312,-63.55
03.328,-70.18
03.343,-73.54
03.359,-73.94
03.375,-72.08
03.390,-68.75
03.406,-64.53
03.421,-59.59
03.437,-53.59
03.453,-45.99
03.468,-36.39
03.484,-24.93
03.500,-12.31
03.515,0.34
03.531,11.95
03.546,21.95
03.562,30.48
03.578,38.31
03.593,46.34
03.609,55.08
03.625,64.29
03.640,73.07
03.656,80.14
03.671,84.42
03.687,85.28
03.703,82.61
03.718,76.71
03.734,67.89
03.750,56.36
03.765,42.15
03.781,25.16
03.796,5.31
03.812,-17.23
03.828,-41.91
03.843,-67.77
03.859,-93.6
03.875,-118.16
03.890,-140.29
03.906,-158.95
03.921,-172.97
03.937,-180.98
03.953,-181.64
03.968,-174.25
03.984,-159.25
04.000,-138.53
04.015,-115.07
04.031,-92.22
04.046,-72.99
04.062,-59.55
04.078,-53.01
04.093,-53.32
04.109,-59.26
04.125,-68.39
04.140,-77.31
04.156,-82.44
04.171,-81.13
04.187,-72.63
04.203,-58.47
04.218,-41.91
04.234,-26.78
04.250,-16.16
04.265,-11.49
04.281,-12.6
04.296,-18.23
04.312,-26.73
04.328,-36.68
04.343,-46.92
04.359,-56.46
04.375,-64.29
04.390,-69.26
04.406,-70.44
04.421,-67.57
04.437,-61.31
04.453,-53.09
04.468,-44.63
04.484,-37.17
04.500,-31.03
04.515,-25.62
04.531,-19.99
04.546,-13.45
04.562,-6.11
04.578,1.19
04.593,7.42
04.609,11.92
04.625,14.88
04.640,17.29
04.656,20.49
04.671,25.55
04.687,32.81
04.703,41.72
04.718,51.15
04.734,59.94
04.750,67.47
04.765,73.9
04.781,80.06
04.796,87.05
04.812,95.67
04.828,106.0
04.843,117.12
04.859,127.34
04.875,134.53
04.890,136.71
04.906,132.61
04.921,121.95
04.937,105.41
04.953,84.44
04.968,60.83
04.984,36.25
05.000,11.98
05.015,-11.27
05.031,-33.36
05.046,-54.5
05.062,-74.94
05.078,-94.71
05.093,-113.39
05.109,-130.07
05.125,-143.6
05.140,-152.86
05.156,-157.18
05.171,-156.62
05.187,-151.83
05.203,-143.78
05.218,-133.42
05.234,-121.47
05.250,-108.48
05.265,-95.14
05.281,-82.36
05.296,-71.18
05.312,-62.42
05.328,-56.17
05.343,-51.64
05.359,-47.31
05.375,-41.33
05.390,-32.07
05.406,-18.55
05.421,-0.8
05.437,19.66
05.453,39.62
05.468,54.67
05.484,60.35
05.500,53.98
05.515,36.05
05.531,10.56
05.546,-16.35
05.562,-38.58
05.578,-52.29
05.593,-56.83
05.609,-54.1
05.625,-46.9
05.640,-37.47
05.656,-26.9
05.671,-15.45
05.687,-3.38
05.703,8.8
05.718,20.51
05.734,31.4
05.750,41.51
05.765,50.82
05.781,58.68
05.796,63.79
05.812,64.67
05.828,60.52
05.843,51.91
05.859,40.7
05.875,29.25
05.890,19.48
05.906,12.36
05.921,7.95
05.937,6.05
05.953,6.71
05.968,10.39
05.984,17.46
06.000,27.7
06.015,39.95
06.031,52.36
06.046,63.08
06.062,70.91
06.078,75.56
06.093,77.51
06.109,77.39
06.125,75.56
06.140,71.92
06.156,66.07
06.171,57.89
06.187,47.83
06.203,36.93
06.218,26.5
06.234,17.53
06.250,10.19
06.265,3.81
06.281,-2.84
06.296,-11.08
06.312,-21.74
06.328,-34.89
06.343,-49.75
06.359,-64.73
06.375,-77.75
06.390,-86.72
06.406,-90.12
06.421,-87.52
06.437,-79.58
06.453,-67.87
06.468,-54.08
06.484,-39.61
06.500,-25.22
06.515,-11.33
06.531,1.54
06.546,12.78
06.562,21.57
06.578,27.04
06.593,28.13
06.609,23.31
06.625,10.87
06.640,-10.42
06.656,-40.27
06.671,-76.2
06.687,-113.77
06.703,-148.08
06.718,-175.41
06.734,-194.39
06.750,-205.87
06.765,-211.65
06.781,-213.02
06.796,-210.01
06.812,-201.94
06.828,-188.41
06.843,-170.4
06.859,-150.16
06.875,-130.46
06.890,-113.31
06.906,-99.41
06.921,-88.18
06.937,-78.41
06.953,-69.05
06.968,-59.72
06.984,-50.68
07.000,-42.35
07.015,-34.73
07.031,-27.23
07.046,-18.83
07.062,-8.77
07.078,2.83
07.093,14.68
07.109,24.73
07.125,31.06
07.140,32.88
07.156,31.01
07.171,27.62
07.187,25.51
07.203,27.04
07.218,33.5
07.234,44.86
07.250,60.13
07.265,77.85
07.281,96.54
07.296,115.1
07.312,132.81
07.328,149.33
07.343,164.44
07.359,177.87
07.375,189.18
07.390,197.79
07.406,203.15
07.421,204.85
07.437,202.82
07.453,197.07
07.468,187.63
07.484,174.28
07.500,156.69
07.515,134.78
07.531,109.13
07.546,81.33
07.562,53.84
07.578,29.55
07.593,11.09
07.609,0.19
07.625,-2.74
07.640,1.35
07.656,10.4
07.671,21.56
07.687,31.81
07.703,38.52
07.718,40.21
07.734,37.23
07.750,31.84
07.765,27.5
07.781,27.52
07.796,33.41
07.812,43.95
07.828,55.49
07.843,63.28
07.859,63.51
07.875,54.59
07.890,37.53
07.906,15.14
07.921,-9.36
07.937,-33.52
07.953,-56.16
07.968,-77.19
07.984,-97.26
08.000,-117.09
08.015,-136.99
08.031,-156.55
08.046,-174.35
08.062,-188.31
08.078,-196.31
08.093,-197.11
08.109,-190.92
08.125,-179.42
08.140,-165.01
08.156,-149.89
08.171,-135.41
08.187,-122.08
08.203,-110.07
08.218,-99.74
08.234,-91.55
08.250,-85.38
08.265,-79.96
08.281,-72.96
08.296,-62.02
08.312,-46.2
08.328,-26.91
08.343,-7.56
08.359,7.92
08.375,16.92
08.390,19.26
08.406,16.94
08.421,12.88
08.437,9.55
08.453,8.16
08.468,9.05
08.484,12.19
08.500,17.89
08.515,26.64
08.531,38.61
08.546,53.19
08.562,68.97
08.578,84.3
08.593,97.93
08.609,109.34
08.625,118.61
08.640,126.06
08.656,131.78
08.671,135.62
08.687,137.37
08.703,137.11
08.718,135.43
08.734,133.27
08.750,131.56
08.765,130.86
08.781,131.12
08.796,131.72
08.812,131.77
08.828,130.52
08.843,127.61
08.859,123.3
08.875,118.28
08.890,113.38
08.906,109.22
08.921,105.9
08.937,102.98
08.953,99.56
08.968,94.66
08.984,87.56
09.000,78.1
09.015,66.7
09.031,54.05
09.046,40.74
09.062,26.87
09.078,12.11
09.093,-4.03
09.109,-21.7
09.125,-40.33
09.140,-58.79
09.156,-75.74
09.171,-90.23
09.187,-102.09
09.203,-111.84
09.218,-120.13
09.234,-127.03
09.250,-131.77
09.265,-132.87
09.281,-128.8
09.296,-118.35
09.312,-100.83
09.328,-75.84
09.343,-43.35
09.359,-4.06
09.375,40.04
09.390,85.37
09.406,127.2
09.421,161.11
09.437,184.75
09.453,198.92
09.468,207.21
09.484,214.17
09.500,222.78
09.515,232.75
09.531,240.52
09.546,240.94
09.562,229.87
09.578,206.09
09.593,171.7
09.609,131.11
09.625,89.15
09.640,49.39
09.656,13.39
09.671,-19.06
09.687,-48.9
09.703,-76.61
09.718,-101.59
09.734,-122.27
09.750,-136.9
09.765,-144.36
09.781,-144.8
09.796,-139.57
09.812,-130.61
09.828,-119.68
09.843,-107.77
09.859,-95.21
09.875,-82.12
09.890,-68.96
09.906,-56.8
09.921,-46.95
09.937,-40.25
09.953,-36.5
09.968,-34.43
09.984,-32.15
10.000,-27.99
10.015,-21.19
10.031,-12.12
10.046,-2.16
10.062,6.93
10.078,13.64
10.093,17.21
10.109,17.82
10.125,16.43
10.140,14.4
10.156,13.02
10.171,13.22
10.187,15.54
10.203,20.09
10.218,26.66
10.234,34.58
10.250,42.61
10.265,48.94
10.281,51.47
10.296,48.4
10.312,38.88
10.328,23.3
10.343,3.21
10.359,-19.31
10.375,-42.31
10.390,-64.43
10.406,-84.99
10.421,-103.79
10.437,-120.71
10.453,-135.59
10.468,-148.23
10.484,-158.52
10.500,-166.51
10.515,-172.34
10.531,-176.12
10.546,-177.74
10.562,-176.94
10.578,-173.26
10.593,-166.31
10.609,-155.89
10.625,-142.27
10.640,-126.31
10.656,-109.39
10.671,-93.22
10.687,-79.3
10.703,-68.41
10.718,-60.41
10.734,-54.38
10.750,-49.04
10.765,-43.42
10.781,-37.24
10.796,-30.78
10.812,-24.58
10.828,-18.91
10.843,-13.56
10.859,-7.96
10.875,-1.59
10.890,5.62
10.906,13.15
10.921,20.02
10.937,25.36
10.953,28.8
10.968,30.69
10.984,32.01
11.000,33.99
11.015,37.66
11.031,43.58
11.046,51.72
11.062,61.51
11.078,72.15
11.093,82.78
11.109,92.61
11.125,100.95
11.140,107.12
11.156,110.4
11.171,110.14
11.187,105.83
11.203,97.39
11.218,85.23
11.234,70.24
11.250,53.61
11.265,36.58
11.281,20.27
11.296,5.52
11.312,-7.09
11.328,-17.3
11.343,-25.22
11.359,-31.39
11.375,-36.75
11.390,-42.35
11.406,-48.84
11.421,-56.0
11.437,-62.74
11.453,-67.35
11.468,-68.27
11.484,-64.7
11.500,-56.95
11.515,-46.21
11.531,-33.94
11.546,-21.22
11.562,-8.63
11.578,3.8
11.593,16.04
11.609,27.82
11.625,38.58
11.640,47.68
11.656,54.73
11.671,59.84
11.687,63.55
11.703,66.58
11.718,69.52
11.734,72.65
11.750,75.92
11.765,78.98
11.781,81.44
11.796,82.85
11.812,82.87
11.828,81.19
11.843,77.59
11.859,72.03
11.875,64.7
11.890,56.05
11.906,46.72
11.921,37.38
11.937,28.56
11.953,20.49
11.968,13.05
11.984,5.96
12.000,-1.19
12.015,-8.72
12.031,-16.8
12.046,-25.48
12.062,-34.66
12.078,-44.1
12.093,-53.42
12.109,-62.06
12.125,-69.3
12.140,-74.36
12.156,-76.7
12.171,-76.08
12.187,-72.8
12.203,-67.62
12.218,-61.59
12.234,-55.69
12.250,-50.51
12.265,-46.02
12.281,-41.61
12.296,-36.2
12.312,-28.65
12.328,-18.08
12.343,-4.24
12.359,12.46
12.375,30.95
12.390,49.75
12.406,67.27
12.421,82.12
12.437,93.27
12.453,100.19
12.468,102.8
12.484,101.44
12.500,96.79
12.515,89.84
12.531,81.76
12.546,73.81
12.562,67.05
12.578,62.19
12.593,59.32
12.609,57.93
12.625,57.04
12.640,55.55
12.656,52.46
12.671,47.31
12.687,40.29
12.703,32.19
12.718,24.18
12.734,17.49
12.750,13.05
12.765,11.3
12.781,12.17
12.796,15.07
12.812,19.14
12.828,23.41
12.843,26.89
12.859,28.7
12.875,28.23
12.890,25.23
12.906,19.93
12.921,13.0
12.937,5.23
12.953,-2.71
12.968,-10.55
12.984,-18.3
13.000,-25.96
13.015,-33.16
13.031,-38.97
13.046,-42.16
13.062,-41.76
13.078,-37.59
13.093,-30.59
13.109,-22.49
13.125,-15.15
13.140,-9.87
13.156,-7.0
13.171,-5.99
13.187,-5.75
13.203,-5.21
13.218,-3.67
13.234,-0.92
13.250,2.8
13.265,7.01
13.281,11.2
13.296,14.76
13.312,17.17
13.328,17.96
13.343,16.76
13.359,13.32
13.375,7.62
13.390,-0.21
13.406,-9.84
13.421,-20.7
13.437,-32.16
13.453,-43.6
13.468,-54.56
13.484,-64.8
13.500,-74.37
13.515,-83.45
13.531,-92.16
13.546,-100.47
13.562,-107.98
13.578,-114.03
13.593,-117.84
13.609,-118.87
13.625,-116.91
13.640,-112.28
13.656,-105.65
13.671,-97.83
13.687,-89.47
13.703,-80.9
13.718,-72.17
13.734,-63.18
13.750,-53.91
13.765,-44.5
13.781,-35.13
13.796,-25.95
13.812,-16.94
13.828,-7.94
13.843,1.28
13.859,10.77
13.875,20.46
13.890,30.03
13.906,38.97
13.921,46.74
13.937,52.85
13.953,57.04
13.968,59.36
13.984,60.36
14.000,60.93
14.015,62.06
14.031,64.56
14.046,68.66
14.062,73.97
14.078,79.57
14.093,84.35
14.109,87.28
14.125,87.67
14.140,85.21
14.156,79.88
14.171,71.76
14.187,61.02
14.203,47.97
14.218,33.04
14.234,16.98
14.250,0.73
14.265,-14.67
14.281,-28.19
14.296,-38.93
14.312,-46.17
14.328,-49.43
14.343,-48.55
14.359,-43.81
14.375,-35.92
14.390,-25.9
14.406,-14.84
14.421,-3.54
14.437,7.66
14.453,18.84
14.468,30.17
14.484,41.67
14.500,53.02
14.515,63.69
14.531,73.11
14.546,80.8
14.562,86.51
14.578,89.99
14.593,91.08
14.609,89.59
14.625,85.53
14.640,79.21
14.656,71.31
14.671,62.59
14.687,53.75
14.703,45.14
14.718,36.73
14.734,28.2
14.750,19.12
14.765,9.16
14.781,-1.82
14.796,-13.62
14.812,-25.79
14.828,-37.67
14.843,-48.55
14.859,-57.82
14.875,-65.08
14.890,-70.19
14.906,-73.22
14.921,-74.43
14.937,-74.12
14.953,-72.61
14.968,-70.27
14.984,-67.52
15.000,-64.86
15.015,-62.78
15.031,-61.67
15.046,-61.64
15.062,-62.51
15.078,-63.83
15.093,-65.0
15.109,-65.54
15.125,-65.24
15.140,-64.23
15.156,-62.88
15.171,-61.61
15.187,-60.7
15.203,-60.22
15.218,-60.04
15.234,-59.86
15.250,-59.29
15.265,-57.85
15.281,-55.01
15.296,-50.23
15.312,-43.09
15.328,-33.48
15.343,-21.67
15.359,-8.42
15.375,5.25
15.390,18.19
15.406,29.45
15.421,38.38
15.437,44.63
15.453,48.23
15.468,49.36
15.484,48.34
15.500,45.6
15.515,41.63
15.531,36.91
15.546,32.0
15.562,27.31
15.578,23.05
15.593,19.19
15.609,15.4
15.625,11.23
15.640,6.21
15.656,0.13
15.671,-6.99
15.687,-14.8
15.703,-22.77
15.718,-30.27
15.734,-36.7
15.750,-41.66
15.765,-44.94
15.781,-46.63
15.796,-47.09
15.812,-46.83
15.828,-46.41
15.843,-46.16
15.859,-46.24
15.875,-46.5
15.890,-46.66
15.906,-46.46
15.921,-45.67
15.937,-44.15
15.953,-41.7
15.968,-38.03
15.984,-32.81
16.000,-25.94
16.015,-17.55
16.031,-8.2
16.046,1.42
16.062,10.7
16.078,19.35
16.093,27.55
16.109,35.71
16.125,44.26
16.140,53.31
16.156,62.68
16.171,71.95
16.187,80.72
16.203,88.7
16.218,95.65
16.234,101.33
16.250,105.26
16.265,106.91
16.281,105.75
16.296,101.64
16.312,94.83
16.328,86.01
16.343,76.05
16.359,65.76
16.375,55.7
16.390,46.16
16.406,37.25
16.421,28.87
16.437,20.87
16.453,12.95
16.468,4.77
16.484,-3.94
16.500,-13.23
16.515,-22.81
16.531,-32.04
16.546,-40.07
16.562,-46.18
16.578,-49.93
16.593,-51.33
16.609,-50.79
16.625,-48.94
16.640,-46.45
16.656,-43.9
16.671,-41.61
16.687,-39.6
16.703,-37.61
16.718,-35.07
16.734,-31.34
16.750,-25.84
16.765,-18.29
16.781,-8.8
16.796,2.17
16.812,13.89
16.828,25.55
16.843,36.44
16.859,46.04
16.875,54.09
16.890,60.57
16.906,65.83
16.921,70.44
16.937,75.18
16.953,80.67
16.968,87.17
16.984,94.42
17.000,101.71
17.015,108.12
17.031,112.88
17.046,115.54
17.062,116.04
17.078,114.52
17.093,111.09
17.109,105.79
17.125,98.65
17.140,89.83
17.156,79.75
17.171,68.97
17.187,58.05
17.203,47.23
17.218,36.47
17.234,25.52
17.250,14.05
17.265,1.84
17.281,-11.1
17.296,-24.53
17.312,-37.96
17.328,-50.64
17.343,-61.71
17.359,-70.29
17.375,-75.72
17.390,-77.67
17.406,-76.22
17.421,-71.79
17.437,-64.92
17.453,-56.36
17.468,-46.89
17.484,-37.5
17.500,-29.23
17.515,-23.08
17.531,-19.74
17.546,-19.48
17.562,-22.08
17.578,-26.93
17.593,-33.26
17.609,-40.25
17.625,-47.21
17.640,-53.55
17.656,-59.03
17.671,-63.68
17.687,-67.85
17.703,-72.11
17.718,-77.0
17.734,-82.79
17.750,-89.27
17.765,-95.72
17.781,-101.07
17.796,-104.16
17.812,-104.05
17.828,-100.23
17.843,-92.73
17.859,-81.97
17.875,-68.75
17.890,-54.02
17.906,-38.89
17.921,-24.43
17.937,-11.68
17.953,-1.44
17.968,5.8
17.984,9.98
18.000,11.5
18.015,11.11
18.031,9.71
18.046,8.15
18.062,7.03
18.078,6.66
18.093,6.99
18.109,7.82
18.125,8.85
18.140,9.79
18.156,10.39
18.171,10.5
18.187,10.08
18.203,9.25
18.218,8.38
18.234,7.96
18.250,8.63
18.265,10.81
18.281,14.63
18.296,19.79
18.312,25.62
18.328,31.22
18.343,35.74
18.359,38.56
18.375,39.28
18.390,37.95
18.406,34.85
18.421,30.5
18.437,25.56
18.453,20.64
18.468,16.14
18.484,12.12
18.500,8.3
18.515,4.14
18.531,-0.9
18.546,-7.27
18.562,-15.09
18.578,-24.03
18.593,-33.37
18.609,-42.09
18.625,-49.02
18.640,-53.17
18.656,-53.94
18.671,-51.24
18.687,-45.5
18.703,-37.51
18.718,-28.11
18.734,-18.11
18.750,-8.15
18.765,1.28
18.781,9.65
18.796,16.46
18.812,21.39
18.828,24.34
18.843,25.53
18.859,25.5
18.875,24.77
18.890,23.73
18.906,22.5
18.921,20.97
18.937,18.95
18.953,16.33
18.968,13.12
18.984,9.54
19.000,5.99
19.015,2.95
19.031,1.03
19.046,0.83
19.062,2.76
19.078,6.93
19.093,13.03
19.109,20.41
19.125,28.22
19.140,35.68
19.156,42.18
19.171,47.28
19.187,50.69
19.203,52.13
19.218,51.44
19.234,48.59
19.250,43.8
19.265,37.61
19.281,30.72
19.296,23.8
19.312,17.25
19.328,11.17
19.343,5.25
19.359,-0.94
19.375,-7.76
19.390,-15.38
19.406,-23.53
19.421,-31.66
19.437,-39.0
19.453,-44.81
19.468,-48.48
19.484,-49.72
19.500,-48.56
19.515,-45.34
19.531,-40.66
19.546,-35.26
19.562,-29.9
19.578,-25.31
19.593,-22.13
19.609,-20.77
19.625,-21.41
19.640,-23.9
19.656,-27.83
19.671,-32.64
19.687,-37.75
19.703,-42.71
19.718,-47.29
19.734,-51.4
19.750,-55.06
19.765,-58.33
19.781,-61.25
19.796,-63.93
19.812,-66.47
19.828,-69.05
19.843,-71.64
19.859,-74.04
19.875,-75.74
19.890,-76.06
19.906,-74.42
19.921,-70.57
19.937,-64.68
19.953,-57.28
19.968,-49.1
19.984,-40.78
20.000,-32.88
20.015,-25.82
20.031,-19.98
20.046,-15.75
20.062,-13.35
20.078,-12.7
20.093,-13.28
20.109,-14.29
20.125,-14.76
20.140,-14.0
20.156,-11.73
20.171,-8.17
20.187,-4.0
20.203,-0.03
20.218,3.0
20.234,4.66
20.250,4.97
20.265,4.34
20.281,3.49
20.296,3.13
20.312,3.8
20.328,5.63
20.343,8.41
20.359,11.65
20.375,14.75
20.390,17.18
20.406,18.66
20.421,19.09
20.437,18.58
20.453,17.36
20.468,15.69
20.484,13.87
20.500,12.11
20.515,10.5
20.531,9.02
20.546,7.55
20.562,5.89
20.578,3.9
20.593,1.46
20.609,-1.45
20.625,-4.76
20.640,-8.33
20.656,-11.97
20.671,-15.23
20.687,-17.51
20.703,-18.11
20.718,-16.4
20.734,-12.11
20.750,-5.48
20.765,2.72
20.781,11.42
20.796,19.53
20.812,26.22
20.828,31.08
20.843,33.98
20.859,35.05
20.875,34.53
20.890,32.77
20.906,30.2
20.921,27.33
20.937,24.66
20.953,22.6
20.968,21.26
20.984,20.5
21.000,20.0
21.015,19.36
21.031,18.2
21.046,16.26
21.062,13.48
21.078,10.13
21.093,6.76
21.109,4.19
21.125,3.28
21.140,4.74
21.156,8.91
21.171,15.64
21.187,24.34
21.203,34.12
21.218,43.99
21.234,53.06
21.250,60.66
21.265,66.26
21.281,69.65
21.296,70.78
21.312,69.84
21.328,67.21
21.343,63.39
21.359,58.89
21.375,54.17
21.390,49.5
21.406,44.95
21.421,40.38
21.437,35.5
21.453,30.1
21.468,24.09
21.484,17.71
21.500,11.54
21.515,6.36
21.531,3.04
21.546,2.2
21.562,4.06
21.578,8.28
21.593,14.01
21.609,20.06
21.625,25.18
21.640,28.4
21.656,29.19
21.671,27.54
21.687,23.88
21.703,18.82
21.718,12.99
21.734,6.93
21.750,1.07
21.765,-4.31
21.781,-8.93
21.796,-12.6
21.812,-15.28
21.828,-17.07
21.843,-18.27
21.859,-19.27
21.875,-20.39
21.890,-21.69
21.906,-22.84
21.921,-23.27
21.937,-22.32
21.953,-19.53
21.968,-14.8
21.984,-8.45
22.000,-1.09
22.015,6.56
22.031,13.82
22.046,20.11
22.062,24.97
22.078,27.97
22.093,28.85
22.109,27.54
22.125,24.22
22.140,19.35
22.156,13.53
22.171,7.38
22.187,1.4
22.203,-4.07
22.218,-8.94
22.234,-13.29
22.250,-17.33
22.265,-21.31
22.281,-25.28
22.296,-29.04
22.312,-32.07
22.328,-33.62
22.343,-32.93
22.359,-29.49
22.375,-23.22
22.390,-14.53
22.406,-4.14
22.421,7.05
22.437,18.16
22.453,28.37
22.468,36.94
22.484,43.21
22.500,46.68
22.515,47.11
22.531,44.66
22.546,39.91
22.562,33.75
22.578,27.15
22.593,20.86
22.609,15.23
22.625,10.16
22.640,5.12
22.656,-0.53
22.671,-7.28
22.687,-15.23
22.703,-23.98
22.718,-32.72
22.734,-40.45
22.750,-46.28
22.765,-49.57
22.781,-50.04
22.796,-47.71
22.812,-42.91
22.828,-36.19
22.843,-28.37
22.859,-20.35
22.875,-13.09
22.890,-7.41
22.906,-3.81
22.921,-2.42
22.937,-2.94
22.953,-4.81
22.968,-7.33
22.984,-9.9
23.000,-12.16
23.015,-14.11
23.031,-16.09
23.046,-18.64
23.062,-22.33
23.078,-27.45
23.093,-33.91
23.109,-41.1
23.125,-48.05
23.140,-53.59
23.156,-56.68
23.171,-56.63
23.187,-53.19
23.203,-46.65
23.218,-37.68
23.234,-27.22
23.250,-16.36
23.265,-6.16
23.281,2.54
23.296,9.17
23.312,13.49
23.328,15.72
23.343,16.27
23.359,15.7
23.375,14.48
23.390,12.95
23.406,11.29
23.421,9.61
23.437,8.03
23.453,6.59
23.468,5.43
23.484,4.52
23.500,3.84
23.515,3.45
23.531,3.6
23.546,4.72
23.562,7.27
23.578,11.55
23.593,17.5
23.609,24.72
23.625,32.49
23.640,40.04
23.656,46.77
23.671,52.2
23.687,56.0
23.703,57.91
23.718,57.73
23.734,55.41
23.750,51.14
23.765,45.32
23.781,38.58
23.796,31.61
23.812,24.94
23.828,18.94
23.843,13.78
23.859,9.43
23.875,5.73
23.890,2.48
23.906,-0.5
23.921,-3.26
23.937,-5.62
23.953,-7.29
23.968,-7.87
23.984,-7.04
24.000,-4.64
24.015,-0.77
24.031,4.33
24.046,10.24
24.062,16.42
24.078,22.23
24.093,26.9
24.109,29.7
24.125,30.03
24.140,27.67
24.156,22.81
24.171,16.08
24.187,8.35
24.203,0.49
24.218,-6.87
24.234,-13.45
24.250,-19.27
24.265,-24.66
24.281,-29.93
24.296,-35.26
24.312,-40.55
24.328,-45.37
24.343,-49.1
24.359,-51.04
24.375,-50.62
24.390,-47.46
24.406,-41.54
24.421,-33.17
24.437,-23.06
24.453,-12.26
24.468,-2.05
24.484,6.31
24.500,11.92
24.515,14.46
24.531,14.41
24.546,12.74
24.562,10.6
24.578,8.92
24.593,8.07
24.609,7.89
24.625,7.84
24.640,7.32
24.656,5.85
24.671,3.23
24.687,-0.56
24.703,-5.28
24.718,-10.45
24.734,-15.42
24.750,-19.37
24.765,-21.62
24.781,-21.76
24.796,-19.79
24.812,-16.13
24.828,-11.44
24.843,-6.44
24.859,-1.76
24.875,2.11
24.890,4.85
24.906,6.22
24.921,6.22
24.937,4.94
24.953,2.67
24.968,-0.28
24.984,-3.7
25.000,-7.59
25.015,-12.13
25.031,-17.49
25.046,-23.59
25.062,-30.02
25.078,-36.13
25.093,-41.24
25.109,-44.93
25.125,-47.22
25.140,-48.5
25.156,-49.33
25.171,-50.09
25.187,-50.98
25.203,-52.05
25.218,-53.34
25.234,-54.98
25.250,-57.14
25.265,-59.78
25.281,-62.59
25.296,-65.07
25.312,-66.78
25.328,-67.58
25.343,-67.61
25.359,-67.13
25.375,-66.19
25.390,-64.53
25.406,-61.76
25.421,-57.57
25.437,-51.98
25.453,-45.27
25.468,-37.73
25.484,-29.65
25.500,-21.46
25.515,-14.04
25.531,-8.77
25.546,-7.26
25.562,-10.74
25.578,-19.38
25.593,-31.91
25.609,-45.67
25.625,-57.3
25.640,-63.63
25.656,-62.32
25.671,-52.34
25.687,-33.98
25.703,-9.05
25.718,19.34
25.734,47.15
25.750,70.09
25.765,84.91
25.781,90.66
25.796,89.24
25.812,84.92
25.828,82.92
25.843,87.38
25.859,99.64
25.875,117.35
25.890,135.12
25.906,146.54
25.921,146.78
25.937,134.93
25.953,114.86
25.968,94.49
25.984,83.09
26.000,87.59
26.015,109.51
26.031,143.55
26.046,179.04
26.062,203.55
26.078,207.02
26.093,184.67
26.109,137.82
26.125,72.52
26.140,-2.88
26.156,-79.82
26.171,-150.73
26.187,-209.7
26.203,-252.85
26.218,-278.34
26.234,-286.3
26.250,-278.53
26.265,-257.35
26.281,-224.88
26.296,-182.79
26.312,-132.68
26.328,-76.76
26.343,-18.24
26.359,38.96
26.375,90.76
26.390,133.43
26.406,163.87
26.421,179.81
26.437,180.2
26.453,165.98
26.468,140.63
26.484,109.93
26.500,80.45
26.515,57.74
26.531,44.36
26.546,39.19
26.562,38.38
26.578,36.73
26.593,29.98
26.609,16.02
26.625,-4.37
26.640,-27.97
26.656,-50.51
26.671,-68.32
26.687,-80.03
26.703,-87.32
26.718,-93.97
26.734,-103.94
26.750,-119.23
26.765,-138.59
26.781,-157.99
26.796,-172.69
26.812,-179.51
26.828,-178.07
26.843,-170.25
26.859,-158.27
26.875,-142.95
26.890,-123.46
26.906,-98.49
26.921,-68.36
26.937,-36.08
26.953,-6.39
26.968,16.79
26.984,32.64
27.000,44.1
27.015,56.1
27.031,72.32
27.046,92.6
27.062,112.6
27.078,125.76
27.093,126.85
27.109,114.62
27.125,92.29
27.140,66.05
27.156,42.4
27.171,25.98
27.187,19.02
27.203,22.06
27.218,35.31
27.234,59.11
27.250,93.21
27.265,135.14
27.281,179.31
27.296,217.1
27.312,239.17
27.328,238.86
27.343,215.3
27.359,174.23
27.375,126.05
27.390,81.46
27.406,47.52
27.421,26.11
27.437,15.37
27.453,12.98
27.468,18.7
27.484,34.25
27.500,60.99
27.515,97.12
27.531,136.72
27.546,171.54
27.562,194.27
27.578,201.4
27.593,194.09
27.609,176.76
27.625,154.39
27.640,130.48
27.656,106.57
27.671,82.55
27.687,57.53
27.703,30.17
27.718,-0.67
27.734,-34.89
27.750,-70.08
27.765,-101.01
27.781,-120.95
27.796,-124.73
27.812,-111.73
27.828,-87.43
27.843,-61.53
27.859,-43.96
27.875,-40.97
27.890,-53.37
27.906,-77.97
27.921,-110.62
27.937,-148.5
27.953,-190.01
27.968,-232.88
27.984,-272.17
28.000,-300.57
28.015,-311.23
28.031,-301.43
28.046,-274.56
28.062,-238.95
28.078,-204.24
28.093,-177.1
28.109,-159.0
28.125,-146.86
28.140,-135.99
28.156,-123.01
28.171,-107.49
28.187,-91.54
28.203,-78.2
28.218,-69.7
28.234,-66.47
28.250,-67.36
28.265,-70.34
28.281,-73.42
28.296,-75.32
28.312,-75.3
28.328,-72.94
28.343,-67.7
28.359,-58.79
28.375,-45.56
28.390,-27.99
28.406,-7.08
28.421,15.13
28.437,36.07
28.453,53.53
28.468,66.19
28.484,73.99
28.500,77.82
28.515,79.05
28.531,78.84
28.546,77.85
28.562,76.21
28.578,73.77
28.593,70.5
28.609,66.64
28.625,62.69
28.640,59.18
28.656,56.44
28.671,54.46
28.687,52.94
28.703,51.5
28.718,49.9
28.734,48.18
28.750,46.56
28.765,45.25
28.781,44.27
28.796,43.33
28.812,41.88
28.828,39.13
28.843,34.3
28.859,26.8
28.875,16.69
28.890,4.93
28.906,-6.45
28.921,-14.72
28.937,-17.14
28.953,-11.82
28.968,1.64
28.984,21.97
29.000,46.64
29.015,72.56
29.031,96.67
29.046,116.66
29.062,131.2
29.078,140.07
29.093,144.04
29.109,144.62
29.125,143.55
29.140,142.43
29.156,142.31
29.171,143.59
29.187,146.16
29.203,149.64
29.218,153.72
29.234,158.11
29.250,162.72
29.265,167.69
29.281,173.36
29.296,180.19
29.312,188.26
29.328,196.9
29.343,204.46
29.359,208.82
29.375,208.11
29.390,201.77
29.406,190.94
29.421,178.26
29.437,167.13
29.453,160.72
29.468,161.44
29.484,170.43
29.500,187.3
29.515,209.75
29.531,233.55
29.546,253.15
29.562,263.29
29.578,260.93
29.593,246.61
29.609,224.37
29.625,199.92
29.640,178.39
29.656,162.53
29.671,152.48
29.687,146.65
29.703,143.13
29.718,140.52
29.734,137.92
29.750,134.44
29.765,128.67
29.781,118.98
29.796,104.07
29.812,83.57
29.828,58.08
29.843,28.7
29.859,-3.16
29.875,-35.75
29.890,-66.4
29.906,-91.33
29.921,-105.81
29.937,-105.92
29.953,-90.48
29.968,-62.07
29.984,-26.72
30.000,8.43
30.015,37.88
30.031,60.18
30.046,78.0
30.062,96.17
30.078,118.3
30.093,144.21
30.109,169.48
30.125,187.26
30.140,191.49
30.156,179.46
30.171,152.85
30.187,116.62
30.203,76.68
30.218,37.6
30.234,1.52
30.250,-31.49
30.265,-62.25
30.281,-91.17
30.296,-117.63
30.312,-140.18
30.328,-157.31
30.343,-168.37
30.359,-173.94
30.375,-175.81
30.390,-176.5
30.406,-178.82
30.421,-184.9
30.437,-195.8
30.453,-211.1
30.468,-229.1
30.484,-247.21
30.500,-262.86
30.515,-274.54
30.531,-282.33
30.546,-288.34
30.562,-296.28
30.578,-310.42
30.593,-333.9
30.609,-366.85
30.625,-404.95
30.640,-439.71
30.656,-460.36
30.671,-457.17
30.687,-424.44
30.703,-362.77
30.718,-279.21
30.734,-185.92
30.750,-97.63
30.765,-28.11
30.781,13.6
30.796,26.35
30.812,17.69
30.828,1.53
30.843,-7.43
30.859,0.16
30.875,24.47
30.890,57.24
30.906,86.9
30.921,104.88
30.937,109.71
30.953,106.59
30.968,103.21
30.984,104.93
31.000,112.6
31.015,123.64
31.031,135.27
31.046,147.05
31.062,161.1
31.078,179.94
31.093,203.96
31.109,230.23
31.125,253.56
31.140,268.77
31.156,273.31
31.171,268.12
31.187,257.29
31.203,245.95
31.218,237.96
31.234,234.31
31.250,232.94
31.265,229.94
31.281,221.54
31.296,206.0
31.312,184.12
31.328,158.76
31.343,133.27
31.359,109.82
31.375,88.41
31.390,67.04
31.406,42.87
31.421,13.78
31.437,-20.37
31.453,-57.7
31.468,-94.96
31.484,-129.14
31.500,-158.73
31.515,-184.35
31.531,-208.17
31.546,-232.99
31.562,-261.1
31.578,-293.5
31.593,-329.7
31.609,-367.63
31.625,-403.88
31.640,-434.17
31.656,-454.32
31.671,-461.71
31.687,-456.84
31.703,-444.09
31.718,-430.69
31.734,-424.02
31.750,-428.3
31.765,-442.3
31.781,-459.76
31.796,-472.19
31.812,-473.0
31.828,-460.32
31.843,-437.47
31.859,-410.61
31.875,-385.44
31.890,-364.75
31.906,-348.03
31.921,-333.01
31.937,-317.63
31.953,-301.26
31.968,-284.4
31.984,-267.56
32.000,-250.18
32.015,-230.68
32.031,-207.28
32.046,-179.18
32.062,-147.28
32.078,-113.95
32.093,-82.23
32.109,-54.71
32.125,-32.84
32.140,-16.76
32.156,-5.52
32.171,2.16
32.187,7.49
32.203,11.21
32.218,13.64
32.234,14.92
32.250,15.44
32.265,15.94
32.281,17.52
32.296,21.31
32.312,27.98
32.328,37.58
32.343,49.27
32.359,61.61
32.375,72.83
32.390,81.26
32.406,85.85
32.421,86.36
32.437,83.49
32.453,78.54
32.468,73.03
32.484,68.14
32.500,64.4
32.515,61.76
32.531,59.74
32.546,57.81
32.562,55.5
32.578,52.56
32.593,48.84
32.609,44.42
32.625,39.81
32.640,35.93
32.656,34.07
32.671,35.39
32.687,40.53
32.703,49.19
32.718,60.09
32.734,71.32
32.750,80.95
32.765,87.51
32.781,90.28
32.796,89.36
32.812,85.26
32.828,78.8
32.843,70.9
32.859,62.57
32.875,54.77
32.890,48.52
32.906,44.59
32.921,43.3
32.937,44.33
32.953,46.63
32.968,48.67
32.984,48.91
33.000,46.38
33.015,41.03
33.031,33.9
33.046,26.87
33.062,22.03
33.078,21.15
33.093,25.04
33.109,33.33
33.125,44.57
33.140,56.76
33.156,67.81
33.171,76.08
33.187,80.56
33.203,80.93
33.218,77.46
33.234,70.84
33.250,62.14
33.265,52.6
33.281,43.47
33.296,35.69
33.312,29.66
33.328,25.03
33.343,20.82
33.359,15.85
33.375,9.11
33.390,0.35
33.406,-9.87
33.421,-20.16
33.437,-28.72
33.453,-33.9
33.468,-34.62
33.484,-30.84
33.500,-23.48
33.515,-14.17
33.531,-4.8
33.546,3.01
33.562,8.18
33.578,10.27
33.593,9.4
33.609,6.12
33.625,1.29
33.640,-4.05
33.656,-8.72
33.671,-11.69
33.687,-12.32
33.703,-10.55
33.718,-6.76
33.734,-1.53
33.750,4.63
33.765,11.42
33.781,18.58
33.796,25.78
33.812,32.63
33.828,38.93
33.843,44.94
33.859,51.44
33.875,59.32
33.890,68.9
33.906,79.47
33.921,89.4
33.937,96.8
33.953,100.38
33.968,100.07
33.984,96.76
34.000,91.81
34.015,86.2
34.031,80.26
34.046,73.79
34.062,66.44
34.078,58.11
34.093,48.98
34.109,39.36
34.125,29.42
34.140,19.2
34.156,8.77
34.171,-1.48
34.187,-10.54
34.203,-16.97
34.218,-19.15
34.234,-15.8
34.250,-6.46
34.265,8.19
34.281,26.43
34.296,45.78
34.312,63.58
34.328,77.66
34.343,86.61
34.359,90.11
34.375,88.7
34.390,83.49
34.406,75.83
34.421,66.97
34.437,57.81
34.453,48.74
34.468,39.7
34.484,30.12
34.500,19.3
34.515,6.65
34.531,-7.88
34.546,-23.48
34.562,-38.31
34.578,-49.7
34.593,-54.73
34.609,-51.02
34.625,-37.72
34.640,-15.91
34.656,11.4
34.671,40.05
34.687,66.05
34.703,86.67
34.718,101.34
34.734,111.41
34.750,119.41
34.765,127.5
34.781,136.31
34.796,144.47
34.812,149.06
34.828,146.97
34.843,136.26
34.859,117.11
34.875,91.78
34.890,63.6
34.906,35.74
34.921,10.23
34.937,-12.16
34.953,-31.27
34.968,-46.63
34.984,-56.97
35.000,-60.32
35.015,-54.84
35.031,-39.83
35.046,-16.45
35.062,12.03
35.078,40.86
35.093,64.94
35.109,80.32
35.125,85.36
35.140,81.37
35.156,72.09
35.171,62.08
35.187,55.03
35.203,52.12
35.218,51.83
35.234,50.77
35.250,45.43
35.265,33.58
35.281,14.81
35.296,-9.55
35.312,-36.8
35.328,-62.91
35.343,-82.75
35.359,-91.21
35.375,-85.12
35.390,-65.6
35.406,-39.06
35.421,-15.95
35.437,-7.11
35.453,-19.26
35.468,-51.94
35.484,-97.73
35.500,-145.58
35.515,-185.72
35.531,-213.5
35.546,-230.29
35.562,-241.1
35.578,-250.77
35.593,-260.71
35.609,-268.2
35.625,-268.39
35.640,-257.4
35.656,-235.03
35.671,-205.38
35.687,-174.97
35.703,-149.7
35.718,-132.1
35.734,-120.6
35.750,-111.1
35.765,-99.63
35.781,-84.45
35.796,-66.64
35.812,-48.86
35.828,-33.4
35.843,-20.57
35.859,-8.7
35.875,4.65
35.890,21.08
35.906,40.13
35.921,59.43
35.937,75.66
35.953,86.21
35.968,90.32
35.984,89.34
36.000,86.08
36.015,83.53
36.031,83.63
36.046,86.63
36.062,91.18
36.078,95.1
36.093,96.42
36.109,94.46
36.125,90.22
36.140,86.1
36.156,85.02
36.171,89.37
36.187,100.14
36.203,116.66
36.218,137.06
36.234,158.93
36.250,180.23
36.265,199.68
36.281,216.77
36.296,231.47
36.312,243.83
36.328,253.75
36.343,261.11
36.359,265.89
36.375,268.31
36.390,268.67
36.406,267.18
36.421,263.64
36.437,257.5
36.453,248.19
36.468,235.63
36.484,220.4
36.500,203.59
36.515,186.2
36.531,168.4
36.546,149.34
36.562,127.46
36.578,101.28
36.593,70.04
36.609,34.14
36.625,-5.2
36.640,-46.39
36.656,-87.89
36.671,-128.15
36.687,-165.41
36.703,-197.72
36.718,-223.15
36.734,-240.49
36.750,-249.8
36.765,-252.65
36.781,-251.61
36.796,-249.43
36.812,-247.93
36.828,-247.31
36.843,-246.26
36.859,-242.68
36.875,-234.58
36.890,-220.65
36.906,-200.55
36.921,-174.55
36.937,-143.12
36.953,-106.85
36.968,-66.65
36.984,-24.28
37.000,17.46
37.015,55.2
37.031,86.03
37.046,108.47
37.062,122.78
37.078,130.26
37.093,131.93
37.109,127.77
37.125,116.87
37.140,98.62
37.156,73.87
37.171,45.42
37.187,17.09
37.203,-7.83
37.218,-27.92
37.234,-44.07
37.250,-58.37
37.265,-72.52
37.281,-86.59
37.296,-99.09
37.312,-107.94
37.328,-111.64
37.343,-110.02
37.359,-103.94
37.375,-94.61
37.390,-82.65
37.406,-68.15
37.421,-51.17
37.437,-32.53
37.453,-14.27
37.468,0.51
37.484,8.78
37.500,9.08
37.515,2.43
37.531,-7.84
37.546,-17.62
37.562,-24.23
37.578,-27.66
37.593,-30.46
37.609,-36.03
37.625,-46.44
37.640,-60.79
37.656,-75.59
37.671,-86.45
37.687,-90.34
37.703,-86.79
37.718,-77.46
37.734,-64.52
37.750,-48.88
37.765,-29.68
37.781,-5.15
37.796,25.5
37.812,60.72
37.828,96.51
37.843,127.36
37.859,148.27
37.875,156.6
37.890,152.85
37.906,140.12
37.921,122.62
37.937,104.26
37.953,87.98
37.968,75.61
37.984,67.87
38.000,64.19
38.015,62.28
38.031,58.0
38.046,46.05
38.062,21.5
38.078,-17.86
38.093,-69.86
38.109,-127.89
38.125,-182.85
38.140,-226.35
38.156,-253.49
38.171,-264.01
38.187,-261.64
38.203,-251.82
38.218,-239.48
38.234,-227.77
38.250,-218.04
38.265,-210.17
38.281,-203.36
38.296,-196.74
38.312,-189.59
38.328,-181.65
38.343,-173.43
38.359,-166.24
38.375,-161.63
38.390,-160.71
38.406,-163.22
38.421,-167.6
38.437,-171.69
38.453,-173.78
38.468,-173.11
38.484,-169.49
38.500,-162.64
38.515,-151.6
38.531,-135.05
38.546,-112.12
38.562,-83.53
38.578,-51.82
38.593,-20.65
38.609,6.46
38.625,27.35
38.640,41.71
38.656,50.97
38.671,57.69
38.687,64.74
38.703,74.49
38.718,88.21
38.734,105.63
38.750,125.04
38.765,144.06
38.781,160.45
38.796,173.17
38.812,182.71
38.828,190.78
38.843,199.65
38.859,211.54
38.875,228.27
38.890,250.83
38.906,278.59
38.921,308.41
38.937,334.06
38.953,347.2
38.968,339.73
38.984,307.49
39.000,253.05
39.015,186.12
39.031,120.92
39.046,71.29
39.062,45.9
39.078,45.88
39.093,65.86
39.109,97.31
39.125,132.38
39.140,166.03
39.156,195.74
39.171,219.62
39.187,234.59
39.203,235.96
39.218,219.27
39.234,183.42
39.250,132.71
39.265,77.03
39.281,28.81
39.296,-1.48
39.312,-8.96
39.328,4.72
39.343,33.56
39.359,70.86
39.375,111.92
39.390,154.1
39.406,194.95
39.421,229.9
39.437,252.06
39.453,254.46
39.468,233.44
39.484,190.87
39.500,133.9
39.515,72.42
39.531,15.64
39.546,-30.08
39.562,-62.0
39.578,-80.37
39.593,-87.03
39.609,-84.34
39.625,-74.62
39.640,-59.8
39.656,-41.39
39.671,-20.64
39.687,1.51
39.703,24.34
39.718,47.11
39.734,69.22
39.750,89.87
39.765,107.74
39.781,120.75
39.796,126.11
39.812,120.89
39.828,103.17
39.843,72.93
39.859,32.39
39.875,-14.48
39.890,-62.98
39.906,-108.54
39.921,-147.42
39.937,-177.04
39.953,-196.13
39.968,-204.66
39.984,-203.78
40.000,-195.58
40.015,-182.69
40.031,-167.8
40.046,-153.22
40.062,-140.28
40.078,-129.14
40.093,-119.0
40.109,-108.57
40.125,-96.72
40.140,-83.29
40.156,-69.1
40.171,-55.07
40.187,-41.42
40.203,-27.05
40.218,-10.31
40.234,9.18
40.250,28.84
40.265,42.84
40.281,44.11
40.296,27.71
40.312,-6.0
40.328,-50.83
40.343,-96.78
40.359,-134.24
40.375,-157.62
40.390,-166.68
40.406,-165.19
40.421,-157.84
40.437,-147.61
40.453,-134.81
40.468,-118.31
40.484,-97.34
40.500,-72.96
40.515,-47.93
40.531,-25.46
40.546,-7.86
40.562,4.35
40.578,12.2
40.593,17.23
40.609,20.34
40.625,21.38
40.640,19.48
40.656,13.71
40.671,4.17
40.687,-7.79
40.703,-19.92
40.718,-29.98
40.734,-36.64
40.750,-39.89
40.765,-40.83
40.781,-41.02
40.796,-41.77
40.812,-43.7
40.828,-46.83
40.843,-50.66
40.859,-54.28
40.875,-56.23
40.890,-54.42
40.906,-46.66
40.921,-31.68
40.937,-10.24
40.953,14.64
40.968,38.6
40.984,57.85
41.000,70.69
41.015,77.85
41.031,81.02
41.046,80.74
41.062,75.08
41.078,60.3
41.093,33.36
41.109,-5.42
41.125,-51.31
41.140,-96.68
41.156,-134.37
41.171,-160.8
41.187,-177.04
41.203,-187.3
41.218,-195.95
41.234,-204.92
41.250,-212.87
41.265,-216.48
41.281,-212.72
41.296,-200.77
41.312,-182.47
41.328,-161.15
41.343,-139.67
41.359,-118.71
41.375,-96.48
41.390,-70.03
41.406,-37.53
41.421,-0.47
41.437,35.84
41.453,63.75
41.468,76.41
41.484,70.82
41.500,49.43
41.515,19.14
41.531,-11.59
41.546,-36.08
41.562,-51.66
41.578,-59.67
41.593,-63.68
41.609,-67.06
41.625,-71.43
41.640,-76.23
41.656,-79.78
41.671,-80.47
41.687,-77.58
41.703,-71.41
41.718,-62.74
41.734,-52.34
41.750,-40.58
41.765,-27.63
41.781,-13.67
41.796,0.9
41.812,15.37
41.828,29.04
41.843,41.41
41.859,52.2
41.875,61.17
41.890,68.02
41.906,72.4
41.921,74.3
41.937,74.35
41.953,74.0
41.968,75.0
41.984,78.51
42.000,84.31
42.015,90.63
42.031,95.01
42.046,95.59
42.062,92.4
42.078,87.66
42.093,85.01
42.109,88.17
42.125,99.54
42.140,119.85
42.156,148.19
42.171,182.22
42.187,218.07
42.203,250.09
42.218,271.02
42.234,273.42
42.250,252.04
42.265,206.3
42.281,141.52
42.296,67.92
42.312,-2.56
42.328,-60.15
42.343,-100.11
42.359,-123.34
42.375,-134.64
42.390,-139.81
42.406,-143.05
42.421,-145.73
42.437,-146.82
42.453,-144.24
42.468,-136.29
42.484,-122.29
42.500,-102.77
42.515,-79.04
42.531,-52.53
42.546,-24.64
42.562,3.25
42.578,29.77
42.593,53.42
42.609,72.82
42.625,86.89
42.640,95.14
42.656,97.78
42.671,95.75
42.687,90.47
42.703,83.42
42.718,75.69
42.734,67.48
42.750,57.97
42.765,45.73
42.781,29.42
42.796,8.73
42.812,-15.05
42.828,-39.13
42.843,-59.97
42.859,-74.4
42.875,-80.67
42.890,-78.9
42.906,-70.79
42.921,-58.9
42.937,-45.72
42.953,-33.07
42.968,-22.13
42.984,-13.57
43.000,-7.75
43.015,-4.89
43.031,-4.83
43.046,-6.99
43.062,-10.43
43.078,-14.23
43.093,-17.71
43.109,-20.76
43.125,-23.57
43.140,-26.32
43.156,-28.91
43.171,-30.87
43.187,-31.61
43.203,-30.79
43.218,-28.48
43.234,-25.08
43.250,-20.93
43.265,-16.08
43.281,-10.17
43.296,-2.74
43.312,6.43
43.328,17.16
43.343,28.82
43.359,40.66
43.375,52.05
43.390,62.47
43.406,71.39
43.421,78.08
43.437,81.53
43.453,80.8
43.468,75.43
43.484,65.87
43.500,53.57
43.515,40.67
43.531,29.31
43.546,21.04
43.562,16.47
43.578,15.3
43.593,16.82
43.609,20.39
43.625,25.75
43.640,33.05
43.656,42.53
43.671,54.11
43.687,67.23
43.703,80.96
43.718,94.34
43.734,106.72
43.750,117.89
43.765,127.83
43.781,136.33
43.796,142.62
43.812,145.48
43.828,143.56
43.843,135.99
43.859,122.98
43.875,105.77
43.890,86.41
43.906,67.02
43.921,49.19
43.937,33.58
43.953,19.88
43.968,7.1
43.984,-6.07
44.000,-20.72
44.015,-37.28
44.031,-55.21
44.046,-73.0
44.062,-88.54
44.078,-99.7
44.093,-105.04
44.109,-104.23
44.125,-98.13
44.140,-88.39
44.156,-76.96
44.171,-65.54
44.187,-55.28
44.203,-46.66
44.218,-39.54
44.234,-33.37
44.250,-27.42
44.265,-21.1
44.281,-14.21
44.296,-7.24
44.312,-1.32
44.328,1.96
44.343,0.89
44.359,-5.85
44.375,-18.63
44.390,-36.52
44.406,-57.05
44.421,-76.43
44.437,-90.28
44.453,-94.73
44.468,-87.59
44.484,-69.11
44.500,-41.96
44.515,-10.5
44.531,20.49
44.546,47.0
44.562,66.61
44.578,78.54
44.593,83.45
44.609,82.78
44.625,78.4
44.640,72.24
44.656,66.13
44.671,61.27
44.687,57.91
44.703,55.1
44.718,51.07
44.734,43.87
44.750,32.44
44.765,17.01
44.781,-0.74
44.796,-18.31
44.812,-33.33
44.828,-44.1
44.843,-49.91
44.859,-50.76
44.875,-47.04
44.890,-39.28
44.906,-28.19
44.921,-14.82
44.937,-0.67
44.953,12.44
44.968,22.8
44.984,29.29
45.000,31.79
45.015,31.22
45.031,29.27
45.046,27.71
45.062,27.79
45.078,29.75
45.093,32.91
45.109,36.26
45.125,38.96
45.140,40.93
45.156,42.75
45.171,45.34
45.187,49.49
45.203,55.57
45.218,63.48
45.234,72.78
45.250,82.91
45.265,93.11
45.281,102.5
45.296,110.07
45.312,114.97
45.328,116.78
45.343,115.76
45.359,112.76
45.375,108.81
45.390,104.6
45.406,100.03
45.421,94.22
45.437,85.85
45.453,73.92
45.468,58.27
45.484,39.87
45.500,20.39
45.515,1.5
45.531,-15.91
45.546,-32.04
45.562,-47.99
45.578,-64.99
45.593,-83.59
45.609,-103.05
45.625,-121.43
45.640,-136.24
45.656,-145.36
45.671,-147.79
45.687,-143.96
45.703,-135.43
45.718,-124.41
45.734,-113.08
45.750,-103.06
45.765,-95.08
45.781,-89.11
45.796,-84.66
45.812,-81.2
45.828,-78.55
45.843,-76.95
45.859,-76.85
45.875,-78.5
45.890,-81.76
45.906,-85.94
45.921,-90.07
45.937,-93.23
45.953,-94.81
45.968,-94.61
45.984,-92.74
46.000,-89.38
46.015,-84.61
46.031,-78.44
46.046,-70.82
46.062,-61.87
46.078,-51.88
46.093,-41.42
46.109,-31.22
46.125,-22.09
46.140,-14.74
46.156,-9.59
46.171,-6.66
46.187,-5.61
46.203,-5.82
46.218,-6.62
46.234,-7.33
46.250,-7.51
46.265,-6.84
46.281,-5.21
46.296,-2.69
46.312,0.6
46.328,4.56
46.343,9.02
46.359,13.7
46.375,18.3
46.390,22.29
46.406,25.25
46.421,26.98
46.437,27.77
46.453,28.42
46.468,29.97
46.484,33.31
46.500,38.72
46.515,45.69
46.531,53.11
46.546,59.68
46.562,64.46
46.578,67.05
46.593,67.61
46.609,66.61
46.625,64.48
46.640,61.53
46.656,57.92
46.671,53.87
46.687,49.75
46.703,45.98
46.718,42.88
46.734,40.46
46.750,38.4
46.765,36.16
46.781,33.29
46.796,29.7
46.812,25.76
46.828,22.26
46.843,20.08
46.859,19.88
46.875,21.84
46.890,25.63
46.906,30.53
46.921,35.66
46.937,40.25
46.953,43.71
46.968,45.75
46.984,46.27
47.000,45.29
47.015,42.95
47.031,39.44
47.046,34.95
47.062,29.82
47.078,24.52
47.093,19.64
47.109,15.92
47.125,13.87
47.140,13.61
47.156,14.76
47.171,16.55
47.187,18.11
47.203,18.98
47.218,19.51
47.234,20.74
47.250,24.12
47.265,30.93
47.281,41.66
47.296,55.67
47.312,71.49
47.328,87.38
47.343,101.96
47.359,114.4
47.375,124.3
47.390,131.84
47.406,137.62
47.421,142.92
47.437,149.69
47.453,160.17
47.468,176.09
47.484,197.26
47.500,220.85
47.515,241.8
47.531,254.85
47.546,257.12
47.562,249.78
47.578,237.67
47.593,226.83
47.609,221.44
47.625,221.89
47.640,225.12
47.656,226.82
47.671,223.78
47.687,215.13
47.703,201.92
47.718,185.72
47.734,167.2
47.750,146.01
47.765,121.72
47.781,94.91
47.796,67.44
47.812,41.53
47.828,18.39
47.843,-2.51
47.859,-23.17
47.875,-46.0
47.890,-72.4
47.906,-102.21
47.921,-133.7
47.937,-164.38
47.953,-192.13
47.968,-215.83
47.984,-235.9
48.000,-254.13
48.015,-273.41
48.031,-296.96
48.046,-327.14
48.062,-363.94
48.078,-403.95
48.093,-440.38
48.109,-464.77
48.125,-470.08
48.140,-453.6
48.156,-418.28
48.171,-371.72
48.187,-322.98
48.203,-279.16
48.218,-243.1
48.234,-213.54
48.250,-187.11
48.265,-160.73
48.281,-133.02
48.296,-104.2
48.312,-75.01
48.328,-45.81
48.343,-16.56
48.359,12.35
48.375,39.44
48.390,62.28
48.406,78.52
48.421,87.28
48.437,89.86
48.453,89.35
48.468,89.22
48.484,91.74
48.500,96.97
48.515,102.89
48.531,106.51
48.546,105.06
48.562,97.08
48.578,82.67
48.593,63.27
48.609,41.33
48.625,19.81
48.640,1.64
48.656,-10.81
48.671,-16.38
48.687,-15.37
48.703,-9.46
48.718,-1.17
48.734,7.01
48.750,13.19
48.765,16.42
48.781,16.59
48.796,14.15
48.812,9.79
48.828,4.36
48.843,-1.14
48.859,-5.62
48.875,-8.16
48.890,-8.17
48.906,-5.55
48.921,-0.61
48.937,6.11
48.953,13.98
48.968,22.3
48.984,30.27
49.000,37.08
49.015,42.04
49.031,44.87
49.046,45.79
49.062,45.48
49.078,44.68
49.093,43.86
49.109,43.05
49.125,42.02
49.140,40.59
49.156,38.88
49.171,37.3
49.187,36.21
49.203,35.64
49.218,35.22
49.234,34.3
49.250,32.34
49.265,29.11
49.281,24.78
49.296,19.81
49.312,14.69
49.328,9.83
49.343,5.56
49.359,2.28
49.375,0.4
49.390,0.2
49.406,1.56
49.421,3.92
49.437,6.5
49.453,8.69
49.468,10.46
49.484,12.4
49.500,15.46
49.515,20.34
49.531,27.04
49.546,34.69
49.562,41.87
49.578,47.18
49.593,49.89
49.609,50.04
49.625,48.37
49.640,45.81
49.656,42.96
49.671,39.83
49.687,36.03
49.703,31.17
49.718,25.37
49.734,19.43
49.750,14.6
49.765,11.92
49.781,11.53
49.796,12.34
49.812,12.38
49.828,9.55
49.843,2.53
49.859,-8.65
49.875,-22.7
49.890,-37.46
49.906,-50.62
49.921,-60.38
49.937,-65.63
49.953,-66.15
49.968,-62.51
49.984,-55.94
50.000,-48.0
50.015,-40.18
50.031,-33.37
50.046,-27.51
50.062,-21.67
50.078,-14.5
50.093,-4.79
50.109,7.78
50.125,22.54
50.140,37.91
50.156,51.97
50.171,63.06
50.187,70.35
50.203,73.91
50.218,74.66
50.234,74.11
50.250,73.84
50.265,75.27
50.281,79.18
50.296,85.29
50.312,92.11
50.328,97.0
50.343,97.1
50.359,90.43
50.375,76.99
50.390,58.9
50.406,39.54
50.421,22.02
50.437,7.75
50.453,-3.82
50.468,-14.44
50.484,-25.44
50.500,-36.6
50.515,-45.92
50.531,-50.69
50.546,-48.93
50.562,-40.53
50.578,-27.21
50.593,-11.64
50.609,3.68
50.625,17.31
50.640,28.73
50.656,37.83
50.671,44.3
50.687,47.6
50.703,47.24
50.718,43.36
50.734,36.98
50.750,29.6
50.765,22.69
50.781,17.05
50.796,12.83
50.812,9.89
50.828,8.26
50.843,8.19
50.859,9.66
50.875,11.81
50.890,12.74
50.906,10.21
50.921,2.72
50.937,-9.68
50.953,-25.33
50.968,-41.93
50.984,-57.7
51.000,-71.96
51.015,-84.86
51.031,-96.55
51.046,-106.47
51.062,-113.39
51.078,-116.02
51.093,-113.93
51.109,-107.92
51.125,-99.76
51.140,-91.6
51.156,-85.24
51.171,-81.84
51.187,-81.9
51.203,-85.24
51.218,-91.0
51.234,-97.66
51.250,-103.33
51.265,-106.12
51.281,-104.75
51.296,-98.89
51.312,-89.23
51.328,-77.1
51.343,-64.04
51.359,-51.32
51.375,-39.74
51.390,-29.57
51.406,-20.64
51.421,-12.59
51.437,-4.93
51.453,2.76
51.468,10.72
51.484,18.94
51.500,27.16
51.515,34.92
51.531,41.8
51.546,47.38
51.562,51.41
51.578,53.65
51.593,53.8
51.609,51.54
51.625,46.64
51.640,39.11
51.656,29.36
51.671,18.27
51.687,6.93
51.703,-3.62
51.718,-12.64
51.734,-19.87
51.750,-25.45
51.765,-29.65
51.781,-32.76
51.796,-34.96
51.812,-36.34
51.828,-37.03
51.843,-37.31
51.859,-37.59
51.875,-38.26
51.890,-39.54
51.906,-41.32
51.921,-43.21
51.937,-44.63
51.953,-45.13
51.968,-44.52
51.984,-42.96
52.000,-40.89
52.015,-38.85
52.031,-37.16
52.046,-35.82
52.062,-34.48
52.078,-32.65
52.093,-29.88
52.109,-26.0
52.125,-21.15
52.140,-15.71
52.156,-10.13
52.171,-4.72
52.187,0.31
52.203,4.85
52.218,8.77
52.234,11.85
52.250,13.87
52.265,14.75
52.281,14.69
52.296,14.07
52.312,13.36
52.328,12.87
52.343,12.61
52.359,12.3
52.375,11.47
52.390,9.69
52.406,6.7
52.421,2.54
52.437,-2.47
52.453,-7.77
52.468,-12.64
52.484,-16.25
52.500,-17.91
52.515,-17.25
52.531,-14.4
52.546,-9.9
52.562,-4.59
52.578,0.66
52.593,5.15
52.609,8.43
52.625,10.28
52.640,10.66
52.656,9.72
52.671,7.78
52.687,5.38
52.703,3.22
52.718,1.94
52.734,1.96
52.750,3.3
52.765,5.65
52.781,8.49
52.796,11.24
52.812,13.34
52.828,14.36
52.843,13.98
52.859,12.31
52.875,9.84
52.890,7.5
52.906,6.35
52.921,7.18
52.937,10.15
52.953,14.76
52.968,20.0
52.984,24.83
53.000,28.52
53.015,30.81
53.031,31.78
53.046,31.62
53.062,30.56
53.078,28.93
53.093,27.29
53.109,26.44
53.125,27.19
53.140,29.89
53.156,34.07
53.171,38.38
53.187,40.92
53.203,40.0
53.218,34.93
53.234,26.31
53.250,16.09
53.265,6.88
53.281,1.17
53.296,0.57
53.312,5.32
53.328,14.37
53.343,25.77
53.359,37.29
53.375,46.93
53.390,53.31
53.406,55.73
53.421,54.19
53.437,49.29
53.453,42.1
53.468,34.11
53.484,27.11
53.500,22.92
53.515,22.89
53.531,27.34
53.546,35.1
53.562,43.81
53.578,50.63
53.593,53.31
53.609,51.14
53.625,45.04
53.640,36.8
53.656,28.05
53.671,19.45
53.687,10.53
53.703,0.51
53.718,-10.74
53.734,-22.11
53.750,-31.49
53.765,-36.71
53.781,-36.67
53.796,-31.84
53.812,-23.95
53.828,-15.17
53.843,-7.15
53.859,-0.51
53.875,5.05
53.890,10.39
53.906,16.25
53.921,22.91
53.937,30.1
53.953,37.26
53.968,43.84
53.984,49.44
54.000,53.94
54.015,57.16
54.031,58.89
54.046,58.77
54.062,56.62
54.078,52.66
54.093,47.7
54.109,42.81
54.125,39.05
54.140,36.96
54.156,36.25
54.171,36.06
54.187,35.31
54.203,33.2
54.218,29.46
54.234,24.41
54.250,18.61
54.265,12.69
54.281,7.2
54.296,2.5
54.312,-1.09
54.328,-3.38
54.343,-4.27
54.359,-3.66
54.375,-1.44
54.390,2.62
54.406,8.67
54.421,16.68
54.437,26.18
54.453,36.33
54.468,46.21
54.484,55.11
54.500,63.03
54.515,70.79
54.531,79.91
54.546,91.97
54.562,107.94
54.578,127.57
54.593,149.42
54.609,171.07
54.625,189.96
54.640,204.05
54.656,212.43
54.671,215.46
54.687,214.78
54.703,212.96
54.718,212.88
54.734,217.06
54.750,226.46
54.765,240.0
54.781,254.34
54.796,264.96
54.812,267.57
54.828,259.77
54.843,241.89
54.859,216.54
54.875,187.35
54.890,157.47
54.906,128.75
54.921,101.71
54.937,76.26
54.953,52.35
54.968,30.18
54.984,9.84
55.000,-9.24
55.015,-28.6
55.031,-50.35
55.046,-76.13
55.062,-106.17
55.078,-138.82
55.093,-171.05
55.109,-199.52
55.125,-222.03
55.140,-238.26
55.156,-249.68
55.171,-258.81
55.187,-268.27
55.203,-280.03
55.218,-295.1
55.234,-313.38
55.250,-333.58
55.265,-353.15
55.281,-368.82
55.296,-377.23
55.312,-376.13
55.328,-365.02
55.343,-345.22
55.359,-319.29
55.375,-290.08
55.390,-260.12
55.406,-231.68
55.421,-207.26
55.437,-189.61
55.453,-181.19
55.468,-183.08
55.484,-194.51
55.500,-212.9
55.515,-234.69
55.531,-256.26
55.546,-274.22
55.562,-285.47
55.578,-287.16
55.593,-277.28
55.609,-255.6
55.625,-224.52
55.640,-188.79
55.656,-154.13
55.671,-125.22
55.687,-104.05
55.703,-89.67
55.718,-79.17
55.734,-69.49
55.750,-58.75
55.765,-46.64
55.781,-33.88
55.796,-21.3
55.812,-9.57
55.828,0.99
55.843,10.08
55.859,17.32
55.875,22.38
55.890,25.3
55.906,26.85
55.921,28.44
55.937,31.6
55.953,37.18
55.968,44.65
55.984,51.88
56.000,55.6
56.015,52.41
56.031,40.03
56.046,18.21
56.062,-11.0
56.078,-43.73
56.093,-75.3
56.109,-101.35
56.125,-118.81
56.140,-126.44
56.156,-124.76
56.171,-115.61
56.187,-101.54
56.203,-85.12
56.218,-68.56
56.234,-53.51
56.250,-41.0
56.265,-31.6
56.281,-25.39
56.296,-22.0
56.312,-20.67
56.328,-20.41
56.343,-20.19
56.359,-19.32
56.375,-17.55
56.390,-15.13
56.406,-12.6
56.421,-10.49
56.437,-9.13
56.453,-8.47
56.468,-8.2
56.484,-7.86
56.500,-6.89
56.515,-4.82
56.531,-1.3
56.546,3.84
56.562,10.58
56.578,18.65
56.593,27.53
56.609,36.53
56.625,44.83
56.640,51.63
56.656,56.24
56.671,58.27
56.687,57.65
56.703,54.71
56.718,50.03
56.734,44.4
56.750,38.64
56.765,33.37
56.781,28.94
56.796,25.41
56.812,22.57
56.828,20.0
56.843,17.29
56.859,14.08
56.875,10.28
56.890,6.15
56.906,2.35
56.921,-0.17
56.937,-0.46
56.953,2.15
56.968,7.75
56.984,15.85
57.000,25.43
57.015,35.26
57.031,44.16
57.046,51.25
57.062,55.94
57.078,57.98
57.093,57.4
57.109,54.54
57.125,50.09
57.140,44.96
57.156,40.14
57.171,36.44
57.187,34.29
57.203,33.6
57.218,33.86
57.234,34.25
57.250,33.99
57.265,32.57
57.281,29.97
57.296,26.88
57.312,24.64
57.328,24.96
57.343,29.47
57.359,39.1
57.375,53.7
57.390,71.88
57.406,91.51
57.421,110.32
57.437,126.59
57.453,139.49
57.468,149.11
57.484,156.06
57.500,161.17
57.515,165.18
57.531,168.71
57.546,172.43
57.562,177.15
57.578,183.89
57.593,193.48
57.609,206.17
57.625,221.13
57.640,236.25
57.656,248.49
57.671,254.62
57.687,252.24
57.703,240.56
57.718,220.64
57.734,194.94
57.750,166.58
57.765,138.5
57.781,113.08
57.796,92.05
57.812,76.63
57.828,67.62
57.843,65.37
57.859,69.7
57.875,80.02
57.890,95.59
57.906,115.71
57.921,139.74
57.937,166.69
57.953,194.53
57.968,219.94
57.984,238.66
58.000,246.6
58.015,241.2
58.031,222.38
58.046,192.5
58.062,155.45
58.078,115.3
58.093,75.19
58.109,36.94
58.125,1.24
58.140,-31.76
58.156,-62.14
58.171,-90.08
58.187,-116.16
58.203,-141.36
58.218,-166.96
58.234,-194.27
58.250,-224.44
58.265,-258.37
58.281,-296.45
58.296,-338.02
58.312,-380.86
58.328,-420.89
58.343,-452.64
58.359,-470.62
58.375,-471.04
58.390,-453.06
58.406,-419.2
58.421,-374.45
58.437,-324.72
58.453,-275.3
58.468,-229.97
58.484,-190.83
58.500,-158.55
58.515,-132.69
58.531,-111.8
58.546,-93.47
58.562,-74.7
58.578,-52.79
58.593,-26.7
58.609,1.62
58.625,26.86
58.640,41.53
58.656,38.55
58.671,14.55
58.687,-28.23
58.703,-82.13
58.718,-136.82
58.734,-183.11
58.750,-216.02
58.765,-235.47
58.781,-244.8
58.796,-247.86
58.812,-246.88
58.828,-241.91
58.843,-231.9
58.859,-216.43
58.875,-196.87
58.890,-176.12
58.906,-157.38
58.921,-142.68
58.937,-131.91
58.953,-122.85
58.968,-112.23
58.984,-97.16
59.000,-76.27
59.015,-50.22
59.031,-21.18
59.046,8.42
59.062,37.06
59.078,64.96
59.093,93.7
59.109,124.84
59.125,158.46
59.140,192.12
59.156,221.37
59.171,241.32
59.187,248.77
59.203,243.54
59.218,228.48
59.234,208.2
59.250,187.02
59.265,167.58
59.281,150.25
59.296,133.96
59.312,117.35
59.328,99.77
59.343,81.47
59.359,63.16
59.375,45.4
59.390,28.21
59.406,11.37
59.421,-5.04
59.437,-20.24
59.453,-32.76
59.468,-40.8
59.484,-43.02
59.500,-39.2
59.515,-30.57
59.531,-19.53
59.546,-9.01
59.562,-1.59
59.578,1.24
59.593,-0.6
59.609,-5.9
59.625,-12.69
59.640,-18.95
59.656,-23.09
59.671,-24.2
59.687,-22.04
59.703,-16.82
59.718,-8.97
59.734,0.93
59.750,12.04
59.765,23.13
59.781,32.61
59.796,38.89
59.812,40.88
59.828,38.56
59.843,33.08
59.859,26.48
59.875,21.1
59.890,18.75
59.906,20.26
59.921,25.39
59.937,33.1
59.953,41.96
59.968,50.47
59.984,57.2
