timestamp,value
00.000,-157.32
00.015,-162.5
00.031,-165.56
00.046,-166.97
00.062,-166.12
00.078,-161.43
00.093,-151.26
00.109,-135.27
00.125,-115.19
00.140,-94.5
00.156,-77.01
00.171,-65.29
00.187,-59.48
00.203,-57.5
00.218,-55.84
00.234,-50.71
00.250,-38.98
00.265,-18.69
00.281,10.31
00.296,45.84
00.312,83.04
00.328,114.93
00.343,133.85
00.359,133.58
00.375,111.12
00.390,67.49
00.406,7.49
00.421,-61.49
00.437,-130.83
00.453,-191.93
00.468,-237.48
00.484,-262.64
00.500,-266.15
00.515,-250.8
00.531,-222.81
00.546,-189.96
00.562,-159.21
00.578,-134.83
00.593,-117.97
00.609,-107.42
00.625,-100.95
00.640,-96.31
00.656,-91.42
00.671,-84.12
00.687,-72.25
00.703,-54.22
00.718,-30.16
00.734,-2.4
00.750,24.81
00.765,46.7
00.781,59.87
00.796,63.77
00.812,60.86
00.828,55.59
00.843,52.45
00.859,54.28
00.875,61.33
00.890,71.55
00.906,81.83
00.921,89.43
00.937,93.27
00.953,94.54
00.968,96.49
00.984,103.39
01.000,119.0
01.015,144.85
01.031,179.06
01.046,216.27
01.062,248.69
01.078,268.44
01.093,270.2
01.109,252.99
01.125,220.31
01.140,178.5
01.156,134.09
01.171,91.61
01.187,53.02
01.203,18.77
01.218,-10.54
01.234,-33.19
01.250,-46.79
01.265,-49.89
01.281,-43.41
01.296,-30.86
01.312,-17.03
01.328,-5.7
01.343,1.81
01.359,6.77
01.375,11.51
01.390,17.52
01.406,24.26
01.421,29.49
01.437,30.68
01.453,26.75
01.468,18.93
01.484,10.5
01.500,5.34
01.515,6.43
01.531,14.72
01.546,28.93
01.562,46.23
01.578,63.18
01.593,76.63
01.609,84.2
01.625,84.47
01.640,76.99
01.656,62.43
01.671,42.41
01.687,19.24
01.703,-4.58
01.718,-27.04
01.734,-47.14
01.750,-64.91
01.765,-80.91
01.781,-95.48
01.796,-108.17
01.812,-117.97
01.828,-123.92
01.843,-125.93
01.859,-125.17
01.875,-123.66
01.890,-123.48
01.906,-126.07
01.921,-131.93
01.937,-140.61
01.953,-151.18
01.968,-162.5
01.984,-173.5
02.000,-183.63
02.015,-193.11
02.031,-202.91
02.046,-214.27
02.062,-227.62
02.078,-241.62
02.093,-252.92
02.109,-257.09
02.125,-250.44
02.140,-231.98
02.156,-203.92
02.171,-170.83
02.187,-137.64
02.203,-107.56
02.218,-81.23
02.234,-57.16
02.250,-33.04
02.265,-6.89
02.281,22.29
02.296,54.54
02.312,89.09
02.328,124.39
02.343,158.07
02.359,186.85
02.375,207.15
02.390,216.19
02.406,213.17
02.421,200.05
02.437,181.4
02.453,163.15
02.468,150.71
02.484,147.13
02.500,152.3
02.515,163.15
02.531,175.26
02.546,184.63
02.562,189.21
02.578,189.26
02.593,186.59
02.609,183.2
02.625,180.03
02.640,176.57
02.656,171.45
02.671,163.48
02.687,152.51
02.703,139.56
02.718,126.16
02.734,113.49
02.750,101.8
02.765,90.49
02.781,78.85
02.796,66.7
02.812,54.58
02.828,43.31
02.843,33.37
02.859,24.21
02.875,14.46
02.890,2.75
02.906,-11.31
02.921,-26.41
02.937,-39.94
02.953,-49.15
02.968,-52.54
02.984,-50.61
03.000,-45.59
03.015,-40.32
03.031,-36.95
03.046,-36.19
03.062,-37.44
03.078,-39.41
03.093,-40.88
03.109,-40.92
03.125,-38.93
03.140,-34.47
03.156,-27.36
03.171,-18.0
03.187,-7.55
03.203,2.26
03.218,9.72
03.234,13.78
03.250,14.4
03.265,12.14
03.281,7.93
03.296,2.65
03.312,-2.91
03.328,-7.82
03.343,-10.92
03.359,-11.13
03.375,-8.02
03.390,-2.16
03.406,4.85
03.421,10.9
03.437,14.29
03.453,14.55
03.468,12.72
03.484,11.17
03.500,12.87
03.515,20.38
03.531,35.02
03.546,56.27
03.562,82.11
03.578,109.81
03.593,136.9
03.609,162.14
03.625,185.7
03.640,208.55
03.656,231.55
03.671,254.65
03.687,276.78
03.703,296.45
03.718,312.35
03.734,323.91
03.750,331.05
03.765,333.75
03.781,331.72
03.796,324.46
03.812,311.67
03.828,293.58
03.843,270.95
03.859,244.52
03.875,214.52
03.890,180.67
03.906,142.91
03.921,102.53
03.937,62.87
03.953,29.15
03.968,6.93
03.984,-0.05
04.000,8.31
04.015,27.85
04.031,51.36
04.046,70.87
04.062,80.4
04.078,77.54
04.093,63.65
04.109,42.42
04.125,17.98
04.140,-6.65
04.156,-30.21
04.171,-52.77
04.187,-75.06
04.203,-97.67
04.218,-120.75
04.234,-143.82
04.250,-165.84
04.265,-185.3
04.281,-200.42
04.296,-209.64
04.312,-212.05
04.328,-208.0
04.343,-198.95
04.359,-187.11
04.375,-174.65
04.390,-163.1
04.406,-153.16
04.421,-145.02
04.437,-138.76
04.453,-134.6
04.468,-132.83
04.484,-133.42
04.500,-135.84
04.515,-139.09
04.531,-142.13
04.546,-144.18
04.562,-144.89
04.578,-144.36
04.593,-142.99
04.609,-141.3
04.625,-139.95
04.640,-139.81
04.656,-141.83
04.671,-146.8
04.687,-154.95
04.703,-165.66
04.718,-177.5
04.734,-188.54
04.750,-196.99
04.765,-201.82
04.781,-203.07
04.796,-201.7
04.812,-199.02
04.828,-195.92
04.843,-192.42
04.859,-187.59
04.875,-180.27
04.890,-169.9
04.906,-157.15
04.921,-143.94
04.937,-132.68
04.953,-124.93
04.968,-120.61
04.984,-117.6
05.000,-112.73
05.015,-102.96
05.031,-86.83
05.046,-65.07
05.062,-40.25
05.078,-15.8
05.093,5.37
05.109,21.67
05.125,33.11
05.140,40.63
05.156,45.32
05.171,47.91
05.187,48.68
05.203,48.05
05.218,47.1
05.234,47.69
05.250,51.96
05.265,61.39
05.281,75.89
05.296,93.67
05.312,111.82
05.328,127.41
05.343,138.55
05.359,144.86
05.375,147.37
05.390,147.69
05.406,147.38
05.421,147.47
05.437,148.32
05.453,149.88
05.468,151.8
05.484,153.52
05.500,154.31
05.515,153.42
05.531,150.38
05.546,145.27
05.562,138.84
05.578,132.1
05.593,125.93
05.609,120.59
05.625,115.69
05.640,110.36
05.656,103.61
05.671,94.6
05.687,82.54
05.703,66.52
05.718,45.29
05.734,17.47
05.750,-18.05
05.765,-61.27
05.781,-110.53
05.796,-162.44
05.812,-212.48
05.828,-256.27
05.843,-290.84
05.859,-315.52
05.875,-331.74
05.890,-342.07
05.906,-348.8
05.921,-352.98
05.937,-354.08
05.953,-350.73
05.968,-341.49
05.984,-325.37
06.000,-301.79
06.015,-270.31
06.031,-230.85
06.046,-184.57
06.062,-134.77
06.078,-86.86
06.093,-47.07
06.109,-19.96
06.125,-6.75
06.140,-5.15
06.156,-11.05
06.171,-21.0
06.187,-33.66
06.203,-49.49
06.218,-68.85
06.234,-90.17
06.250,-109.61
06.265,-122.62
06.281,-126.14
06.296,-120.27
06.312,-107.96
06.328,-93.2
06.343,-79.01
06.359,-66.53
06.375,-55.58
06.390,-45.71
06.406,-37.1
06.421,-30.44
06.437,-26.23
06.453,-24.16
06.468,-23.18
06.484,-22.07
06.500,-20.17
06.515,-17.74
06.531,-15.91
06.546,-16.23
06.562,-20.31
06.578,-29.52
06.593,-44.82
06.609,-66.44
06.625,-93.5
06.640,-123.82
06.656,-154.16
06.671,-180.82
06.687,-200.49
06.703,-211.01
06.718,-211.72
06.734,-203.39
06.750,-187.88
06.765,-167.63
06.781,-145.15
06.796,-122.57
06.812,-101.32
06.828,-82.14
06.843,-65.1
06.859,-49.98
06.875,-36.43
06.890,-24.14
06.906,-12.85
06.921,-2.34
06.937,7.61
06.953,17.15
06.968,26.38
06.984,35.36
07.000,44.16
07.015,52.86
07.031,61.51
07.046,70.16
07.062,78.75
07.078,87.09
07.093,95.02
07.109,102.43
07.125,109.39
07.140,116.1
07.156,122.84
07.171,129.77
07.187,136.9
07.203,144.0
07.218,150.86
07.234,157.36
07.250,163.65
07.265,170.1
07.281,177.17
07.296,185.35
07.312,195.15
07.328,207.17
07.343,222.11
07.359,240.36
07.375,261.45
07.390,283.62
07.406,303.95
07.421,319.05
07.437,326.18
07.453,324.14
07.468,313.42
07.484,295.76
07.500,273.31
07.515,247.95
07.531,221.22
07.546,194.49
07.562,169.24
07.578,147.13
07.593,129.53
07.609,117.15
07.625,109.85
07.640,106.89
07.656,107.4
07.671,110.8
07.687,117.04
07.703,126.27
07.718,138.51
07.734,153.08
07.750,168.27
07.765,181.35
07.781,189.09
07.796,188.63
07.812,178.61
07.828,159.83
07.843,135.31
07.859,109.32
07.875,85.96
07.890,67.66
07.906,54.52
07.921,44.77
07.937,35.9
07.953,26.0
07.968,14.67
07.984,2.94
08.000,-7.6
08.015,-15.67
08.031,-20.96
08.046,-23.96
08.062,-25.66
08.078,-26.87
08.093,-28.06
08.109,-29.44
08.125,-31.16
08.140,-33.44
08.156,-36.39
08.171,-39.87
08.187,-43.37
08.203,-46.21
08.218,-47.82
08.234,-47.9
08.250,-46.37
08.265,-43.05
08.281,-37.52
08.296,-29.1
08.312,-17.19
08.328,-1.74
08.343,16.58
08.359,36.36
08.375,55.82
08.390,73.32
08.406,87.74
08.421,98.65
08.437,106.33
08.453,111.51
08.468,115.13
08.484,118.03
08.500,120.74
08.515,123.48
08.531,126.14
08.546,128.61
08.562,130.86
08.578,132.99
08.593,135.09
08.609,137.08
08.625,138.65
08.640,139.28
08.656,138.45
08.671,135.7
08.687,130.75
08.703,123.48
08.718,113.96
08.734,102.58
08.750,90.17
08.765,77.94
08.781,67.28
08.796,59.32
08.812,54.55
08.828,52.78
08.843,53.2
08.859,54.9
08.875,57.1
08.890,59.31
08.906,61.14
08.921,62.13
08.937,61.61
08.953,58.85
08.968,53.25
08.984,44.72
09.000,33.8
09.015,21.67
09.031,9.82
09.046,-0.41
09.062,-8.36
09.078,-14.38
09.093,-19.65
09.109,-25.66
09.125,-33.52
09.140,-43.36
09.156,-54.42
09.171,-65.5
09.187,-75.57
09.203,-84.17
09.218,-91.49
09.234,-98.11
09.250,-104.71
09.265,-111.99
09.281,-120.64
09.296,-131.42
09.312,-144.81
09.328,-160.49
09.343,-177.07
09.359,-192.09
09.375,-202.77
09.390,-206.83
09.406,-203.34
09.421,-192.98
09.437,-177.67
09.453,-159.87
09.468,-141.81
09.484,-124.93
09.500,-109.63
09.515,-95.53
09.531,-81.81
09.546,-67.8
09.562,-53.32
09.578,-38.85
09.593,-25.35
09.609,-13.86
09.625,-5.14
09.640,0.63
09.656,3.81
09.671,5.08
09.687,5.13
09.703,4.47
09.718,3.39
09.734,2.06
09.750,0.63
09.765,-0.72
09.781,-1.86
09.796,-2.89
09.812,-4.03
09.828,-5.69
09.843,-8.22
09.859,-11.82
09.875,-16.45
09.890,-21.93
09.906,-27.97
09.921,-34.21
09.937,-40.18
09.953,-45.16
09.968,-48.18
09.984,-48.18
10.000,-44.28
10.015,-36.27
10.031,-24.75
10.046,-11.0
10.062,3.46
10.078,17.37
10.093,30.08
10.109,41.54
10.125,51.92
10.140,61.22
10.156,69.09
10.171,74.86
10.187,77.86
10.203,77.71
10.218,74.39
10.234,68.12
10.250,59.11
10.265,47.45
10.281,33.25
10.296,16.78
10.312,-1.27
10.328,-19.8
10.343,-37.63
10.359,-53.83
10.375,-68.13
10.390,-80.96
10.406,-93.23
10.421,-105.96
10.437,-119.91
10.453,-135.33
10.468,-151.97
10.484,-169.18
10.500,-186.05
10.515,-201.37
10.531,-213.8
10.546,-221.86
10.562,-224.32
10.578,-220.51
10.593,-210.63
10.609,-195.78
10.625,-177.68
10.640,-158.2
10.656,-138.99
10.671,-121.16
10.687,-105.32
10.703,-91.78
10.718,-80.65
10.734,-72.02
10.750,-65.83
10.765,-61.83
10.781,-59.56
10.796,-58.38
10.812,-57.59
10.828,-56.58
10.843,-54.9
10.859,-52.29
10.875,-48.74
10.890,-44.48
10.906,-40.01
10.921,-36.05
10.937,-33.34
10.953,-32.46
10.968,-33.48
10.984,-35.99
11.000,-39.19
11.015,-42.3
11.031,-44.89
11.046,-47.09
11.062,-49.57
11.078,-53.18
11.093,-58.5
11.109,-65.42
11.125,-72.97
11.140,-79.45
11.156,-82.89
11.171,-81.75
11.187,-75.53
11.203,-65.26
11.218,-53.19
11.234,-42.11
11.250,-34.21
11.265,-30.18
11.281,-29.11
11.296,-29.02
11.312,-27.95
11.328,-24.9
11.343,-20.19
11.359,-14.94
11.375,-10.36
11.390,-6.96
11.406,-4.47
11.421,-2.28
11.437,0.09
11.453,2.56
11.468,4.68
11.484,6.06
11.500,6.76
11.515,7.37
11.531,8.67
11.546,11.19
11.562,14.92
11.578,19.31
11.593,23.63
11.609,27.2
11.625,29.68
11.640,31.01
11.656,31.18
11.671,30.09
11.687,27.48
11.703,23.02
11.718,16.51
11.734,8.18
11.750,-1.21
11.765,-10.22
11.781,-17.02
11.796,-19.76
11.812,-17.13
11.828,-8.77
11.843,4.54
11.859,21.05
11.875,38.57
11.890,54.94
11.906,68.57
11.921,78.6
11.937,85.01
11.953,88.38
11.968,89.7
11.984,90.01
12.000,90.15
12.015,90.52
12.031,91.13
12.046,91.76
12.062,92.12
12.078,92.07
12.093,91.61
12.109,90.71
12.125,89.28
12.140,86.99
12.156,83.42
12.171,78.23
12.187,71.37
12.203,63.16
12.218,54.23
12.234,45.34
12.250,37.1
12.265,29.87
12.281,23.63
12.296,18.06
12.312,12.67
12.328,6.88
12.343,0.23
12.359,-7.35
12.375,-15.46
12.390,-23.1
12.406,-28.87
12.421,-31.29
12.437,-29.29
12.453,-22.58
12.468,-11.69
12.484,2.18
12.500,17.57
12.515,33.06
12.531,47.47
12.546,59.82
12.562,69.28
12.578,75.31
12.593,77.78
12.609,77.17
12.625,74.51
12.640,71.18
12.656,68.45
12.671,67.07
12.687,67.03
12.703,67.62
12.718,67.72
12.734,66.21
12.750,62.38
12.765,56.27
12.781,48.8
12.796,41.67
12.812,37.07
12.828,37.06
12.843,42.77
12.859,53.8
12.875,68.0
12.890,81.93
12.906,91.75
12.921,94.45
12.937,88.64
12.953,74.84
12.968,55.06
12.984,31.92
13.000,7.84
13.015,-15.36
13.031,-36.38
13.046,-54.01
13.062,-66.96
13.078,-73.94
13.093,-74.27
13.109,-68.33
13.125,-57.67
13.140,-44.54
13.156,-31.09
13.171,-18.59
13.187,-7.31
13.203,3.14
13.218,13.1
13.234,22.4
13.250,30.31
13.265,35.96
13.281,38.96
13.296,39.67
13.312,39.19
13.328,38.98
13.343,40.32
13.359,43.92
13.375,49.67
13.390,56.65
13.406,63.38
13.421,68.28
13.437,70.16
13.453,68.68
13.468,64.39
13.484,58.43
13.500,52.18
13.515,46.71
13.531,42.57
13.546,39.76
13.562,37.72
13.578,35.44
13.593,31.56
13.609,24.65
13.625,13.52
13.640,-2.15
13.656,-21.49
13.671,-42.31
13.687,-61.66
13.703,-76.39
13.718,-83.92
13.734,-82.76
13.750,-72.82
13.765,-55.4
13.781,-32.86
13.796,-8.12
13.812,16.03
13.828,37.42
13.843,54.57
13.859,66.75
13.875,73.7
13.890,75.62
13.906,73.28
13.921,68.01
13.937,61.54
13.953,55.52
13.968,50.91
13.984,47.62
14.000,44.72
14.015,41.08
14.031,36.06
14.046,30.02
14.062,24.02
14.078,19.27
14.093,16.48
14.109,15.64
14.125,16.16
14.140,17.22
14.156,18.23
14.171,18.96
14.187,19.6
14.203,20.56
14.218,22.2
14.234,24.64
14.250,27.7
14.265,30.95
14.281,33.9
14.296,36.19
14.312,37.6
14.328,38.1
14.343,37.71
14.359,36.43
14.375,34.26
14.390,31.3
14.406,27.84
14.421,24.29
14.437,21.02
14.453,18.25
14.468,15.98
14.484,13.99
14.500,12.08
14.515,10.19
14.531,8.41
14.546,6.85
14.562,5.53
14.578,4.22
14.593,2.6
14.609,0.39
14.625,-2.46
14.640,-5.72
14.656,-8.96
14.671,-11.82
14.687,-14.23
14.703,-16.45
14.718,-19.06
14.734,-22.74
14.750,-28.01
14.765,-35.07
14.781,-43.74
14.796,-53.42
14.812,-63.36
14.828,-72.76
14.843,-81.07
14.859,-88.05
14.875,-93.85
14.890,-98.94
14.906,-103.99
14.921,-109.64
14.937,-116.16
14.953,-123.18
14.968,-129.56
14.984,-133.63
15.000,-133.62
15.015,-128.32
15.031,-117.5
15.046,-102.08
15.062,-83.75
15.078,-64.45
15.093,-45.73
15.109,-28.51
15.125,-13.25
15.140,-0.15
15.156,10.59
15.171,18.69
15.187,24.04
15.203,26.79
15.218,27.49
15.234,26.96
15.250,26.05
15.265,25.42
15.281,25.37
15.296,25.81
15.312,26.41
15.328,26.74
15.343,26.44
15.359,25.36
15.375,23.58
15.390,21.3
15.406,18.74
15.421,16.0
15.437,13.02
15.453,9.64
15.468,5.68
15.484,1.05
15.500,-4.26
15.515,-10.19
15.531,-16.72
15.546,-23.82
15.562,-31.27
15.578,-38.53
15.593,-44.62
15.609,-48.28
15.625,-48.27
15.640,-43.9
15.656,-35.26
15.671,-23.31
15.687,-9.6
15.703,4.25
15.718,16.95
15.734,27.75
15.750,36.38
15.765,42.84
15.781,47.23
15.796,49.6
15.812,50.1
15.828,49.04
15.843,46.98
15.859,44.66
15.875,42.77
15.890,41.78
15.906,41.74
15.921,42.33
15.937,43.05
15.953,43.44
15.968,43.35
15.984,42.93
16.000,42.57
16.015,42.63
16.031,43.31
16.046,44.54
16.062,46.07
16.078,47.53
16.093,48.55
16.109,48.84
16.125,48.28
16.140,47.03
16.156,45.72
16.171,45.5
16.187,47.8
16.203,54.01
16.218,64.95
16.234,80.68
16.250,100.54
16.265,123.41
16.281,148.04
16.296,173.06
16.312,196.74
16.328,216.92
16.343,231.2
16.359,237.45
16.375,234.45
16.390,222.21
16.406,201.84
16.421,175.09
16.437,144.1
16.453,111.27
16.468,79.3
16.484,51.05
16.500,28.82
16.515,13.6
16.531,4.49
16.546,-1.11
16.562,-6.46
16.578,-14.2
16.593,-25.5
16.609,-40.02
16.625,-56.63
16.640,-74.28
16.656,-92.48
16.671,-111.31
16.687,-130.95
16.703,-151.35
16.718,-172.1
16.734,-192.37
16.750,-211.02
16.765,-226.71
16.781,-238.04
16.796,-243.73
16.812,-243.05
16.828,-236.07
16.843,-223.74
16.859,-207.67
16.875,-189.73
16.890,-171.62
16.906,-154.81
16.921,-140.5
16.937,-129.75
16.953,-123.49
16.968,-122.32
16.984,-126.19
17.000,-134.15
17.015,-144.38
17.031,-154.55
17.046,-162.36
17.062,-166.1
17.078,-165.0
17.093,-159.24
17.109,-149.67
17.125,-137.43
17.140,-123.62
17.156,-109.05
17.171,-94.22
17.187,-79.25
17.203,-63.99
17.218,-48.18
17.234,-31.7
17.250,-14.83
17.265,1.58
17.281,16.33
17.296,28.23
17.312,36.75
17.328,42.43
17.343,46.78
17.359,51.83
17.375,59.31
17.390,70.06
17.406,83.63
17.421,98.33
17.437,111.43
17.453,119.61
17.468,119.49
17.484,108.71
17.500,86.92
17.515,56.44
17.531,21.97
17.546,-10.75
17.562,-36.87
17.578,-53.96
17.593,-62.38
17.609,-64.34
17.625,-62.25
17.640,-57.41
17.656,-49.67
17.671,-38.26
17.687,-22.93
17.703,-4.61
17.718,14.74
17.734,32.99
17.750,48.65
17.765,61.39
17.781,71.85
17.796,80.98
17.812,89.42
17.828,96.62
17.843,100.72
17.859,99.02
17.875,89.16
17.890,70.41
17.906,44.48
17.921,15.28
17.937,-12.29
17.953,-33.89
17.968,-46.92
17.984,-50.62
18.000,-45.46
18.015,-32.25
18.031,-11.67
18.046,15.54
18.062,47.99
18.078,83.27
18.093,118.2
18.109,149.48
18.125,174.49
18.140,191.74
18.156,200.82
18.171,202.22
18.187,196.99
18.203,186.49
18.218,172.18
18.234,155.49
18.250,137.72
18.265,120.05
18.281,103.43
18.296,88.5
18.312,75.51
18.328,64.31
18.343,54.4
18.359,45.2
18.375,36.26
18.390,27.36
18.406,18.42
18.421,9.26
18.437,-0.46
18.453,-11.12
18.468,-22.97
18.484,-35.82
18.500,-49.2
18.515,-62.56
18.531,-75.56
18.546,-88.06
18.562,-99.82
18.578,-110.13
18.593,-117.65
18.609,-120.72
18.625,-117.97
18.640,-108.97
18.656,-94.62
18.671,-76.91
18.687,-58.37
18.703,-41.27
18.718,-27.12
18.734,-16.39
18.750,-8.72
18.765,-3.38
18.781,0.39
18.796,3.05
18.812,4.79
18.828,5.64
18.843,5.67
18.859,5.14
18.875,4.38
18.890,3.65
18.906,2.98
18.921,2.17
18.937,0.84
18.953,-1.27
18.968,-4.16
18.984,-7.6
19.000,-11.14
19.015,-14.39
19.031,-17.14
19.046,-19.4
19.062,-21.36
19.078,-23.23
19.093,-25.18
19.109,-27.3
19.125,-29.65
19.140,-32.37
19.156,-35.78
19.171,-40.36
19.187,-46.57
19.203,-54.54
19.218,-63.71
19.234,-72.75
19.250,-79.69
19.265,-82.56
19.281,-80.04
19.296,-71.97
19.312,-59.43
19.328,-44.3
19.343,-28.6
19.359,-13.94
19.375,-1.21
19.390,9.19
19.406,17.11
19.421,22.45
19.437,25.24
19.453,25.78
19.468,24.77
19.484,23.28
19.500,22.36
19.515,22.59
19.531,23.91
19.546,25.55
19.562,26.39
19.578,25.42
19.593,22.17
19.609,16.84
19.625,10.23
19.640,3.31
19.656,-3.1
19.671,-8.63
19.687,-13.44
19.703,-18.04
19.718,-22.91
19.734,-28.34
19.750,-34.16
19.765,-39.84
19.781,-44.77
19.796,-48.56
19.812,-51.2
19.828,-53.22
19.843,-55.52
19.859,-59.09
19.875,-64.6
19.890,-72.1
19.906,-80.66
19.921,-88.57
19.937,-93.72
19.953,-94.17
19.968,-88.93
19.984,-78.27
20.000,-63.68
20.015,-47.26
20.031,-31.15
20.046,-16.79
20.062,-4.72
20.078,5.23
20.093,13.56
20.109,20.69
20.125,26.77
20.140,31.83
20.156,35.91
20.171,39.31
20.187,42.38
20.203,45.39
20.218,48.25
20.234,50.47
20.250,51.42
20.265,50.75
20.281,48.68
20.296,46.0
20.312,43.77
20.328,42.8
20.343,43.24
20.359,44.56
20.375,45.78
20.390,46.01
20.406,44.84
20.421,42.38
20.437,39.13
20.453,35.57
20.468,31.91
20.484,28.05
20.500,23.82
20.515,19.23
20.531,14.76
20.546,11.26
20.562,9.73
20.578,10.95
20.593,15.14
20.609,21.89
20.625,30.33
20.640,39.39
20.656,47.77
20.671,53.98
20.687,56.29
20.703,52.94
20.718,42.69
20.734,25.31
20.750,1.88
20.765,-25.51
20.781,-54.45
20.796,-83.12
20.812,-110.62
20.828,-136.79
20.843,-161.57
20.859,-184.36
20.875,-203.75
20.890,-218.01
20.906,-225.8
20.921,-226.74
20.937,-221.69
20.953,-212.25
20.968,-200.21
20.984,-187.05
21.000,-173.72
21.015,-160.93
21.031,-149.38
21.046,-140.01
21.062,-133.77
21.078,-131.25
21.093,-132.31
21.109,-135.91
21.125,-140.51
21.140,-144.59
21.156,-147.24
21.171,-148.46
21.187,-149.02
21.203,-149.93
21.218,-152.0
21.234,-155.49
21.250,-159.98
21.265,-164.55
21.281,-167.86
21.296,-168.51
21.312,-165.28
21.328,-157.44
21.343,-144.96
21.359,-128.51
21.375,-109.26
21.390,-88.35
21.406,-66.59
21.421,-44.23
21.437,-21.28
21.453,2.04
21.468,24.91
21.484,45.95
21.500,63.56
21.515,76.67
21.531,85.15
21.546,89.86
21.562,92.29
21.578,93.95
21.593,95.87
21.609,98.45
21.625,101.58
21.640,104.97
21.656,108.32
21.671,111.49
21.687,114.32
21.703,116.61
21.718,118.0
21.734,118.18
21.750,116.98
21.765,114.43
21.781,110.81
21.796,106.48
21.812,101.84
21.828,97.05
21.843,92.02
21.859,86.37
21.875,79.54
21.890,71.06
21.906,60.84
21.921,49.46
21.937,38.26
21.953,29.1
21.968,23.82
21.984,23.7
22.000,28.92
22.015,38.53
22.031,50.79
22.046,63.72
22.062,75.75
22.078,85.99
22.093,94.17
22.109,100.29
22.125,104.38
22.140,106.32
22.156,105.96
22.171,103.43
22.187,99.19
22.203,94.05
22.218,88.93
22.234,84.57
22.250,81.3
22.265,79.05
22.281,77.42
22.296,75.89
22.312,73.99
22.328,71.43
22.343,68.12
22.359,64.14
22.375,59.68
22.390,54.95
22.406,50.1
22.421,45.2
22.437,40.18
22.453,34.85
22.468,28.9
22.484,22.01
22.500,13.97
22.515,4.9
22.531,-4.59
22.546,-13.41
22.562,-20.11
22.578,-23.3
22.593,-21.98
22.609,-16.01
22.625,-6.07
22.640,6.45
22.656,19.86
22.671,32.64
22.687,43.73
22.703,52.6
22.718,59.15
22.734,63.47
22.750,65.73
22.765,66.08
22.781,64.76
22.796,62.2
22.812,58.99
22.828,55.84
22.843,53.36
22.859,51.82
22.875,51.2
22.890,51.15
22.906,51.22
22.921,50.99
22.937,50.21
22.953,48.79
22.968,46.81
22.984,44.4
23.000,41.66
23.015,38.69
23.031,35.48
23.046,31.88
23.062,27.57
23.078,22.08
23.093,14.89
23.109,5.69
23.125,-5.34
23.140,-17.22
23.156,-28.2
23.171,-36.04
23.187,-38.67
23.203,-34.95
23.218,-25.05
23.234,-10.46
23.250,6.47
23.265,23.41
23.281,38.69
23.296,51.64
23.312,62.4
23.328,71.5
23.343,79.37
23.359,86.12
23.375,91.5
23.390,95.03
23.406,96.18
23.421,94.55
23.437,90.02
23.453,82.95
23.468,74.2
23.484,65.1
23.500,57.13
23.515,51.61
23.531,49.28
23.546,50.07
23.562,53.2
23.578,57.42
23.593,61.4
23.609,64.17
23.625,65.49
23.640,65.84
23.656,65.97
23.671,66.22
23.687,65.86
23.703,63.29
23.718,56.77
23.734,45.73
23.750,31.57
23.765,17.35
23.781,6.56
23.796,1.47
23.812,1.98
23.828,5.7
23.843,9.29
23.859,9.97
23.875,6.38
23.890,-1.46
23.906,-12.94
23.921,-27.48
23.937,-44.54
23.953,-63.25
23.968,-81.99
23.984,-98.59
24.000,-111.04
24.015,-118.16
24.031,-119.87
24.046,-117.14
24.062,-111.39
24.078,-104.0
24.093,-96.17
24.109,-88.88
24.125,-82.89
24.140,-78.75
24.156,-76.51
24.171,-75.75
24.187,-75.6
24.203,-75.21
24.218,-74.08
24.234,-72.13
24.250,-69.67
24.265,-67.17
24.281,-65.23
24.296,-64.42
24.312,-65.39
24.328,-68.72
24.343,-74.56
24.359,-82.22
24.375,-89.98
24.390,-95.53
24.406,-96.62
24.421,-91.94
24.437,-81.5
24.453,-66.51
24.468,-48.72
24.484,-29.75
24.500,-10.72
24.515,7.76
24.531,25.17
24.546,40.86
24.562,54.03
24.578,64.12
24.593,70.97
24.609,75.01
24.625,77.02
24.640,77.77
24.656,77.78
24.671,77.18
24.687,75.94
24.703,73.95
24.718,71.25
24.734,68.03
24.750,64.57
24.765,61.17
24.781,57.98
24.796,54.91
24.812,51.64
24.828,47.68
24.843,42.58
24.859,36.12
24.875,28.48
24.890,20.18
24.906,11.97
24.921,4.56
24.937,-1.65
24.953,-6.74
24.968,-11.22
24.984,-15.89
25.000,-21.59
25.015,-28.89
25.031,-37.9
25.046,-48.08
25.062,-58.33
25.078,-67.14
25.093,-72.92
25.109,-74.51
25.125,-71.43
25.140,-64.11
25.156,-53.63
25.171,-41.36
25.187,-28.52
25.203,-15.88
25.218,-3.78
25.234,7.63
25.250,18.06
25.265,27.0
25.281,33.82
25.296,38.07
25.312,39.76
25.328,39.46
25.343,38.07
25.359,36.53
25.375,35.46
25.390,34.97
25.406,34.84
25.421,34.65
25.437,34.09
25.453,33.1
25.468,31.78
25.484,30.31
25.500,28.81
25.515,27.29
25.531,25.65
25.546,23.76
25.562,21.59
25.578,19.19
25.593,16.71
25.609,14.33
25.625,12.19
25.640,10.24
25.656,8.28
25.671,5.94
25.687,2.81
25.703,-1.44
25.718,-7.02
25.734,-13.97
25.750,-22.21
25.765,-31.46
25.781,-41.15
25.796,-50.28
25.812,-57.5
25.828,-61.4
25.843,-60.86
25.859,-55.54
25.875,-46.0
25.890,-33.56
25.906,-19.88
25.921,-6.42
25.937,5.82
25.953,16.43
25.968,25.28
25.984,32.38
26.000,37.61
26.015,40.9
26.031,42.26
26.046,42.03
26.062,40.82
26.078,39.33
26.093,38.14
26.109,37.5
26.125,37.31
26.140,37.26
26.156,37.02
26.171,36.38
26.187,35.29
26.203,33.87
26.218,32.2
26.234,30.32
26.250,28.19
26.265,25.67
26.281,22.63
26.296,18.97
26.312,14.63
26.328,9.61
26.343,4.04
26.359,-1.95
26.375,-8.09
26.390,-14.1
26.406,-19.71
26.421,-24.74
26.437,-29.15
26.453,-33.11
26.468,-37.03
26.484,-41.41
26.500,-46.7
26.515,-53.07
26.531,-60.17
26.546,-67.04
26.562,-72.29
26.578,-74.44
26.593,-72.38
26.609,-65.77
26.625,-55.18
26.640,-41.84
26.656,-27.29
26.671,-12.95
26.687,0.14
26.703,11.38
26.718,20.49
26.734,27.32
26.750,31.91
26.765,34.43
26.781,35.3
26.796,35.19
26.812,34.8
26.828,34.7
26.843,35.19
26.859,36.14
26.875,37.18
26.890,37.82
26.906,37.66
26.921,36.53
26.937,34.55
26.953,32.01
26.968,29.23
26.984,26.37
27.000,23.41
27.015,20.15
27.031,16.39
27.046,12.13
27.062,7.54
27.078,2.95
27.093,-1.33
27.109,-5.14
27.125,-8.58
27.140,-11.95
27.156,-15.62
27.171,-19.98
27.187,-25.33
27.203,-31.84
27.218,-39.47
27.234,-47.8
27.250,-56.05
27.265,-63.02
27.281,-67.37
27.296,-67.99
27.312,-64.35
27.328,-56.7
27.343,-46.06
27.359,-33.8
27.375,-21.31
27.390,-9.6
27.406,0.82
27.421,9.85
27.437,17.54
27.453,23.92
27.468,28.95
27.484,32.6
27.500,34.97
27.515,36.35
27.531,37.13
27.546,37.61
27.562,37.88
27.578,37.83
27.593,37.23
27.609,35.98
27.625,34.1
27.640,31.87
27.656,29.49
27.671,27.07
27.687,24.54
27.703,21.73
27.718,18.51
27.734,14.85
27.750,10.9
27.765,6.86
27.781,2.9
27.796,-0.87
27.812,-4.46
27.828,-7.93
27.843,-11.34
27.859,-14.84
27.875,-18.64
27.890,-23.05
27.906,-28.42
27.921,-34.89
27.937,-42.28
27.953,-49.82
27.968,-56.23
27.984,-59.98
28.000,-59.67
28.015,-54.58
28.031,-44.9
28.046,-31.77
28.062,-16.88
28.078,-2.0
28.093,11.53
28.109,23.02
28.125,32.33
28.140,39.71
28.156,45.46
28.171,49.81
28.187,52.94
28.203,55.11
28.218,56.72
28.234,58.21
28.250,59.9
28.265,61.74
28.281,63.34
28.296,64.08
28.312,63.46
28.328,61.35
28.343,58.1
28.359,54.39
28.375,50.89
28.390,48.01
28.406,45.72
28.421,43.68
28.437,41.45
28.453,38.77
28.468,35.73
28.484,32.67
28.500,29.97
28.515,27.88
28.531,26.36
28.546,25.15
28.562,23.97
28.578,22.66
28.593,21.29
28.609,20.06
28.625,19.14
28.640,18.55
28.656,18.05
28.671,17.33
28.687,16.11
28.703,14.29
28.718,12.0
28.734,9.51
28.750,7.13
28.765,5.07
28.781,3.37
28.796,1.93
28.812,0.61
28.828,-0.77
28.843,-2.29
28.859,-3.96
28.875,-5.73
28.890,-7.51
28.906,-9.23
28.921,-10.86
28.937,-12.46
28.953,-14.12
28.968,-15.97
28.984,-18.09
29.000,-20.46
29.015,-22.98
29.031,-25.5
29.046,-27.88
29.062,-30.08
29.078,-32.2
29.093,-34.46
29.109,-37.12
29.125,-40.32
29.140,-44.05
29.156,-48.13
29.171,-52.24
29.187,-56.14
29.203,-59.79
29.218,-63.34
29.234,-67.16
29.250,-71.69
29.265,-77.34
29.281,-84.37
29.296,-92.77
29.312,-102.17
29.328,-111.71
29.343,-120.0
29.359,-125.3
29.375,-125.95
29.390,-120.82
29.406,-109.8
29.421,-93.87
29.437,-74.9
29.453,-55.04
29.468,-36.22
29.484,-19.71
29.500,-6.14
29.515,4.4
29.531,12.01
29.546,16.98
29.562,19.68
29.578,20.69
29.593,20.75
29.609,20.63
29.625,20.85
29.640,21.61
29.656,22.76
29.671,24.02
29.687,25.19
29.703,26.34
29.718,27.69
29.734,29.41
29.750,31.44
29.765,33.39
29.781,34.7
29.796,34.88
29.812,33.7
29.828,31.28
29.843,27.87
29.859,23.77
29.875,19.15
29.890,14.1
29.906,8.61
29.921,2.69
29.937,-3.72
29.953,-10.76
29.968,-18.53
29.984,-26.99
30.000,-35.71
30.015,-43.75
30.031,-49.79
30.046,-52.48
30.062,-50.86
30.078,-44.69
30.093,-34.64
30.109,-22.06
30.125,-8.62
30.140,4.12
30.156,15.01
30.171,23.47
30.187,29.36
30.203,32.9
30.218,34.41
30.234,34.26
30.250,32.8
30.265,30.38
30.281,27.31
30.296,23.9
30.312,20.45
30.328,17.19
30.343,14.33
30.359,11.98
30.375,10.17
30.390,8.86
30.406,7.83
30.421,6.8
30.437,5.42
30.453,3.43
30.468,0.69
30.484,-2.81
30.500,-6.89
30.515,-11.35
30.531,-15.99
30.546,-20.62
30.562,-25.18
30.578,-29.69
30.593,-34.36
30.609,-39.51
30.625,-45.34
30.640,-51.73
30.656,-58.04
30.671,-63.06
30.687,-65.36
30.703,-63.72
30.718,-57.61
30.734,-47.4
30.750,-34.25
30.765,-19.75
30.781,-5.4
30.796,7.69
30.812,18.9
30.828,27.99
30.843,34.89
30.859,39.59
30.875,42.16
30.890,42.76
30.906,41.75
30.921,39.69
30.937,37.16
30.953,34.7
30.968,32.69
30.984,31.25
31.000,30.36
31.015,29.87
31.031,29.54
31.046,29.08
31.062,28.12
31.078,26.35
31.093,23.55
31.109,19.7
31.125,14.98
31.140,9.76
31.156,4.35
31.171,-1.04
31.187,-6.42
31.203,-11.99
31.218,-18.07
31.234,-24.92
31.250,-32.6
31.265,-40.76
31.281,-48.55
31.296,-54.71
31.312,-57.86
31.328,-56.83
31.343,-51.11
31.359,-41.06
31.375,-27.81
31.390,-12.95
31.406,1.88
31.421,15.37
31.437,26.7
31.453,35.51
31.468,41.75
31.484,45.49
31.500,46.92
31.515,46.36
31.531,44.27
31.546,41.28
31.562,38.11
31.578,35.34
31.593,33.33
31.609,32.1
31.625,31.4
31.640,30.85
31.656,30.05
31.671,28.7
31.687,26.61
31.703,23.71
31.718,20.01
31.734,15.59
31.750,10.59
31.765,5.18
31.781,-0.46
31.796,-6.2
31.812,-12.05
31.828,-18.1
31.843,-24.51
31.859,-31.5
31.875,-39.17
31.890,-47.37
31.906,-55.53
31.921,-62.59
31.937,-67.24
31.953,-68.14
31.968,-64.41
31.984,-55.92
32.000,-43.39
32.015,-28.13
32.031,-11.75
32.046,4.31
32.062,19.0
32.078,31.65
32.093,41.91
32.109,49.59
32.125,54.7
32.140,57.45
32.156,58.35
32.171,58.15
32.187,57.62
32.203,57.41
32.218,57.88
32.234,59.07
32.250,60.77
32.265,62.74
32.281,64.7
32.296,66.51
32.312,68.06
32.328,69.23
32.343,69.87
32.359,69.8
32.375,68.85
32.390,66.93
32.406,64.1
32.421,60.55
32.437,56.56
32.453,52.51
32.468,48.75
32.484,45.54
32.500,43.03
32.515,41.16
32.531,39.75
32.546,38.46
32.562,37.0
32.578,35.14
32.593,32.81
32.609,30.14
32.625,27.42
32.640,24.99
32.656,23.15
32.671,22.07
32.687,21.61
32.703,21.39
32.718,20.82
32.734,19.25
32.750,16.22
32.765,11.66
32.781,5.9
32.796,-0.39
32.812,-6.44
32.828,-11.62
32.843,-15.67
32.859,-18.66
32.875,-20.94
32.890,-22.95
32.906,-25.03
32.921,-27.36
32.937,-29.99
32.953,-32.86
32.968,-35.98
32.984,-39.42
33.000,-43.35
33.015,-47.86
33.031,-52.84
33.046,-57.91
33.062,-62.53
33.078,-66.18
33.093,-68.61
33.109,-70.02
33.125,-71.0
33.140,-72.4
33.156,-75.12
33.171,-79.83
33.187,-86.8
33.203,-95.71
33.218,-105.56
33.234,-114.69
33.250,-121.08
33.265,-122.75
33.281,-118.47
33.296,-108.1
33.312,-92.7
33.328,-74.24
33.343,-54.93
33.359,-36.69
33.375,-20.76
33.390,-7.72
33.406,2.33
33.421,9.52
33.437,14.1
33.453,16.38
33.468,16.89
33.484,16.36
33.500,15.62
33.515,15.34
33.531,15.89
33.546,17.24
33.562,19.03
33.578,20.77
33.593,22.06
33.609,22.75
33.625,22.81
33.640,22.31
33.656,21.27
33.671,19.6
33.687,17.12
33.703,13.75
33.718,9.59
33.734,4.89
33.750,-0.03
33.765,-4.88
33.781,-9.61
33.796,-14.45
33.812,-19.79
33.828,-26.05
33.843,-33.35
33.859,-41.35
33.875,-49.14
33.890,-55.35
33.906,-58.54
33.921,-57.58
33.937,-52.08
33.953,-42.51
33.968,-30.15
33.984,-16.65
34.000,-3.57
34.015,7.94
34.031,17.31
34.046,24.46
34.062,29.53
34.078,32.71
34.093,34.22
34.109,34.32
34.125,33.47
34.140,32.17
34.156,30.89
34.171,29.89
34.187,29.13
34.203,28.39
34.218,27.48
34.234,26.34
34.250,25.1
34.265,23.9
34.281,22.7
34.296,21.26
34.312,19.17
34.328,16.07
34.343,11.89
34.359,6.86
34.375,1.44
34.390,-3.88
34.406,-8.77
34.421,-13.18
34.437,-17.33
34.453,-21.6
34.468,-26.49
34.484,-32.33
34.500,-39.12
34.515,-46.38
34.531,-53.07
34.546,-57.81
34.562,-59.18
34.578,-56.19
34.593,-48.65
34.609,-37.31
34.625,-23.62
34.640,-9.31
34.656,4.07
34.671,15.51
34.687,24.55
34.703,31.17
34.718,35.53
34.734,37.93
34.750,38.66
34.765,38.13
34.781,36.74
34.796,34.93
34.812,33.01
34.828,31.1
34.843,29.22
34.859,27.29
34.875,25.29
34.890,23.25
34.906,21.27
34.921,19.4
34.937,17.61
34.953,15.76
34.968,13.6
34.984,10.89
35.000,7.45
35.015,3.29
35.031,-1.38
35.046,-6.18
35.062,-10.7
35.078,-14.68
35.093,-18.14
35.109,-21.48
35.125,-25.32
35.140,-30.3
35.156,-36.75
35.171,-44.48
35.187,-52.57
35.203,-59.56
35.218,-63.77
35.234,-63.79
35.250,-58.91
35.265,-49.43
35.281,-36.47
35.296,-21.65
35.312,-6.59
35.328,7.48
35.343,19.81
35.359,30.08
35.375,38.17
35.390,44.01
35.406,47.68
35.421,49.38
35.437,49.61
35.453,49.0
35.468,48.19
35.484,47.59
35.500,47.28
35.515,47.09
35.531,46.7
35.546,45.81
35.562,44.27
35.578,42.15
35.593,39.58
35.609,36.72
35.625,33.62
35.640,30.21
35.656,26.33
35.671,21.9
35.687,16.93
35.703,11.62
35.718,6.26
35.734,1.11
35.750,-3.69
35.765,-8.21
35.781,-12.62
35.796,-17.22
35.812,-22.27
35.828,-28.03
35.843,-34.63
35.859,-42.05
35.875,-49.96
35.890,-57.53
35.906,-63.6
35.921,-66.83
35.937,-66.13
35.953,-61.05
35.968,-51.9
35.984,-39.68
36.000,-25.72
36.015,-11.3
36.031,2.58
36.046,15.26
36.062,26.26
36.078,35.28
36.093,42.14
36.109,46.79
36.125,49.47
36.140,50.63
36.156,50.83
36.171,50.54
36.187,50.05
36.203,49.45
36.218,48.63
36.234,47.46
36.250,45.85
36.265,43.74
36.281,41.18
36.296,38.25
36.312,35.13
36.328,31.96
36.343,28.83
36.359,25.72
36.375,22.45
36.390,18.77
36.406,14.49
36.421,9.63
36.437,4.39
36.453,-0.85
36.468,-5.73
36.484,-10.08
36.500,-13.96
36.515,-17.63
36.531,-21.46
36.546,-25.84
36.562,-31.14
36.578,-37.59
36.593,-45.2
36.609,-53.59
36.625,-61.87
36.640,-68.7
36.656,-72.59
36.671,-72.33
36.687,-67.33
36.703,-57.88
36.718,-45.01
36.734,-30.18
36.750,-14.82
36.765,-0.09
36.781,13.28
36.796,24.9
36.812,34.57
36.828,42.21
36.843,47.82
36.859,51.52
36.875,53.56
36.890,54.28
36.906,54.09
36.921,53.25
36.937,52.0
36.953,50.42
36.968,48.61
36.984,46.68
37.000,44.72
37.015,42.86
37.031,41.14
37.046,39.49
37.062,37.76
37.078,35.78
37.093,33.31
37.109,30.23
37.125,26.54
37.140,22.37
37.156,17.93
37.171,13.43
37.187,8.98
37.203,4.55
37.218,0.05
37.234,-4.64
37.250,-9.48
37.265,-14.37
37.281,-19.11
37.296,-23.56
37.312,-27.74
37.328,-31.88
37.343,-36.36
37.359,-41.63
37.375,-48.05
37.390,-55.68
37.406,-64.04
37.421,-72.11
37.437,-78.36
37.453,-81.19
37.468,-79.4
37.484,-72.56
37.500,-61.24
37.515,-46.75
37.531,-30.73
37.546,-14.71
37.562,0.18
37.578,13.31
37.593,24.4
37.609,33.34
37.625,40.16
37.640,45.0
37.656,48.06
37.671,49.69
37.687,50.27
37.703,50.14
37.718,49.63
37.734,48.97
37.750,48.32
37.765,47.76
37.781,47.25
37.796,46.67
37.812,45.83
37.828,44.59
37.843,42.87
37.859,40.68
37.875,38.02
37.890,34.9
37.906,31.26
37.921,27.03
37.937,22.23
37.953,17.08
37.968,11.91
37.984,7.11
38.000,2.9
38.015,-0.79
38.031,-4.34
38.046,-8.23
38.062,-12.81
38.078,-18.15
38.093,-23.88
38.109,-29.48
38.125,-34.45
38.140,-38.6
38.156,-42.12
38.171,-45.51
38.187,-49.36
38.203,-54.16
38.218,-60.11
38.234,-67.04
38.250,-74.38
38.265,-81.19
38.281,-86.29
38.296,-88.49
38.312,-86.8
38.328,-80.79
38.343,-70.73
38.359,-57.54
38.375,-42.59
38.390,-27.31
38.406,-12.86
38.437,10.93
38.453,19.86
38.468,26.88
38.484,32.08
38.500,35.65
38.515,37.83
38.531,39.01
38.546,39.6
38.562,39.97
38.578,40.29
38.593,40.57
38.609,40.69
38.625,40.51
38.640,39.96
38.656,39.09
38.671,37.97
38.687,36.64
38.703,35.03
38.718,32.96
38.734,30.23
38.750,26.73
38.765,22.53
38.781,17.9
38.796,13.25
38.812,8.94
38.828,5.13
38.843,1.78
38.859,-1.34
38.875,-4.49
38.890,-7.82
38.906,-11.31
38.921,-14.8
38.937,-18.14
38.953,-21.24
38.968,-24.16
38.984,-27.1
39.000,-30.32
39.015,-34.17
39.031,-38.91
39.046,-44.61
39.062,-50.97
39.078,-57.18
39.093,-62.03
39.109,-64.17
39.125,-62.55
39.140,-56.78
39.156,-47.31
39.171,-35.29
39.187,-22.15
39.203,-9.22
39.218,2.57
39.234,12.7
39.250,21.0
39.265,27.41
39.281,31.93
39.296,34.62
39.312,35.71
39.328,35.57
39.343,34.73
39.359,33.66
39.375,32.7
39.390,31.96
39.406,31.36
39.421,30.72
39.437,29.86
39.453,28.65
39.468,27.13
39.484,25.36
39.500,23.47
39.515,21.59
39.531,19.78
39.546,18.02
39.562,16.2
39.578,14.13
39.593,11.59
39.609,8.46
39.625,4.72
39.640,0.48
39.656,-4.04
39.671,-8.59
39.687,-13.01
39.703,-17.19
39.718,-21.18
39.734,-25.14
39.750,-29.31
39.765,-33.94
39.781,-39.18
39.796,-44.94
39.812,-50.82
39.828,-56.05
39.843,-59.62
39.859,-60.44
39.875,-57.77
39.890,-51.37
39.906,-41.71
39.921,-29.83
39.937,-17.1
39.953,-4.82
39.968,6.07
39.984,15.07
40.000,22.15
40.015,27.47
40.031,31.26
40.046,33.67
40.062,34.8
40.078,34.81
40.093,33.96
40.109,32.67
40.125,31.39
40.140,30.45
40.156,29.93
40.171,29.67
40.187,29.33
40.203,28.62
40.218,27.39
40.234,25.73
40.250,23.84
40.265,21.91
40.281,20.02
40.296,18.02
40.312,15.67
40.328,12.75
40.343,9.15
40.359,5.02
40.375,0.65
40.390,-3.59
40.406,-7.39
40.421,-10.65
40.437,-13.49
40.453,-16.25
40.468,-19.34
40.484,-23.16
40.500,-27.99
40.515,-33.89
40.531,-40.69
40.546,-47.96
40.562,-55.0
40.578,-60.81
40.593,-64.34
40.609,-64.6
40.625,-61.03
40.640,-53.64
40.656,-43.07
40.671,-30.5
40.687,-17.27
40.703,-4.6
40.718,6.67
40.734,16.13
40.750,23.77
40.765,29.71
40.781,34.11
40.796,37.1
40.812,38.73
40.828,39.15
40.843,38.71
40.859,37.91
40.875,37.29
40.890,37.23
40.906,37.74
40.921,38.47
40.937,38.87
40.953,38.39
40.968,36.81
40.984,34.23
41.000,31.05
41.015,27.68
41.031,24.38
41.046,21.17
41.062,17.85
41.078,14.18
41.093,10.06
41.109,5.51
41.125,0.65
41.140,-4.32
41.156,-9.27
41.171,-14.06
41.187,-18.61
41.203,-22.85
41.218,-26.8
41.234,-30.56
41.250,-34.39
41.265,-38.7
41.281,-43.83
41.296,-49.97
41.312,-56.89
41.328,-63.85
41.343,-69.67
41.359,-73.03
41.375,-72.78
41.390,-68.36
41.406,-59.93
41.421,-48.32
41.437,-34.82
41.453,-20.74
41.468,-7.19
41.484,5.1
41.500,15.74
41.515,24.62
41.531,31.76
41.546,37.28
41.562,41.33
41.578,44.15
41.593,46.0
41.609,47.18
41.625,47.94
41.640,48.41
41.656,48.61
41.671,48.45
41.687,47.84
41.703,46.72
41.718,45.16
41.734,43.3
41.750,41.29
41.765,39.19
41.781,36.96
41.796,34.52
41.812,31.74
41.828,28.63
41.843,25.24
41.859,21.7
41.875,18.06
41.890,14.25
41.906,10.15
41.921,5.63
41.937,0.61
41.953,-4.86
41.968,-10.57
41.984,-16.26
42.000,-21.67
42.015,-26.63
42.031,-31.14
42.046,-35.43
42.062,-39.86
42.078,-44.95
42.093,-51.09
42.109,-58.35
42.125,-66.23
42.140,-73.63
42.156,-78.99
42.171,-80.86
42.187,-78.29
42.203,-71.24
42.218,-60.54
42.234,-47.58
42.250,-33.82
42.265,-20.42
42.281,-8.03
42.296,3.15
42.312,13.12
42.328,21.86
42.343,29.25
42.359,35.06
42.375,39.18
42.390,41.61
42.406,42.55
42.421,42.32
42.437,41.32
42.453,39.92
42.468,38.42
42.484,37.09
42.500,36.05
42.515,35.33
42.531,34.77
42.546,34.1
42.562,32.97
42.578,31.12
42.593,28.5
42.609,25.26
42.625,21.65
42.640,17.87
42.656,13.95
42.671,9.79
42.687,5.29
42.703,0.45
42.718,-4.53
42.734,-9.38
42.750,-13.88
42.765,-18.02
42.781,-21.99
42.796,-26.12
42.812,-30.71
42.828,-36.01
42.843,-42.15
42.859,-49.14
42.875,-56.83
42.890,-64.76
42.906,-72.04
42.921,-77.45
42.937,-79.71
42.953,-77.84
42.968,-71.53
42.984,-61.31
43.000,-48.35
43.015,-34.1
43.031,-19.9
43.046,-6.79
43.062,4.63
43.078,14.05
43.093,21.37
43.109,26.6
43.125,29.92
43.140,31.6
43.156,32.08
43.171,31.89
43.187,31.48
43.203,31.24
43.218,31.32
43.234,31.65
43.250,32.0
43.265,32.05
43.281,31.56
43.296,30.38
43.312,28.54
43.328,26.19
43.343,23.51
43.359,20.65
43.375,17.6
43.390,14.31
43.406,10.64
43.421,6.57
43.437,2.18
43.453,-2.28
43.468,-6.48
43.484,-10.21
43.500,-13.41
43.515,-16.28
43.531,-19.16
43.546,-22.42
43.562,-26.37
43.578,-31.16
43.593,-36.83
43.609,-43.18
43.625,-49.69
43.640,-55.53
43.656,-59.62
43.671,-60.82
43.687,-58.33
43.703,-51.98
43.718,-42.34
43.734,-30.62
43.750,-18.15
43.765,-6.14
43.781,4.65
43.796,13.86
43.812,21.34
43.828,27.0
43.843,30.73
43.859,32.56
43.875,32.73
43.890,31.8
43.906,30.49
43.921,29.44
43.937,29.0
43.953,29.13
43.968,29.55
43.984,29.86
44.000,29.78
44.015,29.25
44.031,28.37
44.046,27.32
44.062,26.27
44.078,25.23
44.093,24.02
44.109,22.42
44.125,20.11
44.140,16.98
44.156,13.06
44.171,8.6
44.187,3.92
44.203,-0.7
44.218,-5.11
44.234,-9.34
44.250,-13.55
44.265,-17.91
44.281,-22.64
44.296,-27.9
44.312,-33.81
44.328,-40.27
44.343,-46.84
44.359,-52.68
44.375,-56.62
44.390,-57.55
44.406,-54.73
44.421,-48.11
44.437,-38.34
44.453,-26.57
44.468,-14.07
44.484,-1.96
44.500,9.0
44.515,18.34
44.531,25.79
44.546,31.17
44.562,34.42
44.578,35.65
44.593,35.25
44.609,33.85
44.625,32.16
44.640,30.85
44.656,30.25
44.671,30.29
44.687,30.6
44.703,30.72
44.718,30.29
44.734,29.29
44.750,27.93
44.765,26.59
44.781,25.47
44.796,24.53
44.812,23.37
44.828,21.47
44.843,18.42
44.859,14.17
44.875,9.01
44.890,3.52
44.906,-1.77
44.921,-6.48
44.937,-10.53
44.953,-14.09
44.968,-17.52
44.984,-21.2
45.000,-25.56
45.015,-30.93
45.031,-37.52
45.046,-45.17
45.062,-53.3
45.078,-60.78
45.093,-66.19
45.109,-68.09
45.125,-65.53
45.140,-58.39
45.156,-47.43
45.171,-34.12
45.187,-20.12
45.203,-6.88
45.218,4.79
45.234,14.68
45.250,22.93
45.265,29.81
45.281,35.31
45.296,39.3
45.312,41.65
45.328,42.45
45.343,42.11
45.359,41.24
45.375,40.34
45.390,39.63
45.406,39.01
45.421,38.16
45.437,36.87
45.453,35.15
45.468,33.29
45.484,31.58
45.500,30.18
45.515,28.99
45.531,27.7
45.546,25.97
45.562,23.5
45.578,20.21
45.593,16.14
45.609,11.48
45.625,6.41
45.640,1.17
45.656,-4.03
45.671,-9.0
45.687,-13.7
45.703,-18.21
45.718,-22.86
45.734,-28.05
45.750,-34.18
45.765,-41.4
45.781,-49.44
45.796,-57.55
45.812,-64.54
45.828,-69.08
45.843,-69.97
45.859,-66.53
45.875,-58.81
45.890,-47.58
45.906,-34.15
45.921,-19.96
45.937,-6.26
45.953,6.14
45.968,16.86
45.984,25.86
46.000,33.17
46.015,38.79
46.031,42.65
46.046,44.74
46.062,45.24
46.078,44.55
46.093,43.23
46.109,41.81
46.125,40.66
46.140,39.86
46.156,39.3
46.171,38.73
46.187,37.94
46.203,36.8
46.218,35.24
46.234,33.2
46.250,30.61
46.265,27.39
46.281,23.53
46.296,19.1
46.312,14.3
46.328,9.38
46.343,4.56
46.359,-0.05
46.375,-4.41
46.390,-8.62
46.406,-12.76
46.421,-16.93
46.437,-21.18
46.453,-25.58
46.468,-30.28
46.484,-35.49
46.500,-41.47
46.515,-48.39
46.531,-56.16
46.546,-64.27
46.562,-71.78
46.578,-77.44
46.593,-80.0
46.609,-78.56
46.625,-72.81
46.640,-63.19
46.656,-50.73
46.671,-36.78
46.687,-22.64
46.703,-9.3
46.718,2.71
46.734,13.19
46.750,22.09
46.765,29.37
46.781,34.93
46.796,38.72
46.812,40.87
46.828,41.74
46.843,41.88
46.859,41.79
46.875,41.79
46.890,41.92
46.906,42.03
46.921,41.87
46.937,41.3
46.953,40.3
46.968,38.94
46.984,37.3
47.000,35.37
47.015,33.08
47.031,30.3
47.046,26.96
47.062,22.99
47.078,18.46
47.093,13.55
47.109,8.48
47.125,3.54
47.140,-1.07
47.156,-5.25
47.171,-9.07
47.187,-12.65
47.203,-16.13
47.218,-19.6
47.234,-23.14
47.250,-26.91
47.265,-31.1
47.281,-35.98
47.296,-41.56
47.312,-47.47
47.328,-52.79
47.343,-56.23
47.359,-56.42
47.375,-52.4
47.390,-43.98
47.406,-31.75
47.421,-16.93
47.437,-0.91
47.453,15.11
47.468,30.39
47.484,44.58
47.500,57.61
47.515,69.41
47.531,79.88
47.546,88.88
47.562,96.42
47.578,102.83
47.593,108.71
47.609,114.89
47.625,122.08
47.640,130.68
47.656,140.63
47.671,151.63
47.687,163.22
47.703,175.06
47.718,186.97
47.734,198.84
47.750,210.46
47.765,221.51
47.781,231.66
47.796,240.73
47.812,248.77
47.828,255.77
47.843,261.26
47.859,264.09
47.875,262.59
47.890,255.18
47.906,241.22
47.921,221.51
47.937,198.19
47.953,173.98
47.968,151.18
47.984,130.89
48.000,112.77
48.015,95.63
48.031,78.2
48.046,59.83
48.062,40.82
48.078,22.2
48.093,5.07
48.109,-9.94
48.125,-23.13
48.140,-35.6
48.156,-49.01
48.171,-64.76
48.187,-83.42
48.203,-104.43
48.218,-126.34
48.234,-147.48
48.250,-166.63
48.265,-183.62
48.281,-199.36
48.296,-215.49
48.312,-233.93
48.328,-256.57
48.343,-284.89
48.359,-319.31
48.375,-358.34
48.390,-397.75
48.406,-430.84
48.421,-449.85
48.437,-448.63
48.453,-424.97
48.468,-381.76
48.484,-325.99
48.500,-266.2
48.515,-209.51
48.531,-159.83
48.546,-117.68
48.562,-81.65
48.578,-50.28
48.593,-23.46
48.609,-2.66
48.625,9.85
48.640,12.18
48.656,3.84
48.671,-13.83
48.687,-37.99
48.703,-65.0
48.718,-91.33
48.734,-114.11
48.750,-131.18
48.765,-140.85
48.781,-141.74
48.796,-132.92
48.812,-114.47
48.828,-87.91
48.843,-56.34
48.859,-23.69
48.875,6.32
48.890,31.34
48.906,51.02
48.921,66.91
48.937,81.6
48.953,97.29
48.968,114.39
48.984,130.7
49.000,141.74
49.015,142.4
49.031,129.11
49.046,101.72
49.062,63.8
49.078,21.43
49.093,-19.14
49.109,-53.5
49.125,-79.84
49.140,-98.24
49.156,-109.39
49.171,-113.49
49.187,-110.29
49.203,-100.08
49.218,-84.53
49.234,-66.86
49.250,-50.97
49.265,-39.92
49.281,-34.84
49.296,-34.79
49.312,-37.42
49.328,-40.3
49.343,-41.95
49.359,-42.27
49.375,-42.29
49.390,-43.47
49.406,-46.83
49.421,-52.45
49.437,-59.29
49.453,-65.5
49.468,-69.06
49.484,-68.45
49.500,-63.15
49.515,-53.74
49.531,-41.68
49.546,-28.65
49.562,-16.01
49.578,-4.44
49.593,6.05
49.609,15.74
49.625,24.74
49.640,32.75
49.656,39.18
49.671,43.48
49.687,45.54
49.703,45.93
49.718,45.68
49.734,45.85
49.750,47.07
49.765,49.26
49.781,51.77
49.796,53.71
49.812,54.47
49.828,53.97
49.843,52.64
49.859,51.1
49.875,49.75
49.890,48.55
49.906,47.0
49.921,44.46
49.937,40.43
49.953,34.87
49.968,28.24
49.984,21.27
50.000,14.64
50.015,8.72
50.031,3.42
50.046,-1.72
50.062,-7.26
50.078,-13.67
50.093,-21.21
50.109,-29.89
50.125,-39.51
50.140,-49.63
50.156,-59.4
50.171,-67.54
50.187,-72.49
50.203,-72.76
50.218,-67.53
50.234,-57.04
50.250,-42.59
50.265,-26.18
50.281,-9.78
50.296,5.23
50.312,18.29
50.328,29.48
50.343,39.13
50.359,47.37
50.375,54.08
50.390,59.04
50.406,62.21
50.421,63.9
50.437,64.71
50.453,65.28
50.468,65.99
50.484,66.84
50.500,67.48
50.515,67.52
50.531,66.72
50.546,65.14
50.562,63.1
50.578,60.96
50.593,58.92
50.609,56.93
50.625,54.68
50.640,51.76
50.656,47.86
50.671,42.88
50.687,36.95
50.703,30.38
50.718,23.6
50.734,16.92
50.750,10.5
50.765,4.34
50.781,-1.74
50.796,-7.97
50.812,-14.59
50.828,-21.82
50.843,-29.82
50.859,-38.67
50.875,-48.25
50.890,-57.98
50.906,-66.76
50.921,-73.05
50.937,-75.27
50.953,-72.31
50.968,-64.06
50.984,-51.44
51.000,-36.16
51.015,-20.14
51.031,-4.91
51.046,8.65
51.062,20.25
51.078,29.93
51.093,37.78
51.109,43.82
51.125,48.07
51.140,50.61
51.156,51.75
51.171,52.01
51.187,51.96
51.203,52.03
51.218,52.39
51.234,52.97
51.250,53.42
51.265,53.4
51.281,52.6
51.296,50.98
51.312,48.78
51.328,46.35
51.343,44.01
51.359,41.83
51.375,39.54
51.390,36.66
51.406,32.74
51.421,27.63
51.437,21.68
51.453,15.58
51.468,10.16
51.484,5.97
51.500,3.09
51.515,1.1
51.531,-0.75
51.546,-3.13
51.562,-6.49
51.578,-10.96
51.593,-16.28
51.609,-21.85
51.625,-26.69
51.640,-29.54
51.656,-29.07
51.671,-24.26
51.687,-14.69
51.703,-0.76
51.718,16.33
51.734,35.04
51.750,53.81
51.765,71.45
51.781,87.26
51.796,100.79
51.812,111.74
51.828,119.95
51.843,125.5
51.859,129.1
51.875,132.28
51.890,137.11
51.906,145.27
51.921,157.06
51.937,170.48
51.953,181.3
51.968,184.29
51.984,175.04
52.000,151.55
52.015,114.78
52.031,68.07
52.046,15.85
52.062,-37.53
52.078,-88.4
52.093,-133.79
52.109,-171.29
52.125,-199.22
52.140,-217.21
52.156,-226.48
52.171,-229.66
52.187,-229.73
52.203,-228.71
52.218,-226.88
52.234,-222.99
52.250,-215.32
52.265,-202.89
52.281,-186.05
52.296,-166.18
52.312,-144.64
52.328,-121.92
52.343,-97.41
52.359,-70.04
52.375,-39.26
52.390,-5.79
52.406,28.23
52.421,59.97
52.437,86.78
52.453,106.94
52.468,119.84
52.484,125.68
52.500,125.05
52.515,118.79
52.531,108.03
52.546,94.46
52.562,80.29
52.578,67.99
52.593,59.68
52.609,56.53
52.625,58.49
52.640,64.36
52.656,72.21
52.671,80.0
52.687,86.02
52.703,89.2
52.718,89.15
52.734,86.14
52.750,80.9
52.765,74.35
52.781,67.15
52.796,59.34
52.812,50.47
52.828,40.06
52.843,28.28
52.859,16.33
52.875,6.23
52.890,0.03
52.906,-1.21
52.921,2.05
52.937,7.88
52.953,13.78
52.968,17.66
52.984,18.49
53.000,16.29
53.015,11.76
53.031,5.76
53.046,-0.91
53.062,-7.48
53.078,-13.07
53.093,-16.77
53.109,-17.99
53.125,-16.87
53.140,-14.38
53.156,-12.18
53.171,-12.13
53.187,-15.63
53.203,-23.07
53.218,-33.77
53.234,-46.24
53.250,-58.76
53.265,-70.02
53.281,-79.35
53.296,-86.73
53.312,-92.56
53.328,-97.27
53.343,-101.15
53.359,-104.25
53.375,-106.32
53.390,-106.76
53.406,-104.56
53.421,-98.41
53.437,-86.95
53.453,-69.22
53.468,-44.96
53.484,-14.61
53.500,20.97
53.515,60.9
53.531,104.35
53.546,150.26
53.562,196.81
53.578,241.16
53.593,279.85
53.609,309.74
53.625,329.11
53.640,338.1
53.656,338.38
53.671,331.95
53.687,320.07
53.703,302.91
53.718,279.96
53.734,251.15
53.750,217.76
53.765,182.73
53.781,150.07
53.796,123.82
53.812,106.91
53.828,100.43
53.843,103.42
53.859,113.04
53.875,125.13
53.890,135.16
53.906,139.21
53.921,134.99
53.937,122.3
53.953,102.64
53.968,78.5
53.984,52.0
54.000,24.04
54.015,-5.74
54.031,-38.06
54.046,-72.64
54.062,-107.11
54.078,-137.11
54.093,-157.52
54.109,-164.45
54.125,-156.93
54.140,-137.3
54.156,-110.35
54.171,-81.77
54.187,-56.38
54.203,-37.46
54.218,-26.95
54.234,-26.04
54.250,-35.55
54.265,-55.29
54.281,-83.26
54.296,-115.35
54.312,-146.34
54.328,-171.73
54.343,-189.35
54.359,-199.72
54.375,-204.88
54.390,-206.73
54.406,-206.35
54.421,-204.48
54.437,-203.05
54.453,-205.94
54.468,-217.53
54.484,-239.81
54.500,-269.51
54.515,-297.34
54.531,-310.52
54.546,-297.68
54.562,-253.65
54.578,-181.97
54.593,-93.89
54.609,-4.58
54.625,71.36
54.640,123.09
54.656,144.99
54.671,136.07
54.687,99.29
54.703,41.36
54.718,-27.05
54.734,-91.84
54.750,-137.72
54.765,-152.45
54.781,-131.42
54.796,-80.4
54.812,-14.72
54.828,45.42
54.843,81.44
54.859,82.38
54.875,47.57
54.890,-14.11
54.906,-87.83
54.921,-157.02
54.937,-207.1
54.953,-228.29
54.968,-217.09
54.984,-176.84
55.000,-117.14
55.015,-51.96
55.031,3.61
55.046,37.02
55.062,41.81
55.078,19.39
55.093,-21.74
55.109,-69.2
55.125,-111.05
55.140,-139.58
55.156,-152.59
55.171,-152.18
55.187,-141.9
55.203,-124.32
55.218,-100.4
55.234,-71.05
55.250,-38.81
55.265,-8.43
55.281,14.64
55.296,26.94
55.312,28.9
55.328,24.75
55.343,20.1
55.359,19.29
55.375,23.42
55.390,30.58
55.406,37.57
55.421,41.6
55.437,41.48
55.453,37.69
55.468,31.59
55.484,24.79
55.500,18.53
55.515,13.27
55.531,8.57
55.546,3.18
55.562,-4.67
55.578,-16.67
55.593,-33.96
55.609,-56.92
55.625,-85.12
55.640,-117.35
55.656,-151.64
55.671,-185.26
55.687,-214.87
55.703,-237.18
55.718,-249.61
55.734,-251.36
55.750,-243.84
55.765,-230.4
55.781,-215.34
55.796,-202.55
55.812,-194.21
55.828,-190.23
55.843,-188.58
55.859,-186.25
55.875,-180.43
55.890,-169.64
55.906,-154.05
55.921,-135.14
55.937,-114.87
55.953,-94.72
55.968,-75.41
55.984,-57.15
56.000,-40.23
56.015,-25.38
56.031,-13.59
56.046,-5.41
56.062,-0.44
56.078,2.72
56.093,5.76
56.109,9.68
56.125,14.17
56.140,17.72
56.156,18.55
56.171,15.67
56.187,9.63
56.203,2.43
56.218,-3.15
56.234,-4.64
56.250,-0.71
56.265,8.53
56.281,21.77
56.296,37.12
56.312,52.79
56.328,67.6
56.343,81.17
56.359,93.71
56.375,105.73
56.390,117.66
56.406,129.59
56.421,141.23
56.437,151.93
56.453,160.93
56.468,167.58
56.484,171.48
56.500,172.66
56.515,171.51
56.531,168.61
56.546,164.5
56.562,159.52
56.578,153.71
56.593,146.89
56.609,138.87
56.625,129.58
56.640,119.23
56.656,108.19
56.671,96.95
56.687,85.89
56.703,75.22
56.718,64.92
56.734,54.77
56.750,44.49
56.765,33.78
56.781,22.44
56.796,10.43
56.812,-1.98
56.828,-14.11
56.843,-24.85
56.859,-32.81
56.875,-36.62
56.890,-35.34
56.906,-28.77
56.921,-17.45
56.937,-2.48
56.953,14.86
56.968,33.37
56.984,52.09
57.000,70.16
57.015,86.74
57.031,101.01
57.046,112.37
57.062,120.61
57.078,126.05
57.093,129.33
57.109,131.09
57.125,131.68
57.140,130.99
57.156,128.66
57.171,124.46
57.187,118.55
57.203,111.65
57.218,104.72
57.234,98.65
57.250,93.77
57.265,89.8
57.281,86.01
57.296,81.51
57.312,75.75
57.328,68.6
57.343,60.41
57.359,51.79
57.375,43.31
57.390,35.34
57.406,27.83
57.421,20.4
57.437,12.42
57.453,3.24
57.468,-7.57
57.484,-19.87
57.500,-32.87
57.515,-45.09
57.531,-54.7
57.546,-60.0
57.562,-59.87
57.578,-54.16
57.593,-43.66
57.609,-29.77
57.625,-14.09
57.640,1.97
57.656,17.45
57.671,31.75
57.687,44.52
57.703,55.47
57.718,64.36
57.734,70.98
57.750,75.38
57.765,77.77
57.781,78.58
57.796,78.22
57.812,77.02
57.828,75.06
57.843,72.31
57.859,68.72
57.875,64.37
57.890,59.63
57.906,54.97
57.921,50.82
57.937,47.4
57.953,44.53
57.968,41.76
57.984,38.52
58.000,34.38
58.015,29.23
58.031,23.36
58.046,17.22
58.062,11.33
58.078,5.93
58.093,0.95
58.109,-3.97
58.125,-9.32
58.140,-15.53
58.156,-22.82
58.171,-31.15
58.187,-40.06
58.203,-48.67
58.218,-55.82
58.234,-60.24
58.250,-60.88
58.265,-57.24
58.281,-49.5
58.296,-38.48
58.312,-25.38
58.328,-11.41
58.343,2.42
58.359,15.46
58.375,27.24
58.390,37.45
58.406,45.76
58.421,51.93
58.437,55.9
58.453,57.86
58.468,58.33
58.484,58.01
58.500,57.6
58.515,57.61
58.531,58.28
58.546,59.51
58.562,61.05
58.578,62.59
58.593,63.88
58.609,64.74
58.625,65.02
58.640,64.62
58.656,63.47
58.671,61.61
58.687,59.17
58.703,56.36
58.718,53.38
58.734,50.4
58.750,47.53
58.765,44.82
58.781,42.29
58.796,39.97
58.812,37.81
58.828,35.72
58.843,33.62
58.859,31.42
58.875,29.12
58.890,26.76
58.906,24.46
58.921,22.3
58.937,20.32
58.953,18.5
58.968,16.76
58.984,15.05
59.000,13.31
59.015,11.49
59.031,9.56
59.046,7.54
59.062,5.46
59.078,3.37
59.093,1.35
59.109,-0.56
59.125,-2.38
59.140,-4.18
59.156,-6.01
59.171,-7.94
59.187,-9.93
59.203,-11.93
59.218,-13.93
59.234,-15.97
59.250,-18.13
59.265,-20.45
59.281,-22.92
59.296,-25.41
59.312,-27.82
59.328,-30.12
59.343,-32.52
59.359,-35.31
59.375,-38.78
59.390,-43.03
59.406,-47.83
59.421,-52.75
59.437,-57.26
59.453,-61.04
59.468,-64.05
59.484,-66.58
59.500,-69.12
59.515,-72.28
59.531,-76.62
59.546,-82.45
59.562,-89.68
59.578,-97.64
59.593,-105.01
59.609,-110.08
59.625,-111.14
59.640,-107.05
59.656,-97.67
59.671,-83.92
59.687,-67.5
59.703,-50.37
59.718,-34.22
59.734,-20.18
59.750,-8.76
59.781,6.34
59.796,10.61
59.812,13.23
59.828,14.59
59.843,15.13
59.859,15.26
59.875,15.38
59.890,15.79
59.906,16.63
59.921,17.83
59.937,19.12
59.953,20.16
59.968,20.59
59.984,20.22
