timestamp,value
00.000,42.05
00.015,56.49
00.031,73.06
00.046,90.95
00.062,108.92
00.078,125.56
00.093,139.58
00.109,150.06
00.125,156.55
00.140,158.83
00.156,156.85
00.171,150.44
00.187,139.44
00.203,123.83
00.218,103.78
00.234,79.74
00.250,52.42
00.265,22.77
00.281,-8.01
00.296,-38.44
00.312,-66.86
00.328,-91.58
00.343,-111.23
00.359,-125.0
00.375,-132.83
00.390,-135.2
00.406,-132.82
00.421,-126.21
00.437,-115.53
00.453,-100.63
00.468,-81.42
00.484,-58.26
00.500,-32.23
00.515,-5.12
00.531,20.95
00.546,44.06
00.562,62.97
00.578,77.51
00.593,88.53
00.609,97.54
00.625,106.24
00.640,115.98
00.656,127.44
00.671,140.49
00.687,154.41
00.703,168.1
00.718,180.47
00.734,190.53
00.750,197.55
00.765,200.94
00.781,200.26
00.796,195.33
00.812,186.47
00.828,174.6
00.843,161.24
00.859,148.37
00.875,138.0
00.890,131.99
00.906,132.03
00.921,139.52
00.937,155.29
00.953,178.85
00.968,207.54
00.984,236.46
01.000,259.26
01.015,269.87
01.031,264.51
01.046,242.96
01.062,208.31
01.078,165.53
01.093,119.64
01.109,74.2
01.125,30.98
01.140,-9.5
01.156,-47.13
01.171,-81.84
01.187,-113.53
01.203,-142.5
01.218,-169.71
01.234,-196.88
01.250,-225.84
01.265,-257.59
01.281,-291.5
01.296,-324.82
01.312,-353.23
01.328,-372.23
01.343,-378.96
01.359,-373.45
01.375,-358.89
01.390,-340.61
01.406,-324.02
01.421,-313.02
01.437,-309.06
01.453,-311.54
01.468,-318.75
01.484,-328.75
01.500,-339.47
01.515,-348.32
01.531,-351.95
01.546,-346.63
01.562,-329.47
01.578,-299.94
01.593,-260.62
01.609,-216.8
01.625,-175.04
01.640,-141.0
01.656,-117.71
01.671,-104.84
01.687,-99.19
01.703,-96.01
01.718,-90.79
01.734,-80.79
01.750,-65.87
01.765,-48.27
01.781,-31.46
01.796,-18.55
01.812,-11.0
01.828,-8.09
01.843,-7.64
01.859,-7.11
01.875,-4.87
01.890,-0.73
01.906,4.47
01.921,9.65
01.937,14.3
01.953,18.59
01.968,23.06
01.984,27.9
02.000,32.55
02.015,35.66
02.031,35.63
02.046,31.34
02.062,22.83
02.078,11.5
02.093,-0.3
02.109,-10.07
02.125,-15.93
02.140,-17.19
02.156,-14.44
02.171,-9.02
02.187,-2.58
02.203,3.53
02.218,8.5
02.234,12.08
02.250,14.53
02.265,16.47
02.281,18.75
02.296,22.28
02.312,27.63
02.328,34.7
02.343,42.45
02.359,49.04
02.375,52.36
02.390,50.92
02.406,44.68
02.421,35.35
02.437,26.03
02.453,20.09
02.468,20.05
02.484,26.7
02.500,39.21
02.515,55.74
02.531,74.3
02.546,93.32
02.562,111.56
02.578,127.84
02.593,140.79
02.609,148.92
02.625,151.23
02.640,147.72
02.656,139.59
02.671,128.98
02.687,118.1
02.703,108.48
02.718,100.41
02.734,92.86
02.750,83.85
02.765,70.99
02.781,52.12
02.796,25.83
02.812,-8.11
02.828,-48.39
02.843,-92.21
02.859,-135.45
02.875,-173.25
02.890,-201.06
02.906,-215.51
02.921,-215.38
02.937,-201.75
02.953,-177.74
02.968,-147.61
02.984,-115.83
03.000,-86.23
03.015,-61.4
03.031,-42.58
03.046,-29.65
03.062,-21.43
03.078,-16.1
03.093,-11.67
03.109,-6.55
03.125,0.02
03.140,7.79
03.156,15.6
03.171,21.87
03.187,25.34
03.203,25.51
03.218,22.94
03.234,18.87
03.250,14.75
03.265,11.64
03.281,9.82
03.296,8.9
03.312,8.1
03.328,6.88
03.343,5.0
03.359,2.71
03.375,0.48
03.390,-1.19
03.406,-1.78
03.421,-0.74
03.437,2.57
03.453,8.67
03.468,17.67
03.484,29.01
03.500,41.37
03.515,53.13
03.531,62.87
03.546,69.79
03.562,73.81
03.578,75.46
03.593,75.32
03.609,73.82
03.625,71.23
03.640,67.74
03.656,63.8
03.671,60.15
03.687,57.61
03.703,56.86
03.718,58.17
03.734,61.24
03.750,65.06
03.765,68.03
03.781,68.2
03.796,63.79
03.812,53.94
03.828,39.41
03.843,22.7
03.859,7.46
03.875,-2.74
03.890,-5.75
03.906,-1.65
03.921,7.5
03.937,18.63
03.953,29.05
03.968,37.24
03.984,42.96
04.000,46.51
04.015,47.98
04.031,46.95
04.046,42.8
04.062,35.28
04.078,24.99
04.093,13.23
04.109,1.4
04.125,-9.52
04.140,-19.29
04.156,-27.98
04.171,-35.48
04.187,-41.1
04.203,-43.69
04.218,-42.16
04.234,-36.05
04.250,-25.89
04.265,-12.9
04.281,1.34
04.296,15.42
04.312,28.25
04.328,39.07
04.343,47.23
04.359,52.27
04.375,53.98
04.390,52.53
04.406,48.65
04.421,43.37
04.437,37.85
04.453,33.17
04.468,30.11
04.484,29.09
04.500,30.18
04.515,33.0
04.531,36.74
04.546,40.29
04.562,42.43
04.578,42.17
04.593,39.1
04.609,33.48
04.625,26.03
04.640,17.67
04.656,9.23
04.671,1.36
04.687,-5.3
04.703,-9.96
04.718,-11.59
04.734,-9.2
04.750,-2.35
04.765,8.54
04.781,22.06
04.796,36.14
04.812,48.65
04.828,57.74
04.843,61.92
04.859,59.95
04.875,50.93
04.890,34.55
04.906,11.76
04.921,-14.78
04.937,-40.96
04.953,-62.26
04.968,-75.14
04.984,-78.25
05.000,-72.78
05.015,-61.69
05.031,-48.46
05.046,-35.81
05.062,-25.11
05.078,-16.5
05.093,-9.46
05.109,-3.44
05.125,1.72
05.140,5.7
05.156,7.84
05.171,7.38
05.187,3.82
05.203,-2.79
05.218,-11.72
05.234,-21.55
05.250,-30.55
05.265,-37.22
05.281,-40.74
05.296,-41.18
05.312,-39.26
05.328,-35.9
05.343,-31.93
05.359,-27.88
05.375,-24.16
05.390,-21.05
05.406,-18.64
05.421,-16.6
05.437,-14.09
05.453,-10.06
05.468,-3.68
05.484,5.1
05.500,15.4
05.515,25.74
05.531,34.69
05.546,41.46
05.562,46.11
05.578,49.22
05.593,51.47
05.609,53.2
05.625,54.48
05.640,55.28
05.656,55.79
05.671,56.19
05.687,56.46
05.703,55.93
05.718,53.16
05.734,46.44
05.750,34.58
05.765,17.86
05.781,-1.65
05.796,-20.45
05.812,-34.85
05.828,-42.23
05.843,-41.95
05.859,-35.42
05.875,-25.21
05.890,-13.94
05.906,-3.28
05.921,6.28
05.937,15.03
05.953,23.31
05.968,30.87
05.984,36.89
06.000,40.24
06.015,40.16
06.031,36.55
06.046,30.14
06.062,22.16
06.078,14.03
06.093,6.85
06.109,1.21
06.125,-2.82
06.140,-5.7
06.156,-8.07
06.171,-10.61
06.187,-13.81
06.203,-17.93
06.218,-22.95
06.234,-28.7
06.250,-34.93
06.265,-41.35
06.281,-47.72
06.296,-53.64
06.312,-58.77
06.328,-62.8
06.343,-65.64
06.359,-67.45
06.375,-68.43
06.390,-68.75
06.406,-68.21
06.421,-66.37
06.437,-62.68
06.453,-56.8
06.468,-48.91
06.484,-39.61
06.500,-29.8
06.515,-20.3
06.531,-11.74
06.546,-4.46
06.562,1.23
06.578,5.16
06.593,7.2
06.609,7.54
06.625,6.88
06.640,6.39
06.656,7.52
06.671,11.39
06.687,18.42
06.703,28.13
06.718,39.31
06.734,50.58
06.750,60.83
06.765,69.61
06.781,76.97
06.796,83.11
06.812,87.8
06.828,90.27
06.843,89.08
06.859,82.68
06.875,69.96
06.890,50.82
06.906,26.55
06.921,-0.13
06.937,-25.52
06.953,-45.82
06.968,-58.2
06.984,-61.7
07.000,-57.53
07.015,-48.47
07.031,-37.78
07.046,-27.82
07.062,-19.4
07.078,-11.8
07.093,-3.71
07.109,5.7
07.125,16.04
07.140,25.74
07.156,32.82
07.171,35.91
07.187,34.95
07.203,31.26
07.218,26.93
07.234,23.84
07.250,22.9
07.265,23.85
07.281,25.65
07.296,27.3
07.312,28.41
07.328,29.37
07.343,30.77
07.359,32.69
07.375,34.11
07.390,32.97
07.406,26.93
07.421,14.38
07.437,-4.65
07.453,-28.2
07.468,-52.77
07.484,-74.29
07.500,-89.22
07.515,-95.51
07.531,-93.09
07.546,-83.66
07.562,-70.09
07.578,-55.31
07.593,-41.49
07.609,-29.62
07.625,-19.65
07.640,-11.11
07.656,-3.68
07.671,2.41
07.687,6.61
07.703,8.43
07.718,7.92
07.734,5.76
07.750,3.06
07.765,0.88
07.781,-0.08
07.796,0.32
07.812,1.79
07.828,3.93
07.843,6.51
07.859,9.76
07.875,14.36
07.890,21.25
07.906,31.17
07.921,44.13
07.937,59.04
07.953,73.74
07.968,85.43
07.984,91.48
08.000,90.1
08.015,80.95
08.031,65.3
08.046,45.73
08.062,25.64
08.078,8.46
08.093,-3.0
08.109,-7.18
08.125,-4.02
08.140,5.05
08.156,17.67
08.171,31.29
08.187,43.89
08.203,54.4
08.218,62.79
08.234,69.6
08.250,75.51
08.265,80.8
08.281,85.26
08.296,88.4
08.312,89.76
08.328,89.36
08.343,87.75
08.359,85.89
08.375,84.66
08.390,84.65
08.406,85.82
08.421,87.65
08.437,89.37
08.453,90.21
08.468,89.34
08.484,85.67
08.500,77.67
08.515,63.46
08.531,41.4
08.546,10.96
08.562,-26.71
08.578,-68.57
08.593,-110.23
08.609,-146.99
08.625,-174.98
08.640,-192.03
08.656,-198.03
08.671,-194.71
08.687,-184.82
08.703,-171.34
08.718,-156.66
08.734,-142.28
08.750,-128.76
08.765,-116.18
08.781,-104.52
08.796,-93.91
08.812,-84.66
08.828,-77.0
08.843,-70.95
08.859,-66.4
08.875,-63.31
08.890,-61.81
08.906,-62.05
08.921,-63.88
08.937,-66.47
08.953,-68.41
08.968,-68.1
08.984,-64.46
09.000,-57.4
09.015,-47.92
09.031,-37.65
09.046,-28.1
09.062,-20.03
09.078,-13.19
09.093,-6.64
09.109,0.68
09.125,9.28
09.140,18.66
09.156,27.53
09.171,34.3
09.187,37.82
09.203,37.84
09.218,35.04
09.234,30.72
09.250,26.26
09.265,22.75
09.281,20.82
09.296,20.72
09.312,22.4
09.328,25.58
09.343,29.67
09.359,33.79
09.375,36.87
09.390,38.18
09.406,37.6
09.421,35.93
09.437,34.6
09.453,35.03
09.468,37.84
09.484,42.28
09.500,46.27
09.515,47.27
09.531,43.46
09.546,34.97
09.562,23.99
09.578,14.13
09.593,8.84
09.609,9.91
09.625,16.83
09.640,27.23
09.656,38.12
09.671,47.28
09.687,53.84
09.703,58.16
09.718,60.97
09.734,62.7
09.750,63.05
09.765,61.3
09.781,56.65
09.796,48.49
09.812,36.51
09.828,20.7
09.843,1.41
09.859,-20.41
09.875,-43.06
09.890,-64.17
09.906,-81.06
09.921,-91.57
09.937,-94.65
09.953,-90.81
09.968,-81.79
09.984,-70.0
10.000,-57.73
10.015,-46.68
10.031,-37.75
10.046,-31.19
10.062,-26.85
10.078,-24.34
10.093,-23.0
10.109,-21.94
10.125,-20.17
10.140,-16.95
10.156,-12.17
10.171,-6.57
10.187,-1.59
10.203,1.24
10.218,0.92
10.234,-2.43
10.250,-7.57
10.265,-12.53
10.281,-15.29
10.296,-14.51
10.312,-9.84
10.328,-1.94
10.343,7.9
10.359,18.18
10.375,27.66
10.390,35.54
10.406,41.57
10.421,45.9
10.437,48.86
10.453,50.76
10.468,51.66
10.484,51.39
10.500,49.56
10.515,45.74
10.531,39.64
10.546,31.16
10.562,20.59
10.578,8.6
10.593,-3.75
10.609,-15.06
10.625,-23.83
10.640,-28.74
10.656,-29.11
10.671,-25.15
10.687,-18.0
10.703,-9.34
10.718,-0.9
10.734,6.04
10.750,10.83
10.765,13.39
10.781,13.91
10.796,12.57
10.812,9.64
10.828,5.41
10.843,0.51
10.859,-4.27
10.875,-8.15
10.890,-10.72
10.906,-12.07
10.921,-12.79
10.937,-13.58
10.953,-14.9
10.968,-16.82
10.984,-19.05
11.000,-21.22
11.015,-23.15
11.031,-24.84
11.046,-26.37
11.062,-27.65
11.078,-28.32
11.093,-27.83
11.109,-25.75
11.125,-22.09
11.140,-17.47
11.156,-12.91
11.171,-9.43
11.187,-7.55
11.203,-7.01
11.218,-6.99
11.234,-6.55
11.250,-5.19
11.265,-3.01
11.281,-0.6
11.296,1.36
11.312,2.57
11.328,3.18
11.343,3.69
11.359,4.55
11.375,5.91
11.390,7.42
11.406,8.55
11.421,8.82
11.437,8.13
11.453,6.88
11.468,5.91
11.484,6.3
11.500,8.93
11.515,14.32
11.531,22.3
11.546,32.01
11.562,42.06
11.578,50.77
11.593,56.52
11.609,58.01
11.625,54.55
11.640,46.16
11.656,33.7
11.671,18.74
11.687,3.46
11.703,-9.58
11.718,-18.08
11.734,-20.5
11.750,-16.64
11.765,-7.76
11.781,3.76
11.796,15.2
11.812,24.39
11.828,30.39
11.843,33.62
11.859,35.37
11.875,36.92
11.890,38.93
11.906,41.35
11.921,43.67
11.937,45.53
11.953,47.06
11.968,48.7
11.984,50.71
12.000,52.7
12.015,53.42
12.031,51.2
12.046,44.59
12.062,33.02
12.078,17.03
12.093,-1.83
12.109,-21.52
12.125,-39.85
12.140,-54.96
12.156,-65.54
12.171,-71.05
12.187,-71.89
12.203,-69.32
12.218,-65.09
12.234,-60.93
12.250,-57.96
12.265,-56.36
12.281,-55.63
12.296,-54.95
12.312,-53.73
12.328,-51.7
12.343,-48.85
12.359,-45.11
12.375,-40.33
12.390,-34.56
12.406,-28.28
12.421,-22.45
12.437,-18.22
12.453,-16.26
12.468,-16.4
12.484,-17.6
12.500,-18.41
12.515,-17.75
12.531,-15.32
12.546,-11.62
12.562,-7.45
12.578,-3.31
12.593,0.81
12.609,5.25
12.625,10.11
12.640,14.98
12.656,18.88
12.671,20.86
12.687,20.69
12.703,19.31
12.718,18.62
12.734,20.75
12.750,26.99
12.765,36.99
12.781,48.74
12.796,59.25
12.812,65.77
12.828,66.7
12.843,62.13
12.859,53.54
12.875,43.12
12.890,33.0
12.906,24.62
12.921,18.56
12.937,14.47
12.953,11.42
12.968,8.18
12.984,3.85
13.000,-1.75
13.015,-7.94
13.031,-13.47
13.046,-17.18
13.062,-18.6
13.078,-18.19
13.093,-17.02
13.109,-16.11
13.125,-15.91
13.140,-16.21
13.156,-16.51
13.171,-16.54
13.187,-16.56
13.203,-17.19
13.218,-18.96
13.234,-21.81
13.250,-25.01
13.265,-27.59
13.281,-28.82
13.296,-28.73
13.312,-28.02
13.328,-27.64
13.343,-28.12
13.359,-29.21
13.375,-29.99
13.390,-29.36
13.406,-26.68
13.421,-22.15
13.437,-16.62
13.453,-11.22
13.468,-6.75
13.484,-3.51
13.500,-1.29
13.515,0.29
13.531,1.57
13.546,2.73
13.562,3.91
13.578,5.25
13.593,6.98
13.609,9.37
13.625,12.58
13.640,16.62
13.656,21.3
13.671,26.36
13.687,31.39
13.703,35.84
13.718,39.04
13.734,40.23
13.750,38.83
13.765,34.48
13.781,27.19
13.796,17.39
13.812,5.89
13.828,-6.11
13.843,-17.1
13.859,-25.48
13.875,-29.77
13.890,-29.12
13.906,-23.63
13.921,-14.45
13.937,-3.47
13.953,7.22
13.968,15.99
13.984,22.11
14.000,25.71
14.015,27.38
14.031,27.63
14.046,26.5
14.062,23.67
14.078,19.01
14.093,12.94
14.109,6.71
14.125,1.89
14.140,-0.34
14.156,0.09
14.171,1.95
14.187,3.21
14.203,2.01
14.218,-2.51
14.234,-9.91
14.250,-18.57
14.265,-26.54
14.281,-32.27
14.296,-35.1
14.312,-35.23
14.328,-33.28
14.343,-29.96
14.359,-25.79
14.375,-21.15
14.390,-16.4
14.406,-12.08
14.421,-8.79
14.437,-6.93
14.453,-6.52
14.468,-6.99
14.484,-7.39
14.500,-6.75
14.515,-4.56
14.531,-0.81
14.546,3.87
14.562,8.54
14.578,12.34
14.593,14.7
14.609,15.48
14.625,14.99
14.640,13.86
14.656,12.81
14.671,12.52
14.687,13.36
14.703,15.42
14.718,18.66
14.734,22.92
14.750,28.1
14.765,34.11
14.781,40.84
14.796,47.91
14.812,54.68
14.828,60.22
14.843,63.39
14.859,63.15
14.875,58.71
14.890,49.81
14.906,36.84
14.921,20.89
14.937,3.54
14.953,-13.31
14.968,-27.82
14.984,-38.45
15.000,-44.19
15.015,-44.86
15.031,-41.15
15.046,-34.55
15.062,-27.0
15.078,-20.27
15.093,-15.39
15.109,-12.42
15.125,-10.73
15.140,-9.47
15.156,-8.25
15.171,-7.31
15.187,-7.2
15.203,-8.27
15.218,-10.21
15.234,-12.03
15.250,-12.59
15.265,-11.39
15.281,-8.82
15.296,-6.14
15.312,-4.78
15.328,-5.67
15.343,-8.82
15.359,-13.39
15.375,-18.3
15.390,-22.74
15.406,-26.5
15.421,-29.78
15.437,-32.84
15.453,-35.55
15.468,-37.37
15.484,-37.69
15.500,-36.2
15.515,-33.14
15.531,-29.17
15.546,-25.06
15.562,-21.26
15.578,-17.75
15.593,-14.11
15.609,-9.81
15.625,-4.56
15.640,1.55
15.656,7.95
15.671,13.79
15.687,18.11
15.703,20.09
15.718,19.42
15.734,16.33
15.750,11.69
15.765,6.67
15.781,2.39
15.796,-0.47
15.812,-1.76
15.828,-1.79
15.843,-0.94
15.859,0.52
15.875,2.57
15.890,5.33
15.906,8.83
15.921,12.98
15.937,17.39
15.953,21.55
15.968,24.8
15.984,26.48
16.000,26.03
16.015,23.24
16.031,18.27
16.046,11.8
16.062,4.94
16.078,-1.09
16.093,-5.24
16.109,-6.96
16.125,-6.42
16.140,-4.3
16.156,-1.55
16.171,0.96
16.187,2.73
16.203,3.65
16.218,3.79
16.234,3.28
16.250,1.99
16.265,-0.33
16.281,-3.79
16.296,-8.03
16.312,-12.21
16.328,-15.11
16.343,-15.7
16.359,-13.66
16.375,-9.58
16.390,-4.83
16.406,-1.04
16.421,0.58
16.437,-0.4
16.453,-3.54
16.468,-7.8
16.484,-11.94
16.500,-15.09
16.515,-16.87
16.531,-17.5
16.546,-17.67
16.562,-18.17
16.578,-19.58
16.593,-21.98
16.609,-24.83
16.625,-27.1
16.640,-27.78
16.656,-26.24
16.671,-22.56
16.687,-17.38
16.703,-11.45
16.718,-5.26
16.734,1.18
16.750,8.0
16.765,15.1
16.781,21.79
16.796,26.96
16.812,29.48
16.828,28.83
16.843,25.38
16.859,20.27
16.875,14.92
16.890,10.44
16.906,7.39
16.921,5.75
16.937,5.31
16.953,5.94
16.968,7.59
16.984,10.26
17.000,13.68
17.015,17.2
17.031,19.82
17.046,20.51
17.062,18.55
17.078,13.93
17.093,7.51
17.109,0.78
17.125,-4.51
17.140,-7.01
17.156,-6.18
17.171,-2.32
17.187,3.57
17.203,10.33
17.218,17.02
17.234,23.17
17.250,28.64
17.265,33.4
17.281,37.14
17.296,39.38
17.312,39.35
17.328,36.38
17.343,30.2
17.359,21.22
17.375,10.61
17.390,0.1
17.406,-8.46
17.421,-13.82
17.437,-15.6
17.453,-14.51
17.468,-11.91
17.484,-9.3
17.500,-7.77
17.515,-7.78
17.531,-9.31
17.546,-12.13
17.562,-15.99
17.578,-20.64
17.593,-25.67
17.609,-30.32
17.625,-33.6
17.640,-34.56
17.656,-32.74
17.671,-28.42
17.687,-22.58
17.703,-16.39
17.718,-10.69
17.734,-5.67
17.750,-1.0
17.765,3.8
17.781,8.88
17.796,13.89
17.812,18.26
17.828,21.65
17.843,24.3
17.859,26.94
17.875,30.25
17.890,34.51
17.906,39.27
17.921,43.61
17.937,46.79
17.953,48.69
17.968,50.03
17.984,52.05
18.000,55.98
18.015,62.56
18.031,71.73
18.046,82.57
18.062,93.39
18.078,102.07
18.093,106.24
18.109,103.85
18.125,93.63
18.140,75.5
18.156,50.83
18.171,22.14
18.187,-7.48
18.203,-35.12
18.218,-58.64
18.234,-76.78
18.250,-89.09
18.265,-95.49
18.281,-96.19
18.296,-91.6
18.312,-82.56
18.328,-70.42
18.343,-56.84
18.359,-43.34
18.375,-31.07
18.390,-20.66
18.406,-12.48
18.421,-6.8
18.437,-3.86
18.453,-3.55
18.468,-5.12
18.484,-7.19
18.500,-8.1
18.515,-6.65
18.531,-2.72
18.546,2.61
18.562,7.37
18.578,9.44
18.593,7.29
18.609,0.4
18.625,-10.77
18.640,-25.0
18.656,-40.62
18.671,-55.77
18.687,-68.57
18.703,-77.44
18.718,-81.4
18.734,-80.27
18.750,-74.83
18.765,-66.53
18.781,-57.0
18.796,-47.56
18.812,-38.77
18.828,-30.61
18.843,-22.67
18.859,-14.75
18.875,-6.91
18.890,0.46
18.906,6.85
18.921,11.89
18.937,15.4
18.953,17.38
18.968,17.97
18.984,17.46
19.000,16.35
19.015,15.24
19.031,14.69
19.046,14.93
19.062,15.81
19.078,16.92
19.093,18.0
19.109,19.16
19.125,20.97
19.140,24.17
19.156,29.16
19.171,35.63
19.187,42.58
19.203,48.49
19.218,51.79
19.234,51.33
19.250,46.62
19.265,37.9
19.281,26.05
19.296,12.46
19.312,-1.18
19.328,-13.03
19.343,-21.41
19.359,-25.17
19.375,-24.02
19.390,-18.68
19.406,-10.64
19.421,-1.75
19.437,6.35
19.453,12.62
19.468,16.55
19.484,17.95
19.500,16.66
19.515,12.59
19.531,6.03
19.546,-1.89
19.562,-9.18
19.578,-13.54
19.593,-13.21
19.609,-7.84
19.625,1.15
19.640,11.01
19.656,18.6
19.671,21.41
19.687,18.25
19.703,9.43
19.718,-3.5
19.734,-18.25
19.750,-32.35
19.765,-43.69
19.781,-50.89
19.796,-53.6
19.812,-52.39
19.828,-48.53
19.843,-43.47
19.859,-38.37
19.875,-33.87
19.890,-30.08
19.906,-26.71
19.921,-23.42
19.937,-19.87
19.953,-15.81
19.968,-11.01
19.984,-5.24
20.000,1.62
20.015,9.32
20.031,17.24
20.046,24.36
20.062,29.67
20.078,32.56
20.093,33.09
20.109,31.99
20.125,30.32
20.140,29.13
20.156,29.1
20.171,30.51
20.187,33.37
20.203,37.59
20.218,43.03
20.234,49.2
20.250,55.07
20.265,58.97
20.281,58.92
20.296,53.34
20.312,41.66
20.328,24.81
20.343,5.05
20.359,-14.54
20.375,-31.0
20.390,-42.11
20.406,-46.87
20.421,-45.49
20.437,-39.06
20.453,-29.2
20.468,-17.66
20.484,-6.1
20.500,4.16
20.515,12.16
20.531,17.52
20.546,20.26
20.562,20.63
20.578,18.95
20.593,15.51
20.609,10.69
20.625,5.1
20.640,-0.28
20.656,-4.33
20.671,-6.07
20.687,-5.27
20.703,-2.55
20.718,0.67
20.734,2.71
20.750,2.18
20.765,-1.62
20.781,-8.55
20.796,-17.73
20.812,-27.88
20.828,-37.55
20.843,-45.37
20.859,-50.17
20.875,-51.26
20.890,-48.59
20.906,-42.88
20.921,-35.41
20.937,-27.74
20.953,-21.19
20.968,-16.43
20.984,-13.41
21.000,-11.44
21.015,-9.7
21.031,-7.58
21.046,-4.79
21.062,-1.35
21.078,2.65
21.093,7.03
21.109,11.6
21.125,15.97
21.140,19.63
21.156,21.99
21.171,22.81
21.187,22.27
21.203,21.06
21.218,20.14
21.234,20.45
21.250,22.7
21.265,27.21
21.281,33.94
21.296,42.29
21.312,51.22
21.328,59.21
21.343,64.39
21.359,65.08
21.375,60.09
21.390,49.28
21.406,33.56
21.421,14.75
21.437,-4.88
21.453,-23.04
21.468,-37.85
21.484,-48.04
21.500,-53.03
21.515,-52.85
21.531,-48.18
21.546,-40.2
21.562,-30.39
21.578,-20.32
21.593,-11.12
21.609,-3.35
21.625,3.08
21.640,8.53
21.656,13.33
21.671,17.46
21.687,20.64
21.703,22.59
21.718,23.42
21.734,23.77
21.750,24.62
21.765,26.77
21.781,30.56
21.796,35.58
21.812,40.81
21.828,44.87
21.843,46.2
21.859,43.34
21.875,35.19
21.890,21.22
21.906,1.91
21.921,-21.11
21.937,-45.17
21.953,-67.17
21.968,-84.24
21.984,-94.57
22.000,-97.72
22.015,-94.5
22.031,-86.45
22.046,-75.29
22.062,-62.44
22.078,-49.05
22.093,-36.03
22.109,-24.25
22.125,-14.37
22.140,-6.81
22.156,-1.61
22.171,1.51
22.187,2.94
22.203,3.06
22.218,2.17
22.234,0.55
22.250,-1.39
22.265,-3.1
22.281,-4.02
22.296,-3.73
22.312,-2.19
22.328,0.35
22.343,3.53
22.359,7.06
22.375,10.86
22.390,15.01
22.406,19.54
22.421,24.29
22.437,28.82
22.453,32.44
22.468,34.38
22.484,34.01
22.500,31.07
22.515,25.8
22.531,18.94
22.546,11.49
22.562,4.49
22.578,-1.12
22.593,-4.7
22.609,-5.96
22.625,-4.95
22.640,-2.07
22.656,2.03
22.671,6.66
22.687,11.21
22.703,15.24
22.718,18.44
22.734,20.46
22.750,20.8
22.765,18.98
22.781,14.98
22.796,9.5
22.812,4.14
22.828,0.7
22.843,0.54
22.859,3.81
22.875,9.31
22.890,14.92
22.906,18.47
22.921,18.44
22.937,14.31
22.953,6.38
22.968,-4.58
22.984,-17.55
23.000,-31.22
23.015,-43.93
23.031,-53.86
23.046,-59.42
23.062,-60.0
23.078,-56.3
23.093,-50.0
23.109,-43.13
23.125,-37.15
23.140,-32.5
23.156,-28.84
23.171,-25.6
23.187,-22.47
23.203,-19.6
23.218,-17.37
23.234,-15.89
23.250,-14.8
23.265,-13.43
23.281,-11.18
23.296,-7.98
23.312,-4.32
23.328,-1.03
23.343,1.19
23.359,2.2
23.375,2.51
23.390,3.04
23.406,4.67
23.421,7.81
23.437,12.15
23.453,16.67
23.468,19.98
23.484,20.72
23.500,18.06
23.515,12.1
23.531,3.83
23.546,-5.08
23.562,-12.72
23.578,-17.56
23.593,-18.82
23.609,-16.63
23.625,-11.83
23.640,-5.47
23.656,1.58
23.671,8.7
23.687,15.55
23.703,21.73
23.718,26.71
23.734,29.97
23.750,31.33
23.765,31.12
23.781,30.09
23.796,28.99
23.812,28.15
23.828,27.33
23.843,26.1
23.859,24.24
23.875,22.21
23.890,20.97
23.906,21.43
23.921,23.83
23.937,27.44
23.953,30.76
23.968,32.04
23.984,29.94
24.000,23.91
24.015,14.22
24.031,1.86
24.046,-11.81
24.062,-25.24
24.078,-36.99
24.093,-45.99
24.109,-51.67
24.125,-54.05
24.140,-53.55
24.156,-50.77
24.171,-46.26
24.187,-40.37
24.203,-33.46
24.218,-25.95
24.234,-18.4
24.250,-11.37
24.265,-5.12
24.281,0.45
24.296,5.73
24.312,11.02
24.328,16.16
24.343,20.45
24.359,23.0
24.375,23.26
24.390,21.47
24.406,18.78
24.421,16.81
24.437,17.07
24.453,20.42
24.468,26.88
24.484,35.84
24.500,46.33
24.515,57.14
24.531,66.72
24.546,73.11
24.562,74.24
24.578,68.42
24.593,55.16
24.609,35.57
24.625,12.44
24.640,-10.47
24.656,-29.48
24.671,-42.04
24.687,-47.26
24.703,-45.92
24.718,-39.96
24.734,-31.56
24.750,-22.59
24.765,-14.19
24.781,-6.81
24.796,-0.5
24.812,4.85
24.828,9.39
24.843,13.34
24.859,16.94
24.875,20.45
24.890,23.98
24.906,27.39
24.921,30.39
24.937,32.73
24.953,34.5
24.968,36.03
24.984,37.71
25.000,39.48
25.015,40.63
25.031,39.75
25.046,35.12
25.062,25.38
25.078,10.06
25.093,-10.07
25.109,-33.1
25.125,-56.43
25.140,-77.31
25.156,-93.43
25.171,-103.39
25.187,-106.98
25.203,-105.08
25.218,-99.36
25.234,-91.63
25.250,-83.25
25.265,-74.85
25.281,-66.28
25.296,-57.07
25.312,-46.91
25.328,-35.98
25.343,-24.84
25.359,-14.33
25.375,-5.15
25.390,2.22
25.406,7.57
25.421,10.9
25.437,12.33
25.453,12.12
25.468,10.76
25.484,9.02
25.500,7.72
25.515,7.63
25.531,9.19
25.546,12.32
25.562,16.6
25.578,21.39
25.593,26.05
25.609,30.08
25.625,33.26
25.640,35.49
25.656,36.77
25.671,36.99
25.687,35.89
25.703,33.1
25.718,28.42
25.734,22.02
25.750,14.6
25.765,7.43
25.781,1.97
25.796,-0.48
25.812,0.67
25.828,5.06
25.843,11.48
25.859,18.45
25.875,24.74
25.890,29.83
25.906,33.88
25.921,37.26
25.937,40.03
25.953,41.55
25.968,40.78
25.984,36.85
26.000,29.86
26.015,21.1
26.031,12.81
26.046,7.27
26.062,5.76
26.078,8.02
26.093,12.28
26.109,15.9
26.125,16.42
26.140,12.28
26.156,3.23
26.171,-9.89
26.187,-25.51
26.203,-41.84
26.218,-57.07
26.234,-69.58
26.250,-78.05
26.265,-81.67
26.281,-80.39
26.296,-75.0
26.312,-66.97
26.328,-57.96
26.343,-49.41
26.359,-42.09
26.375,-36.14
26.390,-31.2
26.406,-26.71
26.421,-22.1
26.437,-16.9
26.453,-10.85
26.468,-3.9
26.484,3.69
26.500,11.46
26.515,18.95
26.531,25.88
26.546,32.26
26.562,38.29
26.578,44.16
26.593,49.94
26.609,55.51
26.625,60.8
26.640,65.86
26.656,70.84
26.671,75.6
26.687,79.5
26.703,81.3
26.718,79.61
26.734,73.36
26.750,62.35
26.765,47.42
26.781,30.13
26.796,12.24
26.812,-4.75
26.828,-19.74
26.843,-31.86
26.859,-40.21
26.875,-43.8
26.890,-41.9
26.906,-34.49
26.921,-22.61
26.937,-8.25
26.953,6.25
26.968,18.95
26.984,28.78
27.000,35.53
27.015,39.41
27.031,40.52
27.046,38.74
27.062,34.01
27.078,26.89
27.093,18.87
27.109,12.03
27.125,8.25
27.140,8.22
27.156,10.95
27.171,13.94
27.187,14.08
27.203,8.76
27.218,-3.17
27.234,-21.05
27.250,-42.67
27.265,-64.89
27.281,-84.44
27.296,-98.59
27.312,-105.71
27.328,-105.53
27.343,-99.11
27.359,-88.5
27.375,-76.09
27.390,-63.95
27.406,-53.37
27.421,-44.74
27.437,-37.76
27.453,-31.94
27.468,-26.85
27.484,-22.19
27.500,-17.65
27.515,-12.92
27.531,-7.71
27.546,-2.08
27.562,3.37
27.578,7.66
27.593,9.89
27.609,9.74
27.625,7.9
27.640,5.86
27.656,5.38
27.671,7.78
27.687,13.4
27.703,21.64
27.718,31.22
27.734,40.75
27.750,48.98
27.765,54.89
27.781,57.64
27.796,56.47
27.812,50.92
27.828,40.98
27.843,27.49
27.859,12.01
27.875,-3.36
27.890,-16.52
27.906,-25.81
27.921,-30.42
27.937,-30.34
27.953,-26.31
27.968,-19.53
27.984,-11.5
28.000,-3.66
28.015,2.82
28.031,7.36
28.046,10.1
28.062,11.68
28.078,12.91
28.093,14.42
28.109,16.29
28.125,18.33
28.140,20.38
28.156,22.55
28.171,25.32
28.187,29.15
28.203,34.09
28.218,39.43
28.234,43.95
28.250,46.13
28.265,44.73
28.281,39.1
28.296,29.19
28.312,15.55
28.328,-0.85
28.343,-18.77
28.359,-36.81
28.375,-53.44
28.390,-67.27
28.406,-77.17
28.421,-82.48
28.437,-83.13
28.453,-79.53
28.468,-72.46
28.484,-62.86
28.500,-51.74
28.515,-40.0
28.531,-28.49
28.546,-17.86
28.562,-8.54
28.578,-0.62
28.593,6.05
28.609,11.78
28.625,16.77
28.640,21.03
28.656,24.4
28.671,26.7
28.687,28.04
28.703,28.93
28.718,30.15
28.734,32.44
28.750,36.21
28.765,41.29
28.781,47.08
28.796,52.92
28.812,58.17
28.828,62.41
28.843,65.36
28.859,66.74
28.875,66.28
28.890,63.76
28.906,59.08
28.921,52.32
28.937,43.65
28.953,33.16
28.968,21.03
28.984,7.53
29.000,-6.73
29.015,-20.7
29.031,-33.02
29.046,-42.35
29.062,-47.72
29.078,-48.76
29.093,-45.84
29.109,-39.79
29.125,-31.64
29.140,-22.35
29.156,-12.77
29.171,-3.82
29.187,3.36
29.203,7.5
29.218,7.66
29.234,3.96
29.250,-2.16
29.265,-8.03
29.281,-10.79
29.296,-8.48
29.312,-0.97
29.328,9.9
29.343,20.89
29.359,28.64
29.375,30.59
29.390,25.59
29.406,13.96
29.421,-2.92
29.437,-22.79
29.453,-42.94
29.468,-60.46
29.484,-72.88
29.500,-78.71
29.515,-77.97
29.531,-72.05
29.546,-63.26
29.562,-53.99
29.578,-45.93
29.593,-39.77
29.609,-35.37
29.625,-32.19
29.640,-29.66
29.656,-27.36
29.671,-24.9
29.687,-21.78
29.703,-17.58
29.718,-12.16
29.734,-5.83
29.750,0.58
29.765,6.12
29.781,10.17
29.796,12.69
29.812,14.26
29.828,15.81
29.843,18.09
29.859,21.46
29.875,25.85
29.890,30.88
29.906,36.08
29.921,40.94
29.937,44.84
29.953,47.0
29.968,46.54
29.984,42.79
30.000,35.47
30.015,25.04
30.031,12.63
30.046,-0.09
30.062,-11.25
30.078,-19.24
30.093,-22.96
30.109,-22.04
30.125,-16.83
30.140,-8.23
30.156,2.42
30.171,13.62
30.187,24.01
30.203,32.63
30.218,39.03
30.234,43.33
30.250,46.05
30.265,47.67
30.281,48.42
30.296,48.13
30.312,46.4
30.328,43.04
30.343,38.38
30.359,33.36
30.375,29.22
30.390,26.88
30.406,26.43
30.421,26.98
30.437,26.83
30.453,24.17
30.468,17.71
30.484,7.22
30.500,-6.38
30.515,-21.3
30.531,-35.44
30.546,-47.02
30.562,-55.07
30.578,-59.58
30.593,-61.23
30.609,-60.92
30.625,-59.34
30.640,-56.75
30.656,-53.13
30.671,-48.47
30.687,-43.13
30.703,-37.7
30.718,-32.85
30.734,-28.85
30.750,-25.41
30.765,-21.8
30.781,-17.28
30.796,-11.58
30.812,-5.22
30.828,0.71
30.843,5.0
30.859,6.96
30.875,6.85
30.890,5.8
30.906,5.43
30.921,7.21
30.937,11.94
30.953,19.48
30.968,29.06
30.984,39.72
31.000,50.71
31.015,61.6
31.031,72.02
31.046,81.27
31.062,88.09
31.078,90.84
31.093,87.97
31.109,78.68
31.125,63.26
31.140,43.17
31.156,20.61
31.171,-2.08
31.187,-22.93
31.203,-40.47
31.218,-53.75
31.234,-62.13
31.250,-65.26
31.265,-63.26
31.281,-56.91
31.296,-47.59
31.312,-36.97
31.328,-26.56
31.343,-17.3
31.359,-9.69
31.375,-4.0
31.390,-0.61
31.406,0.05
31.421,-2.16
31.437,-6.56
31.453,-11.52
31.468,-14.95
31.484,-15.15
31.500,-11.73
31.515,-5.9
31.531,-0.1
31.546,2.93
31.562,1.14
31.578,-6.15
31.593,-18.06
31.609,-32.54
31.625,-47.01
31.640,-59.05
31.656,-66.96
31.671,-70.03
31.687,-68.62
31.703,-63.88
31.718,-57.23
31.734,-49.94
31.750,-42.75
31.765,-35.89
31.781,-29.24
31.796,-22.56
31.812,-15.79
31.828,-9.07
31.843,-2.6
31.859,3.47
31.875,9.02
31.890,13.9
31.906,17.73
31.921,19.96
31.937,20.0
31.953,17.64
31.968,13.33
31.984,8.29
32.000,4.14
32.015,2.23
32.031,3.1
32.046,6.24
32.062,10.52
32.078,14.61
32.093,17.8
32.109,20.14
32.125,22.27
32.140,25.05
32.156,28.93
32.171,33.69
32.187,38.49
32.203,42.04
32.218,43.0
32.234,40.36
32.250,33.8
32.265,23.82
32.281,11.7
32.296,-0.76
32.312,-11.59
32.328,-19.18
32.343,-22.68
32.359,-22.13
32.375,-18.38
32.390,-12.79
32.406,-6.81
32.421,-1.59
32.437,2.15
32.453,4.13
32.468,4.31
32.484,2.69
32.500,-0.55
32.515,-4.93
32.531,-9.51
32.546,-12.93
32.562,-13.8
32.578,-11.3
32.593,-5.68
32.609,1.8
32.625,9.18
32.640,14.64
32.656,17.01
32.671,15.93
32.687,11.77
32.703,5.27
32.718,-2.79
32.734,-11.62
32.750,-20.37
32.765,-28.1
32.781,-33.82
32.796,-36.77
32.812,-36.64
32.828,-33.62
32.843,-28.5
32.859,-22.32
32.875,-16.14
32.890,-10.79
32.906,-6.66
32.921,-3.7
32.937,-1.43
32.953,0.93
32.968,4.26
32.984,9.27
33.000,16.32
33.015,25.18
33.031,34.88
33.046,43.99
33.062,51.01
33.078,54.92
33.093,55.49
33.109,53.41
33.125,49.91
33.140,46.35
33.156,43.91
33.171,43.44
33.187,45.51
33.203,50.49
33.218,58.25
33.234,67.92
33.250,77.65
33.265,84.72
33.281,86.12
33.296,79.49
33.312,63.93
33.328,40.46
33.343,11.84
33.359,-18.15
33.375,-45.65
33.390,-67.51
33.406,-81.79
33.421,-87.84
33.437,-86.13
33.453,-78.08
33.468,-65.73
33.484,-51.45
33.500,-37.6
33.515,-26.09
33.531,-18.04
33.546,-13.76
33.562,-12.9
33.578,-14.84
33.593,-18.91
33.609,-24.36
33.625,-30.21
33.640,-35.23
33.656,-38.01
33.671,-37.5
33.687,-33.44
33.703,-26.59
33.718,-18.63
33.734,-11.61
33.750,-7.33
33.765,-6.78
33.781,-9.96
33.796,-16.01
33.812,-23.48
33.828,-30.84
33.843,-36.7
33.859,-40.1
33.875,-40.73
33.890,-38.84
33.906,-35.15
33.921,-30.57
33.937,-25.92
33.953,-21.67
33.968,-17.93
33.984,-14.46
34.000,-10.83
34.015,-6.67
34.031,-1.83
34.046,3.6
34.062,9.35
34.078,15.18
34.093,20.86
34.109,26.21
34.125,30.95
34.140,34.74
34.156,37.19
34.171,38.16
34.187,37.91
34.203,37.22
34.218,37.15
34.234,38.74
34.250,42.56
34.265,48.58
34.281,56.23
34.296,64.55
34.312,72.43
34.328,78.78
34.343,82.52
34.359,82.65
34.375,78.42
34.390,69.47
34.406,56.03
34.421,38.92
34.437,19.43
34.453,-0.98
34.468,-20.93
34.484,-39.27
34.500,-55.06
34.515,-67.47
34.531,-75.67
34.546,-78.97
34.562,-77.04
34.578,-70.15
34.593,-59.33
34.609,-46.13
34.625,-32.31
34.640,-19.37
34.656,-8.25
34.671,0.63
34.687,7.25
34.703,11.82
34.718,14.72
34.734,16.51
34.750,17.89
34.765,19.55
34.781,21.87
34.796,24.72
34.812,27.46
34.828,29.18
34.843,29.06
34.859,26.58
34.875,21.55
34.890,13.95
34.906,3.88
34.921,-8.47
34.937,-22.51
34.953,-37.02
34.968,-50.24
34.984,-60.22
35.000,-65.44
35.015,-65.34
35.031,-60.48
35.046,-52.33
35.062,-42.54
35.078,-32.39
35.093,-22.29
35.109,-12.08
35.125,-1.51
35.140,9.1
35.156,18.77
35.171,26.19
35.187,30.47
35.203,31.71
35.218,30.99
35.234,29.79
35.250,29.11
35.265,28.95
35.281,28.45
35.296,26.64
35.312,23.32
35.328,19.41
35.343,16.61
35.359,16.71
35.375,20.67
35.390,28.33
35.406,38.61
35.421,50.0
35.437,61.0
35.453,70.35
35.468,76.87
35.484,79.37
35.500,76.66
35.515,67.82
35.531,52.67
35.546,32.0
35.562,7.56
35.578,-18.26
35.593,-43.05
35.609,-64.73
35.625,-81.84
35.640,-93.43
35.656,-99.06
35.671,-98.69
35.687,-92.82
35.703,-82.7
35.718,-70.04
35.734,-56.76
35.750,-44.48
35.765,-34.13
35.781,-25.94
35.796,-19.78
35.812,-15.45
35.828,-12.88
35.843,-12.01
35.859,-12.42
35.875,-13.26
35.890,-13.29
35.906,-11.36
35.921,-6.95
35.937,-0.52
35.953,6.63
35.968,12.82
35.984,16.59
36.000,17.09
36.015,14.19
36.031,8.31
36.046,0.25
36.062,-9.05
36.078,-18.54
36.093,-27.12
36.109,-33.77
36.125,-37.75
36.140,-38.81
36.156,-37.33
36.171,-34.12
36.187,-30.06
36.203,-25.6
36.218,-20.63
36.234,-14.58
36.250,-6.8
36.265,2.84
36.281,13.88
36.296,25.29
36.312,35.99
36.328,45.26
36.343,52.83
36.359,58.62
36.375,62.46
36.390,63.9
36.406,62.52
36.421,58.48
36.437,52.84
36.453,47.41
36.468,44.2
36.484,44.51
36.500,48.57
36.515,55.48
36.531,63.86
36.546,72.47
36.562,80.61
36.578,87.84
36.593,93.66
36.609,97.15
36.625,97.03
36.640,92.18
36.656,82.09
36.671,67.14
36.687,48.45
36.703,27.57
36.718,6.08
36.734,-14.49
36.750,-32.65
36.765,-46.93
36.781,-55.97
36.796,-59.05
36.812,-56.27
36.828,-48.8
36.843,-38.41
36.859,-26.95
36.875,-15.71
36.890,-5.23
36.906,4.36
36.921,12.94
36.937,19.94
36.953,24.49
36.968,25.86
36.984,24.14
37.000,20.6
37.015,17.37
37.031,16.57
37.046,19.27
37.062,25.01
37.078,31.91
37.093,37.56
37.109,39.99
37.125,38.33
37.140,32.72
37.156,23.92
37.171,12.72
37.187,-0.35
37.203,-14.89
37.218,-30.46
37.234,-46.4
37.250,-62.04
37.265,-76.88
37.281,-90.68
37.296,-103.26
37.312,-114.15
37.328,-122.34
37.343,-126.49
37.359,-125.55
37.375,-119.43
37.390,-109.3
37.406,-97.35
37.421,-85.93
37.437,-76.49
37.453,-69.08
37.468,-62.45
37.484,-54.82
37.500,-44.98
37.515,-33.03
37.531,-20.42
37.546,-9.26
37.562,-1.35
37.578,2.78
37.593,3.96
37.609,4.03
37.625,4.99
37.640,8.13
37.656,13.66
37.671,20.83
37.687,28.45
37.703,35.52
37.718,41.53
37.734,46.4
37.750,49.89
37.765,51.4
37.781,49.9
37.796,44.38
37.812,34.43
37.828,20.68
37.843,4.74
37.859,-11.41
37.875,-25.99
37.890,-37.92
37.906,-46.73
37.921,-52.27
37.937,-54.38
37.953,-52.8
37.968,-47.52
37.984,-39.15
38.000,-29.04
38.015,-18.98
38.031,-10.54
38.046,-4.56
38.062,-1.01
38.078,0.75
38.093,1.51
38.109,1.66
38.125,1.15
38.140,-0.34
38.156,-3.03
38.171,-6.52
38.187,-9.79
38.203,-11.38
38.218,-10.07
38.234,-5.43
38.250,1.71
38.265,9.48
38.281,15.58
38.296,18.21
38.312,16.76
38.328,11.97
38.343,5.57
38.359,-0.61
38.375,-5.43
38.390,-8.71
38.406,-11.12
38.421,-13.64
38.437,-16.99
38.453,-21.27
38.468,-25.99
38.484,-30.33
38.500,-33.48
38.515,-35.03
38.531,-35.0
38.546,-33.78
38.562,-31.82
38.578,-29.54
38.593,-27.01
38.609,-24.11
38.625,-20.62
38.640,-16.4
38.656,-11.5
38.671,-6.14
38.687,-0.57
38.703,5.0
38.718,10.32
38.734,15.08
38.750,18.8
38.765,20.94
38.781,21.16
38.796,19.72
38.812,17.64
38.828,16.44
38.843,17.66
38.859,22.07
38.875,29.32
38.890,37.95
38.906,45.91
38.921,51.31
38.937,52.96
38.953,50.53
38.968,44.25
38.984,34.72
39.000,22.69
39.015,9.11
39.031,-4.65
39.046,-16.94
39.062,-25.96
39.078,-30.31
39.093,-29.37
39.109,-23.55
39.125,-14.14
39.140,-3.01
39.156,7.98
39.171,17.33
39.187,24.12
39.203,28.18
39.218,29.95
39.234,30.25
39.250,30.03
39.265,30.05
39.281,30.59
39.296,31.52
39.312,32.3
39.328,32.17
39.343,30.58
39.359,27.37
39.375,22.95
39.390,18.2
39.406,14.26
39.421,12.04
39.437,11.98
39.453,14.0
39.468,17.48
39.484,21.55
39.500,25.28
39.515,27.75
39.531,28.14
39.546,25.78
39.562,20.36
39.578,12.02
39.593,1.55
39.609,-9.85
39.625,-20.85
39.640,-30.47
39.656,-38.29
39.671,-44.3
39.687,-48.58
39.703,-50.98
39.718,-50.99
39.734,-48.07
39.750,-42.09
39.765,-33.63
39.781,-24.06
39.796,-15.01
39.812,-7.76
39.828,-2.78
39.843,0.4
39.859,2.81
39.875,5.56
39.890,9.32
39.906,14.11
39.921,19.42
39.937,24.44
39.953,28.49
39.968,31.3
39.984,33.08
40.000,34.42
40.015,36.08
40.031,38.63
40.046,42.32
40.062,47.09
40.078,52.69
40.093,58.81
40.109,65.01
40.125,70.65
40.140,74.57
40.156,75.24
40.171,71.18
40.187,61.53
40.203,46.6
40.218,27.81
40.234,7.3
40.250,-12.83
40.265,-31.01
40.281,-46.31
40.296,-58.25
40.312,-66.46
40.328,-70.62
40.343,-70.61
40.359,-66.75
40.375,-59.97
40.390,-51.56
40.406,-42.8
40.421,-34.62
40.437,-27.48
40.453,-21.41
40.468,-16.24
40.484,-11.77
40.500,-7.82
40.515,-4.23
40.531,-0.93
40.546,1.89
40.562,3.72
40.578,3.77
40.593,1.5
40.609,-3.09
40.625,-9.02
40.640,-14.65
40.656,-18.29
40.671,-18.93
40.687,-16.75
40.703,-12.97
40.718,-9.23
40.734,-6.78
40.750,-6.01
40.765,-6.52
40.781,-7.52
40.796,-8.46
40.812,-9.22
40.828,-10.02
40.843,-11.11
40.859,-12.49
40.875,-13.93
40.890,-15.08
40.906,-15.75
40.921,-15.88
40.937,-15.61
40.953,-15.01
40.968,-14.0
40.984,-12.36
41.000,-9.85
41.015,-6.44
41.031,-2.41
41.046,1.7
41.062,5.3
41.078,8.05
41.093,10.1
41.109,12.09
41.125,14.86
41.140,18.93
41.156,24.16
41.171,29.67
41.187,34.24
41.203,36.95
41.218,37.75
41.234,37.49
41.250,37.61
41.265,39.39
41.281,43.39
41.296,49.29
41.312,56.13
41.328,62.82
41.343,68.49
41.359,72.56
41.375,74.47
41.390,73.45
41.406,68.5
41.421,58.78
41.437,44.01
41.453,24.9
41.468,3.16
41.484,-18.8
41.500,-38.44
41.515,-53.69
41.531,-63.28
41.546,-66.87
41.562,-64.86
41.578,-58.19
41.593,-48.16
41.609,-36.24
41.625,-23.99
41.640,-12.87
41.656,-4.0
41.671,2.12
41.687,5.73
41.703,7.74
41.718,9.41
41.734,11.67
41.750,14.7
41.765,17.78
41.781,19.53
41.796,18.62
41.812,14.38
41.828,7.33
41.843,-1.06
41.859,-8.76
41.875,-13.92
41.890,-15.43
41.906,-13.15
41.921,-7.69
41.937,-0.13
41.953,8.32
41.968,16.44
41.984,22.98
42.000,26.68
42.015,26.43
42.031,21.56
42.046,12.13
42.062,-0.93
42.078,-16.03
42.093,-31.26
42.109,-44.86
42.125,-55.52
42.140,-62.5
42.156,-65.6
42.171,-64.92
42.187,-60.85
42.203,-54.0
42.218,-45.16
42.234,-35.3
42.250,-25.46
42.265,-16.49
42.281,-8.96
42.296,-2.94
42.312,1.91
42.328,6.13
42.343,10.19
42.359,14.2
42.375,17.92
42.390,20.89
42.406,22.86
42.421,24.0
42.437,24.97
42.453,26.67
42.468,29.8
42.484,34.57
42.500,40.5
42.515,46.79
42.531,52.56
42.546,57.25
42.562,60.79
42.578,63.38
42.593,65.19
42.609,66.1
42.625,65.62
42.640,62.88
42.656,56.99
42.671,47.3
42.687,33.7
42.703,16.72
42.718,-2.46
42.734,-22.18
42.750,-40.55
42.765,-55.62
42.781,-65.78
42.796,-70.02
42.812,-68.2
42.828,-61.18
42.843,-50.66
42.859,-38.83
42.875,-27.89
42.890,-19.52
42.906,-14.51
42.921,-12.75
42.937,-13.51
42.953,-15.98
42.968,-19.66
42.984,-24.45
43.000,-30.39
43.015,-37.22
43.031,-44.05
43.046,-49.43
43.062,-51.84
43.078,-50.33
43.093,-45.04
43.109,-37.15
43.125,-28.45
43.140,-20.59
43.156,-14.56
43.171,-10.46
43.187,-7.76
43.203,-5.77
43.218,-4.0
43.234,-2.28
43.250,-0.77
43.265,0.29
43.281,0.77
43.296,0.65
43.312,0.08
43.328,-0.79
43.343,-1.92
43.359,-3.28
43.375,-4.77
43.390,-6.03
43.406,-6.4
43.421,-5.19
43.437,-1.88
43.453,3.45
43.468,10.07
43.484,16.75
43.500,22.31
43.515,26.02
43.531,27.81
43.546,28.19
43.562,27.81
43.578,27.15
43.593,26.32
43.609,25.29
43.625,24.12
43.640,23.16
43.656,23.09
43.671,24.57
43.687,28.1
43.703,33.72
43.718,40.99
43.734,49.16
43.750,57.24
43.765,64.2
43.781,68.98
43.796,70.64
43.812,68.47
43.828,62.36
43.843,52.83
43.859,40.99
43.875,28.32
43.890,16.11
43.906,5.17
43.921,-4.34
43.937,-12.67
43.953,-20.29
43.968,-27.36
43.984,-33.69
44.000,-38.67
44.015,-41.54
44.031,-41.75
44.046,-39.12
44.062,-34.02
44.078,-27.24
44.093,-19.88
44.109,-13.02
44.125,-7.62
44.140,-4.37
44.156,-3.67
44.171,-5.8
44.187,-10.85
44.203,-18.65
44.218,-28.59
44.234,-39.38
44.250,-49.13
44.265,-55.79
44.281,-57.8
44.296,-54.67
44.312,-47.26
44.328,-37.46
44.343,-27.49
44.359,-19.21
44.375,-13.63
44.390,-10.79
44.406,-10.14
44.421,-10.88
44.437,-12.3
44.453,-13.93
44.468,-15.41
44.484,-16.55
44.500,-17.26
44.515,-17.61
44.531,-17.71
44.546,-17.59
44.562,-17.09
44.578,-15.79
44.593,-13.23
44.609,-9.06
44.625,-3.31
44.640,3.63
44.656,11.03
44.671,18.12
44.687,24.3
44.703,29.33
44.718,33.31
44.734,36.46
44.750,38.96
44.765,40.71
44.781,41.38
44.796,40.6
44.812,38.16
44.828,34.26
44.843,29.53
44.859,24.94
44.875,21.47
44.890,19.98
44.906,20.92
44.921,24.35
44.937,29.98
44.953,37.4
44.968,46.13
44.984,55.74
45.000,65.79
45.015,75.52
45.031,83.87
45.046,89.45
45.062,90.77
45.078,86.71
45.093,76.82
45.109,61.55
45.125,42.09
45.140,20.07
45.156,-2.87
45.171,-25.24
45.187,-45.78
45.203,-63.37
45.218,-77.0
45.234,-85.89
45.250,-89.71
45.265,-88.77
45.281,-84.09
45.296,-77.18
45.312,-69.73
45.328,-63.21
45.343,-58.46
45.359,-55.57
45.375,-53.93
45.390,-52.63
45.406,-50.82
45.421,-48.01
45.437,-44.18
45.453,-39.5
45.468,-34.23
45.484,-28.47
45.500,-22.26
45.515,-15.74
45.531,-9.36
45.546,-3.84
45.562,-0.04
45.578,1.39
45.593,0.21
45.609,-3.38
45.625,-8.86
45.640,-15.44
45.656,-22.27
45.671,-28.5
45.687,-33.44
45.703,-36.64
45.718,-37.87
45.734,-37.1
45.750,-34.53
45.765,-30.38
45.781,-24.96
45.796,-18.61
45.812,-11.79
45.828,-4.98
45.843,1.34
45.859,6.84
45.875,11.39
45.890,14.92
45.906,17.44
45.921,18.97
45.937,19.57
45.953,19.54
45.968,19.27
45.984,19.15
46.000,19.38
46.015,19.85
46.031,20.11
46.046,19.76
46.062,18.64
46.078,17.09
46.093,15.93
46.109,16.08
46.125,18.14
46.140,22.16
46.156,27.66
46.171,33.87
46.187,40.23
46.203,46.54
46.218,52.89
46.234,59.45
46.250,65.96
46.265,71.56
46.281,74.86
46.296,74.34
46.312,68.89
46.328,58.44
46.343,44.04
46.359,27.75
46.375,12.06
46.390,-0.89
46.406,-9.89
46.421,-14.88
46.437,-16.76
46.453,-16.93
46.468,-16.76
46.484,-17.42
46.500,-19.79
46.515,-24.39
46.531,-31.32
46.546,-40.02
46.562,-49.12
46.578,-56.69
46.593,-60.89
46.609,-60.81
46.625,-56.88
46.640,-50.72
46.656,-44.23
46.671,-38.75
46.687,-34.52
46.703,-30.88
46.718,-27.02
46.734,-22.69
46.750,-18.48
46.765,-15.39
46.781,-14.21
46.796,-14.97
46.812,-16.9
46.828,-18.91
46.843,-20.14
46.859,-20.41
46.875,-20.1
46.890,-19.86
46.906,-20.12
46.921,-20.96
46.937,-22.11
46.953,-23.2
46.968,-23.97
46.984,-24.29
47.000,-24.24
47.015,-23.91
47.031,-23.44
47.046,-23.02
47.062,-22.95
47.078,-23.42
47.093,-24.44
47.109,-25.64
47.125,-26.37
47.140,-25.99
47.156,-24.25
47.171,-21.45
47.187,-18.37
47.203,-15.82
47.218,-14.1
47.234,-12.85
47.250,-11.34
47.265,-8.86
47.281,-5.31
47.296,-1.2
47.312,2.69
47.328,5.73
47.343,7.77
47.359,9.04
47.375,9.86
47.390,10.45
47.406,11.09
47.421,12.31
47.437,14.99
47.453,20.03
47.468,27.88
47.484,37.92
47.500,48.45
47.515,57.23
47.531,62.39
47.546,63.24
47.562,60.7
47.578,56.92
47.593,54.55
47.609,55.76
47.625,61.53
47.640,71.19
47.656,82.48
47.671,92.03
47.687,96.37
47.703,92.93
47.718,81.07
47.734,62.22
47.750,39.51
47.765,16.73
47.781,-2.76
47.796,-16.65
47.812,-23.86
47.828,-24.25
47.843,-18.31
47.859,-7.12
47.875,7.7
47.890,23.99
47.906,39.35
47.921,51.77
47.937,60.11
47.953,64.46
47.968,65.9
47.984,65.98
48.000,65.93
48.015,66.28
48.031,66.67
48.046,66.1
48.062,63.38
48.078,57.58
48.093,48.4
48.109,36.24
48.125,22.06
48.140,7.03
48.156,-7.84
48.171,-21.76
48.187,-34.23
48.203,-44.73
48.218,-52.69
48.234,-57.44
48.250,-58.41
48.265,-55.4
48.281,-48.75
48.296,-39.51
48.312,-29.12
48.328,-19.31
48.343,-11.64
48.359,-7.34
48.375,-7.08
48.390,-10.9
48.406,-18.11
48.421,-27.46
48.437,-37.37
48.453,-46.21
48.468,-52.78
48.484,-56.49
48.500,-57.4
48.515,-56.1
48.531,-53.46
48.546,-50.36
48.562,-47.54
48.578,-45.52
48.593,-44.54
48.609,-44.53
48.625,-45.45
48.640,-47.41
48.656,-50.99
48.671,-57.03
48.687,-65.88
48.703,-76.5
48.718,-86.1
48.734,-90.81
48.750,-87.47
48.765,-75.36
48.781,-56.72
48.796,-35.64
48.812,-15.84
48.828,1.05
48.843,15.62
48.859,29.05
48.875,41.18
48.890,49.58
48.906,50.73
48.921,42.32
48.937,25.28
48.953,4.07
48.968,-15.14
48.984,-27.17
49.000,-29.84
49.015,-24.38
49.031,-14.21
49.046,-3.0
49.062,6.67
49.078,13.78
49.093,18.43
49.109,21.37
49.125,23.37
49.140,25.09
49.156,26.89
49.171,28.74
49.187,30.33
49.203,31.01
49.218,30.19
49.234,27.48
49.250,23.0
49.265,17.34
49.281,11.31
49.296,5.64
49.312,0.79
49.328,-3.07
49.343,-5.88
49.359,-7.43
49.375,-7.42
49.390,-5.55
49.406,-1.88
49.421,3.07
49.437,8.37
49.453,13.02
49.468,16.34
49.484,18.14
49.500,18.8
49.515,19.08
49.531,19.83
49.546,21.67
49.562,24.89
49.578,29.3
49.593,34.44
49.609,39.71
49.625,44.55
49.640,48.7
49.656,52.2
49.671,55.4
49.687,58.64
49.703,62.12
49.718,65.61
49.734,68.52
49.750,70.01
49.765,69.4
49.781,66.62
49.796,62.31
49.812,57.64
49.828,53.94
49.843,52.17
49.859,52.67
49.875,55.19
49.890,59.17
49.906,63.89
49.921,68.68
49.937,72.81
49.953,75.56
49.968,76.35
49.984,75.08
50.000,72.25
50.015,69.05
50.031,66.78
50.046,66.29
50.062,67.48
50.078,69.01
50.093,68.63
50.109,63.91
50.125,53.51
50.140,38.19
50.156,20.95
50.171,6.23
50.187,-2.0
50.203,-1.91
50.218,5.42
50.234,16.65
50.250,27.8
50.265,36.0
50.281,40.2
50.296,40.74
50.312,38.2
50.328,32.45
50.343,22.61
50.359,7.83
50.375,-11.84
50.390,-35.22
50.406,-60.61
50.421,-86.81
50.437,-113.92
50.453,-142.96
50.468,-174.77
50.484,-208.79
50.500,-242.2
50.515,-270.07
50.531,-286.67
50.546,-287.39
50.562,-270.58
50.578,-238.59
50.593,-197.25
50.609,-154.09
50.625,-115.85
50.640,-86.46
50.656,-66.15
50.671,-52.31
50.687,-41.05
50.703,-29.13
50.718,-14.92
50.734,1.75
50.750,19.94
50.765,37.98
50.781,53.38
50.796,62.82
50.812,62.8
50.828,51.08
50.843,28.33
50.859,-1.25
50.875,-30.81
50.890,-53.4
50.906,-64.56
50.921,-63.7
50.937,-53.65
50.953,-38.89
50.968,-23.44
50.984,-9.81
51.000,0.9
51.015,8.36
51.031,12.27
51.046,12.38
51.062,9.08
51.078,3.66
51.093,-1.85
51.109,-5.4
51.125,-5.72
51.140,-2.9
51.156,1.59
51.171,5.65
51.187,7.46
51.203,6.4
51.218,3.3
51.234,0.06
51.250,-1.15
51.265,1.22
51.281,7.41
51.296,16.24
51.312,25.5
51.328,32.83
51.343,36.47
51.359,35.83
51.375,31.58
51.390,25.34
51.406,18.86
51.421,13.36
51.437,9.08
51.453,5.42
51.468,1.46
51.484,-3.29
51.500,-8.45
51.515,-12.84
51.531,-14.99
51.546,-14.05
51.562,-10.2
51.578,-4.58
51.593,1.13
51.609,5.57
51.625,8.04
51.640,8.62
51.656,7.81
51.671,6.17
51.687,3.91
51.703,0.94
51.718,-2.98
51.734,-8.03
51.750,-14.16
51.765,-21.01
51.781,-28.03
51.796,-34.47
51.812,-39.47
51.828,-42.21
51.843,-42.09
51.859,-38.99
51.875,-33.5
51.890,-26.97
51.906,-21.06
51.921,-17.24
51.937,-16.03
51.953,-16.8
51.968,-17.92
51.984,-17.53
52.000,-14.35
52.015,-8.3
52.031,-0.49
52.046,7.42
52.062,14.03
52.078,18.73
52.093,21.74
52.109,23.65
52.125,24.94
52.140,25.75
52.156,26.09
52.171,26.41
52.187,27.94
52.203,32.66
52.218,42.55
52.234,58.58
52.250,79.81
52.265,103.41
52.281,125.33
52.296,141.57
52.312,149.56
52.328,148.76
52.343,140.52
52.359,127.33
52.375,111.79
52.390,95.89
52.406,80.72
52.421,66.58
52.437,53.3
52.453,40.58
52.468,28.17
52.484,15.88
52.500,3.59
52.515,-8.78
52.531,-21.2
52.546,-33.41
52.562,-44.75
52.578,-54.16
52.593,-60.26
52.609,-61.89
52.625,-58.6
52.640,-51.04
52.656,-40.95
52.671,-30.59
52.687,-21.96
52.703,-16.1
52.718,-12.7
52.734,-10.51
52.750,-8.03
52.765,-4.2
52.781,1.08
52.796,7.05
52.812,12.56
52.828,16.63
52.843,18.81
52.859,19.38
52.875,19.16
52.890,19.25
52.906,20.78
52.921,24.65
52.937,31.33
52.953,40.53
52.968,51.3
52.984,62.06
53.000,71.26
53.015,77.82
53.031,81.43
53.046,82.45
53.062,81.36
53.078,78.32
53.093,72.94
53.109,64.53
53.125,52.53
53.140,36.9
53.156,18.11
53.171,-3.14
53.187,-26.15
53.203,-50.11
53.218,-73.77
53.234,-95.18
53.250,-112.08
53.265,-122.68
53.281,-126.66
53.296,-125.5
53.312,-121.83
53.328,-118.16
53.343,-115.67
53.359,-113.83
53.375,-110.93
53.390,-105.34
53.406,-96.48
53.421,-85.19
53.437,-73.14
53.453,-61.9
53.468,-52.2
53.484,-43.95
53.500,-36.52
53.515,-29.34
53.531,-22.28
53.546,-15.57
53.562,-9.59
53.578,-4.45
53.593,0.16
53.609,5.01
53.625,10.97
53.640,18.71
53.656,28.3
53.671,39.07
53.687,49.93
53.703,59.67
53.718,67.43
53.734,72.91
53.750,76.22
53.765,77.66
53.781,77.41
53.796,75.34
53.812,71.07
53.828,64.26
53.843,54.81
53.859,42.93
53.875,29.28
53.890,14.79
53.906,0.46
53.921,-12.7
53.937,-23.72
53.953,-31.64
53.968,-35.46
53.984,-34.48
54.000,-28.69
54.015,-19.06
54.031,-7.6
54.046,3.16
54.062,11.1
54.078,15.3
54.093,16.3
54.109,15.7
54.125,15.02
54.140,14.89
54.156,14.75
54.171,13.44
54.187,10.17
54.203,5.33
54.218,0.51
54.234,-2.28
54.250,-1.58
54.265,2.7
54.281,9.41
54.296,16.79
54.312,23.39
54.328,28.58
54.343,32.58
54.359,35.78
54.375,38.36
54.390,40.05
54.406,40.44
54.421,39.39
54.437,37.25
54.453,34.71
54.468,32.32
54.484,30.04
54.500,26.86
54.515,21.11
54.531,10.99
54.546,-4.78
54.562,-26.31
54.578,-52.29
54.593,-79.93
54.609,-105.43
54.625,-124.76
54.640,-134.84
54.656,-134.43
54.671,-124.7
54.687,-108.86
54.703,-91.24
54.718,-75.85
54.734,-65.13
54.750,-59.36
54.765,-56.95
54.781,-55.44
54.796,-52.77
54.812,-48.23
54.828,-42.43
54.843,-36.7
54.859,-32.15
54.875,-28.91
54.890,-26.15
54.906,-22.54
54.921,-17.18
54.937,-9.91
54.953,-1.36
54.968,7.66
54.984,16.9
55.000,26.85
55.015,38.61
55.031,53.23
55.046,71.09
55.062,91.63
55.078,113.35
55.093,134.08
55.109,151.46
55.125,163.33
55.140,168.18
55.156,165.46
55.171,155.55
55.187,139.57
55.203,119.18
55.218,96.17
55.234,72.38
55.250,49.42
55.265,28.49
55.281,10.02
55.296,-6.29
55.312,-21.27
55.328,-35.67
55.343,-49.35
55.359,-61.08
55.375,-69.0
55.390,-71.53
55.406,-68.32
55.421,-60.75
55.437,-51.49
55.453,-43.44
55.468,-38.55
55.484,-37.07
55.500,-37.84
55.515,-39.27
55.531,-40.32
55.546,-41.06
55.562,-42.27
55.578,-44.57
55.593,-47.52
55.609,-49.47
55.625,-48.33
55.640,-42.87
55.656,-33.53
55.671,-22.38
55.687,-12.16
55.703,-4.76
55.718,-0.39
55.734,2.25
55.750,4.98
55.765,8.91
55.781,13.87
55.796,18.81
55.812,22.62
55.828,24.8
55.843,25.68
55.859,25.9
55.875,25.78
55.890,24.92
55.906,22.36
55.921,17.03
55.937,8.5
55.953,-2.88
55.968,-15.93
55.984,-28.99
56.000,-40.22
56.015,-48.13
56.031,-51.92
56.046,-51.97
56.062,-50.09
56.078,-49.2
56.093,-52.27
56.109,-60.98
56.125,-74.71
56.140,-90.29
56.156,-103.22
56.171,-109.45
56.187,-107.03
56.203,-96.77
56.218,-81.62
56.234,-65.18
56.250,-50.3
56.265,-38.24
56.281,-28.82
56.296,-21.08
56.312,-13.89
56.328,-6.39
56.343,2.11
56.359,12.14
56.375,24.13
56.390,38.17
56.406,54.05
56.421,71.07
56.437,88.3
56.453,104.79
56.468,119.82
56.484,133.02
56.500,144.38
56.515,154.02
56.531,161.87
56.546,167.5
56.562,170.06
56.578,168.46
56.593,161.67
56.609,149.17
56.625,131.06
56.640,108.17
56.656,81.81
56.671,53.39
56.687,24.1
56.703,-5.14
56.718,-33.66
56.734,-60.77
56.750,-85.51
56.765,-106.65
56.781,-122.8
56.796,-132.64
56.812,-135.43
56.828,-131.45
56.843,-122.13
56.859,-109.82
56.875,-97.07
56.890,-85.74
56.906,-76.5
56.921,-68.83
56.937,-61.63
56.953,-54.02
56.968,-45.87
56.984,-37.67
57.000,-30.06
57.015,-23.28
57.031,-17.05
57.046,-10.85
57.062,-4.47
57.078,1.78
57.093,7.15
57.109,10.96
57.125,13.06
57.140,14.02
57.156,15.1
57.171,17.78
57.187,23.34
57.203,32.47
57.218,45.05
57.234,60.23
57.250,76.69
57.265,92.96
57.281,107.7
57.296,119.72
57.312,127.96
57.328,131.34
57.343,128.85
57.359,119.86
57.375,104.4
57.390,83.44
57.406,58.66
57.421,31.99
57.437,5.05
57.453,-21.14
57.468,-46.1
57.484,-69.59
57.500,-91.23
57.515,-110.34
57.531,-126.04
57.546,-137.45
57.562,-143.89
57.578,-145.0
57.593,-140.84
57.609,-131.98
57.625,-119.68
57.640,-105.78
57.656,-92.32
57.671,-80.97
57.687,-72.43
57.703,-66.28
57.718,-61.43
57.734,-56.79
57.750,-51.99
57.765,-47.49
57.781,-44.16
57.796,-42.48
57.812,-42.08
57.828,-41.77
57.843,-40.17
57.859,-36.52
57.875,-31.1
57.890,-24.99
57.906,-19.57
57.921,-15.74
57.937,-13.67
57.953,-12.88
57.968,-12.62
57.984,-12.29
58.000,-11.59
58.015,-10.52
58.031,-9.11
58.046,-7.35
58.062,-5.12
58.078,-2.32
58.093,1.12
58.109,5.22
58.125,9.85
58.140,14.75
58.156,19.51
58.171,23.73
58.187,27.08
58.203,29.55
58.218,31.41
58.234,33.15
58.250,35.26
58.265,37.97
58.281,41.13
58.296,44.27
58.312,46.81
58.328,48.27
58.343,48.33
58.359,46.79
58.375,43.48
58.390,38.33
58.406,31.56
58.421,23.87
58.437,16.41
58.453,10.55
58.468,7.4
58.484,7.31
58.500,9.73
58.515,13.4
58.531,16.85
58.546,18.88
58.562,18.81
58.578,16.45
58.593,11.76
58.609,4.8
58.625,-4.28
58.640,-14.99
58.656,-26.3
58.671,-36.69
58.687,-44.56
58.703,-48.75
58.718,-49.04
58.734,-46.27
58.750,-41.97
58.765,-37.77
58.781,-34.83
58.796,-33.51
58.812,-33.43
58.828,-33.71
58.843,-33.22
58.859,-30.93
58.875,-26.03
58.890,-18.36
58.906,-8.44
58.921,2.55
58.937,13.18
58.953,22.35
58.968,29.79
58.984,36.09
59.000,42.29
59.015,49.26
59.031,57.06
59.046,65.03
59.062,72.22
59.078,78.05
59.093,82.51
59.109,86.02
59.125,88.79
59.140,90.31
59.156,89.32
59.171,84.19
59.187,73.71
59.203,57.59
59.218,36.89
59.234,13.7
59.250,-9.28
59.265,-29.29
59.281,-44.1
59.296,-52.21
59.312,-53.04
59.328,-47.03
59.343,-35.53
59.359,-20.64
59.375,-4.71
59.390,10.11
59.406,22.31
59.421,31.29
59.437,37.34
59.453,41.23
59.468,43.76
59.484,45.13
59.500,44.57
59.515,40.66
59.531,32.01
59.546,18.21
59.562,0.61
59.578,-17.78
59.593,-33.29
59.609,-43.06
59.625,-46.26
59.640,-44.49
59.656,-40.88
59.671,-38.68
59.687,-39.86
59.703,-44.59
59.718,-51.49
59.734,-58.66
59.750,-64.58
59.765,-68.5
59.781,-70.49
59.796,-70.94
59.812,-70.13
59.828,-68.18
59.843,-64.9
59.859,-60.07
59.875,-53.62
59.890,-45.73
59.906,-36.86
59.921,-27.61
59.937,-18.44
59.953,-9.64
59.968,-1.23
59.984,6.97
