timestamp,value
00.000,-44.68
00.015,-49.7
00.031,-52.86
00.046,-52.84
00.062,-48.62
00.078,-39.91
00.093,-27.38
00.109,-12.45
00.125,3.09
00.140,17.54
00.156,29.76
00.171,39.27
00.187,46.23
00.203,51.11
00.218,54.51
00.234,56.83
00.250,58.24
00.265,58.76
00.281,58.37
00.296,57.14
00.312,55.26
00.328,53.05
00.343,50.82
00.359,48.78
00.375,47.03
00.390,45.51
00.406,44.13
00.421,42.76
00.437,41.28
00.453,39.58
00.468,37.56
00.484,35.14
00.500,32.3
00.515,29.04
00.531,25.41
00.546,21.48
00.562,17.36
00.578,13.12
00.593,8.83
00.609,4.56
00.625,0.29
00.640,-4.03
00.656,-8.47
00.671,-13.11
00.687,-18.02
00.703,-23.25
00.718,-28.9
00.734,-35.07
00.750,-41.75
00.765,-48.85
00.781,-55.94
00.796,-62.22
00.812,-66.56
00.828,-67.71
00.843,-64.61
00.859,-56.81
00.875,-44.73
00.890,-29.54
00.906,-12.92
00.921,3.44
00.937,18.22
00.953,30.77
00.968,40.9
00.984,48.79
01.000,54.62
01.015,58.54
01.031,60.67
01.046,61.25
01.062,60.62
01.078,59.2
01.093,57.31
01.109,55.09
01.125,52.63
01.140,50.01
01.156,47.44
01.171,45.23
01.187,43.63
01.203,42.67
01.218,42.1
01.234,41.49
01.250,40.36
01.265,38.47
01.281,35.79
01.296,32.51
01.312,28.89
01.328,25.13
01.343,21.26
01.359,17.25
01.375,13.02
01.390,8.46
01.406,3.54
01.421,-1.73
01.437,-7.24
01.453,-12.79
01.468,-18.16
01.484,-23.15
01.500,-27.66
01.515,-31.77
01.531,-35.73
01.546,-39.95
01.562,-44.9
01.578,-50.86
01.593,-57.68
01.609,-64.68
01.625,-70.6
01.640,-73.91
01.656,-73.24
01.671,-67.83
01.687,-57.89
01.703,-44.51
01.718,-29.33
01.734,-14.0
01.750,0.17
01.765,12.44
01.781,22.5
01.796,30.31
01.812,35.96
01.828,39.66
01.843,41.71
01.859,42.58
01.875,42.75
01.890,42.65
01.906,42.48
01.921,42.25
01.937,41.79
01.953,40.95
01.968,39.68
01.984,38.06
02.000,36.27
02.015,34.46
02.031,32.64
02.046,30.72
02.062,28.48
02.078,25.73
02.093,22.4
02.109,18.53
02.125,14.31
02.140,9.95
02.156,5.6
02.171,1.34
02.187,-2.84
02.203,-7.04
02.218,-11.34
02.234,-15.84
02.250,-20.58
02.265,-25.5
02.281,-30.51
02.296,-35.42
02.312,-40.09
02.328,-44.49
02.343,-48.79
02.359,-53.26
02.375,-58.22
02.390,-63.78
02.406,-69.68
02.421,-75.23
02.437,-79.38
02.453,-80.93
02.468,-78.84
02.484,-72.56
02.500,-62.25
02.515,-48.82
02.531,-33.66
02.546,-18.37
02.562,-4.3
02.578,7.68
02.593,17.24
02.609,24.46
02.625,29.63
02.640,32.94
02.656,34.58
02.671,34.74
02.687,33.7
02.703,31.94
02.718,30.01
02.734,28.38
02.750,27.34
02.765,26.91
02.781,26.88
02.796,26.97
02.812,26.85
02.828,26.34
02.843,25.39
02.859,24.09
02.875,22.55
02.890,20.82
02.906,18.89
02.921,16.65
02.937,14.0
02.953,10.87
02.968,7.32
02.984,3.54
03.000,-0.31
03.015,-4.04
03.031,-7.57
03.046,-10.85
03.062,-13.91
03.078,-16.75
03.093,-19.46
03.109,-22.21
03.125,-25.21
03.140,-28.69
03.156,-32.7
03.171,-36.95
03.187,-40.75
03.203,-43.15
03.218,-43.07
03.234,-39.71
03.250,-32.79
03.265,-22.68
03.281,-10.4
03.296,2.7
03.312,15.21
03.328,26.01
03.343,34.49
03.359,40.57
03.375,44.51
03.390,46.69
03.406,47.51
03.421,47.18
03.437,45.89
03.453,43.88
03.468,41.5
03.484,39.23
03.500,37.49
03.515,36.44
03.531,35.98
03.546,35.81
03.562,35.56
03.578,35.04
03.593,34.26
03.609,33.35
03.625,32.44
03.640,31.49
03.656,30.26
03.671,28.43
03.687,25.77
03.703,22.2
03.718,17.96
03.734,13.44
03.750,9.07
03.765,5.21
03.781,2.0
03.796,-0.61
03.812,-2.84
03.828,-4.98
03.843,-7.41
03.859,-10.42
03.875,-14.29
03.890,-19.17
03.906,-24.96
03.921,-31.16
03.937,-36.92
03.953,-41.09
03.968,-42.5
03.984,-40.35
04.000,-34.45
04.015,-25.34
04.031,-14.13
04.046,-2.17
04.062,9.34
04.078,19.55
04.093,28.09
04.109,35.04
04.125,40.64
04.140,45.13
04.156,48.65
04.171,51.2
04.187,52.68
04.203,53.07
04.218,52.48
04.234,51.14
04.250,49.36
04.265,47.41
04.281,45.45
04.296,43.45
04.312,41.28
04.328,38.71
04.343,35.61
04.359,31.94
04.375,27.82
04.390,23.44
04.406,19.01
04.421,14.67
04.437,10.43
04.453,6.22
04.468,1.94
04.484,-2.42
04.500,-6.84
04.515,-11.28
04.531,-15.73
04.546,-20.24
04.562,-24.84
04.578,-29.53
04.593,-34.34
04.609,-39.22
04.625,-44.17
04.640,-49.31
04.656,-54.8
04.671,-60.76
04.687,-67.04
04.703,-73.11
04.718,-78.04
04.734,-80.65
04.750,-79.83
04.765,-74.9
04.781,-65.89
04.796,-53.55
04.812,-39.09
04.828,-23.94
04.843,-9.37
04.859,3.74
04.875,14.9
04.890,23.98
04.906,31.01
04.921,36.11
04.937,39.45
04.953,41.21
04.968,41.55
04.984,40.72
05.000,38.92
05.015,36.36
05.031,33.28
05.046,29.86
05.062,26.31
05.078,22.83
05.093,19.54
05.109,16.52
05.125,13.74
05.140,11.03
05.156,8.17
05.171,4.97
05.187,1.32
05.203,-2.7
05.218,-6.88
05.234,-11.05
05.250,-15.11
05.265,-19.1
05.281,-23.15
05.296,-27.38
05.312,-31.79
05.328,-36.28
05.343,-40.66
05.359,-44.77
05.375,-48.62
05.390,-52.32
05.406,-56.06
05.421,-60.07
05.437,-64.52
05.453,-69.36
05.468,-74.3
05.484,-78.61
05.500,-81.27
05.515,-81.21
05.531,-77.6
05.546,-70.23
05.562,-59.57
05.578,-46.71
05.593,-32.96
05.609,-19.62
05.625,-7.62
05.640,2.52
05.656,10.61
05.671,16.76
05.687,21.17
05.703,24.18
05.718,26.2
05.734,27.59
05.750,28.63
05.765,29.48
05.781,30.22
05.796,30.85
05.812,31.39
05.828,31.87
05.843,32.34
05.859,32.79
05.875,33.2
05.890,33.52
05.906,33.74
05.921,33.88
05.937,33.93
05.953,33.88
05.968,33.54
05.984,32.66
06.000,30.91
06.015,28.06
06.031,24.09
06.046,19.27
06.062,14.05
06.078,8.91
06.093,4.24
06.109,0.2
06.125,-3.29
06.140,-6.45
06.156,-9.58
06.171,-12.93
06.187,-16.71
06.203,-21.05
06.218,-25.96
06.234,-31.19
06.250,-36.25
06.265,-40.33
06.281,-42.45
06.296,-41.73
06.312,-37.64
06.328,-30.26
06.343,-20.21
06.359,-8.58
06.375,3.44
06.390,14.81
06.406,24.78
06.421,33.01
06.437,39.39
06.453,43.96
06.468,46.75
06.484,47.82
06.500,47.29
06.515,45.38
06.531,42.54
06.546,39.32
06.562,36.3
06.578,33.96
06.593,32.59
06.609,32.22
06.625,32.72
06.640,33.86
06.656,35.35
06.671,36.9
06.687,38.2
06.703,38.99
06.718,39.07
06.734,38.4
06.750,37.11
06.765,35.46
06.781,33.83
06.796,32.52
06.812,31.73
06.828,31.46
06.843,31.61
06.859,31.98
06.875,32.34
06.890,32.49
06.906,32.3
06.921,31.65
06.937,30.52
06.953,28.91
06.968,26.82
06.984,24.28
07.000,21.36
07.015,18.14
07.031,14.8
07.046,11.6
07.062,8.77
07.078,6.53
07.093,4.92
07.109,3.92
07.125,3.34
07.140,3.01
07.156,2.69
07.171,2.2
07.187,1.29
07.203,-0.17
07.218,-2.29
07.234,-5.01
07.250,-8.14
07.265,-11.39
07.281,-14.49
07.296,-17.32
07.312,-19.87
07.328,-22.3
07.343,-24.78
07.359,-27.39
07.375,-30.1
07.390,-32.8
07.406,-35.32
07.421,-37.6
07.437,-39.68
07.453,-41.71
07.468,-43.95
07.484,-46.59
07.500,-49.71
07.515,-53.21
07.531,-56.91
07.546,-60.6
07.562,-64.12
07.578,-67.37
07.593,-70.32
07.609,-73.06
07.625,-75.76
07.640,-78.69
07.656,-82.18
07.671,-86.38
07.687,-91.02
07.703,-95.29
07.718,-97.87
07.734,-97.34
07.750,-92.62
07.765,-83.39
07.781,-70.17
07.796,-54.26
07.812,-37.22
07.828,-20.57
07.843,-5.48
07.859,7.31
07.875,17.48
07.890,24.96
07.906,29.93
07.921,32.75
07.937,33.86
07.953,33.79
07.968,33.04
07.984,32.0
08.000,30.94
08.015,30.01
08.031,29.22
08.046,28.47
08.062,27.62
08.078,26.54
08.093,25.22
08.109,23.76
08.125,22.27
08.140,20.81
08.156,19.19
08.171,17.15
08.187,14.37
08.203,10.7
08.218,6.26
08.234,1.44
08.250,-3.29
08.265,-7.55
08.281,-11.24
08.296,-14.52
08.312,-17.74
08.328,-21.3
08.343,-25.59
08.359,-30.82
08.375,-36.92
08.390,-43.38
08.406,-49.29
08.421,-53.45
08.437,-54.71
08.453,-52.28
08.468,-46.05
08.484,-36.63
08.500,-25.16
08.515,-13.01
08.531,-1.36
08.546,8.96
08.562,17.52
08.578,24.21
08.593,29.05
08.609,32.06
08.625,33.33
08.640,33.03
08.656,31.51
08.671,29.25
08.687,26.81
08.703,24.61
08.718,22.88
08.734,21.6
08.750,20.6
08.765,19.75
08.781,18.97
08.796,18.28
08.812,17.68
08.828,17.05
08.843,16.12
08.859,14.47
08.875,11.73
08.890,7.71
08.906,2.52
08.921,-3.42
08.937,-9.48
08.953,-15.06
08.968,-19.74
08.984,-23.48
09.000,-26.53
09.015,-29.44
09.031,-32.82
09.046,-37.15
09.062,-42.6
09.078,-48.83
09.093,-54.98
09.109,-59.76
09.125,-61.74
09.140,-59.82
09.156,-53.54
09.171,-43.29
09.187,-30.13
09.203,-15.52
09.218,-0.82
09.234,12.93
09.250,25.16
09.265,35.59
09.281,44.11
09.296,50.65
09.312,55.17
09.328,57.7
09.343,58.47
09.359,57.88
09.375,56.44
09.390,54.65
09.406,52.8
09.421,50.95
09.437,48.94
09.453,46.54
09.468,43.61
09.484,40.23
09.500,36.64
09.515,33.13
09.531,29.85
09.546,26.68
09.562,23.32
09.578,19.41
09.593,14.7
09.609,9.21
09.625,3.2
09.640,-2.9
09.656,-8.73
09.671,-14.07
09.687,-18.96
09.703,-23.67
09.718,-28.6
09.734,-34.22
09.750,-40.84
09.765,-48.43
09.781,-56.49
09.796,-64.02
09.812,-69.68
09.828,-72.12
09.843,-70.36
09.859,-64.07
09.875,-53.72
09.890,-40.39
09.906,-25.52
09.921,-10.57
09.937,3.3
09.953,15.34
09.968,25.14
09.984,32.57
10.000,37.61
10.015,40.36
10.031,40.98
10.046,39.78
10.062,37.22
10.078,33.92
10.093,30.41
10.109,27.13
10.125,24.23
10.140,21.63
10.156,19.15
10.171,16.64
10.187,14.07
10.203,11.55
10.218,9.24
10.234,7.23
10.250,5.47
10.265,3.78
10.281,1.84
10.296,-0.61
10.312,-3.72
10.328,-7.5
10.343,-11.81
10.359,-16.4
10.375,-21.0
10.390,-25.37
10.406,-29.33
10.421,-32.91
10.437,-36.28
10.453,-39.72
10.468,-43.63
10.484,-48.23
10.500,-53.47
10.515,-58.76
10.531,-62.98
10.546,-64.77
10.562,-62.88
10.578,-56.63
10.593,-46.21
10.609,-32.64
10.625,-17.45
10.640,-2.21
10.656,11.81
10.671,23.91
10.687,33.8
10.703,41.45
10.718,46.95
10.734,50.37
10.750,51.87
10.765,51.73
10.781,50.4
10.796,48.37
10.812,46.08
10.828,43.8
10.843,41.61
10.859,39.41
10.875,37.08
10.890,34.5
10.906,31.76
10.921,29.09
10.937,26.77
10.953,25.07
10.968,24.05
10.984,23.46
11.000,22.89
11.015,21.8
11.031,19.85
11.046,16.91
11.062,13.23
11.078,9.22
11.093,5.32
11.109,1.79
11.125,-1.36
11.140,-4.29
11.156,-7.28
11.171,-10.59
11.187,-14.38
11.203,-18.63
11.218,-23.08
11.234,-27.07
11.250,-29.7
11.265,-29.87
11.281,-26.7
11.296,-19.81
11.312,-9.53
11.328,3.13
11.343,16.74
11.359,29.85
11.375,41.23
11.390,50.09
11.406,56.1
11.421,59.32
11.437,60.08
11.453,58.85
11.468,56.24
11.484,52.84
11.500,49.18
11.515,45.62
11.531,42.36
11.546,39.51
11.562,37.05
11.578,34.91
11.593,32.97
11.609,31.19
11.625,29.55
11.640,28.13
11.656,26.91
11.671,25.76
11.687,24.42
11.703,22.49
11.718,19.61
11.734,15.62
11.750,10.59
11.765,4.84
11.781,-1.23
11.796,-7.23
11.812,-12.94
11.828,-18.34
11.843,-23.6
11.859,-29.06
11.875,-35.06
11.890,-41.79
11.906,-49.1
11.921,-56.31
11.937,-62.23
11.953,-65.45
11.968,-64.71
11.984,-59.34
12.000,-49.5
12.015,-36.2
12.031,-20.96
12.046,-5.4
12.062,9.14
12.078,21.83
12.093,32.26
12.109,40.3
12.125,45.91
12.140,49.12
12.156,50.08
12.171,49.09
12.187,46.62
12.203,43.25
12.218,39.53
12.234,35.84
12.250,32.36
12.265,29.07
12.281,25.88
12.296,22.73
12.312,19.58
12.328,16.48
12.343,13.55
12.359,10.87
12.375,8.46
12.390,6.24
12.406,4.02
12.421,1.56
12.437,-1.33
12.453,-4.66
12.468,-8.28
12.484,-11.91
12.500,-15.28
12.515,-18.37
12.531,-21.35
12.546,-24.6
12.562,-28.52
12.578,-33.45
12.593,-39.54
12.609,-46.69
12.625,-54.53
12.640,-62.31
12.656,-69.02
12.671,-73.47
12.687,-74.58
12.703,-71.71
12.718,-64.86
12.734,-54.67
12.750,-42.21
12.765,-28.58
12.781,-14.65
12.796,-0.93
12.812,12.37
12.828,25.06
12.843,36.87
12.859,47.32
12.875,55.92
12.890,62.29
12.906,66.32
12.921,68.29
12.937,68.77
12.953,68.51
12.968,68.23
12.984,68.45
13.000,69.39
13.015,71.05
13.031,73.16
13.046,75.48
13.062,77.71
13.078,79.58
13.093,80.82
13.109,81.16
13.125,80.33
13.140,78.15
13.156,74.56
13.171,69.6
13.187,63.46
13.203,56.35
13.218,48.4
13.234,39.67
13.250,30.11
13.265,19.6
13.281,8.03
13.296,-4.5
13.312,-17.65
13.328,-30.83
13.343,-43.24
13.359,-54.22
13.375,-63.32
13.390,-70.38
13.406,-75.37
13.421,-78.3
13.437,-79.02
13.453,-77.37
13.468,-73.34
13.484,-67.24
13.500,-59.8
13.515,-51.9
13.531,-44.41
13.546,-37.8
13.562,-32.13
13.578,-27.13
13.593,-22.46
13.609,-17.89
13.625,-13.36
13.640,-9.0
13.656,-5.07
13.671,-1.77
13.687,0.8
13.703,2.67
13.718,4.03
13.734,5.11
13.750,6.16
13.765,7.38
13.781,8.87
13.796,10.6
13.812,12.42
13.828,14.11
13.843,15.31
13.859,15.71
13.875,14.88
13.890,12.39
13.906,7.79
13.921,0.67
13.937,-9.17
13.953,-21.59
13.968,-35.93
13.984,-51.07
14.000,-65.57
14.015,-78.21
14.031,-88.28
14.046,-95.83
14.062,-101.59
14.078,-106.55
14.093,-111.68
14.109,-117.54
14.125,-124.14
14.140,-130.91
14.156,-136.82
14.171,-140.49
14.187,-140.37
14.203,-135.2
14.218,-124.3
14.234,-107.94
14.250,-87.38
14.265,-64.61
14.281,-41.85
14.296,-20.95
14.312,-3.12
14.328,11.26
14.343,22.38
14.359,30.69
14.375,36.66
14.390,40.66
14.406,42.92
14.421,43.72
14.437,43.51
14.453,42.87
14.468,42.53
14.484,43.07
14.500,44.83
14.515,47.78
14.531,51.51
14.546,55.43
14.562,58.87
14.578,61.26
14.593,62.22
14.609,61.6
14.625,59.4
14.640,55.78
14.656,51.03
14.671,45.55
14.687,39.9
14.703,34.7
14.718,30.58
14.734,27.95
14.750,26.95
14.765,27.36
14.781,28.6
14.796,29.93
14.812,30.7
14.828,30.71
14.843,30.28
14.859,30.29
14.875,31.83
14.890,36.01
14.906,43.67
14.921,55.16
14.937,70.34
14.953,88.41
14.968,107.77
14.984,125.89
15.000,139.4
15.015,144.83
15.031,139.59
15.046,122.76
15.062,95.3
15.078,59.59
15.093,18.44
15.109,-25.5
15.125,-69.88
15.140,-112.22
15.156,-149.55
15.171,-178.48
15.187,-196.07
15.203,-200.82
15.218,-193.25
15.234,-175.77
15.250,-151.69
15.265,-124.05
15.281,-94.95
15.296,-65.5
15.312,-36.32
15.328,-8.18
15.343,17.76
15.359,40.12
15.375,57.63
15.390,69.68
15.406,76.67
15.421,79.99
15.437,81.61
15.453,83.44
15.468,86.67
15.484,91.54
15.500,97.49
15.515,103.65
15.531,109.47
15.546,114.93
15.562,120.36
15.578,125.87
15.593,130.96
15.609,134.52
15.625,135.2
15.640,132.06
15.656,124.94
15.671,114.45
15.687,101.54
15.703,86.95
15.718,70.91
15.734,53.15
15.750,33.27
15.765,11.13
15.781,-12.83
15.796,-37.64
15.812,-62.05
15.828,-84.85
15.843,-105.19
15.859,-122.75
15.875,-137.63
15.890,-149.99
15.906,-159.87
15.921,-166.85
15.937,-170.31
15.953,-169.73
15.968,-165.11
15.984,-157.27
16.000,-147.67
16.015,-138.02
16.031,-129.76
16.046,-123.81
16.062,-120.49
16.078,-119.73
16.093,-121.2
16.109,-124.37
16.125,-128.54
16.140,-132.82
16.156,-136.33
16.171,-138.4
16.187,-138.76
16.203,-137.47
16.218,-134.62
16.234,-129.99
16.250,-122.95
16.265,-112.67
16.281,-98.55
16.296,-80.72
16.312,-60.11
16.328,-38.3
16.343,-16.92
16.359,2.72
16.375,19.94
16.390,34.63
16.406,46.9
16.421,56.76
16.437,64.02
16.453,68.45
16.468,69.99
16.484,69.11
16.500,66.64
16.515,63.66
16.531,61.13
16.546,59.79
16.562,60.08
16.578,62.34
16.593,66.74
16.609,73.25
16.625,81.46
16.640,90.48
16.656,99.15
16.671,106.36
16.687,111.44
16.703,114.35
16.718,115.58
16.734,115.77
16.750,115.34
16.765,114.37
16.781,112.63
16.796,109.98
16.812,106.49
16.828,102.42
16.843,97.95
16.859,92.87
16.875,86.5
16.890,77.97
16.906,66.9
16.921,53.84
16.937,40.5
16.953,29.23
16.968,22.21
16.984,20.67
17.000,24.63
17.015,33.1
17.031,44.55
17.046,57.28
17.062,69.41
17.078,79.05
17.093,84.29
17.109,83.93
17.125,77.99
17.140,67.89
17.156,55.84
17.171,43.93
17.187,33.23
17.203,23.76
17.218,15.23
17.234,7.84
17.250,2.64
17.265,1.11
17.281,4.07
17.296,11.23
17.312,21.31
17.328,33.01
17.343,45.76
17.359,59.86
17.375,75.79
17.390,93.26
17.406,110.84
17.421,126.27
17.437,137.54
17.453,143.68
17.468,145.18
17.484,143.35
17.500,139.52
17.515,134.06
17.531,126.21
17.546,114.55
17.562,97.77
17.578,75.54
17.593,48.58
17.609,18.32
17.625,-13.88
17.640,-47.28
17.656,-81.79
17.671,-117.21
17.687,-152.22
17.703,-183.93
17.718,-208.02
17.734,-220.11
17.750,-217.4
17.765,-199.79
17.781,-170.13
17.796,-133.36
17.812,-95.06
17.828,-60.16
17.843,-32.16
17.859,-12.69
17.875,-1.72
17.890,2.18
17.906,1.29
17.921,-1.8
17.937,-4.82
17.953,-6.33
17.968,-5.99
17.984,-4.54
18.000,-3.31
18.015,-3.81
18.031,-7.14
18.046,-13.61
18.062,-22.67
18.078,-33.03
18.093,-43.08
18.109,-51.3
18.125,-56.62
18.140,-58.53
18.156,-57.01
18.171,-52.34
18.187,-44.9
18.203,-35.05
18.218,-23.18
18.234,-9.67
18.250,5.1
18.265,20.7
18.281,36.8
18.296,52.86
18.312,68.18
18.328,81.69
18.343,91.92
18.359,97.15
18.375,95.68
18.390,86.33
18.406,68.7
18.421,43.59
18.437,12.73
18.453,-21.52
18.468,-56.76
18.484,-91.01
18.500,-122.87
18.515,-151.46
18.531,-176.11
18.546,-196.07
18.562,-210.42
18.578,-218.36
18.593,-219.62
18.609,-214.8
18.625,-205.37
18.640,-193.41
18.656,-181.04
18.671,-169.93
18.687,-160.97
18.703,-154.23
18.718,-149.36
18.734,-145.83
18.750,-143.37
18.765,-141.98
18.781,-141.85
18.796,-143.1
18.812,-145.59
18.828,-148.99
18.843,-152.87
18.859,-156.99
18.875,-161.31
18.890,-165.8
18.906,-170.23
18.921,-173.94
18.937,-175.94
18.953,-175.24
18.968,-171.37
18.984,-164.6
19.000,-155.97
19.015,-147.0
19.031,-139.17
19.046,-133.68
19.062,-130.97
19.078,-130.61
19.093,-131.15
19.109,-130.38
19.125,-125.69
19.140,-114.88
19.156,-96.83
19.171,-72.05
19.187,-42.54
19.203,-11.2
19.218,18.99
19.234,45.79
19.250,67.95
19.265,85.2
19.281,97.77
19.296,106.14
19.312,110.81
19.328,112.34
19.343,111.46
19.359,109.04
19.375,106.01
19.390,103.15
19.406,100.93
19.421,99.47
19.437,98.54
19.453,97.84
19.468,97.13
19.484,96.33
19.500,95.58
19.515,94.96
19.531,94.43
19.546,93.63
19.562,92.04
19.578,89.12
19.593,84.59
19.609,78.55
19.625,71.45
19.640,63.95
19.656,56.62
19.671,49.72
19.687,43.15
19.703,36.53
19.718,29.37
19.734,21.27
19.750,12.12
19.765,2.22
19.781,-7.6
19.796,-16.1
19.812,-21.72
19.828,-23.08
19.843,-19.37
19.859,-10.66
19.875,2.07
19.890,17.13
19.906,32.68
19.921,47.23
19.937,59.81
19.953,70.04
19.968,77.88
19.984,83.36
20.000,86.46
20.015,87.21
20.031,85.79
20.046,82.66
20.062,78.56
20.078,74.27
20.093,70.45
20.109,67.42
20.125,65.12
20.140,63.18
20.156,61.16
20.171,58.74
20.187,55.88
20.203,52.7
20.218,49.38
20.234,46.01
20.250,42.43
20.265,38.34
20.281,33.44
20.296,27.65
20.312,21.13
20.328,14.33
20.343,7.71
20.359,1.55
20.375,-4.08
20.390,-9.41
20.406,-14.83
20.421,-20.64
20.437,-27.08
20.453,-34.29
20.468,-42.28
20.484,-50.86
20.500,-59.5
20.515,-67.13
20.531,-72.28
20.546,-73.39
20.562,-69.34
20.578,-59.85
20.593,-45.74
20.609,-28.64
20.625,-10.52
20.640,6.85
20.656,22.31
20.671,35.35
20.687,45.9
20.703,54.1
20.718,60.06
20.734,63.79
20.750,65.4
20.765,65.16
20.781,63.58
20.796,61.36
20.812,59.17
20.828,57.46
20.843,56.25
20.859,55.25
20.875,53.97
20.890,52.03
20.906,49.27
20.921,45.86
20.937,42.13
20.953,38.38
20.968,34.77
20.984,31.29
21.000,27.82
21.015,24.19
21.031,20.26
21.046,15.9
21.062,11.02
21.078,5.59
21.093,-0.29
21.109,-6.39
21.125,-12.41
21.140,-18.07
21.156,-23.28
21.171,-28.22
21.187,-33.35
21.203,-39.27
21.218,-46.43
21.234,-54.92
21.250,-64.2
21.265,-73.08
21.281,-79.89
21.296,-82.84
21.312,-80.56
21.328,-72.58
21.343,-59.46
21.359,-42.7
21.375,-24.27
21.390,-6.1
21.406,10.35
21.421,24.24
21.437,35.35
21.453,43.81
21.468,49.87
21.484,53.8
21.500,55.81
21.515,56.12
21.531,55.05
21.546,52.98
21.562,50.41
21.578,47.77
21.593,45.35
21.609,43.26
21.625,41.41
21.640,39.58
21.656,37.56
21.671,35.26
21.687,32.66
21.703,29.83
21.718,26.83
21.734,23.7
21.750,20.41
21.765,16.89
21.781,12.99
21.796,8.62
21.812,3.72
21.828,-1.59
21.843,-7.04
21.859,-12.3
21.875,-17.13
21.890,-21.55
21.906,-25.87
21.921,-30.53
21.937,-35.97
21.953,-42.45
21.968,-49.98
21.984,-58.3
22.000,-66.91
22.015,-74.95
22.031,-81.25
22.046,-84.42
22.062,-83.15
22.078,-76.61
22.093,-64.87
22.109,-48.95
22.125,-30.62
22.140,-11.91
22.156,5.53
22.171,20.65
22.187,33.1
22.203,42.96
22.218,50.48
22.234,55.8
22.250,58.98
22.265,60.11
22.281,59.4
22.296,57.32
22.312,54.44
22.328,51.3
22.343,48.31
22.359,45.65
22.375,43.38
22.390,41.47
22.406,40.02
22.421,39.07
22.437,38.64
22.453,38.62
22.468,38.66
22.484,38.28
22.500,36.99
22.515,34.38
22.531,30.33
22.546,24.92
22.562,18.49
22.578,11.45
22.593,4.25
22.609,-2.74
22.625,-9.34
22.640,-15.51
22.656,-21.41
22.671,-27.35
22.687,-33.73
22.703,-40.86
22.718,-48.76
22.734,-57.07
22.750,-64.84
22.765,-70.75
22.781,-73.43
22.796,-71.82
22.812,-65.5
22.828,-54.9
22.843,-41.12
22.859,-25.58
22.875,-9.71
22.890,5.38
22.906,18.99
22.921,30.69
22.937,40.27
22.953,47.57
22.968,52.52
22.984,55.18
23.000,55.79
23.015,54.76
23.031,52.59
23.046,49.74
23.062,46.67
23.078,43.73
23.093,41.2
23.109,39.27
23.125,37.94
23.140,37.05
23.156,36.27
23.171,35.23
23.187,33.59
23.203,31.22
23.218,28.15
23.234,24.57
23.250,20.73
23.265,16.82
23.281,12.97
23.296,9.22
23.312,5.51
23.328,1.67
23.343,-2.44
23.359,-6.98
23.375,-11.96
23.390,-17.28
23.406,-22.74
23.421,-28.12
23.437,-33.26
23.453,-38.22
23.468,-43.17
23.484,-48.44
23.500,-54.31
23.515,-60.8
23.531,-67.46
23.546,-73.38
23.562,-77.24
23.578,-77.66
23.593,-73.62
23.609,-64.85
23.625,-51.95
23.640,-36.22
23.656,-19.27
23.671,-2.55
23.687,12.94
23.703,26.74
23.718,38.68
23.734,48.69
23.750,56.6
23.765,62.19
23.781,65.33
23.796,66.1
23.812,64.94
23.828,62.52
23.843,59.54
23.859,56.57
23.875,53.85
23.890,51.34
23.906,48.87
23.921,46.3
23.937,43.67
23.953,41.18
23.968,39.08
23.984,37.48
24.000,36.28
24.015,35.14
24.031,33.61
24.046,31.35
24.062,28.18
24.078,24.15
24.093,19.52
24.109,14.59
24.125,9.67
24.140,4.96
24.156,0.51
24.171,-3.77
24.187,-8.07
24.203,-12.59
24.218,-17.41
24.234,-22.43
24.250,-27.42
24.265,-32.13
24.281,-36.39
24.296,-40.27
24.312,-44.0
24.328,-47.9
24.343,-52.35
24.359,-57.65
24.375,-63.88
24.390,-70.76
24.406,-77.56
24.421,-83.04
24.437,-85.78
24.453,-84.46
24.468,-78.39
24.484,-67.74
24.500,-53.53
24.515,-37.29
24.531,-20.62
24.546,-4.81
24.562,9.36
24.578,21.55
24.593,31.66
24.609,39.73
24.625,45.77
24.640,49.86
24.656,52.14
24.671,52.9
24.687,52.52
24.703,51.37
24.718,49.71
24.734,47.72
24.750,45.5
24.765,43.08
24.781,40.58
24.796,38.02
24.812,35.41
24.828,32.7
24.843,29.8
24.859,26.63
24.875,23.16
24.890,19.47
24.906,15.67
24.921,12.02
24.937,8.75
24.953,6.14
24.968,4.39
24.984,3.64
25.000,3.84
25.015,4.78
25.031,6.13
25.046,7.43
25.062,8.27
25.078,8.32
25.093,7.34
25.109,5.26
25.125,2.19
25.140,-1.61
25.156,-5.82
25.171,-10.16
25.187,-14.51
25.203,-18.94
25.218,-23.65
25.234,-28.88
25.250,-34.68
25.265,-40.86
25.281,-46.88
25.296,-51.88
25.312,-54.82
25.328,-54.71
25.343,-50.87
25.359,-43.15
25.375,-32.03
25.390,-18.49
25.406,-3.87
25.421,10.46
25.437,23.35
25.453,34.02
25.468,42.13
25.484,47.68
25.500,50.89
25.515,52.1
25.531,51.73
25.546,50.16
25.562,47.76
25.578,44.88
25.593,41.8
25.609,38.77
25.625,35.93
25.640,33.32
25.656,30.9
25.671,28.63
25.687,26.53
25.703,24.7
25.718,23.22
25.734,22.04
25.750,21.0
25.765,19.72
25.781,17.84
25.796,15.15
25.812,11.69
25.828,7.78
25.843,3.89
25.859,0.38
25.875,-2.66
25.890,-5.39
25.906,-8.15
25.921,-11.28
25.937,-14.95
25.953,-19.05
25.968,-23.3
25.984,-27.29
26.000,-30.72
26.015,-33.49
26.031,-35.73
26.046,-37.84
26.062,-40.32
26.078,-43.65
26.093,-48.1
26.109,-53.61
26.125,-59.64
26.140,-65.26
26.156,-69.29
26.171,-70.52
26.187,-68.02
26.203,-61.47
26.218,-51.26
26.234,-38.51
26.250,-24.72
26.265,-11.34
26.281,0.66
26.296,11.04
26.312,20.14
26.328,28.58
26.343,36.72
26.359,44.52
26.375,51.43
26.390,56.72
26.406,59.83
26.421,60.59
26.437,59.23
26.453,56.23
26.468,52.2
26.484,47.67
26.500,43.14
26.515,39.04
26.531,35.75
26.546,33.43
26.562,31.98
26.578,30.99
26.593,29.9
26.609,28.18
26.625,25.57
26.640,22.14
26.656,18.21
26.671,14.19
26.687,10.46
26.703,7.2
26.718,4.43
26.734,1.94
26.750,-0.51
26.765,-3.19
26.781,-6.25
26.796,-9.65
26.812,-13.18
26.828,-16.44
26.843,-19.06
26.859,-20.82
26.875,-21.81
26.890,-22.39
26.906,-23.06
26.921,-24.16
26.937,-25.65
26.953,-27.02
26.968,-27.39
26.984,-25.81
27.000,-21.58
27.015,-14.57
27.031,-5.23
27.046,5.48
27.062,16.47
27.078,26.75
27.093,35.62
27.109,42.7
27.125,47.83
27.140,51.09
27.156,52.68
27.171,52.93
27.187,52.23
27.203,50.9
27.218,49.18
27.234,47.14
27.250,44.82
27.265,42.23
27.281,39.45
27.296,36.54
27.312,33.55
27.328,30.48
27.343,27.34
27.359,24.21
27.375,21.3
27.390,18.82
27.406,16.88
27.421,15.34
27.437,13.87
27.453,12.04
27.468,9.5
27.484,6.19
27.500,2.29
27.515,-1.86
27.531,-5.92
27.546,-9.69
27.562,-13.21
27.578,-16.63
27.593,-20.21
27.609,-24.13
27.625,-28.43
27.640,-32.96
27.656,-37.43
27.671,-41.53
27.687,-45.03
27.703,-48.0
27.718,-50.71
27.734,-53.61
27.750,-57.09
27.765,-61.28
27.781,-65.92
27.796,-70.37
27.812,-73.79
27.828,-75.2
27.843,-73.85
27.859,-69.3
27.875,-61.56
27.890,-51.1
27.906,-38.79
27.921,-25.68
27.937,-12.73
27.953,-0.68
27.968,10.04
27.984,19.27
28.000,27.0
28.015,33.19
28.031,37.78
28.046,40.67
28.062,41.87
28.078,41.58
28.093,40.25
28.109,38.42
28.125,36.63
28.140,35.28
28.156,34.55
28.171,34.38
28.187,34.6
28.203,34.99
28.218,35.31
28.234,35.38
28.250,35.04
28.265,34.15
28.281,32.61
28.296,30.35
28.312,27.36
28.328,23.75
28.343,19.71
28.359,15.49
28.375,11.34
28.390,7.41
28.406,3.69
28.421,-0.03
28.437,-4.04
28.453,-8.61
28.468,-13.73
28.484,-19.15
28.500,-24.35
28.515,-28.83
28.531,-32.3
28.546,-34.78
28.562,-36.65
28.578,-38.45
28.593,-40.73
28.609,-43.91
28.625,-48.12
28.640,-53.21
28.656,-58.71
28.671,-63.84
28.687,-67.51
28.703,-68.57
28.718,-66.12
28.734,-59.79
28.750,-49.96
28.765,-37.62
28.781,-24.11
28.796,-10.72
28.812,1.58
28.828,12.33
28.843,21.39
28.859,28.82
28.875,34.64
28.890,38.84
28.906,41.38
28.921,42.37
28.937,42.08
28.953,40.91
28.968,39.31
28.984,37.57
29.000,35.84
29.015,34.13
29.031,32.42
29.046,30.78
29.062,29.38
29.078,28.39
29.093,27.9
29.109,27.73
29.125,27.53
29.140,26.83
29.156,25.25
29.171,22.58
29.187,18.94
29.203,14.7
29.218,10.36
29.234,6.4
29.250,3.06
29.265,0.29
29.281,-2.24
29.296,-5.0
29.312,-8.34
29.328,-12.34
29.343,-16.77
29.359,-21.21
29.375,-25.28
29.390,-28.8
29.406,-31.87
29.421,-34.86
29.437,-38.15
29.453,-42.06
29.468,-46.66
29.484,-51.8
29.500,-57.07
29.515,-61.85
29.531,-65.34
29.546,-66.68
29.562,-65.12
29.578,-60.26
29.593,-52.26
29.609,-41.8
29.625,-29.93
29.640,-17.87
29.656,-6.57
29.671,3.31
29.687,11.55
29.703,18.18
29.718,23.27
29.734,26.84
29.750,28.9
29.765,29.5
29.781,28.85
29.796,27.34
29.812,25.44
29.828,23.56
29.843,21.9
29.859,20.46
29.875,19.13
29.890,17.76
29.906,16.34
29.921,14.95
29.937,13.79
29.953,12.92
29.968,12.33
29.984,11.82
30.000,11.08
30.015,9.89
30.031,8.14
30.046,5.94
30.062,3.52
30.078,1.23
30.093,-0.79
30.109,-2.52
30.125,-4.18
30.140,-6.07
30.156,-8.41
30.171,-11.23
30.187,-14.38
30.203,-17.65
30.218,-20.78
30.234,-23.68
30.250,-26.38
30.265,-29.0
30.281,-31.7
30.296,-34.61
30.312,-37.82
30.328,-41.31
30.343,-45.01
30.359,-48.64
30.375,-51.74
30.390,-53.64
30.406,-53.66
30.421,-51.22
30.437,-45.99
30.453,-38.08
30.468,-27.97
30.484,-16.46
30.500,-4.54
30.515,6.83
30.531,16.8
30.546,24.82
30.562,30.62
30.578,34.21
30.593,35.84
30.609,35.96
30.625,35.04
30.640,33.59
30.656,32.02
30.671,30.62
30.687,29.53
30.703,28.79
30.718,28.34
30.734,28.04
30.750,27.8
30.765,27.45
30.781,26.86
30.796,25.94
30.812,24.64
30.828,23.01
30.843,21.09
30.859,18.92
30.875,16.55
30.890,13.99
30.906,11.27
30.921,8.42
30.937,5.49
30.953,2.44
30.968,-0.74
30.984,-4.1
31.000,-7.54
31.015,-10.86
31.031,-13.77
31.046,-16.17
31.062,-18.12
31.078,-19.98
31.093,-22.24
31.109,-25.28
31.125,-29.15
31.140,-33.49
31.156,-37.51
31.171,-40.18
31.187,-40.6
31.203,-38.13
31.218,-32.62
31.234,-24.46
31.250,-14.42
31.265,-3.5
31.281,7.3
31.296,17.2
31.312,25.7
31.328,32.58
31.343,37.81
31.359,41.46
31.375,43.59
31.390,44.31
31.406,43.77
31.421,42.19
31.437,39.9
31.453,37.23
31.468,34.47
31.484,31.82
31.500,29.37
31.515,27.09
31.531,25.0
31.546,23.15
31.562,21.64
31.578,20.57
31.593,19.97
31.609,19.71
31.625,19.5
31.640,18.93
31.656,17.56
31.671,15.09
31.687,11.54
31.703,7.21
31.718,2.66
31.734,-1.44
31.750,-4.61
31.765,-6.7
31.781,-7.92
31.796,-8.77
31.812,-9.8
31.828,-11.44
31.843,-13.99
31.859,-17.51
31.875,-21.81
31.890,-26.44
31.906,-30.65
31.921,-33.51
31.937,-34.11
31.953,-31.84
31.968,-26.59
31.984,-18.88
32.000,-9.59
32.015,0.24
32.031,9.79
32.046,18.55
32.062,26.27
32.078,32.86
32.093,38.24
32.109,42.35
32.125,45.15
32.140,46.8
32.156,47.5
32.171,47.61
32.187,47.4
32.203,47.06
32.218,46.7
32.234,46.33
32.250,46.08
32.265,46.15
32.281,46.8
32.296,48.27
32.312,50.64
32.328,53.76
32.343,57.23
32.359,60.56
32.375,63.36
32.390,65.57
32.406,67.5
32.421,69.75
32.437,72.95
32.453,77.46
32.468,83.24
32.484,89.89
32.500,96.82
32.515,103.52
32.531,109.74
32.546,115.68
32.562,121.79
32.578,128.71
32.593,136.88
32.609,146.46
32.625,157.17
32.640,168.44
32.656,179.47
32.671,189.52
32.687,198.09
32.703,205.06
32.718,210.84
32.734,216.18
32.750,222.2
32.765,229.84
32.781,239.42
32.796,249.98
32.812,259.2
32.828,263.92
32.843,261.04
32.859,248.81
32.875,227.33
32.890,198.62
32.906,165.71
32.921,131.57
32.937,98.25
32.953,66.71
32.968,37.12
32.984,9.35
33.000,-16.7
33.015,-41.22
33.031,-64.67
33.046,-87.89
33.062,-111.92
33.078,-137.52
33.093,-164.83
33.109,-193.43
33.125,-222.57
33.140,-251.56
33.156,-280.11
33.171,-308.26
33.187,-336.15
33.203,-363.66
33.218,-390.12
33.234,-414.27
33.250,-434.35
33.265,-448.43
33.281,-454.82
33.296,-452.48
33.312,-441.54
33.328,-423.43
33.343,-400.82
33.359,-376.88
33.375,-354.5
33.390,-335.25
33.406,-319.01
33.421,-304.05
33.437,-287.88
33.453,-268.32
33.468,-244.31
33.484,-216.26
33.500,-185.59
33.515,-154.04
33.531,-122.9
33.546,-92.63
33.562,-63.17
33.578,-34.35
33.593,-6.49
33.609,19.38
33.625,41.84
33.640,59.77
33.656,73.07
33.671,83.0
33.687,91.85
33.703,102.02
33.718,114.93
33.734,130.29
33.750,146.29
33.765,160.44
33.781,170.75
33.796,176.68
33.812,179.22
33.828,180.34
33.843,181.94
33.859,185.17
33.875,190.14
33.890,196.06
33.906,201.37
33.921,203.71
33.937,200.2
33.953,188.1
33.968,165.92
33.984,134.46
34.000,97.1
34.015,58.89
34.031,24.77
34.046,-2.07
34.062,-21.14
34.078,-34.23
34.093,-44.15
34.109,-53.33
34.125,-63.07
34.140,-73.62
34.156,-84.53
34.171,-95.2
34.187,-104.95
34.203,-112.91
34.218,-118.07
34.234,-119.61
34.250,-117.24
34.265,-111.38
34.281,-103.15
34.296,-94.05
34.312,-85.63
34.328,-79.05
34.343,-74.9
34.359,-73.14
34.375,-73.19
34.390,-74.22
34.406,-75.34
34.421,-75.98
34.437,-76.02
34.453,-75.88
34.468,-76.28
34.484,-78.01
34.500,-81.6
34.515,-87.04
34.531,-93.73
34.546,-100.59
34.562,-106.37
34.578,-110.06
34.593,-111.2
34.609,-109.86
34.625,-106.6
34.640,-102.14
34.656,-97.1
34.671,-91.85
34.687,-86.57
34.703,-81.36
34.718,-76.38
34.734,-71.9
34.750,-68.17
34.765,-65.38
34.781,-63.63
34.796,-63.05
34.812,-63.82
34.828,-66.17
34.843,-70.19
34.859,-75.55
34.875,-81.33
34.890,-86.02
34.906,-87.93
34.921,-85.73
34.937,-78.95
34.953,-68.1
34.968,-54.6
34.984,-40.19
35.000,-26.47
35.015,-14.58
35.031,-5.13
35.046,1.65
35.062,5.8
35.078,7.49
35.093,7.09
35.109,5.08
35.125,2.12
35.140,-1.12
35.156,-4.07
35.171,-6.41
35.187,-8.04
35.203,-9.08
35.218,-9.8
35.234,-10.46
35.250,-11.29
35.265,-12.3
35.281,-13.39
35.296,-14.38
35.312,-15.13
35.328,-15.66
35.343,-16.26
35.359,-17.33
35.375,-19.19
35.390,-21.97
35.406,-25.53
35.421,-29.54
35.437,-33.69
35.453,-37.81
35.468,-41.86
35.484,-45.94
35.500,-50.18
35.515,-54.66
35.531,-59.37
35.546,-64.09
35.562,-68.25
35.578,-70.85
35.593,-70.54
35.609,-65.97
35.625,-56.21
35.640,-41.23
35.656,-22.05
35.671,-0.5
35.687,21.39
35.703,41.93
35.718,60.1
35.734,75.57
35.750,88.38
35.765,98.62
35.781,106.24
35.796,111.13
35.812,113.26
35.828,112.85
35.843,110.47
35.859,106.87
35.875,102.84
35.890,99.03
35.906,95.87
35.921,93.52
35.937,92.02
35.953,91.4
35.968,91.68
35.984,92.87
36.000,94.88
36.015,97.35
36.031,99.67
36.046,101.05
36.062,100.82
36.078,98.63
36.093,94.68
36.109,89.62
36.125,84.33
36.140,79.66
36.156,76.16
36.171,73.91
36.187,72.57
36.203,71.53
36.218,70.15
36.234,68.01
36.250,65.16
36.265,62.28
36.281,60.67
36.296,61.99
36.312,67.7
36.328,78.44
36.343,93.62
36.359,111.37
36.375,129.05
36.390,144.08
36.406,154.66
36.421,160.25
36.437,161.42
36.453,159.33
36.468,155.15
36.484,149.55
36.500,142.67
36.515,134.14
36.531,123.55
36.546,110.56
36.562,95.29
36.578,78.25
36.593,60.5
36.609,43.54
36.625,29.08
36.640,18.64
36.656,13.14
36.671,12.55
36.687,15.77
36.703,20.88
36.718,25.66
36.734,28.11
36.750,26.85
36.765,21.28
36.781,11.49
36.796,-1.93
36.812,-18.01
36.828,-35.58
36.843,-53.38
36.859,-70.16
36.875,-84.94
36.890,-97.06
36.906,-106.32
36.921,-112.95
36.937,-117.4
36.953,-120.26
36.968,-122.09
36.984,-123.47
37.000,-124.84
37.015,-126.47
37.031,-128.25
37.046,-129.63
37.062,-129.63
37.078,-126.93
37.093,-120.42
37.109,-109.4
37.125,-93.97
37.140,-74.97
37.156,-53.75
37.171,-31.81
37.187,-10.42
37.203,9.51
37.218,27.48
37.234,43.27
37.250,56.74
37.265,67.82
37.281,76.47
37.296,82.66
37.312,86.5
37.328,88.21
37.343,88.1
37.359,86.64
37.375,84.29
37.390,81.53
37.406,78.72
37.421,76.08
37.437,73.65
37.453,71.42
37.468,69.38
37.484,67.56
37.500,65.97
37.515,64.54
37.531,63.03
37.546,61.08
37.562,58.28
37.578,54.41
37.593,49.5
37.609,43.83
37.625,37.86
37.640,31.99
37.656,26.47
37.671,21.3
37.687,16.33
37.703,11.36
37.718,6.29
37.734,1.17
37.750,-3.81
37.765,-8.41
37.781,-12.52
37.796,-16.15
37.812,-19.45
37.828,-22.65
37.843,-25.99
37.859,-29.7
37.875,-34.03
37.890,-39.15
37.906,-45.03
37.921,-51.23
37.937,-56.87
37.953,-60.72
37.968,-61.47
37.984,-58.19
38.000,-50.75
38.015,-39.75
38.031,-26.41
38.046,-12.11
38.062,1.98
38.078,15.08
38.093,26.74
38.109,36.82
38.125,45.22
38.140,51.83
38.156,56.55
38.171,59.28
38.187,60.06
38.203,59.11
38.218,56.8
38.234,53.61
38.250,50.0
38.265,46.36
38.281,42.92
38.296,39.74
38.312,36.83
38.328,34.18
38.343,31.86
38.359,30.01
38.375,28.72
38.390,27.96
38.406,27.52
38.421,27.01
38.437,25.96
38.453,23.9
38.468,20.52
38.484,15.78
38.500,9.9
38.515,3.25
38.531,-3.71
38.546,-10.61
38.562,-17.2
38.578,-23.31
38.593,-28.79
38.609,-33.55
38.625,-37.5
38.640,-40.64
38.656,-43.09
38.671,-45.08
38.687,-46.84
38.703,-48.52
38.718,-50.15
38.734,-51.72
38.750,-53.27
38.765,-55.01
38.781,-57.21
38.796,-60.12
38.812,-63.63
38.828,-67.2
38.843,-69.84
38.859,-70.32
38.875,-67.58
38.890,-61.11
38.906,-51.14
38.921,-38.57
38.937,-24.7
38.953,-10.83
38.968,2.06
38.984,13.4
39.000,23.04
39.015,30.97
39.031,37.24
39.046,41.9
39.062,45.02
39.078,46.81
39.093,47.55
39.109,47.67
39.125,47.43
39.140,47.07
39.156,46.6
39.171,45.94
39.187,45.05
39.203,43.96
39.218,42.81
39.234,41.79
39.250,41.05
39.265,40.64
39.281,40.46
39.296,40.27
39.312,39.77
39.328,38.71
39.343,36.98
39.359,34.67
39.375,32.07
39.390,29.53
39.406,27.35
39.421,25.67
39.437,24.38
39.453,23.22
39.468,21.92
39.484,20.25
39.500,18.15
39.515,15.74
39.531,13.22
39.546,10.71
39.562,8.24
39.578,5.68
39.593,2.79
39.609,-0.7
39.625,-5.06
39.640,-10.46
39.656,-16.87
39.671,-24.03
39.687,-31.36
39.703,-38.03
39.718,-43.01
39.734,-45.35
39.750,-44.48
39.765,-40.27
39.781,-33.15
39.796,-23.92
39.812,-13.53
39.828,-2.9
39.843,7.22
39.859,16.27
39.875,23.91
39.890,29.94
39.906,34.29
39.921,37.02
39.937,38.26
39.953,38.2
39.968,37.1
39.984,35.2
40.000,32.79
40.015,30.2
40.031,27.74
40.046,25.65
40.062,24.01
40.078,22.79
40.093,21.8
40.109,20.85
40.125,19.81
40.140,18.58
40.156,17.14
40.171,15.42
40.187,13.3
40.203,10.62
40.218,7.28
40.234,3.32
40.250,-1.02
40.265,-5.37
40.281,-9.4
40.296,-12.88
40.312,-15.79
40.328,-18.2
40.343,-20.33
40.359,-22.27
40.375,-24.14
40.390,-25.93
40.406,-27.68
40.421,-29.41
40.437,-31.14
40.453,-32.88
40.468,-34.66
40.484,-36.57
40.500,-38.69
40.515,-41.17
40.531,-44.05
40.546,-47.2
40.562,-50.27
40.578,-52.71
40.593,-53.9
40.609,-53.3
40.625,-50.59
40.640,-45.68
40.656,-38.76
40.671,-30.2
40.687,-20.44
40.703,-10.04
40.718,0.42
40.734,10.32
40.750,19.14
40.765,26.46
40.781,32.07
40.796,35.95
40.812,38.25
40.828,39.19
40.843,38.96
40.859,37.82
40.875,35.97
40.890,33.64
40.906,31.03
40.921,28.28
40.937,25.51
40.953,22.77
40.968,20.14
40.984,17.65
41.000,15.35
41.015,13.26
41.031,11.27
41.046,9.25
41.062,7.05
41.078,4.57
41.093,1.83
41.109,-1.08
41.125,-4.05
41.140,-6.98
41.156,-9.82
41.171,-12.58
41.187,-15.34
41.203,-18.15
41.218,-21.05
41.234,-24.01
41.250,-26.95
41.265,-29.77
41.281,-32.41
41.296,-34.85
41.312,-37.19
41.328,-39.53
41.343,-42.0
41.359,-44.62
41.375,-47.35
41.390,-50.15
41.406,-53.01
41.421,-56.04
41.437,-59.36
41.453,-62.98
41.468,-66.67
41.484,-69.94
41.500,-72.11
41.515,-72.42
41.531,-70.33
41.546,-65.57
41.562,-58.24
41.578,-48.78
41.593,-37.83
41.609,-26.14
41.625,-14.49
41.640,-3.57
41.656,6.1
41.671,14.18
41.687,20.6
41.703,25.38
41.718,28.69
41.734,30.75
41.750,31.79
41.765,31.95
41.781,31.4
41.796,30.23
41.812,28.5
41.828,26.33
41.843,23.82
41.859,21.12
41.875,18.43
41.890,15.98
41.906,13.93
41.921,12.41
41.937,11.4
41.953,10.79
41.968,10.39
41.984,9.98
42.000,9.35
42.015,8.35
42.031,6.89
42.046,5.05
42.062,3.03
42.078,1.08
42.093,-0.63
42.109,-2.04
42.125,-3.27
42.140,-4.59
42.156,-6.26
42.171,-8.45
42.187,-11.1
42.203,-13.98
42.218,-16.8
42.234,-19.38
42.250,-21.6
42.265,-23.52
42.281,-25.26
42.296,-26.94
42.312,-28.71
42.328,-30.61
42.343,-32.63
42.359,-34.64
42.375,-36.33
42.390,-37.19
42.406,-36.61
42.421,-34.07
42.437,-29.32
42.453,-22.57
42.468,-14.41
42.484,-5.69
42.500,2.74
42.515,10.28
42.531,16.68
42.546,21.92
42.562,26.15
42.578,29.49
42.593,32.0
42.609,33.72
42.625,34.68
42.640,35.08
42.656,35.14
42.671,35.06
42.687,34.86
42.703,34.42
42.718,33.49
42.734,31.89
42.750,29.57
42.765,26.7
42.781,23.6
42.796,20.61
42.812,17.92
42.828,15.51
42.843,13.26
42.859,11.04
42.875,8.86
42.890,6.87
42.906,5.31
42.921,4.42
42.937,4.29
42.953,4.83
42.968,5.77
42.984,6.75
43.000,7.38
43.015,7.24
43.031,6.06
43.046,3.73
43.062,0.27
43.078,-4.11
43.093,-9.15
43.109,-14.58
43.125,-20.23
43.140,-26.0
43.156,-31.8
43.171,-37.54
43.187,-42.94
43.203,-47.63
43.218,-51.09
43.234,-52.7
43.250,-51.91
43.265,-48.33
43.281,-41.93
43.296,-33.01
43.312,-22.3
43.328,-10.77
43.343,0.58
43.359,10.92
43.375,19.68
43.390,26.69
43.406,31.99
43.421,35.72
43.437,38.05
43.453,39.14
43.468,39.09
43.484,38.12
43.500,36.52
43.515,34.65
43.531,32.95
43.546,31.68
43.562,30.91
43.578,30.53
43.593,30.29
43.609,29.91
43.625,29.17
43.640,27.99
43.656,26.4
43.671,24.49
43.687,22.3
43.703,19.82
43.718,17.0
43.734,13.76
43.750,10.13
43.765,6.26
43.781,2.39
43.796,-1.25
43.812,-4.51
43.828,-7.46
43.843,-10.24
43.859,-13.08
43.875,-16.06
43.890,-19.13
43.906,-22.1
43.921,-24.78
43.937,-27.14
43.953,-29.28
43.968,-31.4
43.984,-33.7
44.000,-36.27
44.015,-39.15
44.031,-42.29
44.046,-45.66
44.062,-49.21
44.078,-52.83
44.093,-56.18
44.109,-58.71
44.125,-59.72
44.140,-58.51
44.156,-54.63
44.171,-47.99
44.187,-38.94
44.203,-28.18
44.218,-16.58
44.234,-4.95
44.250,6.05
44.265,16.0
44.281,24.66
44.296,31.87
44.312,37.54
44.328,41.66
44.343,44.32
44.359,45.73
44.375,46.21
44.390,46.11
44.406,45.63
44.421,44.91
44.437,43.83
44.453,42.36
44.468,40.48
44.484,38.35
44.500,36.2
44.515,34.22
44.531,32.46
44.546,30.74
44.562,28.82
44.578,26.47
44.593,23.71
44.609,20.78
44.625,18.0
44.640,15.59
44.656,13.55
44.671,11.69
44.687,9.68
44.703,7.31
44.718,4.48
44.734,1.31
44.750,-2.02
44.765,-5.35
44.781,-8.63
44.796,-11.91
44.812,-15.29
44.828,-18.88
44.843,-22.72
44.859,-26.82
44.875,-31.26
44.890,-36.11
44.906,-41.46
44.921,-47.19
44.937,-52.96
44.953,-58.08
44.968,-61.6
44.984,-62.56
45.000,-60.27
45.015,-54.55
45.031,-45.79
45.046,-34.82
45.062,-22.73
45.078,-10.61
45.093,0.66
45.109,10.49
45.125,18.63
45.140,25.08
45.156,29.95
45.171,33.4
45.187,35.54
45.203,36.43
45.218,36.23
45.234,35.08
45.250,33.25
45.265,30.99
45.281,28.55
45.296,26.07
45.312,23.65
45.328,21.38
45.343,19.34
45.359,17.69
45.375,16.46
45.390,15.55
45.406,14.73
45.421,13.67
45.437,12.09
45.453,9.83
45.468,6.9
45.484,3.49
45.500,-0.16
45.515,-3.84
45.531,-7.4
45.546,-10.76
45.562,-13.91
45.578,-16.91
45.593,-19.83
45.609,-22.73
45.625,-25.62
45.640,-28.41
45.656,-31.01
45.671,-33.31
45.687,-35.26
45.703,-36.91
45.718,-38.46
45.734,-40.15
45.750,-42.27
45.765,-44.99
45.781,-48.22
45.796,-51.55
45.812,-54.18
45.828,-55.16
45.843,-53.63
45.859,-49.11
45.875,-41.68
45.890,-31.94
45.906,-20.86
45.921,-9.51
45.937,1.25
45.953,10.82
45.968,18.92
45.984,25.49
46.000,30.6
46.015,34.35
46.031,36.8
46.046,38.06
46.062,38.26
46.078,37.55
46.093,36.12
46.109,34.14
46.125,31.75
46.140,29.09
46.156,26.28
46.171,23.51
46.187,20.93
46.203,18.67
46.218,16.75
46.234,15.05
46.250,13.4
46.265,11.62
46.281,9.67
46.296,7.61
46.312,5.62
46.328,3.87
46.343,2.4
46.359,1.03
46.375,-0.48
46.390,-2.37
46.406,-4.72
46.421,-7.44
46.437,-10.31
46.453,-13.07
46.468,-15.59
46.484,-17.88
46.500,-20.1
46.515,-22.42
46.531,-24.97
46.546,-27.86
46.562,-31.07
46.578,-34.45
46.593,-37.64
46.609,-40.06
46.625,-40.99
46.640,-39.72
46.656,-35.81
46.671,-29.25
46.687,-20.55
46.703,-10.57
46.718,-0.31
46.734,9.32
46.750,17.69
46.765,24.52
46.781,29.78
46.796,33.6
46.812,36.13
46.828,37.5
46.843,37.85
46.859,37.32
46.875,36.06
46.890,34.21
46.906,31.96
46.921,29.47
46.937,26.93
46.953,24.53
46.968,22.43
46.984,20.75
47.000,19.54
47.015,18.72
47.031,18.14
47.046,17.67
47.062,17.23
47.078,16.85
47.093,16.55
47.109,16.31
47.125,16.01
47.140,15.47
47.156,14.5
47.171,12.95
47.187,10.82
47.203,8.21
47.218,5.35
47.234,2.5
47.250,-0.09
47.265,-2.28
47.281,-4.11
47.296,-5.81
47.312,-7.73
47.328,-10.2
47.343,-13.29
47.359,-16.72
47.375,-19.82
47.390,-21.71
47.406,-21.5
47.421,-18.56
47.437,-12.69
47.453,-4.18
47.468,6.33
47.484,17.94
47.500,29.74
47.515,40.9
47.531,50.81
47.546,59.06
47.562,65.5
47.578,70.11
47.593,73.03
47.609,74.43
47.625,74.58
47.640,73.72
47.656,72.15
47.671,70.07
47.687,67.57
47.703,64.58
47.718,60.92
47.734,56.4
47.750,50.87
47.765,44.37
47.781,37.17
47.796,29.72
47.812,22.59
47.828,16.3
47.843,11.2
47.859,7.35
47.875,4.49
47.890,2.09
47.906,-0.37
47.921,-3.27
47.937,-6.74
47.953,-10.61
47.968,-14.57
47.984,-18.36
48.000,-21.85
48.015,-25.04
48.031,-27.94
48.046,-30.56
48.062,-32.85
48.078,-34.81
48.093,-36.46
48.109,-37.78
48.125,-38.59
48.140,-38.48
48.156,-36.83
48.171,-33.01
48.187,-26.59
48.203,-17.52
48.218,-6.13
48.234,6.99
48.250,21.1
48.265,35.38
48.281,48.89
48.296,60.53
48.312,69.11
48.328,73.6
48.343,73.46
48.359,68.87
48.375,60.7
48.390,50.3
48.406,39.0
48.421,27.83
48.437,17.28
48.453,7.42
48.468,-1.88
48.484,-10.67
48.500,-18.83
48.515,-26.14
48.531,-32.33
48.546,-37.28
48.562,-40.87
48.578,-43.1
48.593,-43.96
48.609,-43.55
48.625,-42.09
48.640,-39.96
48.656,-37.67
48.671,-35.69
48.687,-34.34
48.703,-33.69
48.718,-33.63
48.734,-33.91
48.750,-34.34
48.765,-34.83
48.781,-35.39
48.796,-36.07
48.812,-36.94
48.828,-38.03
48.843,-39.33
48.859,-40.75
48.875,-42.12
48.890,-43.11
48.906,-43.15
48.921,-41.59
48.937,-37.71
48.953,-31.05
48.968,-21.5
48.984,-9.4
49.000,4.5
49.015,19.22
49.031,33.76
49.046,47.26
49.062,59.13
49.078,69.07
49.093,76.95
49.109,82.73
49.125,86.49
49.140,88.37
49.156,88.61
49.171,87.64
49.187,85.89
49.203,83.73
49.218,81.29
49.234,78.42
49.250,74.72
49.265,69.77
49.281,63.36
49.296,55.59
49.312,46.82
49.328,37.5
49.343,27.92
49.359,18.19
49.375,8.23
49.390,-2.06
49.406,-12.65
49.421,-23.38
49.437,-34.01
49.453,-44.38
49.468,-54.44
49.484,-64.27
49.500,-73.93
49.515,-83.38
49.531,-92.51
49.546,-101.12
49.562,-109.18
49.578,-116.79
49.593,-124.09
49.609,-131.28
49.625,-138.42
49.640,-145.4
49.656,-152.08
49.671,-158.24
49.687,-163.57
49.703,-167.56
49.718,-169.44
49.734,-168.26
49.750,-163.2
49.765,-153.85
49.781,-140.36
49.796,-123.48
49.812,-104.29
49.828,-83.79
49.843,-62.74
49.859,-41.67
49.875,-21.01
49.890,-1.33
49.906,16.72
49.921,32.47
49.937,45.54
49.953,55.96
49.968,64.26
49.984,71.26
50.000,77.89
50.015,84.87
50.031,92.57
50.046,100.98
50.062,109.85
50.078,118.88
50.093,127.95
50.109,137.2
50.125,146.92
50.140,157.32
50.156,168.31
50.171,179.27
50.187,189.14
50.203,196.64
50.218,200.62
50.234,200.52
50.250,196.46
50.265,189.23
50.281,179.99
50.296,169.81
50.312,159.45
50.328,149.15
50.343,138.76
50.359,127.99
50.375,116.62
50.390,104.63
50.406,92.08
50.421,78.97
50.437,65.05
50.453,49.9
50.468,33.13
50.484,14.64
50.500,-5.13
50.515,-25.13
50.531,-43.82
50.546,-59.48
50.562,-70.51
50.578,-75.89
50.593,-75.54
50.609,-70.78
50.625,-64.38
50.640,-60.31
50.656,-62.94
50.671,-75.84
50.687,-100.51
50.703,-135.63
50.718,-177.08
50.734,-218.92
50.750,-254.97
50.765,-280.49
50.781,-293.23
50.796,-293.64
50.812,-284.18
50.828,-268.21
50.843,-248.83
50.859,-228.38
50.875,-208.47
50.890,-190.19
50.906,-174.53
50.921,-162.19
50.937,-153.3
50.953,-147.11
50.968,-142.1
50.984,-136.42
51.000,-128.77
51.015,-118.93
51.031,-107.79
51.046,-96.95
51.062,-87.88
51.078,-81.35
51.093,-77.2
51.109,-74.48
51.125,-72.06
51.140,-68.93
51.156,-64.69
51.171,-59.42
51.187,-53.74
51.203,-48.52
51.218,-44.64
51.234,-42.68
51.250,-42.71
51.265,-44.07
51.281,-45.41
51.296,-44.95
51.312,-40.94
51.328,-32.2
51.343,-18.37
51.359,-0.11
51.375,21.22
51.390,43.92
51.406,66.5
51.421,88.02
51.437,108.21
51.453,127.26
51.468,145.42
51.484,162.64
51.500,178.33
51.515,191.58
51.531,201.43
51.546,207.34
51.562,209.36
51.578,208.07
51.593,204.32
51.609,198.96
51.625,192.68
51.640,186.11
51.656,179.8
51.671,174.26
51.687,169.83
51.703,166.64
51.718,164.57
51.734,163.46
51.750,163.11
51.765,163.32
51.781,163.6
51.796,162.82
51.812,159.09
51.828,150.04
51.843,133.28
51.859,107.43
51.875,72.77
51.890,31.63
51.906,-12.06
51.921,-53.68
51.937,-89.45
51.953,-117.56
51.968,-138.91
51.984,-156.75
52.000,-175.35
52.015,-198.15
52.031,-226.31
52.046,-258.04
52.062,-289.14
52.078,-314.4
52.093,-329.14
52.109,-330.53
52.125,-318.01
52.140,-293.05
52.156,-258.61
52.171,-218.34
52.187,-176.06
52.203,-135.36
52.218,-99.29
52.234,-69.97
52.250,-48.42
52.265,-34.32
52.281,-26.16
52.296,-21.76
52.312,-18.9
52.328,-15.92
52.343,-12.17
52.359,-7.93
52.375,-4.16
52.390,-1.93
52.406,-2.1
52.421,-4.92
52.437,-10.15
52.453,-17.13
52.468,-24.99
52.484,-32.88
52.500,-40.1
52.515,-46.21
52.531,-50.98
52.546,-54.36
52.562,-56.33
52.578,-56.83
52.593,-55.7
52.609,-52.83
52.625,-48.27
52.640,-42.36
52.656,-35.79
52.671,-29.39
52.687,-24.0
52.703,-20.19
52.718,-18.21
52.734,-17.86
52.750,-18.67
52.765,-20.1
52.781,-21.68
52.796,-23.24
52.812,-24.87
52.828,-26.87
52.843,-29.63
52.859,-33.52
52.875,-38.71
52.890,-45.11
52.906,-52.11
52.921,-58.59
52.937,-62.95
52.953,-63.44
52.968,-58.66
52.984,-47.97
53.000,-31.84
53.015,-11.67
53.031,10.52
53.046,32.74
53.062,53.47
53.078,71.82
53.093,87.52
53.109,100.66
53.125,111.47
53.140,120.17
53.156,127.01
53.171,132.29
53.187,136.44
53.203,139.99
53.218,143.45
53.234,147.23
53.250,151.48
53.265,156.15
53.281,161.04
53.296,165.85
53.312,170.31
53.328,174.26
53.343,177.55
53.359,180.15
53.375,182.1
53.390,183.43
53.406,184.19
53.421,184.28
53.437,183.51
53.453,181.53
53.468,177.96
53.484,172.49
53.500,165.08
53.515,155.97
53.531,145.72
53.546,135.07
53.562,124.66
53.578,114.98
53.593,106.19
53.609,98.16
53.625,90.58
53.640,83.14
53.656,75.63
53.671,67.94
53.687,60.13
53.703,52.37
53.718,45.0
53.734,38.45
53.750,33.15
53.765,29.38
53.781,27.15
53.796,26.18
53.812,26.01
53.828,26.36
53.843,27.23
53.859,29.03
53.875,32.27
53.890,37.17
53.906,43.37
53.921,49.77
53.937,54.75
53.953,56.66
53.968,54.41
53.984,47.92
54.000,38.3
54.015,27.72
54.031,18.81
54.046,14.03
54.062,14.83
54.078,21.2
54.093,31.68
54.109,43.88
54.125,55.35
54.140,64.38
54.156,70.36
54.171,73.59
54.187,74.71
54.203,74.03
54.218,71.41
54.234,66.4
54.250,58.72
54.265,48.54
54.281,36.51
54.296,23.39
54.312,9.7
54.328,-4.34
54.343,-18.68
54.359,-33.16
54.375,-47.24
54.390,-60.15
54.406,-71.1
54.421,-79.68
54.437,-86.0
54.453,-90.58
54.468,-94.04
54.484,-96.66
54.500,-98.03
54.515,-97.06
54.531,-92.35
54.546,-82.85
54.562,-68.6
54.578,-50.99
54.593,-32.55
54.609,-15.98
54.625,-3.21
54.640,5.26
54.656,10.25
54.671,13.0
54.687,14.26
54.703,13.89
54.718,11.14
54.734,5.83
54.750,-1.09
54.765,-7.47
54.781,-11.19
54.796,-11.45
54.812,-9.7
54.828,-9.16
54.843,-13.29
54.859,-24.21
54.875,-41.76
54.890,-64.09
54.906,-89.0
54.921,-115.23
54.937,-142.6
54.953,-171.13
54.968,-199.74
54.984,-225.64
55.000,-244.96
55.015,-254.29
55.031,-252.17
55.046,-239.49
55.062,-218.79
55.078,-192.81
55.093,-163.56
55.109,-132.35
55.125,-100.66
55.140,-70.98
55.156,-46.77
55.171,-31.45
55.187,-27.0
55.203,-32.82
55.218,-45.69
55.234,-60.69
55.250,-72.73
55.265,-77.92
55.281,-74.49
55.296,-63.22
55.312,-47.32
55.328,-31.89
55.343,-22.65
55.359,-24.33
55.375,-38.92
55.390,-64.68
55.406,-96.52
55.421,-127.72
55.437,-152.35
55.453,-167.1
55.468,-171.94
55.484,-169.31
55.500,-162.62
55.515,-154.89
55.531,-148.21
55.546,-143.85
55.562,-142.67
55.578,-145.21
55.593,-151.28
55.609,-159.41
55.625,-166.95
55.640,-170.61
55.656,-167.74
55.671,-157.38
55.687,-140.69
55.703,-120.6
55.718,-100.66
55.734,-83.76
55.750,-71.38
55.765,-63.29
55.781,-58.13
55.796,-54.18
55.812,-50.19
55.828,-45.74
55.843,-41.29
55.859,-37.63
55.875,-35.35
55.890,-34.51
55.906,-34.57
55.921,-34.73
55.937,-34.31
55.953,-33.05
55.968,-31.16
55.984,-29.23
56.000,-27.86
56.015,-27.57
56.031,-28.51
56.046,-30.27
56.062,-31.87
56.078,-31.78
56.093,-28.29
56.109,-20.01
56.125,-6.37
56.140,12.12
56.156,33.95
56.171,57.05
56.187,79.46
56.203,99.78
56.218,117.25
56.234,131.68
56.250,143.11
56.265,151.64
56.281,157.42
56.296,160.67
56.312,161.84
56.328,161.56
56.343,160.56
56.359,159.48
56.375,158.7
56.390,158.3
56.406,158.13
56.421,158.0
56.437,157.82
56.453,157.8
56.468,158.27
56.484,159.57
56.500,161.83
56.515,164.76
56.531,167.78
56.546,170.15
56.562,171.33
56.578,171.13
56.593,169.91
56.609,168.39
56.625,167.41
56.640,167.67
56.656,169.49
56.671,172.64
56.687,176.52
56.703,180.3
56.718,183.24
56.734,184.96
56.750,185.55
56.765,185.7
56.781,186.59
56.796,189.69
56.812,196.17
56.828,206.3
56.843,218.86
56.859,230.98
56.875,238.81
56.890,238.8
56.906,228.99
56.921,209.97
56.937,184.59
56.953,156.9
56.968,130.74
56.984,108.56
57.000,91.16
57.015,78.16
57.031,68.65
57.046,61.66
57.062,56.23
57.078,51.19
57.093,45.05
57.109,36.27
57.125,23.65
57.140,6.97
57.156,-12.8
57.171,-33.73
57.187,-53.5
57.203,-70.18
57.218,-82.89
57.234,-91.92
57.250,-98.38
57.265,-103.59
57.281,-108.16
57.296,-111.56
57.312,-112.35
57.328,-108.88
57.343,-100.08
57.359,-86.11
57.375,-68.4
57.390,-49.2
57.406,-31.08
57.421,-16.37
57.437,-7.02
57.453,-4.48
57.468,-9.64
57.484,-22.53
57.500,-42.07
57.515,-66.05
57.531,-91.51
57.546,-115.53
57.562,-135.89
57.578,-151.56
57.593,-162.61
57.609,-169.64
57.625,-173.26
57.640,-173.74
57.656,-171.0
57.671,-164.91
57.687,-155.63
57.703,-143.78
57.718,-130.33
57.734,-116.43
57.750,-103.02
57.765,-90.7
57.781,-79.68
57.796,-69.75
57.812,-60.49
57.828,-51.41
57.843,-42.16
57.859,-32.7
57.875,-23.25
57.890,-14.16
57.906,-5.71
57.921,1.99
57.937,9.08
57.953,15.78
57.968,22.22
57.984,28.39
58.000,34.13
58.015,39.21
58.031,43.47
58.046,46.82
58.062,49.29
58.078,50.87
58.093,51.52
58.109,51.21
58.125,49.96
58.140,47.96
58.156,45.6
58.171,43.19
58.187,40.78
58.203,37.98
58.218,34.05
58.234,28.34
58.250,20.9
58.265,12.81
58.281,6.22
58.296,3.69
58.312,7.26
58.328,17.66
58.343,33.95
58.359,53.91
58.375,74.89
58.390,94.74
58.406,112.4
58.421,127.91
58.437,141.79
58.453,154.35
58.468,165.04
58.484,172.42
58.500,174.78
58.515,170.94
58.531,160.96
58.546,146.15
58.562,128.6
58.578,110.26
58.593,92.29
58.609,74.93
58.625,57.83
58.640,40.54
58.656,22.65
58.671,3.78
58.687,-16.56
58.703,-38.58
58.718,-61.46
58.734,-82.59
58.750,-97.66
58.765,-102.08
58.781,-93.14
58.796,-72.14
58.812,-44.82
58.828,-19.86
58.843,-5.75
58.859,-7.63
58.875,-25.45
58.890,-54.26
58.906,-86.54
58.921,-114.9
58.937,-134.41
58.953,-143.38
58.968,-142.8
58.984,-135.13
59.000,-123.2
59.015,-109.69
59.031,-96.99
59.046,-87.41
59.062,-82.87
59.078,-84.35
59.093,-91.17
59.109,-100.81
59.125,-109.36
59.140,-112.8
59.156,-108.48
59.171,-96.05
59.187,-77.61
59.203,-56.68
59.218,-36.87
59.234,-20.57
59.250,-8.38
59.265,0.61
59.281,8.13
59.296,15.97
59.312,25.45
59.328,37.14
59.343,51.03
59.359,66.36
59.375,81.61
59.390,94.56
59.406,102.61
59.421,103.47
59.437,96.07
59.453,81.19
59.468,61.35
59.484,40.24
59.500,21.55
59.515,8.07
59.531,1.09
59.546,0.28
59.562,3.86
59.578,8.8
59.593,11.03
59.609,6.02
59.625,-10.24
59.640,-39.83
59.656,-81.91
59.671,-132.47
59.687,-185.29
59.703,-233.8
59.718,-272.85
59.734,-299.82
59.750,-314.63
59.765,-318.97
59.781,-315.3
59.796,-306.17
59.812,-293.87
59.828,-280.41
59.843,-267.53
59.859,-256.44
59.875,-247.55
59.890,-240.32
59.906,-233.33
59.921,-224.72
59.937,-212.74
59.953,-196.33
59.968,-175.41
59.984,-150.94
